DTS Sentinel unit serial number:	SN413079Multiplexer serial number:	ORYXHardware model number:	OX4-SRSoftware version number:	ORYX F/W v4.00 Oryx Data Collector v3.7.2.0data status	okinstallation	princeton_trtdifferential loss correction	single-endedforward channel	channel 3reverse channel	N/Adate	2019/09/18time	09:48:35forward acquisition time	60.00reverse acquisition time	0.00gamma	496.2192k internal	0.2335k external	0.2335temperature offset calibration	0.9951default loss term (dB/km)	0.3790temperature slope calibration	1.0000multiplexer offset coefficient	1.0000multiplexer slope coefficient	1.0000fibre end	0.00T internal ref (°C)	27.00T ext. ref 1 (°C)	0.29T ext. ref 2 (°C)	23.65length (m)	temperature (°C)	Stokes	anti-Stokes-747.200	276.981	0.122	0.218
-746.185	-200.000	0.009	0.148
-745.171	788.641	0.117	-0.322
-744.156	-124.192	-0.080	-0.013
-743.142	-200.000	0.013	-0.317
-742.127	208.047	-0.122	0.192
-741.112	485.967	0.058	0.133
-740.098	66.077	-0.253	0.258
-739.083	-84.274	-0.036	-0.011
-738.069	-200.000	-0.020	-0.302
-737.054	-102.432	-0.256	-0.062
-736.039	-58.509	-0.395	-0.172
-735.025	-78.434	0.228	-0.078
-734.010	-12.803	-0.080	-0.053
-732.996	-200.000	-0.038	-0.330
-731.981	254.967	0.107	-0.184
-730.966	-61.017	-0.280	-0.119
-729.952	800.000	0.054	-0.183
-728.937	-14.774	-0.218	-0.140
-727.923	-61.318	0.245	0.103
-726.908	-200.000	0.017	-0.305
-725.894	-75.723	0.235	0.084
-724.879	79.792	-0.077	0.083
-723.864	23.970	-0.117	0.096
-722.850	87.796	-0.151	0.168
-721.835	60.494	0.096	-0.095
-720.821	800.000	0.029	-0.123
-719.806	191.135	0.138	-0.209
-718.791	-88.337	0.246	0.074
-717.777	343.008	-0.160	-0.314
-716.762	-200.000	0.004	-0.031
-715.748	503.044	0.096	0.222
-714.733	54.276	-0.097	-0.094
-713.718	-72.588	-0.186	-0.069
-712.704	-200.000	0.005	0.065
-711.689	800.000	0.057	-0.238
-710.675	-117.623	0.062	-0.011
-709.660	-200.000	0.039	-0.176
-708.645	414.656	0.034	-0.073
-707.631	173.419	-0.065	0.094
-706.616	300.471	0.087	0.162
-705.602	-4.299	0.310	-0.215
-704.587	242.952	-0.192	-0.322
-703.572	31.449	0.060	-0.052
-702.558	-200.000	0.019	-0.190
-701.543	-67.526	0.175	0.069
-700.529	-66.258	-0.124	0.049
-699.514	-200.000	-0.032	-0.365
-698.499	456.917	0.081	-0.180
-697.485	400.521	0.029	0.061
-696.470	-29.662	0.220	-0.126
-695.456	-101.234	0.105	-0.026
-694.441	759.302	0.029	-0.078
-693.426	-69.617	0.216	-0.083
-692.412	188.235	-0.132	-0.197
-691.397	198.999	-0.126	0.194
-690.383	-35.088	0.472	-0.258
-689.368	-200.000	-0.046	-0.470
-688.354	-33.328	-0.327	-0.181
-687.339	751.234	-0.187	0.506
-686.324	322.412	0.042	-0.080
-685.310	800.000	-0.103	-0.367
-684.295	287.011	-0.105	-0.191
-683.281	-128.528	-0.081	0.012
-682.266	453.337	-0.128	0.285
-681.251	-124.916	0.384	-0.059
-680.237	-200.000	0.001	0.064
-679.222	-41.665	0.207	0.107
-678.208	800.000	-0.042	-0.146
-677.193	-117.661	-0.241	0.043
-676.178	164.861	0.172	0.244
-675.164	-200.000	-0.022	0.174
-674.149	43.444	0.085	-0.078
-673.135	-174.592	-0.410	-0.012
-672.120	-200.000	-0.020	0.122
-671.105	-200.000	0.006	0.222
-670.091	800.000	-0.034	0.100
-669.076	800.000	-0.021	-0.089
-668.062	-122.534	0.040	-0.006
-667.047	35.515	-0.185	-0.162
-666.032	-103.527	-0.085	-0.020
-665.018	-200.000	-0.050	0.330
-664.003	-122.765	-0.078	-0.013
-662.989	-200.000	-0.036	-0.159
-661.974	-181.490	-0.208	0.004
-660.959	-53.381	0.283	0.130
-659.945	-69.404	-0.094	0.036
-658.930	-180.139	0.225	-0.005
-657.916	183.527	0.088	0.130
-656.901	439.013	0.004	-0.009
-655.886	-35.423	-0.070	0.038
-654.872	800.000	-0.056	-0.193
-653.857	-19.216	0.259	0.161
-652.843	-200.000	0.028	-0.169
-651.828	327.141	0.111	-0.213
-650.814	800.000	-0.087	0.288
-649.799	70.481	-0.165	-0.170
-648.784	-106.785	0.188	0.042
-647.770	225.413	-0.109	0.176
-646.755	240.093	-0.126	0.209
-645.741	-129.514	-0.244	-0.034
-644.726	-200.000	-0.005	-0.113
-643.711	-159.211	-0.215	-0.012
-642.697	-200.000	-0.015	0.125
-641.682	-50.238	-0.106	0.050
-640.668	-200.000	0.027	-0.196
-639.653	-112.086	-0.089	0.018
-638.638	-200.000	-0.037	0.225
-637.624	66.700	-0.254	-0.259
-636.609	-74.072	0.197	0.071
-635.595	235.769	-0.195	-0.322
-634.580	-72.069	0.265	-0.099
-633.565	21.465	-0.054	0.044
-632.551	-200.000	0.071	0.396
-631.536	-200.000	-0.036	0.235
-630.522	-59.028	0.253	0.109
-629.507	159.036	-0.115	-0.160
-628.492	-71.737	-0.582	-0.217
-627.478	48.714	-0.192	-0.180
-626.463	800.000	-0.085	0.333
-625.449	356.705	0.080	0.160
-624.434	-22.985	-0.253	0.152
-623.419	335.318	0.077	0.148
-622.405	800.000	-0.036	0.137
-621.390	179.835	0.061	-0.090
-620.376	-200.000	-0.012	0.064
-619.361	-200.000	0.019	-0.263
-618.346	168.429	0.233	-0.332
-617.332	333.210	0.180	0.347
-616.317	-200.000	-0.030	-0.210
-615.303	39.671	0.129	0.115
-614.288	103.383	-0.291	0.341
-613.273	-200.000	-0.088	-0.524
-612.259	154.502	-0.137	-0.189
-611.244	-51.349	0.247	0.116
-610.230	-200.000	0.007	0.041
-609.215	259.012	0.017	0.029
-608.201	-65.478	0.147	-0.059
-607.186	-200.000	-0.026	-0.419
-606.171	-200.000	0.014	0.127
-605.157	51.514	0.187	0.178
-604.142	-50.283	-0.285	-0.135
-603.128	401.192	-0.167	0.350
-602.113	-165.567	0.034	-0.001
-601.098	-72.600	0.218	0.080
-600.084	63.817	0.119	-0.120
-599.069	-200.000	-0.017	0.103
-598.055	35.627	0.213	-0.187
-597.040	110.223	0.052	0.063
-596.025	38.553	0.191	-0.171
-595.011	-146.344	0.295	-0.026
-593.996	-200.000	0.035	-0.222
-592.982	49.419	-0.183	-0.172
-591.967	33.221	0.118	0.102
-590.952	-143.451	0.024	0.002
-589.938	-72.814	0.046	0.017
-588.923	-121.078	0.066	0.011
-587.909	432.039	0.149	0.322
-586.894	-97.704	-0.157	0.041
-585.879	401.455	-0.083	-0.173
-584.865	-59.041	0.171	-0.074
-583.850	172.900	-0.169	0.244
-582.836	800.000	0.079	0.302
-581.821	-200.000	-0.008	0.101
-580.806	291.598	0.228	-0.414
-579.792	-8.234	0.177	-0.119
-578.777	16.533	0.195	-0.154
-577.763	-60.126	-0.176	0.075
-576.748	-37.055	-0.270	0.144
-575.733	-200.000	0.013	0.261
-574.719	-176.451	0.123	0.003
-573.704	317.746	0.105	0.198
-572.690	800.000	-0.073	0.249
-571.675	-200.000	0.036	-0.223
-570.661	83.774	-0.123	0.134
-569.646	-45.334	-0.231	-0.114
-568.631	571.710	-0.128	0.311
-567.617	-60.856	-0.111	0.047
-566.602	17.268	-0.239	-0.189
-565.588	113.912	0.125	-0.151
-564.573	91.383	0.024	-0.027
-563.558	-90.654	0.138	0.040
-562.544	165.973	-0.069	-0.098
-561.529	800.000	-0.015	0.057
-560.515	61.632	0.172	-0.171
-559.500	-55.411	-0.139	-0.062
-558.485	2.503	0.053	0.038
-557.471	-115.331	0.354	0.067
-556.456	-130.882	-0.074	-0.010
-555.442	-200.000	-0.014	0.177
-554.427	-200.000	0.001	-0.115
-553.412	45.904	0.331	-0.305
-552.398	-200.000	-0.028	-0.141
-551.383	-101.313	0.273	0.066
-550.369	-200.000	-0.028	-0.225
-549.354	-200.000	-0.042	0.261
-548.339	-200.000	0.058	0.294
-547.325	-121.826	-0.139	-0.023
-546.310	800.000	-0.083	0.356
-545.296	-28.392	0.308	-0.177
-544.281	-200.000	-0.037	-0.261
-543.266	88.082	-0.366	-0.405
-542.252	34.585	0.074	0.065
-541.237	56.502	0.033	0.032
-540.223	-40.463	0.228	-0.118
-539.208	686.651	-0.095	-0.246
-538.193	-200.000	-0.049	-0.437
-537.179	-123.423	-0.104	0.016
-536.164	-200.000	0.020	0.089
-535.150	-200.000	0.053	0.335
-534.135	-200.000	-0.024	0.327
-533.121	476.791	-0.043	-0.096
-532.106	800.000	-0.067	-0.188
-531.091	-103.023	0.271	0.064
-530.077	227.536	-0.051	0.082
-529.062	-118.510	-0.411	0.072
-528.048	170.047	0.124	-0.177
-527.033	139.880	0.127	0.166
-526.018	-190.011	-0.128	-0.001
-525.004	-68.637	0.227	-0.088
-523.989	-100.048	0.165	0.041
-522.975	800.000	0.059	-0.179
-521.960	-200.000	-0.004	0.218
-520.945	-200.000	0.017	-0.121
-519.931	40.500	-0.081	-0.073
-518.916	342.224	-0.115	0.224
-517.902	-120.368	-0.287	0.049
-516.887	800.000	0.046	-0.145
-515.872	-200.000	0.002	-0.191
-514.858	-13.920	0.084	-0.054
-513.843	-15.181	-0.081	-0.051
-512.829	-200.000	-0.045	-0.210
-511.814	316.745	-0.079	0.149
-510.799	61.012	-0.051	-0.050
-509.785	-200.000	0.003	-0.096
-508.770	-197.052	0.138	-0.001
-507.756	-99.662	0.204	-0.051
-506.741	-200.000	-0.013	-0.067
-505.726	800.000	0.045	-0.179
-504.712	-57.944	-0.061	0.027
-503.697	-200.000	-0.017	0.131
-502.683	-90.851	0.266	-0.076
-501.668	-47.115	-0.161	-0.078
-500.653	135.091	0.109	0.141
-499.639	-200.000	0.079	0.470
-498.624	800.000	0.108	0.379
-497.610	-143.828	-0.132	-0.012
-496.595	184.652	0.081	0.120
-495.581	-200.000	0.063	-0.462
-494.566	189.119	-0.145	-0.216
-493.551	-41.826	0.113	0.058
-492.537	480.871	-0.130	0.293
-491.522	8.177	0.085	0.063
-490.508	-111.596	0.265	-0.054
-489.493	-200.000	-0.044	0.415
-488.478	-200.000	-0.058	0.343
-487.464	-42.684	-0.200	-0.101
-486.449	-55.857	-0.271	0.120
-485.435	800.000	0.018	0.078
-484.420	-100.097	-0.211	0.052
-483.405	14.788	-0.126	0.098
-482.391	-142.149	0.244	-0.024
-481.376	198.099	-0.024	-0.037
-480.362	-117.801	-0.136	-0.024
-479.347	-93.510	-0.466	0.128
-478.332	-200.000	0.000	0.030
-477.318	-7.156	-0.294	-0.198
-476.303	-200.000	-0.035	-0.292
-475.289	-200.000	-0.006	-0.070
-474.274	-162.973	-0.348	-0.017
-473.259	161.217	-0.292	0.406
-472.245	-89.270	0.353	0.103
-471.230	800.000	-0.124	0.420
-470.216	-119.234	0.179	0.031
-469.201	696.516	0.091	0.239
-468.186	-200.000	0.050	0.289
-467.172	-117.724	-0.071	-0.013
-466.157	-6.310	0.083	0.056
-465.143	-108.131	-0.297	0.064
-464.128	406.341	0.224	0.469
-463.113	800.000	0.057	0.190
-462.099	596.738	0.051	-0.125
-461.084	800.000	0.016	-0.063
-460.070	-200.000	-0.030	-0.156
-459.055	771.738	0.079	-0.214
-458.040	-25.696	0.067	-0.039
-457.026	12.281	-0.320	-0.245
-456.011	-160.847	0.181	-0.009
-454.997	45.180	0.057	-0.052
-453.982	-131.849	-0.265	-0.034
-452.968	2.118	0.053	0.038
-451.953	207.503	-0.069	-0.107
-450.938	115.495	0.168	-0.204
-449.924	12.526	0.197	0.151
-448.909	211.204	-0.216	0.338
-447.895	69.289	-0.054	-0.055
-446.880	-88.697	-0.291	-0.086
-445.865	37.296	0.144	0.127
-444.851	800.000	-0.035	-0.098
-443.836	64.309	-0.109	-0.109
-442.822	-21.094	-0.179	0.109
-441.807	-53.994	0.433	0.196
-440.792	397.555	0.189	-0.392
-439.778	149.861	0.068	0.092
-438.763	-200.000	-0.032	0.442
-437.749	-77.582	-0.163	0.056
-436.734	31.480	0.221	-0.188
-435.719	782.818	-0.016	0.045
-434.705	-159.790	-0.240	0.013
-433.690	-200.000	-0.019	-0.138
-432.676	-171.925	-0.150	-0.005
-431.661	800.000	0.033	-0.135
-430.646	-132.793	-0.341	0.043
-429.632	800.000	-0.066	-0.234
-428.617	34.287	0.100	-0.086
-427.603	-190.513	-0.346	-0.004
-426.588	800.000	-0.085	-0.341
-425.573	742.540	0.061	-0.163
-424.559	-20.330	0.260	0.159
-423.544	-38.639	0.447	-0.234
-422.530	-200.000	-0.021	0.255
-421.515	800.000	-0.023	-0.065
-420.500	228.748	0.127	0.206
-419.486	-171.380	-0.233	-0.008
-418.471	-200.000	-0.003	-0.107
-417.457	8.112	0.243	-0.181
-416.442	105.553	-0.137	0.160
-415.428	-4.663	0.095	-0.065
-414.413	-200.000	-0.004	-0.075
-413.398	764.640	0.061	0.165
-412.384	-145.650	0.073	-0.006
-411.369	-98.915	-0.359	-0.091
-410.355	-126.316	0.133	-0.020
-409.340	7.535	0.154	-0.114
-408.325	-11.875	-0.271	0.176
-407.311	800.000	-0.015	0.063
-406.296	-132.445	0.183	-0.023
-405.282	-124.517	-0.178	0.027
-404.267	800.000	0.013	-0.047
-403.252	324.892	0.266	-0.503
-402.238	283.874	-0.089	0.158
-401.223	114.925	0.082	0.100
-400.209	25.139	0.170	-0.140
-399.194	163.202	0.222	0.309
-398.179	800.000	-0.090	0.281
-397.165	-113.671	0.350	0.068
-396.150	-139.579	-0.190	0.020
-395.136	657.650	-0.114	-0.290
-394.121	-56.102	-0.236	-0.104
-393.106	-55.004	0.238	-0.106
-392.092	-75.550	-0.221	0.078
-391.077	-200.000	0.031	0.200
-390.063	48.791	-0.083	-0.077
-389.048	-60.628	-0.124	0.052
-388.033	-13.249	-0.182	-0.117
-387.019	-15.607	0.167	-0.106
-386.004	800.000	-0.064	0.220
-384.990	284.264	-0.086	0.153
-383.975	63.220	-0.170	-0.169
-382.960	800.000	-0.039	0.113
-381.946	800.000	0.056	0.206
-380.931	243.266	-0.080	0.134
-379.917	213.404	0.119	0.186
-378.902	-44.022	-0.191	-0.095
-377.888	40.454	-0.118	-0.105
-376.873	35.102	-0.131	-0.114
-375.858	-153.961	0.100	0.007
-374.844	-97.895	-0.149	-0.038
-373.829	131.290	-0.138	-0.175
-372.815	-18.923	-0.145	-0.089
-371.800	37.984	0.176	0.155
-370.785	36.515	-0.172	-0.150
-369.771	10.713	-0.315	-0.238
-368.756	-200.000	0.025	-0.126
-367.742	800.000	0.072	-0.234
-366.727	-42.283	-0.146	0.074
-365.712	-6.023	0.180	0.122
-364.698	10.139	0.110	-0.083
-363.683	-200.000	-0.018	-0.312
-362.669	-62.660	0.192	0.079
-361.654	800.000	0.062	-0.211
-360.639	800.000	-0.047	0.196
-359.625	57.463	0.056	-0.054
-358.610	175.597	0.222	-0.319
-357.596	-55.074	-0.132	0.059
-356.581	113.520	0.225	-0.270
-355.566	268.439	0.126	-0.219
-354.552	-10.744	0.083	-0.054
-353.537	-39.787	0.253	-0.131
-352.523	-200.000	-0.025	0.209
-351.508	-143.127	-0.199	-0.019
-350.493	-7.449	-0.226	0.151
-349.479	787.538	0.046	-0.125
-348.464	102.756	-0.158	0.183
-347.450	800.000	0.068	-0.202
-346.435	-200.000	-0.020	0.325
-345.420	800.000	0.087	-0.297
-344.406	-37.999	-0.129	0.068
-343.391	630.546	0.097	0.242
-342.377	126.510	-0.269	-0.337
-341.362	-132.985	0.322	-0.040
-340.348	-111.255	-0.305	0.062
-339.333	387.791	-0.032	-0.066
-338.318	-74.799	0.153	0.054
-337.304	-7.106	-0.162	-0.109
-336.289	19.026	-0.128	0.102
-335.275	-111.229	-0.121	0.024
-334.260	-4.209	-0.183	0.125
-333.245	-111.926	0.017	0.003
-332.231	184.499	0.060	0.088
-331.216	-167.957	0.009	0.000
-330.202	6.312	-0.164	-0.120
-329.187	246.695	-0.091	-0.152
-328.172	-173.447	-0.263	0.008
-327.158	340.198	-0.022	0.042
-326.143	800.000	0.053	-0.175
-325.129	-73.708	0.046	-0.017
-324.114	800.000	0.201	-0.703
-323.099	-200.000	0.019	-0.128
-322.085	262.081	-0.093	-0.159
-321.070	63.207	-0.069	0.069
-320.056	205.166	0.024	0.038
-319.041	800.000	-0.018	-0.065
-318.026	35.874	0.097	0.085
-317.012	326.124	0.043	0.082
-315.997	-200.000	0.035	0.284
-314.983	62.314	0.102	-0.100
-313.968	49.935	-0.220	0.205
-312.953	800.000	-0.038	-0.103
-311.939	134.413	-0.053	-0.068
-310.924	-113.001	0.276	-0.054
-309.910	62.765	-0.112	-0.111
-308.895	-103.177	0.371	0.087
-307.880	-200.000	-0.009	-0.133
-306.866	-140.615	-0.240	-0.025
-305.851	275.155	-0.099	0.173
-304.837	-127.515	0.099	-0.014
-303.822	-127.005	0.144	-0.021
-302.807	4.881	0.267	-0.194
-301.793	-55.702	-0.290	0.128
-300.778	314.830	0.120	0.223
-299.764	143.659	0.209	-0.275
-298.749	-52.987	-0.288	-0.131
-297.735	72.804	-0.106	-0.109
-296.720	0.641	0.150	-0.106
-295.705	-55.813	0.138	-0.061
-294.691	-114.457	0.130	0.025
-293.676	100.533	-0.045	-0.051
-292.662	414.074	-0.066	0.138
-291.647	129.018	0.195	-0.245
-290.632	-200.000	-0.010	-0.158
-289.618	84.626	0.126	-0.136
-288.603	527.379	0.158	-0.368
-287.589	271.868	-0.180	-0.313
-286.574	-123.261	0.362	0.057
-285.559	423.474	-0.158	-0.336
-284.545	-107.247	0.300	-0.065
-283.530	-129.821	0.175	-0.024
-282.516	102.288	-0.201	-0.231
-281.501	-67.842	-0.101	0.039
-280.486	-113.701	-0.364	0.070
-279.472	257.256	-0.120	0.204
-278.457	135.805	0.047	-0.061
-277.443	256.075	0.101	0.171
-276.428	-46.803	0.221	-0.107
-275.413	-200.000	0.050	-0.415
-274.399	-200.000	-0.008	0.121
-273.384	41.378	-0.105	0.093
-272.370	-5.571	-0.380	0.257
-271.355	20.900	-0.060	0.048
-270.340	-69.620	-0.119	0.045
-269.326	-40.542	0.290	0.148
-268.311	-137.446	0.133	-0.015
-267.297	157.983	-0.076	0.104
-266.282	440.116	0.129	0.277
-265.267	64.818	-0.185	-0.184
-264.253	-99.115	-0.215	0.054
-263.238	-51.756	-0.326	0.150
-262.224	800.000	0.078	-0.228
-261.209	194.258	-0.230	-0.344
-260.195	-200.000	-0.043	0.217
-259.180	74.606	-0.133	-0.137
-258.165	102.446	0.121	0.139
-257.151	-80.170	-0.140	-0.046
-256.136	-61.980	-0.199	0.082
-255.122	-34.832	0.153	-0.082
-254.107	-171.736	0.240	0.008
-253.092	-105.043	-0.058	0.013
-252.078	228.848	-0.204	0.328
-251.063	800.000	0.094	0.361
-250.049	32.959	0.190	0.162
-249.034	-73.663	0.089	0.032
-248.019	322.917	-0.098	0.184
-247.005	-200.000	0.025	-0.259
-245.990	56.198	-0.090	-0.086
-244.976	-51.342	0.178	0.082
-243.961	-200.000	0.048	0.361
-242.946	170.615	0.156	-0.221
-241.932	-200.000	-0.022	-0.257
-240.917	-110.723	0.202	-0.041
-239.903	-200.000	-0.047	0.252
-238.888	83.759	-0.234	0.252
-237.873	-50.834	0.298	0.138
-236.859	-30.281	-0.119	-0.066
-235.844	-200.000	0.034	0.248
-234.830	243.443	-0.124	0.205
-233.815	-200.000	0.002	0.088
-232.800	800.000	-0.031	0.100
-231.786	178.372	0.157	-0.226
-230.771	171.280	-0.151	0.214
-229.757	-200.000	0.097	-0.495
-228.742	-122.499	-0.140	-0.022
-227.727	20.579	0.350	-0.279
-226.713	38.736	-0.138	-0.122
-225.698	244.485	-0.122	0.202
-224.684	3.135	0.267	0.191
-223.669	-162.257	0.228	-0.011
-222.655	-200.000	0.004	0.219
-221.640	-200.000	-0.025	0.325
-220.625	-200.000	-0.003	-0.037
-219.611	-129.095	-0.176	0.024
-218.596	621.568	0.084	0.208
-217.582	155.147	0.087	0.117
-216.567	148.570	-0.171	-0.227
-215.552	800.000	-0.013	-0.043
-214.538	-200.000	-0.020	-0.276
-213.523	91.831	-0.146	0.162
-212.509	-200.000	-0.012	-0.072
-211.494	-200.000	0.011	-0.265
-210.479	-200.000	-0.024	-0.148
-209.465	300.117	-0.071	0.129
-208.450	-200.000	0.002	0.059
-207.436	193.501	0.183	0.272
-206.421	-200.000	0.064	0.361
-205.406	-75.067	-0.252	0.089
-204.392	-200.000	0.049	-0.407
-203.377	-91.667	0.159	-0.045
-202.363	-143.762	-0.185	-0.017
-201.348	243.001	0.182	0.300
-200.333	15.750	-0.142	-0.110
-199.319	-32.228	0.234	0.128
-198.304	-55.924	0.319	0.140
-197.290	-200.000	-0.008	-0.224
-196.275	800.000	-0.017	-0.051
-195.260	43.026	0.133	0.120
-194.246	142.205	0.082	-0.107
-193.231	-16.890	-0.145	0.090
-192.217	55.849	-0.391	0.373
-191.202	-24.994	0.115	-0.067
-190.187	-200.000	0.012	0.061
-189.173	-87.854	0.160	-0.047
-188.158	398.257	-0.062	0.128
-187.144	-105.782	0.224	-0.050
-186.129	-200.000	0.001	0.172
-185.114	86.643	0.145	-0.157
-184.100	3.371	-0.147	-0.105
-183.085	-74.888	0.103	0.036
-182.071	800.000	-0.065	0.264
-181.056	-57.230	-0.283	-0.123
-180.042	-200.000	-0.075	-0.364
-179.027	-70.974	0.173	-0.064
-178.012	110.079	0.011	-0.013
-176.998	800.000	-0.083	0.320
-175.983	-200.000	-0.013	0.113
-174.969	-90.494	0.120	0.034
-173.954	-93.226	0.285	0.078
-172.939	-55.710	0.124	0.055
-171.925	186.403	0.033	-0.048
-170.910	800.000	0.126	-0.358
-169.896	-56.158	0.257	-0.112
-168.881	-30.330	0.292	-0.163
-167.866	-200.000	0.008	0.256
-166.852	-103.640	0.192	-0.044
-165.837	507.162	0.054	-0.124
-164.823	53.935	0.149	-0.141
-163.808	800.000	0.084	0.304
-162.793	81.480	-0.095	-0.101
-161.779	-200.000	-0.056	0.315
-160.764	-75.570	0.134	0.047
-159.750	-200.000	0.134	0.000
-158.735	398.396	0.065	0.134
-157.720	-133.730	0.269	-0.033
-156.706	800.000	0.068	-0.224
-155.691	-173.411	-0.270	-0.008
-154.677	58.006	-0.186	0.179
-153.662	-22.079	-0.212	0.126
-152.647	17.597	0.172	0.134
-151.633	-200.000	-0.011	-0.093
-150.618	-152.261	-0.191	0.014
-149.604	800.000	0.073	0.282
-148.589	-78.069	0.054	0.018
-147.574	-62.325	0.331	-0.135
-146.560	-12.694	-0.269	-0.172
-145.545	-200.000	0.044	-0.340
-144.531	91.417	-0.158	-0.174
-143.516	44.880	0.135	-0.122
-142.502	120.415	0.144	0.176
-141.487	99.602	-0.165	0.187
-140.472	-52.873	0.269	0.122
-139.458	800.000	0.138	0.434
-138.443	-200.000	0.005	-0.301
-137.429	-21.220	-0.402	0.241
-136.414	-19.518	-0.222	0.135
-135.399	-109.644	0.232	0.048
-134.385	38.987	-0.104	-0.091
-133.370	100.683	0.117	-0.133
-132.356	-77.660	0.096	0.033
-131.341	-200.000	-0.016	0.179
-130.326	9.584	0.286	0.213
-129.312	-90.237	-0.221	-0.063
-128.297	123.246	0.079	0.097
-127.283	279.423	0.049	0.086
-126.268	135.636	-0.169	-0.216
-125.253	13.682	0.070	-0.054
-124.239	134.510	0.132	0.167
-123.224	800.000	0.108	-0.386
-122.210	7.710	0.189	0.139
-121.195	-176.806	-0.054	-0.001
-120.180	-100.592	0.445	-0.108
-119.166	528.535	-0.031	-0.072
-118.151	-58.326	0.146	0.062
-117.137	-142.336	-0.236	0.023
-116.122	143.118	0.150	0.196
-115.107	134.454	0.072	0.092
-114.093	299.772	0.138	-0.249
-113.078	328.423	-0.029	-0.055
-112.064	509.025	0.148	0.338
-111.049	173.371	-0.172	0.242
-110.034	139.095	-0.224	0.289
-109.020	490.452	-0.083	0.185
-108.005	233.262	0.297	0.478
-106.991	-4.644	0.138	0.093
-105.976	-116.075	0.131	-0.024
-104.962	-184.338	0.258	0.004
-103.947	2.758	0.148	0.105
-102.932	35.181	0.303	-0.260
-101.918	-200.000	-0.046	-0.268
-100.903	-200.000	-0.006	-0.294
-99.889	113.215	0.185	0.219
-98.874	-200.000	-0.049	0.250
-97.859	-200.000	0.017	-0.355
-96.845	-57.982	-0.260	-0.111
-95.830	7.388	0.135	0.099
-94.816	-23.251	0.035	-0.021
-93.801	-200.000	0.007	0.181
-92.786	308.378	0.113	0.206
-91.772	100.820	-0.113	0.129
-90.757	23.435	-0.111	0.090
-89.743	-200.000	0.025	0.234
-88.728	54.021	0.071	0.067
-87.713	-165.568	0.215	-0.009
-86.699	-100.054	0.212	-0.052
-85.684	-200.000	-0.017	0.157
-84.670	6.908	0.251	0.183
-83.655	-83.866	-0.023	0.007
-82.640	-84.466	0.131	0.041
-81.626	756.377	0.088	0.234
-80.611	-13.683	-0.077	-0.049
-79.597	-200.000	-0.053	0.240
-78.582	-33.408	0.067	-0.036
-77.567	-113.985	0.170	0.032
-76.553	-81.499	-0.070	0.023
-75.538	52.908	0.099	-0.092
-74.524	-36.093	0.228	-0.120
-73.509	800.000	-0.049	0.133
-72.494	567.551	-0.076	0.182
-71.480	-74.032	0.196	0.070
-70.465	21.102	0.300	0.238
-69.451	-200.000	-0.013	-0.202
-68.436	800.000	-0.041	-0.175
-67.422	-19.570	-0.348	-0.211
-66.407	-58.918	-0.123	0.052
-65.392	800.000	0.024	-0.096
-64.378	83.265	0.087	0.092
-63.363	149.988	-0.147	-0.196
-62.349	-120.764	0.162	-0.027
-61.334	132.248	-0.807	-1.017
-60.319	162.615	0.574	0.788
-59.305	219.555	-0.612	-0.958
-58.290	377.263	0.681	1.361
-57.276	686.083	0.527	1.345
-56.261	-200.000	111.487	609.529
-55.246	442.503	1514.639	3244.315
-54.232	144.749	2697.559	3525.425
-53.217	100.961	2203.205	2505.644
-52.203	37.512	1722.368	1493.906
-51.188	30.066	1536.884	1281.696
-50.173	27.887	1512.004	1246.047
-49.159	51.321	1569.422	1456.824
-48.144	49.626	1585.352	1459.781
-47.130	30.362	1541.927	1287.755
-46.115	27.300	1526.408	1253.680
-45.100	27.082	1523.233	1249.521
-44.086	27.037	1521.254	1247.540
-43.071	26.990	1518.964	1245.289
-42.057	26.985	1517.420	1243.935
-41.042	27.008	1516.078	1242.946
-40.027	26.975	1514.916	1241.715
-39.013	26.933	1513.166	1239.947
-37.998	26.923	1511.934	1238.817
-36.984	26.948	1510.763	1237.980
-35.969	26.969	1509.342	1236.910
-34.954	27.034	1507.635	1235.907
-33.940	27.048	1506.211	1234.783
-32.925	27.004	1504.955	1233.407
-31.911	27.036	1503.770	1232.608
-30.896	27.068	1502.398	1231.649
-29.881	27.090	1501.234	1230.797
-28.867	27.036	1499.951	1229.328
-27.852	27.074	1498.574	1228.408
-26.838	27.033	1497.459	1227.171
-25.823	27.041	1495.786	1225.801
-24.809	27.062	1493.767	1224.241
-23.794	27.039	1492.615	1223.094
-22.779	27.036	1490.886	1221.609
-21.765	27.083	1490.053	1221.192
-20.750	27.071	1489.139	1220.311
-19.736	27.019	1488.114	1219.074
-18.721	27.106	1486.936	1218.647
-17.706	26.930	1486.094	1216.728
-16.692	26.992	1484.855	1216.085
-15.677	27.062	1483.266	1215.203
-14.663	27.004	1482.672	1214.278
-13.648	26.976	1481.714	1213.259
-12.633	26.949	1480.877	1212.344
-11.619	26.937	1480.176	1211.644
-10.604	26.946	1479.559	1211.151
-9.590	27.002	1478.325	1210.464
-8.575	26.959	1477.363	1209.342
-7.560	26.955	1477.015	1208.985
-6.546	26.936	1475.390	1207.478
-5.531	26.934	1474.544	1206.726
-4.517	26.951	1473.656	1206.065
-3.502	26.944	1473.014	1205.445
-2.487	26.988	1471.566	1204.498
-1.473	26.914	1470.745	1203.292
-0.458	27.031	1469.048	1202.632
0.556	25.554	1459.568	1192.705
1.571	23.087	1435.279	1156.637
2.586	20.059	1374.268	1088.385
3.600	18.779	1289.944	1013.958
4.615	17.498	1245.832	971.892
5.629	15.214	1188.019	914.263
6.644	7.598	1102.602	809.752
7.659	1.446	1062.828	750.175
8.673	0.436	1057.277	741.230
9.688	0.274	1054.422	738.368
10.702	0.247	1052.771	737.013
11.717	0.223	1050.780	735.436
12.731	2.627	1052.856	748.577
13.746	10.161	1062.949	792.724
14.761	15.802	1070.293	825.895
15.775	17.024	1070.485	831.961
16.790	16.344	1069.325	827.655
17.804	15.505	1066.855	821.570
18.819	14.685	1064.547	815.712
19.834	14.257	1063.339	812.626
20.848	13.899	1062.809	810.402
21.863	13.767	1061.497	808.689
22.877	13.421	1061.043	806.587
23.892	13.330	1060.079	805.335
24.907	13.153	1059.492	803.956
25.921	13.167	1058.256	803.019
26.936	13.235	1057.915	803.019
27.950	13.240	1057.642	802.764
28.965	13.181	1056.600	801.618
29.980	13.352	1055.530	801.561
30.994	13.409	1054.537	801.015
32.009	13.252	1054.036	799.804
33.023	13.464	1052.793	799.812
34.038	13.478	1052.042	799.237
35.053	13.240	1051.934	797.937
36.067	13.347	1050.746	797.480
37.082	13.293	1049.601	796.281
38.096	13.408	1048.948	796.269
39.111	13.439	1048.080	795.688
40.126	13.440	1046.932	794.751
41.140	13.343	1045.871	793.410
42.155	13.136	1045.503	792.066
43.169	13.242	1044.092	791.438
44.184	13.123	1043.491	790.341
45.199	13.242	1042.189	789.854
46.213	13.181	1041.317	788.833
47.228	13.224	1040.511	788.359
48.242	13.196	1039.546	787.423
49.257	13.244	1038.495	786.784
50.271	13.281	1037.427	786.083
51.286	13.423	1035.857	785.499
52.301	13.211	1035.525	784.169
53.315	13.271	1034.971	783.966
54.330	13.067	1034.494	782.568
55.344	13.277	1032.709	782.141
56.359	13.274	1031.581	781.205
57.374	13.246	1031.053	780.603
58.388	13.184	1030.280	779.657
59.403	13.223	1029.189	778.949
60.417	13.162	1028.498	778.068
61.432	13.189	1027.944	777.708
62.447	13.190	1027.487	777.298
63.461	13.050	1026.712	775.986
64.476	13.076	1025.592	775.190
65.490	13.092	1024.744	774.555
66.505	13.193	1024.024	774.415
67.520	13.074	1023.279	773.225
68.534	13.179	1022.361	772.958
69.549	13.343	1021.130	772.726
70.563	13.100	1020.770	771.250
71.578	13.159	1020.130	770.970
72.593	13.212	1019.021	770.311
73.607	13.085	1018.253	769.072
74.622	13.118	1017.205	768.367
75.636	13.116	1016.387	767.672
76.651	13.166	1015.607	767.245
77.666	13.015	1015.209	766.179
78.680	13.141	1014.191	765.922
79.695	13.064	1013.671	765.108
80.709	13.085	1013.013	764.641
81.724	13.187	1012.368	764.556
82.739	13.212	1011.819	764.192
83.753	13.194	1011.049	763.457
84.768	13.213	1010.347	762.949
85.782	13.389	1009.062	762.721
86.797	13.464	1008.425	762.517
87.812	13.460	1008.136	762.214
88.826	13.243	1007.100	760.364
89.841	13.285	1006.528	760.061
90.855	13.375	1005.123	759.343
91.870	13.321	1004.525	758.577
92.884	13.337	1003.999	758.187
93.899	13.298	1003.276	757.394
94.914	13.313	1002.400	756.735
95.928	13.406	1001.684	756.554
96.943	13.409	1001.170	756.113
97.957	13.445	1000.065	755.376
98.972	13.332	999.662	754.487
99.987	13.275	998.875	753.568
101.001	13.370	997.938	753.229
102.016	13.415	996.872	752.561
103.030	13.356	995.991	751.561
104.045	13.404	994.905	750.893
105.060	13.422	993.875	750.130
106.074	13.350	993.033	749.102
107.089	13.238	992.218	747.914
108.103	13.164	991.414	746.906
109.118	13.323	990.064	746.542
110.133	13.228	989.405	745.552
111.147	13.271	988.896	745.293
112.162	13.252	987.779	744.300
113.176	13.171	986.806	743.137
114.191	13.244	985.897	742.717
115.206	13.235	985.671	742.441
116.220	13.294	984.272	741.585
117.235	13.221	983.365	740.508
118.249	13.367	982.393	740.366
119.264	13.381	981.318	739.553
120.279	13.407	980.409	738.917
121.293	13.352	980.015	738.311
122.308	13.174	979.467	737.038
123.322	13.266	978.224	736.448
124.337	13.274	977.356	735.764
125.352	13.272	976.201	734.820
126.366	13.190	974.965	733.459
127.381	13.347	973.589	733.056
128.395	13.329	973.037	732.495
129.410	13.213	972.060	731.183
130.424	13.192	971.176	730.362
131.439	13.228	970.753	730.136
132.454	13.266	969.412	729.231
133.468	13.384	968.766	729.199
134.483	13.310	968.271	728.440
135.497	13.278	967.615	727.737
136.512	13.243	967.060	727.106
137.527	13.258	966.166	726.431
138.541	13.213	965.338	725.549
139.556	13.230	964.463	724.901
140.570	13.354	963.804	724.886
141.585	13.436	962.860	724.470
142.600	13.420	962.245	723.874
143.614	13.372	961.504	723.043
144.629	13.347	960.774	722.321
145.643	13.449	959.841	722.001
146.658	13.482	959.096	721.517
147.673	13.410	958.247	720.504
148.687	13.349	957.470	719.589
149.702	13.385	956.440	718.907
150.716	13.285	955.609	717.788
151.731	13.405	954.484	717.396
152.746	13.309	953.978	716.539
153.760	13.396	953.298	716.340
154.775	13.383	952.277	715.455
155.789	13.334	951.932	714.919
156.804	13.460	951.174	714.829
157.819	13.504	950.145	714.183
158.833	13.577	949.798	714.173
159.848	13.565	948.836	713.336
160.862	13.573	948.081	712.742
161.877	13.604	947.648	712.487
162.892	13.557	946.435	711.307
163.906	13.440	945.698	710.189
164.921	13.561	944.767	709.946
165.935	13.390	944.258	708.770
166.950	13.500	943.043	708.266
167.964	13.485	942.116	707.442
168.979	13.495	941.244	706.765
169.994	13.556	940.034	706.054
171.008	13.575	939.296	705.521
172.023	13.477	938.400	704.366
173.037	13.640	937.822	704.565
174.052	13.642	936.938	703.845
175.067	13.682	936.435	703.577
176.081	13.510	935.890	702.373
177.096	13.605	934.853	701.938
178.110	13.709	933.329	701.169
179.125	13.679	933.278	700.942
180.140	13.532	932.356	699.565
181.154	13.767	931.182	699.614
182.169	13.686	931.285	699.288
183.183	13.586	930.930	698.541
184.198	13.730	929.902	698.313
185.213	13.844	929.156	698.172
186.227	13.814	928.806	697.719
187.242	13.797	928.291	697.198
188.256	13.890	927.658	697.054
189.271	13.852	926.898	696.262
190.286	13.861	925.951	695.524
191.300	13.858	924.717	694.523
192.315	13.716	924.913	694.016
193.329	13.552	924.112	692.666
194.344	13.708	922.977	692.407
195.359	13.765	922.555	692.267
196.373	13.776	922.009	691.843
197.388	13.776	922.102	691.850
198.402	13.860	920.971	691.290
199.417	13.911	920.666	691.211
200.432	14.040	920.186	691.327
201.446	13.870	920.007	690.427
202.461	13.974	919.470	690.393
203.475	14.091	919.078	690.523
204.490	14.211	917.830	690.024
205.504	14.136	916.740	688.833
206.519	14.103	916.140	688.182
207.534	13.972	915.897	687.397
208.548	14.028	914.805	686.747
209.563	14.016	914.603	686.489
210.577	14.068	913.308	685.667
211.592	14.036	913.127	685.340
212.607	14.144	912.607	685.334
213.621	14.238	911.929	685.153
214.636	14.163	911.328	684.331
215.650	14.163	910.405	683.579
216.665	14.193	909.781	683.171
217.680	14.239	909.436	683.040
218.694	14.214	909.061	682.596
219.709	14.270	908.431	682.294
220.723	14.459	907.315	682.168
221.738	14.370	906.740	681.310
222.753	14.278	906.311	680.550
223.767	14.243	905.655	679.855
224.782	14.244	904.752	679.121
225.796	14.467	903.982	679.394
226.811	14.315	903.723	678.517
227.826	14.322	902.930	677.891
228.840	14.359	902.246	677.471
229.855	14.441	901.410	677.113
230.869	14.442	900.797	676.598
231.884	14.417	899.899	675.763
232.899	14.327	899.390	674.957
233.913	14.303	899.066	674.555
234.928	14.331	898.249	673.994
235.942	14.359	897.350	673.375
236.957	14.520	896.705	673.483
237.972	14.418	896.186	672.621
238.986	14.392	895.485	671.932
240.001	14.471	894.940	671.782
241.015	14.440	894.166	671.013
242.030	14.556	893.682	671.057
243.045	14.582	892.390	670.135
244.059	14.519	892.464	669.878
245.074	14.546	891.710	669.360
246.088	14.660	890.980	669.210
247.103	14.596	890.512	668.543
248.117	14.458	890.025	667.566
249.132	14.729	889.065	667.869
250.147	14.616	888.981	667.296
251.161	14.642	888.082	666.666
252.176	14.722	887.577	666.546
253.190	14.782	886.765	666.119
254.205	14.865	886.172	665.944
255.220	15.048	884.985	665.721
256.234	14.965	884.286	664.806
257.249	14.947	884.210	664.621
258.263	14.866	883.672	663.836
259.278	14.908	882.867	663.336
260.293	14.826	882.661	662.799
261.307	14.890	881.866	662.396
262.322	15.068	880.845	662.277
263.336	15.091	880.156	661.788
264.351	15.071	879.974	661.517
265.366	15.077	879.473	661.105
266.380	15.077	878.727	660.486
267.395	15.012	878.069	659.677
268.409	15.129	877.007	659.279
269.424	15.095	876.183	658.470
270.439	15.124	875.832	658.260
271.453	15.081	875.265	657.607
272.468	15.081	874.510	656.982
273.482	15.092	873.884	656.498
274.497	15.072	873.197	655.844
275.512	15.107	872.808	655.632
276.526	15.054	872.235	654.936
277.541	15.118	871.280	654.410
278.555	15.278	870.523	654.410
279.570	15.195	870.350	653.897
280.585	15.274	869.760	653.704
281.599	15.287	868.807	652.981
282.614	15.185	868.167	652.043
283.628	15.231	867.927	651.986
284.643	15.319	866.996	651.569
285.657	15.471	866.443	651.687
286.672	15.236	866.304	650.614
287.687	15.193	866.103	650.239
288.701	15.390	865.354	650.380
289.716	15.414	864.257	649.593
290.730	15.311	864.310	649.175
291.745	15.378	863.383	648.682
292.760	15.580	862.151	648.476
293.774	15.458	861.898	647.758
294.789	15.523	861.176	647.411
295.803	15.369	861.019	646.639
296.818	15.425	860.267	646.235
297.833	15.477	859.468	645.779
298.847	15.548	858.643	645.372
299.862	15.494	858.226	644.795
300.876	15.476	857.378	644.032
301.891	15.575	856.805	643.923
302.906	15.755	855.829	643.824
303.920	15.602	855.710	643.091
304.935	15.581	854.660	642.164
305.949	15.520	854.246	641.564
306.964	15.697	853.486	641.613
307.979	15.927	852.540	641.721
308.993	15.752	852.618	641.053
310.008	15.699	851.992	640.324
311.022	15.723	851.441	639.948
312.037	15.815	850.853	639.797
313.052	15.870	850.428	639.629
314.066	15.764	849.634	638.573
315.081	15.817	848.944	638.201
316.095	15.688	848.567	637.372
317.110	15.767	847.913	637.123
318.125	15.769	847.518	636.776
319.139	15.814	846.838	636.381
320.154	15.807	846.589	636.110
321.168	15.794	846.066	635.610
322.183	15.828	845.246	635.068
323.197	15.841	844.681	634.635
324.212	15.906	843.807	634.168
325.227	15.770	843.836	633.622
326.241	15.787	843.305	633.233
327.256	15.913	842.659	633.164
328.270	15.928	841.835	632.544
329.285	15.884	841.527	632.091
330.300	15.893	841.121	631.764
331.314	15.869	840.762	631.348
332.329	15.884	839.707	630.557
333.343	15.947	839.230	630.380
334.358	16.046	838.340	630.024
335.373	15.989	838.264	629.699
336.387	16.031	837.496	629.225
337.402	16.107	837.069	629.131
338.416	16.128	836.356	628.619
339.431	16.085	835.727	627.928
340.446	16.084	834.946	627.284
341.460	16.201	834.508	627.332
342.475	16.198	834.162	627.008
343.489	16.312	833.482	626.864
344.504	16.136	832.925	625.734
345.519	16.268	832.591	625.918
346.533	16.329	831.870	625.547
347.548	16.315	831.577	625.219
348.562	16.339	830.953	624.784
349.577	16.234	830.358	623.895
350.592	16.223	829.805	623.383
351.606	16.237	829.474	623.130
352.621	16.304	828.611	622.674
353.635	16.330	828.405	622.558
354.650	16.212	827.948	621.726
355.665	16.346	828.035	622.231
356.679	16.375	827.392	621.798
357.694	16.423	826.708	621.407
358.708	16.428	826.042	620.870
359.723	16.524	825.094	620.454
360.738	16.353	825.143	619.808
361.752	16.434	824.689	619.710
362.767	16.395	823.903	618.921
363.781	16.506	823.623	619.061
364.796	16.604	823.287	619.114
365.810	16.604	822.808	618.697
366.825	16.515	822.702	618.239
367.840	16.589	822.162	618.047
368.854	16.490	822.001	617.513
369.869	16.802	820.912	617.776
370.883	16.579	820.422	616.540
371.898	16.564	819.966	616.089
372.913	16.645	819.538	616.007
373.927	16.561	818.951	615.208
374.942	16.609	818.101	614.688
375.956	16.732	817.844	614.888
376.971	16.735	817.175	614.341
377.986	16.863	816.373	614.147
379.000	16.771	815.973	613.457
380.015	16.951	815.651	613.812
381.029	16.826	814.625	612.536
382.044	16.878	813.964	612.171
383.059	17.002	813.787	612.431
384.073	17.030	813.158	612.007
385.088	17.066	812.737	611.764
386.102	16.831	812.358	610.578
387.117	16.893	811.740	610.283
388.132	16.833	811.262	609.655
389.146	16.840	810.860	609.322
390.161	16.988	810.488	609.522
391.175	16.918	810.168	608.974
392.190	16.941	809.764	608.700
393.205	16.781	809.587	607.939
394.219	17.137	808.417	608.283
395.234	16.942	808.324	607.461
396.248	16.875	807.635	606.649
397.263	17.022	807.162	606.766
398.278	16.771	807.177	605.826
399.292	16.826	806.228	605.256
400.307	17.002	805.696	605.432
401.321	16.981	805.653	605.272
402.336	16.961	805.354	604.920
403.350	16.929	804.895	604.408
404.365	17.082	804.335	604.477
405.380	17.191	803.743	604.370
406.394	17.155	803.238	603.807
407.409	17.311	802.623	603.845
408.423	17.264	802.313	603.394
409.438	17.235	802.070	603.055
410.453	17.328	801.528	602.923
411.467	17.324	801.036	602.486
412.482	17.315	800.612	602.079
413.496	17.261	800.394	601.671
414.511	17.391	800.093	601.854
415.526	17.442	799.469	601.512
416.540	17.436	798.886	600.997
417.555	17.420	798.752	600.785
418.569	17.345	798.139	600.008
419.584	17.371	797.671	599.696
420.599	17.336	797.229	599.184
421.613	111.263	1295.356	1477.743
422.628	95.732	1367.908	1477.832
