DTS Sentinel unit serial number:	SN413079Multiplexer serial number:	ORYXHardware model number:	OX4-SRSoftware version number:	ORYX F/W v4.00 Oryx Data Collector v3.7.2.0data status	okinstallation	princeton_trtdifferential loss correction	single-endedforward channel	channel 3reverse channel	N/Adate	2019/09/13time	10:56:34forward acquisition time	60.00reverse acquisition time	0.00gamma	496.2192k internal	0.2319k external	0.2319temperature offset calibration	1.0142default loss term (dB/km)	0.3790temperature slope calibration	1.0000multiplexer offset coefficient	1.0000multiplexer slope coefficient	1.0000fibre end	0.00T internal ref (°C)	31.77T ext. ref 1 (°C)	4.61T ext. ref 2 (°C)	28.26length (m)	temperature (°C)	Stokes	anti-Stokes-747.200	386.904	-0.043	-0.090
-746.185	-200.000	0.053	0.341
-745.171	-41.396	0.256	-0.134
-744.156	-200.000	-0.009	0.134
-743.142	-200.000	-0.044	-0.240
-742.127	-200.000	0.041	-0.253
-741.112	800.000	0.125	0.411
-740.098	664.757	-0.058	0.152
-739.083	-85.778	-0.102	0.032
-738.069	-200.000	0.012	0.401
-737.054	-124.774	0.184	-0.029
-736.039	712.628	-0.020	0.053
-735.025	6.417	0.334	-0.251
-734.010	-200.000	-0.069	-0.397
-732.996	152.411	-0.143	-0.198
-731.981	-3.610	-0.270	-0.190
-730.966	20.627	-0.379	-0.311
-729.952	-124.678	-0.254	-0.040
-728.937	39.374	-0.248	-0.224
-727.923	-186.554	0.176	-0.003
-726.908	25.078	-0.282	-0.237
-725.894	514.963	-0.117	-0.277
-724.879	800.000	0.073	0.247
-723.864	7.467	-0.327	0.247
-722.850	536.614	0.079	-0.189
-721.835	-174.392	0.189	-0.005
-720.821	-200.000	-0.002	0.167
-719.806	-80.107	-0.346	-0.117
-718.791	-200.000	-0.098	-0.570
-717.777	-117.849	0.149	0.027
-716.762	523.930	-0.098	0.232
-715.748	-108.143	-0.307	-0.067
-714.733	-130.877	0.208	-0.028
-713.718	455.383	0.076	-0.171
-712.704	192.313	0.073	0.112
-711.689	-10.428	0.079	-0.053
-710.675	397.810	-0.086	-0.181
-709.660	-21.142	-0.257	-0.159
-708.645	-200.000	-0.001	-0.254
-707.631	-20.817	0.217	-0.135
-706.616	-176.718	-0.098	0.003
-705.602	-200.000	-0.019	0.257
-704.587	-83.978	-0.323	-0.104
-703.572	800.000	-0.065	-0.201
-702.558	-103.485	-0.368	-0.087
-701.543	340.780	0.023	-0.044
-700.529	-63.682	0.225	-0.093
-699.514	-10.392	0.032	-0.021
-698.499	-55.188	-0.058	-0.026
-697.485	59.398	0.247	-0.246
-696.470	-200.000	-0.083	-0.476
-695.456	-200.000	-0.021	0.298
-694.441	-6.459	-0.345	-0.237
-693.426	-11.943	0.172	0.114
-692.412	110.423	0.020	0.024
-691.397	800.000	0.024	0.094
-690.383	-97.739	0.108	0.028
-689.368	-92.621	0.083	-0.023
-688.354	93.374	-0.123	0.141
-687.339	-200.000	-0.039	0.174
-686.324	27.153	0.137	0.116
-685.310	-52.194	-0.254	0.119
-684.295	77.514	-0.070	-0.075
-683.281	650.753	-0.096	-0.248
-682.266	800.000	0.048	0.159
-681.251	-79.072	0.035	0.012
-680.237	-200.000	0.071	0.337
-679.222	50.741	-0.266	-0.254
-678.208	-200.000	-0.002	-0.058
-677.193	-172.013	0.191	-0.006
-676.178	654.008	0.092	-0.237
-675.164	-120.228	0.299	-0.051
-674.149	-106.603	-0.254	0.057
-673.135	44.774	-0.095	0.088
-672.120	-109.136	0.202	0.043
-671.105	-48.709	-0.134	0.065
-670.091	-5.576	0.121	0.084
-669.076	800.000	0.100	-0.436
-668.062	-27.678	0.253	-0.148
-667.047	-118.502	0.351	0.063
-666.032	-170.388	0.084	-0.003
-665.018	62.850	-0.051	-0.051
-664.003	34.503	0.118	0.104
-662.989	172.514	0.092	-0.133
-661.974	10.359	-0.154	-0.118
-660.959	242.527	-0.089	0.150
-659.945	-177.410	-0.257	-0.006
-658.930	497.242	-0.099	0.230
-657.916	30.096	0.288	-0.247
-656.901	37.720	-0.123	-0.110
-655.886	-200.000	0.013	-0.418
-654.872	667.647	0.085	0.223
-653.857	800.000	-0.055	-0.168
-652.843	397.478	0.074	-0.156
-651.828	97.001	0.168	-0.194
-650.814	-54.529	-0.172	0.078
-649.799	-106.799	-0.111	-0.025
-648.784	-13.945	0.396	-0.258
-647.770	716.707	0.083	0.223
-646.755	-10.168	-0.402	0.269
-645.741	-149.092	-0.398	-0.032
-644.726	800.000	0.042	-0.183
-643.711	368.135	0.055	0.112
-642.697	308.539	-0.055	-0.103
-641.682	-6.064	-0.108	-0.074
-640.668	264.385	0.121	-0.212
-639.653	109.407	-0.033	0.040
-638.638	-47.789	-0.277	-0.135
-637.624	-63.891	0.193	0.079
-636.609	-27.034	0.160	0.094
-635.595	-200.000	0.009	0.158
-634.580	-150.478	0.230	0.018
-633.565	-123.765	-0.252	-0.040
-632.551	298.080	0.019	0.036
-631.536	164.296	-0.124	0.176
-630.522	-200.000	-0.014	0.276
-629.507	133.734	0.133	-0.173
-628.492	-200.000	0.032	-0.423
-627.478	-200.000	-0.004	-0.107
-626.463	-118.512	0.117	-0.021
-625.449	-136.171	-0.165	-0.019
-624.434	-101.865	-0.189	0.046
-623.419	-10.888	0.243	0.162
-622.405	-70.566	0.280	-0.107
-621.390	76.607	0.142	-0.151
-620.376	160.063	-0.072	-0.102
-619.361	-23.405	-0.201	-0.121
-618.346	94.001	0.115	0.131
-617.332	127.178	-0.081	0.103
-616.317	709.574	-0.066	-0.175
-615.303	281.706	0.157	-0.282
-614.288	97.811	-0.041	-0.047
-613.273	-200.000	-0.017	-0.192
-612.259	-22.423	-0.115	-0.070
-611.244	-25.909	0.065	-0.038
-610.230	-200.000	-0.058	-0.323
-609.215	-65.115	-0.203	-0.083
-608.201	-19.791	0.315	-0.196
-607.186	800.000	-0.105	0.327
-606.171	-109.268	0.160	0.034
-605.157	188.609	-0.021	-0.031
-604.142	193.237	-0.136	-0.207
-603.128	800.000	0.037	0.157
-602.113	-100.765	-0.069	0.017
-601.098	233.216	-0.159	0.263
-600.084	-200.000	0.004	-0.188
-599.069	-8.901	0.143	-0.096
-598.055	490.042	0.030	-0.069
-597.040	-16.904	0.226	-0.143
-596.025	-200.000	-0.056	-0.408
-595.011	-179.264	0.544	-0.012
-593.996	-16.269	0.159	0.102
-592.982	90.598	-0.018	0.020
-591.967	-2.983	-0.063	-0.044
-590.952	145.333	0.209	-0.282
-589.938	-163.007	-0.198	0.010
-588.923	42.316	-0.139	0.127
-587.909	-20.373	0.086	0.053
-586.894	-150.173	-0.211	-0.016
-585.879	299.483	0.057	-0.106
-584.865	24.088	-0.249	-0.207
-583.850	-132.470	0.206	0.027
-582.836	73.871	-0.178	-0.188
-581.821	-92.624	-0.328	0.093
-580.806	142.266	-0.206	0.275
-579.792	-200.000	0.008	-0.141
-578.777	-200.000	-0.035	0.201
-577.763	-64.795	0.278	0.113
-576.748	153.742	-0.186	-0.256
-575.733	82.797	-0.180	-0.197
-574.719	-200.000	0.005	-0.062
-573.704	-23.110	0.197	-0.119
-572.690	-200.000	0.010	-0.118
-571.675	-50.833	-0.289	0.136
-570.661	-132.250	0.197	0.026
-569.646	510.991	-0.085	0.199
-568.631	-22.216	0.164	-0.100
-567.617	-52.563	-0.195	-0.090
-566.602	772.048	0.039	0.106
-565.588	248.773	0.199	0.338
-564.573	395.991	-0.025	0.053
-563.558	-200.000	0.000	0.112
-562.544	-118.501	0.250	-0.044
-561.529	90.887	-0.162	0.183
-560.515	256.076	-0.155	0.268
-559.500	40.252	-0.183	0.165
-558.485	-123.118	-0.238	0.038
-557.471	800.000	0.053	-0.172
-556.456	36.601	0.024	0.021
-555.442	-200.000	-0.089	0.400
-554.427	23.207	-0.122	0.101
-553.412	183.133	0.296	0.439
-552.398	107.630	0.077	0.092
-551.383	-144.943	-0.076	0.007
-550.369	291.029	-0.080	0.145
-549.354	28.092	0.133	0.113
-548.339	-8.662	-0.127	0.086
-547.325	27.351	0.262	-0.221
-546.310	-200.000	0.014	-0.115
-545.296	0.306	-0.250	-0.179
-544.281	-200.000	-0.009	0.144
-543.266	37.824	-0.114	0.101
-542.252	238.958	0.162	-0.270
-541.237	-68.857	0.347	-0.135
-540.223	-200.000	0.000	-0.326
-539.208	-116.073	-0.128	0.024
-538.193	380.696	-0.092	-0.189
-537.179	141.810	-0.035	-0.047
-536.164	146.172	-0.179	0.240
-535.150	124.767	-0.133	0.168
-534.135	800.000	0.087	-0.247
-533.121	-9.251	0.155	0.104
-532.106	-156.111	0.311	-0.020
-531.091	117.456	-0.079	0.097
-530.077	-94.455	0.316	0.086
-529.062	-100.500	-0.182	-0.045
-528.048	-148.779	0.080	-0.007
-527.033	3.578	0.033	-0.024
-526.018	196.020	-0.178	-0.272
-525.004	42.735	-0.130	-0.119
-523.989	-200.000	0.004	-0.029
-522.975	-145.704	0.124	0.011
-521.960	-6.682	0.043	0.029
-520.945	-148.178	0.102	0.008
-519.931	-200.000	0.023	0.182
-518.916	-200.000	-0.004	0.279
-517.902	46.968	-0.050	-0.047
-516.887	10.452	-0.071	-0.055
-515.872	-200.000	0.036	-0.165
-514.858	148.979	-0.159	0.216
-513.843	27.002	-0.033	0.028
-512.829	-200.000	0.029	-0.228
-511.814	800.000	0.094	0.363
-510.799	-200.000	0.029	-0.245
-509.785	192.438	-0.100	0.152
-508.770	800.000	0.109	0.324
-507.756	-200.000	-0.013	-0.101
-506.741	800.000	0.017	-0.053
-505.726	-200.000	-0.008	0.105
-504.712	-14.168	0.143	0.092
-503.697	-40.390	-0.320	0.167
-502.683	800.000	0.065	0.266
-501.668	-24.897	0.138	0.082
-500.653	280.248	0.054	-0.097
-499.639	-95.772	-0.261	0.070
-498.624	287.771	-0.160	0.290
-497.610	252.218	-0.110	-0.188
-496.595	269.462	-0.166	0.291
-495.581	116.031	0.205	-0.251
-494.566	219.170	-0.152	0.244
-493.551	-77.003	-0.548	-0.192
-492.537	-45.766	-0.256	0.127
-491.522	740.473	0.048	-0.130
-490.508	-200.000	-0.001	0.130
-489.493	582.114	0.052	-0.128
-488.478	-177.949	-0.341	0.008
-487.464	-200.000	-0.037	0.283
-486.449	-142.101	0.170	0.017
-485.435	88.156	0.024	-0.026
-484.420	69.591	-0.179	-0.184
-483.405	-145.385	-0.222	-0.020
-482.391	145.733	-0.148	0.199
-481.376	-165.288	-0.209	0.009
-480.362	-200.000	-0.028	0.341
-479.347	-200.000	-0.032	0.184
-478.332	-37.010	0.144	0.077
-477.318	87.813	0.166	0.184
-476.303	-55.133	0.433	0.195
-475.289	402.001	-0.041	-0.085
-474.274	-200.000	-0.045	-0.229
-473.259	800.000	0.065	-0.286
-472.245	-200.000	0.039	0.204
-471.230	-200.000	-0.015	0.347
-470.216	-95.159	0.219	0.059
-469.201	484.487	0.110	-0.251
-468.186	-1.094	-0.175	0.124
-467.172	95.173	-0.103	-0.117
-466.157	800.000	0.033	-0.137
-465.143	111.686	0.105	-0.126
-464.128	64.074	-0.181	-0.182
-463.113	252.946	0.006	-0.010
-462.099	-115.997	-0.243	-0.045
-461.084	-153.447	-0.519	-0.036
-460.070	747.877	0.142	-0.383
-459.055	-200.000	-0.083	0.417
-458.040	195.454	0.231	-0.351
-457.026	255.776	0.171	-0.293
-456.011	-23.434	-0.230	0.138
-454.997	-68.288	-0.125	-0.049
-453.982	116.612	-0.193	0.237
-452.968	64.568	-0.110	0.111
-451.953	208.627	-0.098	0.153
-450.938	317.088	-0.138	0.260
-449.924	32.922	0.178	0.154
-448.909	-88.924	0.117	-0.035
-447.895	23.388	0.076	-0.062
-446.880	-127.563	0.337	-0.049
-445.865	-33.662	-0.198	-0.109
-444.851	74.418	-0.099	-0.104
-443.836	-200.000	-0.020	-0.107
-442.822	-28.458	-0.095	0.055
-441.807	262.881	0.109	0.188
-440.792	273.511	0.137	-0.242
-439.778	206.496	0.122	-0.190
-438.763	-19.131	0.144	0.090
-437.749	-64.594	0.133	0.054
-436.734	-105.913	-0.305	0.069
-435.719	-106.582	-0.457	-0.102
-434.705	-179.480	0.102	0.002
-433.690	-200.000	-0.015	-0.108
-432.676	-90.584	-0.226	0.065
-431.661	-3.522	-0.174	-0.121
-430.646	8.680	-0.172	-0.130
-429.632	2.722	-0.255	-0.185
-428.617	-39.944	0.248	0.129
-427.603	-154.143	-0.510	0.035
-426.588	148.990	-0.044	0.059
-425.573	168.661	-0.157	-0.223
-424.559	-200.000	-0.000	-0.100
-423.544	-100.452	0.583	-0.144
-422.530	-4.222	0.193	-0.133
-421.515	-72.300	0.300	-0.111
-420.500	-10.122	-0.221	-0.147
-419.486	800.000	-0.053	0.172
-418.471	73.068	0.212	0.221
-417.457	302.323	-0.068	0.126
-416.442	410.814	0.038	0.081
-415.428	-200.000	0.003	0.094
-414.413	-200.000	-0.077	-0.365
-413.398	-200.000	0.026	-0.143
-412.384	-119.641	0.054	0.009
-411.369	-36.023	0.249	-0.135
-410.355	22.238	-0.133	0.109
-409.340	-200.000	0.014	-0.124
-408.325	-117.386	0.056	0.010
-407.311	22.354	-0.172	0.141
-406.296	-40.138	-0.056	0.029
-405.282	-22.178	0.217	-0.131
-404.267	-200.000	-0.013	-0.200
-403.252	-65.892	0.036	-0.014
-402.238	153.870	0.229	-0.314
-401.223	61.485	-0.102	0.101
-400.209	83.672	0.173	-0.189
-399.194	-200.000	-0.012	-0.226
-398.179	-200.000	0.035	-0.279
-397.165	307.030	0.192	-0.357
-396.150	175.314	-0.063	-0.091
-395.136	751.595	0.030	0.080
-394.121	-20.105	0.159	-0.098
-393.106	-200.000	-0.005	-0.118
-392.092	39.958	0.246	0.221
-391.077	-180.961	0.318	-0.006
-390.063	87.349	-0.196	-0.216
-389.048	27.624	-0.169	0.142
-388.033	-141.342	0.230	0.023
-387.019	59.858	0.071	-0.070
-386.004	-200.000	-0.015	-0.133
-384.990	196.068	0.227	-0.345
-383.975	464.609	-0.077	-0.171
-382.960	110.118	-0.066	0.079
-381.946	-28.587	0.090	0.052
-380.931	-200.000	0.005	0.033
-379.917	-100.863	0.236	0.058
-378.902	-200.000	-0.042	0.285
-377.888	278.827	0.026	0.046
-376.873	-112.438	0.318	0.063
-375.858	126.829	0.130	0.164
-374.844	800.000	-0.044	-0.177
-373.829	165.603	-0.047	-0.067
-372.815	33.177	0.093	-0.081
-371.800	336.559	0.084	0.163
-370.785	-200.000	0.013	0.077
-369.771	-200.000	-0.031	0.185
-368.756	-4.935	-0.111	-0.076
-367.742	-200.000	0.023	0.133
-366.727	70.333	-0.055	-0.057
-365.712	17.135	-0.087	0.069
-364.698	6.783	-0.125	0.093
-363.683	-122.045	0.307	0.050
-362.669	-200.000	-0.023	0.447
-361.654	-111.000	0.235	-0.048
-360.639	31.145	-0.127	0.108
-359.625	-200.000	0.042	0.187
-358.610	-200.000	0.031	0.347
-357.596	123.906	-0.141	0.177
-356.581	27.395	0.074	0.062
-355.566	-28.152	0.094	-0.054
-354.552	-193.011	-0.051	-0.000
-353.537	-5.409	-0.064	0.044
-352.523	132.189	0.167	0.215
-351.508	-62.952	0.095	-0.039
-350.493	86.514	0.203	-0.223
-349.479	-200.000	0.029	-0.257
-348.464	-62.822	-0.229	0.094
-347.450	-48.827	0.272	-0.130
-346.435	-146.442	0.050	-0.004
-345.420	160.435	0.261	-0.362
-344.406	-127.929	-0.337	-0.048
-343.391	189.809	-0.058	-0.086
-342.377	-200.000	-0.004	0.021
-341.362	-59.946	0.279	0.119
-340.348	53.210	-0.218	-0.208
-339.333	-31.316	0.076	0.042
-338.318	-92.585	-0.166	0.046
-337.304	-200.000	0.042	0.225
-336.289	-184.859	0.272	-0.004
-335.275	-200.000	-0.014	0.073
-334.260	-40.281	-0.277	-0.144
-333.245	193.793	-0.129	0.194
-332.231	164.591	-0.152	-0.213
-331.216	-97.050	0.151	0.039
-330.202	-37.732	-0.082	0.043
-329.187	151.998	0.160	0.217
-328.172	519.054	0.027	0.062
-327.158	-200.000	-0.036	-0.000
-326.143	-61.471	0.330	-0.138
-325.129	90.721	-0.120	-0.134
-324.114	51.535	0.077	-0.073
-323.099	-200.000	-0.136	-0.001
-322.085	-87.191	0.092	0.028
-321.070	11.365	0.199	0.152
-320.056	-200.000	0.042	0.253
-319.041	-200.000	0.048	-0.293
-318.026	-17.790	-0.117	-0.073
-317.012	-200.000	-0.000	-0.434
-315.997	-157.403	0.136	0.008
-314.983	-200.000	-0.005	-0.170
-313.968	-83.362	-0.089	-0.028
-312.953	800.000	-0.073	0.263
-311.939	137.430	0.124	-0.161
-310.924	-156.984	0.163	0.010
-309.910	-200.000	-0.012	-0.312
-308.895	-78.178	0.046	0.016
-307.880	28.170	0.219	0.184
-306.866	-143.530	0.454	-0.043
-305.851	-147.656	-0.357	-0.030
-304.837	34.057	-0.170	0.147
-303.822	-200.000	0.017	0.196
-302.807	-200.000	0.035	-0.159
-301.793	-200.000	-0.063	0.280
-300.778	155.169	-0.117	0.161
-299.764	800.000	0.049	-0.205
-298.749	45.558	0.093	-0.085
-297.735	549.652	-0.159	0.380
-296.720	133.363	0.198	0.254
-295.705	405.571	-0.071	0.148
-294.691	-9.041	0.050	0.033
-293.676	-37.530	0.169	0.090
-292.662	268.698	-0.096	-0.167
-291.647	-96.060	-0.263	-0.069
-290.632	-200.000	-0.005	0.252
-289.618	-146.462	0.193	-0.017
-288.603	-111.604	-0.243	-0.049
-287.589	-200.000	0.012	0.058
-286.574	-200.000	-0.022	0.269
-285.559	-200.000	-0.013	-0.227
-284.545	105.562	-0.160	0.188
-283.530	-56.474	-0.129	-0.057
-282.516	-27.727	0.222	-0.128
-281.501	-110.509	-0.066	-0.014
-280.486	-41.977	-0.260	-0.132
-279.472	-200.000	0.021	0.156
-278.457	467.807	0.075	-0.167
-277.443	800.000	0.144	-0.455
-276.428	-5.740	0.355	0.241
-275.413	-46.941	-0.066	0.032
-274.399	148.782	0.127	-0.170
-273.384	1.642	0.230	-0.164
-272.370	-154.674	0.265	-0.017
-271.355	17.401	0.025	-0.019
-270.340	-200.000	-0.015	0.157
-269.326	-66.084	-0.183	-0.072
-268.311	9.283	-0.114	0.086
-267.297	-13.693	0.178	-0.114
-266.282	57.261	-0.143	0.138
-265.267	-85.565	-0.188	0.058
-264.253	-93.047	0.167	0.046
-263.238	22.906	-0.243	-0.198
-262.224	-122.118	0.127	0.021
-261.209	29.184	-0.118	-0.099
-260.195	762.317	-0.165	0.445
-259.180	-133.375	-0.142	-0.018
-258.165	28.523	-0.250	-0.210
-257.151	-80.957	0.206	0.068
-256.136	-17.890	-0.094	-0.058
-255.122	35.103	-0.091	-0.079
-254.107	-200.000	0.004	0.107
-253.092	-200.000	-0.006	-0.222
-252.078	-122.638	-0.267	0.043
-251.063	354.111	0.048	-0.094
-250.049	-97.270	-0.363	0.094
-249.034	-200.000	0.048	-0.241
-248.019	684.934	0.062	0.162
-247.005	-200.000	0.091	0.472
-245.990	586.861	-0.103	-0.251
-244.976	-14.399	-0.068	-0.044
-243.961	-200.000	0.014	-0.150
-242.946	-200.000	0.106	0.482
-241.932	470.225	-0.062	-0.137
-240.917	192.043	0.223	-0.334
-239.903	105.219	0.257	0.301
-238.888	-158.266	0.374	0.022
-237.873	800.000	0.149	-0.513
-236.859	219.414	0.034	-0.054
-235.844	-155.210	0.296	-0.019
-234.830	-200.000	-0.003	-0.050
-233.815	-69.452	0.183	-0.070
-232.800	465.320	0.139	-0.307
-231.786	-200.000	-0.044	0.191
-230.771	-200.000	-0.034	0.295
-229.757	-200.000	0.016	0.072
-228.742	-200.000	-0.008	0.162
-227.727	712.738	0.112	0.295
-226.713	-61.434	0.371	0.155
-225.698	145.371	-0.061	-0.081
-224.684	-19.883	0.100	0.061
-223.669	-12.831	-0.246	0.159
-222.655	800.000	-0.153	0.425
-221.640	-57.236	-0.152	0.066
-220.625	800.000	0.025	0.083
-219.611	-200.000	-0.023	-0.206
-218.596	-6.613	0.377	-0.254
-217.582	-56.717	-0.097	0.043
-216.567	-113.576	0.038	-0.007
-215.552	62.591	-0.152	0.151
-214.538	343.566	-0.225	0.437
-213.523	-200.000	0.028	0.179
-212.509	-15.950	0.091	-0.057
-211.494	-40.505	0.118	0.061
-210.479	-200.000	0.010	-0.068
-209.465	-200.000	-0.219	-0.001
-208.450	271.091	-0.087	0.153
-207.436	106.053	0.090	0.105
-206.421	150.488	-0.198	-0.266
-205.406	-51.504	-0.167	-0.077
-204.392	354.351	-0.093	0.183
-203.377	-40.342	-0.110	0.057
-202.363	-108.295	-0.155	0.033
-201.348	61.546	0.073	0.071
-200.333	246.475	0.266	-0.444
-199.319	-79.882	-0.352	0.117
-198.304	-100.012	0.149	-0.037
-197.290	-22.630	0.456	0.273
-196.275	-200.000	-0.007	0.311
-195.260	-87.490	-0.264	-0.079
-194.246	-200.000	0.015	-0.223
-193.231	84.895	0.153	-0.166
-192.217	-200.000	-0.013	0.180
-191.202	283.224	0.009	0.016
-190.187	174.008	0.155	-0.222
-189.173	88.066	0.065	-0.071
-188.158	-200.000	-0.020	-0.225
-187.144	-84.979	-0.104	-0.032
-186.129	72.296	0.175	-0.180
-185.114	91.517	-0.268	0.298
-184.100	58.191	-0.182	-0.177
-183.085	-73.921	0.257	0.092
-182.071	800.000	0.054	-0.155
-181.056	800.000	-0.115	-0.340
-180.042	-200.000	-0.004	-0.118
-179.027	146.574	0.279	-0.371
-178.012	-71.258	-0.333	-0.124
-176.998	-200.000	0.005	-0.029
-175.983	800.000	0.064	0.204
-174.969	102.244	0.158	-0.182
-173.954	245.498	-0.173	0.288
-172.939	-200.000	-0.028	0.183
-171.925	-119.391	0.078	0.013
-170.910	-138.688	-0.144	-0.016
-169.896	-102.208	0.257	0.061
-168.881	800.000	0.012	-0.051
-167.866	29.047	-0.377	0.316
-166.852	-200.000	0.001	-0.107
-165.837	336.571	0.073	0.141
-164.823	246.010	0.138	0.229
-163.808	-200.000	0.002	-0.095
-162.793	214.507	0.037	-0.058
-161.779	-200.000	0.015	0.088
-160.764	-200.000	0.008	0.079
-159.750	372.334	0.131	0.263
-158.735	-123.258	-0.410	0.065
-157.720	192.201	0.075	0.112
-156.706	-183.154	0.153	0.003
-155.691	24.374	-0.114	0.093
-154.677	67.626	-0.196	-0.198
-153.662	-200.000	-0.029	-0.143
-152.647	-108.416	-0.334	-0.071
-151.633	-32.613	-0.155	-0.085
-150.618	87.979	0.072	0.079
-149.604	32.634	-0.232	-0.198
-148.589	61.810	-0.103	0.101
-147.574	-18.512	-0.177	0.109
-146.560	215.608	0.104	-0.164
-145.545	577.375	0.143	0.347
-144.531	-200.000	0.041	0.226
-143.516	347.659	-0.095	0.184
-142.502	-85.599	-0.214	-0.066
-141.487	-64.456	0.063	0.026
-140.472	-54.918	-0.004	-0.002
-139.458	241.987	0.088	-0.145
-138.443	9.114	0.049	-0.037
-137.429	183.627	-0.033	-0.048
-136.414	8.981	-0.159	-0.119
-135.399	800.000	0.070	-0.207
-134.385	-45.147	0.109	0.054
-133.370	72.799	-0.095	-0.098
-132.356	-140.958	-0.124	0.013
-131.341	88.547	-0.226	0.248
-130.326	800.000	-0.060	-0.193
-129.312	163.561	0.193	-0.268
-128.297	-200.000	0.031	0.326
-127.283	-139.065	0.160	-0.017
-126.268	21.753	-0.269	-0.216
-125.253	-200.000	-0.037	-0.246
-124.239	-107.406	0.174	-0.038
-123.224	-144.405	-0.081	-0.007
-122.210	-3.143	0.094	0.065
-121.195	-53.488	0.267	-0.121
-120.180	611.595	0.108	0.266
-119.166	19.004	-0.100	0.079
-118.151	800.000	-0.076	-0.280
-117.137	-68.548	0.253	0.097
-116.122	-24.253	-0.119	-0.070
-115.107	-85.820	0.155	-0.047
-114.093	-122.406	-0.362	0.058
-113.078	70.702	-0.304	0.310
-112.064	-42.452	0.150	-0.075
-111.049	327.333	0.176	-0.333
-110.034	-127.978	-0.004	-0.001
-109.020	-171.820	-0.312	-0.010
-108.005	-145.873	-0.252	0.022
-106.991	-77.918	-0.183	-0.062
-105.976	-85.923	0.187	0.057
-104.962	800.000	0.034	0.094
-103.947	-200.000	-0.009	0.219
-102.932	46.319	0.151	-0.138
-101.918	397.735	0.193	-0.398
-100.903	800.000	0.032	-0.120
-99.889	380.135	-0.048	-0.098
-98.874	230.156	-0.182	-0.293
-97.859	-58.857	0.255	-0.109
-96.845	-200.000	0.017	0.100
-95.830	99.298	-0.255	-0.290
-94.816	-170.201	0.217	-0.008
-93.801	-32.661	0.174	0.096
-92.786	139.867	0.072	0.093
-91.772	96.451	-0.083	0.094
-90.757	125.290	-0.033	0.041
-89.743	-154.754	0.109	0.007
-88.728	-200.000	0.000	0.116
-87.713	-200.000	0.019	0.322
-86.699	800.000	-0.163	0.618
-85.684	800.000	0.074	0.245
-84.670	72.771	0.161	0.166
-83.655	35.156	0.112	0.097
-82.640	-121.450	0.203	-0.033
-81.626	355.351	-0.040	0.079
-80.611	31.287	-0.318	-0.269
-79.597	18.262	-0.413	0.325
-78.582	-106.093	0.066	-0.015
-77.567	193.752	-0.135	0.202
-76.553	-57.216	-0.195	-0.085
-75.538	-140.431	-0.142	0.015
-74.524	-200.000	-0.028	-0.254
-73.509	-200.000	0.003	-0.038
-72.494	800.000	0.071	-0.282
-71.480	800.000	0.104	0.302
-70.465	284.287	0.122	0.216
-69.451	-36.614	-0.328	-0.174
-68.436	28.450	-0.112	-0.093
-67.422	800.000	-0.088	-0.296
-66.407	-121.271	-0.095	0.016
-65.392	160.451	-0.097	-0.133
-64.378	11.271	-0.118	0.089
-63.363	-169.769	0.254	-0.009
-62.349	800.000	-0.051	0.189
-61.334	219.963	-0.581	-0.917
-60.319	90.128	0.454	0.500
-59.305	241.804	-0.594	-0.977
-58.290	800.000	0.463	1.305
-57.276	800.000	0.480	1.433
-56.261	-200.000	95.781	598.465
-55.246	641.123	1394.929	3498.241
-54.232	192.063	2586.919	3841.800
-53.217	119.058	2188.142	2664.300
-52.203	42.701	1726.168	1547.895
-51.188	34.949	1538.385	1325.984
-50.173	32.486	1511.293	1285.784
-49.159	52.163	1560.065	1464.178
-48.144	53.777	1577.602	1491.769
-47.130	35.297	1537.631	1327.535
-46.115	32.095	1522.964	1292.817
-45.100	31.864	1519.936	1288.609
-44.086	31.917	1517.576	1286.919
-43.071	31.824	1515.944	1284.848
-42.057	31.737	1514.320	1282.821
-41.042	31.878	1513.049	1282.661
-40.027	31.828	1511.676	1281.103
-39.013	31.782	1510.231	1279.511
-37.998	31.771	1508.920	1278.280
-36.984	31.722	1507.817	1276.956
-35.969	31.824	1506.234	1276.260
-34.954	31.815	1504.901	1275.018
-33.940	31.810	1503.370	1273.639
-32.925	31.963	1501.235	1272.820
-31.911	31.765	1500.649	1270.926
-30.896	31.860	1499.119	1270.222
-29.881	31.855	1497.579	1268.837
-28.867	31.737	1496.620	1267.175
-27.852	31.872	1494.701	1266.412
-26.838	31.871	1493.382	1265.233
-25.823	31.784	1491.968	1263.402
-24.809	31.918	1489.928	1262.528
-23.794	31.760	1489.098	1260.712
-22.779	31.771	1487.732	1259.576
-21.765	31.777	1486.429	1258.462
-20.750	31.833	1485.398	1257.918
-19.736	31.729	1484.814	1256.677
-18.721	31.886	1483.298	1256.393
-17.706	31.799	1481.925	1254.598
-16.692	31.772	1481.202	1253.757
-15.677	31.678	1480.309	1252.319
-14.663	31.738	1478.966	1251.538
-13.648	31.699	1477.900	1250.328
-12.633	31.639	1477.083	1249.184
-11.619	31.711	1476.460	1249.090
-10.604	31.650	1475.634	1247.934
-9.590	31.555	1475.274	1246.947
-8.575	31.712	1473.896	1246.779
-7.560	31.708	1473.041	1245.979
-6.546	31.769	1471.567	1245.084
-5.531	31.729	1470.480	1243.851
-4.517	31.739	1469.682	1243.192
-3.502	31.742	1468.613	1242.258
-2.487	31.713	1467.381	1240.976
-1.473	31.678	1466.696	1240.113
-0.458	31.744	1465.251	1239.284
0.556	33.782	1456.095	1229.334
1.571	30.795	1429.510	1187.760
2.586	27.095	1366.582	1112.757
3.600	25.367	1283.138	1034.773
4.615	23.372	1237.410	986.709
5.629	19.927	1180.354	922.799
6.644	12.064	1095.798	817.552
7.659	5.857	1055.486	757.511
8.673	4.817	1050.044	748.541
9.688	4.595	1047.105	745.316
10.702	4.368	1045.506	743.025
11.717	4.650	1043.608	742.959
12.731	7.544	1046.802	759.017
13.746	15.571	1057.523	805.348
14.761	21.449	1064.546	838.901
15.775	22.159	1065.102	842.675
16.790	21.662	1063.232	838.740
17.804	20.669	1061.247	832.351
18.819	19.763	1059.535	826.606
19.834	19.303	1058.738	823.711
20.848	19.213	1057.265	822.063
21.863	19.218	1056.537	821.450
22.877	18.967	1056.171	819.897
23.892	18.743	1055.498	818.232
24.907	18.650	1054.410	816.874
25.921	18.576	1053.919	816.068
26.936	18.685	1053.352	816.078
27.950	18.660	1051.979	814.820
28.965	18.736	1050.794	814.194
29.980	18.681	1049.880	813.153
30.994	18.821	1049.026	813.081
32.009	19.131	1047.782	813.512
33.023	19.066	1047.388	812.826
34.038	19.115	1046.130	812.009
35.053	18.987	1045.515	810.856
36.067	18.798	1044.899	809.417
37.082	18.806	1043.565	808.350
38.096	18.840	1043.160	808.123
39.111	18.836	1042.898	807.829
40.126	19.012	1041.713	807.667
41.140	18.832	1040.872	806.099
42.155	18.582	1039.163	803.532
43.169	18.415	1038.186	801.925
44.184	18.555	1036.457	801.174
45.199	18.397	1035.522	799.644
46.213	18.331	1034.880	798.769
47.228	18.430	1034.171	798.612
48.242	18.727	1033.179	799.156
49.257	18.906	1032.464	799.364
50.271	18.863	1031.502	798.349
51.286	18.775	1030.355	796.985
52.301	18.850	1029.801	796.834
53.315	18.883	1029.276	796.508
54.330	18.698	1028.777	795.194
55.344	18.546	1027.528	793.457
56.359	18.477	1026.270	792.094
57.374	18.548	1025.413	791.691
58.388	18.567	1024.621	791.099
59.403	18.480	1023.764	789.966
60.417	18.317	1023.292	788.782
61.432	18.382	1022.707	788.560
62.447	18.286	1022.040	787.531
63.461	18.264	1020.498	786.176
64.476	18.194	1019.657	785.133
65.490	18.211	1019.171	784.768
66.505	18.176	1018.322	783.885
67.520	18.168	1018.087	783.598
68.534	18.164	1017.089	782.744
69.549	18.334	1016.053	782.655
70.563	18.194	1015.090	781.205
71.578	18.166	1014.469	780.528
72.593	18.007	1013.778	779.205
73.607	17.882	1013.068	778.020
74.622	17.912	1011.961	777.237
75.636	18.044	1010.866	776.924
76.651	18.128	1009.913	776.509
77.666	18.046	1009.484	775.736
78.680	18.172	1008.522	775.501
79.695	18.167	1008.159	775.130
80.709	18.182	1007.919	774.944
81.724	18.304	1007.136	774.824
82.739	18.429	1006.514	774.842
83.753	18.367	1005.499	773.715
84.768	18.647	1005.171	774.658
85.782	18.914	1004.377	775.180
86.797	19.246	1003.385	775.844
87.812	19.216	1003.075	775.396
88.826	18.891	1002.160	773.161
89.841	18.923	1001.394	772.647
90.855	18.905	1000.789	772.029
91.870	19.023	999.887	771.794
92.884	19.147	998.972	771.577
93.899	19.094	998.399	770.825
94.914	18.934	997.697	769.500
95.928	19.090	997.081	769.655
96.943	19.259	995.884	769.417
97.957	19.019	995.275	767.809
98.972	18.893	994.485	766.570
99.987	18.862	993.611	765.689
101.001	19.034	993.016	765.928
102.016	19.045	992.124	765.221
103.030	18.994	991.019	764.078
104.045	19.015	990.498	763.702
105.060	19.059	989.577	763.118
106.074	18.865	988.609	761.442
107.089	18.755	987.419	759.972
108.103	18.358	986.509	757.448
109.118	18.262	985.458	756.154
110.133	18.292	984.309	755.334
111.147	18.292	983.556	754.690
112.162	18.138	982.990	753.511
113.176	18.338	981.650	753.297
114.191	18.373	981.219	753.056
115.206	18.485	980.319	752.788
116.220	18.427	979.826	752.090
117.235	18.420	978.478	750.957
118.249	18.291	978.211	750.121
119.264	18.418	976.883	749.591
120.279	18.231	976.044	748.065
121.293	18.273	975.594	747.837
122.308	18.146	974.674	746.512
123.322	18.179	973.756	745.884
124.337	17.969	972.944	744.281
125.352	17.961	971.571	743.133
126.366	17.915	970.788	742.268
127.381	17.994	969.648	741.671
128.395	18.023	968.761	741.053
129.410	18.103	967.728	740.545
130.424	18.132	966.457	739.632
131.439	18.228	966.011	739.641
132.454	18.302	965.453	739.469
133.468	18.445	965.097	739.745
134.483	18.548	964.075	739.343
135.497	18.386	963.796	738.364
136.512	18.416	963.045	737.855
137.527	18.440	962.340	737.352
138.541	18.462	961.458	736.706
139.556	18.431	960.398	735.695
140.570	18.567	959.637	735.628
141.585	18.599	959.265	735.417
142.600	18.869	958.517	735.935
143.614	18.880	957.782	735.352
144.629	18.903	957.650	735.285
145.643	18.938	956.898	734.792
146.658	18.981	956.010	734.229
147.673	18.750	954.679	732.156
148.687	18.645	953.635	730.842
149.702	18.576	952.672	729.748
150.716	18.542	951.787	728.859
151.731	18.460	950.929	727.792
152.746	18.524	950.577	727.730
153.760	18.437	949.574	726.526
154.775	18.527	948.772	726.232
155.789	18.701	948.267	726.518
156.804	18.678	947.394	725.687
157.819	18.722	946.619	725.214
158.833	19.010	945.632	725.611
159.848	18.944	945.669	725.294
160.862	18.961	945.376	725.079
161.877	19.027	944.084	724.299
162.892	18.676	943.039	721.958
163.906	18.517	941.756	720.243
164.921	18.401	941.104	719.195
165.935	18.411	940.054	718.369
166.950	18.573	939.349	718.446
167.964	18.659	938.171	717.842
168.979	18.687	937.176	717.134
169.994	18.614	936.568	716.300
171.008	18.535	935.748	715.281
172.023	18.556	934.907	714.663
173.037	18.781	934.156	714.961
174.052	18.924	933.676	715.126
175.067	19.081	932.307	714.665
176.081	18.574	932.483	712.632
177.096	18.397	931.169	710.831
178.110	18.450	929.833	709.968
179.125	18.519	929.263	709.753
180.140	18.587	928.754	709.585
181.154	18.635	928.323	709.388
182.169	18.693	927.596	709.013
183.183	18.853	926.897	709.074
184.198	19.016	926.360	709.273
185.213	19.060	925.791	708.955
186.227	18.989	925.066	708.045
187.242	18.887	925.175	707.648
188.256	18.999	924.667	707.655
189.271	19.114	923.532	707.197
190.286	19.294	922.336	706.957
191.300	19.029	921.709	705.327
192.315	18.666	920.530	702.876
193.329	18.427	919.516	701.063
194.344	18.419	919.017	700.587
195.359	18.663	918.320	700.992
196.373	18.650	918.467	700.988
197.388	18.968	917.540	701.515
198.402	18.976	917.432	701.402
199.417	19.139	917.276	701.887
200.432	19.335	916.500	702.028
201.446	19.454	916.571	702.508
202.461	19.396	916.229	701.948
203.475	19.557	915.634	702.084
204.490	19.429	914.931	700.963
205.504	19.243	914.285	699.651
206.519	19.144	913.114	698.291
207.534	19.122	912.458	697.637
208.548	19.192	911.488	697.117
209.563	19.113	910.894	696.281
210.577	19.154	910.391	696.001
211.592	19.092	909.689	695.152
212.607	19.202	909.717	695.556
213.621	19.463	908.983	695.986
214.636	19.348	908.298	694.939
215.650	19.494	906.969	694.446
216.665	19.479	906.893	694.269
217.680	19.463	906.319	693.700
218.694	19.611	905.710	693.768
219.709	19.449	905.792	693.117
220.723	19.564	905.046	692.951
221.738	19.477	903.974	691.717
222.753	19.555	903.210	691.384
223.767	19.312	902.805	690.040
224.782	19.516	901.949	690.139
225.796	19.585	901.636	690.114
226.811	19.774	900.673	690.072
227.826	19.724	899.927	689.241
228.840	19.495	899.397	687.863
229.855	19.382	898.475	686.645
230.869	19.498	897.673	686.434
231.884	19.411	897.198	685.665
232.899	19.382	896.408	684.885
233.913	19.294	895.269	683.604
234.928	19.266	894.945	683.186
235.942	19.209	894.337	682.433
236.957	19.113	893.356	681.247
237.972	19.067	892.698	680.501
238.986	19.136	892.271	680.387
240.001	19.299	891.296	680.230
241.015	19.167	890.637	679.147
242.030	19.255	890.302	679.177
243.045	19.352	889.666	679.012
244.059	19.346	889.281	678.634
245.074	19.350	889.123	678.472
246.088	19.476	887.951	678.011
247.103	19.578	887.785	678.225
248.117	19.627	887.190	677.903
249.132	19.830	886.902	678.418
250.147	20.148	886.232	679.091
251.161	20.332	885.438	679.144
252.176	20.330	885.124	678.835
253.190	20.369	884.458	678.418
254.205	20.410	884.030	678.189
255.220	20.481	883.464	677.971
256.234	20.320	882.850	676.814
257.249	20.408	881.977	676.426
258.263	20.328	881.664	675.813
259.278	20.209	881.390	675.083
260.293	20.155	880.589	674.196
261.307	20.458	879.833	674.737
262.322	20.537	879.273	674.555
263.336	20.493	879.380	674.406
264.351	20.667	878.164	674.086
265.366	20.559	877.713	673.263
266.380	20.652	876.700	672.788
267.395	20.459	876.290	671.668
268.409	20.447	875.761	671.154
269.424	20.348	874.874	670.036
270.439	20.444	874.006	669.680
271.453	20.401	873.430	669.013
272.468	20.247	872.498	667.649
273.482	20.072	871.804	666.384
274.497	20.131	871.361	666.213
275.512	20.219	870.921	666.157
276.526	20.182	869.718	665.036
277.541	20.167	869.589	664.823
278.555	20.223	868.769	664.349
279.570	20.453	868.509	664.972
280.585	20.533	868.197	664.981
281.599	20.598	867.511	664.646
282.614	20.543	866.654	663.719
283.628	20.379	865.622	662.247
284.643	20.317	865.420	661.794
285.657	20.431	864.556	661.511
286.672	20.379	864.128	660.926
287.687	20.377	863.568	660.435
288.701	20.492	862.954	660.340
289.716	20.338	863.024	659.749
290.730	20.430	862.120	659.350
291.745	20.478	861.461	658.971
292.760	20.593	860.659	658.735
293.774	20.522	860.463	658.258
294.789	20.795	859.615	658.582
295.803	20.841	859.036	658.254
296.818	20.607	858.157	656.641
297.833	20.489	857.637	655.739
298.847	20.519	856.998	655.305
299.862	20.513	856.381	654.754
300.876	20.614	855.806	654.634
301.891	20.637	855.099	654.124
302.906	20.872	854.700	654.643
303.920	20.911	854.485	654.568
304.935	20.978	853.702	654.161
305.949	21.101	852.982	654.011
306.964	21.078	852.673	653.633
307.979	20.967	851.708	652.419
308.993	20.808	851.466	651.580
310.008	20.846	851.210	651.467
311.022	21.016	850.203	651.276
312.037	20.934	850.126	650.852
313.052	20.754	849.445	649.603
314.066	20.641	848.518	648.416
315.081	20.462	847.904	647.221
316.095	20.447	847.520	646.816
317.110	20.472	846.992	646.449
318.125	20.550	846.157	646.044
319.139	20.387	845.832	645.133
320.154	20.442	845.428	644.970
321.168	20.487	844.809	644.609
322.183	20.530	844.327	644.342
323.197	20.664	843.729	644.327
324.212	20.790	843.130	644.278
325.227	20.649	842.960	643.571
326.241	20.662	842.162	642.950
327.256	20.660	841.566	642.431
328.270	20.680	840.941	641.974
329.285	20.628	840.210	641.166
330.300	20.786	839.465	641.124
331.314	20.619	839.162	640.221
332.329	20.669	838.337	639.719
333.343	20.738	837.927	639.600
334.358	20.992	837.292	639.992
335.373	20.939	837.092	639.590
336.387	21.038	836.446	639.401
337.402	20.954	836.304	638.929
338.416	21.081	835.778	638.934
339.431	21.359	834.553	638.959
340.446	21.259	834.641	638.605
341.460	21.535	834.385	639.360
342.475	21.346	833.874	638.220
343.489	21.425	833.382	638.078
344.504	21.521	832.662	637.820
345.519	21.503	832.488	637.564
346.533	21.679	831.770	637.598
347.548	21.735	831.041	637.185
348.562	21.375	830.614	635.493
349.577	21.229	829.944	634.396
350.592	21.100	829.089	633.217
351.606	20.957	828.629	632.290
352.621	21.015	828.133	632.067
353.635	21.038	827.364	631.508
354.650	21.160	827.119	631.708
355.665	21.300	826.545	631.718
356.679	21.149	826.618	631.173
357.694	21.373	826.304	631.685
358.708	21.495	825.135	631.176
359.723	21.336	824.747	630.251
360.738	21.383	824.189	629.937
361.752	21.398	823.420	629.348
362.767	21.216	823.653	628.814
363.781	21.462	823.257	629.342
364.796	21.536	822.784	629.193
365.810	21.674	822.464	629.388
366.825	21.786	822.205	629.537
367.840	21.927	821.805	629.680
368.854	21.934	820.868	628.932
369.869	21.723	820.742	628.023
370.883	21.707	819.986	627.331
371.898	21.722	819.047	626.610
372.913	21.726	819.076	626.590
373.927	21.761	818.521	626.238
374.942	21.808	817.838	625.825
375.956	21.866	817.045	625.371
376.971	21.799	816.757	624.855
377.986	21.983	816.119	624.967
379.000	22.008	815.721	624.696
380.015	22.175	815.307	624.920
381.029	21.944	815.043	623.840
382.044	22.086	813.740	623.294
383.059	21.949	813.667	622.695
384.073	22.104	813.011	622.687
385.088	22.006	812.436	621.843
386.102	21.805	811.680	620.498
387.117	21.651	811.271	619.585
388.132	21.756	810.579	619.375
389.146	21.731	810.131	618.890
390.161	21.598	809.856	618.154
391.175	21.876	809.632	618.911
392.190	22.128	809.161	619.384
393.205	21.920	808.787	618.310
394.219	21.880	808.082	617.575
395.234	21.776	807.658	616.829
396.248	21.719	806.870	615.973
397.263	21.546	806.569	615.083
398.278	21.430	806.157	614.306
399.292	21.482	805.436	613.883
400.307	21.481	804.905	613.423
401.321	21.600	804.654	613.594
402.336	21.648	804.257	613.405
403.350	21.825	803.717	613.556
404.365	21.865	803.492	613.473
405.380	22.103	802.978	613.855
406.394	22.058	802.760	613.480
407.409	22.151	802.371	613.453
408.423	22.317	801.867	613.592
409.438	22.431	801.502	613.654
410.453	22.372	801.134	613.114
411.467	22.461	800.731	613.058
412.482	22.287	800.455	612.191
413.496	22.587	799.853	612.718
414.511	22.471	799.787	612.209
415.526	22.438	799.443	611.776
416.540	22.447	798.913	611.348
417.555	22.350	798.365	610.539
418.569	22.347	797.575	609.871
419.584	22.335	797.175	609.469
420.599	22.566	796.557	609.740
421.613	162.252	1368.530	1794.508
422.628	140.832	1451.865	1794.609
