DTS Sentinel unit serial number:	SN413079Multiplexer serial number:	ORYXHardware model number:	OX4-SRSoftware version number:	ORYX F/W v4.00 Oryx Data Collector v3.7.2.0data status	okinstallation	princeton_trtdifferential loss correction	single-endedforward channel	channel 3reverse channel	N/Adate	2019/09/19time	09:56:34forward acquisition time	60.00reverse acquisition time	0.00gamma	496.2192k internal	0.2343k external	0.2343temperature offset calibration	0.9970default loss term (dB/km)	0.3790temperature slope calibration	1.0000multiplexer offset coefficient	1.0000multiplexer slope coefficient	1.0000fibre end	0.00T internal ref (°C)	23.62T ext. ref 1 (°C)	0.66T ext. ref 2 (°C)	19.34length (m)	temperature (°C)	Stokes	anti-Stokes-747.200	800.000	-0.032	0.117
-746.185	177.109	0.034	-0.050
-745.171	554.207	0.055	0.132
-744.156	-200.000	0.006	-0.035
-743.142	-67.566	0.207	0.081
-742.127	650.709	-0.126	0.324
-741.112	-104.435	-0.127	-0.029
-740.098	-200.000	-0.080	0.493
-739.083	800.000	0.037	-0.133
-738.069	270.143	-0.034	0.059
-737.054	175.166	-0.130	0.188
-736.039	-102.934	-0.331	0.079
-735.025	-93.051	-0.091	0.025
-734.010	60.122	0.196	-0.194
-732.996	-167.381	0.280	-0.011
-731.981	594.416	0.019	-0.048
-730.966	-200.000	0.041	-0.305
-729.952	-77.410	-0.313	-0.109
-728.937	800.000	-0.053	-0.158
-727.923	51.798	0.217	-0.206
-726.908	-200.000	-0.036	0.204
-725.894	-8.198	-0.079	-0.053
-724.879	-7.127	0.138	-0.094
-723.864	241.713	-0.167	0.279
-722.850	273.865	0.114	-0.202
-721.835	467.784	-0.097	-0.218
-720.821	-22.828	0.242	0.146
-719.806	264.718	-0.118	-0.205
-718.791	-84.275	0.139	-0.044
-717.777	-146.990	-0.238	-0.020
-716.762	-200.000	0.076	-0.392
-715.748	-139.240	0.357	0.038
-714.733	6.570	-0.148	-0.110
-713.718	528.019	0.018	0.044
-712.704	800.000	-0.066	0.201
-711.689	22.317	0.080	0.065
-710.675	-200.000	-0.038	-0.214
-709.660	112.725	0.129	-0.157
-708.645	95.601	0.121	-0.138
-707.631	800.000	-0.106	-0.344
-706.616	-108.761	0.301	-0.064
-705.602	-200.000	0.041	-0.266
-704.587	-200.000	0.011	0.094
-703.572	-1.952	0.063	-0.045
-702.558	453.480	0.061	0.135
-701.543	37.117	0.229	0.203
-700.529	34.684	0.161	0.141
-699.514	-200.000	-0.033	-0.163
-698.499	146.500	0.082	0.110
-697.485	75.649	0.165	-0.174
-696.470	0.225	0.196	-0.139
-695.456	332.301	0.068	0.131
-694.441	-200.000	0.022	0.382
-693.426	-42.490	0.268	0.136
-692.412	-95.060	-0.524	-0.141
-691.397	-119.784	0.192	-0.033
-690.383	-200.000	-0.030	0.163
-689.368	19.042	0.082	0.066
-688.354	15.712	0.217	-0.171
-687.339	-89.071	-0.113	0.033
-686.324	-33.087	-0.247	0.137
-685.310	-200.000	0.020	0.266
-684.295	-28.504	-0.275	0.158
-683.281	189.209	0.186	0.279
-682.266	-197.040	-0.181	-0.001
-681.251	-41.172	-0.137	-0.071
-680.237	-200.000	-0.022	-0.123
-679.222	-200.000	0.021	-0.102
-678.208	69.551	-0.090	-0.092
-677.193	38.567	0.039	-0.035
-676.178	35.195	0.259	0.227
-675.164	-110.916	0.145	0.030
-674.149	90.586	-0.034	-0.038
-673.135	308.026	0.072	-0.134
-672.120	-200.000	0.025	0.136
-671.105	-200.000	0.023	-0.107
-670.091	210.163	0.082	-0.128
-669.076	71.232	-0.192	-0.199
-668.062	6.094	-0.125	0.093
-667.047	-46.062	0.124	-0.061
-666.032	33.242	-0.235	0.203
-665.018	34.498	0.153	-0.133
-664.003	-200.000	0.006	-0.030
-662.989	417.291	-0.028	-0.059
-661.974	105.403	-0.045	0.053
-660.959	258.362	-0.150	-0.257
-659.945	-200.000	0.024	0.155
-658.930	199.401	0.153	0.234
-657.916	286.142	-0.068	0.122
-656.901	17.546	-0.099	-0.079
-655.886	-200.000	0.003	0.038
-654.872	1.669	-0.145	-0.104
-653.857	32.829	0.042	0.036
-652.843	-30.838	0.093	-0.053
-651.828	120.544	0.116	-0.144
-650.814	-34.732	-0.323	-0.176
-649.799	13.748	0.182	-0.141
-648.784	104.199	-0.342	0.402
-647.770	-170.256	0.459	-0.016
-646.755	-163.900	-0.368	-0.017
-645.741	607.614	-0.081	-0.202
-644.726	-9.469	0.117	-0.078
-643.711	-168.504	-0.326	-0.012
-642.697	-2.895	0.142	-0.099
-641.682	-173.545	0.410	-0.012
-640.668	-135.414	0.209	0.025
-639.653	-153.484	0.174	-0.012
-638.638	-200.000	-0.003	0.190
-637.624	-34.868	0.294	-0.160
-636.609	800.000	0.064	0.238
-635.595	-200.000	-0.002	-0.324
-634.580	-66.772	0.286	-0.113
-633.565	73.388	-0.032	-0.033
-632.551	-200.000	-0.003	0.048
-631.536	4.455	-0.142	-0.103
-630.522	-111.195	-0.144	0.029
-629.507	-200.000	0.093	0.418
-628.492	11.814	-0.200	0.153
-627.478	142.010	-0.009	0.012
-626.463	30.546	-0.082	0.070
-625.449	-142.789	-0.313	0.030
-624.434	384.435	-0.026	-0.054
-623.419	328.565	0.061	0.118
-622.405	-132.071	-0.481	-0.062
-621.390	-138.438	-0.089	0.010
-620.376	800.000	0.057	-0.225
-619.361	-200.000	-0.028	-0.180
-618.346	285.678	-0.118	-0.211
-617.332	1.283	-0.030	-0.021
-616.317	327.880	-0.100	-0.192
-615.303	17.385	-0.103	-0.082
-614.288	425.076	-0.028	-0.060
-613.273	323.377	-0.048	-0.091
-612.259	-200.000	0.063	0.481
-611.244	179.646	0.319	0.465
-610.230	-198.120	-0.420	0.002
-609.215	800.000	-0.033	-0.126
-608.201	-73.714	-0.364	-0.132
-607.186	-200.000	-0.079	0.558
-606.171	-126.257	-0.129	-0.019
-605.157	-32.663	0.135	-0.075
-604.142	-40.206	0.112	0.058
-603.128	-200.000	-0.012	-0.064
-602.113	-85.075	0.143	-0.045
-601.098	14.462	-0.246	0.191
-600.084	182.062	-0.145	0.213
-599.069	-200.000	-0.114	-0.513
-598.055	-200.000	-0.039	-0.283
-597.040	29.760	0.159	0.135
-596.025	114.830	0.003	-0.003
-595.011	385.154	-0.257	0.528
-593.996	-155.127	-0.154	-0.010
-592.982	91.489	-0.027	0.030
-591.967	800.000	-0.032	0.118
-590.952	44.703	-0.172	0.158
-589.938	-104.066	-0.306	-0.071
-588.923	114.430	0.048	0.058
-587.909	-21.381	0.354	0.215
-586.894	775.584	-0.142	-0.385
-585.879	-72.152	-0.071	0.026
-584.865	-200.000	-0.023	-0.258
-583.850	-184.386	-0.279	0.005
-582.836	-54.100	-0.012	0.005
-581.821	800.000	-0.085	-0.357
-580.806	-73.105	-0.313	0.114
-579.792	-31.456	0.079	-0.044
-578.777	-19.603	-0.078	-0.048
-577.763	-132.736	-0.528	0.067
-576.748	-59.151	0.151	0.065
-575.733	15.678	0.146	-0.114
-574.719	-122.496	0.056	-0.009
-573.704	-200.000	-0.003	-0.110
-572.690	133.419	-0.253	-0.325
-571.675	256.924	0.079	-0.134
-570.661	22.383	-0.192	-0.156
-569.646	50.858	-0.179	-0.169
-568.631	125.621	0.221	-0.277
-567.617	-37.506	-0.359	-0.190
-566.602	96.347	-0.101	0.115
-565.588	-82.146	0.172	0.056
-564.573	-79.160	0.361	0.122
-563.558	44.413	-0.046	-0.042
-562.544	-91.841	-0.137	-0.039
-561.529	227.663	-0.095	0.153
-560.515	32.416	0.103	-0.089
-559.500	673.735	-0.141	-0.364
-558.485	-36.871	-0.096	-0.051
-557.471	185.233	0.067	-0.099
-556.456	-200.000	0.060	0.291
-555.442	-100.415	0.263	-0.065
-554.427	-63.352	-0.353	-0.144
-553.412	-200.000	-0.032	0.213
-552.398	4.552	-0.092	0.067
-551.383	-32.306	-0.198	-0.110
-550.369	-163.244	0.239	-0.011
-549.354	-200.000	-0.011	-0.292
-548.339	294.276	0.010	-0.017
-547.325	800.000	0.131	-0.514
-546.310	787.345	-0.181	-0.494
-545.296	-200.000	-0.025	0.155
-544.281	125.521	0.455	0.570
-543.266	-200.000	0.023	-0.217
-542.252	800.000	0.038	0.106
-541.237	-74.880	0.343	0.122
-540.223	243.172	0.100	-0.167
-539.208	-112.773	0.336	0.066
-538.193	800.000	-0.039	-0.151
-537.179	22.465	-0.107	-0.087
-536.164	-175.504	-0.109	-0.003
-535.150	534.640	0.071	-0.168
-534.135	800.000	0.087	0.243
-533.121	172.803	-0.087	-0.124
-532.106	-41.066	-0.214	-0.110
-531.091	-50.430	-0.161	-0.075
-530.077	-141.787	0.259	0.026
-529.062	-130.533	-0.236	-0.032
-528.048	703.239	-0.032	-0.084
-527.033	-200.000	0.026	0.469
-526.018	185.475	-0.227	-0.335
-525.004	45.037	0.225	-0.206
-523.989	-154.769	-0.203	-0.013
-522.975	-17.445	0.047	-0.029
-521.960	-200.000	0.084	-0.000
-520.945	-146.830	-0.174	-0.015
-519.931	118.040	-0.239	0.292
-518.916	141.679	-0.144	0.190
-517.902	608.455	-0.197	0.487
-516.887	-29.237	-0.163	-0.092
-515.872	-105.008	0.544	0.124
-514.858	-200.000	-0.053	0.271
-513.843	121.054	0.284	0.351
-512.829	800.000	-0.046	0.180
-511.814	346.969	0.132	-0.258
-510.799	800.000	-0.062	0.217
-509.785	55.831	0.177	-0.170
-508.770	3.974	0.071	0.051
-507.756	129.168	0.114	0.144
-506.741	-161.412	0.280	0.014
-505.726	115.936	-0.103	-0.125
-504.712	-166.905	-0.108	0.004
-503.697	-74.432	0.204	0.073
-502.683	-200.000	-0.040	-0.200
-501.668	91.374	-0.023	0.025
-500.653	74.168	-0.058	0.060
-499.639	-200.000	0.010	0.181
-498.624	-200.000	-0.085	0.398
-497.610	144.450	0.090	-0.119
-496.595	-200.000	-0.014	-0.452
-495.581	29.616	0.241	-0.204
-494.566	800.000	-0.076	0.319
-493.551	31.753	0.106	0.091
-492.537	-178.121	-0.276	0.006
-491.522	-200.000	-0.059	0.288
-490.508	-64.270	0.238	-0.096
-489.493	-65.379	0.119	-0.047
-488.478	228.081	0.099	0.160
-487.464	79.022	0.043	0.046
-486.449	-124.930	-0.154	-0.023
-485.435	-200.000	-0.006	-0.316
-484.420	-200.000	-0.012	0.243
-483.405	-69.086	-0.190	0.073
-482.391	-13.128	0.338	-0.218
-481.376	110.903	-0.169	0.201
-480.362	466.852	-0.026	-0.059
-479.347	-200.000	0.005	-0.035
-478.332	-200.000	0.045	-0.375
-477.318	32.681	-0.083	-0.071
-476.303	405.003	0.025	0.051
-475.289	-200.000	0.031	0.158
-474.274	-200.000	0.010	0.287
-473.259	-180.624	0.518	0.011
-472.245	-77.020	-0.107	-0.037
-471.230	-119.475	-0.134	0.023
-470.216	800.000	0.017	-0.068
-469.201	688.869	0.071	-0.183
-468.186	-200.000	-0.031	0.349
-467.172	328.765	-0.078	0.149
-466.157	-200.000	0.027	0.161
-465.143	-65.426	-0.178	0.071
-464.128	800.000	-0.033	0.124
-463.113	-1.475	0.175	0.122
-462.099	654.836	0.093	-0.237
-461.084	33.359	0.311	0.267
-460.070	170.954	0.118	-0.168
-459.055	800.000	-0.075	-0.280
-458.040	516.313	0.080	0.184
-457.026	-27.768	-0.042	0.024
-456.011	250.321	0.160	0.268
-454.997	-40.323	-0.148	0.076
-453.982	98.557	0.402	-0.458
-452.968	545.425	0.041	-0.098
-451.953	-19.075	-0.304	0.187
-450.938	186.972	-0.130	0.191
-449.924	800.000	0.032	0.127
-448.909	161.562	-0.160	-0.222
-447.895	32.565	-0.204	-0.175
-446.880	800.000	0.138	-0.385
-445.865	800.000	-0.087	-0.344
-444.851	-8.532	-0.153	0.102
-443.836	-137.310	0.116	0.013
-442.822	497.645	0.084	-0.191
-441.807	599.966	-0.047	-0.115
-440.792	800.000	-0.062	0.172
-439.778	-135.542	0.186	0.022
-438.763	16.571	-0.116	0.091
-437.749	-47.476	0.524	0.252
-436.734	544.352	0.049	0.116
-435.719	719.050	0.091	-0.240
-434.705	-87.850	-0.121	-0.036
-433.690	-200.000	0.041	0.203
-432.676	77.874	0.103	0.109
-431.661	437.745	-0.032	0.069
-430.646	-38.180	0.185	0.097
-429.632	800.000	-0.125	0.434
-428.617	-22.067	-0.093	-0.056
-427.603	-200.000	-0.013	0.516
-426.588	567.648	0.134	-0.321
-425.573	362.887	0.068	-0.134
-424.559	-124.002	0.309	-0.048
-423.544	108.439	-0.235	0.278
-422.530	-200.000	-0.018	-0.186
-421.515	67.379	-0.250	-0.252
-420.500	39.647	-0.120	-0.106
-419.486	-113.479	0.211	-0.041
-418.471	271.483	0.202	-0.352
-417.457	407.966	-0.203	-0.424
-416.442	800.000	-0.077	-0.302
-415.428	-94.005	0.102	0.028
-414.413	-118.136	-0.046	0.008
-413.398	706.663	0.067	-0.175
-412.384	15.035	-0.304	-0.235
-411.369	-127.004	0.178	0.026
-410.355	-200.000	0.022	-0.296
-409.340	-159.003	0.104	-0.006
-408.325	800.000	0.128	-0.366
-407.311	155.007	-0.049	-0.067
-406.296	130.181	0.194	0.245
-405.282	4.422	0.158	-0.114
-404.267	-57.410	0.230	0.100
-403.252	-200.000	0.006	0.139
-402.238	-112.298	0.073	-0.014
-401.223	-200.000	0.016	0.150
-400.209	3.133	0.261	-0.188
-399.194	-200.000	0.013	0.145
-398.179	-200.000	-0.012	0.343
-397.165	-125.040	-0.224	-0.034
-396.150	-144.471	0.139	-0.013
-395.136	140.028	0.040	0.052
-394.121	-93.719	0.178	0.048
-393.106	-89.906	-0.282	0.081
-392.092	6.778	0.103	0.076
-391.077	-101.108	0.205	0.050
-390.063	-200.000	-0.016	0.354
-389.048	60.675	0.323	0.316
-388.033	210.914	-0.080	-0.124
-387.019	-137.131	-0.207	-0.023
-386.004	-200.000	-0.034	0.257
-384.990	-24.726	-0.098	-0.058
-383.975	-84.558	-0.171	-0.053
-382.960	-200.000	-0.006	-0.198
-381.946	-104.810	0.508	-0.115
-380.931	-152.756	-0.162	-0.011
-379.917	800.000	0.110	0.377
-378.902	73.077	0.281	-0.290
-377.888	222.651	-0.095	0.151
-376.873	-200.000	0.025	0.382
-375.858	0.391	0.178	0.126
-374.844	741.638	0.115	0.306
-373.829	-200.000	0.002	0.255
-372.815	-200.000	0.019	-0.175
-371.800	-70.402	0.364	0.136
-370.785	-200.000	0.017	-0.115
-369.771	98.061	0.271	0.308
-368.756	341.024	0.060	0.115
-367.742	146.870	0.149	-0.197
-366.727	57.748	-0.190	0.183
-365.712	-200.000	0.007	0.051
-364.698	-200.000	0.001	-0.141
-363.683	303.355	-0.055	-0.100
-362.669	-200.000	0.037	-0.229
-361.654	47.498	-0.041	0.038
-360.639	187.069	-0.138	0.203
-359.625	-24.325	-0.046	0.027
-358.610	-61.983	-0.259	-0.107
-357.596	-12.066	0.322	0.208
-356.581	800.000	0.096	0.376
-355.566	163.689	-0.064	-0.089
-354.552	183.052	0.056	0.082
-353.537	-130.258	0.069	0.009
-352.523	-200.000	-0.000	0.024
-351.508	156.718	-0.008	0.011
-350.493	-6.116	-0.108	-0.073
-349.479	-3.758	-0.209	0.143
-348.464	-146.108	-0.361	-0.031
-347.450	141.079	0.157	0.204
-346.435	-151.412	0.312	-0.023
-345.420	20.492	0.091	-0.072
-344.406	11.497	-0.025	0.019
-343.391	-200.000	-0.017	-0.154
-342.377	-200.000	-0.010	-0.387
-341.362	-168.630	0.187	0.007
-340.348	-175.035	0.289	0.008
-339.333	-200.000	0.068	0.296
-338.318	-132.984	-0.217	-0.027
-337.304	800.000	0.099	-0.319
-336.289	800.000	-0.088	-0.319
-335.275	-100.277	-0.321	0.079
-334.260	-200.000	0.014	0.211
-333.245	800.000	0.081	0.264
-332.231	-200.000	-0.008	0.154
-331.216	-86.284	0.151	-0.046
-330.202	-15.674	0.093	0.058
-329.187	45.472	-0.165	-0.150
-328.172	-200.000	0.006	0.052
-327.158	87.742	-0.154	0.168
-326.143	-200.000	0.004	0.040
-325.129	325.965	0.131	-0.248
-324.114	84.531	0.027	0.029
-323.099	800.000	0.025	-0.083
-322.085	104.477	0.170	-0.197
-321.070	-23.961	-0.258	-0.152
-320.056	98.218	0.113	0.128
-319.041	-16.774	-0.254	-0.158
-318.026	-52.078	-0.230	-0.105
-317.012	-117.417	0.381	-0.068
-315.997	-65.798	0.144	-0.057
-314.983	800.000	-0.016	-0.069
-313.968	800.000	-0.085	-0.330
-312.953	-166.004	-0.144	-0.006
-311.939	127.186	0.221	0.276
-310.924	118.686	0.281	-0.342
-309.910	112.740	0.183	-0.218
-308.895	528.261	-0.161	0.373
-307.880	800.000	-0.052	0.210
-306.866	-200.000	0.030	-0.178
-305.851	800.000	0.051	0.143
-304.837	83.210	-0.215	0.230
-303.822	97.389	0.488	0.552
-302.807	-32.259	0.155	-0.085
-301.793	-139.929	0.122	-0.013
-300.778	114.584	-0.362	-0.434
-299.764	1.065	-0.415	-0.293
-298.749	-5.618	0.068	-0.046
-297.735	163.422	-0.119	0.165
-296.720	-200.000	0.081	-0.436
-295.705	-32.860	0.402	0.220
-294.691	299.468	-0.086	-0.155
-293.676	-109.450	-0.169	-0.035
-292.662	482.958	0.116	-0.259
-291.647	800.000	-0.130	-0.370
-290.632	146.050	0.046	0.061
-289.618	-200.000	0.012	-0.078
-288.603	120.644	-0.130	0.159
-287.589	-138.625	0.276	0.030
-286.574	350.045	-0.163	0.317
-285.559	-20.720	0.254	0.153
-284.545	-120.230	-0.400	0.067
-283.530	800.000	-0.057	-0.174
-282.516	405.364	-0.179	0.372
-281.501	12.166	0.174	0.132
-280.486	-200.000	0.125	-0.000
-279.472	69.163	-0.067	-0.067
-278.457	64.694	-0.133	0.132
-277.443	-14.836	-0.182	-0.115
-276.428	-133.018	0.043	-0.005
-275.413	207.760	-0.178	0.273
-274.399	-200.000	0.042	-0.342
-273.384	362.845	-0.157	-0.309
-272.370	-55.619	-0.136	-0.060
-271.355	40.317	-0.162	-0.143
-270.340	-200.000	0.064	0.424
-269.326	303.727	0.114	0.207
-268.311	-26.397	-0.250	0.144
-267.297	8.891	0.274	-0.203
-266.282	-83.540	-0.235	-0.074
-265.267	247.354	-0.162	-0.269
-264.253	-81.179	0.290	0.094
-263.238	82.244	-0.095	-0.101
-262.224	-200.000	-0.012	0.069
-261.209	-107.496	0.048	-0.010
-260.195	75.369	-0.156	0.162
-259.180	-200.000	-0.011	-0.117
-258.165	66.916	-0.087	-0.087
-257.151	-149.134	-0.119	-0.009
-256.136	800.000	-0.069	-0.191
-255.122	-130.494	0.176	-0.023
-254.107	-111.789	0.111	0.022
-253.092	-109.963	-0.186	-0.038
-252.078	-200.000	-0.003	0.128
-251.063	340.159	0.054	0.103
-250.049	354.147	-0.083	-0.161
-249.034	87.970	-0.217	0.236
-248.019	800.000	0.023	-0.071
-247.005	144.656	0.112	-0.147
-245.990	-17.769	0.146	-0.090
-244.976	168.863	0.174	-0.243
-243.961	3.233	-0.190	0.136
-242.946	413.375	0.131	-0.273
-241.932	-105.940	0.430	0.095
-240.917	-30.731	0.145	0.081
-239.903	-42.783	0.194	-0.097
-238.888	800.000	0.015	-0.058
-237.873	-65.914	-0.274	-0.107
-236.859	99.598	0.154	0.175
-235.844	-200.000	0.008	0.124
-234.830	87.887	0.118	0.129
-233.815	800.000	-0.049	-0.185
-232.800	-200.000	-0.011	0.047
-231.786	-164.080	-0.379	0.017
-230.771	800.000	-0.040	0.158
-229.757	-58.272	0.242	0.103
-228.742	-151.990	-0.488	-0.035
-227.727	144.286	-0.386	-0.506
-226.713	74.679	0.124	-0.128
-225.698	-0.181	0.110	-0.077
-224.684	-21.734	0.135	0.081
-223.669	-58.628	0.178	0.076
-222.655	-21.672	0.217	-0.130
-221.640	-111.526	-0.072	-0.014
-220.625	-200.000	-0.014	-0.106
-219.611	76.166	-0.148	-0.154
-218.596	-109.445	0.107	-0.022
-217.582	182.542	0.085	-0.123
-216.567	13.931	-0.049	-0.037
-215.552	-79.988	0.181	0.059
-214.538	-89.599	0.349	-0.100
-213.523	800.000	-0.060	-0.203
-212.509	-36.273	-0.407	-0.215
-211.494	-34.022	0.188	0.101
-210.479	-36.223	-0.404	-0.214
-209.465	29.686	-0.095	0.079
-208.450	-85.816	0.415	-0.126
-207.436	800.000	0.053	-0.170
-206.421	-200.000	-0.048	-0.247
-205.406	-137.686	-0.330	0.036
-204.392	176.802	0.094	-0.135
-203.377	660.746	-0.065	-0.164
-202.363	800.000	-0.056	-0.228
-201.348	300.838	-0.045	0.082
-200.333	53.496	0.148	0.139
-199.319	269.805	-0.154	-0.265
-198.304	-104.754	0.112	0.025
-197.290	88.747	0.257	-0.280
-196.275	-172.705	0.103	-0.003
-195.260	251.293	-0.109	-0.181
-194.246	-98.258	0.175	-0.044
-193.231	800.000	0.025	0.090
-192.217	-200.000	-0.029	0.263
-191.202	339.118	-0.119	0.227
-190.187	-200.000	-0.019	0.172
-189.173	-8.766	-0.246	0.162
-188.158	800.000	0.032	-0.127
-187.144	-61.184	-0.169	0.070
-186.129	-177.647	-0.453	0.011
-185.114	-85.233	0.120	0.037
-184.100	800.000	-0.069	-0.208
-183.085	10.116	-0.096	0.071
-182.071	-51.221	0.159	-0.073
-181.056	95.058	0.118	0.132
-180.042	-200.000	0.023	-0.334
-179.027	592.526	-0.132	0.320
-178.012	-93.101	0.315	-0.086
-176.998	-45.083	-0.186	0.090
-175.983	366.362	-0.073	0.145
-174.969	-3.690	-0.168	-0.114
-173.954	160.071	0.180	0.245
-172.939	172.444	-0.102	-0.144
-171.925	14.440	0.291	0.223
-170.910	-28.525	-0.163	-0.092
-169.896	-142.547	0.166	0.016
-168.881	32.494	-0.161	0.136
-167.866	35.096	-0.177	0.152
-166.852	-200.000	0.054	0.239
-165.837	200.382	0.279	0.419
-164.823	-53.479	-0.407	0.182
-163.808	-58.042	-0.186	-0.079
-162.793	-200.000	-0.008	0.100
-161.779	-200.000	-0.028	0.342
-160.764	-106.128	-0.244	-0.054
-159.750	-140.420	-0.065	-0.007
-158.735	66.986	0.058	0.058
-157.720	-33.164	-0.340	0.184
-156.706	-200.000	-0.012	0.065
-155.691	-127.206	0.163	0.023
-154.677	-200.000	0.026	0.173
-153.662	366.625	0.109	0.215
-152.647	-112.124	0.051	0.010
-151.633	166.169	0.152	0.211
-150.618	-118.237	-0.203	-0.035
-149.604	203.120	-0.155	-0.235
-148.589	-28.422	-0.283	-0.160
-147.574	-200.000	-0.010	-0.093
-146.560	454.655	-0.193	-0.418
-145.545	-200.000	0.005	0.119
-144.531	-51.227	-0.433	-0.198
-143.516	170.167	-0.055	0.077
-142.502	270.162	0.205	-0.352
-141.487	38.648	-0.459	0.401
-140.472	-200.000	0.004	-0.047
-139.458	69.560	-0.187	-0.188
-138.443	174.189	-0.175	-0.247
-137.429	800.000	-0.009	-0.039
-136.414	121.272	0.093	0.113
-135.399	422.043	0.028	-0.059
-134.385	300.692	0.091	0.163
-133.370	-158.014	0.087	0.005
-132.356	-69.168	0.449	-0.169
-131.341	147.148	0.105	-0.139
-130.326	-80.444	-0.213	-0.070
-129.312	-25.335	0.097	0.056
-128.297	733.286	-0.069	-0.181
-127.283	-116.242	0.173	0.031
-126.268	188.992	-0.067	-0.098
-125.253	-107.687	-0.366	0.078
-124.239	800.000	-0.054	-0.206
-123.224	800.000	-0.098	0.282
-122.210	-61.572	-0.134	-0.055
-121.195	-127.018	-0.050	0.007
-120.180	-170.989	-0.276	-0.009
-119.166	800.000	0.080	-0.229
-118.151	-6.751	-0.254	-0.169
-117.137	-36.849	0.177	0.093
-116.122	427.872	0.037	0.079
-115.107	55.478	-0.128	0.121
-114.093	156.673	0.085	-0.114
-113.078	-127.241	-0.222	-0.032
-112.064	47.070	-0.204	0.185
-111.049	-60.804	0.342	0.141
-110.034	50.579	-0.061	0.057
-109.020	-49.017	-0.326	0.152
-108.005	800.000	0.130	0.424
-106.991	800.000	-0.082	0.232
-105.976	51.338	-0.207	-0.192
-104.962	31.287	0.139	0.117
-103.947	-151.535	0.195	0.014
-102.932	-87.248	-0.122	0.036
-101.918	-19.719	-0.225	0.136
-100.903	-49.326	0.267	-0.125
-99.889	106.539	-0.200	-0.232
-98.874	-22.836	0.226	-0.133
-97.859	-105.855	-0.131	-0.029
-96.845	198.744	-0.236	-0.352
-95.830	30.020	0.126	0.105
-94.816	-134.632	0.312	-0.037
-93.801	303.554	-0.050	0.090
-92.786	6.655	0.034	0.025
-91.772	-200.000	0.014	-0.111
-90.757	13.237	0.165	0.125
-89.743	800.000	-0.069	0.242
-88.728	-74.890	0.207	-0.073
-87.713	161.371	-0.176	0.241
-86.699	-168.603	0.185	-0.007
-85.684	-128.437	0.321	0.045
-84.670	-3.062	-0.154	-0.105
-83.655	-163.397	0.370	-0.017
-82.640	-200.000	-0.063	-0.378
-81.626	-173.710	-0.072	0.002
-80.611	13.728	0.162	0.123
-79.597	800.000	-0.032	-0.095
-78.582	4.057	-0.049	-0.035
-77.567	55.614	0.240	-0.227
-76.553	-19.549	-0.114	0.069
-75.538	185.888	-0.130	-0.189
-74.524	-26.850	-0.293	0.167
-73.509	800.000	-0.015	-0.064
-72.494	800.000	-0.039	-0.119
-71.480	-110.753	0.223	0.045
-70.465	160.561	-0.037	0.050
-69.451	17.224	-0.084	0.065
-68.436	192.773	-0.110	0.162
-67.422	-200.000	-0.002	0.158
-66.407	-41.926	0.241	0.121
-65.392	-48.297	0.283	0.133
-64.378	-152.352	0.130	-0.009
-63.363	11.637	-0.240	-0.179
-62.349	-1.276	0.206	0.142
-61.334	106.093	-1.304	-1.505
-60.319	365.194	0.515	1.011
-59.305	511.947	-0.558	-1.268
-58.290	192.752	0.916	1.348
-57.276	800.000	0.563	1.986
-56.261	-200.000	121.724	618.430
-55.246	394.049	1565.588	3177.783
-54.232	141.277	2740.851	3534.327
-53.217	94.293	2204.739	2439.325
-52.203	34.512	1717.210	1461.359
-51.188	26.807	1532.402	1251.112
-50.173	24.694	1508.631	1217.285
-49.159	47.576	1578.843	1434.675
-48.144	45.249	1591.205	1429.590
-47.130	26.747	1541.123	1257.619
-46.115	23.899	1525.040	1224.857
-45.100	23.765	1521.756	1221.249
-44.086	23.718	1520.245	1219.663
-43.071	23.750	1517.514	1217.649
-42.057	23.564	1516.481	1215.497
-41.042	23.697	1514.996	1215.169
-40.027	23.676	1513.666	1213.906
-39.013	23.608	1512.131	1212.163
-37.998	23.524	1510.938	1210.584
-36.984	23.609	1509.552	1210.008
-35.969	23.631	1507.794	1208.700
-34.954	23.623	1507.086	1208.031
-33.940	23.561	1505.534	1206.317
-32.925	23.609	1504.343	1205.638
-31.911	23.564	1502.951	1204.172
-30.896	23.751	1501.909	1204.556
-29.881	23.719	1500.150	1202.882
-28.867	23.677	1499.021	1201.644
-27.852	23.621	1497.882	1200.305
-26.838	23.669	1496.281	1199.300
-25.823	23.622	1494.731	1197.695
-24.809	23.706	1492.736	1196.612
-23.794	23.626	1491.425	1194.974
-22.779	23.628	1490.349	1194.077
-21.765	23.737	1488.772	1193.502
-20.750	23.670	1488.052	1192.425
-19.736	23.636	1486.716	1191.077
-18.721	23.537	1486.046	1189.835
-17.706	23.674	1484.741	1189.655
-16.692	23.587	1483.973	1188.414
-15.677	23.631	1482.953	1187.845
-14.663	23.527	1481.998	1186.334
-13.648	23.671	1480.685	1186.202
-12.633	23.591	1479.827	1184.929
-11.619	23.713	1479.238	1185.224
-10.604	23.588	1478.109	1183.443
-9.590	23.599	1477.591	1183.052
-8.575	23.592	1476.723	1182.266
-7.560	23.703	1474.766	1181.391
-6.546	23.621	1474.769	1180.796
-5.531	23.660	1473.216	1179.766
-4.517	23.549	1472.642	1178.523
-3.502	23.570	1471.936	1178.048
-2.487	23.681	1470.538	1177.621
-1.473	23.603	1469.566	1176.280
-0.458	23.676	1468.112	1175.551
0.556	22.463	1458.949	1165.421
1.571	19.670	1434.813	1127.838
2.586	16.575	1373.238	1059.979
3.600	15.108	1288.855	986.124
4.615	14.088	1245.158	946.799
5.629	12.392	1188.723	894.579
6.644	6.349	1105.644	801.305
7.659	1.366	1069.113	750.190
8.673	0.791	1063.752	743.537
9.688	0.624	1060.334	740.266
10.702	0.571	1059.459	739.330
11.717	0.644	1057.003	737.904
12.731	2.711	1058.550	749.025
13.746	8.983	1067.124	785.830
14.761	14.821	1074.712	820.069
15.775	16.870	1076.696	831.576
16.790	16.826	1075.844	830.629
17.804	15.858	1073.375	823.910
18.819	15.011	1071.429	818.207
19.834	14.513	1070.317	814.853
20.848	14.410	1069.561	813.699
21.863	13.970	1068.529	810.698
22.877	13.759	1067.835	809.067
23.892	13.525	1066.981	807.209
24.907	13.543	1065.759	806.300
25.921	13.417	1065.175	805.174
26.936	13.499	1065.083	805.432
27.950	13.672	1063.742	805.189
28.965	13.614	1062.799	804.121
29.980	13.686	1062.201	803.946
30.994	13.608	1061.400	802.891
32.009	13.701	1060.578	802.649
33.023	13.529	1060.008	801.315
34.038	13.711	1058.892	801.282
35.053	13.659	1058.113	800.370
36.067	13.664	1057.105	799.560
37.082	13.659	1056.240	798.810
38.096	13.652	1055.626	798.242
39.111	13.744	1054.605	797.842
40.126	13.773	1053.797	797.301
41.140	13.599	1052.543	795.443
42.155	13.483	1051.965	794.381
43.169	13.434	1050.921	793.286
44.184	13.592	1049.541	792.932
45.199	13.559	1048.341	791.797
46.213	13.450	1047.863	790.844
47.228	13.480	1046.904	790.194
48.242	13.536	1045.869	789.610
49.257	13.632	1044.743	789.146
50.271	13.609	1043.803	788.261
51.286	13.521	1042.854	787.053
52.301	13.522	1042.195	786.493
53.315	13.578	1041.525	786.184
54.330	13.536	1040.502	785.144
55.344	13.444	1039.596	783.953
56.359	13.595	1038.117	783.483
57.374	13.510	1037.597	782.618
58.388	13.464	1036.621	781.599
59.403	13.476	1035.584	780.801
60.417	13.528	1034.627	780.258
61.432	13.321	1034.542	779.148
62.447	13.471	1032.897	778.547
63.461	13.376	1032.921	778.048
64.476	13.419	1031.748	777.298
65.490	13.375	1030.815	776.318
66.505	13.394	1029.951	775.688
67.520	13.452	1029.101	775.250
68.534	13.502	1028.489	774.958
69.549	13.440	1028.125	774.322
70.563	13.522	1026.867	773.692
71.578	13.404	1026.334	772.671
72.593	13.442	1025.394	772.072
73.607	13.420	1024.406	771.155
74.622	13.335	1023.665	770.136
75.636	13.362	1022.776	769.525
76.651	13.575	1021.458	769.451
77.666	13.351	1021.064	768.049
78.680	13.448	1020.206	767.786
79.695	13.366	1019.959	767.150
80.709	13.397	1018.805	766.360
81.724	13.496	1018.231	766.316
82.739	13.530	1016.824	765.345
83.753	13.507	1016.820	765.169
84.768	13.526	1016.083	764.638
85.782	13.703	1014.744	764.375
86.797	13.570	1014.051	763.175
87.812	13.683	1013.368	763.113
88.826	13.486	1012.909	761.792
89.841	13.514	1012.229	761.344
90.855	13.564	1011.019	760.597
91.870	13.639	1010.698	760.628
92.884	13.668	1009.809	760.029
93.899	13.581	1008.724	758.744
94.914	13.733	1007.779	758.662
95.928	13.705	1007.450	758.218
96.943	13.693	1006.645	757.490
97.957	13.748	1005.704	756.968
98.972	13.629	1005.278	756.036
99.987	13.680	1004.713	755.777
101.001	13.585	1003.819	754.608
102.016	13.586	1003.024	753.948
103.030	13.654	1001.834	753.294
104.045	13.767	1000.602	752.816
105.060	13.678	999.549	751.553
106.074	13.661	998.793	750.838
107.089	13.562	998.268	749.929
108.103	13.558	997.044	748.925
109.118	13.576	996.455	748.498
110.133	13.509	995.516	747.425
111.147	13.512	994.699	746.757
112.162	13.640	993.594	746.442
113.176	13.613	993.107	745.887
114.191	13.617	992.030	745.028
115.206	13.684	990.685	744.254
116.220	13.724	990.091	743.923
117.235	13.615	989.380	742.834
118.249	13.705	988.656	742.629
119.264	13.690	987.258	741.446
120.279	13.561	987.139	740.712
121.293	13.549	985.921	739.681
122.308	13.613	985.362	739.480
123.322	13.585	984.677	738.776
124.337	13.511	983.265	737.321
125.352	13.499	982.119	736.346
126.366	13.525	981.513	735.941
127.381	13.500	980.096	734.700
128.395	13.562	979.125	734.184
129.410	13.644	977.692	733.408
130.424	13.533	977.324	732.576
131.439	13.449	976.716	731.683
132.454	13.648	975.657	731.702
133.468	13.625	974.630	730.767
134.483	13.652	974.119	730.438
135.497	13.632	973.436	729.773
136.512	13.704	972.240	729.128
137.527	13.538	972.393	728.449
138.541	13.584	971.305	727.771
139.556	13.641	970.432	727.303
140.570	13.600	969.947	726.697
141.585	13.658	968.911	726.108
142.600	13.767	968.234	726.013
143.614	13.652	967.296	724.743
144.629	13.717	967.090	724.809
145.643	13.840	966.003	724.467
146.658	13.894	964.886	723.801
147.673	13.854	963.943	722.856
148.687	13.715	963.373	721.761
149.702	13.665	962.733	720.999
150.716	13.739	961.774	720.537
151.731	13.637	960.857	719.345
152.746	13.667	960.262	718.965
153.760	13.829	959.283	718.870
154.775	13.800	958.440	718.050
155.789	13.736	957.687	717.146
156.804	13.947	956.762	717.303
157.819	13.886	956.406	716.705
158.833	13.940	955.481	716.182
159.848	13.804	955.395	715.467
160.862	13.885	954.392	715.002
161.877	13.901	953.538	714.369
162.892	13.915	952.557	713.631
163.906	13.983	951.589	713.137
164.921	13.972	950.867	712.485
165.935	13.939	950.019	711.643
166.950	14.116	948.742	711.380
167.964	13.927	948.373	710.233
168.979	13.954	947.245	709.443
169.994	13.928	946.338	708.590
171.008	13.845	945.505	707.549
172.023	13.993	944.362	707.262
173.037	13.896	943.835	706.390
174.052	14.025	943.299	706.475
175.067	14.137	942.493	706.287
176.081	14.078	941.568	705.279
177.096	14.007	940.657	704.235
178.110	14.065	939.445	703.510
179.125	14.068	939.378	703.408
180.140	14.131	938.115	702.666
181.154	14.069	937.795	702.102
182.169	14.000	937.335	701.406
183.183	14.009	936.757	700.948
184.198	14.151	935.624	700.638
185.213	14.181	934.972	700.214
186.227	14.128	934.443	699.534
187.242	14.311	933.863	699.804
188.256	14.295	933.272	699.234
189.271	14.221	932.309	698.138
190.286	14.346	931.812	698.229
191.300	14.216	931.143	697.123
192.315	14.236	929.956	696.257
193.329	14.056	929.724	695.268
194.344	14.072	929.129	694.830
195.359	14.121	928.289	694.344
196.373	14.189	928.051	694.387
197.388	14.191	927.458	693.892
198.402	14.258	926.863	693.663
199.417	14.377	926.506	693.832
200.432	14.364	925.930	693.284
201.446	14.392	925.364	692.916
202.461	14.441	924.855	692.674
203.475	14.454	924.350	692.291
204.490	14.436	923.811	691.750
205.504	14.404	922.981	690.935
206.519	14.344	922.212	690.051
207.534	14.313	921.694	689.474
208.548	14.538	920.514	689.461
209.563	14.468	920.052	688.761
210.577	14.415	918.817	687.558
211.592	14.550	918.035	687.470
212.607	14.558	917.992	687.408
213.621	14.632	917.353	687.176
214.636	14.639	916.376	686.410
215.650	14.639	915.931	686.016
216.665	14.645	915.477	685.641
217.680	14.625	914.764	684.964
218.694	14.544	914.715	684.534
219.709	14.694	913.947	684.514
220.723	14.740	912.971	683.913
221.738	14.898	911.967	683.745
222.753	14.626	911.758	682.417
223.767	14.708	910.980	682.109
224.782	14.779	909.885	681.519
225.796	14.691	909.640	680.913
226.811	14.871	908.877	681.015
227.826	14.671	908.387	679.776
228.840	14.944	907.167	679.913
229.855	14.730	906.887	678.774
230.869	14.766	906.391	678.487
231.884	14.805	905.550	677.955
232.899	14.783	905.068	677.445
233.913	14.830	904.189	676.920
234.928	14.722	903.604	675.985
235.942	14.827	902.294	675.368
236.957	14.823	901.837	674.950
237.972	14.794	901.617	674.609
238.986	14.765	900.592	673.665
240.001	14.741	900.154	673.182
241.015	14.708	899.165	672.248
242.030	15.000	898.340	672.747
243.045	14.818	898.124	671.793
244.059	14.789	897.797	671.372
245.074	14.852	896.391	670.517
246.088	14.982	896.176	670.817
247.103	14.934	895.571	670.111
248.117	14.929	895.072	669.660
249.132	15.030	894.499	669.574
250.147	15.167	893.568	669.366
251.161	15.047	893.198	668.551
252.176	15.162	892.212	668.211
253.190	15.255	891.307	667.845
254.205	15.130	891.235	667.234
255.220	15.318	890.655	667.489
256.234	15.141	890.057	666.277
257.249	15.095	889.371	665.524
258.263	15.225	888.783	665.539
259.278	15.446	888.132	665.872
260.293	15.335	887.276	664.729
261.307	15.344	887.075	664.557
262.322	15.354	886.291	663.950
263.336	15.369	885.784	663.570
264.351	15.422	885.409	663.441
265.366	15.523	884.244	662.907
266.380	15.488	883.858	662.423
267.395	15.470	883.236	661.824
268.409	15.465	882.712	661.355
269.424	15.544	881.618	660.789
270.439	15.389	881.562	660.078
271.453	15.428	880.514	659.386
272.468	15.476	879.353	658.650
273.482	15.498	879.131	658.511
274.497	15.465	878.629	657.945
275.512	15.342	878.075	656.992
276.526	15.402	877.213	656.523
277.541	15.632	876.013	656.467
278.555	15.695	875.562	656.315
279.570	15.611	875.360	655.779
280.585	15.696	874.841	655.664
281.599	15.679	873.729	654.705
282.614	15.627	873.273	654.103
283.628	15.694	872.362	653.622
284.643	15.635	872.314	653.299
285.657	15.761	871.788	653.338
286.672	15.805	870.983	652.846
287.687	15.819	870.427	652.425
288.701	15.896	869.986	652.337
289.716	15.828	869.385	651.564
290.730	15.882	868.660	651.174
291.745	15.929	868.107	650.883
292.760	15.837	867.486	650.003
293.774	15.823	867.168	649.656
294.789	15.994	866.628	649.851
295.803	15.940	865.602	648.818
296.818	15.988	865.301	648.720
297.833	15.778	864.500	647.252
298.847	15.815	863.750	646.775
299.862	15.879	863.252	646.595
300.876	15.921	862.421	646.075
301.891	16.010	861.907	645.973
302.906	16.000	861.150	645.312
303.920	16.085	860.143	644.824
304.935	16.159	859.637	644.669
305.949	16.054	859.304	643.964
306.964	16.063	858.843	643.594
307.979	16.147	858.250	643.413
308.993	16.138	857.471	642.738
310.008	16.218	856.811	642.490
311.022	16.285	856.575	642.513
312.037	16.213	856.131	641.849
313.052	16.110	855.498	640.925
314.066	16.220	854.662	640.662
315.081	16.263	853.742	640.077
316.095	16.122	853.693	639.450
317.110	16.124	853.503	639.259
318.125	16.184	852.636	638.780
319.139	16.099	852.125	638.019
320.154	16.273	851.406	638.081
321.168	16.162	851.087	637.365
322.183	16.236	850.544	637.184
323.197	16.194	850.097	636.632
324.212	16.257	849.524	636.384
325.227	16.385	848.462	636.014
326.241	16.303	848.160	635.426
327.256	16.245	847.822	634.895
328.270	16.305	847.108	634.530
329.285	16.169	846.371	633.414
330.300	16.339	845.892	633.636
331.314	16.270	845.661	633.149
332.329	16.433	844.688	632.972
333.343	16.312	844.202	632.099
334.358	16.415	843.567	631.955
335.373	16.350	843.281	631.442
336.387	16.545	842.244	631.337
337.402	16.561	841.791	631.001
338.416	16.368	841.608	630.089
339.431	16.459	840.993	629.912
340.446	16.698	839.727	629.795
341.460	16.653	839.636	629.505
342.475	16.600	839.269	628.976
343.489	16.503	838.781	628.194
344.504	16.526	838.163	627.763
345.519	16.778	837.495	628.141
346.533	16.799	836.766	627.618
347.548	16.770	836.458	627.223
348.562	16.767	835.925	626.756
349.577	16.630	835.977	626.231
350.592	16.678	834.980	625.606
351.606	16.629	834.786	625.228
352.621	16.608	834.094	624.573
353.635	16.672	833.743	624.495
354.650	16.634	833.187	623.880
355.665	16.802	832.606	624.011
356.679	16.799	832.156	623.606
357.694	16.797	831.861	623.322
358.708	16.770	831.310	622.757
359.723	16.760	830.802	622.284
360.738	16.716	830.130	621.563
361.752	16.830	829.784	621.667
362.767	16.902	828.976	621.271
363.781	17.019	828.514	621.297
364.796	16.869	828.129	620.406
365.810	16.968	827.875	620.523
366.825	17.100	827.468	620.644
367.840	17.007	827.380	620.182
368.854	16.947	826.986	619.615
369.869	17.108	826.310	619.640
370.883	17.044	825.465	618.719
371.898	17.045	824.908	618.250
372.913	17.061	824.161	617.695
373.927	17.192	823.359	617.515
374.942	17.146	823.209	617.181
375.956	17.076	822.573	616.394
376.971	17.134	821.756	615.938
377.986	17.259	821.273	615.974
379.000	17.236	821.166	615.755
380.015	17.043	820.769	614.706
381.029	17.152	819.945	614.428
382.044	17.288	819.219	614.322
383.059	17.257	818.697	613.765
384.073	17.335	818.352	613.732
385.088	17.230	818.119	613.125
386.102	17.122	817.601	612.291
387.117	17.322	816.599	612.209
388.132	17.192	816.183	611.374
389.146	17.351	815.823	611.624
390.161	17.197	815.302	610.623
391.175	17.355	814.735	610.712
392.190	17.271	814.646	610.291
393.205	17.394	814.349	610.456
394.219	17.347	813.798	609.820
395.234	17.440	813.280	609.713
396.248	17.397	812.837	609.172
397.263	17.321	812.180	608.351
398.278	17.404	811.659	608.205
399.292	17.325	811.617	607.839
400.307	17.411	810.774	607.460
401.321	17.493	810.372	607.396
402.336	17.489	810.303	607.276
403.350	17.361	809.793	606.386
404.365	17.524	809.152	606.431
405.380	17.403	809.137	605.935
406.394	17.626	808.039	605.855
407.409	17.554	807.853	605.406
408.423	17.612	807.571	605.345
409.438	17.731	806.812	605.144
410.453	17.649	806.702	604.719
411.467	17.777	806.149	604.705
412.482	17.622	805.674	603.745
413.496	17.820	804.676	603.643
414.511	17.764	804.296	603.109
415.526	17.828	804.087	603.124
416.540	17.838	803.922	602.982
417.555	17.897	803.342	602.703
418.569	17.848	802.838	602.099
419.584	17.915	802.421	601.969
420.599	17.920	801.755	601.435
421.613	114.348	1297.287	1487.263
422.628	98.671	1369.448	1487.341
