DTS Sentinel unit serial number:	SN413079Multiplexer serial number:	ORYXHardware model number:	OX4-SRSoftware version number:	ORYX F/W v4.00 Oryx Data Collector v3.7.2.0data status	okinstallation	princeton_trtdifferential loss correction	single-endedforward channel	channel 3reverse channel	N/Adate	2019/09/12time	01:54:11forward acquisition time	60.00reverse acquisition time	0.00gamma	496.2192k internal	0.2320k external	0.2320temperature offset calibration	1.0067default loss term (dB/km)	0.3790temperature slope calibration	1.0000multiplexer offset coefficient	1.0000multiplexer slope coefficient	1.0000fibre end	0.00T internal ref (°C)	32.78T ext. ref 1 (°C)	2.06T ext. ref 2 (°C)	27.40length (m)	temperature (°C)	Stokes	anti-Stokes-747.200	138.077	-0.007	-0.009
-746.185	412.138	-0.193	0.414
-745.171	479.439	-0.034	0.079
-744.156	224.576	0.126	0.206
-743.142	76.662	0.091	-0.097
-742.127	-156.419	0.274	-0.017
-741.112	-194.316	-0.345	-0.003
-740.098	-99.831	0.347	0.088
-739.083	-9.125	0.326	0.221
-738.069	800.000	0.058	0.181
-737.054	-137.293	-0.239	-0.027
-736.039	-50.841	-0.204	0.097
-735.025	-200.000	0.011	0.354
-734.010	-139.565	-0.021	-0.002
-732.996	-114.370	-0.182	0.035
-731.981	-15.656	-0.142	0.092
-730.966	-133.377	0.013	-0.002
-729.952	34.044	0.145	-0.127
-728.937	-200.000	0.006	-0.392
-727.923	115.995	-0.035	-0.043
-726.908	-12.442	0.115	0.076
-725.894	175.484	-0.154	-0.225
-724.879	-200.000	-0.026	0.502
-723.864	21.948	0.387	0.318
-722.850	25.379	-0.079	-0.066
-721.835	-200.000	-0.006	-0.281
-720.821	-200.000	-0.009	0.244
-719.806	-200.000	-0.015	0.118
-718.791	158.081	0.052	0.073
-717.777	-124.397	-0.484	0.076
-716.762	138.797	0.168	-0.223
-715.748	-200.000	-0.022	0.144
-714.733	150.358	0.122	0.167
-713.718	373.955	0.156	-0.320
-712.704	76.203	0.222	-0.237
-711.689	-136.738	-0.216	-0.025
-710.675	197.737	-0.116	-0.178
-709.660	237.483	0.175	0.292
-708.645	800.000	-0.044	0.164
-707.631	-4.531	0.183	-0.128
-706.616	-48.543	-0.136	0.066
-705.602	-155.359	-0.106	-0.007
-704.587	-44.481	-0.188	-0.095
-703.572	-138.753	-0.281	-0.031
-702.558	800.000	-0.035	0.135
-701.543	765.560	0.078	0.213
-700.529	109.127	0.122	-0.148
-699.514	288.329	0.189	-0.346
-698.499	800.000	0.163	-0.463
-697.485	-200.000	0.011	-0.687
-696.470	-68.671	0.464	-0.181
-695.456	13.187	0.270	-0.211
-694.441	122.469	-0.112	0.141
-693.426	800.000	0.040	-0.132
-692.412	16.954	0.245	-0.196
-691.397	707.084	0.028	0.075
-690.383	184.091	-0.194	0.290
-689.368	186.358	0.098	0.147
-688.354	-141.627	0.281	-0.029
-687.339	800.000	0.169	-0.476
-686.324	-200.000	0.000	-0.127
-685.310	800.000	-0.084	-0.318
-684.295	180.911	-0.118	-0.175
-683.281	60.647	-0.038	-0.038
-682.266	-200.000	0.062	-0.384
-681.251	-200.000	-0.010	-0.412
-680.237	-3.246	-0.209	-0.147
-679.222	476.554	0.188	-0.430
-678.208	44.921	0.176	-0.163
-677.193	0.297	-0.131	0.094
-676.178	-85.994	-0.299	0.093
-675.164	-78.090	0.485	0.168
-674.149	-10.627	-0.097	0.065
-673.135	800.000	0.071	-0.239
-672.120	63.493	-0.072	0.073
-671.105	28.972	-0.216	-0.185
-670.091	800.000	0.018	0.057
-669.076	-55.365	-0.173	-0.078
-668.062	-200.000	0.057	0.257
-667.047	-35.099	-0.266	0.146
-666.032	-200.000	-0.093	-0.457
-665.018	-80.221	0.426	-0.144
-664.003	252.945	-0.168	-0.288
-662.989	-131.368	0.159	-0.021
-661.974	-35.441	0.248	0.136
-660.959	132.172	-0.111	-0.145
-659.945	188.905	-0.087	-0.131
-658.930	800.000	-0.079	0.266
-657.916	-14.287	0.044	0.029
-656.901	511.324	-0.031	-0.073
-655.886	74.701	-0.154	0.164
-654.872	800.000	0.202	0.607
-653.857	-69.513	0.256	0.099
-652.843	-64.680	-0.131	0.054
-651.828	-200.000	-0.371	0.000
-650.814	295.662	0.071	0.131
-649.799	800.000	0.095	-0.279
-648.784	8.218	0.149	0.113
-647.770	-129.682	-0.306	-0.042
-646.755	312.695	-0.067	-0.127
-645.741	201.244	-0.036	-0.055
-644.726	-68.309	0.228	-0.089
-643.711	14.041	0.073	0.057
-642.697	-36.636	0.124	-0.067
-641.682	40.129	-0.041	-0.037
-640.668	800.000	0.050	-0.165
-639.653	-84.107	0.194	-0.062
-638.638	-63.109	-0.113	0.047
-637.624	-24.539	0.323	0.194
-636.609	-14.203	0.035	0.023
-635.595	396.786	-0.032	-0.068
-634.580	800.000	-0.094	-0.319
-633.565	-160.599	0.318	-0.017
-632.551	74.975	0.256	-0.272
-631.536	-10.088	0.171	0.114
-630.522	-35.457	0.259	0.142
-629.507	715.712	-0.065	-0.174
-628.492	-200.000	-0.020	-0.215
-627.478	264.203	-0.126	-0.220
-626.463	125.727	0.185	-0.236
-625.449	-200.000	-0.015	-0.154
-624.434	-128.065	0.125	-0.018
-623.419	-159.346	-0.034	0.002
-622.405	-200.000	-0.023	-0.158
-621.390	249.756	0.091	-0.156
-620.376	-47.131	0.121	-0.059
-619.361	608.461	-0.163	-0.410
-618.346	-24.084	-0.258	-0.155
-617.332	37.796	-0.091	-0.082
-616.317	195.121	0.162	-0.247
-615.303	800.000	0.135	-0.527
-614.288	394.567	0.094	-0.197
-613.273	318.574	-0.116	0.220
-612.259	709.852	-0.087	0.233
-611.244	-125.891	-0.293	-0.044
-610.230	116.067	0.169	-0.209
-609.215	-200.000	-0.061	-0.364
-608.201	183.627	0.256	-0.381
-607.186	-157.998	-0.068	0.004
-606.171	1.831	-0.326	0.236
-605.157	193.857	-0.180	-0.274
-604.142	-10.364	0.131	-0.088
-603.128	-84.858	-0.327	-0.103
-602.113	-115.835	-0.262	0.049
-601.098	-89.326	-0.147	0.044
-600.084	702.112	0.080	-0.213
-599.069	198.687	-0.082	0.126
-598.055	-85.781	-0.265	0.083
-597.040	413.037	-0.040	0.086
-596.025	-55.003	0.248	-0.112
-595.011	-132.195	0.256	-0.033
-593.996	613.634	-0.127	0.320
-592.982	800.000	0.026	-0.072
-591.967	570.984	0.090	-0.221
-590.952	93.427	-0.080	-0.091
-589.938	-25.930	0.268	0.159
-588.923	529.052	0.140	-0.332
-587.909	54.064	-0.148	0.143
-586.894	1.622	-0.297	-0.215
-585.879	-200.000	-0.008	-0.339
-584.865	316.589	-0.013	0.024
-583.850	-84.215	0.061	-0.020
-582.836	-18.060	-0.010	0.006
-581.821	-32.724	0.154	-0.086
-580.806	-175.178	-0.150	-0.004
-579.792	64.082	-0.065	0.065
-578.777	177.299	-0.152	-0.222
-577.763	-200.000	-0.010	0.132
-576.748	-90.687	-0.278	0.081
-575.733	-26.055	-0.172	0.101
-574.719	52.483	0.190	0.183
-573.704	27.791	-0.168	-0.142
-572.690	-81.895	0.220	0.072
-571.675	800.000	-0.130	0.484
-570.661	-79.059	0.182	-0.062
-569.646	3.744	-0.246	-0.180
-568.631	144.037	0.091	0.121
-567.617	-200.000	0.004	0.212
-566.602	-123.352	0.260	-0.042
-565.588	-58.373	0.074	0.032
-564.573	58.875	-0.129	0.128
-563.558	-22.104	0.085	0.052
-562.544	-126.247	-0.135	-0.020
-561.529	-136.103	0.233	-0.027
-560.515	-88.842	-0.121	0.036
-559.500	-161.313	-0.112	0.006
-558.485	357.683	-0.121	0.242
-557.471	24.511	-0.176	-0.146
-556.456	-58.469	0.322	0.140
-555.442	-51.320	-0.313	0.147
-554.427	-70.958	-0.294	0.111
-553.412	-98.874	-0.329	-0.084
-552.398	167.290	-0.177	-0.252
-551.383	800.000	-0.059	0.245
-550.369	-99.477	-0.112	0.028
-549.354	800.000	0.076	0.335
-548.339	13.351	-0.249	0.194
-547.325	-99.350	0.249	-0.063
-546.310	-71.626	0.224	0.084
-545.296	-189.186	-0.391	0.005
-544.281	22.850	-0.257	0.212
-543.266	-93.825	-0.277	0.077
-542.252	-200.000	-0.008	0.037
-541.237	800.000	-0.067	0.216
-540.223	27.299	-0.144	-0.121
-539.208	122.252	-0.273	-0.343
-538.193	-200.000	-0.076	-0.439
-537.179	800.000	0.064	0.187
-536.164	274.060	0.116	0.206
-535.150	134.307	-0.021	0.027
-534.135	-200.000	0.004	-0.278
-533.121	23.617	-0.028	-0.023
-532.106	-161.957	-0.357	0.018
-531.091	392.141	0.053	-0.111
-530.077	62.478	0.209	-0.209
-529.062	-35.859	-0.138	-0.075
-528.048	-166.088	0.042	0.002
-527.033	-17.064	-0.161	-0.102
-526.018	-65.321	-0.159	-0.064
-525.004	-200.000	-0.029	0.153
-523.989	-47.767	-0.080	-0.039
-522.975	-200.000	-0.032	0.152
-521.960	800.000	0.131	-0.369
-520.945	-200.000	-0.045	-0.407
-519.931	-82.641	-0.401	0.130
-518.916	800.000	-0.081	-0.305
-517.902	-133.252	0.013	0.002
-516.887	-45.382	0.114	0.057
-515.872	382.326	-0.061	-0.125
-514.858	-26.681	0.287	0.169
-513.843	81.697	0.153	-0.166
-512.829	-130.514	0.171	-0.023
-511.814	406.636	-0.089	0.188
-510.799	-84.302	0.221	0.070
-509.785	378.665	-0.128	-0.262
-508.770	-200.000	-0.059	-0.336
-507.756	-86.234	0.242	-0.075
-506.741	-200.000	-0.001	0.054
-505.726	525.378	-0.095	0.223
-504.712	-200.000	-0.054	0.467
-503.697	-41.483	0.383	0.197
-502.683	-68.095	-0.142	-0.055
-501.668	-95.562	0.230	0.062
-500.653	-141.870	-0.211	-0.021
-499.639	-95.924	0.181	0.048
-498.624	48.179	-0.050	-0.046
-497.610	-49.764	-0.063	0.030
-496.595	-200.000	-0.000	-0.154
-495.581	-138.629	-0.199	-0.022
-494.566	-105.289	0.121	0.028
-493.551	444.420	-0.065	0.143
-492.537	243.253	-0.109	0.183
-491.522	459.081	-0.155	-0.345
-490.508	68.442	0.142	0.146
-489.493	361.887	0.160	-0.321
-488.478	-168.792	0.352	-0.013
-487.464	92.064	-0.081	-0.092
-486.449	607.926	-0.109	0.272
-485.435	25.075	0.165	0.137
-484.420	-56.110	0.319	-0.142
-483.405	50.200	0.232	0.220
-482.391	-200.000	-0.031	-0.246
-481.376	58.371	-0.091	-0.089
-480.362	-34.762	0.209	-0.114
-479.347	-31.565	0.030	0.017
-478.332	-62.480	-0.479	0.199
-477.318	-46.582	0.108	-0.053
-476.303	800.000	0.070	0.209
-475.289	800.000	0.127	-0.440
-474.274	-200.000	-0.079	-0.424
-473.259	-78.792	-0.237	-0.081
-472.245	-149.884	0.229	-0.018
-471.230	-79.123	-0.075	0.025
-470.216	234.851	0.041	-0.067
-469.201	-34.551	-0.214	0.117
-468.186	336.660	0.106	-0.205
-467.172	15.686	-0.120	-0.094
-466.157	800.000	0.140	-0.419
-465.143	38.509	0.154	-0.138
-464.128	800.000	0.114	-0.433
-463.113	-119.702	-0.015	0.003
-462.099	112.128	-0.160	-0.193
-461.084	800.000	-0.091	0.298
-460.070	-45.088	0.042	0.021
-459.055	-200.000	0.005	0.102
-458.040	-200.000	0.055	0.408
-457.026	128.426	0.066	0.084
-456.011	-8.421	0.227	-0.153
-454.997	-103.241	-0.148	0.035
-453.982	14.842	0.221	-0.173
-452.968	-141.507	0.201	0.020
-451.953	603.995	0.030	-0.076
-450.938	-50.783	-0.422	0.199
-449.924	48.793	0.212	0.199
-448.909	177.106	0.064	0.094
-447.895	-200.000	0.064	-0.433
-446.880	130.828	-0.334	-0.429
-445.865	-200.000	-0.048	-0.218
-444.851	-146.746	0.168	-0.015
-443.836	-178.298	-0.340	-0.008
-442.822	224.630	0.092	0.149
-441.807	5.804	-0.215	0.159
-440.792	-63.008	-0.119	-0.049
-439.778	-93.848	-0.304	-0.084
-438.763	115.835	-0.111	0.136
-437.749	365.264	0.123	-0.247
-436.734	-200.000	0.023	0.224
-435.719	284.275	0.068	0.123
-434.705	-0.580	-0.068	0.049
-433.690	-9.925	-0.052	0.034
-432.676	15.561	0.120	0.095
-431.661	800.000	0.030	0.089
-430.646	-200.000	0.023	0.206
-429.632	800.000	0.136	-0.382
-428.617	-34.031	0.151	0.083
-427.603	-2.282	0.138	-0.096
-426.588	-115.810	0.193	0.036
-425.573	-6.272	0.193	-0.132
-424.559	-45.037	0.211	0.105
-423.544	-68.323	-0.185	0.072
-422.530	-200.000	-0.017	0.076
-421.515	-123.534	0.048	-0.008
-420.500	-200.000	0.055	-0.430
-419.486	-78.632	0.079	-0.027
-418.471	-95.961	-0.280	0.074
-417.457	52.079	-0.147	0.140
-416.442	-5.472	0.341	0.234
-415.428	-33.494	0.329	-0.182
-414.413	379.883	0.070	-0.144
-413.398	-17.029	0.141	0.089
-412.384	83.150	-0.354	0.384
-411.369	-18.489	-0.249	-0.155
-410.355	-36.376	0.227	-0.122
-409.340	4.106	-0.157	-0.115
-408.325	800.000	-0.105	0.377
-407.311	800.000	-0.086	-0.283
-406.296	72.634	-0.202	-0.210
-405.282	800.000	-0.041	-0.118
-404.267	334.659	-0.074	0.143
-403.252	34.841	-0.183	0.159
-402.238	-119.539	0.353	-0.061
-401.223	-144.781	0.270	-0.025
-400.209	-76.443	0.165	0.058
-399.194	-200.000	-0.055	0.290
-398.179	210.000	-0.134	0.209
-397.165	-200.000	-0.046	0.244
-396.150	11.128	0.271	-0.207
-395.136	67.383	-0.091	-0.092
-394.121	-46.400	-0.105	0.052
-393.106	-182.574	-0.217	-0.004
-392.092	45.653	0.241	0.223
-391.077	-200.000	-0.050	0.231
-390.063	-154.594	0.217	0.014
-389.048	22.396	0.076	0.062
-388.033	-200.000	-0.004	0.037
-387.019	800.000	-0.019	-0.062
-386.004	-84.697	-0.296	-0.093
-384.990	-132.741	-0.358	-0.046
-383.975	5.753	0.112	0.082
-382.960	800.000	0.104	-0.312
-381.946	16.441	-0.112	-0.088
-380.931	-120.967	0.084	0.014
-379.917	800.000	0.041	0.152
-378.902	800.000	0.047	0.182
-377.888	-95.011	0.142	0.038
-376.873	-200.000	-0.419	0.002
-375.858	190.875	-0.051	-0.077
-374.844	-200.000	-0.024	-0.243
-373.829	-158.382	-0.262	0.015
-372.815	41.979	-0.117	0.106
-371.800	-170.529	-0.218	-0.008
-370.785	-200.000	-0.005	0.154
-369.771	-137.349	-0.155	-0.018
-368.756	-85.394	0.347	0.108
-367.742	49.299	-0.062	-0.058
-366.727	-200.000	0.047	0.442
-365.712	43.426	0.111	0.101
-364.698	-200.000	-0.030	0.179
-363.683	800.000	0.101	-0.364
-362.669	354.958	-0.069	-0.136
-361.654	800.000	-0.095	0.273
-360.639	441.339	-0.176	0.384
-359.625	800.000	-0.021	-0.059
-358.610	-6.953	-0.073	0.049
-357.596	-200.000	0.024	0.220
-356.581	12.627	0.077	-0.059
-355.566	800.000	0.018	0.069
-354.552	51.780	0.205	-0.195
-353.537	-200.000	0.001	0.228
-352.523	-153.801	0.290	0.020
-351.508	481.710	0.210	-0.474
-350.493	-70.069	0.250	0.095
-349.479	139.117	-0.105	0.137
-348.464	23.965	-0.118	0.097
-347.450	-16.334	0.076	-0.048
-346.435	119.625	-0.154	0.191
-345.420	-200.000	-0.066	0.292
-344.406	-126.994	-0.627	0.092
-343.391	-38.528	0.182	0.096
-342.377	-27.943	0.010	-0.006
-341.362	160.882	-0.097	-0.134
-340.348	144.664	0.083	0.110
-339.333	-92.177	0.033	-0.009
-338.318	51.634	0.234	-0.221
-337.304	-200.000	0.032	-0.258
-336.289	-3.778	-0.050	-0.034
-335.275	130.647	-0.094	0.120
-334.260	-68.521	-0.289	0.112
-333.245	-12.280	-0.197	0.128
-332.231	24.570	-0.100	0.083
-331.216	48.441	-0.046	0.043
-330.202	-19.713	-0.114	0.070
-329.187	-79.076	-0.049	0.016
-328.172	94.000	0.033	0.037
-327.158	-196.825	0.205	-0.001
-326.143	-37.060	-0.133	-0.071
-325.129	16.868	0.092	-0.072
-324.114	7.716	-0.232	-0.173
-323.099	0.511	0.298	0.212
-322.085	-160.792	-0.038	-0.002
-321.070	67.171	0.163	-0.165
-320.056	-200.000	-0.007	-0.106
-319.041	274.375	0.209	0.368
-318.026	-55.744	0.050	0.022
-317.012	800.000	0.044	0.134
-315.997	800.000	-0.049	-0.138
-314.983	-4.063	-0.125	-0.086
-313.968	-63.783	-0.187	0.076
-312.953	95.644	0.012	0.014
-311.939	67.352	0.187	0.190
-310.924	84.022	-0.226	-0.246
-309.910	-200.000	0.088	-0.476
-308.895	536.062	-0.137	0.322
-307.880	252.161	-0.130	0.220
-306.866	800.000	-0.050	0.138
-305.851	-200.000	0.006	0.077
-304.837	-69.902	0.159	0.060
-303.822	-200.000	0.017	0.108
-302.807	28.254	0.167	-0.140
-301.793	-36.208	0.062	0.033
-300.778	224.387	0.225	0.362
-299.764	800.000	0.032	0.128
-298.749	271.076	-0.131	0.229
-297.735	-44.466	0.143	0.071
-296.720	-173.336	0.251	0.008
-295.705	-113.919	-0.130	0.025
-294.691	344.031	-0.039	0.076
-293.676	-200.000	0.037	-0.501
-292.662	-97.420	0.221	-0.057
-291.647	430.715	0.023	-0.049
-290.632	800.000	0.148	0.598
-289.618	-8.252	0.142	0.095
-288.603	-200.000	-0.001	0.086
-287.589	-27.010	0.051	0.029
-286.574	-98.035	-0.105	0.027
-285.559	800.000	-0.070	0.198
-284.545	-44.013	0.051	-0.025
-283.530	320.658	0.112	0.210
-282.516	-200.000	0.024	-0.186
-281.501	198.423	-0.132	-0.201
-280.486	-158.655	-0.133	0.008
-279.472	800.000	0.013	0.057
-278.457	-37.220	-0.109	0.058
-277.443	-60.475	-0.063	-0.027
-276.428	206.826	0.131	0.202
-275.413	-81.852	-0.063	0.021
-274.399	800.000	0.106	-0.304
-273.384	126.481	0.154	0.193
-272.370	-139.829	0.213	-0.022
-271.355	800.000	-0.059	-0.230
-270.340	-106.490	-0.269	-0.060
-269.326	253.079	0.184	0.312
-268.311	89.022	0.057	0.063
-267.297	-53.270	-0.108	0.049
-266.282	-134.153	0.122	0.015
-265.267	147.515	0.137	0.183
-264.253	-39.262	0.230	0.120
-263.238	-16.301	0.022	0.014
-262.224	200.548	0.097	0.148
-261.209	-124.300	-0.245	-0.038
-260.195	41.819	0.054	0.049
-259.180	-200.000	-0.028	0.309
-258.165	503.579	-0.147	-0.338
-257.151	-200.000	0.034	-0.172
-256.136	61.096	0.194	-0.191
-255.122	92.029	0.072	-0.080
-254.107	-179.075	0.421	-0.009
-253.092	117.709	0.034	0.042
-252.078	36.309	0.094	0.082
-251.063	-85.419	0.305	0.094
-250.049	-39.400	0.200	0.104
-249.034	-93.183	0.372	-0.103
-248.019	-200.000	0.018	-0.181
-247.005	9.824	-0.035	-0.027
-245.990	-200.000	-0.010	-0.090
-244.976	-102.807	0.229	0.054
-243.961	483.256	-0.155	-0.350
-242.946	-200.000	-0.005	0.187
-241.932	487.760	0.089	0.202
-240.917	255.543	0.071	-0.120
-239.903	345.957	-0.083	0.162
-238.888	554.076	0.113	0.270
-237.873	-86.834	-0.036	0.011
-236.859	800.000	-0.071	0.253
-235.844	162.743	0.096	0.133
-234.830	-99.107	0.088	-0.022
-233.815	333.797	-0.172	-0.329
-232.800	-13.890	-0.054	-0.035
-231.786	-90.041	-0.369	0.107
-230.771	102.566	-0.226	0.262
-229.757	134.468	-0.251	0.322
-228.742	-68.228	-0.093	-0.036
-227.727	592.617	-0.106	0.258
-226.713	46.505	-0.182	-0.168
-225.698	324.759	0.095	-0.180
-224.684	-110.196	0.129	0.027
-223.669	413.273	-0.053	0.112
-222.655	-97.409	-0.274	0.071
-221.640	-90.575	0.212	0.061
-220.625	-2.466	0.297	0.206
-219.611	-200.000	0.020	0.171
-218.596	-102.712	0.178	0.042
-217.582	-74.855	0.279	0.099
-216.567	-28.047	-0.237	0.136
-215.552	-200.000	-0.014	-0.193
-214.538	-172.773	0.171	-0.005
-213.523	-93.391	0.114	-0.031
-212.509	216.163	0.202	0.318
-211.494	112.244	-0.195	-0.233
-210.479	-41.025	-0.293	0.150
-209.465	-92.834	-0.051	-0.014
-208.450	-75.677	-0.199	0.070
-207.436	157.620	-0.151	0.207
-206.421	800.000	-0.061	-0.244
-205.406	-200.000	-0.031	-0.168
-204.392	-165.882	0.208	-0.009
-203.377	130.912	0.266	-0.338
-202.363	-200.000	0.045	-0.229
-201.348	-87.508	0.041	0.012
-200.333	-200.000	0.004	0.379
-199.319	183.351	-0.150	-0.220
-198.304	-150.431	-0.167	0.013
-197.290	800.000	0.027	0.076
-196.275	702.766	-0.101	0.264
-195.260	-53.015	0.092	0.042
-194.246	800.000	0.053	0.151
-193.231	133.603	0.177	-0.226
-192.217	-159.739	-0.170	-0.009
-191.202	800.000	0.039	-0.126
-190.187	268.053	0.128	-0.223
-189.173	114.013	-0.028	0.034
-188.158	-200.000	0.012	0.127
-187.144	-145.142	0.202	0.018
-186.129	-107.443	0.300	0.065
-185.114	-110.746	0.015	0.003
-184.100	-17.217	0.265	-0.165
-183.085	-82.728	0.233	-0.075
-182.071	29.298	-0.116	-0.098
-181.056	-39.741	-0.116	0.060
-180.042	-200.000	-0.033	0.159
-179.027	638.911	0.199	-0.500
-178.012	319.617	0.098	-0.184
-176.998	-1.880	-0.293	0.204
-175.983	-150.609	0.076	-0.006
-174.969	772.586	-0.145	0.392
-173.954	52.178	0.167	-0.158
-172.939	800.000	-0.088	-0.321
-171.925	241.181	-0.116	-0.191
-170.910	-17.446	-0.076	0.047
-169.896	-12.624	0.192	0.124
-168.881	26.392	-0.070	0.058
-167.866	-18.865	-0.092	-0.057
-166.852	-200.000	-0.040	-0.207
-165.837	-200.000	-0.017	0.150
-164.823	405.778	-0.041	0.085
-163.808	-200.000	0.015	-0.103
-162.793	800.000	0.024	0.089
-161.779	177.010	0.079	-0.113
-160.764	800.000	-0.110	0.376
-159.750	308.722	0.073	0.135
-158.735	-97.654	-0.154	0.039
-157.720	244.673	-0.138	0.230
-156.706	-91.612	-0.344	0.097
-155.691	114.120	0.157	-0.188
-154.677	26.210	0.077	-0.064
-153.662	-62.639	-0.238	0.098
-152.647	183.851	0.176	0.258
-151.633	287.697	-0.237	0.424
-150.618	428.591	-0.118	0.251
-149.604	-200.000	0.037	0.204
-148.589	800.000	0.042	-0.127
-147.574	-200.000	-0.023	-0.333
-146.560	-71.500	-0.138	0.051
-145.545	-200.000	0.017	-0.104
-144.531	-145.872	0.110	0.010
-143.516	-100.190	0.277	0.068
-142.502	-66.027	0.444	-0.175
-141.487	190.309	0.031	0.046
-140.472	397.835	0.038	0.077
-139.458	-200.000	0.026	0.143
-138.443	-200.000	-0.094	0.431
-137.429	-170.297	-0.066	0.002
-136.414	-154.192	0.198	0.013
-135.399	-10.241	-0.140	0.092
-134.385	5.553	0.173	-0.126
-133.370	-119.780	0.431	-0.073
-132.356	65.196	0.054	0.054
-131.341	658.724	-0.065	-0.164
-130.326	-115.807	0.071	-0.013
-129.312	768.997	0.024	-0.065
-128.297	359.276	0.086	-0.170
-127.283	-200.000	-0.032	0.232
-126.268	-89.368	0.058	0.017
-125.253	-121.960	-0.081	-0.013
-124.239	-36.465	-0.129	0.069
-123.224	800.000	0.014	-0.043
-122.210	429.896	-0.031	-0.067
-121.195	383.259	-0.152	0.308
-120.180	314.792	0.118	-0.220
-119.166	43.225	0.096	0.086
-118.151	-200.000	-0.014	0.367
-117.137	800.000	-0.109	-0.359
-116.122	172.317	-0.102	-0.144
-115.107	266.526	-0.109	0.188
-114.093	107.042	0.121	0.142
-113.078	-80.529	-0.336	-0.111
-112.064	-113.823	-0.298	-0.057
-111.049	4.705	0.054	0.039
-110.034	443.422	0.054	0.118
-109.020	-200.000	0.001	-0.042
-108.005	-152.790	-0.238	-0.017
-106.991	-16.325	-0.274	-0.171
-105.976	22.214	-0.240	-0.193
-104.962	132.377	0.272	-0.346
-103.947	-10.795	0.295	0.193
-102.932	-200.000	0.002	0.110
-101.918	-39.350	-0.195	0.101
-100.903	-200.000	-0.040	-0.175
-99.889	-83.508	0.262	0.083
-98.874	-92.100	-0.054	0.015
-97.859	-95.761	-0.074	-0.020
-96.845	-1.705	-0.177	0.123
-95.830	33.625	-0.142	-0.122
-94.816	-27.790	-0.307	-0.176
-93.801	-200.000	-0.023	0.227
-92.786	706.421	-0.102	0.266
-91.772	765.396	0.095	0.254
-90.757	74.357	0.184	0.191
-89.743	-50.306	0.204	-0.095
-88.728	41.263	-0.244	0.218
-87.713	-139.417	0.044	-0.005
-86.699	-130.648	0.095	0.013
-85.684	64.305	-0.083	0.082
-84.670	-150.948	0.175	-0.013
-83.655	-109.925	-0.141	-0.029
-82.640	11.841	0.198	-0.150
-81.626	56.282	0.395	-0.378
-80.611	483.526	0.039	-0.087
-79.597	89.915	-0.177	0.195
-78.582	-67.700	0.396	-0.153
-77.567	-33.143	-0.232	-0.127
-76.553	85.483	0.287	-0.310
-75.538	800.000	0.038	-0.139
-74.524	-200.000	-0.010	-0.125
-73.509	-56.673	0.170	-0.074
-72.494	-200.000	0.044	-0.296
-71.480	-93.868	0.186	-0.050
-70.465	310.530	-0.234	-0.432
-69.451	174.733	-0.160	0.228
-68.436	32.357	0.133	-0.114
-67.422	198.755	0.204	0.308
-66.407	-110.225	-0.150	-0.031
-65.392	-200.000	0.009	0.045
-64.378	-20.109	0.325	-0.197
-63.363	-72.442	0.228	0.083
-62.349	-48.482	-0.216	0.102
-61.334	114.235	-0.788	-0.945
-60.319	296.099	0.196	0.353
-59.305	-200.000	-0.208	-1.145
-58.290	800.000	0.462	1.319
-57.276	800.000	0.550	1.683
-56.261	-200.000	96.582	574.935
-55.246	552.774	1377.265	3257.077
-54.232	160.516	2551.671	3504.337
-53.217	110.998	2161.612	2561.445
-52.203	43.186	1706.657	1533.125
-51.188	36.062	1520.051	1316.970
-50.173	33.621	1493.606	1277.590
-49.159	52.237	1542.051	1446.863
-48.144	54.080	1559.964	1476.238
-47.130	36.154	1519.299	1316.738
-46.115	33.098	1504.543	1283.187
-45.100	32.915	1501.499	1279.306
-44.086	32.882	1499.706	1277.501
-43.071	32.758	1498.427	1275.521
-42.057	32.762	1496.313	1273.701
-41.042	32.753	1495.203	1272.646
-40.027	32.727	1493.652	1271.101
-39.013	32.722	1492.121	1269.711
-37.998	32.809	1490.656	1269.001
-36.984	32.839	1489.376	1268.058
-35.969	32.745	1488.203	1266.378
-34.954	32.809	1486.695	1265.473
-33.940	32.804	1485.637	1264.494
-32.925	32.817	1484.223	1263.326
-31.911	32.782	1483.061	1262.050
-30.896	32.840	1481.733	1261.258
-29.881	32.868	1480.329	1260.199
-28.867	32.856	1478.492	1258.509
-27.852	32.866	1477.158	1257.390
-26.838	32.916	1475.262	1256.054
-25.823	32.901	1474.146	1254.955
-24.809	32.828	1472.470	1252.995
-23.794	32.767	1471.070	1251.349
-22.779	32.851	1469.830	1250.802
-21.765	32.854	1468.760	1249.861
-20.750	32.736	1467.559	1248.007
-19.736	32.811	1466.581	1247.624
-18.721	32.737	1465.855	1246.468
-17.706	32.736	1464.735	1245.457
-16.692	32.757	1463.216	1244.257
-15.677	32.802	1462.300	1243.723
-14.663	32.712	1461.886	1242.731
-13.648	32.786	1460.184	1241.723
-12.633	32.745	1459.434	1240.766
-11.619	32.639	1458.998	1239.649
-10.604	32.737	1458.178	1239.545
-9.590	32.758	1456.884	1238.537
-8.575	32.716	1456.174	1237.605
-7.560	32.715	1455.476	1236.960
-6.546	32.788	1453.996	1236.126
-5.531	32.749	1453.280	1235.218
-4.517	32.653	1452.609	1233.970
-3.502	32.724	1451.612	1233.534
-2.487	32.736	1450.421	1232.553
-1.473	32.714	1449.451	1231.536
-0.458	32.743	1448.200	1230.612
0.556	33.165	1438.948	1219.117
1.571	30.387	1415.460	1181.466
2.586	27.077	1362.656	1116.974
3.600	25.619	1285.137	1044.878
4.615	24.153	1237.430	997.797
5.629	20.609	1179.216	931.818
6.644	10.894	1092.440	814.715
7.659	3.307	1050.371	746.604
8.673	2.262	1044.889	737.599
9.688	2.090	1041.366	734.221
10.702	1.925	1040.019	732.414
11.717	1.964	1038.001	731.116
12.731	5.514	1042.363	751.185
13.746	15.425	1055.633	808.656
14.761	23.062	1065.817	853.392
15.775	25.046	1067.588	864.316
16.790	25.334	1067.422	865.494
17.804	25.248	1066.718	864.429
18.819	24.887	1065.916	861.965
19.834	25.054	1065.530	862.383
20.848	25.294	1064.880	862.934
21.863	25.426	1064.663	863.317
22.877	25.438	1063.850	862.640
23.892	25.326	1063.432	861.686
24.907	25.242	1062.600	860.531
25.921	25.168	1062.164	859.746
26.936	25.301	1061.179	859.513
27.950	25.249	1059.646	857.947
28.965	25.302	1058.566	857.247
29.980	25.063	1057.634	855.275
30.994	25.085	1056.464	854.361
32.009	25.346	1055.231	854.528
33.023	25.353	1055.007	854.306
34.038	25.170	1053.848	852.424
35.053	25.063	1053.226	851.337
36.067	25.252	1051.988	851.157
37.082	25.246	1051.782	850.887
38.096	25.215	1050.991	850.023
39.111	25.404	1050.590	850.519
40.126	25.553	1049.140	849.975
41.140	25.741	1047.418	849.390
42.155	25.208	1046.610	846.148
43.169	24.739	1045.427	842.904
44.184	24.741	1044.520	842.108
45.199	24.887	1043.802	842.143
46.213	24.943	1042.192	841.031
47.228	25.037	1041.497	840.839
48.242	25.044	1041.133	840.505
49.257	25.150	1040.340	840.287
50.271	25.212	1039.803	840.067
51.286	25.308	1039.239	839.985
52.301	25.306	1038.426	839.246
53.315	25.455	1037.276	838.938
54.330	25.318	1036.827	837.860
55.344	25.202	1036.295	836.818
56.359	25.345	1034.900	836.284
57.374	25.320	1034.468	835.745
58.388	25.030	1033.896	833.857
59.403	25.011	1033.164	833.107
60.417	24.946	1032.535	832.220
61.432	24.747	1031.802	830.635
62.447	24.950	1030.995	830.850
63.461	24.995	1030.443	830.540
64.476	25.099	1029.385	830.095
65.490	25.017	1028.793	829.167
66.505	24.932	1027.799	827.901
67.520	24.884	1026.717	826.734
68.534	25.006	1026.065	826.695
69.549	24.897	1024.891	825.175
70.563	24.705	1023.412	823.029
71.578	24.515	1023.369	822.046
72.593	24.575	1022.318	821.405
73.607	24.427	1020.934	819.544
74.622	24.425	1020.084	818.779
75.636	24.674	1019.968	819.753
76.651	24.806	1019.159	819.636
77.666	24.734	1018.132	818.406
78.680	24.612	1016.757	816.674
79.695	24.792	1016.388	817.127
80.709	24.762	1016.182	816.750
81.724	24.898	1015.277	816.573
82.739	24.810	1014.639	815.586
83.753	24.750	1014.194	814.882
84.768	25.109	1012.701	815.244
85.782	25.391	1012.815	816.547
86.797	25.636	1011.732	816.714
87.812	25.599	1010.940	815.833
88.826	25.465	1010.034	814.422
89.841	25.401	1009.115	813.322
90.855	25.472	1008.565	813.124
91.870	25.538	1007.930	812.842
92.884	25.575	1006.756	811.989
93.899	25.446	1005.972	810.700
94.914	25.435	1004.554	809.438
95.928	25.359	1004.375	808.882
96.943	25.402	1003.571	808.355
97.957	25.130	1002.570	806.253
98.972	24.919	1001.198	804.130
99.987	24.851	999.923	802.732
101.001	24.818	999.448	802.130
102.016	25.190	999.157	803.494
103.030	25.223	998.490	803.036
104.045	25.206	997.170	801.825
105.060	25.071	995.962	800.181
106.074	24.949	994.767	798.605
107.089	24.952	993.960	797.899
108.103	25.152	993.968	798.727
109.118	25.339	993.258	798.920
110.133	24.955	992.055	796.174
111.147	24.936	990.955	795.135
112.162	24.795	989.724	793.453
113.176	24.738	988.732	792.336
114.191	24.935	987.853	792.432
115.206	24.876	987.004	791.419
116.220	24.627	986.171	789.584
117.235	24.590	984.831	788.275
118.249	24.608	984.879	788.324
119.264	24.604	983.995	787.529
120.279	24.576	982.747	786.336
121.293	24.605	982.449	786.158
122.308	24.525	981.984	785.363
123.322	24.698	980.635	784.976
124.337	24.619	979.965	784.020
125.352	24.526	978.352	782.254
126.366	24.112	976.927	779.235
127.381	23.825	975.419	776.710
128.395	24.248	975.522	778.571
129.410	24.979	975.050	781.315
130.424	25.117	974.646	781.524
131.439	25.094	973.539	780.469
132.454	25.057	972.612	779.493
133.468	25.151	971.355	778.825
134.483	25.062	970.942	778.039
135.497	25.151	970.014	777.611
136.512	25.442	969.471	778.371
137.527	25.360	968.814	777.420
138.541	25.404	967.662	776.615
139.556	25.305	967.100	775.668
140.570	25.372	966.351	775.287
141.585	25.341	965.947	774.763
142.600	25.319	964.782	773.666
143.614	25.435	963.785	773.293
144.629	25.442	963.004	772.629
145.643	25.700	962.636	773.377
146.658	25.646	961.423	772.098
147.673	25.490	960.324	770.480
148.687	25.399	958.960	768.928
149.702	25.293	958.258	767.844
150.716	24.969	957.697	765.942
151.731	25.072	956.703	765.518
152.746	25.251	955.948	765.612
153.760	25.455	955.438	766.006
154.775	25.480	954.742	765.485
155.789	25.598	953.715	765.097
156.804	25.605	952.865	764.375
157.819	25.478	951.868	762.968
158.833	25.468	951.206	762.327
159.848	25.705	950.231	762.486
160.862	25.626	949.658	761.624
161.877	25.540	948.583	760.330
162.892	25.409	948.031	759.265
163.906	25.513	947.112	758.901
164.921	25.443	946.187	757.797
165.935	25.435	944.703	756.507
166.950	25.616	943.902	756.564
167.964	25.571	943.161	755.713
168.979	25.628	941.859	754.841
169.994	25.426	940.707	753.005
171.008	25.311	940.025	751.910
172.023	25.504	939.306	752.078
173.037	25.556	939.003	751.983
174.052	25.461	937.182	750.065
175.067	25.237	936.888	748.829
176.081	25.235	935.686	747.794
177.096	25.224	935.033	747.160
178.110	25.340	934.096	746.826
179.125	25.144	933.111	745.157
180.140	24.843	932.032	742.979
181.154	24.874	931.443	742.576
182.169	24.991	931.307	742.884
183.183	25.262	930.885	743.607
184.198	25.578	930.737	744.733
185.213	25.571	929.629	743.749
186.227	25.515	928.988	742.938
187.242	25.619	928.547	742.952
188.256	25.670	927.550	742.298
189.271	25.638	926.925	741.599
190.286	25.595	926.687	741.168
191.300	25.430	925.366	739.365
192.315	24.915	924.234	736.278
193.329	24.101	922.449	731.451
194.344	23.810	921.645	729.552
195.359	24.414	921.884	732.156
196.373	25.369	921.764	735.911
197.388	25.565	921.619	736.532
198.402	25.407	921.188	735.476
199.417	25.270	920.971	734.677
200.432	25.399	920.191	734.520
201.446	25.498	918.780	733.730
202.461	25.168	918.190	731.848
203.475	25.127	918.194	731.621
204.490	24.682	916.334	728.263
205.504	23.531	914.335	721.928
206.519	24.001	914.262	723.719
207.534	24.915	915.091	728.026
208.548	25.007	914.333	727.733
209.563	25.325	914.212	728.863
210.577	25.492	912.968	728.484
211.592	25.171	912.188	726.497
212.607	25.483	912.574	728.005
213.621	25.730	912.032	728.508
214.636	25.465	911.065	726.599
215.650	25.760	910.476	727.257
216.665	25.586	910.351	726.390
217.680	25.595	909.803	725.924
218.694	25.692	909.219	725.784
219.709	25.377	908.093	723.555
220.723	24.836	907.581	720.902
221.738	25.215	907.015	721.917
222.753	25.349	906.534	722.009
223.767	25.340	905.695	721.240
224.782	25.431	904.844	720.864
225.796	25.582	904.561	721.178
226.811	25.750	904.006	721.348
227.826	25.342	902.583	718.516
228.840	24.621	901.126	714.410
229.855	24.456	900.515	713.202
230.869	24.827	899.860	714.104
231.884	24.388	899.164	711.735
232.899	24.463	898.756	711.648
233.913	25.153	898.986	714.519
234.928	25.467	898.233	715.105
235.942	25.310	897.633	713.943
236.957	25.444	896.795	713.745
237.972	25.002	896.194	711.446
238.986	24.890	895.436	710.338
240.001	25.079	895.162	710.809
241.015	25.025	894.556	710.049
242.030	25.321	893.284	710.149
243.045	25.384	893.075	710.169
244.059	25.416	892.593	709.850
245.074	25.625	892.143	710.252
246.088	25.547	891.783	709.595
247.103	25.123	890.765	707.052
248.117	25.198	890.135	706.786
249.132	25.792	890.026	708.975
250.147	26.060	889.933	709.892
251.161	26.275	889.081	709.994
252.176	26.315	889.393	710.337
253.190	26.332	888.483	709.615
254.205	26.337	887.896	709.102
255.220	26.568	887.892	709.942
256.234	26.595	886.832	709.140
257.249	26.246	886.532	707.469
258.263	26.145	885.825	706.445
259.278	26.340	884.596	706.167
260.293	26.324	884.636	706.074
261.307	26.471	883.966	706.049
262.322	26.239	883.501	704.711
263.336	26.262	882.281	703.765
264.351	25.684	880.704	700.199
265.366	24.439	879.259	694.145
266.380	24.165	878.490	692.416
267.395	25.119	878.608	696.153
268.409	25.957	878.710	699.423
269.424	25.805	878.213	698.378
270.439	26.052	877.599	698.784
271.453	26.243	877.250	699.185
272.468	26.206	876.452	698.341
273.482	26.216	876.153	698.081
274.497	26.505	875.963	698.984
275.512	26.141	875.090	696.820
276.526	25.657	873.434	693.576
277.541	25.846	873.442	694.248
278.555	26.129	872.967	694.900
279.570	25.956	872.353	693.686
280.585	25.821	871.253	692.228
281.599	25.991	871.213	692.789
282.614	26.146	870.290	692.587
283.628	25.594	869.463	689.754
284.643	25.275	868.374	687.608
285.657	25.660	868.710	689.287
286.672	25.650	867.840	688.497
287.687	25.075	866.804	685.415
288.701	25.408	866.789	686.618
289.716	25.657	866.599	687.356
290.730	25.373	865.777	685.559
291.745	25.315	865.164	684.792
292.760	25.190	863.869	683.230
293.774	25.096	863.508	682.528
294.789	25.935	864.113	686.140
295.803	26.688	863.672	688.591
296.818	26.619	863.576	688.194
297.833	26.819	863.246	688.627
298.847	26.482	861.902	686.218
299.862	26.205	860.725	684.170
300.876	26.419	860.246	684.540
301.891	26.458	860.366	684.720
302.906	26.699	859.816	685.134
303.920	26.317	858.271	682.399
304.935	26.130	857.871	681.317
305.949	26.634	857.486	682.851
306.964	26.575	857.327	682.442
307.979	26.445	856.147	680.953
308.993	26.422	855.806	680.533
310.008	26.709	855.799	681.550
311.022	26.810	855.306	681.475
312.037	26.628	854.523	680.107
313.052	26.367	854.457	679.017
314.066	26.340	853.281	677.920
315.081	25.715	851.718	674.276
316.095	24.811	850.499	669.868
317.110	25.449	850.669	672.333
318.125	26.307	851.085	675.813
319.139	25.970	849.597	673.311
320.154	24.714	847.827	667.165
321.168	24.276	847.221	664.998
322.183	24.835	847.465	667.215
323.197	25.832	848.135	671.402
324.212	26.156	847.790	672.274
325.227	26.183	847.506	672.091
326.241	26.515	846.968	672.839
327.256	26.266	846.260	671.292
328.270	26.260	845.459	670.577
329.285	26.257	844.883	670.049
330.300	26.237	843.646	668.935
331.314	25.805	843.196	666.918
332.329	25.808	842.943	666.670
333.343	26.335	842.600	668.291
334.358	26.570	842.216	668.796
335.373	26.668	841.721	668.703
336.387	26.478	841.182	667.515
337.402	26.805	840.810	668.368
338.416	26.918	840.752	668.680
339.431	26.969	840.164	668.340
340.446	26.949	839.569	667.734
341.460	27.220	838.987	668.205
342.475	27.256	838.190	667.647
343.489	26.966	837.311	665.823
344.504	26.924	837.117	665.457
345.519	27.205	836.978	666.317
346.533	27.414	836.276	666.463
347.548	27.515	835.638	666.264
348.562	27.360	835.625	665.631
349.577	27.393	834.860	665.081
350.592	27.321	834.078	664.136
351.606	27.227	834.122	663.770
352.621	27.297	833.448	663.431
353.635	27.112	832.800	662.182
354.650	27.059	832.207	661.457
355.665	26.788	831.270	659.670
356.679	25.829	829.315	654.575
357.694	25.657	829.280	653.865
358.708	26.371	829.144	656.294
359.723	26.333	828.438	655.540
360.738	26.439	828.591	655.985
361.752	26.960	828.298	657.587
362.767	27.099	827.654	657.519
363.781	27.427	827.655	658.646
364.796	27.645	827.585	659.321
365.810	27.796	826.899	659.263
366.825	27.659	826.919	658.726
367.840	27.728	826.923	658.918
368.854	27.515	825.868	657.254
369.869	27.345	824.371	655.391
370.883	27.096	824.159	654.267
371.898	27.183	823.305	653.846
372.913	27.009	822.856	652.805
373.927	26.988	822.387	652.300
374.942	27.150	821.994	652.512
375.956	27.206	821.567	652.317
376.971	27.279	821.035	652.098
377.986	27.442	820.437	652.150
379.000	27.596	820.079	652.356
380.015	27.750	819.365	652.282
381.029	27.513	818.918	651.023
382.044	27.498	817.897	650.099
383.059	27.654	817.407	650.209
384.073	27.677	817.021	649.924
385.088	27.720	816.649	649.725
386.102	27.648	816.119	648.991
387.117	27.623	815.635	648.459
388.132	27.214	814.888	646.355
389.146	27.119	814.339	645.525
390.161	26.722	812.884	642.906
391.175	26.769	812.662	642.841
392.190	27.312	812.761	644.785
393.205	27.388	812.363	644.684
394.219	26.242	810.556	639.140
395.234	24.627	808.747	631.950
396.248	23.889	807.655	628.433
397.263	24.929	808.613	632.800
398.278	26.703	810.041	640.135
399.292	27.156	809.724	641.429
400.307	26.918	809.004	639.960
401.321	26.898	808.374	639.336
402.336	27.009	808.175	639.512
403.350	27.212	807.900	639.954
404.365	27.769	807.850	641.818
405.380	28.090	807.527	642.634
406.394	28.339	807.364	643.321
407.409	28.538	806.997	643.669
408.423	28.294	806.581	642.425
409.438	28.202	806.065	641.635
410.453	28.297	805.665	641.590
411.467	28.384	804.978	641.293
412.482	28.273	804.422	640.406
413.496	28.407	803.849	640.360
414.511	28.413	803.881	640.350
415.526	28.350	803.619	639.863
416.540	28.417	802.929	639.494
417.555	28.320	802.539	638.785
418.569	27.939	801.898	636.893
419.584	27.951	801.078	636.227
420.599	27.976	800.942	636.148
421.613	110.791	1285.273	1456.405
422.628	95.587	1355.839	1456.504
