DTS Sentinel unit serial number:	SN413079Multiplexer serial number:	ORYXHardware model number:	OX4-SRSoftware version number:	ORYX F/W v4.00 Oryx Data Collector v3.7.2.0data status	okinstallation	princeton_trtdifferential loss correction	single-endedforward channel	channel 3reverse channel	N/Adate	2019/09/12time	17:02:11forward acquisition time	60.00reverse acquisition time	0.00gamma	496.2192k internal	0.2312k external	0.2312temperature offset calibration	1.0088default loss term (dB/km)	0.3790temperature slope calibration	1.0000multiplexer offset coefficient	1.0000multiplexer slope coefficient	1.0000fibre end	0.00T internal ref (°C)	35.66T ext. ref 1 (°C)	2.83T ext. ref 2 (°C)	28.87length (m)	temperature (°C)	Stokes	anti-Stokes-747.200	-20.335	-0.073	-0.045
-746.185	110.986	-0.171	0.209
-745.171	-200.000	0.006	-0.065
-744.156	-200.000	0.061	0.482
-743.142	-13.122	-0.390	0.257
-742.127	554.529	0.028	0.068
-741.112	800.000	0.021	0.068
-740.098	-200.000	-0.032	0.398
-739.083	253.024	0.098	0.170
-738.069	800.000	-0.082	0.295
-737.054	163.175	0.119	-0.170
-736.039	-126.174	0.237	-0.036
-735.025	431.920	0.074	0.162
-734.010	-39.908	-0.121	-0.064
-732.996	-20.744	-0.029	-0.018
-731.981	64.777	0.127	0.130
-730.966	800.000	0.057	0.241
-729.952	-48.374	-0.352	-0.172
-728.937	-156.204	-0.354	-0.023
-727.923	33.715	0.087	-0.077
-726.908	-62.219	-0.241	-0.102
-725.894	-53.241	0.173	-0.080
-724.879	800.000	0.029	-0.089
-723.864	-95.258	0.152	-0.041
-722.850	31.342	-0.253	-0.220
-721.835	-156.839	-0.009	-0.001
-720.821	-124.449	-0.054	-0.008
-719.806	217.914	-0.060	-0.098
-718.791	-165.139	-0.277	0.012
-717.777	-200.000	-0.039	-0.353
-716.762	3.307	-0.340	-0.251
-715.748	-200.000	0.010	0.182
-714.733	-200.000	-0.053	0.235
-713.718	-41.958	-0.379	-0.197
-712.704	751.135	0.130	-0.355
-711.689	-61.284	0.278	-0.119
-710.675	-50.281	-0.166	0.079
-709.660	-78.018	-0.387	0.135
-708.645	-72.874	-0.048	-0.018
-707.631	-37.036	0.139	0.076
-706.616	18.050	-0.208	-0.168
-705.602	-59.952	0.123	-0.053
-704.587	800.000	-0.019	-0.056
-703.572	-200.000	0.119	-0.546
-702.558	-200.000	0.018	-0.185
-701.543	20.629	-0.187	-0.153
-700.529	-68.622	0.367	0.144
-699.514	-59.687	-0.410	-0.178
-698.499	103.970	0.069	0.082
-697.485	239.775	0.173	0.292
-696.470	-146.211	-0.152	-0.014
-695.456	33.035	0.209	0.183
-694.441	390.602	-0.004	0.008
-693.426	404.020	-0.108	0.230
-692.412	-7.589	0.415	-0.284
-691.397	-92.974	0.241	0.068
-690.383	666.353	-0.019	-0.050
-689.368	150.322	-0.114	-0.157
-688.354	-151.970	-0.453	0.033
-687.339	47.968	0.087	-0.082
-686.324	800.000	0.081	0.308
-685.310	-134.153	0.119	0.015
-684.295	-200.000	0.233	0.000
-683.281	800.000	-0.075	-0.253
-682.266	492.333	-0.131	0.303
-681.251	-200.000	-0.018	0.303
-680.237	139.106	0.166	0.221
-679.222	-87.094	-0.290	-0.089
-678.208	1.095	-0.255	0.185
-677.193	20.291	0.084	-0.069
-676.178	-109.783	0.323	0.069
-675.164	-200.000	0.050	-0.230
-674.149	800.000	-0.055	-0.206
-673.135	-105.722	0.237	0.054
-672.120	-183.433	0.027	-0.000
-671.105	576.236	0.073	-0.181
-670.091	665.147	-0.144	0.376
-669.076	77.723	0.109	-0.118
-668.062	77.498	-0.129	-0.139
-667.047	31.557	-0.110	-0.095
-666.032	225.970	-0.168	-0.275
-665.018	-200.000	-0.003	0.162
-664.003	800.000	-0.028	-0.096
-662.989	-52.341	0.102	0.048
-661.974	-48.236	0.126	0.062
-660.959	8.347	-0.223	-0.170
-659.945	-34.076	-0.211	-0.118
-658.930	18.983	-0.180	-0.146
-657.916	385.740	0.144	-0.300
-656.901	-116.227	0.268	-0.050
-655.886	92.557	-0.074	-0.084
-654.872	57.947	-0.033	-0.033
-653.857	-57.976	-0.240	0.106
-652.843	-69.169	0.278	0.108
-651.828	-200.000	0.032	-0.173
-650.814	800.000	-0.093	0.267
-649.799	87.956	0.130	0.145
-648.784	-135.154	-0.309	-0.038
-647.770	-28.903	0.253	0.147
-646.755	-126.175	0.185	-0.028
-645.741	254.682	0.115	0.199
-644.726	-18.973	-0.175	-0.110
-643.711	-58.179	0.251	-0.111
-642.697	-200.000	-0.027	-0.263
-641.682	-200.000	-0.016	-0.161
-640.668	249.083	-0.072	-0.123
-639.653	-55.146	0.243	-0.111
-638.638	-133.254	0.104	0.013
-637.624	800.000	0.088	-0.314
-636.609	12.468	0.149	0.116
-635.595	25.934	-0.207	-0.175
-634.580	-13.880	0.129	-0.084
-633.565	1.641	0.153	-0.111
-632.551	800.000	0.128	0.463
-631.536	-140.573	-0.313	-0.033
-630.522	800.000	-0.022	-0.083
-629.507	-109.933	-0.197	0.042
-628.492	800.000	-0.016	0.055
-627.478	-96.739	0.141	-0.037
-626.463	28.286	0.132	0.113
-625.449	-117.964	-0.031	-0.006
-624.434	-11.897	-0.056	0.037
-623.419	21.488	-0.311	-0.256
-622.405	-146.206	-0.186	0.017
-621.390	-122.895	0.121	-0.020
-620.376	-47.308	-0.490	-0.241
-619.361	-161.396	-0.096	0.005
-618.346	-42.694	-0.374	0.192
-617.332	180.120	-0.069	-0.102
-616.317	212.252	-0.087	-0.138
-615.303	27.048	0.186	0.157
-614.288	-200.000	0.011	0.261
-613.273	-76.497	-0.284	-0.101
-612.259	-44.129	-0.114	-0.058
-611.244	-29.503	-0.051	-0.030
-610.230	143.364	-0.276	-0.371
-609.215	52.032	-0.128	-0.123
-608.201	800.000	-0.062	-0.210
-607.186	302.261	0.076	-0.141
-606.171	203.508	-0.074	-0.116
-605.157	-65.478	-0.387	-0.157
-604.142	484.188	0.074	0.171
-603.128	190.152	0.133	-0.202
-602.113	-51.754	-0.331	0.156
-601.098	35.894	-0.258	-0.229
-600.084	540.871	0.158	-0.380
-599.069	16.475	0.314	0.251
-598.055	68.913	-0.193	0.200
-597.040	434.762	0.188	0.413
-596.025	-184.709	-0.131	0.002
-595.011	26.087	0.095	-0.080
-593.996	-200.000	0.001	-0.047
-592.982	34.827	0.120	0.106
-591.967	414.215	0.117	0.250
-590.952	53.115	0.069	-0.066
-589.938	-110.168	-0.169	0.036
-588.923	-160.531	0.207	-0.011
-587.909	9.110	0.195	0.149
-586.894	-158.758	-0.121	-0.007
-585.879	-110.040	0.174	-0.037
-584.865	800.000	0.039	-0.155
-583.850	-200.000	-0.039	-0.439
-582.836	-49.526	-0.157	0.075
-581.821	-190.972	-0.291	-0.003
-580.806	159.177	0.246	-0.345
-579.792	800.000	-0.034	0.142
-578.777	672.694	0.055	0.144
-577.763	-128.315	-0.199	0.029
-576.748	86.067	0.189	-0.210
-575.733	13.349	0.145	0.113
-574.719	26.200	-0.338	-0.284
-573.704	-151.282	-0.068	0.005
-572.690	693.289	-0.115	-0.305
-571.675	-200.000	0.022	-0.168
-570.661	10.578	0.359	-0.276
-569.646	40.313	-0.254	-0.230
-568.631	697.179	0.111	-0.293
-567.617	-38.396	0.105	0.056
-566.602	-163.777	0.056	0.003
-565.588	-200.000	0.023	-0.125
-564.573	644.974	-0.094	0.241
-563.558	71.652	0.162	-0.170
-562.544	-200.000	-0.083	-0.393
-561.529	-200.000	-0.056	-0.341
-560.515	321.290	0.105	-0.202
-559.500	0.042	-0.257	-0.184
-558.485	45.987	-0.088	-0.082
-557.471	97.225	-0.135	0.156
-556.456	-69.438	-0.244	0.094
-555.442	-104.839	0.198	0.046
-554.427	73.612	0.110	0.116
-553.412	-200.000	0.044	-0.271
-552.398	-88.094	-0.133	-0.040
-551.383	-200.000	0.018	0.415
-550.369	-22.192	-0.139	-0.085
-549.354	-43.324	-0.429	-0.219
-548.339	201.678	-0.202	0.313
-547.325	25.694	-0.068	0.057
-546.310	295.888	0.025	-0.047
-545.296	800.000	0.019	-0.059
-544.281	10.735	0.145	0.111
-543.266	11.635	0.056	-0.044
-542.252	566.270	0.127	0.311
-541.237	-168.119	-0.047	0.002
-540.223	800.000	-0.056	0.199
-539.208	-63.579	0.138	-0.057
-538.193	-46.276	-0.173	0.086
-537.179	-75.082	0.370	0.133
-536.164	-22.324	-0.239	0.146
-535.150	-162.909	0.074	0.004
-534.135	800.000	-0.058	-0.251
-533.121	131.200	0.074	-0.095
-532.106	-6.027	-0.327	0.225
-531.091	4.109	-0.365	-0.269
-530.077	-0.060	-0.314	-0.225
-529.062	-98.569	0.322	0.083
-528.048	-84.025	-0.108	0.035
-527.033	13.579	-0.085	0.066
-526.018	-110.412	-0.055	-0.012
-525.004	180.547	0.169	0.250
-523.989	-95.255	0.373	-0.101
-522.975	-200.000	-0.010	0.073
-521.960	197.185	-0.119	-0.183
-520.945	-137.699	-0.171	0.019
-519.931	-17.599	-0.046	0.029
-518.916	57.226	-0.373	-0.366
-517.902	377.921	-0.010	0.020
-516.887	-80.285	0.128	-0.043
-515.872	-30.460	-0.173	-0.099
-514.858	800.000	0.005	-0.014
-513.843	-12.570	0.050	0.033
-512.829	-2.488	0.173	0.122
-511.814	-200.000	0.004	0.297
-510.799	136.199	0.139	0.183
-509.785	104.409	0.034	0.040
-508.770	416.071	-0.132	0.282
-507.756	-65.379	0.338	0.137
-506.741	684.892	0.032	-0.084
-505.726	109.639	-0.067	0.081
-504.712	-93.104	-0.262	0.073
-503.697	439.846	0.085	0.186
-502.683	-200.000	-0.019	-0.306
-501.668	-200.000	0.054	0.255
-500.653	-28.012	-0.478	-0.278
-499.639	-200.000	0.016	-0.166
-498.624	-41.183	0.192	-0.099
-497.610	95.946	-0.096	0.110
-496.595	-23.243	0.097	0.058
-495.581	75.026	-0.125	0.132
-494.566	-200.000	-0.042	0.273
-493.551	800.000	-0.082	0.275
-492.537	-48.935	-0.282	0.136
-491.522	76.797	0.018	0.019
-490.508	800.000	-0.042	-0.180
-489.493	800.000	-0.049	-0.136
-488.478	277.566	-0.086	0.153
-487.464	-75.222	0.112	-0.040
-486.449	166.201	-0.109	-0.155
-485.435	89.777	0.150	0.168
-484.420	-40.802	-0.065	0.034
-483.405	-33.772	0.189	-0.105
-482.391	258.101	0.139	-0.241
-481.376	-200.000	-0.044	0.390
-480.362	31.240	-0.223	0.193
-479.347	17.443	0.195	0.155
-478.332	800.000	0.132	0.380
-477.318	668.541	-0.070	0.181
-476.303	-34.602	0.190	-0.104
-475.289	800.000	0.087	0.250
-474.274	58.879	-0.130	-0.129
-473.259	-159.648	-0.203	-0.011
-472.245	0.815	-0.342	0.246
-471.230	-200.000	0.041	-0.283
-470.216	-200.000	0.024	0.260
-469.201	277.218	-0.044	-0.078
-468.186	-60.377	0.329	-0.141
-467.172	621.269	0.026	0.066
-466.157	-152.310	0.226	0.016
-465.143	624.328	0.173	0.437
-464.128	80.129	-0.052	-0.056
-463.113	-84.547	0.257	0.081
-462.099	-200.000	-0.068	0.352
-461.084	-13.225	0.038	0.025
-460.070	-86.722	0.130	-0.040
-459.055	53.553	-0.137	0.132
-458.040	155.474	-0.168	0.232
-457.026	50.951	-0.082	-0.078
-456.011	-98.003	-0.105	0.027
-454.997	-137.263	0.137	-0.016
-453.982	800.000	-0.063	0.272
-452.968	-25.722	-0.253	-0.150
-451.953	-87.270	-0.187	-0.057
-450.938	-70.289	0.151	0.058
-449.924	191.805	-0.140	-0.211
-448.909	-119.804	0.567	-0.098
-447.895	-121.754	0.146	-0.024
-446.880	-190.991	0.224	0.002
-445.865	800.000	0.061	-0.206
-444.851	-200.000	0.005	-0.086
-443.836	-69.646	-0.300	0.115
-442.822	-17.734	0.081	0.051
-441.807	-9.745	0.175	-0.117
-440.792	-200.000	-0.012	0.240
-439.778	109.792	-0.072	0.087
-438.763	151.503	-0.171	0.233
-437.749	800.000	0.038	-0.147
-436.734	125.283	0.146	0.185
-435.719	610.179	-0.098	-0.245
-434.705	175.414	-0.096	0.140
-433.690	-83.210	-0.115	-0.037
-432.676	318.954	0.104	0.198
-431.661	-15.736	0.368	0.235
-430.646	250.501	0.117	-0.199
-429.632	-147.084	0.116	0.010
-428.617	-196.614	0.195	0.001
-427.603	-60.011	0.084	-0.036
-426.588	788.111	0.035	-0.096
-425.573	-86.016	0.284	0.088
-424.559	-200.000	-0.027	-0.118
-423.544	91.123	0.043	-0.049
-422.530	-51.533	0.057	-0.027
-421.515	231.251	0.219	0.359
-420.500	10.566	0.216	0.165
-419.486	364.015	-0.126	-0.253
-418.471	397.759	-0.057	0.119
-417.457	800.000	-0.041	0.162
-416.442	-23.530	0.261	0.157
-415.428	-111.061	0.184	0.038
-414.413	-91.314	-0.189	-0.054
-413.398	800.000	-0.116	-0.434
-412.384	21.479	-0.149	0.121
-411.369	108.389	-0.280	0.335
-410.355	265.432	-0.129	-0.226
-409.340	-44.703	0.218	-0.109
-408.325	-94.933	0.189	0.051
-407.311	430.318	-0.135	0.292
-406.296	-14.813	0.161	-0.103
-405.282	17.964	0.136	0.108
-404.267	-81.704	0.212	0.070
-403.252	-77.854	0.285	-0.099
-402.238	-106.784	-0.065	0.015
-401.223	-200.000	-0.020	-0.086
-400.209	-70.935	0.049	-0.019
-399.194	-126.495	0.121	0.018
-398.179	81.867	0.160	0.173
-397.165	506.432	-0.099	-0.230
-396.150	20.681	0.208	-0.168
-395.136	55.413	0.364	-0.352
-394.121	3.813	0.171	-0.125
-393.106	267.227	-0.008	0.014
-392.092	-36.137	0.056	0.030
-391.077	259.024	0.012	0.021
-390.063	-166.413	0.107	-0.004
-389.048	289.448	-0.028	0.052
-388.033	102.244	-0.142	0.166
-387.019	800.000	0.055	0.240
-386.004	-200.000	-0.010	0.069
-384.990	-118.620	-0.240	0.042
-383.975	-200.000	0.064	-0.341
-382.960	129.279	0.078	-0.099
-381.946	42.019	0.139	0.126
-380.931	-97.623	0.119	-0.031
-379.917	31.744	0.225	0.194
-378.902	-27.197	-0.291	0.170
-377.888	-200.000	0.031	-0.411
-376.873	147.322	0.127	0.171
-375.858	218.543	0.043	0.069
-374.844	-44.297	0.254	0.127
-373.829	-91.927	-0.305	0.087
-372.815	800.000	-0.044	-0.156
-371.800	24.562	-0.142	-0.117
-370.785	-74.547	-0.244	-0.088
-369.771	-149.823	0.190	-0.015
-368.756	-63.614	-0.144	-0.059
-367.742	57.139	0.103	0.101
-366.727	475.454	0.229	0.516
-365.712	67.785	-0.181	-0.185
-364.698	222.076	0.133	0.213
-363.683	-106.521	-0.224	-0.050
-362.669	-112.538	-0.133	-0.026
-361.654	-71.101	0.179	0.067
-360.639	-87.121	-0.088	0.027
-359.625	6.601	-0.440	0.327
-358.610	-56.096	-0.222	-0.099
-357.596	800.000	0.046	-0.159
-356.581	112.047	-0.106	-0.128
-355.566	504.787	0.225	-0.520
-354.552	-97.276	0.563	0.147
-353.537	-200.000	0.088	0.388
-352.523	-52.132	-0.341	-0.158
-351.508	292.003	-0.024	-0.043
-350.493	390.685	0.107	0.221
-349.479	179.325	-0.137	0.201
-348.464	425.047	0.065	-0.140
-347.450	196.661	-0.111	-0.169
-346.435	-200.000	0.033	0.260
-345.420	-46.624	-0.306	0.150
-344.406	800.000	0.100	-0.307
-343.391	-125.193	0.157	-0.024
-342.377	165.760	0.031	0.043
-341.362	800.000	0.060	0.203
-340.348	-200.000	-0.038	-0.423
-339.333	-40.140	0.387	-0.202
-338.318	638.912	0.097	0.248
-337.304	27.351	-0.236	0.198
-336.289	109.604	0.021	0.025
-335.275	800.000	-0.034	-0.109
-334.260	-132.668	-0.237	0.030
-333.245	370.737	-0.096	-0.193
-332.231	-19.725	-0.152	0.094
-331.216	-200.000	0.029	0.299
-330.202	176.749	0.083	0.121
-329.187	190.242	0.062	-0.094
-328.172	-200.000	0.043	-0.246
-327.158	-16.355	0.150	0.095
-326.143	69.557	-0.322	0.331
-325.129	35.400	-0.184	0.162
-324.114	-167.137	-0.257	0.010
-323.099	-73.284	-0.214	-0.078
-322.085	-192.863	0.202	0.002
-321.070	-114.799	0.166	-0.032
-320.056	-200.000	-0.083	0.490
-319.041	23.642	-0.088	-0.072
-318.026	-200.000	0.016	0.121
-317.012	-105.979	0.134	0.030
-315.997	505.815	-0.186	0.429
-314.983	-47.116	-0.520	0.253
-313.968	-13.553	0.227	-0.147
-312.953	128.230	-0.180	-0.228
-311.939	165.575	0.117	-0.166
-310.924	-200.000	-0.004	-0.098
-309.910	-200.000	0.056	-0.318
-308.895	800.000	-0.013	0.037
-307.880	-41.564	0.335	0.172
-306.866	-200.000	0.031	-0.184
-305.851	-36.141	0.300	0.162
-304.837	-66.965	-0.371	0.146
-303.822	-30.604	-0.203	0.115
-302.807	800.000	-0.053	0.215
-301.793	-200.000	0.029	-0.167
-300.778	-122.769	-0.096	0.016
-299.764	646.441	-0.064	0.163
-298.749	-200.000	-0.016	-0.605
-297.735	153.941	0.120	-0.164
-296.720	-74.899	0.172	-0.062
-295.705	-200.000	0.040	0.268
-294.691	0.010	0.143	-0.102
-293.676	36.158	-0.111	-0.098
-292.662	511.408	-0.111	0.257
-291.647	-8.340	0.286	0.192
-290.632	232.571	0.056	-0.092
-289.618	41.271	0.108	-0.097
-288.603	71.550	-0.113	-0.117
-287.589	-31.907	0.206	-0.115
-286.574	-126.391	-0.131	-0.019
-285.559	800.000	-0.021	-0.089
-284.545	-200.000	0.055	0.272
-283.530	-200.000	0.016	0.345
-282.516	-200.000	0.041	0.219
-281.501	34.334	0.068	-0.059
-280.486	-50.027	-0.101	-0.048
-279.472	33.474	0.260	0.225
-278.457	10.743	0.174	-0.133
-277.443	-200.000	-0.005	-0.088
-276.428	215.850	-0.075	-0.119
-275.413	-50.252	0.196	-0.092
-274.399	-21.374	0.157	-0.096
-273.384	-200.000	-0.022	-0.125
-272.370	65.364	0.229	-0.231
-271.355	379.317	0.051	0.105
-270.340	800.000	-0.095	-0.296
-269.326	18.187	-0.034	0.027
-268.311	-93.216	0.105	-0.029
-267.297	-53.668	-0.229	-0.104
-266.282	-97.163	0.142	0.037
-265.267	-156.577	0.334	0.021
-264.253	-24.526	-0.228	0.135
-263.238	8.926	-0.146	0.110
-262.224	460.036	0.084	0.187
-261.209	-38.826	-0.307	-0.161
-260.195	50.301	0.116	0.109
-259.180	2.102	0.220	0.158
-258.165	-200.000	0.010	-0.060
-257.151	-14.019	0.256	-0.165
-256.136	-33.356	-0.296	-0.163
-255.122	-114.521	-0.134	0.026
-254.107	103.918	0.273	-0.320
-253.092	26.468	0.309	-0.257
-252.078	106.695	-0.234	0.276
-251.063	74.439	0.245	-0.256
-250.049	-143.738	-0.088	0.008
-249.034	-131.677	0.179	-0.023
-248.019	800.000	-0.073	0.247
-247.005	-115.012	0.160	0.030
-245.990	31.723	-0.196	0.168
-244.976	33.168	0.052	0.045
-243.961	-24.289	-0.215	-0.128
-242.946	-200.000	0.015	-0.113
-241.932	-37.690	0.246	-0.130
-240.917	675.118	-0.112	-0.288
-239.903	-68.666	-0.042	-0.016
-238.888	-200.000	-0.011	-0.156
-237.873	-127.688	-0.362	-0.052
-236.859	572.705	-0.053	0.128
-235.844	-97.339	0.476	0.124
-234.830	-119.571	-0.199	0.034
-233.815	-200.000	0.017	-0.292
-232.800	27.502	0.206	0.172
-231.786	-12.295	-0.088	0.057
-230.771	-200.000	-0.044	-0.230
-229.757	-200.000	-0.004	0.409
-228.742	-49.619	0.442	0.209
-227.727	74.734	-0.092	-0.097
-226.713	41.383	-0.237	-0.213
-225.698	88.543	-0.127	0.140
-224.684	-94.707	-0.177	-0.048
-223.669	112.289	0.169	0.203
-222.655	800.000	-0.047	0.143
-221.640	333.902	0.092	0.176
-220.625	-164.680	-0.358	0.016
-219.611	104.659	0.228	-0.267
-218.596	-89.950	0.177	0.051
-217.582	158.683	-0.101	-0.139
-216.567	146.104	-0.278	0.371
-215.552	5.789	0.086	-0.063
-214.538	-156.580	0.134	-0.008
-213.523	-166.761	-0.181	-0.007
-212.509	422.116	-0.013	0.027
-211.494	722.323	-0.073	-0.194
-210.479	-179.770	-0.189	0.004
-209.465	-16.828	-0.148	-0.093
-208.450	-200.000	-0.031	0.152
-207.436	-200.000	0.034	-0.399
-206.421	800.000	-0.120	-0.462
-205.406	-51.477	0.305	0.142
-204.392	-57.435	-0.136	-0.059
-203.377	30.250	0.131	-0.111
-202.363	-200.000	-0.023	0.109
-201.348	74.554	0.133	-0.139
-200.333	-200.000	-0.007	-0.233
-199.319	-154.457	-0.292	-0.019
-198.304	525.513	0.038	-0.090
-197.290	0.080	-0.102	-0.072
-196.275	18.824	0.318	0.253
-195.260	276.754	0.118	0.208
-194.246	585.931	-0.142	-0.348
-193.231	479.228	0.114	-0.256
-192.217	478.473	0.050	-0.113
-191.202	339.343	0.081	0.156
-190.187	-140.492	-0.116	-0.012
-189.173	143.398	-0.043	-0.057
-188.158	-53.052	0.269	0.123
-187.144	-15.703	-0.150	0.095
-186.129	-200.000	-0.012	-0.072
-185.114	-131.284	-0.243	0.032
-184.100	187.343	-0.118	-0.175
-183.085	-69.507	-0.199	0.076
-182.071	-4.124	0.102	-0.070
-181.056	-127.459	-0.075	-0.011
-180.042	800.000	-0.067	-0.223
-179.027	31.808	-0.156	-0.133
-178.012	-200.000	0.004	0.081
-176.998	39.426	-0.042	0.037
-175.983	-121.012	-0.193	-0.032
-174.969	-200.000	-0.004	0.196
-173.954	498.375	0.072	-0.164
-172.939	-200.000	0.026	0.157
-171.925	89.137	-0.185	0.205
-170.910	-178.406	0.097	-0.002
-169.896	-165.105	0.285	-0.013
-168.881	83.634	0.109	-0.118
-167.866	800.000	0.042	-0.143
-166.852	549.850	-0.077	-0.182
-165.837	800.000	-0.094	0.361
-164.823	-142.027	-0.181	0.018
-163.808	-200.000	0.025	0.212
-162.793	491.454	-0.051	-0.117
-161.779	800.000	0.026	-0.086
-160.764	639.690	-0.122	0.307
-159.750	-55.445	0.167	0.074
-158.735	-98.055	0.145	0.037
-157.720	-61.976	0.139	0.058
-156.706	287.681	-0.097	0.175
-155.691	-1.533	0.253	-0.177
-154.677	-15.172	-0.060	-0.038
-153.662	-131.856	0.116	-0.015
-152.647	376.479	-0.089	0.181
-151.633	-150.061	0.147	-0.011
-150.618	-104.116	0.201	0.046
-149.604	-58.974	0.138	-0.059
-148.589	189.022	-0.077	-0.115
-147.574	800.000	0.062	-0.266
-146.560	-67.282	-0.131	0.051
-145.545	-200.000	-0.042	0.402
-144.531	-113.433	0.251	0.049
-143.516	-23.533	0.200	0.119
-142.502	-119.447	-0.319	-0.055
-141.487	-47.721	0.310	-0.149
-140.472	315.556	-0.071	0.133
-139.458	93.959	-0.191	-0.215
-138.443	-94.901	0.276	-0.074
-137.429	-62.335	0.178	0.073
-136.414	1.068	0.286	0.204
-135.399	800.000	-0.057	0.200
-134.385	-34.969	-0.192	-0.104
-133.370	132.502	0.118	-0.150
-132.356	-196.620	-0.175	0.001
-131.341	417.333	0.084	-0.177
-130.326	264.148	-0.057	-0.098
-129.312	800.000	0.035	0.148
-128.297	-84.113	0.195	0.061
-127.283	-200.000	0.058	0.446
-126.268	531.384	0.064	0.150
-125.253	-200.000	-0.004	0.029
-124.239	-118.677	0.187	-0.033
-123.224	-39.636	-0.297	-0.154
-122.210	304.667	0.167	0.306
-121.195	-10.735	0.243	-0.159
-120.180	-135.141	0.234	0.028
-119.166	-33.609	-0.347	0.190
-118.151	-112.633	0.208	0.041
-117.137	800.000	0.026	-0.110
-116.122	800.000	0.124	0.454
-115.107	-183.855	0.109	0.002
-114.093	-76.895	0.149	0.051
-113.078	-76.467	0.349	-0.121
-112.064	-53.082	-0.201	-0.091
-111.049	168.970	0.202	0.286
-110.034	433.959	0.176	0.379
-109.020	113.218	-0.104	-0.125
-108.005	59.469	0.313	0.305
-106.991	-111.652	-0.447	-0.090
-105.976	-200.000	0.093	0.637
-104.962	800.000	0.062	-0.191
-103.947	254.163	0.184	0.312
-102.932	-200.000	-0.089	0.387
-101.918	-147.844	0.255	-0.021
-100.903	170.564	0.036	0.050
-99.889	789.437	-0.125	0.340
-98.874	160.279	0.161	-0.223
-97.859	175.656	-0.156	0.224
-96.845	-200.000	0.018	-0.153
-95.830	-200.000	-0.023	0.343
-94.816	-89.558	-0.219	-0.064
-93.801	-122.483	-0.234	0.038
-92.786	-67.714	0.135	-0.052
-91.772	-54.342	-0.072	0.032
-90.757	-57.071	-0.328	-0.143
-89.743	-200.000	0.004	-0.246
-88.728	189.821	-0.076	-0.112
-87.713	-15.344	-0.176	0.111
-86.699	-33.964	0.356	-0.194
-85.684	800.000	-0.066	-0.193
-84.670	375.152	0.057	0.115
-83.655	77.055	0.217	-0.228
-82.640	-74.424	-0.315	-0.112
-81.626	139.185	-0.038	-0.049
-80.611	12.811	-0.290	0.222
-79.597	179.346	-0.167	-0.241
-78.582	-135.415	-0.098	-0.012
-77.567	-200.000	0.083	0.462
-76.553	118.174	-0.189	-0.230
-75.538	99.263	-0.108	-0.123
-74.524	-200.000	-0.005	-0.336
-73.509	800.000	0.036	0.107
-72.494	-150.207	0.433	-0.033
-71.480	-31.306	-0.176	-0.098
-70.465	637.580	0.100	0.252
-69.451	-200.000	-0.002	-0.022
-68.436	800.000	-0.045	-0.142
-67.422	-183.982	-0.267	0.004
-66.407	9.241	0.014	0.010
-65.392	-148.191	-0.258	0.021
-64.378	29.425	0.083	-0.070
-63.363	-200.000	0.022	0.441
-62.349	-69.807	-0.308	0.116
-61.334	172.390	-0.699	-0.993
-60.319	57.924	0.519	0.502
-59.305	-200.000	0.070	-0.988
-58.290	21.196	0.960	0.770
-57.276	406.487	0.680	1.418
-56.261	-200.000	95.304	577.390
-55.246	565.337	1371.327	3284.628
-54.232	154.153	2572.931	3486.864
-53.217	115.592	2179.385	2632.059
-52.203	46.070	1719.384	1572.477
-51.188	38.813	1530.170	1349.675
-50.173	36.234	1503.486	1308.614
-49.159	55.635	1553.378	1486.194
-48.144	59.401	1572.484	1530.351
-47.130	39.136	1527.945	1349.714
-46.115	35.825	1512.312	1313.298
-45.100	35.679	1509.491	1309.801
-44.086	35.763	1507.028	1308.183
-43.071	35.758	1504.708	1306.084
-42.057	35.619	1503.567	1304.102
-41.042	35.579	1502.111	1302.514
-40.027	35.545	1501.101	1301.355
-39.013	35.649	1499.316	1300.457
-37.998	35.628	1497.613	1298.790
-36.984	35.598	1497.298	1298.266
-35.969	35.578	1496.012	1296.961
-34.954	35.591	1494.518	1295.704
-33.940	35.528	1493.252	1294.129
-32.925	35.662	1491.492	1293.452
-31.911	35.690	1489.781	1292.108
-30.896	35.635	1489.141	1291.134
-29.881	35.703	1487.526	1290.138
-28.867	35.689	1486.079	1288.739
-27.852	35.706	1484.850	1287.733
-26.838	35.734	1483.157	1286.402
-25.823	35.640	1482.404	1285.065
-24.809	35.718	1479.832	1283.309
-23.794	35.684	1478.680	1282.030
-22.779	35.647	1477.639	1280.828
-21.765	35.679	1476.581	1280.075
-20.750	35.714	1475.207	1279.067
-19.736	35.697	1474.407	1278.207
-18.721	35.669	1473.348	1277.054
-17.706	35.716	1471.964	1276.118
-16.692	35.662	1471.175	1275.027
-15.677	35.680	1470.319	1274.352
-14.663	35.680	1469.360	1273.466
-13.648	35.660	1468.222	1272.303
-12.633	35.701	1467.068	1271.523
-11.619	35.642	1466.623	1270.696
-10.604	35.652	1465.717	1269.925
-9.590	35.637	1464.444	1268.671
-8.575	35.609	1463.683	1267.776
-7.560	35.701	1462.675	1267.461
-6.546	35.666	1461.775	1266.404
-5.531	35.713	1461.011	1265.998
-4.517	35.621	1460.151	1264.596
-3.502	35.575	1459.518	1263.696
-2.487	35.587	1458.121	1262.515
-1.473	35.605	1456.867	1261.500
-0.458	35.680	1455.518	1260.768
0.556	36.380	1445.570	1247.671
1.571	32.702	1418.625	1200.928
2.586	28.367	1357.067	1122.228
3.600	26.185	1275.632	1042.216
4.615	24.549	1228.260	994.320
5.629	20.828	1172.293	929.123
6.644	11.443	1086.542	814.462
7.659	4.247	1044.262	748.085
8.673	3.121	1038.862	738.743
9.688	2.874	1035.391	735.027
10.702	2.617	1033.628	732.482
11.717	2.700	1032.169	731.782
12.731	5.754	1035.390	748.603
13.746	15.073	1048.507	802.903
14.761	23.353	1059.703	851.365
15.775	25.835	1062.506	865.483
16.790	26.419	1062.240	867.995
17.804	26.248	1061.301	866.329
18.819	25.979	1060.633	864.421
19.834	26.178	1059.736	864.566
20.848	26.307	1059.334	864.778
21.863	26.492	1058.713	865.080
22.877	26.334	1058.857	864.365
23.892	26.433	1057.589	863.727
24.907	26.300	1056.951	862.494
25.921	26.299	1056.676	862.190
26.936	26.367	1055.672	861.617
27.950	26.215	1054.905	860.190
28.965	26.280	1053.186	859.023
29.980	26.241	1052.006	857.799
30.994	26.194	1051.030	856.702
32.009	26.294	1050.519	856.686
33.023	26.557	1049.266	856.834
34.038	26.309	1048.449	854.916
35.053	26.312	1047.458	854.046
36.067	26.371	1047.068	853.931
37.082	26.324	1046.467	853.143
38.096	26.271	1045.880	852.343
39.111	26.505	1044.630	852.347
40.126	26.706	1043.915	852.636
41.140	26.664	1042.395	851.123
42.155	26.209	1041.577	848.243
43.169	25.906	1040.372	845.765
44.184	25.942	1039.408	845.077
45.199	26.077	1038.022	844.503
46.213	25.918	1037.685	843.410
47.228	25.956	1036.295	842.386
48.242	26.131	1035.726	842.667
49.257	26.165	1035.693	842.721
50.271	26.292	1034.676	842.411
51.286	26.387	1033.686	841.975
52.301	26.459	1033.073	841.737
53.315	26.465	1032.361	841.110
54.330	26.495	1031.918	840.814
55.344	26.266	1030.704	838.686
56.359	26.337	1030.158	838.495
57.374	26.285	1029.059	837.290
58.388	26.172	1028.400	836.154
59.403	26.141	1027.502	835.205
60.417	26.147	1026.771	834.565
61.432	26.045	1025.792	833.226
62.447	25.997	1025.118	832.382
63.461	26.152	1024.211	832.287
64.476	26.150	1023.893	831.944
65.490	25.955	1023.227	830.433
66.505	26.080	1021.921	829.874
67.520	25.892	1021.762	828.808
68.534	25.956	1020.802	828.249
69.549	25.976	1019.759	827.420
70.563	25.628	1018.935	825.086
71.578	25.569	1017.748	823.779
72.593	25.752	1016.803	823.778
73.607	25.479	1015.209	821.168
74.622	25.419	1014.811	820.501
75.636	25.757	1014.182	821.459
76.651	25.947	1013.504	821.704
77.666	25.785	1012.841	820.358
78.680	25.616	1012.042	818.868
79.695	25.739	1011.158	818.640
80.709	25.824	1010.590	818.491
81.724	25.944	1009.571	818.139
82.739	26.043	1008.725	817.831
83.753	25.871	1008.154	816.515
84.768	26.296	1007.635	817.950
85.782	26.600	1007.102	818.820
86.797	26.744	1006.665	819.043
87.812	26.745	1005.672	818.166
88.826	26.509	1004.602	816.161
89.841	26.556	1003.828	815.671
90.855	26.704	1003.539	816.027
91.870	26.643	1002.564	814.888
92.884	26.432	1002.502	813.820
93.899	26.469	1001.129	812.799
94.914	26.427	1000.357	811.911
95.928	26.624	999.355	811.907
96.943	26.612	998.686	811.238
97.957	26.218	997.591	808.515
98.972	26.059	996.134	806.549
99.987	25.995	995.141	805.390
101.001	25.974	994.603	804.790
102.016	26.347	994.593	806.375
103.030	26.298	993.629	805.304
104.045	26.121	992.590	803.604
105.060	26.225	991.502	803.115
106.074	26.008	990.478	801.250
107.089	25.923	989.804	800.253
108.103	26.299	989.487	801.597
109.118	26.401	988.218	800.947
110.133	26.043	987.287	798.539
111.147	26.035	986.431	797.743
112.162	25.747	985.400	795.564
113.176	25.681	984.088	794.143
114.191	25.969	983.070	794.519
115.206	26.147	982.446	794.731
116.220	25.751	981.630	792.255
117.235	25.522	980.306	790.111
118.249	25.525	980.286	790.037
119.264	25.757	979.415	790.286
120.279	25.690	978.546	789.222
121.293	25.634	977.476	788.044
122.308	25.652	977.191	787.822
123.322	25.668	976.283	787.090
124.337	25.708	975.142	786.275
125.352	25.414	973.866	783.896
126.366	25.242	972.153	781.699
127.381	24.906	970.764	779.050
128.395	25.300	970.827	780.747
129.410	26.040	970.717	783.805
130.424	26.235	970.196	784.162
131.439	26.170	968.987	782.833
132.454	26.118	968.319	781.997
133.468	26.226	967.445	781.693
134.483	26.181	966.616	780.758
135.497	26.265	965.494	780.146
136.512	26.499	964.967	780.659
137.527	26.501	964.334	780.084
138.541	26.508	963.605	779.460
139.556	26.400	963.348	778.717
140.570	26.467	962.433	778.194
141.585	26.457	961.723	777.509
142.600	26.552	960.959	777.229
143.614	26.615	959.400	776.174
144.629	26.605	959.308	775.987
145.643	26.769	958.805	776.214
146.658	26.719	957.628	774.976
147.673	26.607	955.993	773.106
148.687	26.385	954.919	771.223
149.702	26.363	954.007	770.327
150.716	26.337	952.772	769.149
151.731	26.191	952.197	767.998
152.746	26.256	951.521	767.660
153.760	26.481	950.728	767.909
154.775	26.685	949.801	767.955
155.789	26.703	949.624	767.822
156.804	26.734	948.156	766.698
157.819	26.602	947.290	765.370
158.833	26.518	947.111	764.801
159.848	26.637	946.436	764.694
160.862	26.753	945.298	764.193
161.877	26.643	944.478	763.001
162.892	26.592	943.234	761.713
163.906	26.494	943.069	761.102
164.921	26.608	941.729	760.433
165.935	26.609	940.773	759.594
166.950	26.644	939.951	759.012
167.964	26.583	938.930	757.865
168.979	26.674	937.894	757.342
169.994	26.497	936.712	755.581
171.008	26.290	935.983	754.063
172.023	26.447	935.584	754.330
173.037	26.848	934.765	755.271
174.052	26.454	933.818	752.803
175.067	26.431	932.509	751.583
176.081	26.290	931.883	750.426
177.096	26.393	930.838	749.947
178.110	26.290	930.422	749.119
179.125	26.184	929.715	748.045
180.140	26.047	928.283	746.257
181.154	25.913	927.610	745.096
182.169	26.097	927.430	745.648
183.183	26.255	927.145	746.004
184.198	26.520	926.892	746.830
185.213	26.526	925.836	745.936
186.227	26.478	925.189	745.153
187.242	26.502	924.983	745.019
188.256	26.578	924.015	744.486
189.271	26.700	923.261	744.313
190.286	26.718	922.550	743.748
191.300	26.528	921.962	742.428
192.315	25.979	920.529	738.962
193.329	25.165	919.198	734.496
194.344	24.856	917.746	732.005
195.359	25.364	918.040	734.254
196.373	26.152	918.815	738.032
197.388	26.577	918.239	739.238
198.402	26.412	917.861	738.195
199.417	26.229	917.684	737.240
200.432	26.398	916.582	736.978
201.446	26.453	915.737	736.460
202.461	26.222	914.897	734.779
203.475	26.232	914.391	734.348
204.490	25.683	913.327	731.198
205.504	24.526	911.101	724.658
206.519	24.958	910.978	726.248
207.534	26.005	911.365	730.737
208.548	25.879	910.829	729.734
209.563	26.365	910.840	731.646
210.577	26.432	909.800	731.016
211.592	26.186	908.772	729.132
212.607	26.613	908.908	730.899
213.621	26.716	908.692	731.077
214.636	26.608	907.956	729.985
215.650	26.677	907.328	729.697
216.665	26.803	906.548	729.510
217.680	26.652	906.138	728.510
218.694	26.729	905.819	728.498
219.709	26.449	904.861	726.538
220.723	25.972	903.991	723.860
221.738	26.216	903.250	724.180
222.753	26.430	902.859	724.662
223.767	26.448	901.816	723.832
224.782	26.503	901.368	723.628
225.796	26.689	900.918	723.946
226.811	26.902	900.554	724.440
227.826	26.544	899.117	721.793
228.840	25.692	897.613	717.130
229.855	25.335	897.536	715.582
230.869	25.607	897.185	716.320
231.884	25.526	895.876	714.891
232.899	25.456	895.592	714.323
233.913	26.136	895.786	717.116
234.928	26.374	895.328	717.631
235.942	26.300	894.502	716.612
236.957	26.316	893.845	716.085
237.972	26.124	892.797	714.425
238.986	26.001	892.422	713.573
240.001	26.082	891.636	713.201
241.015	26.035	891.303	712.688
242.030	26.165	890.417	712.427
243.045	26.365	889.900	712.739
244.059	26.416	890.027	712.977
245.074	26.621	889.171	713.039
246.088	26.536	888.428	712.046
247.103	26.167	887.696	709.945
248.117	26.169	887.221	709.508
249.132	26.795	887.056	711.772
250.147	27.011	887.129	712.616
251.161	27.296	886.188	712.916
252.176	27.434	885.924	713.179
253.190	27.410	885.505	712.685
254.205	27.217	885.161	711.588
255.220	27.550	884.925	712.640
256.234	27.628	883.607	711.820
257.249	27.383	883.138	710.424
258.263	27.382	882.000	709.442
259.278	27.264	882.037	708.946
260.293	27.273	881.580	708.553
261.307	27.443	880.949	708.645
262.322	27.471	879.952	707.890
263.336	27.236	879.763	706.762
264.351	26.960	878.225	704.393
265.366	25.695	876.443	697.997
266.380	25.279	875.296	695.411
267.395	26.147	875.989	699.264
268.409	26.774	875.727	701.422
269.424	27.041	875.057	701.853
270.439	27.061	875.060	701.870
271.453	27.174	874.301	701.637
272.468	27.074	873.766	700.760
273.482	27.265	873.137	700.928
274.497	27.465	872.888	701.436
275.512	27.231	871.703	699.525
276.526	26.794	869.991	696.408
277.541	26.861	870.016	696.623
278.555	27.109	870.243	697.698
279.570	26.992	869.535	696.618
280.585	26.971	868.582	695.715
281.599	27.113	867.609	695.417
282.614	27.137	867.846	695.637
283.628	26.581	866.208	692.139
284.643	26.226	865.976	690.533
285.657	26.700	865.639	692.015
286.672	26.681	864.667	691.105
287.687	26.105	863.790	688.146
288.701	26.498	864.087	689.819
289.716	26.910	863.460	690.828
290.730	26.476	862.723	688.526
291.745	26.436	861.840	687.607
292.760	26.332	860.982	686.468
293.774	26.111	860.319	685.039
294.789	26.970	861.347	689.060
295.803	27.708	861.471	691.898
296.818	27.689	860.704	691.150
297.833	27.784	860.513	691.295
298.847	27.525	859.199	689.200
299.862	27.253	857.903	687.073
300.876	27.439	857.650	687.510
301.891	27.688	857.776	688.489
302.906	27.785	856.971	688.148
303.920	27.280	856.086	685.475
304.935	27.175	854.974	684.130
305.949	27.723	854.728	685.931
306.964	27.667	854.745	685.672
307.979	27.480	853.707	684.081
308.993	27.256	853.539	683.043
310.008	27.716	853.101	684.358
311.022	27.729	852.947	684.221
312.037	27.809	852.154	683.824
313.052	27.220	851.779	681.256
314.066	27.184	850.702	680.202
315.081	26.559	849.267	676.660
316.095	25.854	847.974	672.937
317.110	26.410	847.805	674.818
318.125	27.408	848.196	678.792
319.139	26.907	847.299	676.148
320.154	25.633	845.593	669.987
321.168	25.237	844.849	667.864
322.183	25.813	844.995	670.065
323.197	26.864	845.544	674.349
324.212	27.229	844.573	674.871
325.227	27.211	845.072	675.142
326.241	27.476	844.310	675.458
327.256	27.471	843.348	674.608
328.270	27.349	842.518	673.434
329.285	27.141	842.228	672.372
330.300	26.841	841.585	670.689
331.314	26.940	840.467	670.105
332.329	26.823	840.049	669.280
333.343	27.236	840.081	670.770
334.358	27.614	839.760	671.852
335.373	27.475	839.470	671.048
336.387	27.436	838.449	670.028
337.402	27.811	838.107	671.074
338.416	27.954	837.949	671.414
339.431	27.869	837.758	670.886
340.446	27.931	836.953	670.413
341.460	28.307	836.600	671.448
342.475	28.264	835.927	670.691
343.489	27.939	835.143	668.812
344.504	27.941	834.416	668.180
345.519	28.180	834.153	668.783
346.533	28.348	833.861	669.106
347.548	28.406	833.642	669.080
348.562	28.456	833.195	668.846
349.577	28.318	832.559	667.771
350.592	28.228	831.843	666.810
351.606	28.487	831.083	667.084
352.621	28.376	830.741	666.347
353.635	28.169	829.942	664.895
354.650	28.029	829.744	664.172
355.665	27.814	828.670	662.473
356.679	26.799	826.709	657.168
357.694	26.583	826.340	656.036
358.708	27.241	826.373	658.385
359.723	27.226	825.692	657.732
360.738	27.472	825.865	658.700
361.752	27.913	825.712	660.114
362.767	28.197	825.289	660.744
363.781	28.351	825.445	661.366
364.796	28.588	824.929	661.750
365.810	28.682	824.705	661.850
366.825	28.744	824.332	661.714
367.840	28.798	824.058	661.631
368.854	28.595	823.317	660.247
369.869	28.139	822.434	657.842
370.883	27.868	821.635	656.168
371.898	28.129	821.064	656.592
372.913	28.151	820.326	656.025
373.927	28.072	820.151	655.541
374.942	28.228	819.558	655.570
375.956	28.273	818.898	655.144
376.971	28.373	818.168	654.858
377.986	28.458	817.813	654.821
379.000	28.661	817.402	655.159
380.015	28.733	817.122	655.135
381.029	28.393	816.597	653.444
382.044	28.506	815.951	653.269
383.059	28.533	815.162	652.677
384.073	28.880	814.526	653.344
385.088	28.749	814.505	652.804
386.102	28.681	813.844	651.974
387.117	28.568	813.353	651.121
388.132	28.403	812.323	649.655
389.146	28.216	811.702	648.438
390.161	27.600	810.741	645.431
391.175	27.689	810.478	645.480
392.190	28.239	811.030	647.809
393.205	28.374	810.061	647.455
394.219	27.377	808.364	642.527
395.234	25.740	805.843	634.700
396.248	24.868	805.049	630.946
397.263	25.868	806.337	635.426
398.278	27.708	807.214	642.549
399.292	28.203	807.172	644.201
400.307	28.028	806.298	642.834
401.321	28.083	805.512	642.342
402.336	28.005	805.340	641.874
403.350	28.218	805.493	642.687
404.365	28.667	805.660	644.341
405.380	29.115	805.135	645.435
406.394	29.370	804.988	646.154
407.409	29.318	805.085	645.991
408.423	29.254	804.352	645.122
409.438	29.347	803.597	644.783
410.453	29.282	803.004	644.025
411.467	29.366	802.367	643.752
412.482	29.368	801.749	643.203
413.496	29.388	801.568	643.070
414.511	29.239	801.490	642.432
415.526	29.580	800.981	643.157
416.540	29.376	800.749	642.202
417.555	29.456	799.962	641.794
418.569	29.086	799.445	640.034
419.584	28.910	798.919	638.946
420.599	29.037	798.419	638.930
421.613	107.742	1280.748	1438.830
422.628	92.778	1351.049	1438.935
