DTS Sentinel unit serial number:	SN413079Multiplexer serial number:	ORYXHardware model number:	OX4-SRSoftware version number:	ORYX F/W v4.00 Oryx Data Collector v3.7.2.0data status	okinstallation	princeton_trtdifferential loss correction	single-endedforward channel	channel 3reverse channel	N/Adate	2019/09/16time	03:00:35forward acquisition time	60.00reverse acquisition time	0.00gamma	496.2192k internal	0.2334k external	0.2334temperature offset calibration	0.9954default loss term (dB/km)	0.3790temperature slope calibration	1.0000multiplexer offset coefficient	1.0000multiplexer slope coefficient	1.0000fibre end	0.00T internal ref (°C)	27.77T ext. ref 1 (°C)	10.40T ext. ref 2 (°C)	22.18length (m)	temperature (°C)	Stokes	anti-Stokes-747.200	-200.000	0.018	0.162
-746.185	-142.231	-0.419	-0.042
-745.171	528.696	0.152	-0.361
-744.156	-200.000	-0.003	0.121
-743.142	-52.408	0.436	-0.203
-742.127	798.422	-0.130	0.359
-741.112	-150.168	0.178	-0.014
-740.098	-200.000	0.055	0.315
-739.083	-87.789	0.093	0.028
-738.069	-200.000	-0.054	0.310
-737.054	-128.612	-0.243	0.035
-736.039	-200.000	0.046	-0.267
-735.025	800.000	0.116	0.400
-734.010	-168.670	-0.111	0.004
-732.996	112.338	-0.159	-0.193
-731.981	325.292	-0.183	0.352
-730.966	800.000	-0.038	-0.168
-729.952	260.981	0.242	0.420
-728.937	-43.054	-0.044	0.023
-727.923	13.311	-0.163	-0.127
-726.908	334.300	0.215	-0.419
-725.894	178.109	0.136	0.199
-724.879	15.873	0.245	-0.193
-723.864	-200.000	0.010	-0.108
-722.850	-200.000	0.019	0.399
-721.835	-28.599	0.094	0.054
-720.821	-111.655	0.376	0.077
-719.806	130.801	-0.199	-0.256
-718.791	-200.000	-0.024	0.131
-717.777	147.416	-0.223	0.302
-716.762	32.175	0.193	-0.167
-715.748	10.847	0.207	-0.158
-714.733	-119.615	-0.186	0.032
-713.718	-57.080	0.148	-0.066
-712.704	800.000	0.103	-0.372
-711.689	-180.328	-0.280	0.006
-710.675	82.547	0.009	0.009
-709.660	-87.312	0.187	0.057
-708.645	-96.409	0.178	0.047
-707.631	-176.251	0.409	-0.011
-706.616	-64.158	0.455	-0.186
-705.602	800.000	-0.017	0.059
-704.587	-112.114	0.103	0.021
-703.572	-133.980	-0.260	-0.032
-702.558	-200.000	0.001	0.296
-701.543	-131.947	-0.135	-0.018
-700.529	800.000	-0.014	-0.044
-699.514	85.379	0.141	-0.155
-698.499	-200.000	-0.043	-0.309
-697.485	40.990	0.237	0.214
-696.470	-38.940	-0.098	-0.052
-695.456	113.796	-0.087	0.106
-694.441	800.000	0.022	-0.078
-693.426	800.000	-0.049	0.169
-692.412	508.155	0.101	0.236
-691.397	100.857	0.254	-0.296
-690.383	-55.072	-0.311	-0.140
-689.368	125.470	0.118	0.149
-688.354	110.561	-0.059	0.071
-687.339	178.771	-0.239	0.350
-686.324	-91.166	-0.105	-0.030
-685.310	-73.673	0.113	-0.041
-684.295	-122.184	0.198	-0.033
-683.281	92.214	-0.183	-0.206
-682.266	75.603	-0.061	0.065
-681.251	800.000	-0.028	0.087
-680.237	800.000	-0.096	0.389
-679.222	-200.000	-0.024	0.145
-678.208	60.135	-0.207	-0.205
-677.193	7.956	-0.173	-0.130
-676.178	-200.000	0.031	-0.277
-675.164	183.645	0.155	0.230
-674.149	60.782	-0.065	0.065
-673.135	-83.484	-0.319	0.102
-672.120	-200.000	0.020	0.193
-671.105	-35.088	-0.124	-0.068
-670.091	140.372	-0.056	0.074
-669.076	-46.471	0.118	-0.058
-668.062	173.655	-0.119	0.173
-667.047	-200.000	-0.027	0.133
-666.032	293.580	-0.198	-0.363
-665.018	-200.000	0.013	-0.120
-664.003	13.843	0.119	0.093
-662.989	251.890	-0.178	0.304
-661.974	18.601	-0.101	-0.081
-660.959	-87.617	0.047	-0.014
-659.945	-200.000	-0.056	0.266
-658.930	800.000	-0.048	0.189
-657.916	16.152	0.130	-0.103
-656.901	103.175	0.152	0.179
-655.886	76.475	0.262	0.279
-654.872	-57.509	0.245	0.108
-653.857	632.108	0.039	0.098
-652.843	-66.058	0.108	-0.043
-651.828	-146.883	-0.379	0.033
-650.814	-200.000	-0.004	0.355
-649.799	314.513	0.132	-0.249
-648.784	-94.491	0.083	0.023
-647.770	800.000	0.122	0.523
-646.755	126.112	-0.229	-0.290
-645.741	800.000	0.019	0.071
-644.726	-73.360	-0.146	-0.054
-643.711	-93.931	-0.289	0.080
-642.697	82.846	0.255	0.277
-641.682	71.905	-0.307	-0.320
-640.668	279.938	0.155	-0.277
-639.653	800.000	0.096	-0.300
-638.638	-200.000	-0.007	-0.103
-637.624	171.313	0.073	-0.105
-636.609	39.630	-0.171	0.153
-635.595	-200.000	-0.026	0.338
-634.580	-143.819	0.211	-0.020
-633.565	-200.000	-0.448	0.001
-632.551	800.000	0.020	0.073
-631.536	-200.000	0.029	-0.318
-630.522	-126.286	0.183	0.027
-629.507	-200.000	0.017	-0.195
-628.492	-162.630	-0.291	0.014
-627.478	439.427	0.079	0.172
-626.463	-23.124	-0.201	-0.121
-625.449	-181.050	0.116	-0.002
-624.434	113.140	-0.091	-0.111
-623.419	-87.449	-0.156	0.047
-622.405	800.000	-0.177	-0.557
-621.390	-200.000	-0.039	-0.252
-620.376	22.214	-0.164	-0.134
-619.361	-29.951	-0.109	-0.062
-618.346	11.953	0.368	-0.283
-617.332	204.575	0.112	0.174
-616.317	-60.131	-0.035	0.015
-615.303	800.000	0.036	-0.128
-614.288	364.767	-0.132	-0.266
-613.273	39.983	-0.095	-0.086
-612.259	531.426	-0.113	0.267
-611.244	157.606	-0.353	0.489
-610.230	41.440	-0.104	0.094
-609.215	800.000	0.085	-0.311
-608.201	102.770	0.059	0.069
-607.186	-200.000	0.002	0.222
-606.171	-48.604	-0.208	0.100
-605.157	-24.739	-0.174	0.104
-604.142	601.772	0.021	-0.051
-603.128	-20.810	0.370	-0.227
-602.113	-200.000	0.026	-0.318
-601.098	-190.611	-0.032	0.000
-600.084	61.578	0.252	-0.250
-599.069	-200.000	0.133	0.001
-598.055	-39.601	0.136	0.071
-597.040	800.000	0.057	-0.209
-596.025	-200.000	0.002	0.346
-595.011	-98.378	0.025	0.006
-593.996	-159.295	0.390	-0.022
-592.982	419.247	0.138	-0.295
-591.967	151.145	-0.252	-0.343
-590.952	467.896	-0.061	0.137
-589.938	-36.967	-0.308	0.165
-588.923	165.566	-0.152	-0.214
-587.909	-3.575	0.037	-0.026
-586.894	158.034	-0.152	0.211
-585.879	308.110	-0.071	0.133
-584.865	-111.275	0.103	0.021
-583.850	-59.862	0.050	-0.021
-582.836	242.276	0.073	-0.122
-581.821	590.503	0.008	0.021
-580.806	4.012	-0.133	-0.097
-579.792	-24.291	0.230	0.137
-578.777	102.852	-0.043	-0.050
-577.763	163.884	0.143	-0.201
-576.748	-162.855	0.142	-0.007
-575.733	-8.825	-0.361	-0.241
-574.719	523.987	-0.104	-0.243
-573.704	-116.453	0.050	-0.009
-572.690	-200.000	-0.002	-0.084
-571.675	2.859	-0.207	0.150
-570.661	-115.297	0.237	-0.045
-569.646	-200.000	0.106	-0.565
-568.631	800.000	-0.085	-0.280
-567.617	-84.323	-0.261	0.082
-566.602	83.323	0.081	-0.088
-565.588	-200.000	0.013	-0.501
-564.573	-55.094	0.140	0.063
-563.558	278.761	0.104	-0.184
-562.544	-134.115	-0.290	-0.036
-561.529	-120.183	-0.176	0.030
-560.515	-200.000	-0.010	0.134
-559.500	-115.729	0.088	0.017
-558.485	146.767	-0.191	0.257
-557.471	143.145	-0.196	0.260
-556.456	-57.714	0.299	0.131
-555.442	54.136	-0.051	0.049
-554.427	98.228	0.052	0.060
-553.412	-88.926	0.319	0.094
-552.398	278.880	-0.169	-0.302
-551.383	436.466	-0.150	0.325
-550.369	-7.753	0.300	-0.202
-549.354	86.069	-0.076	0.083
-548.339	-142.024	0.115	0.011
-547.325	543.052	0.075	-0.180
-546.310	-84.390	-0.101	-0.032
-545.296	165.945	-0.114	-0.160
-544.281	800.000	0.061	-0.259
-543.266	800.000	-0.098	0.287
-542.252	92.597	0.257	0.289
-541.237	800.000	0.135	0.468
-540.223	-154.348	0.143	-0.010
-539.208	-200.000	-0.025	0.160
-538.193	-200.000	-0.020	-0.200
-537.179	325.617	-0.129	-0.246
-536.164	630.519	0.014	-0.034
-535.150	-2.322	0.179	-0.125
-534.135	-200.000	0.048	0.237
-533.121	-36.918	0.108	0.058
-532.106	-200.000	-0.073	0.352
-531.091	309.411	0.077	0.143
-530.077	661.824	0.036	0.092
-529.062	-200.000	0.009	-0.241
-528.048	32.035	-0.024	0.021
-527.033	677.857	0.104	0.270
-526.018	800.000	-0.184	-0.517
-525.004	-63.892	-0.139	0.057
-523.989	221.487	0.070	-0.112
-522.975	91.335	-0.056	0.063
-521.960	16.080	0.090	-0.071
-520.945	358.590	0.059	0.117
-519.931	108.291	-0.184	-0.218
-518.916	-60.448	0.055	0.023
-517.902	141.534	-0.134	-0.176
-516.887	-152.504	-0.153	-0.011
-515.872	332.514	-0.071	0.138
-514.858	6.689	-0.213	0.158
-513.843	350.940	0.045	0.089
-512.829	-150.506	-0.073	-0.006
-511.814	16.039	-0.155	0.121
-510.799	409.978	0.213	-0.449
-509.785	-7.505	-0.250	-0.169
-508.770	118.068	-0.129	-0.158
-507.756	-29.148	-0.159	0.091
-506.741	-79.456	0.205	0.069
-505.726	-200.000	0.012	0.120
-504.712	754.422	0.047	0.128
-503.697	171.480	-0.123	0.176
-502.683	6.407	0.430	-0.318
-501.668	800.000	-0.051	-0.222
-500.653	-200.000	-0.056	-0.292
-499.639	141.859	0.196	-0.259
-498.624	-200.000	0.035	0.195
-497.610	-47.151	-0.201	0.097
-496.595	-61.436	0.151	0.063
-495.581	126.325	-0.214	-0.270
-494.566	-148.877	0.167	0.013
-493.551	-0.236	-0.086	0.061
-492.537	40.292	0.084	0.075
-491.522	520.312	0.117	0.274
-490.508	281.265	0.145	-0.259
-489.493	-200.000	-0.012	-0.124
-488.478	324.674	-0.122	0.232
-487.464	-200.000	0.082	-0.379
-486.449	800.000	-0.027	-0.111
-485.435	-36.811	-0.183	-0.098
-484.420	-4.600	-0.067	-0.046
-483.405	150.792	-0.222	0.300
-482.391	-25.830	0.110	0.065
-481.376	-200.000	0.016	-0.178
-480.362	-200.000	-0.030	0.195
-479.347	148.830	-0.051	0.069
-478.332	25.168	-0.068	-0.056
-477.318	71.042	-0.255	0.263
-476.303	-101.028	-0.172	0.042
-475.289	-111.131	-0.214	0.044
-474.274	-200.000	0.004	-0.213
-473.259	-79.977	-0.150	0.050
-472.245	-40.032	-0.050	-0.026
-471.230	-115.254	0.186	-0.035
-470.216	-200.000	-0.003	-0.085
-469.201	25.091	0.067	0.055
-468.186	-75.782	-0.333	-0.117
-467.172	-148.071	-0.019	-0.002
-466.157	70.976	-0.265	-0.273
-465.143	-49.831	-0.054	0.026
-464.128	512.562	0.175	0.405
-463.113	98.963	0.135	-0.155
-462.099	0.599	-0.160	-0.114
-461.084	-98.288	-0.155	0.039
-460.070	-23.627	-0.238	0.142
-459.055	1.759	-0.204	-0.146
-458.040	108.284	0.262	0.310
-457.026	800.000	0.042	-0.136
-456.011	-62.493	0.123	-0.051
-454.997	-105.437	-0.100	0.023
-453.982	49.952	0.095	-0.089
-452.968	800.000	0.077	0.251
-451.953	800.000	-0.036	0.152
-450.938	-57.189	-0.481	0.211
-449.924	387.920	0.099	-0.204
-448.909	58.841	0.151	0.148
-447.895	-123.952	-0.169	-0.026
-446.880	-130.923	0.158	-0.021
-445.865	-80.907	-0.103	-0.034
-444.851	-200.000	0.059	-0.315
-443.836	-87.878	0.234	0.070
-442.822	-15.626	-0.239	0.152
-441.807	-200.000	0.005	0.035
-440.792	-56.506	0.321	0.142
-439.778	39.986	-0.144	-0.129
-438.763	-80.392	-0.390	0.129
-437.749	-90.562	-0.145	0.042
-436.734	-108.249	0.207	0.044
-435.719	-129.297	-0.129	-0.018
-434.705	8.000	-0.211	0.158
-433.690	260.361	0.107	0.184
-432.676	76.870	0.067	-0.071
-431.661	-200.000	-0.054	-0.293
-430.646	27.514	-0.322	0.269
-429.632	-18.761	-0.279	-0.173
-428.617	800.000	-0.085	0.271
-427.603	290.559	0.070	-0.127
-426.588	-38.170	0.307	0.161
-425.573	800.000	0.089	-0.292
-424.559	278.114	-0.072	0.127
-423.544	74.596	0.047	0.049
-422.530	-9.950	0.367	0.242
-421.515	-183.073	0.223	-0.004
-420.500	-121.457	0.138	-0.023
-419.486	622.058	-0.088	-0.219
-418.471	-200.000	0.037	-0.376
-417.457	-152.810	0.169	-0.012
-416.442	-200.000	-0.016	-0.185
-415.428	222.281	-0.093	0.149
-414.413	-49.276	-0.140	0.066
-413.398	-79.356	0.184	-0.062
-412.384	-115.685	-0.235	0.044
-411.369	800.000	-0.116	-0.407
-410.355	-18.687	-0.221	0.136
-409.340	118.490	0.101	-0.124
-408.325	-29.006	-0.108	0.062
-407.311	243.404	-0.091	0.152
-406.296	-200.000	-0.276	0.000
-405.282	116.684	0.195	-0.237
-404.267	-133.682	0.380	-0.047
-403.252	-84.124	-0.319	0.100
-402.238	49.008	0.300	0.280
-401.223	-200.000	-0.007	-0.063
-400.209	448.434	-0.097	0.213
-399.194	-3.044	0.362	0.250
-398.179	-2.002	0.439	0.306
-397.165	-52.078	-0.005	-0.002
-396.150	368.410	0.158	0.316
-395.136	186.719	-0.164	0.242
-394.121	-200.000	-0.009	0.291
-393.106	800.000	-0.076	0.209
-392.092	-200.000	-0.014	-0.113
-391.077	-136.857	-0.074	0.008
-390.063	-200.000	0.021	0.194
-389.048	190.893	0.181	-0.270
-388.033	81.424	-0.033	-0.035
-387.019	67.653	-0.129	-0.131
-386.004	208.269	0.133	0.205
-384.990	-95.736	-0.185	-0.049
-383.975	-7.921	-0.196	-0.131
-382.960	22.238	-0.042	0.034
-381.946	295.113	-0.222	-0.403
-380.931	-75.160	0.175	0.062
-379.917	709.168	0.050	0.130
-378.902	-8.713	0.110	-0.073
-377.888	-42.952	0.089	0.045
-376.873	59.276	-0.201	0.197
-375.858	13.467	0.091	-0.070
-374.844	-200.000	0.009	0.072
-373.829	-51.747	0.090	0.041
-372.815	68.516	0.232	0.236
-371.800	-200.000	-0.019	-0.121
-370.785	316.045	0.086	-0.162
-369.771	381.050	-0.017	-0.035
-368.756	262.650	0.131	0.226
-367.742	-2.781	0.098	-0.068
-366.727	35.511	-0.075	-0.065
-365.712	70.741	0.045	-0.046
-364.698	172.088	0.072	-0.103
-363.683	-14.928	0.226	-0.143
-362.669	156.876	-0.083	-0.113
-361.654	323.558	-0.124	0.234
-360.639	-82.741	-0.221	-0.071
-359.625	-168.218	-0.299	0.011
-358.610	-15.348	-0.092	-0.058
-357.596	-200.000	0.039	-0.187
-356.581	-112.627	0.182	-0.036
-355.566	800.000	-0.059	0.199
-354.552	800.000	-0.124	0.373
-353.537	95.688	-0.098	-0.111
-352.523	40.804	-0.252	0.225
-351.508	-13.483	0.279	-0.179
-350.493	203.173	-0.088	-0.134
-349.479	-132.663	0.230	-0.029
-348.464	-200.000	0.018	0.083
-347.450	-52.027	-0.204	0.094
-346.435	-200.000	-0.006	0.111
-345.420	-200.000	-0.009	0.076
-344.406	-200.000	-0.041	0.190
-343.391	-70.265	0.139	-0.052
-342.377	48.528	-0.114	-0.106
-341.362	-200.000	-0.007	-0.061
-340.348	114.217	0.070	0.084
-339.333	-200.000	-0.018	0.188
-338.318	-200.000	0.019	-0.303
-337.304	800.000	0.093	0.257
-336.289	800.000	-0.084	-0.252
-335.275	-200.000	-0.031	0.376
-334.260	62.404	-0.023	-0.023
-333.245	-91.899	0.159	-0.045
-332.231	-200.000	-0.001	0.281
-331.216	800.000	0.077	0.297
-330.202	743.487	0.169	0.448
-329.187	800.000	-0.081	-0.258
-328.172	300.950	-0.123	-0.224
-327.158	800.000	-0.064	-0.213
-326.143	-6.796	-0.275	-0.185
-325.129	49.540	0.290	0.270
-324.114	800.000	-0.074	0.270
-323.099	-73.603	0.263	0.095
-322.085	-52.623	-0.313	-0.143
-321.070	-30.155	-0.130	0.073
-320.056	-171.963	0.312	0.010
-319.041	-200.000	0.003	0.092
-318.026	800.000	-0.007	0.021
-317.012	-13.364	-0.117	-0.075
-315.997	13.818	-0.143	-0.110
-314.983	-200.000	-0.004	-0.052
-313.968	63.680	0.102	0.102
-312.953	-1.643	-0.146	0.102
-311.939	46.815	-0.247	0.227
-310.924	-97.069	0.293	0.076
-309.910	435.321	0.078	-0.167
-308.895	3.998	0.156	-0.113
-307.880	245.125	0.032	-0.053
-306.866	243.361	-0.028	-0.046
-305.851	-179.135	-0.178	0.004
-304.837	584.983	0.082	-0.198
-303.822	101.792	-0.105	0.121
-302.807	-200.000	0.014	0.290
-301.793	-27.165	0.367	0.211
-300.778	57.097	-0.224	-0.216
-299.764	-32.125	0.125	0.069
-298.749	58.427	0.172	0.167
-297.735	95.373	0.253	0.285
-296.720	29.417	-0.063	0.053
-295.705	220.428	0.073	-0.115
-294.691	169.902	0.109	-0.153
-293.676	40.027	-0.121	0.107
-292.662	517.658	0.036	0.083
-291.647	-125.720	-0.350	-0.052
-290.632	-148.553	0.218	-0.018
-289.618	176.733	0.192	0.276
-288.603	182.295	-0.213	0.311
-287.589	-106.503	0.163	0.036
-286.574	800.000	-0.021	0.075
-285.559	-200.000	0.041	-0.211
-284.545	-200.000	0.022	0.209
-283.530	-8.801	-0.127	0.084
-282.516	67.879	0.227	-0.229
-281.501	-71.966	0.280	-0.103
-280.486	800.000	-0.040	0.151
-279.472	298.478	0.092	-0.168
-278.457	-46.876	-0.113	-0.055
-277.443	-67.368	0.188	0.073
-276.428	-98.718	0.171	-0.043
-275.413	-141.756	-0.166	0.016
-274.399	28.995	0.090	-0.076
-273.384	-200.000	-0.001	0.153
-272.370	-200.000	0.046	-0.259
-271.355	-200.000	0.009	-0.175
-270.340	-200.000	0.003	-0.335
-269.326	25.510	-0.119	-0.098
-268.311	268.385	-0.148	0.255
-267.297	292.394	-0.123	-0.221
-266.282	471.047	0.048	-0.106
-265.267	164.128	-0.251	0.349
-264.253	62.597	-0.283	0.279
-263.238	157.838	0.291	0.398
-262.224	-177.925	-0.203	0.005
-261.209	97.484	0.082	-0.093
-260.195	34.439	0.202	0.174
-259.180	800.000	-0.063	0.242
-258.165	-54.751	0.167	-0.074
-257.151	-5.538	0.124	-0.084
-256.136	567.668	-0.040	-0.097
-255.122	-54.366	-0.404	0.181
-254.107	751.650	-0.056	0.149
-253.092	665.032	-0.095	-0.243
-252.078	336.085	0.247	-0.473
-251.063	96.027	0.110	0.124
-250.049	-59.415	-0.233	-0.099
-249.034	-47.904	0.090	0.043
-248.019	-139.028	0.172	-0.018
-247.005	-95.814	0.186	-0.049
-245.990	98.996	-0.180	0.205
-244.976	800.000	-0.072	0.297
-243.961	-115.612	0.240	-0.044
-242.946	172.626	0.093	0.132
-241.932	61.602	0.130	0.127
-240.917	-141.355	0.302	0.030
-239.903	-129.078	-0.183	0.025
-238.888	398.821	0.201	0.415
-237.873	279.873	0.067	0.117
-236.859	-60.071	-0.101	-0.043
-235.844	32.750	0.464	-0.396
-234.830	800.000	0.096	-0.345
-233.815	-4.974	0.314	-0.213
-232.800	156.420	0.166	-0.226
-231.786	-200.000	-0.037	0.267
-230.771	-2.676	0.061	-0.042
-229.757	-31.055	0.157	0.087
-228.742	144.028	0.108	-0.141
-227.727	-76.294	0.083	-0.029
-226.713	44.963	-0.222	0.201
-225.698	-92.240	-0.086	-0.024
-224.684	-125.254	0.189	0.028
-223.669	-85.418	-0.276	0.085
-222.655	-200.000	0.016	0.309
-221.640	66.434	-0.120	-0.120
-220.625	-8.709	-0.424	-0.280
-219.611	97.745	0.151	-0.171
-218.596	166.872	-0.068	0.095
-217.582	587.864	0.055	0.133
-216.567	-111.991	-0.030	0.006
-215.552	-174.844	0.154	-0.004
-214.538	106.305	0.047	-0.055
-213.523	-175.700	-0.323	-0.009
-212.509	-200.000	0.001	0.162
-211.494	28.768	-0.183	-0.153
-210.479	44.325	-0.125	-0.113
-209.465	800.000	0.022	0.075
-208.450	800.000	0.019	0.060
-207.436	-28.032	-0.494	-0.281
-206.421	800.000	0.021	-0.057
-205.406	703.722	-0.059	0.154
-204.392	-7.447	-0.262	0.174
-203.377	38.158	0.251	-0.220
-202.363	-18.230	0.290	0.179
-201.348	267.193	0.101	0.174
-200.333	110.290	0.206	-0.243
-199.319	-19.933	0.265	-0.161
-198.304	-200.000	-0.037	0.176
-197.290	-36.304	-0.268	-0.142
-196.275	419.926	0.152	0.319
-195.260	-38.436	0.193	-0.101
-194.246	14.659	-0.149	0.114
-193.231	84.666	0.170	0.183
-192.217	-200.000	-0.025	-0.242
-191.202	188.138	0.066	-0.097
-190.187	-200.000	0.006	0.380
-189.173	-120.354	-0.196	0.033
-188.158	-200.000	-0.045	-0.404
-187.144	-143.463	0.086	0.008
-186.129	38.441	-0.128	-0.113
-185.114	148.009	-0.077	-0.102
-184.100	351.164	-0.219	-0.426
-183.085	379.887	0.179	-0.360
-182.071	-89.266	0.241	0.070
-181.056	-200.000	0.007	0.552
-180.042	-188.407	0.331	0.004
-179.027	-77.924	-0.050	0.017
-178.012	2.559	-0.241	0.171
-176.998	-19.946	0.223	0.135
-175.983	-16.110	-0.087	-0.054
-174.969	800.000	-0.018	-0.057
-173.954	-124.725	-0.182	-0.028
-172.939	-142.191	-0.303	-0.029
-171.925	-64.849	0.355	-0.141
-170.910	-77.327	0.205	0.070
-169.896	54.848	-0.095	-0.090
-168.881	116.046	0.237	-0.286
-167.866	-15.589	0.256	0.161
-166.852	800.000	0.089	-0.327
-165.837	-82.920	0.263	-0.083
-164.823	291.704	0.063	-0.112
-163.808	-200.000	0.029	-0.131
-162.793	-200.000	-0.042	0.223
-161.779	-178.496	-0.219	0.005
-160.764	-200.000	-0.016	0.081
-159.750	152.343	-0.090	0.120
-158.735	-200.000	0.012	-0.109
-157.720	-28.804	-0.154	-0.087
-156.706	-131.888	-0.176	-0.023
-155.691	200.050	0.279	0.421
-154.677	-133.681	-0.132	0.016
-153.662	-126.933	0.508	-0.073
-152.647	-29.203	-0.087	-0.049
-151.633	800.000	-0.115	0.352
-150.618	192.923	0.027	-0.039
-149.604	-157.591	-0.284	0.017
-148.589	20.064	0.293	-0.232
-147.574	101.276	-0.083	-0.095
-146.560	-47.551	0.266	-0.127
-145.545	-13.966	0.085	0.054
-144.531	-7.133	-0.181	-0.121
-143.516	122.338	0.185	-0.227
-142.502	-88.057	0.054	0.016
-141.487	-187.676	-0.121	0.002
-140.472	-123.325	0.157	-0.025
-139.458	473.948	-0.078	0.173
-138.443	8.852	-0.068	0.050
-137.429	-92.349	-0.226	-0.062
-136.414	-180.424	0.187	-0.004
-135.399	127.822	0.087	-0.109
-134.385	28.253	-0.070	-0.058
-133.370	361.703	-0.099	0.194
-132.356	-102.290	0.186	-0.044
-131.341	159.798	-0.236	0.323
-130.326	-32.785	-0.332	0.181
-129.312	-200.000	0.024	0.513
-128.297	-2.198	-0.277	0.191
-127.283	-41.254	-0.530	-0.268
-126.268	-73.643	-0.043	0.015
-125.253	-186.651	-0.069	-0.001
-124.239	67.316	0.359	0.359
-123.224	349.440	-0.074	-0.143
-122.210	0.561	-0.064	0.045
-121.195	-164.106	0.224	-0.010
-120.180	-200.000	0.074	0.340
-119.166	679.397	0.024	0.060
-118.151	-27.517	0.375	-0.214
-117.137	-200.000	0.032	0.177
-116.122	-7.626	0.060	0.040
-115.107	2.159	0.291	-0.206
-114.093	176.259	0.160	0.228
-113.078	-200.000	0.011	-0.292
-112.064	37.140	-0.148	-0.128
-111.049	-194.667	-0.030	0.000
-110.034	-159.295	-0.045	-0.002
-109.020	800.000	0.029	-0.089
-108.005	122.318	0.121	-0.148
-106.991	51.853	0.160	0.149
-105.976	118.967	0.093	-0.113
-104.962	-200.000	-0.029	0.177
-103.947	543.658	-0.042	-0.098
-102.932	-53.706	-0.172	0.077
-101.918	-71.710	0.250	0.091
-100.903	193.991	-0.039	0.057
-99.889	800.000	0.088	0.320
-98.874	-200.000	0.056	0.381
-97.859	-48.517	-0.067	-0.031
-96.845	800.000	-0.105	0.369
-95.830	-17.845	-0.085	0.052
-94.816	800.000	0.088	-0.348
-93.801	-200.000	-0.007	-0.177
-92.786	-114.253	0.269	-0.051
-91.772	800.000	0.048	-0.179
-90.757	523.471	-0.068	0.157
-89.743	35.634	-0.238	-0.205
-88.728	385.483	-0.097	-0.196
-87.713	800.000	-0.050	-0.212
-86.699	-78.142	0.266	-0.089
-85.684	-200.000	0.002	-0.055
-84.670	-200.000	0.015	-0.100
-83.655	-2.270	-0.176	-0.121
-82.640	295.361	0.199	-0.357
-81.626	-71.050	0.317	0.117
-80.611	-200.000	-0.037	-0.188
-79.597	-133.886	-0.026	0.003
-78.582	24.127	-0.160	-0.130
-77.567	36.014	-0.171	0.147
-76.553	84.330	-0.130	0.139
-75.538	457.024	-0.178	-0.387
-74.524	-126.278	0.224	-0.033
-73.509	69.116	-0.196	-0.198
-72.494	-99.592	0.158	0.039
-71.480	-32.876	0.100	0.055
-70.465	-187.371	0.185	-0.002
-69.451	62.492	-0.117	-0.114
-68.436	-154.778	0.164	0.011
-67.422	-200.000	0.018	-0.282
-66.407	-60.764	0.111	-0.046
-65.392	-161.625	-0.229	0.011
-64.378	348.260	-0.123	-0.238
-63.363	-63.460	-0.072	-0.029
-62.349	-43.791	0.133	-0.065
-61.334	112.681	-0.870	-1.031
-60.319	82.830	0.592	0.629
-59.305	800.000	-0.244	-0.896
-58.290	800.000	0.485	1.319
-57.276	-200.000	0.293	1.387
-56.261	-200.000	112.485	635.590
-55.246	470.838	1500.995	3303.059
-54.232	148.555	2664.570	3521.890
-53.217	103.226	2172.937	2492.487
-52.203	38.100	1705.125	1484.285
-51.188	30.752	1524.865	1277.129
-50.173	28.718	1499.749	1242.302
-49.159	52.509	1557.068	1454.296
-48.144	51.326	1573.087	1461.055
-47.130	31.165	1530.344	1284.355
-46.115	27.949	1515.739	1250.083
-45.100	27.815	1511.761	1245.842
-44.086	27.791	1509.826	1244.033
-43.071	27.847	1507.641	1242.563
-42.057	27.692	1506.412	1240.445
-41.042	27.811	1504.622	1239.732
-40.027	27.696	1503.387	1237.882
-39.013	27.716	1502.146	1236.947
-37.998	27.636	1501.007	1235.419
-36.984	27.735	1499.366	1234.691
-35.969	27.770	1497.674	1233.487
-34.954	27.848	1496.359	1232.877
-33.940	27.745	1495.349	1231.303
-32.925	27.845	1493.526	1230.428
-31.911	27.752	1492.943	1229.272
-30.896	27.848	1491.042	1228.306
-29.881	27.856	1489.846	1227.324
-28.867	27.807	1488.797	1226.081
-27.852	27.796	1487.736	1225.085
-26.838	27.841	1486.168	1224.047
-25.823	27.817	1484.635	1222.577
-24.809	27.842	1483.200	1221.514
-23.794	27.896	1481.515	1220.436
-22.779	27.777	1480.492	1218.749
-21.765	27.814	1479.638	1218.248
-20.750	27.826	1478.061	1216.982
-19.736	27.796	1476.992	1215.854
-18.721	27.652	1476.643	1214.557
-17.706	27.718	1475.170	1213.736
-16.692	27.799	1474.029	1213.287
-15.677	27.754	1473.133	1212.201
-14.663	27.810	1472.060	1211.647
-13.648	27.745	1470.869	1210.183
-12.633	27.695	1470.761	1209.717
-11.619	27.750	1469.471	1208.971
-10.604	27.793	1468.163	1208.129
-9.590	27.695	1467.812	1207.150
-8.575	27.750	1466.643	1206.500
-7.560	27.683	1465.919	1205.415
-6.546	27.779	1465.126	1205.352
-5.531	27.682	1464.482	1204.131
-4.517	27.687	1462.959	1202.865
-3.502	27.775	1462.106	1202.698
-2.487	27.752	1461.035	1201.613
-1.473	27.673	1460.511	1200.614
-0.458	27.701	1459.136	1199.625
0.556	26.117	1448.891	1188.068
1.571	23.165	1423.994	1148.418
2.586	19.875	1363.890	1079.362
3.600	18.419	1280.466	1004.719
4.615	17.377	1234.771	962.884
5.629	16.532	1181.901	916.995
6.644	13.594	1105.758	842.918
7.659	10.852	1071.532	803.221
8.673	10.471	1066.692	797.647
9.688	10.363	1063.552	794.699
10.702	10.378	1061.878	793.450
11.717	10.409	1059.575	791.810
12.731	11.502	1059.426	796.965
13.746	14.571	1063.293	814.815
14.761	17.210	1066.084	829.787
15.775	17.707	1066.451	832.426
16.790	16.947	1064.380	827.033
17.804	16.017	1061.886	820.495
18.819	15.126	1059.806	814.485
19.834	14.474	1058.769	810.448
20.848	14.316	1057.562	808.685
21.863	13.923	1057.119	806.369
22.877	13.678	1056.451	804.599
23.892	13.560	1055.311	803.084
24.907	13.523	1054.419	802.156
25.921	13.516	1053.833	801.603
26.936	13.522	1052.806	800.784
27.950	13.596	1051.577	800.135
28.965	13.769	1050.703	800.234
29.980	13.583	1049.781	798.564
30.994	13.812	1048.226	798.414
32.009	13.822	1047.592	797.909
33.023	13.726	1047.120	797.016
34.038	13.817	1046.139	796.637
35.053	13.854	1045.093	795.946
36.067	13.630	1044.348	794.233
37.082	13.670	1043.679	793.848
38.096	13.631	1042.832	792.947
39.111	13.603	1041.980	792.096
40.126	13.751	1041.064	792.036
41.140	13.754	1039.730	790.961
42.155	13.573	1038.783	789.310
43.169	13.550	1038.010	788.547
44.184	13.472	1036.738	787.138
45.199	13.480	1035.698	786.318
46.213	13.384	1034.593	784.952
47.228	13.547	1033.411	784.761
48.242	13.512	1033.012	784.220
49.257	13.657	1032.099	784.144
50.271	13.741	1030.932	783.582
51.286	13.679	1030.221	782.683
52.301	13.680	1029.527	782.092
53.315	13.725	1028.722	781.623
54.330	13.618	1027.768	780.325
55.344	13.490	1027.049	779.109
56.359	13.440	1026.351	778.275
57.374	13.495	1025.158	777.556
58.388	13.519	1024.184	776.864
59.403	13.447	1023.565	775.988
60.417	13.463	1022.767	775.391
61.432	13.527	1021.936	774.990
62.447	13.471	1021.322	774.193
63.461	13.398	1020.462	773.130
64.476	13.401	1019.233	772.146
65.490	13.446	1018.100	771.430
66.505	13.254	1017.996	770.390
67.520	13.379	1016.881	770.056
68.534	13.484	1015.943	769.767
69.549	13.474	1015.591	769.387
70.563	13.568	1014.650	769.041
71.578	13.521	1014.222	768.430
72.593	13.404	1012.981	766.880
73.607	13.344	1012.340	766.048
74.622	13.292	1011.422	765.046
75.636	13.330	1010.680	764.595
76.651	13.307	1009.831	763.776
77.666	13.401	1008.711	763.297
78.680	13.433	1008.124	762.930
79.695	13.230	1007.851	761.724
80.709	13.336	1007.023	761.518
81.724	13.414	1006.418	761.349
82.739	13.471	1005.643	760.957
83.753	13.446	1004.978	760.274
84.768	13.532	1004.052	759.902
85.782	13.671	1003.551	760.092
86.797	13.847	1002.609	760.118
87.812	13.685	1002.085	758.913
88.826	13.703	1000.925	758.047
89.841	13.701	1000.478	757.633
90.855	13.706	999.221	756.638
91.870	13.660	998.864	756.088
92.884	13.764	997.429	755.412
93.899	13.803	996.923	755.139
94.914	13.687	996.560	754.269
95.928	13.766	996.009	754.145
96.943	13.792	994.887	753.345
97.957	13.821	993.676	752.494
98.972	13.793	992.698	751.560
99.987	13.728	992.364	750.947
101.001	13.729	991.678	750.366
102.016	13.750	990.197	749.272
103.030	13.619	989.995	748.462
104.045	13.816	988.686	748.296
105.060	13.750	987.684	747.171
106.074	13.840	986.483	746.605
107.089	13.575	986.451	745.319
108.103	13.641	985.353	744.721
109.118	13.564	983.852	743.178
110.133	13.542	983.742	742.929
111.147	13.639	982.833	742.610
112.162	13.656	981.580	741.674
113.176	13.466	981.425	740.643
114.191	13.639	980.319	740.513
115.206	13.614	979.349	739.604
116.220	13.534	978.456	738.507
117.235	13.535	977.336	737.600
118.249	13.597	977.097	737.634
119.264	13.673	975.715	736.863
120.279	13.634	975.084	736.146
121.293	13.620	974.232	735.374
122.308	13.456	973.765	734.233
123.322	13.498	972.535	733.426
124.337	13.571	971.602	732.980
125.352	13.508	970.305	731.659
126.366	13.518	969.362	730.926
127.381	13.542	968.114	730.026
128.395	13.386	967.790	729.029
129.410	13.627	966.228	728.848
130.424	13.552	965.412	727.838
131.439	13.489	964.561	726.858
132.454	13.478	964.154	726.436
133.468	13.637	962.911	726.133
134.483	13.644	962.594	725.859
135.497	13.624	961.969	725.236
136.512	13.676	960.755	724.486
137.527	13.559	960.209	723.497
138.541	13.560	959.919	723.219
139.556	13.718	958.741	722.958
140.570	13.708	958.117	722.378
141.585	13.716	957.035	721.536
142.600	13.797	957.050	721.833
143.614	13.780	955.954	720.873
144.629	13.770	955.317	720.283
145.643	13.874	954.587	720.121
146.658	13.891	953.460	719.279
147.673	13.700	952.792	717.887
148.687	13.762	951.894	717.414
149.702	13.705	950.821	716.296
150.716	13.681	949.520	715.148
151.731	13.745	948.900	714.893
152.746	13.856	948.253	714.822
153.760	13.709	947.691	713.702
154.775	13.665	947.431	713.253
155.789	13.791	946.268	712.855
156.804	13.857	945.253	712.310
157.819	13.888	945.043	712.225
158.833	14.045	943.951	712.011
159.848	13.906	943.966	711.362
160.862	13.958	942.782	710.631
161.877	13.992	942.128	710.218
162.892	13.825	941.390	708.889
163.906	13.809	940.072	707.765
164.921	13.975	939.159	707.721
165.935	13.776	938.602	706.391
166.950	13.858	937.619	705.938
167.964	13.982	936.688	705.700
168.979	13.962	935.724	704.826
169.994	13.929	935.055	704.121
171.008	13.851	934.231	703.110
172.023	13.905	933.295	702.572
173.037	13.913	932.816	702.180
174.052	13.938	931.903	701.538
175.067	13.967	930.951	700.879
176.081	13.994	930.290	700.437
177.096	13.959	929.230	699.428
178.110	13.929	928.755	698.880
179.125	13.992	927.938	698.469
180.140	13.913	927.128	697.466
181.154	13.995	926.675	697.410
182.169	14.132	925.650	697.151
183.183	14.148	925.233	696.843
184.198	14.090	924.455	695.950
185.213	14.207	923.882	695.949
186.227	14.071	923.292	694.872
187.242	14.141	922.782	694.719
188.256	14.244	922.028	694.520
189.271	14.289	921.378	694.156
190.286	14.220	920.485	693.133
191.300	14.178	919.688	692.297
192.315	14.025	919.013	691.094
193.329	13.873	918.616	690.103
194.344	14.079	917.419	689.998
195.359	13.961	917.417	689.443
196.373	13.980	916.886	689.064
197.388	14.063	916.409	688.988
198.402	14.249	915.831	689.265
199.417	14.427	915.194	689.457
200.432	14.246	915.245	688.689
201.446	14.462	914.504	688.961
202.461	14.512	913.941	688.683
203.475	14.509	913.475	688.260
204.490	14.515	912.876	687.773
205.504	14.407	911.597	686.302
206.519	14.320	911.268	685.635
207.534	14.285	910.485	684.841
208.548	14.241	909.796	684.082
209.563	14.439	908.664	683.985
210.577	14.438	908.053	683.459
211.592	14.476	907.664	683.259
212.607	14.559	907.214	683.202
213.621	14.721	906.455	683.230
214.636	14.643	905.591	682.200
215.650	14.560	905.072	681.413
216.665	14.658	904.564	681.369
217.680	14.520	904.379	680.607
218.694	14.668	903.829	680.736
219.709	14.545	903.709	680.083
220.723	14.752	902.153	679.693
221.738	14.657	902.006	679.136
222.753	14.632	901.234	678.395
223.767	14.723	900.189	677.917
224.782	14.654	899.542	677.092
225.796	14.717	898.934	676.827
226.811	14.642	898.463	676.108
227.826	14.697	897.479	675.530
228.840	14.651	896.855	674.817
229.855	14.600	896.478	674.268
230.869	14.662	895.746	673.906
231.884	14.574	894.988	672.921
232.899	14.741	893.843	672.676
233.913	14.786	893.258	672.354
234.928	14.806	892.386	671.722
235.942	14.680	891.848	670.749
236.957	14.587	891.151	669.791
237.972	14.650	890.836	669.748
238.986	14.764	890.283	669.733
240.001	14.822	889.096	669.011
241.015	14.864	888.459	668.641
242.030	14.763	887.920	667.774
243.045	14.905	886.926	667.533
244.059	14.857	886.746	667.146
245.074	14.931	885.895	666.743
246.088	14.889	885.304	666.072
247.103	14.822	885.269	665.719
248.117	14.929	884.289	665.348
249.132	15.050	883.627	665.274
250.147	15.136	883.168	665.212
251.161	15.151	882.576	664.764
252.176	15.084	882.183	664.146
253.190	15.187	881.612	664.066
254.205	15.201	880.708	663.379
255.220	15.309	879.848	663.102
256.234	15.261	879.564	662.637
257.249	15.299	878.962	662.277
258.263	15.264	878.623	661.821
259.278	15.371	877.795	661.562
260.293	15.440	877.221	661.345
261.307	15.346	876.448	660.334
262.322	15.405	875.927	660.112
263.336	15.534	875.460	660.212
264.351	15.317	875.132	659.051
265.366	15.453	874.246	658.862
266.380	15.647	873.342	658.881
267.395	15.593	872.922	658.295
268.409	15.536	872.023	657.336
269.424	15.427	871.539	656.488
270.439	15.479	870.632	655.948
271.453	15.447	869.766	655.112
272.468	15.588	868.943	654.986
273.482	15.453	868.270	653.895
274.497	15.402	868.048	653.468
275.512	15.508	867.053	653.075
276.526	15.489	866.383	652.438
277.541	15.410	866.127	651.882
278.555	15.508	865.572	651.787
279.570	15.598	864.991	651.641
280.585	15.661	864.458	651.425
281.599	15.690	864.166	651.261
282.614	15.678	863.402	650.580
283.628	15.612	862.657	649.707
284.643	15.554	861.894	648.849
285.657	15.609	861.647	648.817
286.672	15.684	860.796	648.411
287.687	15.629	860.290	647.760
288.701	15.777	859.668	647.802
289.716	15.747	859.642	647.613
290.730	15.753	858.749	646.906
291.745	15.819	858.090	646.604
292.760	15.651	857.282	645.295
293.774	15.844	856.615	645.473
294.789	15.788	856.213	644.901
295.803	15.706	855.877	644.276
296.818	15.742	855.281	643.909
297.833	15.918	854.118	643.648
298.847	15.862	853.591	642.978
299.862	15.749	853.145	642.157
300.876	15.792	852.526	641.798
301.891	15.974	851.043	641.318
302.906	16.112	850.852	641.642
303.920	16.083	850.406	641.136
304.935	15.977	849.674	640.126
305.949	16.022	849.385	640.024
306.964	16.167	848.422	639.791
307.979	16.043	847.931	638.895
308.993	16.104	847.504	638.748
310.008	16.221	847.088	638.820
311.022	16.127	846.655	638.079
312.037	16.158	846.002	637.648
313.052	16.160	845.216	637.007
314.066	16.012	844.660	635.976
315.081	16.110	844.184	635.929
316.095	16.025	843.540	635.067
317.110	16.047	843.283	634.901
318.125	16.003	842.391	634.007
319.139	16.073	841.938	633.873
320.154	16.104	841.335	633.479
321.168	16.057	841.072	633.050
322.183	16.070	840.392	632.530
323.197	15.987	840.052	631.906
324.212	16.217	838.833	631.795
325.227	16.239	838.262	631.391
326.241	16.207	838.085	631.085
327.256	16.044	837.685	630.116
328.270	16.129	837.172	629.994
329.285	16.121	836.851	629.665
330.300	16.266	835.676	629.265
331.314	16.169	835.459	628.684
332.329	16.276	834.686	628.445
333.343	16.388	833.971	628.268
334.358	16.285	833.632	627.577
335.373	16.407	833.034	627.523
336.387	16.220	832.538	626.400
337.402	16.402	832.193	626.760
338.416	16.588	831.389	626.786
339.431	16.484	830.994	626.049
340.446	16.476	830.708	625.750
341.460	16.560	829.697	625.244
342.475	16.472	829.467	624.690
343.489	16.548	829.075	624.619
344.504	16.676	828.178	624.361
345.519	16.626	827.799	623.834
346.533	16.777	827.057	623.776
347.548	16.863	826.664	623.740
348.562	16.792	825.973	622.904
349.577	16.655	825.574	622.044
350.592	16.706	824.675	621.501
351.606	16.580	824.442	620.808
352.621	16.582	823.966	620.402
353.635	16.643	823.587	620.281
354.650	16.498	823.288	619.474
355.665	16.701	822.666	619.691
356.679	16.619	822.379	619.121
357.694	16.555	822.182	618.684
358.708	16.715	821.361	618.595
359.723	16.635	820.930	617.925
360.738	16.793	820.154	617.863
361.752	16.695	819.982	617.321
362.767	16.700	819.339	616.799
363.781	16.908	818.478	616.853
364.796	16.770	818.544	616.347
365.810	16.901	818.353	616.627
366.825	16.915	817.711	616.139
367.840	16.948	817.276	615.875
368.854	17.000	816.663	615.547
369.869	16.939	816.363	615.044
370.883	17.027	815.717	614.824
371.898	16.893	815.585	614.185
372.913	17.034	814.387	613.737
373.927	17.053	814.301	613.687
374.942	16.959	813.689	612.832
375.956	17.106	812.874	612.696
376.971	17.288	812.234	612.814
377.986	17.164	811.686	611.901
379.000	17.277	811.264	611.936
380.015	17.362	810.692	611.757
381.029	17.209	810.510	611.012
382.044	17.107	810.411	610.519
383.059	17.202	809.314	609.977
384.073	17.235	808.503	609.430
385.088	17.193	807.942	608.802
386.102	17.099	807.810	608.315
387.117	17.161	807.211	608.030
388.132	16.941	807.141	607.138
389.146	17.118	806.697	607.383
390.161	17.120	805.981	606.796
391.175	17.350	805.829	607.450
392.190	17.414	804.965	606.972
393.205	17.352	804.582	606.412
394.219	17.253	803.851	605.453
395.234	17.235	803.614	605.155
396.248	17.302	803.010	604.885
397.263	17.206	802.374	604.013
398.278	17.056	802.324	603.390
399.292	17.245	801.490	603.379
400.307	17.131	801.231	602.726
401.321	17.239	800.993	602.878
402.336	17.384	800.293	602.810
403.350	17.520	799.700	602.793
404.365	17.329	799.675	602.044
405.380	17.308	799.233	601.584
406.394	17.402	798.649	601.424
407.409	17.578	797.925	601.446
408.423	17.479	798.027	601.121
409.438	17.596	797.415	601.017
410.453	17.579	797.091	600.661
411.467	17.621	796.625	600.404
412.482	17.735	795.710	600.064
413.496	17.603	795.781	599.598
414.511	17.790	795.111	599.700
415.526	17.864	794.659	599.566
416.540	17.677	794.730	598.907
417.555	17.713	794.026	598.450
418.569	17.781	793.506	598.244
419.584	17.794	793.071	597.909
420.599	17.922	792.362	597.768
421.613	111.042	1292.724	1474.114
422.628	95.436	1365.608	1474.222
