DTS Sentinel unit serial number:	SN413079Multiplexer serial number:	ORYXHardware model number:	OX4-SRSoftware version number:	ORYX F/W v4.00 Oryx Data Collector v3.7.2.0data status	okinstallation	princeton_trtdifferential loss correction	single-endedforward channel	channel 3reverse channel	N/Adate	2019/09/17time	07:44:35forward acquisition time	60.00reverse acquisition time	0.00gamma	496.2192k internal	0.2335k external	0.2335temperature offset calibration	0.9943default loss term (dB/km)	0.3790temperature slope calibration	1.0000multiplexer offset coefficient	1.0000multiplexer slope coefficient	1.0000fibre end	0.00T internal ref (°C)	27.16T ext. ref 1 (°C)	0.12T ext. ref 2 (°C)	22.00length (m)	temperature (°C)	Stokes	anti-Stokes-747.200	-59.407	-0.105	-0.045
-746.185	-200.000	0.028	0.160
-745.171	-61.116	0.191	0.081
-744.156	-68.568	-0.120	-0.047
-743.142	149.349	-0.075	-0.102
-742.127	-200.000	0.025	0.133
-741.112	295.260	0.049	-0.090
-740.098	604.857	-0.123	0.309
-739.083	-53.586	0.212	0.097
-738.069	800.000	-0.120	0.386
-737.054	18.845	-0.226	0.182
-736.039	-200.000	-0.006	0.055
-735.025	-135.652	-0.207	-0.025
-734.010	-1.712	0.042	-0.030
-732.996	11.276	-0.201	0.155
-731.981	-200.000	-0.001	-0.099
-730.966	66.873	-0.055	0.056
-729.952	-200.000	-0.001	0.189
-728.937	-68.660	0.261	0.101
-727.923	-108.498	-0.314	-0.068
-726.908	800.000	0.034	0.120
-725.894	-144.333	-0.227	-0.021
-724.879	305.889	-0.057	0.106
-723.864	625.661	-0.112	-0.283
-722.850	-34.930	-0.136	-0.075
-721.835	-200.000	-0.022	-0.164
-720.821	114.024	-0.041	-0.050
-719.806	72.011	0.346	0.362
-718.791	240.128	-0.283	-0.473
-717.777	-97.367	-0.164	0.043
-716.762	35.426	0.273	-0.241
-715.748	-98.324	-0.046	-0.012
-714.733	26.606	-0.178	0.149
-713.718	454.025	0.127	-0.282
-712.704	438.207	-0.114	0.250
-711.689	-108.917	-0.278	-0.060
-710.675	210.070	0.287	-0.452
-709.660	-200.000	-0.043	-0.329
-708.645	-32.702	-0.139	-0.077
-707.631	-123.031	-0.240	-0.039
-706.616	-7.359	0.087	-0.059
-705.602	-37.291	-0.243	-0.130
-704.587	-200.000	0.041	-0.244
-703.572	-124.542	-0.404	-0.063
-702.558	-200.000	0.011	-0.065
-701.543	800.000	-0.030	-0.115
-700.529	232.551	-0.218	0.359
-699.514	103.798	0.164	-0.193
-698.499	-9.658	-0.174	-0.116
-697.485	732.988	-0.043	-0.115
-696.470	161.038	0.241	-0.338
-695.456	381.434	-0.091	-0.187
-694.441	619.986	0.143	0.361
-693.426	-200.000	-0.009	0.230
-692.412	-127.646	-0.443	-0.064
-691.397	71.517	0.029	0.030
-690.383	368.263	-0.106	0.215
-689.368	-200.000	0.032	0.274
-688.354	558.293	-0.084	-0.203
-687.339	117.804	-0.196	-0.241
-686.324	116.925	0.223	-0.275
-685.310	-27.701	-0.172	0.100
-684.295	197.759	0.172	-0.263
-683.281	-200.000	-0.026	-0.167
-682.266	-50.005	-0.249	0.119
-681.251	112.368	-0.155	-0.188
-680.237	-13.746	-0.545	-0.353
-679.222	-200.000	-0.015	-0.171
-678.208	-95.748	0.154	0.041
-677.193	-180.381	0.215	0.004
-676.178	177.173	-0.106	0.154
-675.164	-200.000	0.048	-0.439
-674.149	800.000	-0.029	-0.112
-673.135	-97.920	-0.212	0.055
-672.120	-81.978	0.173	0.057
-671.105	-200.000	-0.003	-0.323
-670.091	-200.000	-0.043	-0.224
-669.076	-124.670	0.375	-0.058
-668.062	-97.269	0.207	0.054
-667.047	-88.534	-0.093	0.028
-666.032	-137.449	0.078	0.009
-665.018	217.910	-0.090	-0.144
-664.003	475.045	0.161	-0.365
-662.989	800.000	0.048	-0.197
-661.974	82.011	0.106	0.115
-660.959	-1.441	-0.347	-0.245
-659.945	49.141	-0.133	0.125
-658.930	203.803	-0.136	-0.210
-657.916	-45.254	0.215	-0.107
-656.901	-84.890	-0.269	-0.084
-655.886	-85.906	0.141	0.044
-654.872	-85.057	0.082	0.026
-653.857	-46.863	0.084	-0.041
-652.843	-61.343	-0.381	0.161
-651.828	-200.000	-0.012	-0.180
-650.814	475.232	0.075	-0.171
-649.799	-196.597	-0.232	0.002
-648.784	-200.000	0.212	-0.000
-647.770	-54.986	-0.163	0.073
-646.755	663.158	-0.086	0.222
-645.741	-200.000	0.038	0.170
-644.726	35.750	-0.121	-0.107
-643.711	-9.059	0.323	-0.216
-642.697	-115.908	-0.114	0.021
-641.682	39.846	-0.222	-0.199
-640.668	31.713	-0.011	0.010
-639.653	47.901	-0.074	-0.069
-638.638	128.857	-0.250	-0.318
-637.624	98.636	-0.091	-0.105
-636.609	-114.855	-0.380	-0.072
-635.595	251.784	-0.090	0.153
-634.580	70.287	0.139	-0.144
-633.565	108.215	-0.105	0.125
-632.551	123.277	0.088	-0.110
-631.536	71.379	-0.079	0.082
-630.522	22.570	0.261	-0.213
-629.507	800.000	-0.046	0.197
-628.492	24.850	-0.106	0.088
-627.478	-200.000	0.005	0.225
-626.463	-17.828	0.044	0.028
-625.449	-22.805	0.203	0.123
-624.434	800.000	-0.052	-0.158
-623.419	5.381	0.081	-0.059
-622.405	-200.000	-0.029	0.213
-621.390	-174.971	-0.263	0.007
-620.376	-174.153	-0.200	0.006
-619.361	405.742	-0.086	0.181
-618.346	11.208	-0.203	0.155
-617.332	-173.630	0.261	-0.008
-616.317	-2.690	-0.100	0.070
-615.303	-141.804	0.398	0.040
-614.288	362.449	-0.060	0.121
-613.273	-119.268	-0.121	0.021
-612.259	-155.024	0.117	-0.008
-611.244	-184.068	-0.343	-0.006
-610.230	460.108	0.031	0.068
-609.215	84.702	0.290	0.317
-608.201	60.195	0.147	-0.145
-607.186	25.502	0.259	0.215
-606.171	-17.392	-0.241	0.152
-605.157	-68.064	0.296	-0.115
-604.142	293.532	-0.118	0.216
-603.128	-107.793	0.108	-0.024
-602.113	-200.000	0.029	-0.167
-601.098	-200.000	-0.004	0.025
-600.084	-200.000	-0.002	0.071
-599.069	389.063	-0.172	-0.356
-598.055	-200.000	-0.007	0.247
-597.040	-95.618	0.219	-0.059
-596.025	800.000	-0.050	0.153
-595.011	-16.433	0.152	0.097
-593.996	88.468	-0.055	0.061
-592.982	680.427	-0.090	0.233
-591.967	50.038	0.124	0.117
-590.952	98.816	0.104	0.119
-589.938	-200.000	-0.004	0.060
-588.923	203.673	-0.087	0.134
-587.909	47.271	0.033	-0.031
-586.894	800.000	0.021	0.091
-585.879	-200.000	-0.012	-0.326
-584.865	-94.503	0.069	0.019
-583.850	144.776	-0.065	0.086
-582.836	123.999	0.186	-0.233
-581.821	575.068	0.135	0.330
-580.806	800.000	0.038	0.136
-579.792	418.945	0.153	0.327
-578.777	-200.000	-0.046	-0.321
-577.763	-199.626	-0.050	-0.000
-576.748	-114.991	0.077	0.015
-575.733	-144.011	-0.204	-0.019
-574.719	800.000	0.038	-0.157
-573.704	26.902	-0.039	-0.033
-572.690	29.422	0.240	0.204
-571.675	-200.000	0.027	-0.137
-570.661	800.000	-0.117	-0.398
-569.646	158.629	-0.226	0.313
-568.631	-200.000	0.024	-0.147
-567.617	4.125	0.350	-0.255
-566.602	-84.549	-0.152	0.048
-565.588	-41.893	-0.212	0.109
-564.573	-179.541	-0.507	0.011
-563.558	-86.837	0.119	0.036
-562.544	-200.000	0.009	0.134
-561.529	-114.296	-0.044	0.009
-560.515	-6.150	-0.081	-0.055
-559.500	65.379	-0.088	0.089
-558.485	-53.293	-0.390	0.178
-557.471	800.000	-0.052	-0.181
-556.456	-165.281	0.495	0.022
-555.442	-151.596	0.206	0.015
-554.427	-200.000	0.010	-0.049
-553.412	800.000	-0.013	0.040
-552.398	-200.000	0.010	-0.060
-551.383	-45.397	-0.209	-0.104
-550.369	-67.281	-0.042	0.017
-549.354	-200.000	-0.018	0.293
-548.339	4.822	0.014	-0.010
-547.325	-48.382	-0.383	-0.184
-546.310	671.828	0.098	-0.253
-545.296	-52.752	-0.377	0.173
-544.281	358.316	-0.062	-0.123
-543.266	46.376	-0.138	0.128
-542.252	11.275	-0.157	-0.120
-541.237	89.880	0.183	0.204
-540.223	-200.000	-0.023	0.225
-539.208	148.414	-0.153	-0.206
-538.193	135.150	-0.363	-0.470
-537.179	412.156	0.175	0.370
-536.164	800.000	-0.102	0.417
-535.150	-200.000	0.020	-0.301
-534.135	-2.621	0.203	0.142
-533.121	-60.022	0.147	0.063
-532.106	68.564	0.240	0.245
-531.091	218.318	-0.045	0.072
-530.077	139.253	0.140	0.184
-529.062	-200.000	0.012	-0.322
-528.048	800.000	-0.069	-0.277
-527.033	-75.767	-0.367	-0.130
-526.018	-12.557	-0.098	-0.064
-525.004	-85.719	0.250	-0.077
-523.989	800.000	-0.135	-0.483
-522.975	-2.026	0.241	0.169
-521.960	426.980	-0.132	-0.284
-520.945	53.095	0.269	0.256
-519.931	5.883	0.068	-0.050
-518.916	-105.677	-0.213	-0.048
-517.902	170.066	0.062	0.089
-516.887	-34.970	-0.068	-0.037
-515.872	-125.900	-0.100	0.015
-514.858	142.341	0.045	-0.060
-513.843	21.333	0.421	0.341
-512.829	139.413	0.098	0.128
-511.814	-24.181	-0.261	-0.155
-510.799	-74.599	0.149	0.053
-509.785	800.000	0.083	0.292
-508.770	378.523	-0.045	-0.091
-507.756	-200.000	-0.030	0.219
-506.741	-200.000	-0.088	-0.692
-505.726	800.000	-0.109	0.352
-504.712	61.861	0.070	0.070
-503.697	135.729	-0.208	0.269
-502.683	120.701	0.223	0.276
-501.668	86.711	0.123	0.135
-500.653	120.654	-0.250	0.309
-499.639	51.236	-0.154	-0.146
-498.624	-98.734	0.052	0.013
-497.610	-96.984	0.225	0.059
-496.595	800.000	0.033	0.092
-495.581	-91.660	0.067	-0.019
-494.566	79.851	0.204	0.219
-493.551	570.846	0.058	-0.141
-492.537	-200.000	-0.017	-0.381
-491.522	-112.112	-0.542	-0.108
-490.508	-40.326	0.185	0.096
-489.493	-9.786	0.210	-0.139
-488.478	-200.000	0.021	-0.247
-487.464	800.000	0.074	-0.301
-486.449	-46.695	0.236	-0.115
-485.435	502.524	0.045	0.104
-484.420	49.373	0.182	0.170
-483.405	-33.791	0.461	0.252
-482.391	-200.000	-0.013	0.118
-481.376	556.436	0.019	-0.045
-480.362	573.200	0.012	-0.030
-479.347	676.866	-0.047	-0.121
-478.332	-127.561	0.278	0.040
-477.318	-127.449	-0.241	-0.035
-476.303	3.547	-0.119	-0.087
-475.289	125.614	0.077	-0.097
-474.274	-200.000	0.033	0.242
-473.259	21.561	0.393	-0.318
-472.245	-67.656	-0.322	-0.125
-471.230	207.302	0.163	0.253
-470.216	-77.453	-0.112	-0.039
-469.201	238.339	-0.102	0.168
-468.186	800.000	-0.072	-0.270
-467.172	90.916	-0.108	-0.120
-466.157	94.895	-0.053	0.060
-465.143	-145.804	0.269	-0.024
-464.128	215.598	0.188	-0.297
-463.113	-15.530	-0.290	-0.184
-462.099	-84.093	0.247	-0.078
-461.084	800.000	0.027	-0.095
-460.070	11.233	-0.027	-0.020
-459.055	120.430	-0.134	-0.165
-458.040	-87.594	-0.209	0.063
-457.026	17.370	0.330	-0.260
-456.011	497.027	0.119	-0.271
-454.997	121.604	-0.092	-0.114
-453.982	-74.543	0.100	0.036
-452.968	-62.207	-0.221	0.091
-451.953	462.533	0.194	0.430
-450.938	167.116	-0.024	0.034
-449.924	654.469	-0.054	-0.137
-448.909	-200.000	0.016	-0.094
-447.895	-200.000	-0.002	-0.146
-446.880	-0.346	-0.219	-0.154
-445.865	-164.331	0.066	0.003
-444.851	348.696	-0.108	-0.212
-443.836	438.898	0.055	0.119
-442.822	-107.506	-0.236	-0.051
-441.807	35.512	-0.151	0.132
-440.792	742.510	0.148	0.394
-439.778	101.581	0.260	-0.301
-438.763	-91.031	0.240	0.069
-437.749	-121.382	0.291	-0.048
-436.734	-91.261	-0.172	0.049
-435.719	217.334	0.101	0.159
-434.705	-200.000	-0.008	-0.055
-433.690	471.498	-0.236	0.527
-432.676	-138.509	0.174	-0.019
-431.661	17.717	0.251	0.199
-430.646	27.479	0.152	0.127
-429.632	9.815	-0.233	0.175
-428.617	-131.580	-0.133	0.017
-427.603	800.000	0.041	-0.143
-426.588	-95.128	-0.415	0.111
-425.573	-49.216	-0.447	-0.212
-424.559	528.836	0.083	0.195
-423.544	-87.934	0.271	0.081
-422.530	800.000	0.037	0.160
-421.515	-39.492	-0.278	-0.145
-420.500	185.730	0.140	0.207
-419.486	800.000	-0.104	0.310
-418.471	74.163	0.138	0.144
-417.457	386.532	-0.131	-0.269
-416.442	-200.000	-0.029	-0.358
-415.428	-115.698	0.399	-0.074
-414.413	705.570	0.036	0.094
-413.398	-29.532	0.056	0.032
-412.384	-200.000	-0.069	-0.303
-411.369	-200.000	0.018	0.236
-410.355	100.609	0.260	0.300
-409.340	800.000	-0.058	0.195
-408.325	289.193	0.030	-0.053
-407.311	450.478	-0.027	0.060
-406.296	-110.088	-0.121	0.025
-405.282	-14.172	0.184	-0.118
-404.267	264.600	-0.116	0.201
-403.252	-135.038	0.092	0.011
-402.238	-200.000	-0.013	-0.133
-401.223	800.000	-0.039	0.137
-400.209	-44.652	0.121	0.060
-399.194	786.424	-0.061	0.167
-398.179	-65.481	-0.045	-0.018
-397.165	-200.000	0.037	-0.168
-396.150	-193.540	0.410	-0.003
-395.136	-113.982	-0.082	0.016
-394.121	242.036	-0.115	-0.191
-393.106	-85.968	0.447	0.137
-392.092	-38.536	-0.118	-0.062
-391.077	-40.973	0.117	0.060
-390.063	800.000	0.092	0.379
-389.048	124.044	-0.252	0.314
-388.033	296.929	-0.059	0.107
-387.019	-200.000	0.035	0.291
-386.004	-127.577	0.233	0.033
-384.990	390.905	-0.091	0.188
-383.975	403.055	-0.078	-0.163
-382.960	-59.015	-0.218	0.093
-381.946	262.797	0.133	0.228
-380.931	-5.632	-0.216	-0.147
-379.917	-200.000	-0.086	-0.477
-378.902	-200.000	-0.320	-0.001
-377.888	-200.000	-0.023	-0.277
-376.873	-39.302	-0.178	-0.092
-375.858	-7.628	-0.302	0.202
-374.844	-200.000	-0.061	0.435
-373.829	573.352	-0.134	-0.323
-372.815	-177.487	-0.096	-0.002
-371.800	800.000	0.078	0.326
-370.785	-200.000	-0.033	-0.242
-369.771	-36.796	0.122	0.065
-368.756	792.353	-0.043	-0.116
-367.742	176.756	-0.023	-0.033
-366.727	114.964	-0.198	-0.239
-365.712	-87.302	0.044	0.013
-364.698	800.000	0.131	0.432
-363.683	785.867	-0.012	0.034
-362.669	-94.562	-0.492	0.133
-361.654	-101.504	0.251	0.060
-360.639	-92.507	0.324	-0.090
-359.625	800.000	-0.041	0.152
-358.610	-4.896	0.236	0.161
-357.596	177.358	-0.113	0.164
-356.581	-96.305	0.329	-0.086
-355.566	-2.980	0.105	0.073
-354.552	-110.285	-0.121	0.025
-353.537	-200.000	-0.016	0.413
-352.523	-200.000	-0.012	-0.279
-351.508	724.216	0.059	-0.155
-350.493	144.063	0.029	0.039
-349.479	56.164	-0.392	-0.377
-348.464	-200.000	-0.041	-0.281
-347.450	-111.919	-0.244	-0.049
-346.435	416.389	0.140	-0.295
-345.420	800.000	-0.050	-0.170
-344.406	-151.497	0.313	-0.023
-343.391	285.076	-0.171	0.305
-342.377	-14.553	-0.027	-0.017
-341.362	-200.000	-0.009	0.144
-340.348	-200.000	-0.013	-0.104
-339.333	-200.000	0.049	0.251
-338.318	-107.901	-0.086	-0.019
-337.304	-56.231	0.194	-0.085
-336.289	339.537	-0.028	-0.055
-335.275	-200.000	0.069	0.489
-334.260	-200.000	-0.001	0.142
-333.245	536.806	-0.158	0.371
-332.231	115.576	0.157	0.189
-331.216	-43.273	0.302	-0.151
-330.202	-56.551	-0.135	-0.059
-329.187	306.268	0.245	0.450
-328.172	800.000	0.041	-0.118
-327.158	-58.024	-0.174	-0.075
-326.143	21.254	-0.290	-0.233
-325.129	440.811	-0.105	-0.227
-324.114	-94.287	0.348	0.094
-323.099	198.457	0.107	-0.161
-322.085	800.000	-0.036	0.136
-321.070	-88.666	0.198	0.058
-320.056	557.535	0.081	-0.193
-319.041	-200.000	0.073	-0.388
-318.026	363.557	0.093	-0.185
-317.012	211.220	0.137	-0.213
-315.997	-200.000	-0.011	0.199
-314.983	-2.641	0.327	0.226
-313.968	-36.875	-0.345	-0.183
-312.953	800.000	-0.085	0.330
-311.939	-85.442	-0.029	0.009
-310.924	544.864	-0.064	-0.151
-309.910	-27.648	-0.256	-0.147
-308.895	-71.752	0.409	-0.151
-307.880	-200.000	0.010	-0.206
-306.866	138.717	-0.105	-0.136
-305.851	-200.000	0.033	-0.199
-304.837	130.432	-0.086	0.109
-303.822	411.227	0.067	-0.141
-302.807	148.720	0.328	-0.438
-301.793	-147.019	-0.342	0.029
-300.778	541.769	-0.135	-0.318
-299.764	-80.471	-0.196	-0.064
-298.749	-200.000	0.005	0.052
-297.735	-124.922	-0.101	-0.015
-296.720	800.000	-0.049	-0.142
-295.705	-127.602	0.106	-0.015
-294.691	278.603	0.157	-0.277
-293.676	-81.551	0.147	-0.048
-292.662	44.018	-0.143	-0.129
-291.647	21.383	0.083	0.067
-290.632	-174.780	0.168	-0.005
-289.618	423.147	-0.081	0.171
-288.603	689.017	0.069	-0.179
-287.589	-154.073	0.251	0.017
-286.574	-40.521	0.019	0.010
-285.559	-80.528	-0.425	-0.140
-284.545	543.076	0.077	-0.180
-283.530	51.450	-0.122	0.115
-282.516	141.092	0.102	0.133
-281.501	-112.764	-0.143	0.028
-280.486	-162.087	0.043	-0.002
-279.472	191.638	-0.153	0.227
-278.457	-151.416	-0.056	-0.004
-277.443	-74.217	0.284	-0.101
-276.428	-99.347	-0.346	0.086
-275.413	499.676	-0.081	-0.185
-274.399	-119.177	0.113	-0.019
-273.384	800.000	0.039	-0.161
-272.370	55.443	0.168	0.161
-271.355	-200.000	0.033	0.305
-270.340	-200.000	0.045	-0.201
-269.326	800.000	0.058	-0.226
-268.311	287.567	0.093	0.165
-267.297	-76.445	0.103	-0.036
-266.282	-200.000	-0.007	-0.066
-265.267	124.772	0.143	0.177
-264.253	297.237	-0.142	-0.258
-263.238	-131.128	0.212	-0.028
-262.224	145.187	-0.114	-0.150
-261.209	179.471	-0.155	-0.223
-260.195	-150.740	-0.120	-0.009
-259.180	-49.680	0.059	0.028
-258.165	-116.868	-0.431	-0.078
-257.151	-50.769	0.334	-0.155
-256.136	206.558	0.207	0.318
-255.122	800.000	-0.011	0.041
-254.107	-43.337	-0.397	-0.198
-253.092	-31.792	0.303	-0.168
-252.078	-107.118	-0.116	-0.025
-251.063	-125.779	0.128	0.019
-250.049	36.255	-0.263	-0.228
-249.034	409.251	-0.034	-0.072
-248.019	484.941	-0.162	-0.364
-247.005	74.428	-0.077	0.079
-245.990	-5.323	0.333	-0.226
-244.976	185.689	0.155	-0.227
-243.961	-177.656	-0.326	0.008
-242.946	-200.000	0.033	-0.220
-241.932	-130.547	0.480	0.064
-240.917	772.438	0.038	-0.101
-239.903	14.177	-0.140	0.108
-238.888	800.000	-0.025	0.081
-237.873	742.074	-0.072	0.191
-236.859	-99.311	-0.125	-0.031
-235.844	84.600	-0.145	0.156
-234.830	-56.301	0.318	0.139
-233.815	-200.000	-0.027	-0.209
-232.800	133.428	0.039	-0.050
-231.786	-57.292	-0.093	-0.040
-230.771	-13.891	0.259	-0.165
-229.757	374.554	-0.135	0.271
-228.742	383.716	-0.132	-0.268
-227.727	-79.224	0.291	0.097
-226.713	-107.599	-0.229	0.049
-225.698	551.899	-0.188	-0.443
-224.684	-200.000	-0.001	-0.122
-223.669	151.890	-0.038	-0.051
-222.655	-200.000	0.035	0.502
-221.640	-200.000	-0.030	-0.152
-220.625	99.545	0.074	0.084
-219.611	-153.990	0.090	0.006
-218.596	-125.412	0.041	-0.006
-217.582	-200.000	0.006	0.036
-216.567	288.932	-0.183	-0.326
-215.552	153.544	0.122	-0.165
-214.538	-61.880	0.040	0.017
-213.523	-62.663	-0.127	0.052
-212.509	-91.436	0.186	-0.052
-211.494	-188.599	-0.591	-0.007
-210.479	235.453	0.134	-0.217
-209.465	-51.939	0.264	-0.121
-208.450	25.200	0.192	-0.157
-207.436	-115.541	-0.146	0.027
-206.421	3.841	0.205	0.147
-205.406	386.808	-0.092	0.187
-204.392	-131.520	-0.266	0.034
-203.377	74.152	-0.219	-0.226
-202.363	-200.000	-0.002	-0.106
-201.348	-200.000	0.042	-0.331
-200.333	74.558	-0.071	0.074
-199.319	800.000	0.104	0.337
-198.304	75.469	-0.241	-0.250
-197.290	-132.087	0.332	0.042
-196.275	-86.089	0.223	-0.068
-195.260	-161.435	-0.376	-0.019
-194.246	-37.737	0.143	0.075
-193.231	94.222	-0.098	-0.109
-192.217	553.789	-0.069	0.162
-191.202	-6.716	0.364	0.244
-190.187	800.000	-0.057	-0.206
-189.173	63.795	-0.057	-0.056
-188.158	-36.970	-0.162	0.085
-187.144	-200.000	-0.066	0.285
-186.129	-105.223	-0.115	0.026
-185.114	483.304	0.103	0.230
-184.100	-27.640	0.169	-0.097
-183.085	-168.805	-0.283	-0.010
-182.071	800.000	0.022	0.070
-181.056	-116.782	0.136	0.025
-180.042	800.000	0.024	-0.098
-179.027	136.404	0.082	-0.105
-178.012	-102.709	-0.295	-0.069
-176.998	-83.008	-0.240	-0.076
-175.983	147.813	-0.040	-0.053
-174.969	-174.218	-0.164	0.005
-173.954	-200.000	0.018	0.157
-172.939	800.000	-0.091	0.294
-171.925	-67.318	0.290	0.112
-170.910	362.944	0.107	0.211
-169.896	162.355	-0.039	0.053
-168.881	-0.622	0.165	0.115
-167.866	58.921	-0.124	0.120
-166.852	-59.677	0.188	0.079
-165.837	293.943	0.059	0.106
-164.823	-23.689	-0.180	-0.106
-163.808	-129.196	0.248	-0.034
-162.793	-200.000	0.013	-0.146
-161.779	-92.288	-0.299	-0.083
-160.764	-200.000	-0.015	-0.281
-159.750	44.959	-0.079	-0.072
-158.735	140.462	0.158	0.205
-157.720	-200.000	0.037	0.223
-156.706	-200.000	0.015	-0.244
-155.691	-68.450	0.252	0.096
-154.677	-200.000	0.063	0.273
-153.662	-33.428	-0.188	0.102
-152.647	261.428	0.184	0.313
-151.633	662.694	-0.065	-0.164
-150.618	-2.498	0.252	-0.173
-149.604	-27.443	0.178	-0.102
-148.589	308.501	0.046	-0.085
-147.574	-7.682	-0.317	0.210
-146.560	160.484	-0.120	0.164
-145.545	-200.000	-0.002	0.169
-144.531	800.000	-0.079	0.262
-143.516	111.379	-0.034	0.041
-142.502	-165.654	-0.103	-0.004
-141.487	-65.818	-0.008	-0.003
-140.472	59.365	0.105	0.101
-139.458	33.106	-0.078	-0.066
-138.443	-149.719	-0.259	-0.020
-137.429	-24.848	0.255	-0.149
-136.414	-80.457	0.275	-0.090
-135.399	-200.000	-0.022	-0.237
-134.385	-43.041	-0.277	0.138
-133.370	13.865	-0.188	-0.143
-132.356	-72.725	-0.146	0.053
-131.341	164.149	0.044	-0.061
-130.326	114.226	0.080	-0.096
-129.312	-83.963	0.269	-0.084
-128.297	-200.000	0.035	-0.301
-127.283	13.083	-0.246	0.187
-126.268	-8.742	0.125	-0.082
-125.253	-158.086	0.118	-0.007
-124.239	-21.234	-0.205	0.123
-123.224	-149.960	0.193	0.015
-122.210	800.000	-0.043	0.182
-121.195	30.268	0.377	-0.316
-120.180	-200.000	0.004	-0.068
-119.166	800.000	-0.057	-0.223
-118.151	-200.000	0.021	-0.220
-117.137	56.153	-0.079	0.075
-116.122	-151.492	-0.240	-0.017
-115.107	-53.904	-0.214	0.096
-114.093	184.543	-0.159	0.231
-113.078	46.502	-0.258	-0.234
-112.064	-104.418	0.265	0.060
-111.049	378.822	-0.166	-0.332
-110.034	50.973	-0.156	0.145
-109.020	1.990	-0.155	0.109
-108.005	-100.480	0.234	-0.057
-106.991	-142.700	0.093	-0.009
-105.976	-73.272	0.128	0.046
-104.962	23.027	0.186	-0.149
-103.947	-115.961	0.197	0.036
-102.932	-189.041	-0.041	0.000
-101.918	-16.435	0.132	-0.082
-100.903	800.000	0.043	-0.165
-99.889	373.697	0.073	0.146
-98.874	-84.578	0.201	-0.062
-97.859	-21.093	-0.153	-0.092
-96.845	-200.000	0.020	-0.112
-95.830	15.094	-0.095	-0.073
-94.816	-200.000	-0.041	0.255
-93.801	-178.752	0.428	0.010
-92.786	-113.277	0.188	0.036
-91.772	6.713	0.107	-0.078
-90.757	-76.373	0.035	-0.012
-89.743	-22.912	-0.060	-0.036
-88.728	-33.157	0.127	0.069
-87.713	-28.437	-0.386	-0.218
-86.699	7.765	0.109	0.080
-85.684	227.209	0.118	0.188
-84.670	359.686	-0.034	0.066
-83.655	240.519	0.303	0.495
-82.640	-200.000	0.020	0.205
-81.626	-16.792	-0.101	-0.062
-80.611	42.734	-0.043	-0.038
-79.597	27.778	0.144	0.119
-78.582	-200.000	-0.008	0.246
-77.567	-33.243	0.245	-0.133
-76.553	-143.282	0.021	0.002
-75.538	-200.000	-0.027	0.133
-74.524	-37.586	-0.043	-0.023
-73.509	-28.488	-0.215	0.121
-72.494	4.463	-0.168	-0.121
-71.480	-99.537	-0.216	-0.053
-70.465	-200.000	0.004	0.101
-69.451	-200.000	-0.004	0.068
-68.436	120.872	0.107	-0.130
-67.422	-200.000	0.082	-0.375
-66.407	-200.000	0.027	-0.183
-65.392	-200.000	0.043	0.230
-64.378	-200.000	0.047	0.279
-63.363	-32.133	0.127	-0.069
-62.349	800.000	-0.076	0.277
-61.334	36.469	-1.091	-0.942
-60.319	357.978	0.333	0.651
-59.305	800.000	-0.305	-0.842
-58.290	320.514	0.821	1.526
-57.276	395.886	0.676	1.381
-56.261	-200.000	115.370	650.200
-55.246	473.142	1508.905	3325.897
-54.232	148.100	2671.320	3524.829
-53.217	102.809	2169.512	2483.863
-52.203	37.587	1696.486	1472.261
-51.188	30.180	1513.832	1263.453
-50.173	28.048	1489.189	1228.527
-49.159	52.198	1547.249	1442.410
-48.144	50.451	1562.311	1444.448
-47.130	30.433	1519.395	1269.625
-46.115	27.338	1504.005	1235.734
-45.100	27.197	1500.532	1231.876
-44.086	27.091	1498.553	1229.482
-43.071	27.152	1496.549	1228.200
-42.057	27.182	1494.753	1226.885
-41.042	27.150	1493.505	1225.594
-40.027	27.125	1492.138	1224.256
-39.013	27.102	1490.354	1222.588
-37.998	27.087	1489.201	1221.494
-36.984	27.017	1488.470	1220.375
-35.969	27.082	1486.486	1219.134
-34.954	27.062	1485.680	1218.294
-33.940	27.082	1483.958	1216.964
-32.925	27.133	1482.520	1216.081
-31.911	27.191	1481.347	1215.460
-30.896	27.169	1480.100	1214.236
-29.881	27.299	1478.668	1213.884
-28.867	27.219	1477.364	1212.230
-27.852	27.177	1476.075	1210.844
-26.838	27.254	1474.411	1209.947
-25.823	27.161	1473.157	1208.252
-24.809	27.159	1471.608	1206.917
-23.794	27.235	1470.246	1206.257
-22.779	27.109	1469.617	1204.859
-21.765	27.188	1468.090	1204.079
-20.750	27.188	1467.171	1203.281
-19.736	27.110	1466.052	1201.800
-18.721	27.185	1464.960	1201.350
-17.706	27.159	1463.943	1200.295
-16.692	27.194	1462.688	1199.451
-15.677	27.279	1461.497	1198.988
-14.663	27.246	1460.548	1197.943
-13.648	27.111	1459.539	1196.184
-12.633	27.134	1459.127	1195.951
-11.619	27.268	1458.070	1195.911
-10.604	27.162	1457.348	1194.577
-9.590	27.148	1456.386	1193.649
-8.575	27.155	1455.494	1192.915
-7.560	27.210	1454.833	1192.692
-6.546	27.203	1453.551	1191.544
-5.531	27.070	1452.873	1190.069
-4.517	27.062	1452.109	1189.345
-3.502	27.105	1450.685	1188.410
-2.487	27.178	1449.339	1187.741
-1.473	27.091	1448.843	1186.718
-0.458	27.151	1447.601	1186.045
0.556	25.387	1437.871	1175.111
1.571	22.319	1413.307	1135.175
2.586	18.949	1351.571	1064.659
3.600	17.211	1268.573	989.085
4.615	16.146	1224.001	948.264
5.629	14.002	1168.280	893.496
6.644	7.008	1085.040	794.725
7.659	1.243	1046.440	738.389
8.673	0.327	1040.518	729.713
9.688	0.031	1037.687	726.233
10.702	0.037	1036.121	725.102
11.717	0.066	1034.157	723.805
12.731	2.362	1036.037	736.115
13.746	9.756	1046.140	779.048
14.761	15.880	1053.577	814.220
15.775	17.095	1054.437	820.694
16.790	16.525	1052.212	816.138
17.804	15.467	1050.200	809.405
18.819	14.581	1048.402	803.683
19.834	14.086	1047.303	800.387
20.848	13.815	1046.322	798.264
21.863	13.580	1045.632	796.534
22.877	13.465	1044.542	795.080
23.892	13.189	1043.759	793.090
24.907	13.087	1042.869	791.857
25.921	13.110	1042.287	791.453
26.936	13.205	1041.559	791.285
27.950	13.231	1041.078	790.976
28.965	13.202	1040.467	790.302
29.980	13.286	1039.400	789.822
30.994	13.413	1038.211	789.457
32.009	13.338	1037.620	788.580
33.023	13.317	1037.112	788.022
34.038	13.301	1036.546	787.447
35.053	13.465	1035.375	787.266
36.067	13.400	1034.401	786.147
37.082	13.259	1033.627	784.824
38.096	13.283	1032.739	784.192
39.111	13.414	1031.777	784.012
40.126	13.475	1031.129	783.741
41.140	13.259	1030.225	781.963
42.155	13.174	1028.860	780.453
43.169	13.149	1028.026	779.633
44.184	13.173	1027.165	779.025
45.199	13.118	1026.215	777.978
46.213	13.128	1025.159	777.156
47.228	13.154	1024.246	776.516
48.242	13.121	1023.282	775.561
49.257	13.223	1022.234	775.179
50.271	13.180	1021.213	774.135
51.286	13.141	1020.463	773.313
52.301	13.330	1019.700	773.552
53.315	13.416	1018.589	773.040
54.330	13.367	1017.410	771.851
55.344	13.302	1016.775	770.997
56.359	13.231	1015.493	769.625
57.374	13.300	1014.785	769.341
58.388	13.166	1014.134	768.159
59.403	13.118	1013.405	767.315
60.417	13.145	1012.805	766.919
61.432	13.210	1011.802	766.393
62.447	13.085	1011.402	765.443
63.461	13.135	1010.135	764.646
64.476	12.975	1009.584	763.423
65.490	13.068	1008.681	763.102
66.505	13.093	1007.699	762.405
67.520	13.135	1007.260	762.199
68.534	13.209	1006.072	761.575
69.549	13.189	1005.653	761.099
70.563	13.236	1004.906	760.681
71.578	13.105	1004.368	759.606
72.593	13.205	1002.985	758.952
73.607	13.121	1002.146	757.864
74.622	13.001	1001.715	756.921
75.636	12.880	1000.641	755.488
76.651	12.925	999.984	755.132
77.666	12.991	999.370	754.901
78.680	13.085	998.331	754.482
79.695	13.185	997.919	754.560
80.709	13.046	997.358	753.432
81.724	13.178	995.983	752.929
82.739	13.116	995.360	752.107
83.753	13.129	994.947	751.790
84.768	13.257	993.925	751.534
85.782	13.232	993.479	751.016
86.797	13.381	992.921	751.203
87.812	13.513	991.235	750.462
88.826	13.323	990.986	749.342
89.841	13.260	990.295	748.472
90.855	13.224	989.618	747.732
91.870	13.313	989.051	747.639
92.884	13.278	988.243	746.804
93.899	13.396	987.323	746.574
94.914	13.277	986.937	745.678
95.928	13.464	985.721	745.535
96.943	13.477	984.895	744.902
97.957	13.435	984.323	744.217
98.972	13.399	984.046	743.779
99.987	13.415	982.927	742.940
101.001	13.285	982.227	741.762
102.016	13.296	981.777	741.406
103.030	13.341	980.405	740.507
104.045	13.332	979.413	739.650
105.060	13.345	978.225	738.748
106.074	13.248	977.677	737.836
107.089	13.270	976.905	737.285
108.103	13.299	976.003	736.669
109.118	13.278	974.975	735.732
110.133	13.172	974.652	734.952
111.147	13.283	973.268	734.336
112.162	13.319	972.371	733.755
113.176	13.196	971.889	732.781
114.191	13.310	970.703	732.327
115.206	13.410	969.646	731.907
116.220	13.262	969.051	730.739
117.235	13.274	968.429	730.259
118.249	13.426	967.635	730.266
119.264	13.284	966.908	729.025
120.279	13.318	965.785	728.267
121.293	13.365	964.975	727.794
122.308	13.245	964.243	726.653
123.322	13.359	963.029	726.174
124.337	13.252	962.687	725.382
125.352	13.175	961.702	724.236
126.366	13.227	960.553	723.537
127.381	13.204	959.134	722.303
128.395	13.182	957.933	721.241
129.410	13.225	957.406	720.968
130.424	13.243	956.695	720.446
131.439	13.196	956.036	719.679
132.454	13.201	955.136	718.961
133.468	13.313	954.282	718.743
134.483	13.346	954.011	718.617
135.497	13.262	953.104	717.504
136.512	13.439	952.218	717.541
137.527	13.237	951.713	716.221
138.541	13.345	950.306	715.568
139.556	13.233	949.768	714.615
140.570	13.142	949.641	714.065
141.585	13.285	948.424	713.704
142.600	13.397	947.873	713.710
143.614	13.464	946.781	713.110
144.629	13.396	946.270	712.370
145.643	13.450	945.413	711.896
146.658	13.526	944.188	711.236
147.673	13.445	943.799	710.532
148.687	13.373	942.886	709.473
149.702	13.456	941.830	708.973
150.716	13.395	940.959	707.992
151.731	13.232	941.101	707.337
152.746	13.365	939.940	706.970
153.760	13.368	939.365	706.489
154.775	13.336	938.584	705.703
155.789	13.522	937.149	705.356
156.804	13.526	936.501	704.819
157.819	13.546	935.932	704.416
158.833	13.518	935.652	704.022
159.848	13.519	935.025	703.494
160.862	13.532	934.082	702.778
161.877	13.703	932.859	702.519
162.892	13.549	932.595	701.605
163.906	13.353	931.717	700.053
164.921	13.480	930.851	699.879
165.935	13.533	930.045	699.434
166.950	13.636	929.057	699.064
167.964	13.476	928.273	697.739
168.979	13.427	927.036	696.541
169.994	13.526	926.345	696.376
171.008	13.561	925.209	695.607
172.023	13.646	924.209	695.151
173.037	13.696	923.679	694.898
174.052	13.782	923.151	694.800
175.067	13.579	922.784	693.613
176.081	13.558	921.982	692.860
177.096	13.680	920.898	692.494
178.110	13.590	920.375	691.662
179.125	13.612	919.437	690.989
180.140	13.592	918.818	690.380
181.154	13.602	918.368	690.024
182.169	13.681	917.625	689.734
183.183	13.687	917.020	689.241
184.198	13.762	915.993	688.720
185.213	13.820	915.573	688.583
186.227	13.769	914.684	687.645
187.242	13.837	914.312	687.586
188.256	13.895	913.649	687.267
189.271	13.938	912.722	686.686
190.286	13.800	912.494	685.882
191.300	13.876	911.323	685.255
192.315	13.731	910.691	684.119
193.329	13.613	910.008	683.060
194.344	13.539	909.932	682.640
195.359	13.683	909.053	682.513
196.373	13.720	908.879	682.473
197.388	13.734	908.258	682.004
198.402	13.985	907.241	682.210
199.417	13.960	907.125	681.961
200.432	14.101	906.411	681.941
201.446	13.999	906.188	681.296
202.461	14.096	905.656	681.231
203.475	14.054	905.232	680.681
204.490	14.256	904.447	680.858
205.504	14.224	903.536	679.978
206.519	14.136	902.536	678.806
207.534	14.173	901.693	678.266
208.548	14.040	901.498	677.518
209.563	14.026	900.678	676.783
210.577	14.115	900.298	676.800
211.592	14.085	899.754	676.207
212.607	14.154	899.193	676.006
213.621	14.288	898.568	676.020
214.636	14.238	897.770	675.159
215.650	14.076	897.226	674.035
216.665	14.186	896.790	674.092
217.680	14.248	896.119	673.778
218.694	14.111	895.956	673.044
219.709	14.275	895.467	673.279
220.723	14.324	894.875	672.973
221.738	14.350	893.439	671.936
222.753	14.219	893.325	671.264
223.767	14.343	892.282	670.919
224.782	14.311	891.307	669.997
225.796	14.482	890.484	670.010
226.811	14.393	890.009	669.235
227.826	14.330	889.460	668.511
228.840	14.435	889.053	668.563
229.855	14.385	888.497	667.887
230.869	14.312	887.530	666.809
231.884	14.360	886.556	666.211
232.899	14.359	886.138	665.834
233.913	14.353	885.625	665.365
234.928	14.380	884.997	664.941
235.942	14.314	884.259	664.066
236.957	14.380	883.614	663.787
237.972	14.376	882.676	663.006
238.986	14.420	882.195	662.762
240.001	14.466	881.426	662.310
241.015	14.531	880.830	662.059
242.030	14.431	880.636	661.456
243.045	14.460	879.509	660.668
244.059	14.463	879.417	660.554
245.074	14.495	877.983	659.542
246.088	14.571	877.638	659.528
247.103	14.574	877.325	659.247
248.117	14.606	876.494	658.689
249.132	14.665	876.516	658.880
250.147	14.794	875.433	658.514
251.161	14.812	874.673	657.957
252.176	14.905	874.284	657.970
253.190	14.812	873.719	657.122
254.205	14.900	873.041	656.902
255.220	14.932	872.208	656.343
256.234	14.983	871.607	656.029
257.249	14.888	871.274	655.351
258.263	15.008	870.640	655.283
259.278	14.942	869.729	654.284
260.293	14.899	869.540	653.915
261.307	14.956	868.955	653.640
262.322	15.136	868.059	653.609
263.336	15.098	867.658	653.102
264.351	15.031	867.069	652.341
265.366	15.112	866.350	652.056
266.380	15.163	865.856	651.827
267.395	15.208	864.965	651.273
268.409	15.108	864.698	650.623
269.424	15.040	863.925	649.722
270.439	15.099	863.470	649.553
271.453	15.093	862.284	648.579
272.468	14.991	861.914	647.848
273.482	15.079	861.234	647.621
274.497	15.188	860.630	647.529
275.512	15.207	859.488	646.687
276.526	15.172	859.188	646.269
277.541	15.139	858.536	645.595
278.555	15.221	858.009	645.457
279.570	15.218	857.419	644.945
280.585	15.172	856.793	644.237
281.599	15.392	856.437	644.760
282.614	15.362	855.549	643.918
283.628	15.291	854.529	642.821
284.643	15.357	854.782	643.210
285.657	15.347	854.080	642.584
286.672	15.372	853.333	642.062
287.687	15.311	852.908	641.453
288.701	15.511	852.476	641.835
289.716	15.396	851.963	640.950
290.730	15.435	851.181	640.455
291.745	15.390	850.590	639.782
292.760	15.411	850.146	639.471
293.774	15.504	849.436	639.235
294.789	15.480	849.045	638.794
295.803	15.577	848.455	638.662
296.818	15.495	847.656	637.694
297.833	15.505	847.130	637.280
298.847	15.541	846.084	636.570
299.862	15.502	845.713	636.091
300.876	15.535	845.345	635.879
301.891	15.557	844.215	635.056
302.906	15.676	843.547	634.948
303.920	15.590	842.718	633.945
304.935	15.619	842.518	633.846
305.949	15.769	841.789	633.806
306.964	15.809	841.191	633.451
307.979	15.655	840.519	632.310
308.993	15.723	840.290	632.339
310.008	15.711	840.101	632.094
311.022	15.838	839.533	632.089
312.037	15.913	838.721	631.700
313.052	15.833	837.901	630.727
314.066	15.815	837.303	630.157
315.081	15.776	836.856	629.618
316.095	15.681	836.318	628.802
317.110	15.835	835.827	628.953
318.125	15.696	835.302	627.983
319.139	15.757	834.804	627.780
320.154	15.827	834.120	627.471
321.168	15.777	834.130	627.236
322.183	15.912	833.285	627.048
323.197	15.878	832.701	626.429
324.212	15.778	832.173	625.605
325.227	15.874	831.517	625.409
326.241	15.745	831.500	624.864
327.256	15.990	830.480	624.949
328.270	15.959	830.287	624.636
329.285	15.948	829.471	623.925
330.300	15.774	829.090	622.937
331.314	15.913	828.309	622.813
332.329	15.950	827.578	622.345
333.343	15.980	827.137	622.068
334.358	15.940	826.535	621.411
335.373	15.988	825.782	620.967
336.387	16.113	825.659	621.280
337.402	16.204	825.004	621.068
338.416	16.132	824.672	620.497
339.431	15.971	824.207	619.501
340.446	16.177	823.257	619.491
341.460	16.283	822.856	619.522
342.475	16.352	822.391	619.369
343.489	16.352	821.472	618.622
344.504	16.322	821.332	618.353
345.519	16.208	821.085	617.696
346.533	16.371	820.201	617.573
347.548	16.433	819.582	617.277
348.562	16.308	819.067	616.378
349.577	16.335	818.466	615.971
350.592	16.337	818.167	615.699
351.606	16.249	817.622	614.912
352.621	16.188	817.311	614.401
353.635	16.277	816.821	614.302
354.650	16.338	816.366	614.129
355.665	16.384	815.740	613.771
356.679	16.483	815.041	613.550
357.694	16.365	814.958	613.004
358.708	16.368	814.394	612.536
359.723	16.371	813.862	612.095
360.738	16.427	813.521	611.985
361.752	16.546	812.602	611.670
362.767	16.542	812.521	611.540
363.781	16.498	812.265	611.136
364.796	16.580	811.363	610.696
365.810	16.572	810.865	610.240
366.825	16.786	810.220	610.473
367.840	16.765	809.938	610.129
368.854	16.611	809.763	609.391
369.869	16.752	809.291	609.488
370.883	16.618	808.766	608.557
371.898	16.650	807.985	608.032
372.913	16.749	807.439	607.920
373.927	16.754	806.909	607.488
374.942	16.679	806.399	606.780
375.956	16.673	805.876	606.310
376.971	16.628	805.905	606.118
377.986	16.868	804.423	605.809
379.000	16.885	803.944	605.455
380.015	16.957	803.498	605.320
381.029	16.908	803.162	604.839
382.044	16.810	802.614	604.023
383.059	16.835	802.270	603.800
384.073	16.827	801.553	603.180
385.088	16.959	801.069	603.232
386.102	16.844	800.355	602.232
387.117	16.826	800.171	601.975
388.132	16.855	799.609	601.603
389.146	17.002	798.943	601.570
390.161	16.987	798.862	601.404
391.175	16.999	798.676	601.250
392.190	17.098	797.828	600.911
393.205	17.089	797.416	600.517
394.219	16.952	797.240	599.845
395.234	16.968	796.651	599.405
396.248	16.964	796.011	598.856
397.263	16.976	795.550	598.499
398.278	16.786	795.192	597.508
399.292	16.981	794.622	597.714
400.307	16.875	794.544	597.228
401.321	17.117	793.681	597.379
402.336	17.004	793.395	596.711
403.350	17.103	793.021	596.728
404.365	17.133	792.534	596.412
405.380	17.145	792.126	596.094
406.394	17.207	791.618	595.877
407.409	17.318	791.131	595.847
408.423	17.322	790.972	595.688
409.438	17.227	790.499	594.946
410.453	17.198	790.386	594.708
411.467	17.292	789.591	594.385
412.482	17.386	788.945	594.176
413.496	17.375	788.508	593.756
414.511	17.484	788.003	593.701
415.526	17.533	787.713	593.604
416.540	17.492	787.340	593.126
417.555	17.319	787.160	592.334
418.569	17.310	786.711	591.912
419.584	17.472	786.332	592.139
420.599	17.560	785.765	591.965
421.613	111.437	1292.741	1477.166
422.628	95.611	1366.546	1477.250
