DTS Sentinel unit serial number:	SN413079Multiplexer serial number:	ORYXHardware model number:	OX4-SRSoftware version number:	ORYX F/W v4.00 Oryx Data Collector v3.7.2.0data status	okinstallation	princeton_trtdifferential loss correction	single-endedforward channel	channel 3reverse channel	N/Adate	2019/09/19time	00:32:35forward acquisition time	60.00reverse acquisition time	0.00gamma	496.2192k internal	0.2346k external	0.2346temperature offset calibration	0.9992default loss term (dB/km)	0.3790temperature slope calibration	1.0000multiplexer offset coefficient	1.0000multiplexer slope coefficient	1.0000fibre end	0.00T internal ref (°C)	22.42T ext. ref 1 (°C)	0.73T ext. ref 2 (°C)	15.36length (m)	temperature (°C)	Stokes	anti-Stokes-747.200	81.555	0.138	0.149
-746.185	68.396	-0.168	0.172
-745.171	-143.710	0.067	0.006
-744.156	-22.608	-0.212	0.128
-743.142	784.555	0.129	0.355
-742.127	-180.990	-0.213	-0.004
-741.112	800.000	0.051	0.203
-740.098	103.745	0.256	0.301
-739.083	61.331	0.219	-0.217
-738.069	-200.000	-0.078	0.347
-737.054	-103.909	0.027	0.006
-736.039	44.560	-0.405	-0.372
-735.025	266.592	0.129	0.226
-734.010	-200.000	-0.029	-0.172
-732.996	-200.000	0.010	0.282
-731.981	24.703	-0.230	-0.190
-730.966	-172.471	0.429	0.014
-729.952	43.011	-0.178	-0.162
-728.937	86.763	0.174	-0.191
-727.923	-96.850	-0.370	0.097
-726.908	87.250	0.146	-0.162
-725.894	-72.665	-0.113	0.042
-724.879	775.771	0.099	0.270
-723.864	800.000	-0.124	-0.370
-722.850	-81.795	0.098	-0.032
-721.835	328.553	-0.168	0.322
-720.821	-200.000	0.014	0.342
-719.806	-47.210	0.209	-0.102
-718.791	800.000	-0.060	0.217
-717.777	800.000	0.067	-0.203
-716.762	-107.315	0.137	-0.030
-715.748	-200.000	0.031	-0.378
-714.733	417.775	-0.182	-0.389
-713.718	157.734	-0.156	0.215
-712.704	-91.203	-0.116	-0.033
-711.689	128.873	-0.085	-0.108
-710.675	-178.184	0.103	-0.002
-709.660	-96.388	0.167	-0.044
-708.645	22.448	0.154	-0.126
-707.631	132.750	-0.258	-0.332
-706.616	-200.000	0.006	0.028
-705.602	-74.164	-0.257	0.093
-704.587	-150.224	-0.089	-0.007
-703.572	-144.926	0.093	0.008
-702.558	123.293	-0.167	-0.208
-701.543	-200.000	0.029	0.171
-700.529	38.350	0.027	-0.024
-699.514	383.558	-0.142	0.292
-698.499	15.009	-0.245	-0.191
-697.485	-73.448	0.102	0.037
-696.470	-82.959	0.146	-0.047
-695.456	619.406	-0.091	-0.228
-694.441	-152.243	-0.354	-0.026
-693.426	-200.000	-0.046	-0.243
-692.412	-41.400	-0.168	-0.086
-691.397	800.000	0.054	-0.210
-690.383	-42.590	0.099	-0.050
-689.368	-137.341	0.174	0.020
-688.354	-129.715	-0.338	0.047
-687.339	-135.430	-0.250	0.030
-686.324	150.491	0.161	0.218
-685.310	-11.745	0.119	-0.078
-684.295	-57.752	0.068	0.030
-683.281	606.428	0.093	-0.230
-682.266	117.157	0.114	0.140
-681.251	219.072	0.139	-0.222
-680.237	123.983	-0.395	-0.495
-679.222	-83.479	-0.111	-0.035
-678.208	-200.000	0.011	-0.165
-677.193	-156.999	0.228	-0.014
-676.178	-46.872	-0.326	-0.159
-675.164	-159.051	0.158	0.009
-674.149	-153.080	-0.236	0.017
-673.135	800.000	-0.006	-0.022
-672.120	-158.549	-0.216	0.012
-671.105	-200.000	-0.020	0.215
-670.091	-45.572	-0.033	0.016
-669.076	-81.442	0.207	-0.068
-668.062	-183.360	-0.284	-0.005
-667.047	121.587	0.062	-0.077
-666.032	-132.585	0.277	-0.035
-665.018	-200.000	0.035	-0.276
-664.003	-200.000	-0.017	0.193
-662.989	0.859	0.237	-0.169
-661.974	86.535	-0.317	-0.349
-660.959	-144.988	-0.323	0.029
-659.945	-41.462	-0.157	0.080
-658.930	-66.080	0.141	-0.056
-657.916	37.000	0.171	-0.151
-656.901	-70.664	-0.145	-0.055
-655.886	180.320	0.098	0.144
-654.872	8.063	-0.299	-0.223
-653.857	-129.006	0.202	-0.028
-652.843	307.225	-0.074	-0.137
-651.828	-10.680	0.277	0.182
-650.814	-99.531	-0.200	-0.050
-649.799	92.916	0.174	0.196
-648.784	800.000	0.027	-0.103
-647.770	-200.000	0.000	-0.046
-646.755	-57.116	-0.099	-0.043
-645.741	-106.999	-0.042	0.009
-644.726	68.960	-0.319	-0.326
-643.711	-200.000	0.053	0.239
-642.697	430.661	0.075	0.162
-641.682	-68.803	-0.183	0.071
-640.668	774.726	0.075	-0.203
-639.653	-84.342	0.154	-0.049
-638.638	166.999	0.150	-0.212
-637.624	-36.574	-0.188	-0.101
-636.609	51.674	-0.160	-0.151
-635.595	-85.481	0.159	-0.049
-634.580	-200.000	0.006	0.078
-633.565	-200.000	0.051	0.226
-632.551	-44.264	-0.098	-0.049
-631.536	69.729	-0.196	0.201
-630.522	147.524	0.183	-0.245
-629.507	-131.633	-0.207	0.027
-628.492	-200.000	0.030	-0.198
-627.478	113.826	-0.118	0.143
-626.463	54.626	0.063	-0.060
-625.449	800.000	0.014	0.039
-624.434	-81.512	-0.295	0.096
-623.419	40.218	-0.112	-0.100
-622.405	21.823	0.188	0.152
-621.390	168.112	0.076	0.107
-620.376	133.196	-0.181	0.233
-619.361	-200.000	0.001	-0.073
-618.346	-200.000	0.035	0.362
-617.332	-92.042	-0.185	-0.052
-616.317	138.984	-0.173	0.226
-615.303	-148.309	-0.058	-0.005
-614.288	276.956	-0.139	-0.245
-613.273	212.161	-0.171	-0.269
-612.259	800.000	0.102	0.387
-611.244	-200.000	-0.029	-0.219
-610.230	-200.000	0.004	0.201
-609.215	430.997	-0.096	0.206
-608.201	-14.851	-0.237	0.151
-607.186	-97.900	0.099	0.025
-606.171	-57.327	0.169	-0.074
-605.157	-11.503	0.228	0.149
-604.142	-51.869	0.122	-0.056
-603.128	800.000	-0.123	-0.348
-602.113	67.538	-0.076	-0.077
-601.098	-109.921	0.240	0.050
-600.084	800.000	0.058	0.221
-599.069	-68.950	-0.413	-0.159
-598.055	113.927	0.332	0.402
-597.040	115.905	0.221	0.269
-596.025	-164.725	-0.208	-0.009
-595.011	181.487	-0.217	0.317
-593.996	252.569	-0.085	0.144
-592.982	-28.093	0.497	0.286
-591.967	-77.180	-0.436	0.151
-590.952	-200.000	0.029	-0.234
-589.938	15.149	-0.196	-0.153
-588.923	373.388	-0.155	0.313
-587.909	800.000	-0.064	0.214
-586.894	42.786	-0.259	0.235
-585.879	58.183	0.135	0.132
-584.865	204.350	-0.090	0.138
-583.850	-68.930	-0.086	0.033
-582.836	61.537	0.141	0.140
-581.821	-129.177	-0.100	-0.014
-580.806	-200.000	-0.030	-0.156
-579.792	231.940	0.082	-0.134
-578.777	-105.061	-0.080	-0.018
-577.763	-15.473	-0.074	-0.047
-576.748	-21.666	0.194	-0.117
-575.733	-200.000	-0.001	-0.136
-574.719	61.351	-0.175	-0.173
-573.704	-200.000	-0.038	-0.181
-572.690	-14.747	0.035	0.022
-571.675	258.853	0.054	0.092
-570.661	-115.045	0.060	0.011
-569.646	653.971	-0.176	-0.449
-568.631	-139.437	-0.181	0.019
-567.617	295.761	0.141	0.257
-566.602	-172.143	-0.205	-0.007
-565.588	800.000	-0.081	-0.333
-564.573	-111.496	-0.134	-0.027
-563.558	-119.725	0.157	0.027
-562.544	-83.575	0.438	0.139
-561.529	-157.936	0.418	0.024
-560.515	-117.156	-0.054	-0.010
-559.500	-94.470	-0.477	0.129
-558.485	-111.579	-0.306	-0.062
-557.471	800.000	-0.119	0.359
-556.456	762.679	-0.064	-0.171
-555.442	51.824	-0.305	-0.288
-554.427	286.161	-0.077	-0.139
-553.412	69.428	0.089	-0.090
-552.398	693.568	0.137	0.357
-551.383	-200.000	-0.018	-0.206
-550.369	-82.958	-0.158	-0.050
-549.354	720.362	-0.096	-0.252
-548.339	-0.302	0.159	-0.112
-547.325	-192.446	0.158	-0.001
-546.310	-200.000	0.017	0.085
-545.296	78.241	-0.148	-0.157
-544.281	-74.303	0.124	-0.045
-543.266	-4.283	0.054	-0.037
-542.252	800.000	0.089	-0.276
-541.237	-158.500	-0.082	-0.005
-540.223	-70.956	0.111	-0.041
-539.208	10.073	-0.115	-0.087
-538.193	136.506	0.142	-0.184
-537.179	-200.000	0.009	-0.118
-536.164	-167.524	-0.231	0.009
-535.150	547.765	-0.051	0.121
-534.135	-121.624	-0.117	0.019
-533.121	45.740	0.233	-0.214
-532.106	-200.000	-0.014	0.234
-531.091	-157.347	-0.394	0.024
-530.077	-72.379	0.309	-0.113
-529.062	800.000	0.091	-0.269
-528.048	228.228	-0.050	0.080
-527.033	-200.000	-0.000	0.180
-526.018	-116.878	-0.389	0.071
-525.004	64.138	0.067	-0.067
-523.989	382.292	-0.055	-0.112
-522.975	800.000	0.118	0.438
-521.960	-29.416	0.252	0.143
-520.945	394.107	0.046	0.096
-519.931	509.925	-0.043	-0.099
-518.916	-200.000	0.087	-0.385
-517.902	479.866	-0.130	0.292
-516.887	219.392	-0.162	-0.257
-515.872	4.735	0.345	-0.252
-514.858	-121.353	-0.231	-0.038
-513.843	-120.783	0.132	-0.022
-512.829	-25.802	-0.340	-0.198
-511.814	-120.278	0.216	0.037
-510.799	257.268	0.221	0.376
-509.785	-200.000	0.236	-0.000
-508.770	800.000	0.055	-0.220
-507.756	78.534	-0.086	-0.091
-506.741	-200.000	-0.016	-0.201
-505.726	66.473	0.235	0.237
-504.712	693.560	-0.113	-0.293
-503.697	-88.705	-0.131	0.039
-502.683	-200.000	0.034	-0.285
-501.668	-62.248	0.135	-0.056
-500.653	-17.444	0.223	0.139
-499.639	187.652	0.047	-0.069
-498.624	-104.810	0.195	-0.044
-497.610	-115.773	-0.453	0.084
-496.595	-126.402	-0.210	-0.031
-495.581	-79.191	0.077	-0.026
-494.566	-90.257	0.443	0.128
-493.551	-83.855	-0.058	0.018
-492.537	126.439	-0.184	-0.230
-491.522	-21.539	0.196	-0.118
-490.508	593.381	-0.138	-0.338
-489.493	-200.000	0.006	-0.138
-488.478	-50.694	-0.103	-0.048
-487.464	-196.150	0.028	-0.000
-486.449	364.645	-0.040	-0.080
-485.435	-182.313	-0.115	-0.002
-484.420	76.488	0.217	-0.228
-483.405	633.509	0.099	0.248
-482.391	-200.000	-0.012	-0.210
-481.376	-200.000	-0.007	-0.044
-480.362	800.000	0.094	0.325
-479.347	-200.000	-0.016	0.215
-478.332	253.622	0.212	0.358
-477.318	-21.730	-0.182	0.110
-476.303	270.993	0.196	0.341
-475.289	-110.345	-0.131	0.027
-474.274	-56.260	-0.176	-0.077
-473.259	286.906	0.057	-0.101
-472.245	-104.417	-0.022	0.005
-471.230	216.013	-0.199	0.313
-470.216	27.174	0.297	-0.246
-469.201	-70.080	-0.292	-0.110
-468.186	38.946	0.213	-0.189
-467.172	-200.000	-0.052	-0.274
-466.157	-200.000	0.058	-0.361
-465.143	78.349	-0.172	-0.181
-464.128	7.112	-0.270	0.199
-463.113	20.746	0.236	0.189
-462.099	289.763	0.149	0.267
-461.084	170.118	0.017	0.024
-460.070	-200.000	-0.036	0.162
-459.055	-121.701	-0.290	0.047
-458.040	760.515	-0.125	0.335
-457.026	-147.739	0.242	-0.020
-456.011	-200.000	-0.007	0.045
-454.997	800.000	0.063	-0.254
-453.982	248.439	-0.068	-0.113
-452.968	87.181	0.062	0.068
-451.953	-112.624	-0.034	-0.007
-450.938	43.781	-0.045	0.040
-449.924	-161.519	0.321	-0.016
-448.909	-65.443	0.180	0.071
-447.895	-140.429	0.219	0.023
-446.880	800.000	0.066	0.199
-445.865	-200.000	-0.000	-0.184
-444.851	-200.000	-0.006	0.223
-443.836	-200.000	0.058	-0.431
-442.822	-110.459	0.123	0.025
-441.807	-108.127	0.406	-0.087
-440.792	118.643	0.265	-0.323
-439.778	551.488	0.028	-0.066
-438.763	148.095	-0.143	-0.191
-437.749	87.590	-0.174	-0.190
-436.734	-200.000	-0.035	-0.297
-435.719	-133.335	-0.267	-0.033
-434.705	92.249	-0.146	0.163
-433.690	128.301	0.177	-0.222
-432.676	-168.001	-0.237	0.009
-431.661	-161.600	0.159	0.008
-430.646	79.710	0.122	0.130
-429.632	731.227	-0.169	0.446
-428.617	111.485	-0.123	-0.147
-427.603	-82.341	0.193	-0.062
-426.588	-121.496	-0.335	-0.055
-425.573	437.490	0.133	0.287
-424.559	-129.284	-0.178	0.024
-423.544	38.433	-0.225	0.198
-422.530	-200.000	0.000	0.087
-421.515	-41.309	-0.027	0.014
-420.500	135.376	-0.053	0.068
-419.486	-93.035	0.148	-0.041
-418.471	-92.655	0.382	-0.106
-417.457	-200.000	-0.043	0.227
-416.442	-200.000	-0.018	-0.089
-415.428	90.199	-0.163	-0.180
-414.413	-200.000	-0.011	0.088
-413.398	196.900	-0.103	-0.155
-412.384	-158.920	-0.300	0.017
-411.369	-90.521	-0.371	0.106
-410.355	-196.470	0.171	0.001
-409.340	209.915	-0.074	0.115
-408.325	7.235	0.126	0.093
-407.311	173.660	0.091	0.129
-406.296	140.244	0.193	-0.251
-405.282	-129.049	0.086	0.012
-404.267	-200.000	0.011	-0.317
-403.252	159.569	0.075	-0.103
-402.238	52.871	-0.167	0.157
-401.223	800.000	-0.094	0.325
-400.209	-4.377	0.115	-0.079
-399.194	-153.421	-0.052	0.004
-398.179	-200.000	0.004	0.146
-397.165	-200.000	0.035	-0.298
-396.150	800.000	0.102	0.313
-395.136	158.029	-0.094	0.128
-394.121	-200.000	-0.009	0.376
-393.106	244.503	0.181	0.300
-392.092	-72.594	-0.206	-0.075
-391.077	-200.000	0.035	0.170
-390.063	-99.482	0.096	0.024
-389.048	269.283	0.187	0.323
-388.033	-107.228	-0.187	-0.041
-387.019	-200.000	-0.011	-0.226
-386.004	526.443	-0.160	0.372
-384.990	-200.000	-0.021	0.396
-383.975	-56.454	-0.141	0.062
-382.960	-200.000	0.028	0.465
-381.946	-52.413	-0.451	0.206
-380.931	-76.855	0.426	-0.147
-379.917	137.020	-0.200	-0.257
-378.902	-42.371	-0.154	0.078
-377.888	22.807	-0.329	-0.266
-376.873	-109.877	0.248	-0.051
-375.858	-76.389	0.207	0.072
-374.844	-200.000	0.009	-0.274
-373.829	86.705	0.059	-0.064
-372.815	800.000	0.032	-0.092
-371.800	27.600	0.134	-0.111
-370.785	368.116	-0.072	-0.144
-369.771	-200.000	0.022	-0.323
-368.756	23.426	-0.220	-0.179
-367.742	-200.000	-0.009	0.041
-366.727	800.000	-0.040	0.116
-365.712	66.176	-0.028	-0.028
-364.698	85.704	0.102	-0.110
-363.683	800.000	-0.095	-0.366
-362.669	230.698	0.097	0.157
-361.654	412.880	0.076	0.160
-360.639	35.042	-0.280	-0.241
-359.625	-85.519	-0.334	0.102
-358.610	-59.887	-0.294	-0.124
-357.596	-96.344	-0.041	-0.011
-356.581	674.647	-0.035	-0.090
-355.566	214.377	-0.073	-0.115
-354.552	800.000	0.037	0.140
-353.537	-152.287	-0.109	-0.008
-352.523	800.000	-0.030	0.094
-351.508	323.547	0.101	0.189
-350.493	800.000	0.092	0.317
-349.479	-57.619	-0.103	0.044
-348.464	-12.571	-0.378	-0.243
-347.450	-105.916	0.383	0.085
-346.435	-65.911	0.161	0.063
-345.420	-200.000	-0.021	0.123
-344.406	-63.298	-0.207	0.084
-343.391	423.484	0.027	0.058
-342.377	800.000	0.099	0.285
-341.362	235.203	0.112	0.182
-340.348	-50.177	0.351	0.163
-339.333	675.237	0.133	-0.341
-338.318	31.492	0.266	-0.225
-337.304	800.000	-0.058	0.199
-336.289	205.722	0.077	-0.117
-335.275	48.214	-0.101	-0.093
-334.260	-200.000	-0.073	-0.491
-333.245	-200.000	0.033	0.222
-332.231	254.716	-0.090	0.151
-331.216	324.657	-0.068	0.127
-330.202	-20.212	-0.197	0.120
-329.187	800.000	0.031	0.086
-328.172	354.135	-0.091	-0.178
-327.158	60.916	0.074	0.072
-326.143	-17.632	-0.089	0.055
-325.129	-160.657	-0.093	0.005
-324.114	451.161	-0.082	0.178
-323.099	97.492	0.274	-0.309
-322.085	127.471	-0.169	0.211
-321.070	109.263	0.286	0.337
-320.056	-200.000	0.194	-0.001
-319.041	378.486	-0.022	-0.044
-318.026	-45.529	0.013	-0.006
-317.012	-200.000	-0.031	-0.435
-315.997	800.000	0.075	0.316
-314.983	85.488	-0.231	0.249
-313.968	79.084	0.081	0.086
-312.953	800.000	-0.089	-0.241
-311.939	237.943	-0.134	-0.219
-310.924	-84.966	-0.075	0.023
-309.910	166.344	0.136	-0.190
-308.895	-10.573	0.226	0.147
-307.880	-133.155	-0.365	-0.045
-306.866	-200.000	-0.001	0.237
-305.851	10.086	-0.102	-0.076
-304.837	-26.251	0.127	0.073
-303.822	-94.258	-0.311	-0.083
-302.807	-122.661	0.296	-0.047
-301.793	43.474	-0.318	0.285
-300.778	113.730	-0.100	-0.120
-299.764	244.012	0.079	0.130
-298.749	-98.237	-0.286	-0.072
-297.735	333.038	0.189	0.359
-296.720	-49.799	0.233	0.109
-295.705	800.000	-0.107	0.358
-294.691	62.886	-0.132	-0.130
-293.676	66.351	-0.163	-0.163
-292.662	122.332	0.210	0.258
-291.647	235.186	-0.044	-0.072
-290.632	-106.879	0.191	0.042
-289.618	207.058	0.199	0.305
-288.603	84.134	0.328	0.352
-287.589	-200.000	-0.025	0.387
-286.574	372.576	0.059	0.118
-285.559	-80.860	0.197	0.064
-284.545	-17.858	-0.162	-0.100
-283.530	98.288	-0.201	-0.227
-282.516	800.000	0.082	-0.349
-281.501	-200.000	-0.002	0.044
-280.486	181.569	-0.143	0.206
-279.472	-115.916	-0.114	0.021
-278.457	169.744	0.155	-0.218
-277.443	248.581	-0.107	-0.178
-276.428	115.347	0.077	0.093
-275.413	-120.100	-0.289	0.049
-274.399	800.000	0.030	0.100
-273.384	-132.415	0.286	-0.036
-272.370	-66.470	0.192	0.075
-271.355	40.740	-0.226	0.200
-270.340	-114.696	0.146	-0.027
-269.326	-200.000	0.209	0.001
-268.311	333.449	0.080	-0.152
-267.297	800.000	-0.062	0.262
-266.282	-0.802	0.158	0.110
-265.267	-200.000	0.022	-0.204
-264.253	402.563	-0.056	-0.115
-263.238	-200.000	0.000	-0.023
-262.224	800.000	-0.104	-0.368
-261.209	180.767	0.081	0.117
-260.195	-92.990	-0.317	-0.087
-259.180	-200.000	-0.019	-0.237
-258.165	-39.226	-0.055	-0.028
-257.151	-200.000	-0.034	-0.255
-256.136	-95.585	0.117	-0.031
-255.122	208.280	-0.051	-0.078
-254.107	40.812	0.062	-0.055
-253.092	-104.965	0.182	-0.041
-252.078	306.162	-0.053	-0.096
-251.063	100.304	-0.075	0.086
-250.049	-94.344	-0.197	-0.053
-249.034	300.108	-0.114	0.207
-248.019	57.971	0.121	-0.116
-247.005	-145.925	0.152	0.013
-245.990	-200.000	-0.012	-0.175
-244.976	-200.000	0.060	0.280
-243.961	-200.000	0.018	0.144
-242.946	41.712	0.108	-0.096
-241.932	58.309	-0.079	0.076
-240.917	800.000	-0.043	-0.125
-239.903	578.761	0.144	0.344
-238.888	183.032	-0.128	0.185
-237.873	-100.425	0.108	0.026
-236.859	-200.000	0.007	0.275
-235.844	56.929	0.215	0.205
-234.830	151.517	0.135	0.180
-233.815	-108.649	-0.061	-0.013
-232.800	13.673	0.173	-0.132
-231.786	800.000	-0.087	-0.295
-230.771	-76.031	0.112	-0.039
-229.757	-62.704	0.165	-0.067
-228.742	29.020	0.029	-0.024
-227.727	254.369	0.059	-0.098
-226.713	-84.416	-0.292	-0.090
-225.698	-190.382	0.226	-0.002
-224.684	-56.864	-0.365	-0.158
-223.669	101.306	0.147	-0.168
-222.655	-15.485	0.305	0.191
-221.640	-200.000	0.039	0.166
-220.625	52.872	0.343	-0.321
-219.611	49.018	-0.139	-0.128
-218.596	-62.657	-0.172	0.070
-217.582	-113.022	0.204	-0.039
-216.567	-85.370	0.105	-0.032
-215.552	401.232	-0.132	-0.271
-214.538	30.377	0.112	-0.094
-213.523	-25.960	-0.262	-0.151
-212.509	-62.127	0.315	-0.129
-211.494	-27.553	-0.407	0.231
-210.479	-60.332	0.213	-0.089
-209.465	-32.974	-0.171	-0.093
-208.450	220.786	-0.115	0.181
-207.436	-200.000	0.034	-0.238
-206.421	-46.240	-0.255	-0.123
-205.406	551.086	0.147	0.345
-204.392	9.452	-0.188	0.140
-203.377	195.109	-0.045	-0.067
-202.363	-200.000	0.004	0.036
-201.348	-200.000	-0.007	-0.306
-200.333	-102.518	0.336	0.079
-199.319	-102.875	0.213	0.050
-198.304	-200.000	-0.016	-0.151
-197.290	-200.000	-0.042	-0.299
-196.275	-200.000	0.024	-0.124
-195.260	-1.836	0.260	-0.179
-194.246	114.131	-0.097	-0.116
-193.231	203.309	-0.099	-0.150
-192.217	-167.324	0.373	0.015
-191.202	-136.044	-0.248	-0.029
-190.187	-102.412	-0.089	-0.021
-189.173	-113.308	-0.394	0.076
-188.158	-37.352	0.104	-0.054
-187.144	10.751	-0.126	0.094
-186.129	-197.786	0.128	0.001
-185.114	17.247	0.281	0.218
-184.100	800.000	0.071	-0.233
-183.085	-56.458	-0.226	-0.098
-182.071	-59.498	0.175	-0.073
-181.056	800.000	0.034	0.143
-180.042	-62.574	0.321	0.130
-179.027	22.675	-0.255	-0.204
-178.012	113.696	-0.205	-0.243
-176.998	172.333	-0.061	0.086
-175.983	-200.000	-0.030	0.176
-174.969	800.000	0.016	0.049
-173.954	-96.632	-0.085	0.022
-172.939	800.000	0.035	-0.100
-171.925	-200.000	-0.029	0.529
-170.910	800.000	0.016	0.052
-169.896	-186.618	0.416	-0.006
-168.881	123.824	-0.107	0.131
-167.866	451.391	-0.041	-0.088
-166.852	503.934	0.092	0.208
-165.837	-120.663	0.129	-0.021
-164.823	-159.700	0.399	-0.022
-163.808	19.837	-0.318	0.250
-162.793	-46.468	0.162	-0.078
-161.779	165.301	-0.287	-0.397
-160.764	60.664	0.284	-0.275
-159.750	800.000	0.045	-0.173
-158.735	85.023	0.157	-0.168
-157.720	18.041	0.162	-0.126
-156.706	800.000	0.036	0.129
-155.691	-107.599	0.341	0.073
-154.677	22.425	0.194	-0.155
-153.662	32.565	-0.161	-0.136
-152.647	800.000	0.025	-0.106
-151.633	134.793	0.122	0.155
-150.618	117.733	0.197	0.237
-149.604	223.919	-0.061	-0.096
-148.589	57.155	-0.195	-0.186
-147.574	800.000	-0.048	-0.148
-146.560	800.000	0.068	0.203
-145.545	-52.553	-0.198	-0.090
-144.531	8.803	0.239	-0.176
-143.516	-200.000	-0.295	-0.000
-142.502	204.008	0.061	-0.092
-141.487	115.823	-0.255	0.305
-140.472	-200.000	0.009	-0.325
-139.458	312.950	0.122	0.224
-138.443	-125.861	-0.358	0.053
-137.429	-200.000	0.008	-0.044
-136.414	108.824	-0.143	-0.167
-135.399	346.217	0.144	0.277
-134.385	-200.000	0.048	-0.209
-133.370	800.000	-0.119	0.392
-132.356	368.469	0.197	0.389
-131.341	-147.872	-0.175	-0.014
-130.326	14.340	-0.070	-0.053
-129.312	800.000	0.038	-0.113
-128.297	523.052	-0.078	0.180
-127.283	197.244	0.150	0.223
-126.268	800.000	-0.061	-0.204
-125.253	-8.540	0.565	-0.370
-124.239	8.539	-0.258	0.190
-123.224	598.484	0.107	0.259
-122.210	562.454	-0.141	0.334
-121.195	-200.000	-0.024	-0.108
-120.180	287.094	-0.127	-0.223
-119.166	-153.033	-0.296	-0.020
-118.151	-48.344	0.205	-0.096
-117.137	-200.000	-0.043	-0.198
-116.122	800.000	-0.032	-0.120
-115.107	-200.000	0.012	0.109
-114.093	-105.059	-0.318	0.071
-113.078	256.572	0.067	0.112
-112.064	-72.559	0.314	0.113
-111.049	267.003	-0.005	0.009
-110.034	-127.603	-0.290	-0.041
-109.020	-200.000	-0.015	0.133
-108.005	-14.701	-0.055	0.034
-106.991	87.754	0.129	0.140
-105.976	46.398	0.038	-0.034
-104.962	-7.743	-0.349	0.230
-103.947	-200.000	0.021	0.105
-102.932	-47.266	0.177	0.084
-101.918	-157.352	0.410	0.024
-100.903	211.791	0.184	0.283
-99.889	-42.778	0.156	-0.077
-98.874	-200.000	0.019	0.109
-97.859	559.954	-0.057	0.133
-96.845	-111.147	-0.146	-0.029
-95.830	-85.836	0.153	0.046
-94.816	-116.845	0.341	-0.061
-93.801	800.000	0.017	-0.061
-92.786	39.345	-0.164	-0.144
-91.772	259.987	-0.065	-0.110
-90.757	24.829	-0.221	-0.178
-89.743	-106.885	0.186	0.040
-88.728	61.397	-0.163	-0.158
-87.713	-200.000	0.046	-0.371
-86.699	582.205	-0.042	-0.101
-85.684	-89.439	-0.266	0.076
-84.670	-28.271	0.242	0.136
-83.655	-200.000	0.013	-0.138
-82.640	-56.186	-0.152	0.066
-81.626	-45.427	0.250	0.121
-80.611	-34.554	-0.106	-0.056
-79.597	58.713	-0.188	0.180
-78.582	-200.000	-0.002	0.246
-77.567	-99.780	0.144	-0.035
-76.553	32.772	-0.048	0.041
-75.538	-68.857	0.296	-0.111
-74.524	-200.000	-0.043	0.195
-73.509	-80.253	-0.218	0.071
-72.494	-200.000	-0.016	-0.073
-71.480	-200.000	-0.008	0.166
-70.465	-200.000	-0.063	-0.348
-69.451	-61.980	-0.203	-0.083
-68.436	-51.191	-0.364	0.166
-67.422	146.066	0.173	0.226
-66.407	564.406	-0.100	0.236
-65.392	469.288	0.084	0.183
-64.378	-49.290	-0.144	-0.067
-63.363	71.163	0.155	0.157
-62.349	-12.025	0.270	0.172
-61.334	44.690	-0.984	-0.881
-60.319	38.931	0.873	0.760
-59.305	330.605	-0.514	-0.964
-58.290	540.408	0.649	1.503
-57.276	374.677	0.854	1.694
-56.261	-200.000	132.288	701.094
-55.246	374.876	1653.447	3278.767
-54.232	135.380	2795.440	3538.308
-53.217	92.827	2185.916	2402.301
-52.203	32.818	1698.927	1431.071
-51.188	25.450	1518.442	1228.816
-50.173	23.659	1495.117	1197.821
-49.159	47.943	1570.124	1427.404
-48.144	44.608	1580.789	1413.920
-47.130	25.505	1528.795	1237.377
-46.115	22.762	1512.272	1205.252
-45.100	22.518	1508.872	1200.830
-44.086	22.506	1506.974	1199.188
-43.071	22.484	1505.077	1197.479
-42.057	22.341	1503.730	1195.395
-41.042	22.392	1502.239	1194.508
-40.027	22.361	1500.583	1192.930
-39.013	22.285	1499.226	1191.290
-37.998	22.274	1498.146	1190.311
-36.984	22.393	1496.484	1189.746
-35.969	22.412	1495.371	1188.945
-34.954	22.459	1494.046	1188.160
-33.940	22.353	1492.783	1186.397
-32.925	22.340	1491.385	1185.148
-31.911	22.426	1490.103	1184.663
-30.896	22.393	1489.645	1184.031
-29.881	22.473	1488.161	1183.341
-28.867	22.467	1486.455	1181.892
-27.852	22.462	1485.124	1180.759
-26.838	22.473	1483.640	1179.601
-25.823	22.518	1482.284	1178.776
-24.809	22.381	1480.805	1176.638
-23.794	22.553	1479.130	1176.408
-22.779	22.441	1477.861	1174.609
-21.765	22.429	1477.107	1173.883
-20.750	22.563	1476.271	1174.066
-19.736	22.449	1474.820	1172.105
-18.721	22.453	1473.600	1171.114
-17.706	22.425	1472.630	1170.113
-16.692	22.443	1471.256	1169.093
-15.677	22.442	1470.277	1168.260
-14.663	22.346	1469.750	1167.163
-13.648	22.464	1468.586	1166.970
-12.633	22.428	1467.914	1166.152
-11.619	22.462	1467.236	1165.793
-10.604	22.409	1466.067	1164.467
-9.590	22.444	1465.300	1164.044
-8.575	22.449	1464.211	1163.166
-7.560	22.443	1463.762	1162.724
-6.546	22.436	1462.645	1161.742
-5.531	22.377	1462.266	1161.007
-4.517	22.389	1460.740	1159.831
-3.502	22.328	1459.709	1158.564
-2.487	22.349	1459.207	1158.255
-1.473	22.345	1457.985	1157.211
-0.458	22.323	1456.835	1156.113
0.556	21.308	1446.085	1143.542
1.571	17.812	1422.079	1101.922
2.586	14.259	1359.370	1031.264
3.600	12.513	1275.384	957.309
4.615	11.469	1231.965	918.764
5.629	10.183	1175.842	869.920
6.644	5.388	1095.965	786.674
7.659	1.337	1061.796	742.305
8.673	0.788	1056.548	735.896
9.688	0.713	1053.268	733.183
10.702	0.768	1051.145	731.909
11.717	0.662	1049.296	730.043
12.731	2.353	1049.234	738.103
13.746	8.033	1056.662	770.803
14.761	14.172	1064.912	806.601
15.775	16.999	1068.706	823.136
16.790	17.028	1067.090	821.961
17.804	16.041	1065.101	815.579
18.819	15.313	1062.927	810.326
19.834	14.830	1061.937	807.166
20.848	14.446	1060.968	804.508
21.863	14.264	1060.380	803.113
22.877	14.107	1059.237	801.417
23.892	13.800	1058.861	799.585
24.907	13.737	1057.795	798.405
25.921	13.685	1057.343	797.743
26.936	13.644	1057.017	797.229
27.950	13.671	1056.081	796.584
28.965	13.767	1055.155	796.275
29.980	13.917	1054.070	796.102
30.994	13.862	1053.439	795.295
32.009	13.912	1052.499	794.754
33.023	13.944	1051.534	794.109
34.038	13.920	1050.902	793.446
35.053	13.837	1050.030	792.321
36.067	13.924	1048.888	791.801
37.082	13.812	1048.240	790.709
38.096	13.943	1047.440	790.659
39.111	13.852	1046.943	789.782
40.126	13.959	1045.751	789.324
41.140	13.925	1044.615	788.234
42.155	13.767	1043.675	786.705
43.169	13.782	1043.140	786.303
44.184	13.713	1041.992	785.043
45.199	13.694	1040.624	783.853
46.213	13.780	1039.544	783.373
47.228	13.794	1038.669	782.711
48.242	13.813	1037.372	781.755
49.257	13.798	1036.727	781.131
50.271	13.843	1035.650	780.462
51.286	13.785	1034.768	779.452
52.301	13.863	1034.201	779.325
53.315	13.941	1033.026	778.735
54.330	13.936	1032.087	777.935
55.344	13.776	1031.643	776.785
56.359	13.898	1030.228	776.220
57.374	13.783	1029.972	775.418
58.388	13.861	1029.017	774.995
59.403	13.784	1028.361	774.075
60.417	13.674	1027.614	772.930
61.432	13.722	1026.864	772.522
62.447	13.878	1025.940	772.486
63.461	13.600	1025.795	771.012
64.476	13.626	1024.844	770.354
65.490	13.816	1023.203	769.931
66.505	13.693	1022.712	768.923
67.520	13.760	1021.505	768.259
68.534	13.820	1020.821	767.953
69.549	13.756	1020.175	767.103
70.563	13.796	1019.589	766.780
71.578	13.783	1019.005	766.215
72.593	13.793	1017.753	765.250
73.607	13.677	1016.949	764.045
74.622	13.665	1015.948	763.170
75.636	13.659	1015.105	762.439
76.651	13.700	1014.396	762.031
77.666	13.637	1013.737	761.175
78.680	13.694	1012.678	760.577
79.695	13.635	1012.663	760.225
80.709	13.623	1012.115	759.693
81.724	13.702	1011.222	759.318
82.739	13.742	1010.052	758.552
83.753	13.736	1009.283	757.882
84.768	13.841	1008.857	757.976
85.782	13.955	1007.561	757.456
86.797	13.926	1007.255	757.024
87.812	13.851	1006.228	755.846
88.826	13.833	1005.310	755.005
89.841	13.799	1004.790	754.397
90.855	13.937	1003.640	754.092
91.870	13.882	1003.266	753.495
92.884	13.968	1002.345	753.124
93.899	13.901	1001.868	752.396
94.914	13.851	1001.117	751.540
95.928	14.013	999.899	751.289
96.943	14.041	999.210	750.833
97.957	13.898	998.892	749.883
98.972	14.054	997.722	749.643
99.987	13.926	996.842	748.338
101.001	13.989	996.271	748.127
102.016	13.897	995.719	747.229
103.030	13.858	995.049	746.485
104.045	13.888	993.732	745.567
105.060	14.062	993.125	745.828
106.074	13.923	991.809	744.150
107.089	13.986	990.645	743.493
108.103	13.825	990.077	742.282
109.118	13.966	989.401	742.338
110.133	13.724	988.847	740.775
111.147	13.746	988.144	740.284
112.162	13.841	987.136	739.885
113.176	13.868	985.998	739.087
114.191	14.030	984.849	738.881
115.206	13.898	984.648	738.079
116.220	14.073	983.508	737.933
117.235	13.962	982.697	736.769
118.249	13.918	982.118	736.076
119.264	13.986	981.218	735.635
120.279	13.871	980.441	734.477
121.293	13.736	979.691	733.254
122.308	13.878	978.536	732.953
123.322	13.792	977.751	731.922
124.337	13.804	976.719	731.137
125.352	13.817	975.941	730.548
126.366	13.833	974.639	729.577
127.381	13.774	973.419	728.339
128.395	13.750	972.579	727.540
129.410	13.777	971.734	726.963
130.424	13.846	970.813	726.515
131.439	13.686	970.107	725.222
132.454	13.943	969.067	725.504
133.468	13.857	968.558	724.680
134.483	13.873	967.608	723.978
135.497	13.943	967.004	723.766
136.512	14.003	966.134	723.313
137.527	13.914	965.262	722.206
138.541	13.790	964.786	721.247
139.556	13.732	964.089	720.413
140.570	13.976	962.878	720.500
141.585	14.013	961.880	719.852
142.600	14.013	961.828	719.750
143.614	13.995	961.085	719.050
144.629	14.045	959.952	718.355
145.643	14.112	959.251	718.055
146.658	14.035	958.580	717.158
147.673	14.119	957.349	716.538
148.687	13.866	957.237	715.297
149.702	13.960	956.115	714.804
150.716	14.071	954.819	714.246
151.731	13.945	954.363	713.301
152.746	14.044	953.439	712.973
153.760	14.123	952.601	712.622
154.775	14.058	951.961	711.800
155.789	14.069	951.303	711.293
156.804	14.012	950.717	710.547
157.819	14.205	949.095	710.096
158.833	14.110	948.902	709.484
159.848	14.150	948.377	709.202
160.862	14.150	947.549	708.516
161.877	14.251	946.535	708.126
162.892	14.115	946.410	707.393
163.906	14.158	945.335	706.709
164.921	14.143	944.629	706.054
165.935	14.178	943.215	705.083
166.950	14.103	942.596	704.241
167.964	14.068	941.505	703.217
168.979	14.235	940.407	703.039
169.994	14.247	939.287	702.191
171.008	14.140	938.629	701.184
172.023	14.238	937.959	701.036
173.037	14.181	937.342	700.270
174.052	14.355	936.412	700.247
175.067	14.281	935.567	699.241
176.081	14.124	935.093	698.167
177.096	14.286	934.147	698.076
178.110	14.309	933.265	697.454
179.125	14.296	932.549	696.800
180.140	14.363	931.605	696.315
181.154	14.346	930.960	695.702
182.169	14.373	930.595	695.480
183.183	14.415	930.048	695.184
184.198	14.330	929.011	693.993
185.213	14.255	928.388	693.153
186.227	14.462	927.858	693.559
187.242	14.443	927.688	693.290
188.256	14.528	926.387	692.611
189.271	14.358	926.250	691.742
190.286	14.620	924.862	691.729
191.300	14.522	924.105	690.696
192.315	14.352	923.602	689.553
193.329	14.258	923.426	688.972
194.344	14.260	922.660	688.350
195.359	14.327	921.960	688.042
196.373	14.452	921.595	688.224
197.388	14.558	920.901	688.083
198.402	14.557	920.252	687.534
199.417	14.591	919.610	687.132
200.432	14.604	919.287	686.886
201.446	14.758	918.725	687.035
202.461	14.711	918.229	686.411
203.475	14.792	917.565	686.190
204.490	14.727	917.200	685.589
205.504	14.727	916.304	684.856
206.519	14.638	915.524	683.849
207.534	14.668	914.377	683.054
208.548	14.746	913.722	682.824
209.563	14.684	913.636	682.447
210.577	14.851	912.466	682.193
211.592	14.812	911.935	681.577
212.607	14.800	911.516	681.154
213.621	14.857	910.597	680.639
214.636	14.865	909.775	679.997
215.650	14.788	909.513	679.427
216.665	14.769	908.854	678.798
217.680	14.809	908.390	678.554
218.694	15.010	907.801	678.869
219.709	14.998	907.484	678.523
220.723	14.937	906.695	677.626
221.738	14.954	905.480	676.729
222.753	14.952	905.463	676.645
223.767	14.986	904.532	676.030
224.782	15.029	903.678	675.503
225.796	15.100	903.076	675.281
226.811	15.051	902.498	674.593
227.826	14.971	901.714	673.623
228.840	15.004	901.232	673.337
229.855	15.078	900.232	672.828
230.869	15.061	899.871	672.431
231.884	15.200	899.188	672.420
232.899	15.007	898.464	671.044
233.913	15.047	897.706	670.577
234.928	15.032	897.279	670.141
235.942	15.107	896.742	669.979
236.957	15.035	895.803	668.931
237.972	15.149	895.262	668.924
238.986	15.154	894.218	668.104
240.001	14.931	894.109	667.074
241.015	14.969	893.526	666.732
242.030	15.272	891.996	666.734
243.045	15.224	891.468	666.092
244.059	15.143	891.049	665.399
245.074	15.225	890.474	665.235
246.088	15.320	889.450	664.787
247.103	15.288	889.575	664.696
248.117	15.179	888.958	663.745
249.132	15.199	888.471	663.399
250.147	15.322	887.339	662.981
251.161	15.479	886.384	662.833
252.176	15.368	886.182	662.182
253.190	15.399	886.055	662.150
254.205	15.544	884.817	661.737
255.220	15.483	884.878	661.486
256.234	15.430	883.893	660.481
257.249	15.616	883.006	660.493
258.263	15.466	882.853	659.731
259.278	15.477	881.916	659.014
260.293	15.523	881.728	658.998
261.307	15.626	880.910	658.729
262.322	15.655	880.129	658.202
263.336	15.738	879.677	658.130
264.351	15.735	878.777	657.387
265.366	15.648	878.318	656.647
266.380	15.802	877.904	656.878
267.395	15.632	877.357	655.750
268.409	15.749	876.463	655.477
269.424	15.748	875.217	654.485
270.439	15.699	875.185	654.211
271.453	15.800	874.341	653.915
272.468	15.782	873.488	653.151
273.482	15.919	872.660	653.006
274.497	15.692	872.816	652.184
275.512	15.928	871.600	652.132
276.526	15.920	870.875	651.499
277.541	15.906	870.197	650.881
278.555	15.829	870.159	650.497
279.570	15.940	869.093	650.070
280.585	15.993	868.488	649.766
281.599	16.000	868.179	649.504
282.614	16.004	867.235	648.754
283.628	15.845	867.264	648.109
284.643	15.993	866.373	647.955
285.657	15.942	865.934	647.371
286.672	16.059	865.472	647.420
287.687	15.954	865.054	646.645
288.701	16.123	864.069	646.500
289.716	16.060	863.552	645.816
290.730	16.068	863.060	645.421
291.745	15.909	862.577	644.393
292.760	16.064	861.719	644.289
293.774	16.202	860.960	644.190
294.789	16.204	860.523	643.812
295.803	16.205	859.816	643.231
296.818	16.109	859.359	642.466
297.833	16.108	858.883	642.053
298.847	16.252	857.663	641.628
299.862	16.138	857.536	641.043
300.876	16.114	856.629	640.219
301.891	16.331	855.754	640.330
302.906	16.361	855.065	639.874
303.920	16.409	854.384	639.486
304.935	16.424	853.917	639.138
305.949	16.361	853.446	638.492
306.964	16.426	853.136	638.447
307.979	16.470	852.472	638.061
308.993	16.486	851.775	637.542
310.008	16.545	851.381	637.413
311.022	16.429	850.670	636.387
312.037	16.503	850.513	636.492
313.052	16.439	849.874	635.718
314.066	16.451	849.036	635.080
315.081	16.559	848.491	635.022
316.095	16.455	847.545	633.867
317.110	16.432	847.359	633.585
318.125	16.587	847.085	633.907
319.139	16.481	846.381	632.926
320.154	16.514	845.885	632.623
321.168	16.568	845.110	632.190
322.183	16.465	844.658	631.409
323.197	16.581	844.129	631.392
324.212	16.582	843.564	630.918
325.227	16.666	842.789	630.594
326.241	16.497	842.650	629.807
327.256	16.489	842.038	629.264
328.270	16.678	841.583	629.570
329.285	16.573	841.010	628.694
330.300	16.498	840.381	627.890
331.314	16.485	839.927	627.446
332.329	16.724	839.073	627.641
333.343	16.744	838.315	627.090
334.358	16.592	838.306	626.467
335.373	16.840	837.434	626.677
336.387	16.703	837.006	625.796
337.402	16.718	836.749	625.603
338.416	16.676	835.994	624.828
339.431	16.764	835.132	624.451
340.446	16.893	834.469	624.378
341.460	16.941	833.934	624.098
342.475	16.875	833.716	623.637
343.489	17.003	833.060	623.561
344.504	16.959	832.463	622.898
345.519	16.911	831.979	622.304
346.533	17.054	831.628	622.510
347.548	17.013	831.282	622.047
348.562	17.076	830.575	621.695
349.577	16.873	830.321	620.704
350.592	16.914	829.571	620.238
351.606	17.040	829.102	620.294
352.621	16.960	828.663	619.619
353.635	17.258	827.570	619.833
354.650	16.930	827.775	618.735
355.665	17.072	827.101	618.696
356.679	17.020	826.711	618.159
357.694	17.130	826.074	618.028
358.708	16.989	825.987	617.394
359.723	17.086	825.123	617.048
360.738	17.105	824.475	616.578
361.752	17.103	823.807	616.017
362.767	17.083	823.894	615.953
363.781	17.178	823.160	615.695
364.796	17.234	822.870	615.626
365.810	17.198	822.255	614.983
366.825	17.183	822.330	614.931
367.840	17.355	821.566	614.924
368.854	17.337	821.077	614.439
369.869	17.368	820.555	614.107
370.883	17.481	819.904	613.975
371.898	17.296	819.677	613.082
372.913	17.322	819.058	612.659
373.927	17.398	818.172	612.213
374.942	17.475	817.497	611.933
375.956	17.584	816.618	611.613
376.971	17.450	816.561	611.034
377.986	17.564	816.049	611.006
379.000	17.554	815.534	610.530
380.015	17.439	815.117	609.751
381.029	17.492	814.672	609.556
382.044	17.644	813.856	609.433
383.059	17.667	813.227	608.992
384.073	17.602	812.918	608.475
385.088	17.711	812.233	608.296
386.102	17.552	811.930	607.449
387.117	17.506	811.362	606.806
388.132	17.563	810.664	606.432
389.146	17.728	810.435	606.797
390.161	17.609	810.238	606.170
391.175	17.675	809.914	606.108
392.190	17.724	809.207	605.702
393.205	17.717	808.578	605.152
394.219	17.850	808.193	605.281
395.234	17.755	807.460	604.342
396.248	17.758	807.347	604.214
397.263	17.723	807.086	603.843
398.278	17.653	806.420	603.043
399.292	17.608	805.951	602.481
400.307	17.710	805.557	602.493
401.321	17.822	805.231	602.592
402.336	17.767	804.781	602.005
403.350	17.785	804.320	601.670
404.365	17.760	804.001	601.291
405.380	17.823	803.104	600.790
406.394	17.696	803.364	600.484
407.409	17.917	802.717	600.723
408.423	18.017	801.954	600.453
409.438	17.980	801.279	599.761
410.453	17.950	801.125	599.490
411.467	17.963	800.890	599.306
412.482	18.014	800.193	598.911
413.496	17.937	799.944	598.400
414.511	18.046	799.273	598.229
415.526	18.147	798.707	598.106
416.540	17.942	798.966	597.527
417.555	18.006	798.345	597.234
418.569	18.231	797.695	597.482
419.584	18.172	797.381	596.988
420.599	18.153	796.715	596.370
421.613	115.955	1298.428	1491.219
422.628	99.978	1371.477	1491.273
