DTS Sentinel unit serial number:	SN413079Multiplexer serial number:	ORYXHardware model number:	OX4-SRSoftware version number:	ORYX F/W v4.00 Oryx Data Collector v3.7.2.0data status	okinstallation	princeton_trtdifferential loss correction	single-endedforward channel	channel 3reverse channel	N/Adate	2019/09/17time	02:48:35forward acquisition time	60.00reverse acquisition time	0.00gamma	496.2192k internal	0.2323k external	0.2323temperature offset calibration	0.9944default loss term (dB/km)	0.3790temperature slope calibration	1.0000multiplexer offset coefficient	1.0000multiplexer slope coefficient	1.0000fibre end	0.00T internal ref (°C)	29.87T ext. ref 1 (°C)	0.14T ext. ref 2 (°C)	24.85length (m)	temperature (°C)	Stokes	anti-Stokes-747.200	-41.145	0.139	-0.072
-746.185	102.977	-0.263	0.312
-745.171	-112.434	-0.084	-0.017
-744.156	-14.889	-0.227	0.147
-743.142	335.169	-0.194	0.380
-742.127	-144.949	0.048	0.004
-741.112	-92.327	-0.392	0.111
-740.098	800.000	-0.130	0.429
-739.083	81.508	0.059	0.065
-738.069	-118.395	-0.212	-0.038
-737.054	-93.501	0.197	-0.055
-736.039	711.668	-0.083	-0.223
-735.025	794.748	0.117	-0.325
-734.010	471.748	0.070	-0.159
-732.996	-162.251	-0.264	-0.013
-731.981	-200.000	-0.022	-0.206
-730.966	-200.000	-0.031	-0.268
-729.952	144.078	-0.057	-0.077
-728.937	-200.000	0.008	-0.066
-727.923	306.089	-0.061	0.115
-726.908	-200.000	0.089	-0.411
-725.894	800.000	0.167	-0.529
-724.879	226.492	0.138	-0.226
-723.864	0.712	-0.483	0.348
-722.850	-75.750	-0.288	-0.103
-721.835	-72.244	-0.021	-0.008
-720.821	228.609	0.087	0.143
-719.806	-127.892	-0.121	-0.017
-718.791	98.593	-0.137	-0.160
-717.777	800.000	0.087	0.346
-716.762	439.361	0.129	-0.284
-715.748	-200.000	0.006	0.348
-714.733	800.000	-0.062	-0.183
-713.718	164.383	-0.160	-0.227
-712.704	800.000	0.091	0.314
-711.689	-91.485	0.063	-0.018
-710.675	-113.399	-0.261	-0.052
-709.660	800.000	-0.013	-0.055
-708.645	-55.230	0.092	-0.042
-707.631	-23.042	-0.235	-0.143
-706.616	-17.214	0.256	0.163
-705.602	-200.000	0.012	0.246
-704.587	800.000	-0.116	0.410
-703.572	-31.085	0.059	0.034
-702.558	107.419	0.320	-0.384
-701.543	-200.000	-0.035	0.283
-700.529	-200.000	0.011	0.164
-699.514	-124.331	0.103	-0.016
-698.499	152.235	0.147	0.203
-697.485	-200.000	-0.061	-0.000
-696.470	-116.530	0.081	-0.015
-695.456	-85.832	-0.096	-0.030
-694.441	-82.693	-0.216	0.070
-693.426	-200.000	-0.005	0.101
-692.412	-178.059	0.126	0.003
-691.397	-96.813	0.187	0.050
-690.383	74.772	0.132	-0.140
-689.368	-116.976	0.137	0.025
-688.354	-59.878	0.293	0.126
-687.339	800.000	0.051	0.142
-686.324	-114.356	0.251	-0.049
-685.310	-200.000	0.057	-0.576
-684.295	-124.814	-0.177	-0.028
-683.281	46.250	-0.162	0.152
-682.266	461.808	-0.036	-0.080
-681.251	-79.540	0.148	-0.050
-680.237	-200.000	0.029	-0.160
-679.222	571.511	-0.076	-0.188
-678.208	435.141	-0.123	-0.269
-677.193	8.842	-0.316	-0.240
-676.178	-68.339	0.463	0.181
-675.164	116.143	-0.264	-0.326
-674.149	-200.000	0.034	-0.240
-673.135	44.843	-0.241	0.223
-672.120	-121.029	-0.227	0.038
-671.105	-129.102	-0.433	-0.061
-670.091	32.830	0.252	-0.219
-669.076	-39.388	0.218	-0.115
-668.062	97.775	-0.186	0.215
-667.047	-167.860	-0.198	-0.008
-666.032	-50.625	0.177	-0.084
-665.018	-200.000	0.005	0.087
-664.003	-200.000	-0.006	0.161
-662.989	-147.316	-0.191	0.016
-661.974	83.252	0.241	-0.264
-660.959	-170.975	-0.112	-0.004
-659.945	15.611	0.046	0.036
-658.930	800.000	-0.080	0.291
-657.916	529.960	-0.066	0.157
-656.901	-200.000	-0.005	-0.026
-655.886	-60.656	0.157	0.067
-654.872	-43.745	0.250	-0.127
-653.857	800.000	-0.057	0.174
-652.843	248.241	0.089	0.152
-651.828	260.206	-0.114	0.198
-650.814	800.000	-0.091	0.332
-649.799	45.194	-0.083	0.077
-648.784	-44.704	-0.298	-0.150
-647.770	-58.957	-0.101	0.044
-646.755	-200.000	-0.014	0.126
-645.741	-200.000	-0.026	-0.226
-644.726	800.000	0.002	0.006
-643.711	-54.224	-0.074	0.034
-642.697	397.466	0.067	-0.140
-641.682	-53.916	-0.267	-0.122
-640.668	-122.317	0.368	-0.060
-639.653	-40.957	-0.274	-0.142
-638.638	-113.311	-0.059	0.012
-637.624	124.090	0.058	0.074
-636.609	150.273	-0.203	0.277
-635.595	800.000	0.078	-0.298
-634.580	-18.210	-0.221	0.139
-633.565	-200.000	-0.030	0.186
-632.551	63.809	-0.275	-0.278
-631.536	800.000	0.011	-0.033
-630.522	-139.341	-0.169	-0.018
-629.507	-90.485	0.380	0.111
-628.492	317.123	0.149	0.283
-627.478	-200.000	0.033	0.273
-626.463	317.669	-0.032	0.061
-625.449	-46.684	0.508	0.250
-624.434	74.514	-0.173	-0.183
-623.419	45.330	0.186	0.173
-622.405	-124.573	0.188	-0.029
-621.390	173.708	-0.092	-0.133
-620.376	324.562	-0.091	0.176
-619.361	800.000	-0.049	-0.211
-618.346	122.028	-0.030	0.038
-617.332	453.464	-0.075	-0.166
-616.317	-74.979	-0.158	0.057
-615.303	688.436	-0.091	0.240
-614.288	110.108	0.085	-0.103
-613.273	-200.000	-0.064	-0.294
-612.259	238.979	0.090	0.151
-611.244	-62.788	-0.271	-0.113
-610.230	136.484	-0.138	-0.182
-609.215	-171.942	0.160	0.005
-608.201	-200.000	0.029	-0.255
-607.186	414.515	-0.056	0.119
-606.171	-104.113	0.201	0.047
-605.157	82.594	0.154	-0.168
-604.142	390.338	0.038	0.079
-603.128	128.026	0.160	0.204
-602.113	-200.000	-0.012	0.000
-601.098	40.861	0.117	0.106
-600.084	800.000	0.051	0.214
-599.069	4.861	-0.345	0.255
-598.055	-84.157	-0.200	-0.064
-597.040	800.000	-0.127	-0.377
-596.025	-200.000	-0.016	-0.120
-595.011	62.236	0.057	0.057
-593.996	389.137	0.252	0.524
-592.982	-200.000	0.017	0.126
-591.967	-28.007	-0.178	-0.103
-590.952	-110.061	-0.146	0.031
-589.938	-105.895	0.112	-0.025
-588.923	-200.000	0.034	-0.161
-587.909	-200.000	-0.034	-0.276
-586.894	10.544	-0.078	-0.060
-585.879	-130.681	0.110	0.015
-584.865	-84.265	-0.227	0.072
-583.850	-35.957	-0.314	-0.170
-582.836	-62.881	0.187	0.078
-581.821	30.120	-0.115	0.099
-580.806	-200.000	-0.015	0.160
-579.792	-93.997	0.095	0.026
-578.777	-200.000	-0.025	0.293
-577.763	-118.527	0.126	-0.022
-576.748	336.352	0.073	0.142
-575.733	133.039	0.177	-0.229
-574.719	-101.392	0.214	0.052
-573.704	204.912	0.104	0.162
-572.690	42.482	-0.158	0.144
-571.675	119.964	-0.120	-0.149
-570.661	-200.000	-0.001	-0.181
-569.646	-20.666	-0.148	-0.091
-568.631	-94.923	0.154	0.042
-567.617	-79.426	-0.287	0.097
-566.602	-82.011	-0.107	-0.035
-565.588	563.314	0.128	-0.310
-564.573	-6.053	-0.354	-0.242
-563.558	50.479	0.078	-0.074
-562.544	800.000	0.046	0.147
-561.529	373.442	-0.055	0.112
-560.515	150.226	0.069	-0.094
-559.500	219.980	-0.132	-0.212
-558.485	112.491	0.053	-0.064
-557.471	-150.789	0.150	-0.011
-556.456	-52.270	-0.411	-0.191
-555.442	149.676	0.168	-0.229
-554.427	238.817	-0.057	-0.095
-553.412	800.000	0.038	0.105
-552.398	-176.146	0.229	-0.006
-551.383	485.707	0.086	-0.197
-550.369	28.253	-0.196	0.166
-549.354	-124.026	0.243	0.038
-548.339	6.347	-0.158	0.117
-547.325	430.283	0.042	-0.090
-546.310	-93.212	-0.303	0.084
-545.296	-121.118	-0.147	0.025
-544.281	50.236	-0.062	0.058
-543.266	-138.965	0.121	0.013
-542.252	-62.249	0.223	-0.093
-541.237	-107.276	0.311	-0.069
-540.223	245.473	-0.046	0.077
-539.208	-200.000	0.026	0.180
-538.193	-20.835	0.345	0.212
-537.179	-200.000	-0.007	-0.114
-536.164	148.445	-0.249	-0.337
-535.150	-89.765	0.068	-0.020
-534.135	-200.000	0.015	-0.171
-533.121	-83.153	0.272	-0.088
-532.106	142.821	0.185	-0.247
-531.091	509.492	0.030	0.069
-530.077	354.900	0.056	-0.112
-529.062	288.812	-0.076	-0.139
-528.048	-200.000	0.012	0.055
-527.033	-200.000	0.021	-0.324
-526.018	56.409	0.122	-0.118
-525.004	124.592	0.101	0.127
-523.989	-137.160	0.302	0.034
-522.975	-124.614	-0.187	0.029
-521.960	194.101	0.202	-0.306
-520.945	-3.188	0.153	-0.107
-519.931	800.000	0.072	0.244
-518.916	364.193	0.091	-0.182
-517.902	-41.008	0.240	-0.124
-516.887	-200.000	-0.007	-0.062
-515.872	214.499	0.122	-0.194
-514.858	-200.000	0.069	0.315
-513.843	-200.000	-0.013	0.498
-512.829	800.000	0.012	-0.049
-511.814	-102.895	-0.372	0.089
-510.799	7.001	0.111	-0.083
-509.785	468.315	-0.079	-0.177
-508.770	-24.260	0.374	-0.224
-507.756	44.722	0.181	0.167
-506.741	800.000	-0.044	-0.171
-505.726	-52.790	0.220	0.101
-504.712	455.436	-0.123	0.273
-503.697	-200.000	0.035	0.225
-502.683	-52.429	0.170	0.079
-501.668	-74.171	-0.168	-0.061
-500.653	-51.295	-0.181	-0.085
-499.639	-166.973	-0.072	-0.003
-498.624	-86.182	-0.210	0.065
-497.610	177.125	0.150	0.218
-496.595	-37.039	-0.189	-0.101
-495.581	-27.385	0.150	-0.087
-494.566	9.423	0.150	0.114
-493.551	59.874	-0.266	0.263
-492.537	-200.000	0.008	-0.105
-491.522	-178.115	0.186	-0.004
-490.508	43.016	-0.065	0.059
-489.493	226.804	-0.150	-0.243
-488.478	-120.146	-0.137	-0.023
-487.464	-72.836	-0.213	0.078
-486.449	-3.219	-0.061	0.043
-485.435	-13.959	-0.255	-0.165
-484.420	800.000	-0.014	-0.046
-483.405	-57.909	-0.088	0.038
-482.391	15.884	0.152	-0.120
-481.376	-86.370	-0.106	0.033
-480.362	75.150	0.173	-0.182
-479.347	800.000	-0.050	0.175
-478.332	-19.260	0.050	0.031
-477.318	-200.000	0.001	0.105
-476.303	574.720	-0.116	0.283
-475.289	225.645	-0.168	0.272
-474.274	-122.056	0.137	-0.023
-473.259	-200.000	-0.022	-0.148
-472.245	179.559	0.042	0.062
-471.230	-108.521	0.200	0.043
-470.216	-123.341	-0.106	-0.017
-469.201	-129.183	-0.116	0.016
-468.186	-56.370	0.080	-0.035
-467.172	-200.000	-0.024	-0.399
-466.157	-63.727	0.281	0.115
-465.143	-200.000	0.033	0.220
-464.128	-55.781	-0.150	-0.067
-463.113	20.066	0.094	0.076
-462.099	327.385	-0.076	-0.146
-461.084	-200.000	0.015	0.113
-460.070	-23.604	-0.173	0.104
-459.055	-200.000	0.019	0.129
-458.040	29.566	-0.070	0.059
-457.026	15.192	0.313	-0.245
-456.011	-200.000	0.005	-0.155
-454.997	-131.318	-0.219	-0.029
-453.982	-127.836	0.161	0.023
-452.968	-145.807	-0.281	0.025
-451.953	-98.349	-0.383	-0.098
-450.938	-120.028	-0.271	0.046
-449.924	-50.967	0.303	0.142
-448.909	141.940	0.153	0.203
-447.895	297.492	-0.187	0.343
-446.880	-37.224	-0.066	0.035
-445.865	178.112	0.148	-0.216
-444.851	800.000	-0.021	-0.061
-443.836	-116.048	-0.271	-0.050
-442.822	469.397	-0.016	0.036
-441.807	360.726	-0.056	0.113
-440.792	-109.816	-0.056	-0.012
-439.778	62.493	-0.283	0.283
-438.763	-154.081	0.330	-0.022
-437.749	133.067	0.133	-0.171
-436.734	-83.514	0.270	-0.086
-435.719	-76.866	-0.112	0.039
-434.705	-138.542	0.136	-0.015
-433.690	-184.852	-0.421	-0.007
-432.676	481.639	0.042	-0.096
-431.661	-101.319	-0.260	-0.063
-430.646	-200.000	0.072	-0.384
-429.632	475.711	0.079	-0.177
-428.617	3.907	-0.089	0.065
-427.603	800.000	0.049	0.158
-426.588	-200.000	0.014	0.247
-425.573	-33.380	-0.300	-0.165
-424.559	-30.268	-0.205	0.116
-423.544	800.000	-0.026	-0.112
-422.530	194.935	0.075	0.113
-421.515	-200.000	-0.114	0.592
-420.500	240.647	-0.120	0.199
-419.486	136.054	-0.118	0.153
-418.471	278.849	-0.163	0.290
-417.457	-69.323	0.164	0.063
-416.442	-21.879	0.142	-0.086
-415.428	-30.245	0.073	0.042
-414.413	151.139	-0.018	-0.024
-413.398	800.000	0.059	-0.251
-412.384	46.906	-0.089	-0.082
-411.369	-71.175	0.178	-0.067
-410.355	800.000	0.060	-0.166
-409.340	-200.000	-0.193	0.000
-408.325	800.000	-0.062	-0.264
-407.311	-23.041	0.500	-0.300
-406.296	-52.206	-0.188	-0.087
-405.282	99.008	0.175	-0.202
-404.267	59.173	-0.428	-0.420
-403.252	-123.507	-0.105	0.017
-402.238	280.743	-0.124	-0.222
-401.223	-132.312	0.120	-0.015
-400.209	379.184	0.039	-0.080
-399.194	-9.188	0.209	0.139
-398.179	-24.927	0.111	0.066
-397.165	-34.592	-0.144	0.079
-396.150	172.266	-0.159	-0.228
-395.136	-160.525	0.203	0.011
-394.121	117.712	-0.144	0.177
-393.106	-50.904	-0.129	0.061
-392.092	-92.289	-0.196	0.055
-391.077	800.000	0.148	0.428
-390.063	88.481	-0.226	-0.250
-389.048	-200.000	-0.008	-0.126
-388.033	161.710	-0.137	-0.191
-387.019	-104.979	-0.409	-0.093
-386.004	226.530	0.250	-0.403
-384.990	-200.000	-0.003	0.202
-383.975	300.661	0.018	-0.032
-382.960	8.042	-0.118	-0.088
-381.946	47.094	0.092	-0.086
-380.931	-68.702	-0.111	0.043
-379.917	28.587	0.315	0.265
-378.902	800.000	-0.015	0.048
-377.888	58.111	0.224	0.219
-376.873	236.470	-0.035	-0.057
-375.858	-200.000	0.054	-0.393
-374.844	-59.864	0.038	0.016
-373.829	54.350	-0.273	0.262
-372.815	-35.546	0.066	-0.035
-371.800	2.387	0.362	0.261
-370.785	-200.000	0.002	-0.106
-369.771	-146.299	0.040	0.003
-368.756	-200.000	0.031	-0.162
-367.742	-46.002	0.183	0.090
-366.727	-92.708	-0.242	-0.067
-365.712	48.615	-0.046	-0.043
-364.698	-110.250	-0.127	-0.026
-363.683	-132.083	0.113	0.015
-362.669	-200.000	-0.034	0.199
-361.654	-127.371	-0.172	-0.025
-360.639	800.000	-0.137	0.411
-359.625	800.000	0.032	0.101
-358.610	-200.000	0.002	-0.161
-357.596	125.837	0.305	-0.383
-356.581	279.168	-0.069	-0.122
-355.566	-45.418	-0.393	-0.194
-354.552	-44.305	-0.176	-0.088
-353.537	-119.822	-0.197	0.034
-352.523	23.889	0.178	0.146
-351.508	95.531	-0.334	0.379
-350.493	-84.086	0.249	0.079
-349.479	-40.390	-0.198	-0.102
-348.464	1.898	-0.067	-0.048
-347.450	323.766	-0.112	-0.212
-346.435	-27.795	-0.277	-0.160
-345.420	167.931	0.225	0.319
-344.406	-125.904	-0.287	0.043
-343.391	800.000	0.054	-0.156
-342.377	-26.786	-0.196	-0.114
-341.362	-59.695	0.377	-0.161
-340.348	-174.911	0.356	-0.010
-339.333	800.000	-0.087	0.245
-338.318	62.768	0.294	-0.292
-337.304	65.043	0.098	0.098
-336.289	204.184	0.161	0.248
-335.275	122.690	-0.130	-0.162
-334.260	185.076	0.228	0.336
-333.245	800.000	-0.138	-0.399
-332.231	800.000	-0.112	0.359
-331.216	-43.879	-0.217	-0.109
-330.202	-39.513	0.035	-0.018
-329.187	-200.000	-0.001	0.308
-328.172	78.930	0.130	0.138
-327.158	-81.482	-0.107	0.035
-326.143	329.038	0.108	-0.206
-325.129	-58.096	-0.262	-0.114
-324.114	193.406	0.080	-0.120
-323.099	-39.046	-0.216	0.113
-322.085	-200.000	-0.015	-0.077
-321.070	-92.611	-0.167	-0.047
-320.056	-110.105	-0.179	-0.037
-319.041	487.718	0.111	0.252
-318.026	-79.752	-0.394	-0.132
-317.012	185.210	0.249	0.367
-315.997	491.337	-0.091	0.208
-314.983	270.835	0.228	0.399
-313.968	-164.997	-0.292	0.013
-312.953	114.446	0.242	-0.293
-311.939	-11.434	-0.277	0.181
-310.924	-153.020	-0.190	-0.013
-309.910	202.976	0.179	0.274
-308.895	-122.511	0.202	0.033
-307.880	-83.543	0.266	0.084
-306.866	800.000	0.161	-0.454
-305.851	800.000	-0.053	-0.163
-304.837	-94.852	0.256	-0.069
-303.822	-18.766	-0.304	-0.188
-302.807	-200.000	0.044	-0.214
-301.793	28.290	-0.146	-0.122
-300.778	60.946	0.095	-0.094
-299.764	-68.569	-0.130	0.050
-298.749	35.578	0.466	0.406
-297.735	-20.296	0.164	0.100
-296.720	800.000	0.023	-0.092
-295.705	120.530	0.038	0.047
-294.691	30.106	0.088	-0.074
-293.676	174.496	-0.174	0.249
-292.662	-103.515	0.176	0.041
-291.647	-17.998	-0.065	0.041
-290.632	-61.922	0.133	-0.055
-289.618	123.010	0.216	-0.268
-288.603	-52.138	0.210	-0.097
-287.589	47.955	-0.123	-0.114
-286.574	-79.426	0.129	-0.043
-285.559	520.768	-0.100	0.232
-284.545	99.435	0.114	0.131
-283.530	96.499	-0.122	0.139
-282.516	259.304	-0.122	0.208
-281.501	213.836	0.195	-0.306
-280.486	135.499	-0.026	-0.034
-279.472	800.000	0.012	-0.045
-278.457	133.612	-0.162	0.208
-277.443	-36.712	0.391	-0.208
-276.428	159.257	-0.180	-0.249
-275.413	-110.522	0.106	0.022
-274.399	-85.526	-0.183	0.057
-273.384	-152.146	0.177	-0.013
-272.370	81.869	0.305	0.328
-271.355	-85.532	0.261	0.081
-270.340	800.000	0.014	-0.039
-269.326	800.000	-0.041	-0.161
-268.311	-49.127	0.077	0.037
-267.297	488.246	0.085	-0.191
-266.282	169.154	0.171	-0.242
-265.267	-138.026	0.441	0.049
-264.253	-90.428	-0.180	0.052
-263.238	-135.677	0.115	0.013
-262.224	-200.000	0.015	-0.119
-261.209	-200.000	0.002	-0.188
-260.195	-41.756	-0.275	0.140
-259.180	-151.039	0.111	-0.008
-258.165	586.243	-0.050	-0.121
-257.151	65.472	0.189	-0.189
-256.136	-159.387	-0.181	-0.010
-255.122	57.618	0.044	-0.043
-254.107	96.772	0.171	0.194
-253.092	800.000	0.082	-0.295
-252.078	-147.000	-0.192	0.016
-251.063	-58.125	0.026	0.011
-250.049	-118.440	-0.152	-0.027
-249.034	-76.715	0.153	0.053
-248.019	-200.000	0.036	0.190
-247.005	-11.343	-0.172	-0.112
-245.990	-200.000	0.032	0.331
-244.976	341.613	0.164	0.317
-243.961	-129.753	-0.182	-0.025
-242.946	73.360	0.154	0.159
-241.932	272.385	-0.133	-0.232
-240.917	304.258	-0.174	0.320
-239.903	800.000	0.029	0.096
-238.888	76.082	0.229	-0.239
-237.873	-200.000	0.046	0.403
-236.859	-132.486	-0.270	0.034
-235.844	17.695	-0.129	0.102
-234.830	101.716	0.255	0.294
-233.815	612.860	0.126	0.312
-232.800	56.562	0.069	0.067
-231.786	194.928	0.029	-0.044
-230.771	-4.453	0.024	0.016
-229.757	-200.000	-0.021	-0.122
-228.742	-200.000	-0.005	0.121
-227.727	90.982	-0.105	0.116
-226.713	164.240	-0.141	-0.197
-225.698	218.319	-0.028	0.044
-224.684	-33.458	0.253	-0.139
-223.669	-85.838	0.283	0.087
-222.655	800.000	-0.025	0.073
-221.640	800.000	0.127	-0.409
-220.625	-168.043	-0.234	-0.009
-219.611	348.007	-0.069	-0.135
-218.596	224.619	-0.081	-0.129
-217.582	419.445	0.101	0.214
-216.567	-78.393	-0.273	0.093
-215.552	104.554	0.385	-0.449
-214.538	48.215	-0.316	-0.292
-213.523	200.744	-0.060	-0.091
-212.509	-164.434	0.164	-0.007
-211.494	-106.694	-0.155	0.034
-210.479	800.000	-0.099	-0.338
-209.465	90.106	0.098	0.108
-208.450	-10.658	-0.038	0.025
-207.436	-105.116	-0.497	0.112
-206.421	800.000	-0.070	0.201
-205.406	-200.000	-0.002	-0.248
-204.392	-146.802	-0.082	-0.007
-203.377	159.262	0.275	0.378
-202.363	-200.000	-0.010	0.254
-201.348	-105.639	0.176	-0.039
-200.333	-168.449	0.247	0.009
-199.319	88.816	-0.225	0.248
-198.304	-200.000	0.001	0.059
-197.290	-110.194	0.165	-0.034
-196.275	-42.540	-0.270	-0.136
-195.260	-200.000	-0.006	0.046
-194.246	6.718	-0.342	0.252
-193.231	-5.286	0.160	0.108
-192.217	95.869	0.041	0.046
-191.202	-200.000	0.087	-0.434
-190.187	28.178	-0.138	0.115
-189.173	-86.267	0.188	-0.057
-188.158	154.331	0.133	0.180
-187.144	800.000	-0.097	0.325
-186.129	-126.066	0.180	-0.027
-185.114	800.000	-0.067	-0.287
-184.100	-44.561	0.101	0.050
-183.085	-50.571	-0.145	0.068
-182.071	-132.809	-0.286	0.036
-181.056	-71.688	-0.163	-0.060
-180.042	-200.000	-0.085	0.368
-179.027	682.994	0.063	0.163
-178.012	-49.072	0.072	-0.034
-176.998	-156.627	-0.328	0.020
-175.983	800.000	0.132	-0.402
-174.969	44.528	0.324	-0.294
-173.954	-132.395	0.413	-0.053
-172.939	-200.000	0.025	-0.362
-171.925	-200.000	0.034	0.186
-170.910	-200.000	0.004	0.055
-169.896	-38.969	0.252	-0.131
-168.881	-200.000	0.059	0.436
-167.866	13.942	-0.195	0.150
-166.852	472.745	0.108	0.240
-165.837	-200.000	-0.054	0.234
-164.823	170.519	-0.125	0.176
-163.808	800.000	-0.054	0.210
-162.793	-109.574	-0.288	-0.060
-161.779	-86.334	-0.120	0.036
-160.764	286.369	0.153	-0.273
-159.750	-103.209	0.167	-0.039
-158.735	-200.000	0.007	-0.416
-157.720	800.000	0.006	0.024
-156.706	83.795	0.130	-0.140
-155.691	82.800	-0.131	-0.141
-154.677	-200.000	0.023	-0.208
-153.662	715.360	0.067	-0.176
-152.647	-42.050	0.247	0.125
-151.633	-200.000	0.052	0.245
-150.618	-129.541	-0.203	0.028
-149.604	57.362	0.273	0.263
-148.589	-200.000	0.020	0.200
-147.574	-200.000	-0.051	0.314
-146.560	451.130	-0.074	-0.162
-145.545	-92.409	-0.108	0.030
-144.531	-195.214	-0.205	0.002
-143.516	91.130	-0.268	-0.297
-142.502	-150.317	-0.125	0.010
-141.487	70.552	0.232	-0.237
-140.472	386.883	-0.013	0.026
-139.458	377.036	-0.037	0.074
-138.443	-157.179	0.087	0.005
-137.429	-200.000	0.046	0.357
-136.414	295.271	0.116	0.210
-135.399	-200.000	-0.021	0.612
-134.385	800.000	-0.023	-0.076
-133.370	-109.918	-0.272	0.056
-132.356	-7.311	0.287	0.192
-131.341	-70.817	0.210	-0.078
-130.326	-62.489	0.399	0.164
-129.312	-200.000	0.098	0.514
-128.297	408.020	0.116	0.241
-127.283	-17.066	-0.160	0.100
-126.268	-99.448	0.215	-0.053
-125.253	-51.113	-0.135	0.062
-124.239	37.632	-0.185	-0.162
-123.224	60.633	0.155	0.151
-122.210	800.000	0.062	-0.185
-121.195	354.704	0.101	0.198
-120.180	-200.000	-0.029	-0.183
-119.166	-200.000	-0.038	-0.292
-118.151	800.000	0.100	0.294
-117.137	-200.000	-0.054	0.345
-116.122	307.669	0.088	0.162
-115.107	28.400	0.149	0.124
-114.093	-200.000	-0.032	0.378
-113.078	344.270	-0.168	0.326
-112.064	-85.863	-0.344	-0.105
-111.049	-107.194	0.265	-0.058
-110.034	-84.710	-0.628	0.195
-109.020	62.181	0.280	-0.275
-108.005	0.840	-0.220	0.155
-106.991	325.501	0.199	0.376
-105.976	516.955	0.082	0.188
-104.962	-62.695	-0.140	-0.057
-103.947	-10.319	-0.197	0.129
-102.932	-70.269	-0.213	0.080
-101.918	-81.712	0.146	-0.047
-100.903	-54.193	0.129	0.058
-99.889	225.176	-0.078	-0.124
-98.874	306.305	-0.083	0.152
-97.859	-93.131	0.241	-0.066
-96.845	-200.000	0.010	0.366
-95.830	800.000	-0.060	0.195
-94.816	549.562	-0.063	0.148
-93.801	-8.150	0.047	0.031
-92.786	-11.382	-0.120	0.078
-91.772	90.793	0.128	-0.141
-90.757	-110.519	-0.113	0.023
-89.743	169.152	-0.096	-0.134
-88.728	41.807	-0.137	-0.123
-87.713	-176.899	0.198	0.005
-86.699	-80.380	0.315	-0.104
-85.684	-200.000	-0.006	-0.315
-84.670	-22.769	0.089	0.053
-83.655	-74.696	0.134	-0.048
-82.640	-46.455	0.340	0.164
-81.626	-200.000	0.043	0.406
-80.611	800.000	-0.076	0.248
-79.597	231.600	0.070	0.113
-78.582	-200.000	0.048	0.269
-77.567	-200.000	0.023	0.132
-76.553	127.294	-0.066	-0.082
-75.538	-9.490	-0.225	0.147
-74.524	800.000	0.089	-0.306
-73.509	-200.000	-0.003	0.024
-72.494	-119.411	-0.113	0.019
-71.480	185.070	-0.145	-0.211
-70.465	86.338	0.052	-0.057
-69.451	39.616	-0.084	-0.074
-68.436	-0.676	0.084	0.059
-67.422	-98.982	0.347	0.086
-66.407	495.277	0.052	0.118
-65.392	-28.431	0.182	-0.103
-64.378	-116.761	0.433	0.078
-63.363	-163.539	-0.060	-0.003
-62.349	342.070	0.038	0.073
-61.334	228.194	-0.893	-1.430
-60.319	184.214	0.424	0.617
-59.305	800.000	-0.280	-0.949
-58.290	-200.000	0.133	1.226
-57.276	-200.000	0.285	1.713
-56.261	-200.000	106.272	577.973
-55.246	456.452	1459.534	3184.778
-54.232	149.146	2643.038	3515.658
-53.217	105.647	2178.048	2531.347
-52.203	40.190	1707.872	1509.643
-51.188	33.006	1519.826	1294.368
-50.173	30.658	1492.845	1255.510
-49.159	50.740	1546.634	1439.320
-48.144	51.259	1564.137	1459.123
-47.130	33.225	1521.186	1296.820
-46.115	30.255	1506.027	1263.650
-45.100	29.933	1503.000	1258.871
-44.086	29.925	1501.016	1257.110
-43.071	29.875	1498.811	1254.874
-42.057	29.887	1497.302	1253.640
-41.042	29.840	1496.010	1252.189
-40.027	29.875	1494.159	1250.826
-39.013	29.806	1492.477	1248.905
-37.998	29.792	1491.770	1248.170
-36.984	29.836	1490.061	1246.986
-35.969	29.831	1488.749	1245.805
-34.954	29.909	1487.254	1245.030
-33.940	29.899	1486.228	1244.050
-32.925	29.944	1484.856	1243.156
-31.911	29.838	1483.909	1241.605
-30.896	29.935	1482.511	1241.035
-29.881	29.991	1481.147	1240.218
-28.867	29.928	1479.797	1238.618
-27.852	29.907	1478.369	1237.235
-26.838	30.000	1476.499	1236.240
-25.823	29.977	1475.093	1234.859
-24.809	29.934	1473.696	1233.357
-23.794	29.946	1472.591	1232.458
-22.779	29.931	1471.592	1231.475
-21.765	29.855	1470.536	1230.040
-20.750	29.947	1468.930	1229.260
-19.736	29.899	1468.100	1228.198
-18.721	29.815	1467.269	1226.892
-17.706	29.921	1465.608	1226.158
-16.692	29.919	1464.629	1225.274
-15.677	29.875	1463.684	1224.147
-14.663	29.777	1462.854	1222.757
-13.648	29.868	1461.632	1222.287
-12.633	29.919	1460.717	1221.813
-11.619	29.864	1459.809	1220.639
-10.604	29.827	1458.667	1219.395
-9.590	29.827	1458.144	1218.907
-8.575	29.774	1457.721	1218.157
-7.560	29.808	1456.079	1216.957
-6.546	29.823	1455.402	1216.444
-5.531	29.867	1454.667	1216.068
-4.517	29.860	1453.452	1214.960
-3.502	29.882	1452.449	1214.215
-2.487	29.845	1451.657	1213.263
-1.473	29.681	1450.540	1211.206
-0.458	29.865	1449.116	1211.175
0.556	28.094	1439.511	1200.123
1.571	25.373	1414.389	1161.503
2.586	22.091	1354.605	1091.941
3.600	20.606	1272.313	1016.838
4.615	19.392	1227.314	973.941
5.629	16.881	1171.306	915.861
6.644	8.559	1085.610	806.946
7.659	1.489	1044.152	741.657
8.673	0.328	1039.117	732.378
9.688	0.218	1036.033	729.605
10.702	-0.041	1034.312	727.075
11.717	0.035	1032.476	726.089
12.731	2.726	1035.096	740.878
13.746	11.260	1046.216	790.295
14.761	17.184	1053.946	824.912
15.775	17.591	1052.751	825.876
16.790	16.537	1051.127	819.427
17.804	15.509	1048.232	812.127
18.819	14.627	1046.538	806.484
19.834	14.217	1045.156	803.367
20.848	13.836	1044.590	801.024
21.863	13.541	1044.069	799.132
22.877	13.418	1043.186	797.791
23.892	13.065	1042.313	795.352
24.907	13.072	1041.363	794.588
25.921	12.997	1040.924	793.826
26.936	13.134	1039.893	793.624
27.950	13.177	1039.097	793.154
28.965	13.206	1038.374	792.670
29.980	13.316	1037.220	792.249
30.994	13.346	1036.488	791.761
32.009	13.451	1035.592	791.509
33.023	13.479	1035.054	791.161
34.038	13.442	1034.522	790.510
35.053	13.279	1033.973	789.243
36.067	13.293	1032.525	788.133
37.082	13.256	1031.989	787.478
38.096	13.418	1030.915	787.361
39.111	13.235	1030.770	786.310
40.126	13.355	1029.588	785.906
41.140	13.265	1028.528	784.603
42.155	13.142	1027.617	783.252
43.169	13.046	1027.038	782.287
44.184	13.190	1025.570	781.780
45.199	13.084	1024.743	780.583
46.213	13.088	1024.073	780.019
47.228	13.078	1022.442	778.661
48.242	13.222	1021.493	778.551
49.257	13.200	1020.493	777.615
50.271	13.208	1019.663	776.949
51.286	13.145	1018.970	776.059
52.301	13.253	1018.210	775.916
53.315	13.196	1017.474	775.018
54.330	13.148	1016.855	774.256
55.344	13.131	1016.162	773.580
56.359	13.272	1014.293	772.746
57.374	13.242	1013.846	772.199
58.388	13.171	1013.016	771.167
59.403	13.178	1012.185	770.497
60.417	13.122	1011.309	769.503
61.432	13.020	1010.954	768.689
62.447	12.986	1010.373	768.022
63.461	13.059	1009.335	767.503
64.476	13.017	1007.994	766.223
65.490	13.006	1007.429	765.675
66.505	13.068	1006.843	765.450
67.520	12.892	1006.244	764.107
68.534	12.999	1005.469	763.946
69.549	13.084	1004.591	763.606
70.563	12.873	1004.225	762.285
71.578	13.085	1002.920	762.205
72.593	13.067	1002.186	761.497
73.607	12.992	1001.329	760.435
74.622	12.917	1000.532	759.416
75.636	13.046	999.407	759.090
76.651	12.951	998.751	758.088
77.666	13.052	997.808	757.768
78.680	13.045	997.095	757.125
79.695	12.963	996.649	756.343
80.709	13.060	996.186	756.372
81.724	13.096	995.134	755.669
82.739	13.076	994.537	755.056
83.753	13.167	993.502	754.622
84.768	13.201	992.822	754.192
85.782	13.208	992.471	753.893
86.797	13.238	991.501	753.224
87.812	13.359	990.522	752.963
88.826	13.271	989.786	751.939
89.841	13.261	989.130	751.329
90.855	13.417	987.947	751.071
91.870	13.256	987.725	750.105
92.884	13.294	987.414	749.976
93.899	13.405	986.167	749.465
94.914	13.391	985.215	748.614
95.928	13.277	984.941	747.823
96.943	13.337	984.075	747.372
97.957	13.314	983.074	746.440
98.972	13.370	982.272	746.015
99.987	13.265	981.664	745.016
101.001	13.364	980.950	744.855
102.016	13.312	980.539	744.243
103.030	13.252	979.592	743.185
104.045	13.278	978.231	742.205
105.060	13.353	977.026	741.563
106.074	13.252	976.273	740.471
107.089	13.286	975.311	739.830
108.103	13.169	974.844	738.888
109.118	13.228	973.628	738.163
110.133	13.202	973.092	737.574
111.147	13.067	972.539	736.489
112.162	13.131	971.621	736.014
113.176	13.234	970.954	735.901
114.191	13.076	970.107	734.490
115.206	13.108	969.086	733.796
116.220	13.237	968.189	733.624
117.235	13.222	967.335	732.844
118.249	13.143	966.673	731.931
119.264	13.268	965.188	731.295
120.279	13.184	965.053	730.754
121.293	13.164	963.980	729.789
122.308	13.053	963.362	728.767
123.322	13.113	962.115	728.022
124.337	13.073	961.073	726.995
125.352	13.229	960.197	726.956
126.366	13.027	959.052	725.137
127.381	13.149	957.949	724.773
128.395	13.131	957.500	724.289
129.410	13.109	956.578	723.433
130.424	13.134	955.557	722.704
131.439	13.218	954.437	722.161
132.454	13.332	953.728	722.059
133.468	13.253	952.670	720.849
134.483	13.219	952.808	720.740
135.497	13.265	951.697	720.039
136.512	13.290	950.869	719.456
137.527	13.166	950.065	718.245
138.541	13.186	949.415	717.777
139.556	13.143	948.940	717.167
140.570	13.283	948.383	717.290
141.585	13.285	947.339	716.447
142.600	13.270	947.158	716.183
143.614	13.474	946.088	716.193
144.629	13.346	945.145	714.863
145.643	13.436	944.335	714.574
146.658	13.344	943.701	713.636
147.673	13.351	942.648	712.804
148.687	13.301	941.988	712.026
149.702	13.247	941.007	710.991
150.716	13.298	939.892	710.303
151.731	13.263	939.273	709.622
152.746	13.400	938.311	709.421
153.760	13.274	938.235	708.760
154.775	13.363	936.966	708.121
155.789	13.447	936.208	707.843
156.804	13.384	934.945	706.557
157.819	13.401	934.877	706.519
158.833	13.288	934.351	705.576
159.848	13.485	933.740	705.892
160.862	13.533	933.025	705.490
161.877	13.588	931.991	704.881
162.892	13.499	931.157	703.810
163.906	13.530	930.073	703.061
164.921	13.460	929.424	702.209
165.935	13.269	928.543	700.672
166.950	13.559	927.343	700.934
167.964	13.384	926.976	699.855
168.979	13.434	926.421	699.586
169.994	13.308	925.120	698.008
171.008	13.334	924.513	697.600
172.023	13.482	923.656	697.513
173.037	13.526	922.489	696.756
174.052	13.523	922.058	696.355
175.067	13.543	921.340	695.837
176.081	13.508	920.583	695.055
177.096	13.479	919.823	694.300
178.110	13.453	919.040	693.539
179.125	13.520	918.363	693.245
180.140	13.430	917.612	692.240
181.154	13.593	916.726	692.190
182.169	13.519	916.220	691.442
183.183	13.672	915.572	691.527
184.198	13.594	915.047	690.746
185.213	13.672	914.144	690.327
186.227	13.649	913.309	689.541
187.242	13.688	913.143	689.514
188.256	13.761	912.281	689.105
189.271	13.901	911.483	689.025
190.286	13.831	910.550	687.967
191.300	13.713	910.024	687.023
192.315	13.497	909.514	685.680
193.329	13.504	908.687	685.024
194.344	13.706	907.596	684.977
195.359	13.626	907.378	684.422
196.373	13.627	907.250	684.270
197.388	13.733	906.421	684.021
198.402	13.786	905.714	683.645
199.417	13.905	905.600	683.986
200.432	13.864	905.334	683.559
201.446	13.923	904.455	683.077
202.461	13.926	904.292	682.904
203.475	14.030	903.764	682.871
204.490	13.966	903.068	682.025
205.504	13.946	902.252	681.265
206.519	13.899	901.255	680.259
207.534	13.784	901.103	679.612
208.548	13.833	899.984	678.909
209.563	13.919	899.350	678.722
210.577	14.028	898.762	678.663
211.592	14.110	897.634	678.087
212.607	14.110	897.717	678.088
213.621	14.024	896.923	677.078
214.636	13.950	896.407	676.328
215.650	13.979	895.509	675.711
216.665	14.046	895.000	675.536
217.680	14.143	894.599	675.571
218.694	14.206	894.084	675.378
219.709	14.254	893.391	674.989
220.723	14.246	892.798	674.447
221.738	14.233	892.082	673.796
222.753	14.196	891.390	673.064
223.767	14.212	890.587	672.462
224.782	14.458	889.541	672.603
225.796	14.293	889.111	671.554
226.811	14.212	888.637	670.811
227.826	14.244	888.199	670.552
228.840	14.415	887.097	670.347
229.855	14.265	886.372	669.136
230.869	14.309	885.822	668.837
231.884	14.316	885.135	668.288
232.899	14.254	884.779	667.714
233.913	14.237	884.057	667.042
234.928	14.294	883.122	666.502
235.942	14.352	882.273	666.036
236.957	14.273	881.884	665.369
237.972	14.156	881.244	664.361
238.986	14.165	881.027	664.172
240.001	14.332	880.299	664.232
241.015	14.325	879.375	663.445
242.030	14.315	878.871	662.967
243.045	14.390	878.139	662.653
244.059	14.300	877.736	661.936
245.074	14.380	876.776	661.468
246.088	14.323	876.323	660.845
247.103	14.450	875.668	660.794
248.117	14.377	875.374	660.225
249.132	14.521	874.503	660.081
250.147	14.620	873.983	660.020
251.161	14.644	873.441	659.648
252.176	14.718	872.534	659.195
253.190	14.671	872.190	658.695
254.205	14.659	871.486	658.056
255.220	14.866	870.766	658.270
256.234	14.910	869.747	657.612
257.249	14.793	869.758	657.101
258.263	14.781	869.254	656.619
259.278	14.868	868.722	656.498
260.293	14.911	867.867	655.964
261.307	14.880	867.584	655.568
262.322	14.812	866.736	654.605
263.336	14.837	866.302	654.316
264.351	14.911	865.582	654.004
265.366	15.020	864.621	653.648
266.380	15.058	864.227	653.441
267.395	14.890	863.810	652.409
268.409	14.912	863.068	651.879
269.424	14.966	861.807	651.077
270.439	15.075	861.469	651.190
271.453	14.983	860.731	650.218
272.468	14.941	859.924	649.387
273.482	15.135	859.517	649.774
274.497	15.030	858.774	648.749
275.512	14.942	858.408	648.074
276.526	15.119	857.441	647.971
277.541	14.987	856.725	646.862
278.555	15.050	856.459	646.849
279.570	15.146	855.655	646.552
280.585	15.206	855.004	646.237
281.599	15.352	854.233	646.159
282.614	15.193	854.066	645.361
283.628	15.075	853.430	644.369
284.643	15.173	852.959	644.334
285.657	15.091	852.487	643.605
286.672	15.224	851.642	643.422
287.687	15.268	851.381	643.337
288.701	15.150	851.102	642.615
289.716	15.187	850.507	642.253
290.730	15.320	849.886	642.235
291.745	15.250	849.336	641.494
292.760	15.317	848.521	641.080
293.774	15.392	847.665	640.663
294.789	15.280	847.418	639.991
295.803	15.405	847.128	640.193
296.818	15.321	846.265	639.162
297.833	15.264	845.812	638.545
298.847	15.339	844.686	637.928
299.862	15.248	844.170	637.136
300.876	15.519	843.466	637.576
301.891	15.412	842.978	636.743
302.906	15.371	842.481	636.157
303.920	15.631	841.341	636.224
304.935	15.650	841.111	636.065
305.949	15.645	840.750	635.717
306.964	15.552	840.204	634.896
307.979	15.567	839.232	634.164
308.993	15.662	838.576	633.968
310.008	15.571	838.332	633.386
311.022	15.654	837.826	633.260
312.037	15.622	837.585	632.902
313.052	15.615	836.769	632.204
314.066	15.713	835.888	631.850
315.081	15.715	835.247	631.318
316.095	15.648	834.795	630.670
317.110	15.579	834.256	629.945
318.125	15.603	833.860	629.680
319.139	15.579	833.454	629.230
320.154	15.660	833.136	629.237
321.168	15.655	832.272	628.508
322.183	15.535	832.047	627.836
323.197	15.740	831.089	627.821
324.212	15.624	830.703	627.044
325.227	15.689	830.260	626.895
326.241	15.856	829.172	626.640
327.256	15.857	828.811	626.314
328.270	15.710	828.343	625.359
329.285	15.817	827.894	625.361
330.300	15.703	827.638	624.690
331.314	15.809	826.778	624.379
332.329	15.865	825.741	623.748
333.343	15.865	825.508	623.517
334.358	15.667	825.433	622.674
335.373	15.863	824.352	622.528
336.387	15.899	823.921	622.277
337.402	15.914	823.217	621.750
338.416	15.885	822.827	621.291
339.431	16.086	822.553	621.770
340.446	15.886	822.140	620.665
341.460	16.045	821.210	620.496
342.475	15.968	821.163	620.119
343.489	16.145	820.016	619.851
344.504	16.098	819.413	619.169
345.519	16.179	819.059	619.141
346.533	16.263	818.250	618.782
347.548	16.057	818.247	617.972
348.562	16.085	817.533	617.479
349.577	16.217	817.054	617.545
350.592	16.073	816.639	616.652
351.606	16.128	815.873	616.220
352.621	16.012	815.688	615.600
353.635	16.254	814.975	615.893
354.650	16.174	814.633	615.287
355.665	16.083	814.582	614.862
356.679	16.220	813.956	614.834
357.694	16.221	813.487	614.432
358.708	16.214	812.826	613.851
359.723	16.271	812.263	613.580
360.738	16.196	811.944	613.011
361.752	16.154	811.482	612.456
362.767	16.139	810.905	611.911
363.781	16.503	810.119	612.582
364.796	16.312	810.115	611.834
365.810	16.439	809.688	611.918
366.825	16.328	809.340	611.196
367.840	16.438	808.941	611.241
368.854	16.540	808.466	611.195
369.869	16.472	808.065	610.595
370.883	16.487	807.380	610.077
371.898	16.571	806.640	609.766
372.913	16.632	805.812	609.304
373.927	16.786	805.274	609.398
374.942	16.694	804.613	608.514
375.956	16.574	804.367	607.844
376.971	16.638	803.817	607.602
377.986	16.593	803.447	607.109
379.000	16.729	803.000	607.203
380.015	16.744	802.130	606.545
381.029	16.808	801.603	606.323
382.044	16.823	801.235	606.046
383.059	16.763	800.627	605.319
384.073	16.950	799.887	605.371
385.088	16.834	799.410	604.545
386.102	16.654	799.073	603.591
387.117	16.654	799.028	603.504
388.132	16.690	798.390	603.098
389.146	16.781	797.931	603.024
390.161	16.778	797.288	602.471
391.175	16.769	796.847	602.055
392.190	16.820	796.886	602.210
393.205	16.836	796.244	601.728
394.219	16.801	796.081	601.430
395.234	16.622	795.821	600.545
396.248	16.807	794.717	600.314
397.263	16.817	793.962	599.726
398.278	16.941	793.412	599.693
399.292	16.846	793.397	599.295
400.307	16.919	792.429	598.768
401.321	16.751	792.638	598.279
402.336	16.805	792.398	598.238
403.350	16.817	791.902	597.852
404.365	16.860	791.224	597.438
405.380	16.991	790.645	597.411
406.394	16.910	790.718	597.128
407.409	16.945	790.177	596.787
408.423	17.003	789.733	596.603
409.438	17.000	789.177	596.120
410.453	17.177	788.673	596.308
411.467	17.160	788.200	595.840
412.482	17.132	787.995	595.534
413.496	17.104	787.745	595.194
414.511	17.100	787.024	594.583
415.526	17.161	786.638	594.452
416.540	17.274	786.294	594.534
417.555	17.273	785.830	594.127
418.569	17.346	785.273	593.907
419.584	17.280	784.718	593.204
420.599	17.302	784.229	592.861
421.613	108.848	1289.391	1467.803
422.628	93.243	1362.970	1467.925
