DTS Sentinel unit serial number:	SN413079Multiplexer serial number:	ORYXHardware model number:	OX4-SRSoftware version number:	ORYX F/W v4.00 Oryx Data Collector v3.7.2.0data status	okinstallation	princeton_trtdifferential loss correction	single-endedforward channel	channel 3reverse channel	N/Adate	2019/09/11time	04:22:10forward acquisition time	60.00reverse acquisition time	0.00gamma	496.2192k internal	0.2330k external	0.2330temperature offset calibration	0.9914default loss term (dB/km)	0.3790temperature slope calibration	1.0000multiplexer offset coefficient	1.0000multiplexer slope coefficient	1.0000fibre end	0.00T internal ref (°C)	29.56T ext. ref 1 (°C)	-0.27T ext. ref 2 (°C)	23.34length (m)	temperature (°C)	Stokes	anti-Stokes-747.200	-91.254	0.179	0.052
-746.185	-81.407	-0.140	0.046
-745.171	-15.853	0.131	0.084
-744.156	406.006	-0.094	0.200
-743.142	-66.741	0.130	-0.052
-742.127	533.020	-0.040	-0.095
-741.112	-8.082	0.214	-0.145
-740.098	800.000	-0.070	0.270
-739.083	246.468	-0.038	0.064
-738.069	-32.799	-0.125	-0.070
-737.054	-200.000	0.007	0.336
-736.039	-53.828	-0.192	-0.088
-735.025	-31.230	0.156	0.088
-734.010	-3.470	-0.063	0.044
-732.996	-200.000	-0.007	0.238
-731.981	-79.279	0.096	-0.033
-730.966	-40.914	-0.255	-0.132
-729.952	31.865	0.137	-0.119
-728.937	53.919	-0.212	-0.205
-727.923	-31.352	-0.222	-0.126
-726.908	800.000	-0.053	0.179
-725.894	67.801	-0.322	-0.331
-724.879	800.000	0.118	-0.345
-723.864	-200.000	-0.021	-0.100
-722.850	-10.284	0.020	0.014
-721.835	-1.964	0.048	-0.034
-720.821	-200.000	0.066	0.449
-719.806	-112.653	-0.168	-0.034
-718.791	-11.421	0.135	-0.089
-717.777	63.004	-0.071	0.072
-716.762	-200.000	-0.003	0.130
-715.748	-21.031	0.159	0.098
-714.733	-134.488	-0.284	0.035
-713.718	-89.185	-0.259	-0.077
-712.704	-135.752	-0.242	-0.029
-711.689	-67.112	-0.222	-0.088
-710.675	187.138	-0.064	0.096
-709.660	800.000	-0.071	-0.244
-708.645	73.353	0.192	-0.202
-707.631	13.930	0.276	0.216
-706.616	135.684	0.185	-0.242
-705.602	96.861	0.073	-0.084
-704.587	58.554	-0.181	-0.179
-703.572	-133.104	-0.175	-0.022
-702.558	377.568	-0.091	0.186
-701.543	134.332	0.073	0.095
-700.529	-200.000	-0.017	0.246
-699.514	800.000	-0.055	0.160
-698.499	-200.000	-0.040	-0.383
-697.485	-34.481	-0.230	-0.127
-696.470	-0.109	-0.058	0.042
-695.456	78.202	-0.263	0.282
-694.441	-107.893	-0.095	-0.021
-693.426	66.972	-0.320	-0.327
-692.412	67.668	0.159	0.163
-691.397	-120.345	-0.411	-0.070
-690.383	-151.641	0.149	0.011
-689.368	246.426	0.077	-0.131
-688.354	-17.060	0.248	-0.157
-687.339	-112.463	0.190	-0.038
-686.324	260.807	0.072	-0.126
-685.310	-173.373	-0.108	-0.003
-684.295	-92.967	-0.320	0.090
-683.281	800.000	-0.088	-0.253
-682.266	4.867	0.184	-0.136
-681.251	120.901	-0.165	-0.206
-680.237	34.976	-0.059	-0.052
-679.222	-200.000	0.012	0.100
-678.208	-131.969	-0.173	0.023
-677.193	-200.000	0.016	-0.237
-676.178	-200.000	0.034	-0.180
-675.164	88.421	-0.099	-0.110
-674.149	220.329	-0.148	-0.238
-673.135	800.000	-0.133	0.434
-672.120	800.000	-0.038	-0.118
-671.105	278.022	0.152	0.272
-670.091	-200.000	0.003	0.216
-669.076	-96.647	-0.214	0.056
-668.062	800.000	-0.033	-0.125
-667.047	-123.896	0.413	-0.065
-666.032	-200.000	-0.005	-0.097
-665.018	286.051	-0.108	-0.196
-664.003	-75.877	-0.044	-0.015
-662.989	-95.307	0.100	-0.027
-661.974	-162.595	-0.085	-0.004
-660.959	-116.567	-0.106	0.020
-659.945	-62.083	-0.068	-0.029
-658.930	374.450	0.107	-0.219
-657.916	-70.453	-0.157	-0.060
-656.901	155.283	-0.182	0.251
-655.886	-200.000	0.007	0.167
-654.872	-200.000	0.051	-0.290
-653.857	81.048	-0.299	0.324
-652.843	-200.000	0.032	-0.375
-651.828	376.546	-0.060	0.122
-650.814	-200.000	0.009	-0.186
-649.799	-91.451	-0.095	0.027
-648.784	-50.201	0.352	0.167
-647.770	5.681	-0.055	0.040
-646.755	-82.662	0.303	0.098
-645.741	80.895	0.162	-0.175
-644.726	-13.966	0.113	-0.073
-643.711	-157.504	-0.016	0.001
-642.697	800.000	0.137	-0.390
-641.682	-200.000	-0.004	-0.104
-640.668	-131.671	-0.201	0.027
-639.653	255.797	-0.261	0.448
-638.638	111.845	-0.127	0.154
-637.624	52.618	0.157	-0.150
-636.609	84.014	-0.094	0.103
-635.595	-36.409	-0.128	-0.069
-634.580	76.146	-0.145	-0.154
-633.565	76.287	-0.122	-0.130
-632.551	-59.429	0.241	-0.104
-631.536	215.315	0.042	0.067
-630.522	-200.000	-0.024	-0.150
-629.507	-124.269	-0.057	0.009
-628.492	-134.333	-0.438	-0.054
-627.478	-200.000	0.017	0.103
-626.463	128.629	0.130	0.167
-625.449	-123.572	0.144	-0.023
-624.434	720.788	-0.037	-0.097
-623.419	-200.000	0.038	0.237
-622.405	198.402	0.160	0.246
-621.390	34.584	0.228	-0.200
-620.376	-159.217	0.313	-0.018
-619.361	64.510	-0.152	0.153
-618.346	-200.000	-0.019	0.099
-617.332	-200.000	0.030	-0.200
-616.317	321.180	0.153	-0.292
-615.303	10.504	0.294	-0.224
-614.288	236.431	-0.086	0.142
-613.273	-199.490	-0.182	-0.001
-612.259	-71.140	-0.178	-0.067
-611.244	61.951	0.282	0.281
-610.230	-22.054	0.191	0.116
-609.215	741.059	-0.094	-0.253
-608.201	-39.661	0.032	0.017
-607.186	-126.812	-0.268	-0.040
-606.171	-6.134	0.167	0.114
-605.157	-94.072	-0.320	-0.088
-604.142	290.686	-0.081	-0.148
-603.128	-200.000	0.062	-0.385
-602.113	154.939	0.077	-0.106
-601.098	-93.047	0.242	0.068
-600.084	-200.000	-0.024	0.250
-599.069	-32.810	0.102	-0.057
-598.055	48.186	-0.039	0.036
-597.040	-200.000	0.006	-0.096
-596.025	-152.155	-0.080	-0.006
-595.011	-176.541	-0.376	-0.010
-593.996	-62.526	-0.204	-0.085
-592.982	-108.157	0.446	0.097
-591.967	-113.284	0.209	-0.041
-590.952	116.411	-0.043	-0.053
-589.938	44.820	-0.310	-0.285
-588.923	36.640	-0.295	-0.260
-587.909	-34.640	-0.320	-0.175
-586.894	-200.000	-0.016	-0.092
-585.879	647.438	-0.094	-0.240
-584.865	800.000	-0.054	0.163
-583.850	-200.000	0.044	0.197
-582.836	-85.003	-0.167	-0.052
-581.821	254.300	0.116	-0.198
-580.806	-123.809	0.291	0.046
-579.792	-102.135	-0.244	0.059
-578.777	475.030	-0.072	-0.162
-577.763	800.000	-0.062	-0.230
-576.748	247.726	-0.078	0.132
-575.733	-21.933	0.084	-0.051
-574.719	800.000	0.040	0.132
-573.704	-7.058	-0.160	-0.108
-572.690	-63.056	-0.222	0.092
-571.675	-8.277	0.216	-0.146
-570.661	758.318	0.119	-0.321
-569.646	-131.385	0.259	-0.034
-568.631	-151.519	-0.119	-0.009
-567.617	-45.104	-0.142	-0.070
-566.602	-198.886	0.173	-0.001
-565.588	-155.207	-0.068	0.004
-564.573	83.146	0.164	0.178
-563.558	83.648	0.291	-0.317
-562.544	800.000	-0.072	-0.268
-561.529	-13.831	-0.152	-0.098
-560.515	800.000	-0.031	-0.134
-559.500	663.135	-0.106	0.273
-558.485	-200.000	0.041	-0.181
-557.471	-200.000	-0.011	0.351
-556.456	800.000	-0.034	-0.102
-555.442	-103.817	0.536	0.125
-554.427	-7.760	0.219	-0.148
-553.412	-47.730	-0.155	-0.075
-552.398	710.707	0.087	0.230
-551.383	-106.940	0.121	-0.027
-550.369	41.296	0.103	-0.093
-549.354	-200.000	0.010	0.103
-548.339	-28.380	-0.126	-0.073
-547.325	-200.000	-0.004	-0.141
-546.310	69.934	-0.306	0.316
-545.296	-200.000	-0.033	-0.223
-544.281	42.662	-0.301	0.274
-543.266	-200.000	0.027	-0.150
-542.252	402.176	-0.132	0.278
-541.237	-36.690	0.042	-0.023
-540.223	33.324	-0.080	-0.070
-539.208	800.000	-0.059	0.214
-538.193	11.808	-0.062	0.047
-537.179	-83.128	-0.325	-0.105
-536.164	-198.330	-0.190	-0.001
-535.150	-200.000	0.053	-0.296
-534.135	800.000	0.108	0.341
-533.121	-200.000	-0.025	-0.117
-532.106	757.895	0.101	0.272
-531.091	38.147	0.079	0.070
-530.077	-200.000	0.011	-0.153
-529.062	21.623	-0.122	0.099
-528.048	-167.869	-0.062	-0.002
-527.033	-200.000	-0.068	-0.371
-526.018	-4.983	0.099	0.068
-525.004	256.823	-0.179	-0.307
-523.989	-200.000	0.023	-0.124
-522.975	39.942	0.155	0.139
-521.960	195.534	0.141	-0.214
-520.945	220.594	0.184	0.295
-519.931	-90.861	-0.210	0.060
-518.916	-11.471	0.121	0.079
-517.902	22.923	0.147	-0.121
-516.887	3.510	-0.208	0.151
-515.872	800.000	-0.051	-0.146
-514.858	175.341	-0.016	-0.023
-513.843	88.814	-0.109	0.121
-512.829	291.368	0.123	0.224
-511.814	-200.000	0.004	-0.029
-510.799	596.475	-0.102	-0.251
-509.785	-200.000	-0.008	0.071
-508.770	-31.912	0.261	0.146
-507.756	-127.397	0.308	0.045
-506.741	-47.889	-0.118	-0.057
-505.726	121.307	-0.117	-0.145
-504.712	-200.000	-0.044	0.296
-503.697	179.869	-0.112	-0.163
-502.683	-16.139	-0.144	-0.091
-501.668	-200.000	-0.021	0.160
-500.653	-83.671	-0.422	-0.135
-499.639	-89.879	0.308	0.090
-498.624	-34.824	0.254	-0.138
-497.610	-70.569	-0.051	-0.019
-496.595	140.561	-0.062	-0.081
-495.581	-141.621	-0.255	0.026
-494.566	-90.753	-0.217	0.062
-493.551	-162.459	0.326	0.016
-492.537	239.485	-0.186	-0.308
-491.522	0.166	-0.121	-0.086
-490.508	-9.714	-0.119	0.079
-489.493	-16.126	-0.245	0.155
-488.478	213.986	-0.153	0.241
-487.464	605.609	-0.085	-0.211
-486.449	-90.380	0.544	-0.157
-485.435	267.379	-0.106	-0.186
-484.420	-200.000	-0.037	-0.234
-483.405	-91.333	-0.122	0.035
-482.391	800.000	0.044	-0.135
-481.376	-200.000	-0.012	-0.133
-480.362	103.372	0.208	-0.243
-479.347	217.963	0.028	-0.045
-478.332	-126.936	0.329	0.048
-477.318	-19.723	0.179	0.111
-476.303	-37.510	0.255	-0.135
-475.289	-176.991	0.353	0.009
-474.274	-146.665	-0.296	-0.026
-473.259	-200.000	0.019	-0.201
-472.245	-200.000	-0.005	0.096
-471.230	-41.132	-0.195	-0.100
-470.216	168.584	0.111	0.158
-469.201	-54.453	0.131	0.059
-468.186	800.000	-0.010	-0.035
-467.172	26.547	0.154	-0.128
-466.157	-20.791	-0.116	-0.071
-465.143	800.000	-0.074	0.236
-464.128	-69.126	-0.169	0.065
-463.113	601.866	0.082	-0.204
-462.099	-131.517	0.155	-0.020
-461.084	471.015	-0.205	-0.459
-460.070	-200.000	-0.042	0.201
-459.055	-5.900	-0.228	0.156
-458.040	600.276	-0.077	-0.190
-457.026	-38.772	0.264	0.138
-456.011	126.740	0.055	-0.069
-454.997	-160.409	-0.090	0.005
-453.982	294.118	-0.086	-0.156
-452.968	-200.000	-0.237	-0.001
-451.953	-174.107	0.255	-0.007
-450.938	93.221	-0.192	-0.216
-449.924	-38.153	0.346	-0.183
-448.909	-10.064	-0.343	0.227
-447.895	-48.411	-0.237	-0.114
-446.880	73.332	0.174	-0.181
-445.865	67.475	0.110	-0.112
-444.851	-200.000	0.005	-0.375
-443.836	-70.981	-0.259	-0.097
-442.822	92.654	-0.036	-0.040
-441.807	-32.453	-0.185	0.102
-440.792	-200.000	0.062	0.286
-439.778	800.000	-0.139	0.385
-438.763	-79.360	0.349	-0.117
-437.749	451.213	-0.094	-0.207
-436.734	0.457	0.190	-0.135
-435.719	800.000	0.038	0.121
-434.705	118.669	-0.015	-0.019
-433.690	110.145	0.124	-0.148
-432.676	-89.174	-0.153	-0.045
-431.661	95.746	-0.049	-0.055
-430.646	18.375	0.073	-0.058
-429.632	-200.000	-0.025	-0.128
-428.617	-200.000	0.019	-0.177
-427.603	-51.762	-0.428	0.198
-426.588	800.000	0.058	0.183
-425.573	99.285	0.142	0.164
-424.559	355.501	0.081	0.161
-423.544	-137.255	0.270	0.031
-422.530	-195.342	-0.389	-0.003
-421.515	57.615	-0.034	-0.033
-420.500	-81.509	-0.209	0.068
-419.486	800.000	-0.067	0.204
-418.471	-200.000	0.029	0.314
-417.457	68.073	0.109	-0.111
-416.442	-200.000	0.047	0.381
-415.428	-200.000	0.036	0.297
-414.413	-200.000	-0.032	-0.267
-413.398	196.017	0.172	-0.260
-412.384	800.000	-0.019	0.068
-411.369	-200.000	0.022	0.170
-410.355	151.710	0.370	0.502
-409.340	-33.404	-0.186	0.102
-408.325	-72.843	-0.273	0.100
-407.311	-54.919	-0.415	0.186
-406.296	-101.403	-0.194	0.047
-405.282	693.114	0.118	0.306
-404.267	800.000	-0.101	-0.423
-403.252	68.956	0.193	-0.197
-402.238	84.770	0.098	0.107
-401.223	570.224	-0.046	0.112
-400.209	-113.072	0.040	0.008
-399.194	346.821	0.192	-0.375
-398.179	-200.000	-0.052	-0.420
-397.165	192.533	0.311	0.467
-396.150	-95.892	0.310	0.082
-395.136	281.467	0.202	0.359
-394.121	152.962	0.107	0.145
-393.106	-29.526	0.170	0.096
-392.092	25.602	0.120	0.099
-391.077	69.758	-0.141	0.145
-390.063	114.356	0.166	-0.200
-389.048	-200.000	-0.047	-0.215
-388.033	181.597	-0.170	0.248
-387.019	-140.802	0.054	-0.006
-386.004	800.000	-0.034	0.099
-384.990	-2.792	-0.400	0.278
-383.975	-200.000	-0.008	0.068
-382.960	-200.000	0.051	-0.456
-381.946	162.035	-0.041	-0.057
-380.931	-186.295	-0.360	0.005
-379.917	-74.966	-0.062	0.022
-378.902	-115.775	0.137	0.025
-377.888	-127.647	0.183	-0.026
-376.873	50.297	-0.243	-0.228
-375.858	-43.399	0.026	-0.013
-374.844	-200.000	0.009	-0.100
-373.829	120.636	-0.179	0.221
-372.815	800.000	0.061	0.234
-371.800	138.890	0.267	0.348
-370.785	66.694	0.090	-0.091
-369.771	114.295	0.110	0.133
-368.756	128.254	-0.108	0.136
-367.742	-112.033	0.306	0.061
-366.727	-102.393	0.241	0.057
-365.712	64.508	-0.058	0.058
-364.698	-200.000	0.009	-0.138
-363.683	22.683	0.206	0.168
-362.669	-200.000	-0.003	0.293
-361.654	-200.000	0.026	-0.118
-360.639	-118.275	-0.162	-0.029
-359.625	-29.490	0.009	0.005
-358.610	443.444	-0.144	-0.313
-357.596	-175.927	0.390	-0.010
-356.581	-200.000	-0.003	-0.025
-355.566	-87.923	-0.260	0.078
-354.552	-200.000	0.031	-0.143
-353.537	1.753	-0.412	0.295
-352.523	327.666	-0.071	-0.135
-351.508	800.000	-0.065	0.252
-350.493	-200.000	0.060	-0.424
-349.479	-132.470	0.169	-0.022
-348.464	-96.340	-0.150	0.039
-347.450	-26.434	0.148	-0.086
-346.435	-68.963	-0.221	0.085
-345.420	-8.911	0.230	-0.153
-344.406	258.038	0.103	-0.175
-343.391	-117.687	0.128	-0.023
-342.377	-46.081	0.253	-0.124
-341.362	127.442	-0.237	0.298
-340.348	374.870	-0.029	0.059
-339.333	105.379	-0.171	0.200
-338.318	-57.196	-0.271	-0.118
-337.304	-111.552	-0.070	0.014
-336.289	-200.000	-0.016	0.133
-335.275	563.493	-0.116	0.278
-334.260	-49.018	-0.252	-0.120
-333.245	126.529	0.173	-0.217
-332.231	-200.000	0.584	-0.001
-331.216	-74.581	-0.391	-0.140
-330.202	133.108	0.161	0.205
-329.187	230.076	-0.229	-0.371
-328.172	71.480	-0.091	0.093
-327.158	7.271	-0.104	-0.077
-326.143	16.643	0.133	0.104
-325.129	-12.151	0.171	0.111
-324.114	-60.860	0.325	-0.136
-323.099	800.000	-0.119	-0.486
-322.085	150.870	-0.171	0.230
-321.070	372.549	-0.040	0.080
-320.056	173.594	-0.151	0.215
-319.041	174.470	-0.098	-0.140
-318.026	416.602	-0.042	0.088
-317.012	-21.727	-0.193	-0.117
-315.997	187.663	-0.113	0.167
-314.983	-176.988	-0.206	0.005
-313.968	-4.565	-0.048	0.033
-312.953	268.802	0.067	-0.116
-311.939	-69.001	-0.229	-0.088
-310.924	-200.000	0.053	0.243
-309.910	-179.958	0.379	0.008
-308.895	178.311	0.062	0.090
-307.880	62.649	-0.287	0.284
-306.866	-122.525	0.151	0.024
-305.851	-200.000	0.007	0.107
-304.837	800.000	-0.019	0.058
-303.822	214.276	-0.149	0.233
-302.807	127.858	0.258	-0.324
-301.793	800.000	-0.039	-0.133
-300.778	114.962	-0.142	-0.171
-299.764	303.570	0.086	0.158
-298.749	159.942	0.244	0.336
-297.735	111.665	0.109	-0.130
-296.720	-200.000	-0.068	0.354
-295.705	156.045	-0.206	0.281
-294.691	-200.000	0.036	0.391
-293.676	170.920	0.046	0.066
-292.662	663.799	0.169	0.431
-291.647	334.842	0.024	-0.046
-290.632	120.133	0.105	0.129
-289.618	-59.071	0.303	-0.129
-288.603	-182.532	-0.103	0.002
-287.589	-5.129	0.303	-0.206
-286.574	-98.856	0.303	0.076
-285.559	-0.941	-0.160	0.112
-284.545	-200.000	0.005	-0.102
-283.530	153.663	-0.075	-0.101
-282.516	-200.000	0.045	0.411
-281.501	-200.000	-0.008	0.054
-280.486	-140.306	0.346	-0.036
-279.472	-80.042	0.309	0.102
-278.457	-200.000	-0.012	-0.138
-277.443	146.165	0.394	0.522
-276.428	312.916	0.116	-0.216
-275.413	282.407	-0.053	0.094
-274.399	-115.896	-0.090	0.017
-273.384	16.088	-0.075	-0.059
-272.370	391.365	-0.106	0.217
-271.355	-60.882	0.160	-0.067
-270.340	-200.000	-0.054	-0.337
-269.326	93.954	-0.216	-0.242
-268.311	249.954	-0.133	0.224
-267.297	800.000	-0.074	0.293
-266.282	264.745	-0.115	-0.198
-265.267	76.290	-0.158	0.165
-264.253	-128.185	0.139	0.020
-263.238	-200.000	-0.008	0.048
-262.224	800.000	-0.116	0.490
-261.209	-41.990	-0.041	0.021
-260.195	-131.186	-0.109	0.014
-259.180	-162.462	-0.294	-0.014
-258.165	319.730	-0.098	0.183
-257.151	-4.226	0.150	0.103
-256.136	39.874	-0.129	-0.114
-255.122	32.794	0.132	0.113
-254.107	96.118	0.163	-0.184
-253.092	99.148	-0.290	-0.330
-252.078	-8.185	0.289	0.192
-251.063	1.020	0.146	-0.103
-250.049	-200.000	-0.018	-0.291
-249.034	59.217	0.108	-0.105
-248.019	374.313	0.158	-0.317
-247.005	293.852	-0.111	-0.201
-245.990	77.338	-0.233	-0.245
-244.976	49.587	0.043	0.040
-243.961	26.970	0.077	-0.063
-242.946	160.216	0.064	0.089
-241.932	-200.000	0.018	0.180
-240.917	43.728	-0.104	-0.094
-239.903	-12.105	0.019	0.012
-238.888	351.772	-0.073	0.143
-237.873	-53.206	0.268	0.122
-236.859	-151.278	-0.106	0.008
-235.844	-145.670	0.275	0.024
-234.830	753.780	0.066	0.176
-233.815	132.005	-0.254	-0.323
-232.800	10.057	-0.138	0.104
-231.786	-110.098	-0.394	0.081
-230.771	-17.035	0.299	-0.186
-229.757	800.000	-0.035	-0.107
-228.742	-129.045	0.243	0.034
-227.727	-109.652	-0.096	0.020
-226.713	275.080	0.127	-0.221
-225.698	-200.000	0.045	-0.204
-224.684	-61.859	-0.103	0.042
-223.669	-164.040	0.300	0.014
-222.655	-70.334	0.103	-0.038
-221.640	246.898	-0.254	0.423
-220.625	8.310	0.189	0.140
-219.611	800.000	0.043	0.178
-218.596	-200.000	-0.020	-0.256
-217.582	-75.601	-0.298	-0.104
-216.567	-176.025	0.381	-0.010
-215.552	-147.222	-0.294	0.025
-214.538	110.105	0.181	0.215
-213.523	-31.535	-0.269	0.149
-212.509	241.899	0.093	0.154
-211.494	-113.201	0.118	-0.023
-210.479	-148.509	-0.090	0.007
-209.465	-200.000	0.043	-0.294
-208.450	-90.054	-0.214	-0.062
-207.436	-3.891	0.261	0.178
-206.421	800.000	-0.076	-0.226
-205.406	-200.000	0.012	-0.110
-204.392	86.283	0.203	-0.221
-203.377	-200.000	-0.007	-0.039
-202.363	-150.451	0.202	-0.015
-201.348	-200.000	0.058	-0.546
-200.333	-115.731	-0.100	-0.019
-199.319	-58.907	-0.195	0.083
-198.304	769.873	-0.030	0.081
-197.290	-84.799	0.153	-0.048
-196.275	-200.000	-0.006	0.031
-195.260	800.000	0.014	-0.041
-194.246	-56.211	-0.449	0.197
-193.231	312.084	0.236	0.435
-192.217	38.142	-0.166	0.145
-191.202	-200.000	-0.004	-0.068
-190.187	-8.664	0.037	0.024
-189.173	-75.658	-0.198	0.069
-188.158	-86.313	-0.233	-0.071
-187.144	800.000	0.044	-0.166
-186.129	73.380	0.133	0.137
-185.114	506.516	-0.039	-0.088
-184.100	118.696	0.060	-0.073
-183.085	-200.000	0.051	-0.360
-182.071	-34.662	-0.133	0.071
-181.056	-122.593	0.261	0.042
-180.042	-108.360	-0.057	0.012
-179.027	-20.402	0.120	-0.073
-178.012	31.139	-0.399	0.337
-176.998	-51.349	0.203	0.094
-175.983	-5.223	0.062	0.042
-174.969	30.588	-0.161	-0.135
-173.954	-68.937	0.376	0.143
-172.939	732.261	-0.060	0.159
-171.925	-200.000	0.061	0.312
-170.910	482.362	0.068	0.152
-169.896	-200.000	-0.081	-0.349
-168.881	-200.000	-0.041	-0.210
-167.866	-200.000	0.052	-0.377
-166.852	-141.404	0.201	-0.020
-165.837	238.294	-0.054	-0.089
-164.823	123.977	-0.273	0.338
-163.808	-126.156	0.145	-0.021
-162.793	800.000	0.014	-0.043
-161.779	-127.182	-0.156	-0.022
-160.764	70.559	0.095	0.097
-159.750	283.486	0.135	0.238
-158.735	450.630	-0.047	-0.103
-157.720	-200.000	-0.262	0.000
-156.706	-113.064	0.130	0.025
-155.691	-200.000	-0.003	-0.135
-154.677	14.714	-0.175	-0.135
-153.662	800.000	0.057	0.183
-152.647	169.016	0.213	-0.298
-151.633	6.816	-0.367	0.269
-150.618	-172.616	0.170	-0.005
-149.604	59.210	0.246	0.238
-148.589	-76.925	-0.287	0.099
-147.574	-152.899	-0.254	-0.018
-146.560	-115.744	0.289	-0.053
-145.545	-161.210	-0.333	-0.017
-144.531	699.879	-0.048	0.124
-143.516	-27.056	-0.176	0.101
-142.502	219.561	-0.097	0.152
-141.487	-200.000	0.005	0.075
-140.472	-20.056	0.402	-0.244
-139.458	-16.291	-0.184	-0.115
-138.443	-144.012	-0.137	-0.013
-137.429	4.506	-0.155	0.112
-136.414	-117.142	0.253	-0.045
-135.399	-122.054	0.220	0.036
-134.385	25.620	-0.320	0.262
-133.370	-124.707	0.166	0.025
-132.356	9.507	-0.191	0.142
-131.341	339.755	-0.082	0.157
-130.326	279.090	0.006	0.010
-129.312	-200.000	-0.010	-0.210
-128.297	-146.636	-0.198	0.017
-127.283	-165.717	-0.060	-0.003
-126.268	140.190	-0.105	0.136
-125.253	-150.132	0.128	0.010
-124.239	-130.724	0.443	0.059
-123.224	26.361	0.122	0.100
-122.210	54.239	-0.194	-0.184
-121.195	-28.630	0.383	0.217
-120.180	129.081	-0.112	0.141
-119.166	800.000	-0.013	-0.039
-118.151	732.647	-0.072	0.188
-117.137	-56.178	0.325	-0.142
-116.122	-200.000	0.001	0.025
-115.107	-18.132	-0.245	-0.151
-114.093	-84.314	-0.367	-0.114
-113.078	-115.075	0.391	-0.073
-112.064	-73.246	-0.071	-0.025
-111.049	-112.110	-0.155	0.031
-110.034	191.906	0.181	-0.267
-109.020	54.819	0.171	0.162
-108.005	-79.824	-0.231	0.076
-106.991	-200.000	-0.018	0.136
-105.976	-70.272	-0.186	0.069
-104.962	-68.871	0.292	0.111
-103.947	-142.565	-0.200	0.019
-102.932	-200.000	-0.018	0.130
-101.918	-200.000	-0.023	0.348
-100.903	286.903	-0.102	-0.181
-99.889	800.000	-0.032	0.100
-98.874	-35.912	0.201	0.107
-97.859	288.621	0.122	-0.216
-96.845	-88.308	0.170	0.050
-95.830	-200.000	0.057	-0.263
-94.816	-155.942	0.368	0.023
-93.801	-200.000	-0.023	0.411
-92.786	340.483	-0.079	-0.151
-91.772	-141.121	-0.070	0.007
-90.757	-38.529	0.311	0.161
-89.743	273.009	0.073	0.127
-88.728	277.708	0.056	0.098
-87.713	-168.022	-0.419	-0.016
-86.699	16.870	0.141	0.109
-85.684	-57.768	0.041	0.018
-84.670	800.000	-0.054	-0.188
-83.655	120.410	0.206	-0.251
-82.640	60.300	0.133	0.129
-81.626	800.000	0.134	-0.429
-80.611	-200.000	-0.021	-0.179
-79.597	-31.473	0.431	0.238
-78.582	-49.062	-0.221	-0.104
-77.567	-26.921	-0.180	0.103
-76.553	-200.000	0.011	0.153
-75.538	117.695	-0.102	0.123
-74.524	210.912	-0.142	-0.219
-73.509	399.521	-0.165	-0.339
-72.494	-31.890	0.181	0.099
-71.480	-27.527	-0.361	-0.206
-70.465	-129.286	-0.114	0.016
-69.451	264.916	0.111	0.190
-68.436	-158.675	0.293	-0.016
-67.422	-118.830	-0.042	-0.007
-66.407	-27.596	0.024	0.014
-65.392	315.956	-0.049	-0.092
-64.378	110.508	-0.167	-0.197
-63.363	533.087	0.197	-0.458
-62.349	-28.212	0.201	-0.114
-61.334	-4.323	-0.958	-0.649
-60.319	88.620	0.440	0.480
-59.305	800.000	-0.345	-1.061
-58.290	358.469	0.734	1.436
-57.276	800.000	0.539	1.588
-56.261	-200.000	105.497	611.036
-55.246	503.950	1507.568	3417.987
-54.232	175.955	2702.141	3842.809
-53.217	110.770	2186.092	2577.023
-52.203	40.327	1704.038	1502.359
-51.188	32.756	1513.829	1283.335
-50.173	30.302	1487.228	1244.303
-49.159	51.365	1543.563	1435.988
-48.144	51.687	1559.674	1453.119
-47.130	32.902	1515.468	1285.510
-46.115	29.913	1500.500	1252.572
-45.100	29.758	1496.677	1248.285
-44.086	29.657	1494.825	1246.011
-43.071	29.564	1492.724	1243.587
-42.057	29.473	1491.230	1241.678
-41.042	29.562	1490.089	1241.277
-40.027	29.582	1488.851	1240.328
-39.013	29.552	1486.847	1238.412
-37.998	29.556	1485.705	1237.438
-36.984	29.494	1484.767	1236.194
-35.969	29.548	1483.102	1235.118
-34.954	29.531	1481.950	1233.997
-33.940	29.567	1480.255	1232.777
-32.925	29.506	1478.907	1231.197
-31.911	29.611	1477.554	1230.719
-30.896	29.629	1476.679	1230.067
-29.881	29.729	1474.966	1229.250
-28.867	29.566	1473.966	1227.286
-27.852	29.618	1472.406	1226.288
-26.838	29.687	1470.517	1225.120
-25.823	29.696	1469.439	1224.236
-24.809	29.684	1468.085	1222.976
-23.794	29.663	1466.029	1221.079
-22.779	29.606	1465.474	1220.190
-21.765	29.565	1464.416	1218.992
-20.750	29.590	1463.495	1218.338
-19.736	29.611	1462.150	1217.314
-18.721	29.607	1460.847	1216.149
-17.706	29.556	1459.610	1214.735
-16.692	29.533	1458.398	1213.527
-15.677	29.562	1457.677	1213.072
-14.663	29.564	1456.909	1212.398
-13.648	29.555	1455.831	1211.394
-12.633	29.549	1454.851	1210.490
-11.619	29.459	1454.183	1209.295
-10.604	29.480	1453.060	1208.451
-9.590	29.459	1452.707	1207.972
-8.575	29.549	1451.810	1207.768
-7.560	29.446	1450.858	1206.258
-6.546	29.495	1449.957	1205.777
-5.531	29.526	1449.032	1205.165
-4.517	29.384	1448.865	1204.051
-3.502	29.554	1446.691	1203.305
-2.487	29.497	1445.999	1202.306
-1.473	29.556	1444.365	1201.288
-0.458	29.531	1443.715	1200.538
0.556	27.241	1434.050	1189.664
1.571	24.448	1408.626	1150.495
2.586	21.029	1350.819	1082.008
3.600	19.619	1269.856	1008.838
4.615	18.440	1225.593	966.936
5.629	16.211	1171.068	911.804
6.644	8.011	1087.992	805.723
7.659	1.082	1047.448	741.802
8.673	-0.052	1041.538	732.033
9.688	-0.327	1038.184	728.275
10.702	-0.296	1036.225	726.986
11.717	-0.395	1034.736	725.396
12.731	3.050	1038.162	744.437
13.746	11.811	1050.708	796.149
14.761	18.532	1060.188	836.148
15.775	20.551	1061.129	846.661
16.790	20.680	1061.322	847.369
17.804	20.657	1060.529	846.547
18.819	20.560	1059.142	844.892
19.834	20.524	1058.583	844.198
20.848	20.777	1058.270	845.100
21.863	20.825	1057.876	844.946
22.877	20.587	1057.584	843.482
23.892	20.583	1057.105	843.008
24.907	20.553	1056.036	841.934
25.921	20.631	1055.882	842.116
26.936	20.654	1054.723	841.230
27.950	20.540	1053.610	839.715
28.965	20.502	1052.460	838.541
29.980	20.543	1050.403	837.025
30.994	20.400	1049.180	835.289
32.009	20.740	1048.289	836.137
33.023	20.688	1047.706	835.351
34.038	20.490	1046.648	833.484
35.053	20.521	1045.683	832.790
36.067	20.688	1045.091	833.042
37.082	20.657	1044.433	832.296
38.096	20.760	1043.374	831.874
39.111	20.872	1042.716	831.808
40.126	21.031	1041.784	831.752
41.140	20.731	1040.723	829.400
42.155	20.608	1039.085	827.435
43.169	20.260	1038.257	825.050
44.184	20.250	1036.770	823.747
45.199	20.417	1036.029	823.877
46.213	20.412	1034.593	822.640
47.228	20.265	1034.210	821.563
48.242	20.311	1033.202	820.912
49.257	20.529	1031.732	820.699
50.271	20.622	1031.282	820.705
51.286	20.676	1030.807	820.514
52.301	20.683	1029.912	819.761
53.315	20.707	1029.041	819.106
54.330	20.749	1028.237	818.590
55.344	20.552	1027.351	816.888
56.359	20.748	1026.762	817.268
57.374	20.668	1025.384	815.722
58.388	20.464	1024.749	814.190
59.403	20.501	1023.517	813.312
60.417	20.517	1023.261	813.110
61.432	20.226	1022.414	811.004
62.447	20.267	1021.931	810.741
63.461	20.422	1021.475	811.034
64.476	20.444	1020.323	810.152
65.490	20.574	1018.926	809.575
66.505	20.359	1018.810	808.411
67.520	20.363	1017.545	807.351
68.534	20.574	1016.492	807.425
69.549	20.483	1015.408	806.070
70.563	19.988	1014.633	803.090
71.578	19.896	1014.141	802.205
72.593	19.973	1013.337	801.854
73.607	19.899	1011.650	800.102
74.622	19.871	1010.648	799.111
75.636	20.180	1009.899	799.873
76.651	20.465	1009.037	800.435
77.666	20.227	1008.330	798.709
78.680	20.112	1007.059	797.099
79.695	20.117	1007.039	797.038
80.709	20.202	1006.152	796.653
81.724	20.332	1005.446	796.621
82.739	20.403	1004.136	795.839
83.753	20.359	1003.220	794.841
84.768	20.548	1002.924	795.404
85.782	20.721	1002.803	796.027
86.797	20.920	1001.700	795.992
87.812	20.839	1000.941	794.948
88.826	20.783	999.607	793.564
89.841	20.775	999.240	793.162
90.855	20.854	998.642	792.979
91.870	20.950	997.082	792.107
92.884	20.927	996.237	791.258
93.899	20.722	995.402	789.596
94.914	20.694	994.697	788.840
95.928	20.881	993.661	788.798
96.943	20.869	993.151	788.265
97.957	20.684	992.083	786.514
98.972	20.430	990.872	784.339
99.987	20.098	989.678	781.825
101.001	20.223	989.212	781.953
102.016	20.493	988.633	782.641
103.030	20.499	987.949	782.055
104.045	20.547	986.660	781.182
105.060	20.430	985.166	779.406
106.074	20.144	984.066	777.183
107.089	20.305	983.194	777.149
108.103	20.636	983.040	778.440
109.118	20.788	981.747	778.026
110.133	20.410	980.939	775.630
111.147	20.564	979.585	775.176
112.162	20.345	978.345	773.150
113.176	20.203	976.942	771.345
114.191	20.278	976.493	771.253
115.206	20.313	975.840	770.824
116.220	19.949	974.637	768.190
117.235	19.922	973.479	767.090
118.249	20.167	972.625	767.434
119.264	20.144	971.651	766.496
120.279	20.003	970.903	765.215
121.293	20.048	970.496	765.028
122.308	20.142	970.051	765.026
123.322	20.232	968.775	764.344
124.337	20.041	967.578	762.495
125.352	20.175	965.733	761.559
126.366	19.620	964.730	758.266
127.381	19.334	963.256	755.787
128.395	19.723	963.250	757.420
129.410	20.522	962.454	760.226
130.424	20.646	961.555	759.988
131.439	20.590	960.908	759.164
132.454	20.426	959.730	757.453
133.468	20.579	958.674	757.219
134.483	20.531	957.588	756.084
135.497	20.466	957.397	755.584
136.512	20.697	956.717	755.986
137.527	20.839	955.522	755.588
138.541	20.786	954.880	754.785
139.556	20.974	953.761	754.648
140.570	20.847	953.095	753.505
141.585	20.942	952.007	752.986
142.600	20.929	951.760	752.672
143.614	20.743	950.874	751.100
144.629	20.875	950.291	751.142
145.643	21.029	949.490	751.107
146.658	21.085	947.841	749.978
147.673	20.839	946.930	748.132
148.687	20.690	946.022	746.711
149.702	20.668	944.987	745.731
150.716	20.520	944.208	744.419
151.731	20.631	942.516	743.492
152.746	20.701	942.026	743.341
153.760	20.906	941.491	743.726
154.775	20.990	940.947	743.589
155.789	21.055	939.885	742.959
156.804	21.077	938.603	741.976
157.819	20.889	938.300	740.870
158.833	20.957	937.000	740.070
159.848	21.068	936.481	740.061
160.862	21.090	935.417	739.251
161.877	20.995	934.554	738.102
162.892	21.039	933.625	737.487
163.906	20.887	933.442	736.633
164.921	20.990	931.927	735.808
165.935	21.028	930.844	735.051
166.950	20.967	930.117	734.152
167.964	20.894	929.190	733.048
168.979	20.943	928.247	732.446
169.994	20.759	927.306	730.869
171.008	20.777	925.951	729.808
172.023	20.891	925.547	729.906
173.037	20.994	924.617	729.535
174.052	20.889	923.545	728.189
175.067	20.739	922.439	726.625
176.081	20.540	921.897	725.304
177.096	20.843	920.546	725.438
178.110	20.790	920.010	724.734
179.125	20.626	918.674	722.933
180.140	20.350	917.901	721.116
181.154	20.352	917.357	720.632
182.169	20.408	916.682	720.272
183.183	20.721	916.213	721.134
184.198	20.923	916.111	721.828
185.213	21.062	914.424	721.011
186.227	20.858	914.235	719.954
187.242	20.957	914.085	720.182
188.256	20.902	913.383	719.338
189.271	21.071	911.958	718.847
190.286	21.107	911.549	718.612
191.300	21.027	910.315	717.243
192.315	20.379	909.437	713.827
193.329	19.738	907.801	709.850
194.344	19.489	906.439	707.701
195.359	20.033	907.098	710.384
196.373	20.738	907.202	713.292
197.388	20.853	907.421	713.872
198.402	20.786	906.448	712.768
199.417	20.793	905.656	712.113
200.432	20.949	904.916	712.104
201.446	20.801	904.368	711.004
202.461	20.623	903.352	709.418
203.475	20.459	902.972	708.389
204.490	19.982	901.576	705.288
205.504	19.006	899.734	699.818
206.519	19.350	899.819	701.219
207.534	20.395	899.603	705.236
208.548	20.499	899.362	705.405
209.563	20.990	899.137	707.159
210.577	20.838	898.339	705.851
211.592	20.491	897.928	704.061
212.607	20.939	897.572	705.535
213.621	21.047	896.919	705.395
214.636	20.944	896.279	704.413
215.650	21.087	895.170	704.058
216.665	21.091	894.601	703.564
217.680	20.939	894.516	702.820
218.694	21.150	893.972	703.180
219.709	20.668	893.468	700.782
220.723	20.401	892.259	698.696
221.738	20.688	891.545	699.229
222.753	20.822	891.185	699.425
223.767	20.798	890.237	698.521
224.782	20.818	889.636	698.069
225.796	20.983	889.293	698.399
226.811	21.145	888.413	698.293
227.826	20.897	886.925	696.074
228.840	19.939	886.006	691.465
229.855	19.804	885.421	690.408
230.869	20.221	884.736	691.474
231.884	19.783	883.760	688.909
232.899	19.988	883.271	689.283
233.913	20.796	883.507	692.622
234.928	20.817	883.162	692.371
235.942	20.815	882.337	691.654
236.957	20.796	882.005	691.260
237.972	20.547	880.735	689.214
238.986	20.508	879.954	688.387
240.001	20.584	879.392	688.187
241.015	20.725	878.472	687.965
242.030	20.671	878.175	687.458
243.045	20.777	877.770	687.498
244.059	20.839	877.231	687.262
245.074	21.059	876.346	687.372
246.088	21.025	875.738	686.702
247.103	20.734	874.488	684.517
248.117	20.562	874.700	683.947
249.132	21.183	874.267	685.989
250.147	21.562	873.831	687.072
251.161	21.332	873.838	686.115
252.176	21.667	872.960	686.678
253.190	21.589	872.687	686.095
254.205	21.701	871.628	685.643
255.220	21.841	871.682	686.169
256.234	21.817	870.966	685.455
257.249	21.852	869.719	684.549
258.263	21.551	869.274	682.964
259.278	21.543	868.799	682.500
260.293	21.582	868.895	682.665
261.307	21.919	867.726	682.998
262.322	21.650	867.466	681.686
263.336	21.506	866.683	680.453
264.351	21.139	864.733	677.437
265.366	20.033	862.847	671.613
266.380	19.612	862.061	669.310
267.395	20.526	862.428	673.077
268.409	21.237	862.796	676.058
269.424	21.339	861.730	675.559
270.439	21.428	861.505	675.664
271.453	21.484	860.816	675.282
272.468	21.441	860.463	674.780
273.482	21.638	859.954	675.080
274.497	21.665	859.643	674.880
275.512	21.663	858.198	673.680
276.526	20.866	857.303	669.852
277.541	21.265	856.606	670.780
278.555	21.617	856.143	671.710
279.570	21.403	855.758	670.527
280.585	21.226	854.741	668.992
281.599	21.201	854.528	668.671
282.614	21.291	854.169	668.677
283.628	21.080	852.628	666.604
284.643	20.849	851.925	665.114
285.657	21.054	852.030	665.917
286.672	20.998	850.769	664.662
287.687	20.537	850.154	662.366
288.701	20.785	850.229	663.311
289.716	21.233	849.442	664.341
290.730	20.913	848.786	662.554
291.745	20.687	848.187	661.170
292.760	20.617	846.815	659.776
293.774	20.445	846.715	658.987
294.789	21.427	847.281	663.094
295.803	21.948	847.344	665.062
296.818	22.044	846.568	664.757
297.833	22.138	846.289	664.836
298.847	21.789	845.194	662.598
299.862	21.656	843.648	660.822
300.876	21.683	843.784	660.974
301.891	22.020	843.067	661.625
302.906	22.069	842.857	661.584
303.920	21.793	841.074	659.091
304.935	21.645	840.656	658.148
305.949	21.963	840.595	659.235
306.964	22.051	840.416	659.366
307.979	21.805	839.356	657.557
308.993	21.559	839.238	656.483
310.008	21.991	838.641	657.575
311.022	22.228	838.194	658.055
312.037	22.022	837.480	656.664
313.052	21.832	837.026	655.539
314.066	21.736	836.200	654.477
315.081	21.093	834.806	650.929
316.095	20.333	833.526	647.043
317.110	21.079	833.442	649.700
318.125	21.787	833.843	652.593
319.139	21.383	833.011	650.380
320.154	20.246	831.086	644.597
321.168	19.864	830.459	642.635
322.183	20.603	830.279	645.182
323.197	21.283	830.770	648.030
324.212	21.505	830.487	648.575
325.227	21.704	830.124	648.971
326.241	21.993	829.387	649.407
327.256	21.783	829.044	648.305
328.270	21.710	828.413	647.483
329.285	21.445	827.907	646.050
330.300	21.466	826.874	645.265
331.314	21.142	826.220	643.505
332.329	21.324	825.345	643.434
333.343	21.774	825.016	644.779
334.358	21.941	824.510	644.939
335.373	21.806	824.233	644.171
336.387	22.038	823.581	644.455
337.402	22.168	823.338	644.684
338.416	22.411	822.906	645.182
339.431	22.398	821.968	644.341
340.446	22.366	821.609	643.884
341.460	22.664	821.212	644.604
342.475	22.356	820.822	643.118
343.489	22.194	820.207	641.985
344.504	22.137	819.377	641.073
345.519	22.427	819.261	641.984
346.533	22.743	818.876	642.775
347.548	22.951	818.507	643.187
348.562	22.848	818.053	642.399
349.577	22.741	817.585	641.583
350.592	22.617	816.969	640.594
351.606	22.702	816.500	640.477
352.621	22.686	816.096	640.046
353.635	22.584	815.466	639.124
354.650	22.430	814.988	638.137
355.665	22.121	814.098	636.264
356.679	21.085	812.037	630.854
357.694	20.987	811.824	630.278
358.708	21.689	811.746	632.696
359.723	21.724	811.110	632.272
360.738	21.895	810.906	632.674
361.752	22.380	810.947	634.399
362.767	22.452	810.337	634.123
363.781	22.658	810.424	634.878
364.796	22.865	809.819	635.090
365.810	23.104	809.476	635.628
366.825	23.031	809.444	635.281
367.840	23.100	808.785	634.959
368.854	22.847	808.376	633.673
369.869	22.520	807.376	631.659
370.883	22.491	806.861	631.098
371.898	22.403	806.322	630.305
372.913	22.471	805.152	629.578
373.927	22.369	805.067	629.091
374.942	22.477	804.266	628.794
375.956	22.703	803.882	629.247
376.971	22.784	803.262	628.992
377.986	22.824	802.826	628.736
379.000	22.998	802.478	629.030
380.015	22.908	802.057	628.325
381.029	22.706	801.878	627.410
382.044	22.972	800.610	627.304
383.059	22.983	800.313	627.057
384.073	22.848	800.049	626.315
385.088	22.968	799.119	625.956
386.102	22.881	798.976	625.482
387.117	22.777	797.787	624.127
388.132	22.727	797.442	623.624
389.146	22.646	796.602	622.627
390.161	22.068	795.955	620.027
391.175	22.222	795.349	620.042
392.190	22.712	795.549	621.871
393.205	22.518	795.406	621.022
394.219	21.740	793.346	616.621
395.234	20.173	791.178	609.381
396.248	19.378	790.371	605.913
397.263	20.515	791.124	610.431
398.278	22.395	792.374	617.948
399.292	22.805	792.085	619.107
400.307	22.414	791.421	617.163
401.321	22.375	790.933	616.590
402.336	22.354	790.810	616.368
403.350	22.733	791.047	617.825
404.365	23.058	790.738	618.666
405.380	23.413	790.078	619.335
406.394	23.565	790.235	619.936
407.409	23.824	789.833	620.468
408.423	23.555	789.214	618.990
409.438	23.571	788.821	618.682
410.453	23.603	788.055	618.140
411.467	23.714	787.927	618.370
412.482	23.655	787.349	617.658
413.496	23.640	786.810	617.128
414.511	23.790	786.747	617.544
415.526	23.682	786.279	616.747
416.540	23.637	785.551	615.966
417.555	23.712	784.819	615.597
418.569	23.368	784.385	614.010
419.584	23.469	783.536	613.641
420.599	23.496	783.232	613.443
421.613	157.300	1363.763	1796.407
422.628	135.992	1448.338	1796.487
