DTS Sentinel unit serial number:	SN413079Multiplexer serial number:	ORYXHardware model number:	OX4-SRSoftware version number:	ORYX F/W v4.00 Oryx Data Collector v3.7.2.0data status	okinstallation	princeton_trtdifferential loss correction	single-endedforward channel	channel 3reverse channel	N/Adate	2019/09/16time	04:52:34forward acquisition time	60.00reverse acquisition time	0.00gamma	496.2192k internal	0.2336k external	0.2336temperature offset calibration	0.9955default loss term (dB/km)	0.3790temperature slope calibration	1.0000multiplexer offset coefficient	1.0000multiplexer slope coefficient	1.0000fibre end	0.00T internal ref (°C)	27.16T ext. ref 1 (°C)	10.95T ext. ref 2 (°C)	21.66length (m)	temperature (°C)	Stokes	anti-Stokes-747.200	-200.000	0.056	0.316
-746.185	-200.000	0.068	-0.344
-745.171	-200.000	-0.039	-0.291
-744.156	166.829	-0.333	0.474
-743.142	-200.000	-0.015	0.104
-742.127	-27.242	0.130	0.076
-741.112	-169.687	0.279	-0.010
-740.098	25.207	0.320	0.267
-739.083	-58.457	-0.196	0.085
-738.069	-151.136	-0.157	0.012
-737.054	31.437	-0.079	-0.068
-736.039	29.098	0.153	-0.131
-735.025	-200.000	-0.001	-0.220
-734.010	-200.000	-0.010	-0.275
-732.996	-200.000	-0.038	-0.194
-731.981	230.869	-0.158	-0.260
-730.966	546.230	0.047	-0.112
-729.952	-40.077	0.120	0.063
-728.937	-97.447	-0.368	0.096
-727.923	-19.204	-0.164	0.102
-726.908	800.000	-0.054	-0.218
-725.894	800.000	-0.112	0.466
-724.879	51.844	-0.087	0.083
-723.864	-126.446	0.053	0.008
-722.850	-72.283	-0.016	-0.006
-721.835	-112.827	-0.211	-0.042
-720.821	800.000	-0.049	-0.161
-719.806	-200.000	-0.039	-0.262
-718.791	-60.823	-0.121	-0.051
-717.777	-200.000	0.006	0.396
-716.762	0.269	0.125	0.090
-715.748	-24.743	-0.082	0.049
-714.733	10.165	-0.004	-0.003
-713.718	-149.148	0.261	-0.021
-712.704	-3.628	0.306	-0.214
-711.689	-17.229	0.107	0.068
-710.675	59.249	-0.076	-0.075
-709.660	554.189	-0.156	0.377
-708.645	-200.000	-0.002	-0.318
-707.631	48.822	0.179	0.168
-706.616	-200.000	-0.023	-0.194
-705.602	-87.173	-0.194	-0.059
-704.587	-61.581	-0.142	0.060
-703.572	450.569	-0.156	0.346
-702.558	625.883	0.053	0.135
-701.543	228.633	0.073	-0.119
-700.529	-67.100	-0.219	-0.086
-699.514	96.110	0.060	-0.068
-698.499	-115.249	-0.161	-0.031
-697.485	85.460	-0.143	-0.158
-696.470	77.766	-0.139	-0.149
-695.456	-122.190	0.233	-0.038
-694.441	-17.057	-0.193	-0.122
-693.426	34.149	0.254	-0.222
-692.412	-200.000	0.029	-0.223
-691.397	-90.601	0.338	-0.098
-690.383	7.900	0.415	-0.312
-689.368	-177.323	0.141	0.003
-688.354	-132.308	-0.354	0.046
-687.339	-125.253	0.058	0.009
-686.324	35.544	0.295	0.260
-685.310	-200.000	0.037	-0.377
-684.295	227.903	-0.259	-0.423
-683.281	-77.176	-0.072	0.025
-682.266	-140.607	0.178	-0.018
-681.251	-77.241	0.200	0.070
-680.237	11.797	-0.150	0.115
-679.222	-60.016	0.204	-0.087
-678.208	-200.000	0.033	0.165
-677.193	740.303	-0.042	-0.112
-676.178	39.559	0.298	-0.268
-675.164	800.000	-0.018	-0.074
-674.149	-88.761	0.179	0.053
-673.135	245.047	0.159	-0.267
-672.120	98.965	0.128	-0.148
-671.105	-200.000	-0.026	-0.147
-670.091	-38.563	-0.294	0.155
-669.076	243.349	0.106	0.178
-668.062	-85.892	-0.070	0.022
-667.047	101.868	0.094	-0.110
-666.032	-36.712	-0.290	-0.156
-665.018	9.927	0.327	-0.249
-664.003	-28.460	-0.153	-0.088
-662.989	59.817	0.091	0.090
-661.974	-169.801	0.150	-0.005
-660.959	-200.000	-0.019	-0.177
-659.945	157.257	-0.174	-0.241
-658.930	800.000	0.138	-0.447
-657.916	13.950	-0.042	0.033
-656.901	-19.096	0.063	0.039
-655.886	-72.261	-0.222	-0.082
-654.872	-17.000	0.138	-0.087
-653.857	-24.992	-0.094	-0.056
-652.843	217.098	-0.139	0.221
-651.828	432.075	0.072	-0.156
-650.814	-97.317	-0.249	0.065
-649.799	-116.474	-0.196	-0.036
-648.784	117.411	0.041	-0.050
-647.770	-200.000	0.076	0.387
-646.755	102.664	-0.187	0.218
-645.741	-92.887	0.435	-0.122
-644.726	-157.964	-0.147	-0.009
-643.711	-19.775	0.347	0.215
-642.697	-22.697	0.217	-0.131
-641.682	-200.000	-0.006	0.116
-640.668	-57.302	-0.202	-0.089
-639.653	-53.550	0.117	-0.054
-638.638	-131.336	-0.470	0.062
-637.624	31.552	0.267	0.230
-636.609	-41.744	-0.470	0.241
-635.595	471.349	-0.081	-0.181
-634.580	123.506	0.257	-0.323
-633.565	-154.445	-0.132	0.009
-632.551	-79.529	-0.336	0.113
-631.536	141.063	-0.095	0.125
-630.522	-200.000	0.022	0.129
-629.507	-95.676	0.306	0.082
-628.492	68.264	-0.182	-0.186
-627.478	-57.981	-0.255	0.111
-626.463	-123.114	0.103	0.017
-625.449	-60.193	-0.248	0.106
-624.434	800.000	-0.030	-0.094
-623.419	292.012	0.053	-0.096
-622.405	183.806	-0.122	-0.180
-621.390	-4.756	-0.226	-0.156
-620.376	800.000	-0.045	0.177
-619.361	-19.139	0.329	0.204
-618.346	318.679	0.181	-0.342
-617.332	-175.086	0.323	-0.009
-616.317	-4.238	-0.246	0.170
-615.303	-69.266	0.270	-0.104
-614.288	157.965	-0.142	0.196
-613.273	800.000	0.026	0.082
-612.259	274.311	-0.133	-0.235
-611.244	-74.721	-0.150	0.054
-610.230	800.000	0.012	0.049
-609.215	-1.142	-0.286	0.202
-608.201	54.947	-0.074	-0.071
-607.186	652.564	-0.132	-0.339
-606.171	6.855	0.091	0.068
-605.157	-15.911	0.197	0.125
-604.142	214.177	0.077	-0.121
-603.128	11.824	-0.250	0.192
-602.113	-166.653	-0.116	-0.005
-601.098	800.000	0.060	-0.226
-600.084	-153.791	-0.289	0.020
-599.069	575.147	-0.082	-0.200
-598.055	-151.001	-0.212	0.016
-597.040	305.565	-0.115	0.214
-596.025	-8.684	0.127	-0.085
-595.011	-22.998	-0.235	-0.141
-593.996	-9.867	0.103	0.069
-592.982	-179.653	-0.208	-0.005
-591.967	69.786	0.411	-0.423
-590.952	371.724	-0.062	-0.125
-589.938	-159.434	-0.225	0.013
-588.923	-62.310	-0.249	0.104
-587.909	-200.000	-0.008	0.083
-586.894	-200.000	-0.042	0.240
-585.879	68.458	0.114	0.117
-584.865	-24.381	-0.339	-0.202
-583.850	-138.447	-0.078	0.009
-582.836	79.910	-0.087	-0.094
-581.821	-112.332	-0.193	0.038
-580.806	-200.000	0.053	0.239
-579.792	-200.000	0.004	0.176
-578.777	400.641	0.072	0.151
-577.763	-72.313	-0.356	-0.131
-576.748	222.035	-0.096	0.154
-575.733	-140.276	-0.121	-0.013
-574.719	-108.525	0.262	0.056
-573.704	95.413	0.187	-0.212
-572.690	409.991	-0.113	-0.239
-571.675	800.000	0.068	0.259
-570.661	-138.651	-0.145	-0.016
-569.646	-56.782	0.266	0.117
-568.631	159.360	-0.106	0.146
-567.617	-81.529	0.033	-0.011
-566.602	-175.050	0.104	-0.003
-565.588	-174.000	0.149	-0.004
-564.573	62.140	0.185	-0.184
-563.558	397.386	0.063	-0.131
-562.544	-121.689	0.162	0.027
-561.529	-200.000	0.040	-0.280
-560.515	379.504	0.109	-0.222
-559.500	800.000	-0.058	0.252
-558.485	-200.000	-0.019	-0.334
-557.471	-200.000	0.018	-0.220
-556.456	159.671	0.301	-0.417
-555.442	-179.765	0.244	-0.005
-554.427	-38.095	-0.226	-0.119
-553.412	-200.000	0.016	0.213
-552.398	-86.978	0.345	-0.105
-551.383	287.304	0.079	0.143
-550.369	107.152	-0.092	-0.109
-549.354	64.682	0.305	-0.306
-548.339	64.227	0.160	0.161
-547.325	255.174	0.118	-0.201
-546.310	-56.068	0.128	0.057
-545.296	-0.426	0.149	0.106
-544.281	800.000	-0.167	-0.461
-543.266	-200.000	0.094	0.000
-542.252	800.000	-0.046	0.186
-541.237	45.745	-0.121	-0.112
-540.223	6.793	0.074	-0.055
-539.208	386.809	-0.162	-0.333
-538.193	-200.000	0.036	-0.317
-537.179	86.044	-0.125	0.137
-536.164	-200.000	-0.035	0.255
-535.150	159.127	0.244	-0.338
-534.135	58.483	0.306	-0.299
-533.121	-200.000	0.032	-0.284
-532.106	0.142	0.114	-0.081
-531.091	5.435	-0.177	-0.130
-530.077	139.469	-0.091	0.119
-529.062	-200.000	0.000	-0.041
-528.048	333.856	0.088	0.170
-527.033	800.000	-0.065	0.181
-526.018	-113.481	0.273	-0.053
-525.004	119.140	-0.241	0.296
-523.989	108.692	-0.083	-0.098
-522.975	-139.458	0.137	0.015
-521.960	21.210	-0.163	0.132
-520.945	179.792	-0.107	0.156
-519.931	148.595	0.203	0.273
-518.916	-11.963	-0.068	0.044
-517.902	-200.000	0.055	-0.260
-516.887	-162.357	-0.409	0.020
-515.872	-52.692	-0.340	0.156
-514.858	-108.033	-0.028	-0.006
-513.843	-68.542	-0.277	-0.107
-512.829	-84.472	0.074	-0.023
-511.814	222.372	-0.090	0.144
-510.799	-114.243	0.251	-0.048
-509.785	-56.272	0.269	0.119
-508.770	-21.896	0.199	0.121
-507.756	8.402	-0.229	0.171
-506.741	-88.612	-0.206	0.061
-505.726	66.460	-0.088	-0.089
-504.712	-200.000	0.045	0.200
-503.697	-107.843	0.171	-0.037
-502.683	-200.000	-0.009	-0.155
-501.668	800.000	0.063	-0.196
-500.653	-60.184	-0.305	-0.129
-499.639	-80.678	-0.181	0.060
-498.624	559.709	0.171	-0.410
-497.610	800.000	-0.135	-0.504
-496.595	92.923	-0.053	0.060
-495.581	21.886	0.187	-0.151
-494.566	800.000	0.148	-0.411
-493.551	-105.642	-0.318	0.072
-492.537	183.893	0.025	-0.037
-491.522	108.286	-0.154	-0.183
-490.508	-147.881	-0.133	-0.011
-489.493	45.430	-0.175	-0.161
-488.478	-169.450	0.406	0.015
-487.464	-200.000	-0.001	0.138
-486.449	-132.115	-0.263	0.034
-485.435	-12.429	-0.208	0.135
-484.420	-54.503	0.021	-0.009
-483.405	-44.889	-0.043	0.021
-482.391	390.653	-0.120	0.247
-481.376	-94.290	0.363	-0.099
-480.362	-127.549	0.163	-0.023
-479.347	-12.431	0.076	-0.050
-478.332	-7.178	0.135	0.091
-477.318	-123.608	0.234	0.037
-476.303	96.745	-0.113	0.129
-475.289	-41.344	-0.562	0.288
-474.274	-61.828	-0.189	0.079
-473.259	-42.498	-0.301	-0.153
-472.245	120.811	0.193	0.238
-471.230	-75.209	-0.314	0.111
-470.216	800.000	-0.086	0.243
-469.201	-200.000	0.009	0.234
-468.186	-87.070	-0.237	-0.072
-467.172	17.207	0.193	0.152
-466.157	440.039	-0.090	-0.195
-465.143	321.292	0.020	0.037
-464.128	113.125	-0.068	0.082
-463.113	-200.000	-0.002	-0.382
-462.099	-97.895	-0.228	-0.058
-461.084	-17.452	0.298	-0.186
-460.070	-200.000	0.003	0.075
-459.055	13.125	-0.060	-0.046
-458.040	315.759	-0.021	-0.039
-457.026	334.105	0.053	0.101
-456.011	17.148	0.138	0.108
-454.997	-200.000	-0.030	0.189
-453.982	-108.294	0.198	0.042
-452.968	-19.060	-0.289	-0.179
-451.953	286.298	0.145	-0.261
-450.938	-151.946	0.093	0.007
-449.924	-1.663	0.167	0.117
-448.909	-77.323	0.253	-0.087
-447.895	78.986	0.167	0.178
-446.880	-172.678	-0.164	-0.005
-445.865	-13.755	0.385	-0.247
-444.851	-200.000	-0.001	0.086
-443.836	-152.433	-0.379	-0.027
-442.822	204.023	-0.131	0.202
-441.807	-17.306	-0.136	0.085
-440.792	-73.893	0.234	-0.084
-439.778	-118.613	0.188	-0.033
-438.763	-148.879	-0.197	0.016
-437.749	-103.203	0.061	0.014
-436.734	58.162	0.116	-0.113
-435.719	12.596	0.311	-0.238
-434.705	-99.180	0.087	0.022
-433.690	512.901	-0.078	-0.181
-432.676	146.318	-0.164	0.219
-431.661	-200.000	-0.011	-0.114
-430.646	-76.264	0.341	-0.119
-429.632	-196.198	-0.077	0.001
-428.617	-54.540	0.159	0.071
-427.603	82.123	0.216	0.233
-426.588	-82.205	0.109	0.035
-425.573	273.993	0.096	-0.168
-424.559	-87.545	-0.203	-0.061
-423.544	274.656	0.055	0.096
-422.530	-70.438	0.205	-0.077
-421.515	-69.611	0.050	0.019
-420.500	-78.234	0.084	0.029
-419.486	-154.499	0.500	-0.033
-418.471	-200.000	-0.077	0.436
-417.457	-195.174	0.087	-0.001
-416.442	101.375	-0.149	0.172
-415.428	-83.258	-0.192	-0.061
-414.413	129.863	0.101	-0.128
-413.398	-73.659	-0.207	-0.075
-412.384	-200.000	0.024	-0.192
-411.369	-200.000	-0.007	0.149
-410.355	332.837	-0.077	0.147
-409.340	108.594	-0.277	-0.328
-408.325	-43.953	0.349	0.174
-407.311	-83.115	0.191	-0.061
-406.296	-200.000	-0.027	0.270
-405.282	41.229	0.124	-0.111
-404.267	-142.684	-0.094	-0.009
-403.252	-43.447	0.041	0.020
-402.238	-200.000	-0.036	-0.165
-401.223	115.050	0.200	0.242
-400.209	37.914	-0.171	-0.150
-399.194	59.493	-0.124	0.121
-398.179	-45.473	-0.179	-0.088
-397.165	-93.874	0.491	0.134
-396.150	-63.780	0.150	-0.061
-395.136	137.160	0.123	-0.159
-394.121	558.901	0.112	-0.269
-393.106	95.466	0.171	-0.194
-392.092	800.000	0.037	-0.150
-391.077	-200.000	0.006	-0.187
-390.063	-200.000	0.037	0.326
-389.048	58.636	0.115	0.111
-388.033	122.481	0.106	0.131
-387.019	42.366	0.143	0.129
-386.004	198.661	-0.174	0.264
-384.990	159.862	-0.069	-0.095
-383.975	-200.000	0.049	0.250
-382.960	-200.000	-0.005	0.064
-381.946	-47.884	-0.229	-0.110
-380.931	216.326	0.230	-0.362
-379.917	-176.531	-0.101	-0.003
-378.902	-58.274	0.305	0.131
-377.888	212.390	0.066	-0.103
-376.873	-68.973	-0.172	0.066
-375.858	-73.705	-0.259	-0.093
-374.844	-83.398	-0.388	-0.123
-373.829	-89.174	-0.115	-0.034
-372.815	-13.468	0.029	0.019
-371.800	20.560	0.195	-0.156
-370.785	-13.545	-0.226	0.145
-369.771	-128.213	-0.339	-0.048
-368.756	-141.007	-0.093	-0.009
-367.742	50.058	-0.160	-0.149
-366.727	636.861	0.048	-0.121
-365.712	-109.601	-0.329	-0.069
-364.698	154.443	0.077	-0.104
-363.683	481.570	0.085	-0.191
-362.669	-182.317	-0.157	-0.003
-361.654	577.011	0.077	0.185
-360.639	-103.891	0.290	0.067
-359.625	-137.307	-0.545	0.061
-358.610	-200.000	0.054	0.282
-357.596	615.495	0.181	-0.449
-356.581	-200.000	0.002	0.022
-355.566	-140.111	0.280	0.029
-354.552	167.424	0.131	-0.184
-353.537	-200.000	-0.029	-0.169
-352.523	383.606	-0.282	0.574
-351.508	95.626	0.230	-0.260
-350.493	562.209	0.009	0.022
-349.479	-123.336	-0.164	0.026
-348.464	254.834	0.108	0.182
-347.450	8.044	-0.119	0.088
-346.435	67.424	-0.155	0.156
-345.420	-1.514	-0.171	0.119
-344.406	170.255	0.057	-0.081
-343.391	48.881	0.192	-0.178
-342.377	-200.000	-0.017	-0.093
-341.362	-200.000	-0.035	-0.228
-340.348	-75.122	-0.263	-0.093
-339.333	104.770	-0.242	0.281
-338.318	-200.000	0.019	-0.151
-337.304	-163.983	0.105	0.005
-336.289	115.376	-0.102	-0.123
-335.275	62.666	0.133	-0.131
-334.260	-200.000	-0.027	0.169
-333.245	-42.176	-0.116	-0.059
-332.231	-80.789	0.016	-0.005
-331.216	-200.000	0.017	0.232
-330.202	-103.458	0.111	-0.026
-329.187	-200.000	0.025	0.215
-328.172	-138.534	0.131	0.014
-327.158	164.278	0.152	-0.211
-326.143	-158.741	0.085	-0.005
-325.129	56.088	-0.131	0.125
-324.114	282.543	-0.112	-0.198
-323.099	-200.000	-0.065	-0.367
-322.085	76.922	0.179	0.187
-321.070	127.649	-0.040	0.050
-320.056	-200.000	-0.012	-0.138
-319.041	22.094	-0.150	-0.121
-318.026	-54.743	-0.161	0.072
-317.012	-55.550	0.304	0.134
-315.997	-91.872	0.200	-0.056
-314.983	-150.346	-0.149	-0.011
-313.968	-200.000	-0.032	-0.181
-312.953	-200.000	-0.035	0.153
-311.939	234.571	0.126	-0.206
-310.924	610.114	-0.075	0.186
-309.910	390.244	0.218	0.447
-308.895	122.428	-0.160	0.198
-307.880	14.660	0.096	-0.074
-306.866	-200.000	-0.006	-0.343
-305.851	315.429	-0.061	0.113
-304.837	59.197	-0.233	-0.226
-303.822	185.783	-0.164	0.240
-302.807	-195.839	0.304	-0.002
-301.793	422.083	-0.112	0.238
-300.778	740.814	-0.038	-0.100
-299.764	-200.000	0.025	-0.193
-298.749	760.855	-0.060	0.161
-297.735	-3.293	-0.098	0.068
-296.720	118.247	0.065	0.079
-295.705	-144.801	0.294	0.027
-294.691	83.486	0.074	0.079
-293.676	-94.674	-0.324	0.087
-292.662	37.732	-0.097	-0.085
-291.647	236.251	-0.133	-0.217
-290.632	264.222	0.121	-0.208
-289.618	35.566	-0.121	0.105
-288.603	-64.191	-0.078	-0.031
-287.589	-200.000	-0.059	0.295
-286.574	-89.133	-0.191	-0.056
-285.559	-21.679	-0.110	-0.066
-284.545	-200.000	-0.001	-0.191
-283.530	592.930	-0.063	0.153
-282.516	-200.000	0.007	0.219
-281.501	174.801	-0.113	0.162
-280.486	-200.000	-0.026	0.145
-279.472	-200.000	-0.007	0.069
-278.457	-200.000	-0.015	0.198
-277.443	-200.000	-0.033	-0.228
-276.428	-200.000	-0.046	0.222
-275.413	44.498	-0.221	0.200
-274.399	-188.713	0.054	-0.001
-273.384	200.893	-0.196	-0.297
-272.370	-200.000	0.039	0.262
-271.355	306.563	-0.041	-0.076
-270.340	-24.380	0.311	0.183
-269.326	-161.206	0.337	0.017
-268.311	-164.515	-0.061	0.003
-267.297	546.736	0.157	-0.369
-266.282	94.092	-0.224	0.251
-265.267	703.155	-0.084	0.218
-264.253	800.000	-0.027	0.082
-263.238	-200.000	-0.012	-0.367
-262.224	-200.000	-0.109	-0.527
-261.209	103.814	-0.191	0.222
-260.195	-149.526	0.345	0.027
-259.180	-200.000	-0.007	0.032
-258.165	-200.000	-0.001	-0.050
-257.151	800.000	-0.008	-0.025
-256.136	59.120	-0.215	0.209
-255.122	43.380	0.326	-0.293
-254.107	82.324	0.167	-0.178
-253.092	270.236	0.066	-0.114
-252.078	45.851	0.304	-0.277
-251.063	-200.000	-0.067	0.291
-250.049	13.495	0.184	0.141
-249.034	186.203	-0.254	0.372
-248.019	-200.000	-0.003	-0.039
-247.005	231.424	0.147	0.237
-245.990	20.895	0.175	0.139
-244.976	384.733	0.104	-0.211
-243.961	-87.572	0.125	0.037
-242.946	-59.471	-0.173	0.073
-241.932	-92.346	0.195	-0.054
-240.917	556.695	0.087	-0.208
-239.903	371.801	0.088	0.176
-238.888	-90.578	0.234	0.067
-237.873	477.219	0.179	-0.398
-236.859	-149.510	0.342	0.027
-235.844	800.000	0.018	-0.068
-234.830	248.425	0.134	0.224
-233.815	583.950	-0.058	0.141
-232.800	-200.000	-0.052	-0.306
-231.786	43.744	-0.020	0.018
-230.771	-0.265	0.159	-0.111
-229.757	338.121	0.056	-0.107
-228.742	-22.554	0.223	-0.132
-227.727	-200.000	0.002	-0.121
-226.713	-56.411	-0.196	0.086
-225.698	-37.773	0.034	-0.018
-224.684	450.293	-0.083	0.181
-223.669	179.525	-0.142	-0.204
-222.655	-22.944	-0.320	0.190
-221.640	-170.209	-0.263	0.009
-220.625	131.586	-0.093	0.118
-219.611	-59.595	-0.076	-0.032
-218.596	-193.757	0.186	-0.002
-217.582	510.424	0.099	0.226
-216.567	-192.464	0.281	-0.003
-215.552	-162.545	0.127	0.006
-214.538	17.946	-0.331	-0.259
-213.523	135.840	0.191	0.245
-212.509	331.814	0.156	0.297
-211.494	-73.187	0.266	-0.096
-210.479	-113.011	-0.338	-0.066
-209.465	75.439	-0.089	0.092
-208.450	40.402	0.010	-0.009
-207.436	-200.000	-0.051	0.264
-206.421	215.201	0.160	0.250
-205.406	-200.000	-0.022	-0.192
-204.392	800.000	-0.039	0.139
-203.377	-200.000	0.009	0.173
-202.363	5.416	0.159	0.115
-201.348	800.000	-0.094	0.318
-200.333	149.875	-0.119	-0.158
-199.319	171.479	0.130	-0.184
-198.304	41.761	0.249	0.222
-197.290	800.000	-0.065	0.245
-196.275	-187.356	0.161	-0.002
-195.260	-99.714	-0.071	-0.018
-194.246	800.000	0.054	0.206
-193.231	-200.000	0.065	0.346
-192.217	-149.124	-0.471	-0.037
-191.202	-200.000	0.034	0.362
-190.187	-162.764	-0.051	0.002
-189.173	-52.822	0.014	0.006
-188.158	-49.488	0.311	-0.145
-187.144	-114.365	-0.156	0.029
-186.129	-88.227	-0.055	0.016
-185.114	-110.162	-0.056	-0.011
-184.100	-200.000	0.082	-0.491
-183.085	421.750	-0.081	-0.171
-182.071	-200.000	-0.000	-0.061
-181.056	316.224	-0.051	-0.095
-180.042	268.123	0.193	-0.332
-179.027	-153.471	0.132	0.009
-178.012	253.134	0.173	0.290
-176.998	0.634	-0.134	0.094
-175.983	-176.751	0.157	-0.004
-174.969	32.481	-0.123	0.104
-173.954	268.241	-0.104	-0.179
-172.939	260.240	-0.027	0.046
-171.925	800.000	-0.027	-0.083
-170.910	492.547	0.011	-0.025
-169.896	-200.000	-0.019	0.221
-168.881	800.000	-0.021	0.077
-167.866	-135.283	-0.139	0.016
-166.852	-130.747	0.119	0.016
-165.837	-152.835	-0.538	-0.037
-164.823	-9.519	0.234	-0.154
-163.808	143.322	0.190	0.248
-162.793	-200.000	0.008	-0.240
-161.779	-174.151	-0.116	-0.003
-160.764	72.624	0.132	-0.135
-159.750	-200.000	-0.019	0.085
-158.735	-121.241	0.051	-0.008
-157.720	-200.000	-0.038	0.198
-156.706	-156.993	0.164	0.010
-155.691	-62.750	-0.232	0.094
-154.677	-132.929	0.127	0.016
-153.662	-37.770	0.127	-0.066
-152.647	-72.868	0.067	0.024
-151.633	269.415	-0.152	0.262
-150.618	-62.825	0.203	0.083
-149.604	-200.000	-0.000	-0.088
-148.589	-200.000	-0.008	0.285
-147.574	573.968	-0.069	0.165
-146.560	-88.633	-0.356	0.104
-145.545	603.038	0.012	0.030
-144.531	74.478	-0.356	0.367
-143.516	-171.473	-0.097	-0.003
-142.502	71.483	-0.110	-0.112
-141.487	-200.000	0.018	0.191
-140.472	-95.285	-0.042	-0.011
-139.458	800.000	0.040	-0.171
-138.443	-200.000	0.011	-0.110
-137.429	800.000	0.017	0.053
-136.414	-6.287	-0.098	0.065
-135.399	-85.765	-0.093	-0.028
-134.385	343.319	-0.094	0.180
-133.370	338.136	-0.114	0.217
-132.356	-38.764	-0.238	-0.123
-131.341	-38.219	-0.294	0.153
-130.326	800.000	0.055	0.161
-129.312	-192.272	-0.023	-0.000
-128.297	-10.808	0.161	-0.104
-127.283	393.404	-0.112	-0.228
-126.268	311.132	0.131	0.240
-125.253	278.944	0.048	-0.084
-124.239	134.664	0.163	0.207
-123.224	192.005	-0.181	0.267
-122.210	-86.226	-0.106	0.032
-121.195	-125.396	-0.171	-0.026
-120.180	-200.000	0.005	-0.221
-119.166	-106.873	0.128	0.028
-118.151	-88.978	-0.110	0.032
-117.137	-52.358	0.272	0.123
-116.122	-185.066	0.160	0.002
-115.107	-200.000	0.013	0.163
-114.093	-47.892	0.303	0.144
-113.078	-144.463	-0.311	-0.028
-112.064	-200.000	-0.022	0.197
-111.049	435.001	0.082	-0.174
-110.034	800.000	-0.030	-0.117
-109.020	-108.128	-0.209	0.044
-108.005	3.766	-0.075	-0.054
-106.991	63.138	0.129	0.126
-105.976	-182.125	0.229	-0.004
-104.962	-96.471	-0.270	-0.070
-103.947	96.739	-0.122	-0.137
-102.932	-78.835	-0.221	-0.074
-101.918	-127.774	-0.212	-0.030
-100.903	-6.844	0.049	0.033
-99.889	-149.111	0.082	-0.006
-98.874	256.322	-0.093	0.156
-97.859	-71.011	-0.166	0.061
-96.845	16.394	0.076	-0.059
-95.830	1.733	-0.222	0.157
-94.816	4.484	0.203	-0.146
-93.801	-118.698	0.292	-0.050
-92.786	-200.000	0.017	-0.356
-91.772	19.941	0.101	-0.080
-90.757	-17.058	-0.113	0.070
-89.743	1.976	-0.086	0.061
-88.728	133.709	-0.034	-0.042
-87.713	-200.000	-0.082	0.370
-86.699	-4.378	-0.205	-0.139
-85.684	800.000	-0.070	0.196
-84.670	138.046	0.026	0.033
-83.655	-98.880	-0.347	0.086
-82.640	-115.566	-0.078	0.014
-81.626	659.371	-0.138	-0.348
-80.611	-142.573	0.169	0.016
-79.597	-89.807	-0.376	0.108
-78.582	191.156	0.148	0.218
-77.567	-200.000	-0.047	0.265
-76.553	-200.000	0.026	-0.357
-75.538	63.357	-0.213	-0.209
-74.524	564.393	-0.082	0.194
-73.509	-200.000	0.021	0.306
-72.494	-93.094	0.557	-0.152
-71.480	-39.936	0.055	-0.028
-70.465	-180.968	-0.335	-0.007
-69.451	500.372	-0.047	0.107
-68.436	-95.397	-0.332	0.087
-67.422	-79.281	0.395	0.131
-66.407	15.027	0.285	-0.218
-65.392	15.114	0.158	0.121
-64.378	229.341	0.115	-0.184
-63.363	-200.000	0.035	0.177
-62.349	-119.517	0.041	-0.007
-61.334	37.338	-0.932	-0.808
-60.319	343.164	0.324	0.621
-59.305	-200.000	-0.176	-0.867
-58.290	800.000	0.379	1.242
-57.276	414.388	0.793	1.649
-56.261	-200.000	115.108	648.027
-55.246	469.566	1512.871	3321.825
-54.232	147.184	2679.050	3523.683
-53.217	102.239	2173.817	2482.197
-52.203	37.631	1699.301	1474.080
-51.188	30.089	1517.014	1264.663
-50.173	28.080	1491.653	1229.980
-49.159	51.910	1549.477	1441.600
-48.144	50.292	1565.154	1445.045
-47.130	30.401	1521.697	1270.504
-46.115	27.401	1506.926	1237.760
-45.100	27.189	1503.159	1233.178
-44.086	27.047	1500.968	1230.370
-43.071	27.177	1499.059	1229.634
-42.057	27.169	1497.603	1228.336
-41.042	27.111	1496.211	1226.758
-40.027	27.110	1494.644	1225.412
-39.013	27.122	1492.946	1224.054
-37.998	27.139	1491.647	1223.054
-36.984	27.091	1490.706	1221.917
-35.969	27.116	1489.305	1220.887
-34.954	27.140	1487.647	1219.639
-33.940	27.106	1486.509	1218.426
-32.925	27.166	1484.958	1217.511
-31.911	27.150	1483.810	1216.415
-30.896	27.258	1482.741	1216.210
-29.881	27.218	1481.334	1214.744
-28.867	27.242	1479.551	1213.393
-27.852	27.208	1478.756	1212.462
-26.838	27.198	1477.288	1211.148
-25.823	27.196	1475.765	1209.836
-24.809	27.171	1473.950	1208.136
-23.794	27.116	1473.022	1206.958
-22.779	27.197	1471.448	1206.162
-21.765	27.245	1470.182	1205.392
-20.750	27.172	1469.332	1204.165
-19.736	27.163	1468.505	1203.381
-18.721	27.272	1467.038	1202.848
-17.706	27.168	1466.229	1201.452
-16.692	27.252	1465.239	1201.145
-15.677	27.105	1464.278	1199.342
-14.663	27.226	1463.294	1199.285
-13.648	27.124	1462.371	1197.810
-12.633	27.088	1461.549	1196.854
-11.619	27.026	1461.091	1196.019
-10.604	27.178	1459.747	1195.871
-9.590	27.091	1458.850	1194.517
-8.575	27.070	1457.856	1193.521
-7.560	27.179	1456.762	1193.293
-6.546	27.104	1456.158	1192.256
-5.531	27.248	1454.742	1191.993
-4.517	27.126	1454.288	1190.780
-3.502	27.096	1453.163	1189.612
-2.487	27.192	1451.992	1189.236
-1.473	27.159	1451.126	1188.262
-0.458	27.100	1450.166	1187.046
0.556	25.576	1440.270	1176.039
1.571	22.614	1416.674	1137.588
2.586	19.508	1357.084	1070.411
3.600	18.003	1275.315	997.046
4.615	16.959	1230.396	955.961
5.629	16.435	1177.302	911.801
6.644	13.723	1102.090	839.763
7.659	11.372	1068.083	802.228
8.673	10.970	1063.030	796.396
9.688	11.066	1059.280	793.983
10.702	10.745	1058.582	791.826
11.717	11.030	1055.789	791.051
12.731	11.899	1056.253	795.556
13.746	14.527	1059.278	810.550
14.761	17.230	1062.089	825.783
15.775	17.790	1061.889	828.272
16.790	17.029	1060.083	823.101
17.804	15.959	1057.796	816.074
18.819	15.132	1055.900	810.535
19.834	14.505	1054.650	806.473
20.848	14.259	1053.599	804.410
21.863	14.069	1053.105	803.046
22.877	13.802	1052.248	801.033
23.892	13.661	1050.784	799.166
24.907	13.462	1050.316	797.778
25.921	13.469	1049.784	797.336
26.936	13.488	1049.196	796.913
27.950	13.657	1047.542	796.400
28.965	13.564	1046.914	795.406
29.980	13.696	1045.477	794.873
30.994	13.874	1044.508	794.922
32.009	13.771	1043.677	793.723
33.023	13.807	1043.053	793.352
34.038	13.732	1042.282	792.336
35.053	13.798	1041.320	791.848
36.067	13.625	1040.392	790.249
37.082	13.716	1039.911	790.250
38.096	13.644	1038.854	789.035
39.111	13.759	1038.123	788.954
40.126	13.701	1037.118	787.847
41.140	13.819	1035.963	787.458
42.155	13.608	1034.839	785.532
43.169	13.552	1033.775	784.393
44.184	13.469	1032.753	783.154
45.199	13.571	1031.403	782.543
46.213	13.375	1030.919	781.182
47.228	13.531	1029.640	780.881
48.242	13.573	1028.639	780.250
49.257	13.545	1027.619	779.273
50.271	13.653	1026.937	779.196
51.286	13.622	1025.801	778.119
52.301	13.807	1024.848	778.195
53.315	13.661	1024.351	777.065
54.330	13.773	1022.814	776.354
55.344	13.718	1022.141	775.515
56.359	13.697	1021.133	774.586
57.374	13.573	1020.760	773.654
58.388	13.570	1019.646	772.727
59.403	13.546	1018.591	771.750
60.417	13.482	1018.148	771.045
61.432	13.540	1017.409	770.687
62.447	13.480	1016.766	769.855
63.461	13.419	1015.705	768.700
64.476	13.246	1014.991	767.288
65.490	13.456	1013.565	767.115
66.505	13.466	1012.944	766.622
67.520	13.509	1012.120	766.129
68.534	13.527	1011.336	765.553
69.549	13.404	1010.450	764.250
70.563	13.562	1009.757	764.383
71.578	13.465	1009.334	763.549
72.593	13.472	1008.399	762.807
73.607	13.464	1006.902	761.569
74.622	13.302	1006.603	760.530
75.636	13.335	1005.274	759.612
76.651	13.442	1004.485	759.439
77.666	13.407	1003.900	758.771
78.680	13.358	1003.176	757.930
79.695	13.465	1002.277	757.675
80.709	13.403	1002.213	757.273
81.724	13.473	1001.117	756.699
82.739	13.579	1000.564	756.700
83.753	13.602	999.453	755.894
84.768	13.737	998.652	755.841
85.782	13.727	998.253	755.425
86.797	13.807	997.425	755.094
87.812	13.754	996.520	754.103
88.826	13.681	995.629	753.031
89.841	13.711	994.994	752.619
90.855	13.743	994.143	752.055
91.870	13.775	993.253	751.460
92.884	13.788	992.398	750.803
93.899	13.765	991.730	750.129
94.914	13.796	990.874	749.553
95.928	13.959	990.029	749.587
96.943	13.891	989.164	748.556
97.957	13.780	988.587	747.555
98.972	13.812	987.717	746.976
99.987	13.735	987.066	746.070
101.001	13.776	986.362	745.655
102.016	13.823	985.257	744.967
103.030	13.822	984.293	744.164
104.045	13.832	983.745	743.731
105.060	13.840	982.763	742.957
106.074	13.725	981.579	741.483
107.089	13.688	980.659	740.558
108.103	13.567	980.083	739.515
109.118	13.494	979.159	738.431
110.133	13.594	977.992	737.928
111.147	13.500	977.525	737.090
112.162	13.561	976.704	736.679
113.176	13.667	975.529	736.197
114.191	13.659	974.887	735.615
115.206	13.616	974.358	734.960
116.220	13.758	973.109	734.580
117.235	13.677	972.307	733.552
118.249	13.551	971.609	732.401
119.264	13.650	970.600	732.013
120.279	13.624	969.843	731.264
121.293	13.565	968.935	730.256
122.308	13.578	968.446	729.880
123.322	13.617	967.408	729.202
124.337	13.521	966.301	727.882
125.352	13.505	965.540	727.174
126.366	13.514	964.376	726.273
127.381	13.519	963.262	725.392
128.395	13.485	962.466	724.582
129.410	13.569	960.982	723.767
130.424	13.453	960.478	722.816
131.439	13.577	959.590	722.623
132.454	13.604	958.265	721.679
133.468	13.572	957.944	721.236
134.483	13.632	957.475	721.080
135.497	13.623	956.833	720.493
136.512	13.702	955.903	720.075
137.527	13.535	955.258	718.799
138.541	13.558	954.591	718.332
139.556	13.714	953.518	718.138
140.570	13.667	953.058	717.526
141.585	13.548	952.532	716.551
142.600	13.723	951.812	716.702
143.614	13.760	950.817	716.047
144.629	13.822	950.162	715.758
145.643	13.896	949.237	715.316
146.658	13.879	948.107	714.331
147.673	13.866	947.456	713.720
148.687	13.724	946.505	712.332
149.702	13.821	945.606	712.008
150.716	13.820	944.586	711.172
151.731	13.666	943.975	709.990
152.746	13.698	943.236	709.507
153.760	13.744	942.399	709.013
154.775	13.741	942.239	708.816
155.789	13.758	941.288	708.111
156.804	13.838	940.389	707.715
157.819	13.919	939.412	707.259
158.833	13.978	939.113	707.223
159.848	13.894	938.327	706.209
160.862	14.087	937.648	706.459
161.877	13.841	937.025	704.882
162.892	13.870	936.388	704.463
163.906	13.829	935.416	703.494
164.921	13.762	934.894	702.758
165.935	13.788	933.811	701.990
166.950	13.890	932.814	701.611
167.964	13.926	931.730	700.883
168.979	13.864	930.683	699.772
169.994	14.023	929.732	699.666
171.008	14.016	928.973	699.003
172.023	14.030	927.805	698.122
173.037	14.005	927.377	697.634
174.052	14.048	926.648	697.202
175.067	13.993	926.168	696.551
176.081	13.934	925.405	695.669
177.096	13.936	924.468	694.910
178.110	13.914	923.689	694.172
179.125	13.971	922.847	693.716
180.140	13.970	922.145	693.120
181.154	13.944	921.576	692.522
182.169	14.045	921.021	692.465
183.183	14.079	920.557	692.198
184.198	14.124	919.512	691.539
185.213	14.207	918.806	691.292
186.227	14.240	918.370	691.039
187.242	14.198	917.535	690.176
188.256	14.236	917.038	689.895
189.271	14.268	916.340	689.445
190.286	14.271	915.603	688.841
191.300	14.083	914.780	687.385
192.315	14.089	913.798	686.611
193.329	13.986	913.597	685.973
194.344	14.099	912.190	685.323
195.359	14.167	911.758	685.217
196.373	14.053	911.501	684.493
197.388	14.235	911.109	684.885
198.402	14.250	910.881	684.717
199.417	14.446	910.133	684.898
200.432	14.338	909.842	684.178
201.446	14.425	909.273	684.047
202.461	14.498	908.833	683.951
203.475	14.600	908.519	684.073
204.490	14.555	907.790	683.279
205.504	14.357	906.635	681.539
206.519	14.348	905.978	680.950
207.534	14.406	904.911	680.325
208.548	14.338	904.260	679.496
209.563	14.306	904.347	679.370
210.577	14.320	903.218	678.522
211.592	14.455	902.515	678.483
212.607	14.486	902.019	678.177
213.621	14.659	901.179	678.184
214.636	14.594	900.847	677.613
215.650	14.439	900.415	676.598
216.665	14.493	899.599	676.145
217.680	14.452	899.543	675.874
218.694	14.609	898.593	675.740
219.709	14.583	898.437	675.455
220.723	14.557	897.695	674.734
221.738	14.725	896.662	674.576
222.753	14.662	895.999	673.765
223.767	14.596	895.362	672.960
224.782	14.787	894.337	672.897
225.796	14.855	893.724	672.651
226.811	14.897	893.003	672.216
227.826	14.721	892.928	671.393
228.840	14.791	891.517	670.553
229.855	14.695	891.068	669.774
230.869	14.795	890.541	669.720
231.884	14.849	889.510	669.098
232.899	14.793	888.873	668.336
233.913	14.626	888.462	667.302
234.928	14.760	887.611	667.138
235.942	14.875	886.711	666.863
236.957	14.638	886.402	665.625
237.972	14.599	885.998	665.105
238.986	14.746	885.194	665.029
240.001	14.670	884.858	664.418
241.015	14.758	883.476	663.670
242.030	14.838	882.956	663.539
243.045	14.847	882.055	662.838
244.059	14.980	881.722	663.058
245.074	14.933	881.294	662.488
246.088	14.757	880.753	661.326
247.103	14.954	880.018	661.495
248.117	14.880	879.631	660.856
249.132	15.048	878.859	660.878
250.147	15.133	878.179	660.646
251.161	15.143	877.704	660.268
252.176	15.130	877.278	659.836
253.190	15.229	876.456	659.549
254.205	15.387	875.682	659.532
255.220	15.241	875.471	658.740
256.234	15.257	874.749	658.201
257.249	15.420	873.539	657.872
258.263	15.379	873.393	657.543
259.278	15.336	872.872	656.922
260.293	15.311	872.325	656.356
261.307	15.331	871.666	655.882
262.322	15.513	870.975	656.012
263.336	15.459	870.783	655.602
264.351	15.420	870.265	655.001
265.366	15.429	869.362	654.299
266.380	15.455	868.604	653.773
267.395	15.495	868.014	653.426
268.409	15.519	867.406	653.002
269.424	15.531	866.390	652.227
270.439	15.624	865.668	651.986
271.453	15.567	864.884	651.117
272.468	15.453	864.031	649.975
273.482	15.395	863.750	649.482
274.497	15.414	863.145	649.044
275.512	15.596	862.509	649.209
276.526	15.537	861.751	648.355
277.541	15.410	861.089	647.310
278.555	15.566	860.462	647.381
279.570	15.681	859.704	647.200
280.585	15.740	859.753	647.406
281.599	15.750	858.607	646.522
282.614	15.495	858.747	645.589
283.628	15.485	857.998	644.932
284.643	15.692	857.186	645.059
285.657	15.641	856.735	644.468
286.672	15.657	856.256	644.111
287.687	15.712	855.506	643.700
288.701	15.609	855.409	643.176
289.716	15.783	854.446	643.061
290.730	15.683	854.092	642.354
291.745	15.809	853.476	642.315
292.760	15.756	852.602	641.398
293.774	15.711	852.474	641.076
294.789	15.862	851.621	640.952
295.803	15.974	850.836	640.728
296.818	15.881	850.117	639.780
297.833	15.879	849.806	639.480
298.847	15.788	849.021	638.486
299.862	15.902	847.786	637.936
300.876	15.800	847.705	637.428
301.891	15.865	847.110	637.171
302.906	15.924	846.453	636.844
303.920	15.922	846.001	636.439
304.935	16.045	845.034	636.121
305.949	16.027	844.770	635.798
306.964	16.113	844.034	635.511
307.979	15.998	843.182	634.380
308.993	15.991	843.369	634.439
310.008	16.052	842.635	634.061
311.022	16.168	841.925	633.906
312.037	16.086	841.668	633.349
313.052	16.128	840.945	632.906
314.066	16.187	840.046	632.396
315.081	16.078	839.303	631.374
316.095	15.988	839.522	631.143
317.110	16.099	838.891	631.028
318.125	16.247	837.878	630.766
319.139	15.979	837.645	629.532
320.154	16.064	837.144	629.416
321.168	16.064	836.879	629.163
322.183	16.196	836.140	629.043
323.197	16.063	835.905	628.314
324.212	16.278	834.771	628.208
325.227	16.396	834.029	628.032
326.241	16.220	833.802	627.151
327.256	16.273	833.434	627.014
328.270	16.200	832.509	625.994
329.285	16.070	832.378	625.358
330.300	16.190	831.590	625.156
331.314	16.334	830.984	625.178
332.329	16.304	830.036	624.297
333.343	16.390	829.375	624.063
334.358	16.426	829.195	624.005
335.373	16.314	828.870	623.292
336.387	16.408	828.062	622.974
337.402	16.487	827.527	622.808
338.416	16.427	827.040	622.167
339.431	16.575	826.780	622.460
340.446	16.493	826.241	621.699
341.460	16.466	825.889	621.279
342.475	16.629	824.959	621.123
343.489	16.630	824.649	620.837
344.504	16.658	823.629	620.119
345.519	16.647	823.756	620.119
346.533	16.754	822.802	619.735
347.548	16.653	822.596	619.158
348.562	16.650	821.916	618.581
349.577	16.568	821.627	618.008
350.592	16.521	821.240	617.492
351.606	16.681	820.372	617.367
352.621	16.421	820.193	616.228
353.635	16.471	819.613	615.919
354.650	16.635	818.798	615.849
355.665	16.625	818.797	615.758
356.679	16.805	818.164	615.884
357.694	16.758	817.864	615.432
358.708	16.817	816.853	614.830
359.723	16.819	816.421	614.459
360.738	16.735	816.074	613.839
361.752	16.775	815.221	613.288
362.767	16.954	815.036	613.740
363.781	16.926	814.649	613.295
364.796	16.863	814.463	612.873
365.810	16.897	813.597	612.289
366.825	17.000	813.549	612.571
367.840	17.004	813.002	612.120
368.854	17.171	812.373	612.195
369.869	16.929	812.499	611.363
370.883	16.853	811.790	610.500
371.898	17.081	810.896	610.595
372.913	17.019	810.341	609.901
373.927	16.977	810.076	609.497
374.942	17.096	809.172	609.187
375.956	17.059	808.275	608.325
376.971	17.135	808.023	608.356
377.986	17.077	808.007	608.081
379.000	17.140	807.014	607.505
380.015	17.270	806.476	607.511
381.029	17.154	806.364	606.959
382.044	17.176	805.664	606.458
383.059	17.326	804.861	606.334
384.073	17.294	804.266	605.718
385.088	17.367	803.713	605.509
386.102	17.257	803.269	604.728
387.117	17.303	802.618	604.348
388.132	17.267	802.025	603.721
389.146	16.963	802.219	602.732
390.161	17.156	801.884	603.115
391.175	17.250	801.167	602.855
392.190	17.216	801.082	602.615
393.205	17.359	800.131	602.355
394.219	17.347	799.626	601.880
395.234	17.247	799.147	601.111
396.248	17.359	798.717	601.130
397.263	17.199	798.315	600.208
398.278	17.211	798.003	599.962
399.292	17.320	797.165	599.664
400.307	17.248	797.028	599.256
401.321	17.188	796.868	598.872
402.336	17.309	796.256	598.783
403.350	17.485	795.669	598.909
404.365	17.389	795.544	598.425
405.380	17.430	795.112	598.188
406.394	17.567	794.368	598.060
407.409	17.573	793.943	597.706
408.423	17.778	793.254	597.854
409.438	17.615	793.077	597.098
410.453	17.480	792.668	596.263
411.467	17.549	792.283	596.162
412.482	17.742	791.772	596.399
413.496	17.848	791.317	596.375
414.511	17.885	790.965	596.184
415.526	17.717	790.551	595.236
416.540	17.737	790.210	594.995
417.555	17.723	790.063	594.781
418.569	17.784	789.096	594.215
419.584	17.741	789.047	593.974
420.599	17.790	788.330	593.555
421.613	111.775	1292.823	1476.077
422.628	95.984	1366.322	1476.166
