DTS Sentinel unit serial number:	SN413079Multiplexer serial number:	ORYXHardware model number:	OX4-SRSoftware version number:	ORYX F/W v4.00 Oryx Data Collector v3.7.2.0data status	okinstallation	princeton_trtdifferential loss correction	single-endedforward channel	channel 3reverse channel	N/Adate	2019/09/16time	00:36:35forward acquisition time	60.00reverse acquisition time	0.00gamma	496.2192k internal	0.2337k external	0.2337temperature offset calibration	0.9950default loss term (dB/km)	0.3790temperature slope calibration	1.0000multiplexer offset coefficient	1.0000multiplexer slope coefficient	1.0000fibre end	0.00T internal ref (°C)	27.50T ext. ref 1 (°C)	9.60T ext. ref 2 (°C)	21.58length (m)	temperature (°C)	Stokes	anti-Stokes-747.200	-109.105	0.459	-0.098
-746.185	-2.129	-0.313	0.221
-745.171	-69.961	-0.117	0.045
-744.156	-127.852	0.310	-0.045
-743.142	299.222	0.081	0.150
-742.127	638.041	0.076	0.195
-741.112	-200.000	-0.010	0.112
-740.098	369.783	-0.156	0.318
-739.083	800.000	0.045	0.148
-738.069	-84.469	-0.360	0.114
-737.054	800.000	0.042	0.149
-736.039	148.241	-0.193	0.261
-735.025	137.028	0.199	0.260
-734.010	230.458	-0.235	0.385
-732.996	75.492	-0.155	-0.165
-731.981	-11.099	0.156	-0.103
-730.966	-104.687	-0.090	-0.021
-729.952	-97.128	0.173	-0.045
-728.937	2.397	-0.291	-0.211
-727.923	-7.848	0.106	-0.072
-726.908	-200.000	0.005	0.313
-725.894	-87.277	0.293	0.089
-724.879	-37.567	-0.309	-0.165
-723.864	-70.001	-0.183	0.070
-722.850	-200.000	0.076	0.411
-721.835	-28.804	-0.155	-0.090
-720.821	800.000	-0.066	-0.187
-719.806	60.036	0.117	-0.116
-718.791	239.105	-0.122	0.204
-717.777	527.821	0.088	-0.207
-716.762	-42.703	0.217	0.111
-715.748	-96.417	-0.203	-0.054
-714.733	800.000	-0.085	-0.372
-713.718	-200.000	-0.004	0.038
-712.704	432.879	0.118	0.257
-711.689	-65.393	-0.214	0.086
-710.675	237.179	-0.156	-0.259
-709.660	18.359	-0.256	-0.205
-708.645	794.829	-0.055	-0.150
-707.631	206.680	0.112	-0.176
-706.616	430.952	0.059	-0.128
-705.602	-200.000	0.011	-0.098
-704.587	117.966	0.238	-0.294
-703.572	32.842	-0.106	-0.092
-702.558	631.682	-0.123	-0.311
-701.543	-52.427	-0.081	-0.038
-700.529	-200.000	0.131	-0.000
-699.514	-58.164	-0.361	-0.157
-698.499	454.008	-0.132	-0.292
-697.485	-200.000	0.018	-0.084
-696.470	5.361	0.099	0.073
-695.456	-92.798	0.216	-0.061
-694.441	-103.283	-0.180	-0.043
-693.426	-112.221	-0.042	0.008
-692.412	-200.000	0.036	-0.161
-691.397	-53.505	0.356	-0.163
-690.383	-38.397	-0.191	0.101
-689.368	-120.464	-0.112	-0.019
-688.354	-65.049	0.269	-0.109
-687.339	19.875	-0.150	0.121
-686.324	-16.242	0.198	-0.126
-685.310	82.133	0.078	-0.084
-684.295	-200.000	-0.011	-0.165
-683.281	-146.614	-0.303	0.026
-682.266	800.000	-0.052	0.181
-681.251	-54.651	0.142	0.064
-680.237	69.998	0.174	-0.180
-679.222	-200.000	0.020	0.104
-678.208	800.000	-0.023	-0.082
-677.193	-67.293	0.139	0.055
-676.178	-200.000	-0.019	-0.267
-675.164	-117.407	-0.196	0.036
-674.149	800.000	0.055	0.196
-673.135	-11.102	-0.353	-0.233
-672.120	169.047	-0.048	0.069
-671.105	-200.000	-0.037	-0.181
-670.091	-200.000	0.033	-0.199
-669.076	800.000	0.097	-0.280
-668.062	81.785	-0.131	-0.142
-667.047	-77.146	0.065	0.023
-666.032	-120.658	0.232	-0.039
-665.018	-0.444	-0.199	-0.141
-664.003	208.725	-0.208	0.325
-662.989	49.643	0.256	-0.241
-661.974	-46.152	-0.274	-0.135
-660.959	-88.979	-0.472	0.140
-659.945	426.385	0.163	0.350
-658.930	800.000	0.094	-0.393
-657.916	16.309	-0.095	0.075
-656.901	67.976	0.226	0.231
-655.886	-200.000	0.008	-0.418
-654.872	-200.000	-0.030	-0.146
-653.857	-60.744	-0.116	-0.049
-652.843	-8.357	-0.161	0.108
-651.828	-132.218	0.071	-0.009
-650.814	-200.000	-0.002	0.101
-649.799	-79.411	0.334	-0.113
-648.784	-18.281	-0.374	-0.234
-647.770	148.256	-0.166	0.224
-646.755	-89.011	0.416	-0.123
-645.741	-200.000	0.005	-0.044
-644.726	32.434	0.104	-0.090
-643.711	-200.000	-0.003	0.112
-642.697	-200.000	-0.038	-0.235
-641.682	-200.000	-0.046	-0.534
-640.668	-116.603	0.293	-0.054
-639.653	-200.000	-0.015	-0.318
-638.638	518.646	0.071	0.167
-637.624	607.814	-0.133	0.333
-636.609	-11.699	-0.213	0.140
-635.595	409.393	0.044	0.092
-634.580	800.000	-0.028	0.081
-633.565	292.291	0.092	0.167
-632.551	99.461	-0.183	0.211
-631.536	-133.435	-0.477	0.060
-630.522	-95.502	0.257	-0.069
-629.507	47.542	0.300	0.279
-628.492	301.180	-0.140	-0.258
-627.478	-200.000	0.011	0.117
-626.463	800.000	-0.076	-0.272
-625.449	-19.398	-0.276	-0.171
-624.434	800.000	-0.129	-0.419
-623.419	-119.545	-0.293	-0.051
-622.405	513.461	-0.111	0.259
-621.390	-200.000	0.051	-0.365
-620.376	61.994	0.086	0.086
-619.361	-151.623	-0.363	0.027
-618.346	-200.000	0.062	0.343
-617.332	2.747	0.180	-0.130
-616.317	-91.083	-0.096	-0.027
-615.303	-200.000	-0.049	-0.332
-614.288	-50.711	-0.261	-0.122
-613.273	310.273	0.160	0.299
-612.259	-169.742	-0.308	-0.011
-611.244	1.625	-0.175	0.126
-610.230	209.453	-0.102	0.160
-609.215	655.408	0.117	0.300
-608.201	61.560	-0.174	0.173
-607.186	-173.157	-0.208	-0.006
-606.171	41.725	-0.104	0.094
-605.157	800.000	-0.055	0.235
-604.142	276.306	-0.088	0.156
-603.128	-149.679	-0.187	-0.015
-602.113	-49.055	-0.073	-0.035
-601.098	98.444	-0.150	-0.172
-600.084	-86.093	0.157	0.048
-599.069	-87.432	-0.138	-0.042
-598.055	36.661	-0.152	-0.134
-597.040	-39.553	-0.228	-0.119
-596.025	-18.023	0.108	-0.068
-595.011	116.104	0.019	0.023
-593.996	62.620	-0.277	0.276
-592.982	227.507	-0.124	0.202
-591.967	212.269	0.123	-0.194
-590.952	46.551	-0.201	-0.186
-589.938	724.495	0.039	-0.105
-588.923	390.231	0.082	0.170
-587.909	73.523	-0.094	0.098
-586.894	354.572	-0.105	-0.208
-585.879	-200.000	0.014	-0.157
-584.865	-30.218	-0.075	-0.043
-583.850	800.000	-0.019	-0.076
-582.836	800.000	-0.080	0.246
-581.821	41.362	-0.349	0.315
-580.806	100.386	-0.236	0.273
-579.792	274.837	0.207	0.365
-578.777	11.746	0.149	0.114
-577.763	-88.950	-0.203	0.060
-576.748	84.997	-0.071	-0.078
-575.733	685.525	0.037	-0.095
-574.719	146.222	0.150	-0.200
-573.704	-27.640	0.261	-0.151
-572.690	74.860	-0.036	0.038
-571.675	-72.922	0.274	-0.100
-570.661	378.602	0.040	-0.082
-569.646	-60.905	-0.163	0.069
-568.631	800.000	-0.043	0.149
-567.617	734.362	-0.057	-0.153
-566.602	4.579	0.069	0.051
-565.588	54.875	-0.031	0.030
-564.573	505.493	-0.064	-0.149
-563.558	-55.775	0.210	0.093
-562.544	-200.000	-0.040	-0.204
-561.529	-200.000	-0.033	-0.428
-560.515	326.743	-0.103	0.197
-559.500	-77.413	-0.101	0.035
-558.485	800.000	-0.052	-0.179
-557.471	683.069	-0.069	-0.180
-556.456	-103.979	-0.032	0.007
-555.442	-8.688	-0.018	-0.012
-554.427	799.401	0.029	0.081
-553.412	-143.831	0.203	0.019
-552.398	-200.000	0.002	0.023
-551.383	-200.000	-0.003	0.089
-550.369	135.408	0.267	-0.346
-549.354	-106.704	-0.212	0.047
-548.339	383.324	0.043	0.087
-547.325	311.424	0.209	0.390
-546.310	238.780	-0.059	0.098
-545.296	390.906	0.121	0.250
-544.281	-16.234	-0.056	-0.035
-543.266	446.969	-0.048	0.106
-542.252	12.490	-0.087	-0.067
-541.237	194.266	-0.228	0.343
-540.223	-200.000	0.039	-0.180
-539.208	-120.290	0.136	-0.023
-538.193	57.354	0.132	0.128
-537.179	800.000	-0.024	-0.071
-536.164	768.302	-0.146	-0.396
-535.150	97.778	-0.140	-0.160
-534.135	-62.807	-0.221	-0.091
-533.121	-200.000	0.061	0.274
-532.106	-152.613	-0.071	0.005
-531.091	-125.653	0.079	-0.012
-530.077	0.928	-0.132	0.094
-529.062	152.133	0.185	-0.251
-528.048	58.264	-0.123	-0.120
-527.033	51.973	0.240	0.228
-526.018	-200.000	-0.032	-0.239
-525.004	-200.000	0.030	-0.372
-523.989	1.406	-0.024	0.017
-522.975	-124.360	0.276	0.043
-521.960	-62.434	-0.460	-0.190
-520.945	-76.408	-0.175	0.061
-519.931	800.000	0.098	0.369
-518.916	-127.569	0.495	0.071
-517.902	-135.585	0.139	-0.016
-516.887	-54.485	-0.299	0.135
-515.872	-5.485	0.085	0.058
-514.858	92.604	-0.213	0.239
-513.843	364.705	0.132	-0.264
-512.829	-70.306	0.074	-0.028
-511.814	19.475	-0.323	-0.258
-510.799	-70.653	0.254	-0.095
-509.785	118.754	-0.193	-0.237
-508.770	226.617	0.098	-0.158
-507.756	12.454	-0.231	-0.177
-506.741	-200.000	-0.046	-0.299
-505.726	101.042	0.071	-0.082
-504.712	800.000	0.030	-0.127
-503.697	289.749	0.131	-0.237
-502.683	-64.903	-0.148	0.060
-501.668	34.927	-0.122	-0.106
-500.653	175.946	0.041	-0.058
-499.639	-10.054	-0.218	0.144
-498.624	29.668	0.048	-0.041
-497.610	265.972	0.028	0.048
-496.595	-111.253	-0.181	0.037
-495.581	182.108	0.208	0.304
-494.566	-200.000	0.001	-0.100
-493.551	800.000	0.018	0.073
-492.537	-200.000	-0.048	0.346
-491.522	353.610	-0.026	0.052
-490.508	-17.868	0.215	-0.134
-489.493	566.382	-0.138	0.334
-488.478	-6.027	0.064	-0.043
-487.464	115.086	-0.107	-0.129
-486.449	-200.000	0.015	-0.358
-485.435	352.876	0.156	0.307
-484.420	-116.558	0.246	-0.045
-483.405	-156.056	0.156	0.010
-482.391	-16.958	-0.138	-0.087
-481.376	587.930	0.052	0.127
-480.362	405.702	-0.077	-0.161
-479.347	800.000	0.035	-0.145
-478.332	50.013	0.026	-0.025
-477.318	-25.067	-0.171	-0.101
-476.303	175.001	0.089	-0.128
-475.289	80.211	0.136	-0.145
-474.274	-128.482	-0.181	-0.026
-473.259	-200.000	-0.042	0.188
-472.245	69.971	0.003	0.003
-471.230	-200.000	0.030	-0.134
-470.216	-200.000	0.017	-0.240
-469.201	-123.759	0.095	0.015
-468.186	-200.000	-0.009	-0.065
-467.172	-191.155	-0.142	-0.001
-466.157	-77.668	-0.043	-0.015
-465.143	-13.744	-0.218	0.140
-464.128	217.252	0.173	0.273
-463.113	-171.570	-0.200	0.007
-462.099	240.297	0.175	0.290
-461.084	155.319	-0.028	0.038
-460.070	-130.032	0.089	-0.012
-459.055	64.309	-0.060	-0.060
-458.040	756.866	0.079	-0.212
-457.026	147.509	-0.135	-0.180
-456.011	-84.472	0.134	-0.042
-454.997	-200.000	-0.020	-0.255
-453.982	-78.614	0.228	-0.077
-452.968	-156.656	0.095	0.006
-451.953	-200.000	-0.013	0.305
-450.938	463.617	0.117	0.260
-449.924	13.268	-0.585	0.450
-448.909	800.000	-0.053	0.197
-447.895	242.783	0.050	-0.082
-446.880	800.000	0.108	0.467
-445.865	-200.000	0.094	0.550
-444.851	-11.301	0.207	-0.135
-443.836	-200.000	-0.041	-0.258
-442.822	-95.616	-0.196	-0.052
-441.807	-125.515	0.206	-0.031
-440.792	-200.000	0.030	0.276
-439.778	539.044	-0.167	0.394
-438.763	127.586	0.049	0.061
-437.749	49.792	-0.098	0.091
-436.734	-200.000	-0.010	-0.142
-435.719	-21.144	-0.228	0.138
-434.705	-55.801	0.297	-0.131
-433.690	-77.699	-0.208	-0.071
-432.676	-33.124	-0.192	0.105
-431.661	-25.849	-0.213	0.125
-430.646	800.000	-0.174	0.500
-429.632	31.404	-0.099	-0.084
-428.617	194.005	0.153	0.229
-427.603	301.199	0.031	-0.056
-426.588	-12.361	0.336	0.217
-425.573	-121.760	-0.226	-0.037
-424.559	-160.221	0.127	-0.007
-423.544	-200.000	-0.024	0.177
-422.530	800.000	-0.036	0.131
-421.515	-170.203	-0.086	0.003
-420.500	-158.117	0.214	-0.012
-419.486	-120.547	0.388	-0.065
-418.471	270.189	-0.046	-0.080
-417.457	347.285	0.047	0.092
-416.442	113.794	0.131	0.158
-415.428	23.808	-0.207	0.169
-414.413	12.850	0.367	-0.281
-413.398	-146.093	0.205	-0.018
-412.384	122.109	-0.141	0.175
-411.369	-200.000	0.010	0.201
-410.355	-63.889	-0.192	0.078
-409.340	33.570	-0.050	-0.043
-408.325	37.918	0.143	0.126
-407.311	-84.509	-0.161	0.050
-406.296	10.090	-0.240	0.181
-405.282	666.700	0.048	-0.122
-404.267	-33.038	0.202	0.111
-403.252	-7.323	0.049	0.033
-402.238	800.000	-0.094	-0.374
-401.223	31.336	-0.091	0.078
-400.209	-9.757	0.197	-0.130
-399.194	800.000	-0.024	-0.096
-398.179	203.124	0.071	0.109
-397.165	-47.751	0.116	0.056
-396.150	447.207	0.025	-0.054
-395.136	-20.245	0.063	-0.039
-394.121	262.379	-0.058	-0.099
-393.106	-57.658	0.157	-0.068
-392.092	337.687	0.142	0.274
-391.077	423.702	-0.046	-0.097
-390.063	-92.212	0.101	-0.028
-389.048	800.000	0.056	0.195
-388.033	21.923	0.239	-0.193
-387.019	194.212	-0.128	-0.192
-386.004	-116.969	-0.194	0.035
-384.990	-152.090	0.220	-0.016
-383.975	152.546	0.214	-0.289
-382.960	800.000	0.032	0.103
-381.946	-15.359	0.336	-0.213
-380.931	200.389	-0.134	-0.203
-379.917	37.153	0.210	-0.184
-378.902	157.016	-0.111	0.151
-377.888	232.750	0.203	0.331
-376.873	53.948	-0.095	-0.091
-375.858	131.367	0.073	0.093
-374.844	51.092	0.117	0.110
-373.829	-46.658	0.270	0.131
-372.815	800.000	0.052	0.183
-371.800	-74.551	0.213	0.076
-370.785	-94.414	-0.071	0.019
-369.771	-200.000	0.009	0.168
-368.756	36.208	0.133	-0.116
-367.742	33.130	0.146	0.125
-366.727	33.994	0.092	0.079
-365.712	800.000	0.065	0.214
-364.698	-90.680	-0.373	0.106
-363.683	-200.000	0.063	0.389
-362.669	44.256	0.192	0.174
-361.654	-200.000	0.036	-0.181
-360.639	-130.964	-0.398	0.053
-359.625	685.325	0.048	-0.124
-358.610	132.781	0.241	-0.307
-357.596	-23.955	0.069	-0.041
-356.581	-73.947	0.269	-0.097
-355.566	-200.000	0.020	0.178
-354.552	49.332	0.191	-0.177
-353.537	-200.000	-0.002	0.192
-352.523	536.710	0.110	-0.259
-351.508	749.313	-0.029	-0.078
-350.493	155.718	0.101	-0.138
-349.479	402.131	-0.090	-0.188
-348.464	105.685	-0.308	0.360
-347.450	-200.000	0.077	-0.368
-346.435	-91.958	0.181	-0.051
-345.420	800.000	-0.142	-0.397
-344.406	230.929	-0.279	-0.451
-343.391	-200.000	-0.056	0.381
-342.377	800.000	-0.032	-0.106
-341.362	352.991	0.171	-0.335
-340.348	184.166	0.193	-0.283
-339.333	800.000	0.104	-0.289
-338.318	-141.629	-0.128	-0.013
-337.304	-126.409	0.086	0.013
-336.289	-115.134	0.323	-0.061
-335.275	-178.175	0.020	0.000
-334.260	-82.374	-0.143	0.046
-333.245	115.645	0.223	-0.269
-332.231	58.177	0.113	0.110
-331.216	-200.000	0.007	0.272
-330.202	-89.068	0.382	0.111
-329.187	-200.000	0.024	-0.271
-328.172	-48.034	-0.255	0.122
-327.158	-58.913	-0.197	-0.084
-326.143	-74.084	-0.119	-0.043
-325.129	800.000	0.092	-0.386
-324.114	375.172	0.241	-0.484
-323.099	46.887	0.044	-0.040
-322.085	-33.539	-0.061	0.033
-321.070	800.000	0.033	-0.140
-320.056	144.674	0.171	-0.225
-319.041	-200.000	-0.022	0.435
-318.026	324.235	-0.019	-0.036
-317.012	59.782	0.203	-0.198
-315.997	58.614	0.145	-0.141
-314.983	593.858	0.056	0.138
-313.968	-77.422	0.334	0.115
-312.953	-200.000	0.011	0.327
-311.939	-18.296	0.155	-0.096
-310.924	595.403	0.061	-0.148
-309.910	-200.000	0.007	-0.161
-308.895	-200.000	0.008	0.132
-307.880	-103.949	0.114	0.026
-306.866	179.926	-0.167	0.242
-305.851	-120.494	0.203	0.034
-304.837	-69.035	0.479	0.182
-303.822	378.876	0.104	0.210
-302.807	61.961	0.113	0.112
-301.793	-200.000	0.009	0.105
-300.778	19.566	-0.135	0.107
-299.764	680.693	0.128	0.328
-298.749	-200.000	0.046	-0.243
-297.735	-64.556	-0.157	0.063
-296.720	200.986	-0.232	-0.352
-295.705	34.930	-0.064	0.055
-294.691	269.255	-0.047	0.082
-293.676	261.249	-0.111	-0.189
-292.662	800.000	-0.027	0.098
-291.647	800.000	0.064	-0.239
-290.632	130.387	0.050	0.063
-289.618	-168.060	-0.176	-0.007
-288.603	680.310	-0.117	0.301
-287.589	-77.165	-0.312	-0.107
-286.574	268.172	0.101	-0.174
-285.559	-125.318	0.190	-0.029
-284.545	-4.680	-0.049	0.033
-283.530	159.936	-0.029	-0.040
-282.516	211.607	0.104	-0.162
-281.501	-175.336	0.399	-0.011
-280.486	-86.338	-0.073	0.022
-279.472	800.000	0.044	-0.159
-278.457	64.606	-0.091	0.090
-277.443	49.007	-0.184	-0.171
-276.428	-56.304	-0.111	0.049
-275.413	66.418	-0.117	0.117
-274.399	-27.329	-0.215	-0.123
-273.384	-23.851	0.130	0.076
-272.370	77.845	0.127	-0.133
-271.355	800.000	-0.013	-0.039
-270.340	13.726	0.279	0.213
-269.326	424.392	0.247	0.524
-268.311	318.441	-0.052	0.097
-267.297	-200.000	-0.000	0.159
-266.282	-51.758	-0.214	-0.098
-265.267	800.000	-0.096	0.268
-264.253	-6.487	0.238	-0.160
-263.238	800.000	0.073	0.255
-262.224	-85.642	0.323	0.099
-261.209	-152.280	-0.205	0.015
-260.195	800.000	0.054	0.207
-259.180	2.767	-0.066	0.047
-258.165	159.893	-0.203	-0.279
-257.151	60.983	-0.029	-0.029
-256.136	312.236	-0.096	-0.178
-255.122	241.789	-0.273	0.449
-254.107	773.729	-0.079	0.213
-253.092	727.314	0.076	0.200
-252.078	132.853	-0.172	-0.218
-251.063	-149.127	-0.068	0.005
-250.049	268.012	0.045	0.078
-249.034	-36.313	-0.259	-0.137
-248.019	-200.000	-0.009	-0.185
-247.005	800.000	0.056	-0.162
-245.990	-200.000	-0.060	0.333
-244.976	-195.902	-0.346	0.002
-243.961	-200.000	0.021	-0.108
-242.946	-134.544	0.129	-0.016
-241.932	-53.484	-0.132	-0.060
-240.917	-8.202	0.046	0.030
-239.903	250.275	0.170	0.284
-238.888	-96.541	-0.358	0.093
-237.873	24.690	0.122	-0.099
-236.859	224.231	0.173	-0.275
-235.844	-200.000	-0.048	0.249
-234.830	8.477	0.292	-0.216
-233.815	-200.000	-0.001	-0.424
-232.800	-200.000	-0.004	0.145
-231.786	-51.096	0.030	0.014
-230.771	-65.576	0.504	-0.199
-229.757	-200.000	-0.044	-0.243
-228.742	-94.622	0.068	-0.018
-227.727	573.040	0.013	0.031
-226.713	800.000	-0.066	0.219
-225.698	41.955	0.143	0.128
-224.684	-200.000	-0.022	-0.337
-223.669	-135.134	0.201	-0.024
-222.655	8.414	0.058	0.043
-221.640	116.387	-0.033	-0.040
-220.625	-3.349	-0.255	-0.175
-219.611	163.872	-0.077	0.107
-218.596	26.260	0.021	0.017
-217.582	695.517	0.142	0.367
-216.567	-200.000	-0.070	-0.321
-215.552	124.915	0.081	0.100
-214.538	-78.984	0.097	-0.032
-213.523	-81.945	-0.315	0.101
-212.509	-200.000	-0.067	-0.374
-211.494	36.755	-0.126	-0.109
-210.479	-200.000	-0.003	0.406
-209.465	-129.616	0.414	0.056
-208.450	-200.000	-0.059	-0.000
-207.436	-89.161	0.150	0.044
-206.421	-110.151	-0.136	0.028
-205.406	800.000	-0.060	0.198
-204.392	170.573	0.076	0.107
-203.377	-84.091	-0.097	-0.030
-202.363	158.239	0.117	-0.159
-201.348	-60.278	0.192	-0.080
-200.333	103.732	0.066	0.076
-199.319	178.406	0.135	0.193
-198.304	-143.558	0.096	0.009
-197.290	800.000	0.113	-0.425
-196.275	-120.533	0.371	0.062
-195.260	256.506	0.139	-0.235
-194.246	84.136	0.112	0.121
-193.231	96.302	0.228	-0.257
-192.217	-62.238	-0.146	-0.060
-191.202	-132.899	-0.266	0.033
-190.187	-200.000	0.006	0.301
-189.173	323.750	-0.218	-0.409
-188.158	190.624	-0.258	-0.382
-187.144	123.754	0.079	0.098
-186.129	-134.340	-0.162	0.020
-185.114	600.650	0.079	-0.192
-184.100	-200.000	-0.010	-0.117
-183.085	-76.752	-0.232	0.080
-182.071	-200.000	-0.004	-0.208
-181.056	41.232	-0.205	-0.182
-180.042	-68.006	-0.294	0.113
-179.027	-162.232	-0.128	0.006
-178.012	-72.798	0.108	-0.039
-176.998	-106.196	0.055	-0.012
-175.983	69.080	-0.124	-0.125
-174.969	-98.263	-0.205	0.052
-173.954	721.031	0.051	0.134
-172.939	48.965	-0.335	0.308
-171.925	-200.000	-0.008	-0.099
-170.910	678.060	-0.025	-0.064
-169.896	-200.000	0.003	0.052
-168.881	-183.829	-0.091	0.002
-167.866	-88.365	-0.141	0.041
-166.852	251.778	0.067	-0.112
-165.837	-102.067	-0.343	0.081
-164.823	-200.000	0.021	0.215
-163.808	-5.499	0.248	0.167
-162.793	-37.563	-0.155	0.081
-161.779	69.393	-0.155	0.156
-160.764	545.568	0.080	-0.187
-159.750	96.048	0.070	-0.078
-158.735	-127.842	-0.271	0.038
-157.720	-18.914	0.011	-0.007
-156.706	800.000	0.110	0.336
-155.691	263.821	-0.073	-0.124
-154.677	-70.714	0.172	-0.064
-153.662	72.303	-0.192	0.196
-152.647	280.128	0.046	-0.081
-151.633	-200.000	0.023	-0.243
-150.618	38.280	0.336	0.294
-149.604	800.000	-0.115	-0.339
-148.589	105.468	0.126	-0.146
-147.574	-200.000	0.022	0.414
-146.560	62.884	-0.199	-0.196
-145.545	800.000	-0.042	-0.133
-144.531	71.912	0.107	0.109
-143.516	572.453	0.006	0.015
-142.502	-144.563	0.332	0.030
-141.487	-99.584	-0.361	-0.089
-140.472	800.000	0.007	0.026
-139.458	507.113	-0.003	-0.008
-138.443	656.747	0.089	-0.225
-137.429	-109.680	0.120	0.025
-136.414	142.173	0.178	-0.231
-135.399	55.610	-0.057	-0.054
-134.385	-200.000	0.024	0.377
-133.370	-200.000	0.050	0.364
-132.356	800.000	0.081	0.268
-131.341	-200.000	-0.002	-0.144
-130.326	-200.000	0.002	0.194
-129.312	-200.000	-0.038	0.270
-128.297	144.198	0.097	-0.126
-127.283	800.000	-0.054	0.224
-126.268	-33.263	-0.263	0.143
-125.253	79.094	-0.170	-0.178
-124.239	178.114	0.018	-0.026
-123.224	-200.000	0.021	-0.244
-122.210	11.639	0.331	0.248
-121.195	-119.590	0.320	0.054
-120.180	42.341	0.094	-0.083
-119.166	-200.000	-0.104	0.537
-118.151	-52.020	-0.168	0.076
-117.137	-76.442	0.064	-0.022
-116.122	-153.513	0.112	0.008
-115.107	-11.618	-0.050	0.032
-114.093	-10.553	0.151	-0.098
-113.078	378.860	0.122	0.244
-112.064	-159.690	-0.222	-0.012
-111.049	42.366	-0.194	-0.173
-110.034	-74.999	0.238	-0.084
-109.020	-200.000	0.007	-0.281
-108.005	173.876	0.381	-0.538
-106.991	18.050	-0.300	-0.234
-105.976	-58.903	0.332	-0.140
-104.962	18.478	0.227	0.178
-103.947	-61.434	-0.167	-0.069
-102.932	-73.997	0.332	0.118
-101.918	-39.623	-0.129	0.066
-100.903	-67.487	0.257	-0.099
-99.889	-66.203	0.235	0.092
-98.874	339.903	-0.039	0.075
-97.859	-119.976	0.034	-0.006
-96.845	467.926	-0.181	0.398
-95.830	276.734	-0.079	0.137
-94.816	-54.128	-0.087	-0.039
-93.801	31.640	0.262	0.221
-92.786	-200.000	0.015	0.145
-91.772	-11.237	-0.170	-0.110
-90.757	800.000	0.057	0.176
-89.743	-29.758	-0.139	-0.078
-88.728	85.402	0.090	-0.097
-87.713	800.000	0.086	-0.236
-86.699	-120.162	0.418	-0.070
-85.684	-52.609	0.115	0.052
-84.670	-200.000	0.019	-0.225
-83.655	256.015	-0.130	-0.218
-82.640	86.031	-0.067	-0.072
-81.626	-200.000	0.011	-0.235
-80.611	-179.668	-0.212	0.005
-79.597	46.315	-0.182	0.165
-78.582	-130.270	-0.352	-0.047
-77.567	-200.000	-0.034	-0.286
-76.553	-134.692	0.164	-0.020
-75.538	-163.493	0.281	-0.013
-74.524	-200.000	0.039	-0.266
-73.509	321.886	0.106	-0.197
-72.494	800.000	0.065	0.242
-71.480	63.010	0.118	0.116
-70.465	-200.000	-0.025	0.243
-69.451	800.000	0.108	-0.441
-68.436	52.415	0.229	0.214
-67.422	-200.000	0.010	0.106
-66.407	120.600	-0.070	-0.085
-65.392	800.000	-0.057	-0.178
-64.378	2.046	0.134	-0.094
-63.363	-30.590	0.147	0.082
-62.349	183.157	-0.065	0.094
-61.334	80.894	-0.774	-0.816
-60.319	196.188	0.456	0.679
-59.305	569.040	-0.515	-1.223
-58.290	778.143	0.401	1.071
-57.276	264.028	0.656	1.115
-56.261	-200.000	113.999	652.596
-55.246	488.095	1496.399	3338.018
-54.232	150.566	2656.276	3525.213
-53.217	103.788	2159.413	2478.058
-52.203	37.846	1691.717	1468.453
-51.188	30.523	1510.227	1261.388
-50.173	28.402	1485.776	1226.730
-49.159	52.323	1542.984	1437.689
-48.144	50.914	1559.605	1443.519
-47.130	30.847	1516.028	1268.234
-46.115	27.757	1500.680	1234.482
-45.100	27.635	1497.722	1231.173
-44.086	27.557	1495.549	1228.811
-43.071	27.491	1493.433	1226.581
-42.057	27.437	1492.149	1225.115
-41.042	27.482	1490.589	1224.086
-40.027	27.538	1489.213	1223.285
-39.013	27.559	1486.899	1221.474
-37.998	27.355	1486.721	1219.916
-36.984	27.442	1485.325	1219.302
-35.969	27.516	1483.514	1218.266
-34.954	27.465	1482.524	1217.061
-33.940	27.465	1480.883	1215.667
-32.925	27.493	1479.720	1214.851
-31.911	27.557	1478.244	1214.016
-30.896	27.599	1476.986	1213.214
-29.881	27.598	1476.036	1212.381
-28.867	27.497	1474.738	1210.595
-27.852	27.462	1473.516	1209.311
-26.838	27.496	1472.273	1208.467
-25.823	27.621	1469.997	1207.377
-24.809	27.540	1468.980	1205.961
-23.794	27.513	1467.840	1204.795
-22.779	27.467	1466.768	1203.565
-21.765	27.494	1465.510	1202.661
-20.750	27.491	1464.347	1201.644
-19.736	27.444	1463.247	1200.381
-18.721	27.393	1462.528	1199.405
-17.706	27.538	1460.821	1198.912
-16.692	27.515	1459.749	1197.834
-15.677	27.510	1458.919	1197.074
-14.663	27.527	1457.760	1196.189
-13.648	27.584	1456.695	1195.644
-12.633	27.498	1456.599	1194.949
-11.619	27.521	1456.203	1194.727
-10.604	27.481	1454.202	1192.780
-9.590	27.501	1453.510	1192.294
-8.575	27.434	1452.771	1191.199
-7.560	27.615	1451.449	1191.254
-6.546	27.504	1450.606	1189.791
-5.531	27.546	1449.791	1189.350
-4.517	27.430	1449.137	1188.009
-3.502	27.569	1447.852	1187.812
-2.487	27.555	1446.895	1186.890
-1.473	27.345	1446.683	1185.303
-0.458	27.509	1444.479	1184.514
0.556	25.741	1435.161	1173.112
1.571	22.689	1410.597	1133.355
2.586	19.229	1349.326	1062.722
3.600	17.640	1266.735	988.377
4.615	16.544	1222.533	947.666
5.629	15.739	1169.679	902.296
6.644	12.866	1094.024	829.427
7.659	10.029	1060.147	789.825
8.673	9.708	1055.413	784.665
9.688	9.481	1052.168	781.085
10.702	9.541	1050.418	780.004
11.717	9.650	1048.378	778.951
12.731	10.699	1047.724	783.458
13.746	13.817	1051.815	801.528
14.761	16.889	1055.434	819.080
15.775	17.661	1055.643	822.900
16.790	16.973	1053.716	818.006
17.804	15.893	1051.907	811.328
18.819	14.888	1050.256	805.148
19.834	14.331	1048.665	801.177
20.848	14.159	1047.523	799.404
21.863	13.922	1046.714	797.580
22.877	13.687	1045.896	795.757
23.892	13.508	1044.722	793.937
24.907	13.370	1044.719	793.203
25.921	13.448	1043.444	792.540
26.936	13.514	1042.667	792.192
27.950	13.446	1041.870	791.194
28.965	13.557	1040.949	790.952
29.980	13.494	1039.697	789.634
30.994	13.681	1038.669	789.672
32.009	13.729	1037.532	788.967
33.023	13.732	1036.882	788.415
34.038	13.701	1036.157	787.648
35.053	13.690	1034.902	786.571
36.067	13.676	1034.017	785.764
37.082	13.530	1033.232	784.404
38.096	13.651	1032.663	784.480
39.111	13.606	1032.133	783.793
40.126	13.563	1031.009	782.667
41.140	13.705	1029.040	781.774
42.155	13.545	1028.713	780.701
43.169	13.383	1028.065	779.378
44.184	13.364	1026.885	778.323
45.199	13.557	1025.642	778.219
46.213	13.430	1024.589	776.758
47.228	13.568	1023.409	776.441
48.242	13.526	1022.614	775.569
49.257	13.575	1021.625	774.982
50.271	13.581	1020.901	774.390
51.286	13.623	1019.665	773.580
52.301	13.616	1018.829	772.845
53.315	13.477	1018.786	772.099
54.330	13.602	1017.242	771.442
55.344	13.565	1016.142	770.367
56.359	13.567	1015.196	769.592
57.374	13.461	1014.440	768.458
58.388	13.373	1013.850	767.532
59.403	13.443	1013.476	767.507
60.417	13.461	1012.507	766.790
61.432	13.436	1011.900	766.144
62.447	13.285	1011.510	765.085
63.461	13.321	1010.218	764.207
64.476	13.217	1009.296	762.959
65.490	13.282	1008.415	762.526
66.505	13.319	1007.299	761.784
67.520	13.328	1006.545	761.189
68.534	13.295	1005.882	760.469
69.549	13.365	1004.811	759.915
70.563	13.470	1003.978	759.698
71.578	13.317	1004.105	759.025
72.593	13.307	1003.147	758.187
73.607	13.249	1001.515	756.624
74.622	13.165	1001.166	755.907
75.636	13.335	999.895	755.655
76.651	13.267	999.233	754.781
77.666	13.328	998.171	754.191
78.680	13.319	997.757	753.768
79.695	13.289	997.602	753.450
80.709	13.165	997.061	752.409
81.724	13.424	995.974	752.698
82.739	13.312	995.546	751.798
83.753	13.493	994.262	751.583
84.768	13.569	993.787	751.503
85.782	13.684	993.067	751.415
86.797	13.715	992.246	750.866
87.812	13.706	991.505	750.201
88.826	13.547	990.554	748.694
89.841	13.613	989.711	748.287
90.855	13.639	988.806	747.658
91.870	13.828	987.995	747.829
92.884	13.620	987.713	746.611
93.899	13.720	986.797	746.306
94.914	13.701	985.876	745.458
95.928	13.721	985.196	744.966
96.943	13.734	984.256	744.249
97.957	13.656	983.714	743.419
98.972	13.618	982.825	742.516
99.987	13.732	981.770	742.160
101.001	13.596	981.409	741.214
102.016	13.732	980.417	741.007
103.030	13.663	979.796	740.163
104.045	13.702	978.215	739.078
105.060	13.547	978.015	738.172
106.074	13.634	976.682	737.488
107.089	13.499	976.149	736.420
108.103	13.522	974.765	735.411
109.118	13.464	974.167	734.638
110.133	13.502	973.248	734.048
111.147	13.487	972.616	733.442
112.162	13.343	971.650	732.010
113.176	13.365	970.875	731.458
114.191	13.525	970.128	731.539
115.206	13.625	969.065	731.115
116.220	13.526	968.673	730.318
117.235	13.469	967.601	729.191
118.249	13.397	966.802	728.209
119.264	13.475	966.124	727.977
120.279	13.417	965.387	727.102
121.293	13.439	964.252	726.281
122.308	13.401	963.703	725.634
123.322	13.507	962.352	725.016
124.337	13.398	961.703	723.988
125.352	13.387	960.387	722.886
126.366	13.395	959.507	722.193
127.381	13.455	958.634	721.733
128.395	13.416	957.527	720.665
129.410	13.490	956.654	720.269
130.424	13.365	955.681	718.927
131.439	13.308	955.198	718.256
132.454	13.393	954.367	717.933
133.468	13.544	953.375	717.781
134.483	13.551	952.745	717.273
135.497	13.538	952.251	716.781
136.512	13.531	951.294	715.967
137.527	13.537	950.618	715.418
138.541	13.518	949.807	714.664
139.556	13.615	949.216	714.573
140.570	13.538	948.467	713.616
141.585	13.480	947.721	712.741
142.600	13.711	946.877	713.035
143.614	13.686	945.975	712.188
144.629	13.758	945.221	711.866
145.643	13.866	944.760	711.917
146.658	13.680	944.119	710.575
147.673	13.699	942.957	709.718
148.687	13.570	942.427	708.706
149.702	13.695	941.183	708.243
150.716	13.636	940.229	707.207
151.731	13.668	938.981	706.343
152.746	13.563	938.942	705.805
153.760	13.616	938.086	705.326
154.775	13.593	937.585	704.790
155.789	13.774	936.767	704.882
156.804	13.725	935.545	703.688
157.819	13.760	934.940	703.322
158.833	13.766	934.624	703.047
159.848	13.785	934.190	702.739
160.862	13.766	933.338	701.957
161.877	13.939	932.568	702.045
162.892	13.887	931.350	700.846
163.906	13.690	930.883	699.601
164.921	13.686	929.939	698.813
165.935	13.783	928.598	698.153
166.950	13.746	927.771	697.312
167.964	13.763	927.426	697.063
168.979	13.877	926.424	696.727
169.994	13.689	925.379	695.090
171.008	13.848	924.328	694.907
172.023	13.751	924.142	694.301
173.037	13.817	923.251	693.846
174.052	13.966	922.184	693.602
175.067	13.959	921.628	693.094
176.081	13.947	920.827	692.380
177.096	13.772	920.027	690.989
178.110	13.793	919.058	690.286
179.125	13.862	918.346	689.977
180.140	13.851	917.618	689.324
181.154	13.904	916.911	688.954
182.169	13.921	916.613	688.737
183.183	13.936	915.836	688.157
184.198	14.004	915.530	688.145
185.213	14.110	914.605	687.828
186.227	13.983	913.977	686.773
187.242	14.036	913.576	686.626
188.256	14.064	912.533	685.900
189.271	14.059	912.001	685.419
190.286	14.229	910.960	685.275
191.300	14.046	910.207	683.894
192.315	13.866	909.292	682.408
193.329	13.755	908.974	681.651
194.344	13.875	908.232	681.526
195.359	13.966	907.690	681.432
196.373	13.982	907.230	681.096
197.388	14.078	906.359	680.774
198.402	14.124	906.249	680.818
199.417	14.317	905.575	681.042
200.432	14.293	905.070	680.503
201.446	14.425	904.393	680.473
202.461	14.211	904.590	679.686
203.475	14.351	903.922	679.694
204.490	14.456	902.886	679.286
205.504	14.401	902.311	678.568
206.519	14.252	901.460	677.263
207.534	14.311	900.976	677.079
208.548	14.335	899.675	676.140
209.563	14.281	899.653	675.842
210.577	14.373	898.896	675.586
211.592	14.339	897.752	674.531
212.607	14.418	897.550	674.637
213.621	14.456	897.317	674.558
214.636	14.486	896.404	673.932
215.650	14.402	896.043	673.260
216.665	14.518	895.331	673.134
217.680	14.437	894.765	672.325
218.694	14.625	893.905	672.375
219.709	14.650	894.249	672.677
220.723	14.636	893.095	671.692
221.738	14.651	892.460	671.213
222.753	14.514	891.672	670.012
223.767	14.481	891.240	669.497
224.782	14.535	890.272	668.928
225.796	14.726	889.509	669.059
226.811	14.700	888.764	668.335
227.826	14.660	888.535	667.942
228.840	14.495	888.043	666.854
229.855	14.611	887.223	666.644
230.869	14.680	886.530	666.337
231.884	14.697	885.608	665.654
232.899	14.538	884.972	664.486
233.913	14.452	884.674	663.862
234.928	14.572	883.577	663.455
235.942	14.535	883.248	663.003
236.957	14.571	881.954	662.114
237.972	14.524	881.508	661.537
238.986	14.592	881.179	661.501
240.001	14.558	880.146	660.530
241.015	14.577	879.691	660.205
242.030	14.576	879.061	659.672
243.045	14.738	878.291	659.676
244.059	14.872	877.613	659.635
245.074	14.713	877.119	658.578
246.088	14.708	876.343	657.918
247.103	14.786	875.913	657.844
248.117	14.936	875.028	657.711
249.132	14.917	874.566	657.231
250.147	15.076	873.851	657.260
251.161	15.128	873.520	657.158
252.176	15.136	872.468	656.340
253.190	15.082	872.373	655.996
254.205	15.148	871.605	655.620
255.220	15.120	871.213	655.160
256.234	15.172	870.222	654.557
257.249	15.205	869.575	654.141
258.263	15.129	869.260	653.553
259.278	15.283	867.957	653.112
260.293	15.331	867.402	652.825
261.307	15.178	867.568	652.298
262.322	15.222	866.719	651.770
263.336	15.376	866.201	651.922
264.351	15.496	865.624	651.897
265.366	15.300	865.194	650.757
266.380	15.274	864.790	650.293
267.395	15.302	864.036	649.778
268.409	15.387	862.596	648.967
269.424	15.466	861.719	648.552
270.439	15.463	861.643	648.427
271.453	15.375	860.791	647.389
272.468	15.292	859.802	646.269
273.482	15.210	859.842	645.925
274.497	15.351	859.363	646.052
275.512	15.363	858.289	645.232
276.526	15.358	857.505	644.567
277.541	15.329	856.924	643.964
278.555	15.292	856.797	643.667
279.570	15.370	856.287	643.525
280.585	15.411	855.584	643.099
281.599	15.511	854.652	642.723
282.614	15.423	854.431	642.165
283.628	15.653	853.318	642.151
284.643	15.516	853.334	641.580
285.657	15.619	852.706	641.444
286.672	15.443	851.985	640.176
287.687	15.534	851.504	640.102
288.701	15.510	851.016	639.588
289.716	15.549	850.434	639.242
290.730	15.801	849.605	639.521
291.745	15.614	849.426	638.620
292.760	15.603	848.347	637.711
293.774	15.672	848.308	637.888
294.789	15.614	847.546	637.036
295.803	15.696	846.999	636.881
296.818	15.644	846.233	636.049
297.833	15.712	845.374	635.606
298.847	15.605	844.972	634.842
299.862	15.706	844.239	634.616
300.876	15.805	843.823	634.623
301.891	15.836	842.867	633.965
302.906	15.877	841.962	633.383
303.920	15.905	841.979	633.443
304.935	15.952	841.148	632.939
305.949	15.953	840.252	632.214
306.964	16.016	839.522	631.844
307.979	15.897	839.220	631.114
308.993	15.936	838.734	630.838
310.008	16.045	838.495	631.012
311.022	16.219	837.833	631.110
312.037	15.955	837.299	629.665
313.052	16.040	837.223	629.870
314.066	15.876	836.251	628.469
315.081	15.906	835.470	627.937
316.095	16.028	834.838	627.864
317.110	15.947	834.468	627.226
318.125	15.934	833.984	626.758
319.139	15.959	833.527	626.452
320.154	15.887	832.997	625.732
321.168	15.986	832.181	625.431
322.183	15.986	831.391	624.781
323.197	16.122	831.177	625.070
324.212	16.069	830.640	624.414
325.227	16.192	830.354	624.598
326.241	16.223	829.398	623.940
327.256	16.144	828.772	623.122
328.270	16.159	828.337	622.796
329.285	16.026	827.783	621.835
330.300	16.144	827.275	621.830
331.314	16.141	826.883	621.470
332.329	16.065	826.344	620.731
333.343	16.176	825.700	620.602
334.358	16.110	825.216	619.938
335.373	16.401	824.279	620.249
336.387	16.154	824.213	619.238
337.402	16.194	823.815	619.030
338.416	16.220	822.952	618.424
339.431	16.417	822.370	618.651
340.446	16.392	821.993	618.224
341.460	16.460	821.170	617.796
342.475	16.521	820.679	617.597
343.489	16.584	820.179	617.394
344.504	16.668	819.863	617.408
345.519	16.599	819.303	616.683
346.533	16.575	819.016	616.321
347.548	16.545	818.430	615.718
348.562	16.551	817.830	615.234
349.577	16.516	817.219	614.592
350.592	16.442	816.766	613.928
351.606	16.406	816.584	613.606
352.621	16.354	816.354	613.191
353.635	16.396	815.579	612.708
354.650	16.416	815.042	612.321
355.665	16.569	814.620	612.505
356.679	16.540	814.169	612.008
357.694	16.684	813.516	611.981
358.708	16.561	813.240	611.276
359.723	16.590	812.412	610.702
360.738	16.530	811.987	610.114
361.752	16.752	811.233	610.294
362.767	16.810	810.868	610.174
363.781	16.754	810.540	609.673
364.796	16.826	810.350	609.732
365.810	16.672	809.826	608.733
366.825	16.722	809.869	608.890
367.840	16.932	809.159	609.058
368.854	17.048	808.360	608.819
369.869	16.873	808.104	607.943
370.883	16.955	807.504	607.731
371.898	16.947	806.933	607.220
372.913	16.786	806.278	606.097
373.927	16.897	805.792	606.073
374.942	16.881	805.203	605.522
375.956	16.969	804.552	605.293
376.971	16.961	803.985	604.782
377.986	17.040	803.498	604.644
379.000	17.217	802.838	604.723
380.015	17.186	802.834	604.557
381.029	17.104	802.209	603.743
382.044	17.002	801.542	602.825
383.059	17.112	801.004	602.756
384.073	17.044	800.485	602.071
385.088	17.128	800.030	601.974
386.102	16.953	799.331	600.775
387.117	17.067	798.742	600.684
388.132	17.075	798.403	600.403
389.146	17.186	797.534	600.088
390.161	17.077	797.750	599.814
391.175	17.064	797.667	599.651
392.190	17.217	796.799	599.484
393.205	17.236	795.974	598.879
394.219	17.091	796.143	598.441
395.234	17.245	795.286	598.286
396.248	17.218	794.608	597.630
397.263	17.212	794.241	597.277
398.278	17.180	793.951	596.895
399.292	17.202	793.414	596.516
400.307	17.037	793.021	595.591
401.321	17.145	792.587	595.588
402.336	17.340	792.005	595.781
403.350	17.250	791.786	595.250
404.365	17.345	791.122	595.029
405.380	17.248	790.882	594.458
406.394	17.427	790.394	594.664
407.409	17.374	790.231	594.303
408.423	17.286	789.803	593.620
409.438	17.458	789.448	593.903
410.453	17.625	788.816	593.959
411.467	17.520	788.645	593.408
412.482	17.519	788.261	593.064
413.496	17.413	787.874	592.350
414.511	17.590	787.086	592.324
415.526	17.505	786.976	591.894
416.540	17.520	786.634	591.636
417.555	17.605	785.831	591.274
418.569	17.518	785.456	590.636
419.584	17.505	785.137	590.301
420.599	17.679	784.318	590.236
421.613	111.890	1293.382	1477.502
422.628	95.972	1367.527	1477.619
