DTS Sentinel unit serial number:	SN413079Multiplexer serial number:	ORYXHardware model number:	OX4-SRSoftware version number:	ORYX F/W v4.00 Oryx Data Collector v3.7.2.0data status	okinstallation	princeton_trtdifferential loss correction	single-endedforward channel	channel 3reverse channel	N/Adate	2019/09/18time	22:48:35forward acquisition time	60.00reverse acquisition time	0.00gamma	496.2192k internal	0.2344k external	0.2344temperature offset calibration	0.9993default loss term (dB/km)	0.3790temperature slope calibration	1.0000multiplexer offset coefficient	1.0000multiplexer slope coefficient	1.0000fibre end	0.00T internal ref (°C)	24.06T ext. ref 1 (°C)	0.78T ext. ref 2 (°C)	18.00length (m)	temperature (°C)	Stokes	anti-Stokes-747.200	268.122	0.051	-0.089
-746.185	800.000	-0.097	0.419
-745.171	-91.616	-0.072	-0.020
-744.156	-45.598	-0.220	0.109
-743.142	0.855	-0.076	0.054
-742.127	-77.056	-0.182	0.064
-741.112	80.906	-0.255	0.276
-740.098	-200.000	-0.001	-0.042
-739.083	28.856	-0.142	-0.120
-738.069	-93.985	-0.125	0.034
-737.054	-200.000	0.011	0.135
-736.039	-12.417	0.168	-0.110
-735.025	800.000	-0.025	0.079
-734.010	149.962	0.102	0.138
-732.996	-143.394	-0.408	-0.039
-731.981	800.000	-0.101	0.344
-730.966	800.000	-0.050	0.193
-729.952	-43.296	-0.362	0.183
-728.937	116.018	-0.082	-0.100
-727.923	187.387	-0.308	0.459
-726.908	59.756	-0.335	0.331
-725.894	-11.053	0.021	0.014
-724.879	-157.806	0.154	0.009
-723.864	142.144	-0.109	0.145
-722.850	800.000	0.134	0.502
-721.835	309.107	-0.089	-0.166
-720.821	-94.213	0.068	-0.019
-719.806	800.000	-0.067	-0.221
-718.791	133.458	-0.061	-0.079
-717.777	-70.152	-0.124	0.047
-716.762	-156.404	0.192	-0.012
-715.748	-63.298	-0.215	-0.089
-714.733	-200.000	0.029	-0.193
-713.718	-200.000	-0.006	-0.025
-712.704	-200.000	0.010	-0.397
-711.689	-200.000	0.045	-0.232
-710.675	65.924	0.015	-0.015
-709.660	255.457	-0.106	-0.182
-708.645	-127.697	0.130	-0.019
-707.631	38.970	-0.106	0.095
-706.616	-88.696	-0.127	-0.038
-705.602	29.698	0.171	-0.146
-704.587	425.798	-0.074	-0.159
-703.572	-79.039	0.263	0.089
-702.558	75.789	0.215	0.227
-701.543	800.000	-0.031	0.135
-700.529	800.000	-0.053	-0.203
-699.514	-200.000	0.013	0.314
-698.499	800.000	0.114	0.384
-697.485	-118.328	-0.210	-0.037
-696.470	-181.079	0.265	-0.005
-695.456	-90.385	0.064	0.019
-694.441	76.351	-0.104	0.110
-693.426	-200.000	0.054	-0.244
-692.412	51.439	0.037	-0.035
-691.397	-200.000	0.015	0.113
-690.383	-19.195	0.037	0.023
-689.368	196.191	0.106	-0.161
-688.354	-29.081	-0.210	-0.121
-687.339	-60.855	0.286	-0.121
-686.324	-114.930	-0.161	0.031
-685.310	-200.000	-0.043	-0.220
-684.295	7.160	-0.514	-0.383
-683.281	249.165	0.110	-0.186
-682.266	-16.538	0.369	0.233
-681.251	199.213	0.086	0.132
-680.237	-90.553	-0.208	-0.060
-679.222	800.000	-0.054	0.207
-678.208	-200.000	0.026	0.291
-677.193	124.895	0.040	-0.051
-676.178	-76.712	-0.127	-0.044
-675.164	179.273	0.092	-0.135
-674.149	-45.353	-0.284	-0.141
-673.135	800.000	0.083	-0.229
-672.120	623.386	-0.066	-0.166
-671.105	-184.669	-0.354	-0.006
-670.091	114.435	0.104	-0.126
-669.076	368.712	0.132	-0.265
-668.062	-49.413	0.235	0.112
-667.047	-166.596	-0.187	-0.008
-666.032	-146.143	-0.249	0.022
-665.018	-200.000	0.009	-0.108
-664.003	134.636	-0.152	-0.197
-662.989	-25.443	-0.058	0.034
-661.974	156.240	0.245	0.338
-660.959	-84.738	0.245	0.077
-659.945	-47.247	0.029	0.014
-658.930	99.290	-0.105	-0.121
-657.916	232.570	-0.107	0.175
-656.901	-139.988	-0.228	0.024
-655.886	-187.377	-0.270	0.004
-654.872	345.395	-0.150	-0.295
-653.857	-10.429	-0.260	0.172
-652.843	112.960	0.134	-0.161
-651.828	-87.567	0.328	-0.099
-650.814	3.086	-0.161	-0.117
-649.799	359.384	0.096	0.191
-648.784	137.737	-0.257	0.335
-647.770	17.894	0.257	-0.204
-646.755	-79.889	-0.037	-0.012
-645.741	43.956	0.099	0.091
-644.726	-28.665	-0.124	-0.071
-643.711	47.728	0.161	-0.150
-642.697	-188.944	-0.373	-0.004
-641.682	180.134	0.178	-0.261
-640.668	-82.047	0.273	0.089
-639.653	63.050	0.144	0.144
-638.638	-1.104	0.231	-0.163
-637.624	-200.000	0.034	0.172
-636.609	-95.053	0.293	-0.079
-635.595	28.472	0.294	0.248
-634.580	-200.000	-0.096	-0.000
-633.565	203.204	0.118	-0.182
-632.551	84.930	-0.097	0.106
-631.536	138.823	0.211	0.276
-630.522	-71.209	0.363	0.136
-629.507	-200.000	0.020	-0.337
-628.492	-12.517	0.158	0.102
-627.478	358.670	-0.029	-0.057
-626.463	-52.115	-0.152	-0.070
-625.449	70.427	-0.169	0.174
-624.434	-29.716	-0.048	-0.027
-623.419	90.542	-0.341	-0.381
-622.405	-116.068	0.200	0.037
-621.390	256.351	0.201	0.344
-620.376	31.206	0.357	-0.305
-619.361	-200.000	-0.062	-0.278
-618.346	6.429	0.421	-0.312
-617.332	-105.689	-0.190	0.043
-616.317	70.716	0.168	-0.173
-615.303	-200.000	-0.007	0.170
-614.288	181.156	0.107	-0.156
-613.273	-108.652	-0.194	-0.042
-612.259	-51.231	0.117	0.054
-611.244	-200.000	-0.003	-0.088
-610.230	-88.838	-0.242	-0.072
-609.215	149.888	0.040	0.054
-608.201	65.955	0.149	-0.151
-607.186	-9.504	-0.273	0.182
-606.171	-81.638	-0.386	-0.126
-605.157	-98.303	-0.137	-0.035
-604.142	286.693	-0.093	-0.167
-603.128	-131.606	0.182	0.024
-602.113	275.895	-0.100	0.176
-601.098	22.509	-0.062	0.050
-600.084	800.000	0.078	-0.274
-599.069	-107.274	-0.142	-0.031
-598.055	800.000	0.062	-0.175
-597.040	-58.309	-0.077	0.033
-596.025	83.921	-0.249	0.270
-595.011	-18.051	0.103	0.064
-593.996	-124.412	-0.181	-0.028
-592.982	-200.000	0.034	-0.186
-591.967	165.908	-0.208	-0.293
-590.952	-200.000	0.035	-0.323
-589.938	-65.943	-0.532	-0.211
-588.923	25.769	0.052	-0.043
-587.909	345.991	-0.047	0.091
-586.894	-200.000	-0.017	0.153
-585.879	800.000	-0.012	0.039
-584.865	-70.816	-0.247	-0.092
-583.850	409.620	0.096	-0.202
-582.836	478.838	0.080	-0.179
-581.821	-47.320	0.225	-0.109
-580.806	-146.415	-0.223	0.019
-579.792	369.142	0.061	-0.124
-578.777	-200.000	0.064	-0.314
-577.763	303.928	0.181	0.334
-576.748	-24.296	0.201	0.119
-575.733	16.106	0.113	0.089
-574.719	800.000	0.050	-0.177
-573.704	60.842	-0.133	0.131
-572.690	41.249	-0.226	0.203
-571.675	-114.743	0.249	-0.047
-570.661	375.854	0.076	-0.154
-569.646	130.529	-0.050	-0.063
-568.631	15.108	-0.328	-0.255
-567.617	96.391	-0.342	-0.389
-566.602	30.473	-0.151	0.129
-565.588	349.358	0.094	-0.185
-564.573	439.515	-0.095	-0.207
-563.558	55.504	-0.126	-0.121
-562.544	-200.000	0.014	-0.220
-561.529	525.743	0.090	0.209
-560.515	221.197	0.232	-0.370
-559.500	-200.000	-0.030	-0.155
-558.485	800.000	-0.098	0.301
-557.471	117.432	0.246	0.300
-556.456	-200.000	0.002	0.378
-555.442	-66.796	0.295	0.116
-554.427	-49.699	-0.406	0.192
-553.412	-200.000	-0.074	0.334
-552.398	800.000	0.074	0.258
-551.383	-6.805	-0.145	0.098
-550.369	-163.362	-0.189	0.009
-549.354	-200.000	-0.019	0.222
-548.339	800.000	-0.074	-0.295
-547.325	-200.000	-0.020	-0.093
-546.310	331.092	0.125	0.238
-545.296	-183.317	-0.084	0.001
-544.281	417.190	0.140	-0.296
-543.266	20.813	-0.262	0.211
-542.252	15.322	0.180	0.140
-541.237	291.423	-0.190	0.344
-540.223	-149.476	0.292	-0.023
-539.208	-35.244	-0.177	-0.096
-538.193	-200.000	-0.013	-0.323
-537.179	295.323	-0.175	-0.318
-536.164	219.716	-0.019	0.030
-535.150	-22.076	-0.119	0.072
-534.135	-110.431	-0.276	0.057
-533.121	53.468	0.123	0.117
-532.106	-33.263	0.162	-0.089
-531.091	-104.215	0.167	0.038
-530.077	-163.123	0.101	-0.005
-529.062	-200.000	-0.048	0.376
-528.048	-132.825	-0.147	-0.019
-527.033	-187.757	-0.089	0.001
-526.018	-0.392	-0.063	0.044
-525.004	3.312	0.110	-0.079
-523.989	-132.476	0.289	-0.037
-522.975	-200.000	-0.003	0.127
-521.960	-200.000	0.026	0.233
-520.945	-140.661	-0.297	-0.030
-519.931	-13.644	0.165	0.106
-518.916	800.000	-0.031	-0.113
-517.902	-200.000	-0.037	0.199
-516.887	-76.172	-0.390	0.136
-515.872	-6.271	-0.258	0.175
-514.858	52.953	-0.154	-0.146
-513.843	-79.188	0.196	-0.066
-512.829	49.580	-0.084	0.079
-511.814	376.296	0.236	0.478
-510.799	167.235	-0.122	0.171
-509.785	99.272	0.157	0.181
-508.770	-200.000	0.093	0.558
-507.756	-200.000	0.040	-0.221
-506.741	800.000	0.070	-0.281
-505.726	708.775	0.084	0.220
-504.712	-111.512	0.075	0.015
-503.697	119.678	-0.099	-0.122
-502.683	167.664	0.048	-0.067
-501.668	76.437	-0.259	-0.272
-500.653	-161.755	-0.135	0.007
-499.639	-54.852	0.080	0.036
-498.624	-39.847	-0.185	-0.096
-497.610	-28.279	-0.110	0.063
-496.595	552.195	0.015	0.035
-495.581	-116.421	-0.271	-0.050
-494.566	-93.721	0.365	-0.100
-493.551	154.519	0.186	0.253
-492.537	118.456	0.086	-0.106
-491.522	-95.487	0.343	0.091
-490.508	-91.903	-0.358	0.101
-489.493	88.505	-0.067	0.074
-488.478	-89.952	0.115	0.033
-487.464	-127.300	-0.167	-0.024
-486.449	-142.447	0.227	0.022
-485.435	-81.213	-0.241	-0.079
-484.420	-200.000	0.019	-0.227
-483.405	-200.000	0.037	-0.177
-482.391	591.724	-0.113	-0.277
-481.376	-200.000	-0.031	-0.438
-480.362	-200.000	0.084	-0.376
-479.347	800.000	-0.068	-0.271
-478.332	-70.055	0.336	-0.127
-477.318	214.009	0.084	0.132
-476.303	-86.518	0.148	0.045
-475.289	24.909	0.082	0.067
-474.274	14.403	-0.194	-0.150
-473.259	-200.000	-0.011	0.061
-472.245	-49.200	-0.656	-0.311
-471.230	800.000	-0.051	0.220
-470.216	110.499	0.154	-0.184
-469.201	395.465	-0.023	-0.047
-468.186	-200.000	-0.002	-0.029
-467.172	-108.592	-0.233	-0.050
-466.157	-20.557	-0.011	-0.007
-465.143	-102.490	-0.245	0.058
-464.128	-195.855	0.226	0.002
-463.113	800.000	-0.056	0.186
-462.099	-37.765	0.108	0.057
-461.084	41.775	-0.230	-0.206
-460.070	165.935	-0.121	-0.169
-459.055	800.000	-0.015	0.064
-458.040	-3.600	0.225	0.155
-457.026	209.734	-0.188	0.291
-456.011	324.660	-0.176	-0.332
-454.997	-118.256	-0.191	-0.034
-453.982	-200.000	0.034	-0.163
-452.968	800.000	-0.025	0.087
-451.953	-39.310	-0.074	-0.038
-450.938	-200.000	0.008	-0.119
-449.924	-118.189	0.298	-0.052
-448.909	-1.427	0.160	-0.112
-447.895	-116.568	0.210	-0.038
-446.880	706.727	0.116	0.302
-445.865	-108.067	0.131	0.028
-444.851	-200.000	-0.011	-0.120
-443.836	235.892	0.203	-0.333
-442.822	78.970	0.162	0.172
-441.807	-172.876	-0.098	-0.003
-440.792	-77.726	0.271	-0.093
-439.778	-112.340	0.220	0.043
-438.763	-155.306	-0.167	0.011
-437.749	-84.531	-0.193	0.060
-436.734	-90.973	-0.250	0.071
-435.719	336.940	-0.107	0.205
-434.705	-200.000	-0.004	0.374
-433.690	-29.786	-0.179	0.101
-432.676	-163.884	0.137	-0.006
-431.661	299.796	0.199	0.362
-430.646	137.925	-0.135	0.175
-429.632	-200.000	-0.075	0.000
-428.617	-200.000	0.009	-0.142
-427.603	-200.000	0.060	-0.389
-426.588	31.700	-0.169	0.144
-425.573	-200.000	-0.041	0.189
-424.559	-125.186	0.047	0.007
-423.544	159.413	0.106	-0.146
-422.530	93.993	-0.311	-0.349
-421.515	800.000	0.067	0.263
-420.500	-200.000	-0.033	-0.196
-419.486	179.237	0.150	-0.216
-418.471	692.208	-0.108	-0.279
-417.457	169.960	0.136	0.193
-416.442	-16.288	0.205	0.128
-415.428	-129.807	-0.286	0.039
-414.413	307.884	0.094	-0.174
-413.398	-200.000	0.009	-0.244
-412.384	173.086	-0.112	-0.159
-411.369	222.786	0.102	-0.163
-410.355	-76.828	-0.375	-0.130
-409.340	-129.273	0.100	-0.014
-408.325	-200.000	-0.011	-0.217
-407.311	538.533	0.073	0.172
-406.296	800.000	-0.073	-0.216
-405.282	-200.000	-0.016	-0.156
-404.267	-159.848	-0.347	-0.019
-403.252	103.553	0.148	0.171
-402.238	52.098	-0.280	0.263
-401.223	682.268	-0.015	0.038
-400.209	-200.000	-0.070	-0.391
-399.194	-50.310	0.417	0.195
-398.179	-12.442	-0.279	-0.180
-397.165	800.000	-0.105	0.287
-396.150	60.093	0.238	0.232
-395.136	484.258	-0.077	-0.174
-394.121	-119.758	-0.164	0.028
-393.106	-126.129	-0.490	0.072
-392.092	-82.232	0.029	0.009
-391.077	800.000	0.117	0.349
-390.063	-46.541	-0.367	-0.178
-389.048	-84.906	0.072	0.022
-388.033	428.228	-0.044	-0.094
-387.019	-200.000	0.112	-0.503
-386.004	19.192	0.133	0.105
-384.990	-48.860	0.352	-0.167
-383.975	-200.000	-0.005	-0.375
-382.960	165.270	-0.178	0.248
-381.946	-200.000	0.029	0.250
-380.931	45.636	0.290	0.265
-379.917	25.861	-0.198	-0.163
-378.902	-162.724	-0.437	-0.021
-377.888	-69.477	0.017	-0.006
-376.873	-109.424	-0.156	0.032
-375.858	-176.582	0.331	0.008
-374.844	-200.000	0.010	0.094
-373.829	401.898	-0.049	0.102
-372.815	-42.192	0.034	0.017
-371.800	635.304	-0.123	-0.308
-370.785	15.694	0.243	-0.188
-369.771	89.821	0.066	0.073
-368.756	-3.533	-0.264	0.181
-367.742	-200.000	-0.054	0.000
-366.727	-113.850	0.104	0.020
-365.712	59.426	-0.112	0.109
-364.698	104.515	-0.158	-0.183
-363.683	-153.437	-0.159	0.011
-362.669	800.000	0.066	0.213
-361.654	321.530	-0.098	-0.183
-360.639	-120.967	0.285	0.047
-359.625	-35.413	-0.165	-0.088
-358.610	-147.616	-0.291	-0.024
-357.596	260.595	-0.087	-0.149
-356.581	522.380	0.098	0.227
-355.566	751.344	0.123	0.328
-354.552	-200.000	-0.045	-0.226
-353.537	-69.797	0.252	-0.095
-352.523	-200.000	0.027	0.168
-351.508	-200.000	0.010	-0.178
-350.493	33.423	0.075	-0.064
-349.479	26.951	0.291	0.241
-348.464	294.347	0.006	0.011
-347.450	254.681	0.184	0.311
-346.435	800.000	0.038	0.157
-345.420	218.408	-0.123	-0.193
-344.406	-39.851	0.203	-0.105
-343.391	-102.865	0.305	-0.072
-342.377	-200.000	-0.014	0.187
-341.362	90.574	0.117	0.129
-340.348	-16.992	0.155	0.097
-339.333	-200.000	-0.026	-0.248
-338.318	-3.833	-0.452	0.309
-337.304	-85.154	0.255	0.079
-336.289	394.177	0.081	-0.165
-335.275	800.000	-0.030	-0.112
-334.260	-21.284	0.106	0.064
-333.245	74.967	0.196	0.203
-332.231	-200.000	-0.031	0.368
-331.216	-174.507	-0.256	-0.007
-330.202	-44.081	0.176	-0.087
-329.187	800.000	0.089	-0.319
-328.172	-34.685	-0.286	-0.154
-327.158	-96.217	0.051	0.013
-326.143	775.295	-0.097	0.261
-325.129	-121.615	0.219	-0.036
-324.114	-63.894	0.455	-0.183
-323.099	1.295	0.052	0.037
-322.085	39.436	0.111	-0.098
-321.070	-200.000	0.002	-0.026
-320.056	800.000	-0.061	0.250
-319.041	63.364	0.158	0.156
-318.026	-1.705	0.151	-0.104
-317.012	-92.978	0.170	-0.047
-315.997	-29.005	-0.457	0.258
-314.983	800.000	-0.083	-0.231
-313.968	313.012	0.085	0.158
-312.953	780.586	-0.071	-0.192
-311.939	-24.468	-0.155	0.091
-310.924	123.174	0.119	0.147
-309.910	6.954	0.194	-0.142
-308.895	-24.535	0.269	-0.158
-307.880	-54.895	0.271	-0.120
-306.866	-44.737	-0.333	-0.163
-305.851	716.449	0.127	-0.330
-304.837	800.000	0.054	0.206
-303.822	-200.000	-0.005	0.114
-302.807	34.573	-0.135	-0.116
-301.793	72.185	-0.208	-0.213
-300.778	-134.102	0.130	-0.016
-299.764	-172.962	0.389	0.012
-298.749	43.081	0.099	-0.089
-297.735	800.000	-0.087	0.247
-296.720	314.242	0.171	0.316
-295.705	-52.247	0.135	-0.061
-294.691	-200.000	-0.054	0.258
-293.676	590.310	0.096	-0.232
-292.662	-90.382	0.108	0.031
-291.647	387.512	0.123	-0.249
-290.632	479.786	-0.146	-0.326
-289.618	302.209	-0.100	-0.182
-288.603	-200.000	0.011	0.128
-287.589	-200.000	0.011	0.333
-286.574	43.506	-0.261	-0.235
-285.559	-19.149	-0.290	-0.177
-284.545	451.480	0.084	-0.183
-283.530	-27.431	-0.147	-0.084
-282.516	-158.697	0.260	-0.015
-281.501	-122.516	0.104	0.017
-280.486	164.660	0.119	-0.164
-279.472	715.555	-0.032	-0.085
-278.457	-200.000	0.077	0.382
-277.443	-22.565	-0.136	-0.081
-276.428	-107.045	0.421	-0.091
-275.413	691.820	-0.108	0.277
-274.399	-200.000	-0.011	-0.079
-273.384	44.526	0.113	0.102
-272.370	325.194	-0.108	0.202
-271.355	109.922	0.077	0.091
-270.340	-110.000	-0.119	0.024
-269.326	236.374	0.124	0.202
-268.311	800.000	0.083	0.238
-267.297	-50.092	-0.122	-0.057
-266.282	-120.155	0.099	-0.017
-265.267	-200.000	-0.040	-0.195
-264.253	103.008	0.258	0.297
-263.238	-39.800	0.276	-0.141
-262.224	800.000	-0.044	0.179
-261.209	-52.864	-0.196	-0.089
-260.195	324.205	0.058	0.109
-259.180	-119.007	-0.355	-0.061
-258.165	137.594	0.083	0.107
-257.151	392.906	0.044	0.090
-256.136	800.000	-0.038	-0.113
-255.122	-100.343	0.273	0.067
-254.107	6.825	0.210	-0.153
-253.092	-56.845	-0.257	-0.111
-252.078	667.184	-0.151	0.382
-251.063	-50.275	-0.016	0.008
-250.049	-200.000	0.051	-0.224
-249.034	80.854	-0.057	0.060
-248.019	-200.000	-0.000	0.140
-247.005	-4.472	0.228	-0.155
-245.990	-200.000	0.003	-0.016
-244.976	-55.242	0.358	-0.158
-243.961	353.159	0.140	0.273
-242.946	-113.979	-0.326	-0.062
-241.932	354.307	0.077	-0.149
-240.917	342.037	-0.090	0.173
-239.903	-200.000	-0.021	0.192
-238.888	-200.000	0.021	0.101
-237.873	-108.288	-0.287	-0.061
-236.859	56.067	0.149	0.142
-235.844	133.190	0.211	0.267
-234.830	-55.367	-0.169	-0.074
-233.815	95.372	-0.065	-0.073
-232.800	120.184	-0.079	-0.096
-231.786	32.468	-0.156	-0.132
-230.771	131.548	-0.155	-0.196
-229.757	-133.992	0.122	0.015
-228.742	209.845	0.153	0.235
-227.727	-200.000	-0.012	0.061
-226.713	479.045	-0.066	0.146
-225.698	155.464	0.075	0.101
-224.684	-200.000	-0.012	0.057
-223.669	-200.000	-0.048	-0.390
-222.655	-45.248	-0.073	0.036
-221.640	-200.000	-0.009	0.350
-220.625	97.835	0.244	-0.275
-219.611	-200.000	0.017	0.224
-218.596	-200.000	-0.016	-0.126
-217.582	5.582	0.195	-0.141
-216.567	-73.648	0.336	-0.120
-215.552	498.951	0.177	0.399
-214.538	-169.905	-0.054	0.002
-213.523	-193.813	-0.116	0.001
-212.509	-0.745	0.336	0.233
-211.494	76.900	-0.186	0.193
-210.479	-117.268	-0.068	0.012
-209.465	1.526	0.014	-0.010
-208.450	222.248	-0.108	-0.171
-207.436	382.493	0.051	0.102
-206.421	-46.363	0.245	-0.118
-205.406	800.000	0.064	-0.194
-204.392	122.226	-0.145	-0.177
-203.377	251.129	0.194	0.323
-202.363	-19.616	-0.110	0.067
-201.348	800.000	-0.083	-0.258
-200.333	-14.421	-0.165	-0.104
-199.319	-39.653	0.193	0.099
-198.304	-200.000	0.015	0.181
-197.290	430.393	-0.011	-0.024
-196.275	79.141	-0.155	0.162
-195.260	-200.000	-0.042	0.310
-194.246	-13.822	-0.281	0.178
-193.231	116.615	0.094	-0.113
-192.217	-49.350	0.162	0.076
-191.202	106.193	-0.118	-0.137
-190.187	1.928	-0.208	-0.147
-189.173	-38.987	0.312	-0.161
-188.158	129.905	-0.128	-0.160
-187.144	608.124	-0.123	0.300
-186.129	-120.993	0.264	-0.043
-185.114	-32.073	-0.256	0.140
-184.100	-25.267	-0.247	0.143
-183.085	-42.522	0.160	0.080
-182.071	-167.171	-0.171	0.007
-181.056	76.661	-0.224	0.232
-180.042	76.402	0.296	0.307
-179.027	214.256	0.107	0.165
-178.012	527.762	-0.049	-0.113
-176.998	-31.712	-0.257	0.141
-175.983	-112.646	-0.276	-0.054
-174.969	269.048	-0.016	-0.027
-173.954	95.155	0.134	0.149
-172.939	800.000	0.131	0.395
-171.925	592.851	0.037	-0.089
-170.910	-100.081	0.302	0.074
-169.896	-156.547	-0.402	0.024
-168.881	-200.000	-0.016	-0.281
-167.866	278.345	-0.149	0.260
-166.852	800.000	0.036	-0.119
-165.837	220.177	-0.038	-0.059
-164.823	-62.917	-0.204	0.083
-163.808	-96.357	0.206	0.053
-162.793	116.216	-0.081	0.097
-161.779	29.839	-0.141	0.118
-160.764	800.000	0.134	-0.401
-159.750	-104.378	0.148	0.034
-158.735	108.353	-0.226	-0.263
-157.720	247.189	-0.160	0.264
-156.706	199.563	-0.150	-0.225
-155.691	134.606	0.112	0.142
-154.677	-200.000	0.026	-0.204
-153.662	-149.428	0.149	0.012
-152.647	-200.000	0.012	-0.211
-151.633	1.327	-0.101	0.071
-150.618	108.719	-0.084	0.099
-149.604	-23.706	0.253	0.148
-148.589	-200.000	0.009	0.446
-147.574	158.863	-0.218	0.296
-146.560	486.199	0.072	-0.161
-145.545	166.344	-0.149	-0.206
-144.531	-69.027	0.137	0.052
-143.516	800.000	0.060	0.226
-142.502	-200.000	-0.024	0.169
-141.487	-200.000	0.003	0.049
-140.472	-158.934	0.092	-0.005
-139.458	182.382	0.049	-0.071
-138.443	-200.000	0.055	0.242
-137.429	-79.693	0.266	0.088
-136.414	800.000	-0.055	-0.210
-135.399	-200.000	-0.000	0.394
-134.385	-89.358	0.192	-0.055
-133.370	-90.884	0.304	0.086
-132.356	-200.000	-0.009	0.207
-131.341	11.969	0.277	0.208
-130.326	59.429	0.035	-0.033
-129.312	-138.375	0.259	-0.028
-128.297	-81.280	0.185	0.059
-127.283	74.683	-0.181	-0.186
-126.268	800.000	0.072	0.200
-125.253	-96.394	0.055	-0.014
-124.239	-200.000	0.014	0.142
-123.224	-33.302	0.479	0.259
-122.210	412.094	0.006	-0.013
-121.195	-166.650	0.138	0.006
-120.180	-79.424	0.238	-0.079
-119.166	448.672	-0.076	0.164
-118.151	164.879	0.140	0.193
-117.137	-61.208	0.358	-0.147
-116.122	253.286	-0.198	-0.331
-115.107	710.315	-0.160	0.413
-114.093	143.078	0.111	0.144
-113.078	-10.456	0.216	0.140
-112.064	-78.671	-0.293	-0.098
-111.049	-200.000	-0.017	0.274
-110.034	189.682	0.204	-0.298
-109.020	-12.318	-0.156	-0.100
-108.005	-200.000	-0.025	-0.120
-106.991	129.726	-0.144	0.180
-105.976	-200.000	0.003	0.151
-104.962	-81.284	-0.038	-0.012
-103.947	-200.000	-0.038	0.280
-102.932	35.274	-0.068	-0.058
-101.918	73.569	0.203	0.207
-100.903	-153.381	-0.256	0.017
-99.889	-200.000	0.007	-0.080
-98.874	-180.747	0.166	-0.003
-97.859	197.184	0.026	0.038
-96.845	60.013	0.061	0.059
-95.830	149.364	-0.089	-0.117
-94.816	-118.289	-0.062	0.011
-93.801	800.000	-0.053	0.199
-92.786	-89.946	-0.081	0.023
-91.772	-138.607	-0.114	0.012
-90.757	43.568	0.250	0.223
-89.743	226.015	0.165	-0.261
-88.728	553.787	-0.177	-0.416
-87.713	71.201	0.118	0.120
-86.699	38.234	0.031	0.027
-85.684	240.030	0.111	-0.180
-84.670	80.986	-0.140	0.147
-83.655	-96.489	-0.138	0.035
-82.640	-110.465	-0.288	0.058
-81.626	-110.600	0.146	0.029
-80.611	18.856	-0.179	0.140
-79.597	-166.317	0.074	0.003
-78.582	-35.296	-0.103	0.055
-77.567	-15.101	-0.113	0.070
-76.553	141.602	0.133	0.172
-75.538	800.000	0.104	0.429
-74.524	-123.776	0.113	0.017
-73.509	800.000	-0.097	-0.330
-72.494	-200.000	0.050	0.387
-71.480	8.008	0.111	-0.081
-70.465	23.308	0.190	-0.152
-69.451	-123.022	0.133	-0.021
-68.436	687.390	-0.053	0.134
-67.422	148.046	0.097	0.128
-66.407	800.000	-0.054	0.157
-65.392	438.417	0.063	-0.133
-64.378	13.625	0.477	-0.361
-63.363	800.000	-0.053	-0.186
-62.349	-56.993	-0.224	0.097
-61.334	106.013	-0.981	-1.131
-60.319	98.867	0.691	0.777
-59.305	-200.000	-0.201	-1.373
-58.290	311.150	0.612	1.118
-57.276	409.132	0.797	1.643
-56.261	-200.000	122.300	648.832
-55.246	434.890	1542.331	3266.295
-54.232	147.948	2692.130	3536.352
-53.217	97.619	2161.454	2419.467
-52.203	34.563	1686.720	1435.132
-51.188	27.234	1505.017	1231.082
-50.173	25.130	1481.894	1198.077
-49.159	48.755	1552.284	1417.898
-48.144	46.381	1565.486	1413.618
-47.130	27.227	1514.419	1238.527
-46.115	24.327	1498.653	1206.006
-45.100	24.094	1495.350	1201.728
-44.086	24.000	1493.953	1199.919
-43.071	24.032	1491.441	1198.072
-42.057	24.022	1489.690	1196.553
-41.042	24.065	1488.819	1196.092
-40.027	24.044	1487.351	1194.724
-39.013	24.086	1485.267	1193.288
-37.998	24.029	1484.299	1192.078
-36.984	23.952	1483.496	1190.869
-35.969	24.045	1481.422	1189.783
-34.954	24.056	1479.963	1188.632
-33.940	24.028	1478.907	1187.555
-32.925	24.042	1477.423	1186.406
-31.911	24.128	1475.603	1185.470
-30.896	23.945	1475.002	1183.723
-29.881	24.089	1473.718	1183.604
-28.867	24.065	1472.688	1182.572
-27.852	24.136	1470.841	1181.511
-26.838	24.155	1469.805	1180.755
-25.823	24.201	1468.187	1179.715
-24.809	24.140	1466.451	1177.868
-23.794	24.153	1465.077	1176.807
-22.779	24.084	1464.288	1175.672
-21.765	24.103	1463.129	1174.818
-20.750	24.143	1461.842	1174.001
-19.736	24.068	1461.166	1172.921
-18.721	24.118	1459.606	1171.949
-17.706	24.124	1458.862	1171.345
-16.692	24.066	1457.881	1170.126
-15.677	24.039	1457.279	1169.420
-14.663	24.010	1456.491	1168.551
-13.648	24.007	1455.235	1167.478
-12.633	24.048	1454.027	1166.731
-11.619	24.102	1453.434	1166.561
-10.604	24.029	1452.123	1164.984
-9.590	23.957	1451.872	1164.269
-8.575	24.078	1450.161	1163.639
-7.560	24.058	1449.472	1162.912
-6.546	24.041	1448.757	1162.182
-5.531	24.019	1448.257	1161.591
-4.517	24.110	1446.566	1160.782
-3.502	23.900	1446.541	1159.346
-2.487	23.982	1445.547	1159.039
-1.473	24.079	1443.878	1158.287
-0.458	24.048	1442.749	1157.132
0.556	23.090	1432.631	1145.339
1.571	20.054	1408.619	1106.680
2.586	16.623	1347.622	1037.665
3.600	15.099	1265.955	965.908
4.615	14.057	1223.054	927.281
5.629	12.258	1167.224	875.292
6.644	6.321	1086.181	784.915
7.659	1.493	1049.374	734.947
8.673	0.920	1044.208	728.507
9.688	0.688	1041.339	725.328
10.702	0.790	1040.044	724.850
11.717	0.722	1037.718	722.840
12.731	2.698	1038.681	732.895
13.746	8.961	1047.447	769.126
14.761	15.136	1054.494	803.961
15.775	17.305	1056.841	816.101
16.790	17.007	1055.667	813.693
17.804	16.017	1053.212	806.992
18.819	15.281	1051.492	802.081
19.834	14.846	1050.058	798.841
20.848	14.495	1049.451	796.629
21.863	14.191	1048.906	794.696
22.877	13.992	1048.088	793.055
23.892	13.796	1046.973	791.205
24.907	13.644	1046.288	789.894
25.921	13.603	1045.307	788.887
26.936	13.760	1044.976	789.314
27.950	13.833	1043.713	788.635
28.965	13.841	1043.740	788.628
29.980	13.705	1042.866	787.251
30.994	13.889	1041.430	786.969
32.009	13.885	1040.629	786.274
33.023	13.887	1040.270	785.943
34.038	13.945	1039.491	785.560
35.053	13.987	1038.577	784.997
36.067	13.800	1037.823	783.475
37.082	13.839	1036.616	782.680
38.096	13.991	1035.831	782.734
39.111	13.934	1035.299	781.995
40.126	13.999	1034.053	781.287
41.140	13.809	1033.336	779.786
42.155	13.787	1032.237	778.783
43.169	13.719	1031.500	777.842
44.184	13.832	1030.652	777.660
45.199	13.812	1029.147	776.362
46.213	13.744	1028.339	775.366
47.228	13.629	1027.294	773.973
48.242	13.778	1026.859	774.273
49.257	13.810	1025.248	773.140
50.271	13.728	1024.716	772.290
51.286	13.908	1023.447	772.102
52.301	13.865	1022.658	771.235
53.315	13.907	1022.060	770.913
54.330	13.734	1021.633	769.721
55.344	13.748	1020.474	768.842
56.359	13.747	1019.599	768.112
57.374	13.783	1018.537	767.411
58.388	13.797	1017.668	766.751
59.403	13.731	1017.192	766.021
60.417	13.751	1015.934	765.098
61.432	13.713	1015.390	764.446
62.447	13.680	1014.772	763.758
63.461	13.670	1013.824	762.935
64.476	13.711	1012.704	762.213
65.490	13.715	1012.090	761.698
66.505	13.743	1011.023	760.956
67.520	13.700	1010.229	760.094
68.534	13.738	1010.096	760.104
69.549	13.727	1009.122	759.253
70.563	13.688	1008.283	758.377
71.578	13.731	1007.739	758.096
72.593	13.685	1006.762	757.086
73.607	13.705	1006.062	756.580
74.622	13.536	1005.250	755.134
75.636	13.525	1004.450	754.414
76.651	13.665	1003.842	754.530
77.666	13.840	1002.743	754.432
78.680	13.755	1001.975	753.402
79.695	13.747	1001.238	752.746
80.709	13.684	1001.046	752.248
81.724	13.688	999.984	751.403
82.739	13.742	998.857	750.734
83.753	13.736	998.357	750.263
84.768	13.804	997.503	749.863
85.782	13.947	996.773	749.892
86.797	13.982	995.656	749.144
87.812	13.825	995.301	748.102
88.826	13.677	994.975	747.123
89.841	13.853	993.763	746.940
90.855	13.814	992.877	746.033
91.870	13.907	992.101	745.800
92.884	13.901	991.822	745.501
93.899	13.911	990.499	744.482
94.914	14.052	989.976	744.656
95.928	14.024	989.210	743.891
96.943	14.010	988.407	743.156
97.957	13.836	988.053	742.046
98.972	13.906	987.150	741.614
99.987	13.970	986.222	741.141
101.001	13.873	985.486	740.086
102.016	13.868	985.022	739.652
103.030	13.967	983.705	739.036
104.045	13.902	982.925	738.098
105.060	13.992	981.742	737.541
106.074	13.836	980.990	736.221
107.089	13.902	980.140	735.808
108.103	13.839	979.566	735.035
109.118	13.868	978.122	734.013
110.133	13.743	977.668	733.057
111.147	13.816	976.694	732.583
112.162	13.752	976.250	731.904
113.176	13.825	975.328	731.471
114.191	13.873	973.818	730.484
115.206	13.852	973.159	729.831
116.220	13.884	972.299	729.265
117.235	13.842	972.188	728.932
118.249	13.940	971.168	728.531
119.264	13.923	970.284	727.729
120.279	13.949	969.095	726.886
121.293	13.913	968.076	725.902
122.308	13.869	967.892	725.506
123.322	13.798	966.930	724.410
124.337	13.823	965.719	723.548
125.352	13.848	964.917	722.991
126.366	13.795	963.642	721.744
127.381	13.811	962.310	720.750
128.395	13.849	961.309	720.102
129.410	13.980	959.734	719.428
130.424	13.899	959.301	718.688
131.439	13.655	958.838	717.222
132.454	13.778	957.653	716.802
133.468	13.923	957.057	716.920
134.483	13.818	956.579	716.047
135.497	13.940	955.611	715.784
136.512	13.883	955.062	715.063
137.527	13.944	953.832	714.339
138.541	13.981	952.954	713.779
139.556	13.986	952.756	713.588
140.570	13.881	951.981	712.496
141.585	13.816	951.046	711.454
142.600	14.022	950.382	711.775
143.614	14.087	949.596	711.402
144.629	13.976	949.014	710.429
145.643	14.122	948.180	710.367
146.658	14.099	947.473	709.674
147.673	14.132	946.038	708.677
148.687	14.123	945.316	708.036
149.702	14.072	944.841	707.399
150.716	14.017	943.971	706.452
151.731	14.074	942.724	705.700
152.746	14.089	942.092	705.227
153.760	14.090	941.725	704.893
154.775	13.989	940.777	703.696
155.789	14.082	939.999	703.446
156.804	14.151	939.213	703.084
157.819	14.038	938.564	702.060
158.833	14.204	938.060	702.322
159.848	14.136	937.240	701.359
160.862	14.176	936.365	700.809
161.877	14.260	935.809	700.688
162.892	14.126	935.047	699.488
163.906	14.073	934.382	698.708
164.921	14.138	933.527	698.281
165.935	14.227	932.088	697.516
166.950	14.129	931.348	696.488
167.964	14.078	931.070	696.004
168.979	14.198	929.466	695.248
169.994	14.147	928.494	694.243
171.008	14.184	927.664	693.718
172.023	14.265	926.594	693.194
173.037	14.163	926.316	692.500
174.052	14.331	925.502	692.530
175.067	14.300	924.939	691.919
176.081	14.169	923.853	690.501
177.096	14.230	923.165	690.176
178.110	14.202	922.193	689.274
179.125	14.361	921.469	689.328
180.140	14.165	921.018	688.118
181.154	14.258	920.593	688.126
182.169	14.288	920.039	687.775
183.183	14.409	918.880	687.346
184.198	14.406	918.314	686.849
185.213	14.367	917.956	686.363
186.227	14.403	917.280	685.944
187.242	14.424	916.634	685.487
188.256	14.552	916.137	685.578
189.271	14.627	915.127	685.069
190.286	14.428	914.530	683.746
191.300	14.403	913.928	683.135
192.315	14.371	913.099	682.323
193.329	14.361	912.567	681.825
194.344	14.309	911.597	680.828
195.359	14.472	911.306	681.215
196.373	14.330	910.979	680.330
197.388	14.455	910.473	680.402
198.402	14.520	910.004	680.258
199.417	14.632	909.070	679.956
200.432	14.676	908.578	679.707
201.446	14.663	908.246	679.347
202.461	14.814	907.621	679.431
203.475	14.723	907.602	678.987
204.490	14.751	906.674	678.348
205.504	14.782	905.504	677.537
206.519	14.671	905.010	676.656
207.534	14.739	903.982	676.103
208.548	14.799	902.889	675.467
209.563	14.648	902.699	674.656
210.577	14.794	901.644	674.398
211.592	14.650	901.079	673.336
212.607	14.666	900.684	673.043
213.621	14.843	900.231	673.361
214.636	14.822	899.890	672.959
215.650	14.775	899.036	672.072
216.665	14.852	898.518	671.934
217.680	14.763	898.064	671.180
218.694	14.941	897.426	671.357
219.709	15.005	896.550	670.899
220.723	14.971	895.858	670.185
221.738	14.872	895.662	669.584
222.753	14.943	894.722	669.106
223.767	14.946	893.811	668.379
224.782	14.933	892.936	667.614
225.796	15.036	892.152	667.378
226.811	14.870	892.132	666.642
227.826	15.000	890.924	666.200
228.840	15.055	890.375	665.945
229.855	15.166	889.527	665.694
230.869	15.045	889.355	665.027
231.884	14.957	888.527	663.998
232.899	15.109	887.990	664.140
233.913	14.969	886.980	662.773
234.928	14.985	886.420	662.359
235.942	15.049	885.987	662.232
236.957	15.167	884.862	661.798
237.972	15.052	884.772	661.218
238.986	15.001	883.831	660.254
240.001	15.102	883.105	660.052
241.015	15.027	882.737	659.424
242.030	15.043	882.162	659.000
243.045	15.217	881.174	658.884
244.059	15.172	880.761	658.344
245.074	15.159	880.195	657.811
246.088	15.325	879.564	657.932
247.103	15.227	879.137	657.168
248.117	15.280	878.111	656.551
249.132	15.134	878.023	655.858
250.147	15.209	877.493	655.697
251.161	15.321	876.284	655.172
252.176	15.467	875.862	655.369
253.190	15.462	875.022	654.664
254.205	15.658	873.802	654.455
255.220	15.508	873.968	653.937
256.234	15.510	873.110	653.243
257.249	15.482	872.751	652.811
258.263	15.618	872.012	652.727
259.278	15.519	871.347	651.790
260.293	15.637	870.861	651.825
261.307	15.628	870.287	651.302
262.322	15.574	869.710	650.604
263.336	15.503	869.471	650.094
264.351	15.700	868.818	650.308
265.366	15.705	867.896	649.579
266.380	15.772	867.496	649.481
267.395	15.692	866.751	648.559
268.409	15.732	865.870	647.997
269.424	15.775	865.261	647.649
270.439	15.905	864.554	647.562
271.453	15.779	863.586	646.297
272.468	15.673	863.009	645.399
273.482	15.771	862.508	645.343
274.497	15.813	862.025	645.088
275.512	15.743	861.310	644.227
276.526	15.870	860.245	643.859
277.541	15.771	859.662	642.988
278.555	15.769	859.258	642.621
279.570	15.884	858.836	642.687
280.585	15.857	858.052	641.938
281.599	16.027	857.443	642.076
282.614	16.008	856.916	641.551
283.628	15.994	856.055	640.798
284.643	15.899	855.896	640.258
285.657	15.902	855.904	640.221
286.672	15.894	855.144	639.563
287.687	16.026	854.548	639.563
288.701	16.100	854.049	639.413
289.716	16.036	853.454	638.669
290.730	16.212	852.639	638.668
291.745	16.137	852.004	637.854
292.760	16.103	851.522	637.308
293.774	16.074	850.814	636.613
294.789	16.041	850.873	636.473
295.803	16.170	849.943	636.209
296.818	16.274	849.122	635.931
297.833	16.189	848.350	634.974
298.847	16.087	847.797	634.125
299.862	16.268	847.053	634.192
300.876	16.150	846.742	633.457
301.891	16.247	845.905	633.138
302.906	16.360	845.013	632.840
303.920	16.516	844.065	632.657
304.935	16.390	843.900	632.005
305.949	16.243	843.645	631.209
306.964	16.408	842.591	630.981
307.979	16.478	842.142	630.850
308.993	16.384	841.865	630.237
310.008	16.551	841.015	630.166
311.022	16.307	840.821	629.056
312.037	16.446	840.404	629.207
313.052	16.477	839.569	628.642
314.066	16.497	838.739	628.040
315.081	16.417	838.478	627.490
316.095	16.526	837.601	627.181
317.110	16.421	837.548	626.698
318.125	16.542	836.759	626.499
319.139	16.510	836.484	626.121
320.154	16.456	835.737	625.306
321.168	16.446	835.323	624.906
322.183	16.538	834.679	624.709
323.197	16.447	834.508	624.189
324.212	16.626	833.429	623.985
325.227	16.518	833.106	623.291
326.241	16.614	832.639	623.239
327.256	16.630	831.966	622.740
328.270	16.631	831.568	622.392
329.285	16.512	831.102	621.548
330.300	16.718	830.044	621.458
331.314	16.669	829.441	620.775
332.329	16.638	829.265	620.473
333.343	16.712	828.734	620.291
334.358	16.825	828.015	620.114
335.373	16.723	827.623	619.390
336.387	16.682	827.240	618.899
337.402	16.872	826.170	618.739
338.416	16.850	825.943	618.433
339.431	16.861	825.438	618.040
340.446	16.868	824.862	617.578
341.460	16.835	824.249	616.944
342.475	16.899	823.432	616.511
343.489	16.979	823.278	616.633
344.504	17.053	822.414	616.199
345.519	16.986	822.078	615.650
346.533	17.092	821.149	615.286
347.548	17.062	820.993	615.003
348.562	16.976	820.616	614.357
349.577	16.935	820.099	613.765
350.592	16.950	819.566	613.368
351.606	16.978	819.249	613.178
352.621	16.884	818.711	612.382
353.635	16.894	818.158	611.949
354.650	16.897	817.848	611.673
355.665	16.997	817.443	611.679
356.679	17.070	816.766	611.381
357.694	16.966	816.599	610.826
358.708	17.111	815.909	610.777
359.723	17.104	815.346	610.277
360.738	17.121	814.783	609.863
361.752	17.206	814.056	609.569
362.767	17.027	814.154	608.946
363.781	17.261	813.418	609.181
364.796	17.329	812.698	608.831
365.810	17.352	812.369	608.612
366.825	17.265	812.202	608.124
367.840	17.401	811.614	608.114
368.854	17.460	811.066	607.861
369.869	17.467	810.615	607.495
370.883	17.395	810.261	606.920
371.898	17.416	809.521	606.385
372.913	17.442	808.898	605.958
373.927	17.308	808.228	604.926
374.942	17.552	807.456	605.163
375.956	17.421	807.388	604.592
376.971	17.377	806.850	603.980
377.986	17.514	806.183	603.914
379.000	17.497	805.476	603.267
380.015	17.572	805.127	603.218
381.029	17.468	804.729	602.500
382.044	17.367	804.362	601.814
383.059	17.588	803.357	601.791
384.073	17.672	803.089	601.833
385.088	17.642	802.288	601.073
386.102	17.559	801.860	600.407
387.117	17.623	801.346	600.195
388.132	17.648	800.916	599.907
389.146	17.645	800.613	599.618
390.161	17.607	800.229	599.141
391.175	17.690	799.634	598.934
392.190	17.659	799.591	598.740
393.205	17.802	798.842	598.628
394.219	17.621	798.604	597.763
395.234	17.662	797.975	597.382
396.248	17.685	797.523	597.072
397.263	17.714	797.282	596.941
398.278	17.777	796.625	596.617
399.292	17.702	796.294	596.053
400.307	17.644	795.757	595.396
401.321	17.775	795.478	595.593
402.336	17.647	795.365	595.009
403.350	17.630	794.795	594.468
404.365	17.851	793.923	594.534
405.380	17.882	793.458	594.243
406.394	17.839	793.283	593.907
407.409	17.922	792.726	593.728
408.423	18.067	792.038	593.665
409.438	17.943	791.794	592.998
410.453	17.927	791.480	592.653
411.467	17.937	791.370	592.553
412.482	18.168	790.085	592.339
413.496	18.254	790.036	592.550
414.511	18.147	789.702	591.876
415.526	18.055	789.328	591.226
416.540	18.046	789.107	590.976
417.555	18.141	788.533	590.823
418.569	18.159	788.108	590.512
419.584	18.258	787.518	590.359
420.599	18.229	787.303	590.048
421.613	115.923	1295.758	1489.157
422.628	99.720	1369.808	1489.250
