DTS Sentinel unit serial number:	SN413079Multiplexer serial number:	ORYXHardware model number:	OX4-SRSoftware version number:	ORYX F/W v4.00 Oryx Data Collector v3.7.2.0data status	okinstallation	princeton_trtdifferential loss correction	single-endedforward channel	channel 3reverse channel	N/Adate	2019/09/13time	08:40:34forward acquisition time	60.00reverse acquisition time	0.00gamma	496.2192k internal	0.2331k external	0.2331temperature offset calibration	1.0137default loss term (dB/km)	0.3790temperature slope calibration	1.0000multiplexer offset coefficient	1.0000multiplexer slope coefficient	1.0000fibre end	0.00T internal ref (°C)	27.78T ext. ref 1 (°C)	4.29T ext. ref 2 (°C)	24.73length (m)	temperature (°C)	Stokes	anti-Stokes-747.200	179.434	0.126	0.185
-746.185	32.459	0.084	-0.073
-745.171	36.107	-0.315	-0.279
-744.156	-129.557	-0.539	0.075
-743.142	595.843	0.085	-0.211
-742.127	135.561	-0.204	0.267
-741.112	800.000	-0.005	0.014
-740.098	25.143	0.185	0.155
-739.083	589.953	0.091	0.225
-738.069	572.040	-0.163	0.400
-737.054	-36.009	0.102	0.056
-736.039	-5.571	-0.254	-0.175
-735.025	-103.719	0.439	0.103
-734.010	-113.096	-0.331	0.066
-732.996	233.399	-0.066	-0.109
-731.981	209.659	-0.180	-0.284
-730.966	78.178	-0.227	0.244
-729.952	49.989	-0.318	-0.301
-728.937	181.444	0.167	0.246
-727.923	-96.912	-0.127	0.033
-726.908	53.938	0.095	-0.092
-725.894	-71.682	0.111	-0.042
-724.879	-92.868	-0.185	0.052
-723.864	746.390	0.187	0.505
-722.850	-154.291	0.094	0.006
-721.835	-94.120	0.308	-0.085
-720.821	-200.000	-0.022	-0.156
-719.806	148.633	-0.174	-0.237
-718.791	298.762	-0.064	-0.119
-717.777	-28.908	-0.187	-0.108
-716.762	88.746	0.030	0.033
-715.748	41.235	-0.069	-0.063
-714.733	31.863	-0.317	0.275
-713.718	438.363	0.067	0.148
-712.704	-71.681	-0.206	-0.077
-711.689	-126.564	0.356	0.053
-710.675	186.788	0.061	-0.091
-709.660	11.156	-0.029	-0.022
-708.645	58.815	0.077	-0.076
-707.631	-99.708	-0.139	0.035
-706.616	658.400	0.025	0.065
-705.602	783.840	0.118	0.324
-704.587	-200.000	0.052	0.228
-703.572	27.212	-0.092	-0.078
-702.558	30.149	0.162	-0.139
-701.543	-200.000	-0.006	-0.113
-700.529	-200.000	0.049	-0.323
-699.514	-124.540	0.125	-0.020
-698.499	800.000	-0.051	-0.191
-697.485	92.421	0.010	0.012
-696.470	-108.029	-0.370	-0.081
-695.456	34.206	0.157	0.138
-694.441	-18.414	-0.239	0.150
-693.426	-170.957	0.169	0.006
-692.412	-158.279	-0.253	-0.015
-691.397	-3.629	-0.186	-0.130
-690.383	187.788	-0.088	-0.132
-689.368	800.000	0.016	0.068
-688.354	62.874	-0.196	0.197
-687.339	142.543	0.107	0.143
-686.324	-96.211	-0.337	-0.090
-685.310	201.633	0.077	0.120
-684.295	800.000	-0.060	0.211
-683.281	-28.401	0.204	0.118
-682.266	-200.000	0.014	-0.188
-681.251	-112.111	-0.209	0.042
-680.237	-200.000	0.059	-0.367
-679.222	215.468	-0.093	0.148
-678.208	-200.000	-0.033	-0.192
-677.193	12.736	-0.227	0.176
-676.178	-200.000	-0.004	0.281
-675.164	-97.839	0.343	0.089
-674.149	-200.000	0.019	-0.231
-673.135	-193.500	-0.358	-0.003
-672.120	-49.667	0.179	0.085
-671.105	761.270	0.130	-0.353
-670.091	-168.035	-0.185	0.007
-669.076	-80.188	0.181	0.061
-668.062	163.902	0.167	-0.236
-667.047	-153.171	-0.072	0.005
-666.032	-52.574	-0.038	0.017
-665.018	320.365	-0.164	-0.312
-664.003	-102.750	-0.130	0.031
-662.989	36.071	-0.173	0.153
-661.974	-18.173	-0.304	-0.191
-660.959	-124.564	0.319	0.050
-659.945	-81.116	0.072	-0.024
-658.930	-84.019	-0.400	-0.127
-657.916	-107.691	-0.302	-0.066
-656.901	-122.153	-0.199	-0.033
-655.886	134.307	-0.076	0.099
-654.872	-200.000	-0.010	-0.199
-653.857	3.817	-0.261	-0.191
-652.843	53.609	-0.238	-0.229
-651.828	73.541	0.099	-0.104
-650.814	800.000	-0.047	0.137
-649.799	-116.409	0.152	-0.028
-648.784	141.029	0.108	0.143
-647.770	373.209	0.116	-0.236
-646.755	-90.617	0.157	0.046
-645.741	49.318	-0.185	-0.175
-644.726	-63.391	-0.364	0.150
-643.711	-85.682	0.225	-0.070
-642.697	800.000	-0.048	0.139
-641.682	800.000	0.059	0.205
-640.668	-11.791	0.077	-0.050
-639.653	-52.535	-0.160	0.074
-638.638	-120.177	-0.236	0.040
-637.624	-34.906	0.072	-0.039
-636.609	-3.303	-0.278	0.194
-635.595	-77.551	-0.069	-0.024
-634.580	-200.000	0.000	-0.142
-633.565	210.257	-0.182	0.287
-632.551	99.686	-0.039	-0.046
-631.536	250.386	-0.101	0.172
-630.522	-45.488	-0.218	-0.108
-629.507	31.926	-0.214	-0.185
-628.492	-33.330	0.207	0.115
-627.478	510.855	-0.099	-0.231
-626.463	341.028	-0.077	-0.152
-625.449	800.000	0.013	0.046
-624.434	87.759	-0.282	-0.313
-623.419	-200.000	0.009	-0.097
-622.405	-8.575	-0.216	-0.145
-621.390	67.347	-0.105	-0.107
-620.376	-61.451	-0.337	0.142
-619.361	800.000	0.076	0.211
-618.346	800.000	-0.058	0.211
-617.332	-139.459	-0.062	0.007
-616.317	800.000	0.093	0.312
-615.303	-200.000	0.017	0.166
-614.288	-200.000	0.023	0.121
-613.273	-63.839	-0.278	-0.114
-612.259	345.727	0.194	0.381
-611.244	44.189	-0.148	0.136
-610.230	-200.000	-0.043	-0.300
-609.215	777.219	-0.149	0.408
-608.201	171.589	-0.122	-0.175
-607.186	-67.909	-0.179	-0.070
-606.171	-158.913	0.084	0.005
-605.157	-18.865	-0.335	0.209
-604.142	-87.775	0.170	-0.051
-603.128	-200.000	0.056	0.488
-602.113	537.000	0.078	0.185
-601.098	-9.700	0.040	0.027
-600.084	800.000	0.043	-0.153
-599.069	29.854	0.295	-0.252
-598.055	-200.000	0.034	-0.180
-597.040	-200.000	-0.024	-0.197
-596.025	207.287	0.122	-0.190
-595.011	-14.271	0.381	0.246
-593.996	-143.367	-0.104	-0.010
-592.982	633.677	0.104	0.264
-591.967	65.789	-0.081	-0.083
-590.952	32.992	0.201	0.174
-589.938	15.518	0.197	0.155
-588.923	105.397	0.162	0.192
-587.909	530.336	-0.099	-0.233
-586.894	-147.853	0.092	0.008
-585.879	572.200	0.092	0.223
-584.865	119.975	-0.173	-0.215
-583.850	14.809	0.465	0.364
-582.836	800.000	-0.078	-0.245
-581.821	-120.630	0.252	0.043
-580.806	-89.595	0.173	-0.051
-579.792	800.000	0.053	-0.149
-578.777	90.721	0.192	-0.215
-577.763	-19.197	-0.307	0.191
-576.748	-84.019	-0.309	-0.098
-575.733	-200.000	-0.073	-0.340
-574.719	-179.512	0.190	-0.004
-573.704	-200.000	-0.013	0.085
-572.690	-200.000	-0.031	0.145
-571.675	-12.587	0.115	-0.075
-570.661	-200.000	0.020	0.177
-569.646	-4.270	-0.213	-0.148
-568.631	-96.859	0.196	-0.051
-567.617	363.442	-0.133	0.267
-566.602	-200.000	-0.008	0.088
-565.588	693.581	-0.066	0.172
-564.573	-57.564	0.127	-0.055
-563.558	91.501	-0.031	0.035
-562.544	-185.558	-0.410	0.006
-561.529	-200.000	-0.041	-0.187
-560.515	37.123	0.216	-0.191
-559.500	212.666	-0.055	0.086
-558.485	-200.000	0.035	-0.240
-557.471	-111.860	0.170	-0.034
-556.456	174.881	-0.167	0.242
-555.442	724.114	-0.060	-0.158
-554.427	36.714	-0.110	-0.097
-553.412	85.219	0.251	-0.275
-552.398	51.509	-0.060	0.057
-551.383	2.740	-0.269	0.195
-550.369	-200.000	-0.029	0.190
-549.354	-24.480	0.051	-0.030
-548.339	-121.944	-0.104	0.017
-547.325	9.580	-0.254	0.192
-546.310	-200.000	-0.002	-0.049
-545.296	35.228	-0.229	-0.200
-544.281	800.000	-0.046	-0.159
-543.266	-40.222	0.290	-0.151
-542.252	-48.433	-0.068	0.033
-541.237	-200.000	-0.000	0.294
-540.223	694.735	-0.088	0.231
-539.208	-88.755	-0.170	0.050
-538.193	134.689	0.235	0.304
-537.179	800.000	0.078	-0.267
-536.164	-200.000	-0.035	-0.591
-535.150	800.000	-0.008	-0.035
-534.135	499.384	-0.053	-0.121
-533.121	32.995	-0.308	0.267
-532.106	167.734	0.019	-0.026
-531.091	125.778	-0.148	-0.187
-530.077	505.006	0.089	0.206
-529.062	255.659	0.024	0.042
-528.048	-200.000	0.012	-0.062
-527.033	800.000	-0.039	-0.128
-526.018	231.309	-0.069	-0.114
-525.004	-99.842	0.282	0.070
-523.989	800.000	-0.046	-0.164
-522.975	800.000	-0.089	-0.314
-521.960	-200.000	0.022	-0.165
-520.945	428.113	-0.184	0.397
-519.931	-130.354	-0.196	0.027
-518.916	-200.000	0.033	0.168
-517.902	-65.782	0.078	-0.031
-516.887	170.179	-0.181	-0.258
-515.872	-33.229	-0.158	0.087
-514.858	-129.739	-0.165	-0.023
-513.843	-2.788	0.139	-0.097
-512.829	-121.176	-0.233	-0.039
-511.814	4.168	-0.306	0.223
-510.799	556.537	-0.048	-0.114
-509.785	192.629	0.218	-0.328
-508.770	-163.552	0.088	-0.004
-507.756	-29.084	0.115	0.066
-506.741	-43.765	0.171	-0.086
-505.726	-33.018	0.207	0.114
-504.712	-159.591	-0.308	-0.017
-503.697	-22.997	0.083	0.050
-502.683	-200.000	-0.056	0.261
-501.668	207.330	0.141	-0.219
-500.653	-200.000	-0.001	0.048
-499.639	-200.000	0.010	0.194
-498.624	-119.836	-0.376	0.065
-497.610	213.666	-0.085	0.135
-496.595	-200.000	-0.034	-0.267
-495.581	-115.938	-0.317	-0.059
-494.566	-62.184	-0.234	0.097
-493.551	282.669	-0.065	0.117
-492.537	-200.000	0.046	-0.297
-491.522	158.151	0.228	-0.315
-490.508	186.899	0.104	-0.154
-489.493	-200.000	0.023	0.129
-488.478	-18.707	-0.139	-0.087
-487.464	-12.483	-0.150	-0.098
-486.449	83.487	-0.100	0.109
-485.435	-200.000	-0.002	-0.148
-484.420	-62.766	-0.245	-0.101
-483.405	147.271	0.061	-0.082
-482.391	123.460	0.118	-0.147
-481.376	66.007	0.250	-0.252
-480.362	608.746	0.045	0.113
-479.347	317.213	0.038	-0.071
-478.332	-118.620	-0.170	0.030
-477.318	-200.000	0.035	0.171
-476.303	-200.000	0.035	0.335
-475.289	-87.385	0.037	0.011
-474.274	-143.650	0.413	0.039
-473.259	-200.000	0.010	-0.133
-472.245	-200.000	0.029	-0.230
-471.230	-112.843	-0.086	-0.017
-470.216	-200.000	0.067	0.377
-469.201	-200.000	0.003	-0.173
-468.186	-94.894	-0.331	0.089
-467.172	190.301	-0.087	0.130
-466.157	202.136	-0.152	-0.234
-465.143	-71.240	0.044	0.016
-464.128	-23.378	0.075	0.045
-463.113	-110.521	0.281	-0.058
-462.099	800.000	-0.026	0.103
-461.084	-78.678	0.057	-0.019
-460.070	-130.432	-0.047	-0.006
-459.055	4.882	-0.134	-0.098
-458.040	-105.302	0.150	-0.034
-457.026	-131.253	-0.177	-0.023
-456.011	-200.000	0.040	0.189
-454.997	-148.334	-0.274	-0.022
-453.982	-151.906	0.367	-0.027
-452.968	-200.000	-0.009	-0.047
-451.953	-74.876	0.126	-0.045
-450.938	-161.574	-0.171	0.009
-449.924	161.143	-0.145	-0.202
-448.909	211.635	-0.157	0.246
-447.895	204.345	0.160	0.246
-446.880	48.587	-0.106	0.099
-445.865	-200.000	0.055	0.344
-444.851	-200.000	0.354	-0.001
-443.836	107.665	-0.043	-0.051
-442.822	22.224	-0.155	-0.126
-441.807	-37.765	0.143	0.076
-440.792	-88.707	0.125	0.037
-439.778	-77.813	0.139	0.048
-438.763	-62.295	0.076	0.031
-437.749	-83.099	0.076	0.024
-436.734	34.726	-0.242	0.211
-435.719	-169.713	0.120	0.004
-434.705	174.720	-0.114	0.165
-433.690	800.000	0.072	-0.309
-432.676	-141.618	-0.059	-0.006
-431.661	2.745	-0.053	-0.038
-430.646	-200.000	-0.071	0.332
-429.632	-5.808	0.021	0.014
-428.617	-121.449	0.219	0.036
-427.603	-66.838	0.111	0.043
-426.588	787.241	0.107	-0.291
-425.573	93.635	0.193	0.217
-424.559	-6.740	0.527	0.357
-423.544	-144.455	-0.216	-0.020
-422.530	-153.894	-0.122	0.008
-421.515	129.169	0.195	0.248
-420.500	-200.000	0.004	-0.093
-419.486	-200.000	0.073	-0.329
-418.471	-21.998	-0.320	-0.193
-417.457	155.096	0.077	0.105
-416.442	-62.615	0.270	0.111
-415.428	24.800	0.137	-0.113
-414.413	318.497	0.184	0.346
-413.398	95.416	0.051	-0.057
-412.384	173.444	0.151	0.216
-411.369	-93.787	0.208	-0.057
-410.355	739.257	0.046	0.122
-409.340	193.062	-0.024	0.036
-408.325	-46.947	-0.128	-0.062
-407.311	616.637	-0.115	0.287
-406.296	800.000	-0.111	-0.447
-405.282	-94.949	0.455	-0.122
-404.267	-30.041	-0.045	0.025
-403.252	-200.000	0.076	-0.371
-402.238	800.000	0.139	-0.442
-401.223	759.367	0.045	-0.122
-400.209	-110.514	-0.145	0.030
-399.194	800.000	-0.194	0.601
-398.179	46.899	0.318	0.294
-397.165	187.021	0.066	0.097
-396.150	281.794	0.122	-0.217
-395.136	-106.385	-0.245	0.054
-394.121	62.756	-0.239	-0.237
-393.106	-43.360	0.240	-0.121
-392.092	800.000	0.070	0.274
-391.077	515.480	0.038	0.088
-390.063	-46.446	-0.009	-0.004
-389.048	800.000	0.069	-0.240
-388.033	83.049	0.038	0.041
-387.019	386.863	-0.064	0.131
-386.004	108.323	-0.240	-0.285
-384.990	800.000	-0.040	-0.124
-383.975	-200.000	0.005	0.480
-382.960	-20.264	0.229	-0.140
-381.946	166.092	0.043	-0.061
-380.931	-23.664	-0.192	0.114
-379.917	191.115	-0.131	0.196
-378.902	271.462	0.159	0.278
-377.888	127.608	0.156	0.196
-376.873	-87.074	-0.135	-0.041
-375.858	298.392	0.200	-0.365
-374.844	-135.964	-0.198	0.023
-373.829	-94.697	0.092	0.025
-372.815	48.614	0.099	-0.092
-371.800	84.383	0.085	-0.092
-370.785	-90.264	-0.079	0.023
-369.771	-16.202	-0.284	0.179
-368.756	207.116	-0.090	0.140
-367.742	800.000	0.026	-0.110
-366.727	-57.717	0.274	-0.119
-365.712	-8.316	-0.399	0.266
-364.698	112.075	0.208	-0.249
-363.683	42.978	-0.087	-0.079
-362.669	54.980	-0.227	0.218
-361.654	-57.724	-0.173	-0.075
-360.639	-200.000	0.084	-0.454
-359.625	11.462	0.208	-0.158
-358.610	-200.000	-0.039	0.230
-357.596	140.631	0.192	0.252
-356.581	-132.743	0.248	-0.031
-355.566	800.000	-0.056	0.190
-354.552	-137.110	0.115	0.013
-353.537	-200.000	0.001	0.180
-352.523	180.940	-0.205	-0.299
-351.508	449.907	-0.205	-0.448
-350.493	17.004	-0.249	0.196
-349.479	-52.915	0.300	-0.137
-348.464	22.467	0.125	-0.101
-347.450	-200.000	-0.205	0.001
-346.435	-83.723	0.219	-0.069
-345.420	-92.911	0.088	-0.024
-344.406	376.224	0.180	-0.364
-343.391	-10.809	-0.342	-0.224
-342.377	-61.376	0.086	-0.036
-341.362	-26.311	-0.191	-0.111
-340.348	523.462	0.098	-0.229
-339.333	25.827	0.148	-0.122
-338.318	48.189	0.122	0.113
-337.304	35.991	0.153	0.133
-336.289	-99.603	0.148	-0.037
-335.275	-200.000	-0.020	-0.348
-334.260	-119.556	-0.270	-0.046
-333.245	358.410	-0.134	0.266
-332.231	31.304	-0.104	0.089
-331.216	-69.047	-0.189	-0.072
-330.202	-200.000	0.051	-0.309
-329.187	165.418	0.118	0.165
-328.172	649.028	0.080	0.203
-327.158	418.553	0.091	0.193
-326.143	800.000	-0.097	0.332
-325.129	87.648	-0.128	0.141
-324.114	-200.000	-0.008	0.279
-323.099	-136.093	-0.180	-0.021
-322.085	38.898	-0.044	0.039
-321.070	10.059	0.156	-0.117
-320.056	800.000	0.145	0.426
-319.041	-200.000	0.051	0.303
-318.026	-140.465	0.260	-0.027
-317.012	690.698	0.058	-0.151
-315.997	-150.315	-0.167	-0.013
-314.983	-200.000	-0.042	0.194
-313.968	-200.000	0.021	-0.124
-312.953	-142.782	0.146	0.014
-311.939	8.478	-0.075	-0.056
-310.924	-200.000	-0.038	-0.230
-309.910	-145.181	-0.144	-0.013
-308.895	-200.000	0.017	0.122
-307.880	-200.000	0.010	-0.139
-306.866	185.808	-0.089	0.131
-305.851	-180.747	-0.301	-0.006
-304.837	-24.024	0.288	0.170
-303.822	-63.003	-0.344	-0.141
-302.807	-25.014	-0.391	-0.229
-301.793	-83.186	-0.082	-0.026
-300.778	-0.812	-0.215	-0.151
-299.764	82.339	-0.068	-0.073
-298.749	800.000	0.028	-0.082
-297.735	-200.000	-0.011	0.189
-296.720	478.744	0.068	0.153
-295.705	302.397	0.170	0.311
-294.691	800.000	0.074	0.220
-293.676	403.797	0.061	0.127
-292.662	-113.797	-0.254	-0.049
-291.647	-112.927	0.016	-0.003
-290.632	-119.539	-0.184	-0.032
-289.618	-13.654	-0.171	0.109
-288.603	0.487	0.261	0.184
-287.589	-200.000	0.003	-0.098
-286.574	-148.913	-0.160	0.013
-285.559	222.553	0.019	-0.030
-284.545	-76.380	0.087	0.030
-283.530	106.415	-0.082	-0.096
-282.516	-200.000	0.019	-0.276
-281.501	-25.296	-0.126	0.074
-280.486	-31.740	0.175	0.097
-279.472	-74.124	0.225	0.081
-278.457	49.185	0.257	-0.239
-277.443	531.176	-0.231	-0.539
-276.428	55.353	-0.163	0.156
-275.413	-200.000	-0.008	-0.217
-274.399	219.189	-0.148	0.234
-273.384	800.000	0.010	0.031
-272.370	245.318	-0.087	-0.145
-271.355	-31.479	0.207	0.115
-270.340	800.000	-0.088	0.363
-269.326	62.238	-0.064	0.063
-268.311	-200.000	-0.020	-0.160
-267.297	12.442	0.175	-0.133
-266.282	-200.000	0.015	0.115
-265.267	760.371	-0.073	0.197
-264.253	-78.788	0.091	0.031
-263.238	-200.000	-0.015	-0.102
-262.224	-72.012	-0.477	-0.175
-261.209	800.000	-0.078	0.212
-260.195	-200.000	0.068	-0.314
-259.180	-91.341	0.137	0.039
-258.165	-56.988	0.252	0.110
-257.151	-151.141	-0.116	-0.009
-256.136	77.665	0.166	-0.174
-255.122	-112.711	0.169	-0.033
-254.107	116.619	-0.093	0.113
-253.092	800.000	-0.049	0.186
-252.078	-179.784	0.237	0.005
-251.063	213.855	0.168	-0.262
-250.049	800.000	-0.115	0.325
-249.034	-200.000	0.013	0.292
-248.019	77.747	0.134	-0.141
-247.005	-52.259	-0.222	-0.102
-245.990	800.000	-0.050	0.139
-244.976	-200.000	-0.028	-0.203
-243.961	-73.256	-0.109	0.039
-242.946	-47.669	0.045	-0.022
-241.932	324.778	0.102	0.193
-240.917	-51.396	0.100	-0.046
-239.903	800.000	0.053	0.198
-238.888	-26.985	-0.074	0.043
-237.873	34.518	0.123	0.106
-236.859	72.389	0.038	-0.039
-235.844	-200.000	0.022	-0.255
-234.830	97.313	0.086	0.097
-233.815	-81.850	0.188	-0.061
-232.800	800.000	-0.034	0.125
-231.786	-165.801	0.276	0.012
-230.771	-200.000	0.020	0.253
-229.757	-53.564	-0.174	0.078
-228.742	-52.135	-0.202	0.092
-227.727	-200.000	0.015	0.205
-226.713	-36.613	0.336	-0.178
-225.698	529.660	0.155	-0.361
-224.684	800.000	-0.054	-0.178
-223.669	-180.895	-0.149	0.003
-222.655	-200.000	0.080	-0.354
-221.640	-200.000	0.050	0.367
-220.625	140.404	-0.185	0.241
-219.611	180.664	0.106	-0.154
-218.596	-113.758	0.258	0.050
-217.582	155.413	-0.016	-0.022
-216.567	121.508	0.066	0.081
-215.552	-105.474	-0.083	0.019
-214.538	379.140	0.118	0.238
-213.523	800.000	0.041	-0.175
-212.509	274.554	0.244	-0.425
-211.494	-5.352	-0.281	-0.190
-210.479	-200.000	-0.005	-0.287
-209.465	645.000	0.149	-0.376
-208.450	-157.972	0.010	0.001
-207.436	-126.557	0.116	-0.017
-206.421	-156.358	-0.122	-0.008
-205.406	263.946	0.031	0.053
-204.392	102.056	-0.028	-0.032
-203.377	58.093	0.104	0.101
-202.363	-82.811	-0.016	0.005
-201.348	-111.982	-0.139	-0.028
-200.333	35.740	0.153	0.133
-199.319	33.229	-0.116	-0.099
-198.304	-88.044	0.219	0.065
-197.290	-66.700	-0.293	0.114
-196.275	89.214	0.147	0.161
-195.260	568.491	0.109	-0.260
-194.246	-25.766	-0.207	-0.120
-193.231	623.298	-0.050	-0.123
-192.217	-200.000	-0.013	0.180
-191.202	29.449	0.115	-0.096
-190.187	706.410	0.051	-0.131
-189.173	-120.767	-0.311	-0.052
-188.158	57.834	0.055	0.053
-187.144	101.167	-0.017	0.019
-186.129	-200.000	-0.072	-0.507
-185.114	-171.960	0.111	0.004
-184.100	-71.995	-0.387	0.142
-183.085	133.529	0.291	-0.370
-182.071	84.705	-0.218	-0.235
-181.056	-70.743	0.144	-0.054
-180.042	171.995	0.075	-0.106
-179.027	559.611	0.184	0.437
-178.012	-175.859	0.242	-0.006
-176.998	123.664	0.161	0.199
-175.983	-200.000	-0.063	-0.274
-174.969	-18.863	0.083	0.051
-173.954	75.295	-0.077	0.080
-172.939	598.078	0.081	-0.198
-171.925	-172.286	0.075	-0.002
-170.910	-200.000	-0.024	-0.236
-169.896	267.199	0.019	0.032
-168.881	293.898	-0.059	-0.106
-167.866	619.296	-0.041	0.101
-166.852	-145.496	0.237	-0.021
-165.837	-101.360	-0.173	0.041
-164.823	-169.233	0.139	0.005
-163.808	91.328	0.207	0.229
-162.793	800.000	-0.069	0.247
-161.779	800.000	0.027	0.087
-160.764	-200.000	0.032	-0.148
-159.750	145.930	0.102	0.134
-158.735	-200.000	-0.000	0.108
-157.720	170.089	-0.012	0.016
-156.706	12.330	-0.218	-0.165
-155.691	59.303	-0.120	-0.116
-154.677	336.345	-0.060	0.115
-153.662	-200.000	-0.020	0.100
-152.647	-200.000	-0.010	-0.118
-151.633	-144.911	0.251	0.023
-150.618	111.342	0.092	-0.109
-149.604	57.935	-0.140	-0.134
-148.589	-17.518	0.135	0.083
-147.574	429.682	-0.078	-0.166
-146.560	800.000	-0.020	0.081
-145.545	461.406	0.061	0.133
-144.531	93.351	0.039	-0.043
-143.516	-200.000	0.001	0.089
-142.502	-18.799	0.250	0.153
-141.487	207.794	0.251	0.386
-140.472	-18.726	0.128	-0.078
-139.458	-135.743	0.224	0.026
-138.443	800.000	-0.059	0.184
-137.429	-58.557	-0.049	0.021
-136.414	385.456	-0.049	0.099
-135.399	-92.525	0.199	-0.055
-134.385	510.081	0.037	0.085
-133.370	407.305	-0.036	-0.074
-132.356	721.691	0.036	-0.093
-131.341	800.000	0.046	-0.127
-130.326	-20.417	-0.050	0.030
-129.312	-200.000	-0.050	-0.420
-128.297	-126.424	0.209	-0.031
-127.283	-98.178	-0.270	0.068
-126.268	-10.511	-0.059	-0.038
-125.253	-114.915	-0.304	0.057
-124.239	-200.000	0.039	-0.259
-123.224	-158.755	-0.327	-0.018
-122.210	800.000	-0.077	-0.226
-121.195	-200.000	-0.001	0.134
-120.180	499.439	0.056	-0.127
-119.166	-91.416	-0.093	0.026
-118.151	800.000	0.020	0.066
-117.137	-43.176	0.110	-0.055
-116.122	800.000	-0.047	-0.146
-115.107	53.993	-0.043	-0.041
-114.093	116.922	-0.221	-0.266
-113.078	-133.195	0.271	0.034
-112.064	-122.061	0.200	-0.032
-111.049	-200.000	-0.030	0.264
-110.034	201.410	0.124	-0.187
-109.020	420.184	-0.035	0.075
-108.005	492.901	-0.095	0.213
-106.991	-25.494	-0.064	0.037
-105.976	269.690	0.210	-0.362
-104.962	-200.000	-0.023	0.116
-103.947	-128.679	-0.367	-0.051
-102.932	-200.000	0.044	0.235
-101.918	24.660	0.114	-0.093
-100.903	-200.000	0.027	0.245
-99.889	-31.304	-0.119	0.066
-98.874	76.134	-0.146	0.151
-97.859	-123.936	0.124	0.019
-96.845	-150.136	-0.055	0.004
-95.830	21.607	-0.154	-0.123
-94.816	31.698	-0.237	-0.200
-93.801	442.463	-0.157	-0.338
-92.786	-200.000	-0.010	0.044
-91.772	686.540	-0.083	0.212
-90.757	30.205	-0.100	-0.083
-89.743	800.000	0.074	0.280
-88.728	-195.666	-0.065	0.000
-87.713	-200.000	0.013	0.119
-86.699	-24.262	-0.222	0.130
-85.684	334.376	-0.128	0.242
-84.670	184.356	0.153	0.222
-83.655	-68.172	-0.155	-0.059
-82.640	800.000	-0.067	-0.203
-81.626	296.288	0.096	-0.172
-80.611	431.403	-0.147	0.313
-79.597	-43.526	-0.185	-0.091
-78.582	800.000	0.070	-0.241
-77.567	160.665	-0.070	-0.096
-76.553	-7.181	0.261	0.173
-75.538	800.000	-0.081	0.340
-74.524	800.000	0.036	0.114
-73.509	-173.929	-0.200	0.006
-72.494	-133.089	0.320	0.040
-71.480	38.384	0.171	-0.150
-70.465	192.223	-0.075	0.111
-69.451	598.908	0.188	0.456
-68.436	595.798	0.043	-0.104
-67.422	92.499	0.127	-0.141
-66.407	36.818	-0.232	0.201
-65.392	-115.029	0.233	-0.043
-64.378	590.420	0.085	-0.205
-63.363	30.241	-0.231	0.193
-62.349	749.364	-0.189	0.500
-61.334	191.230	-0.768	-1.132
-60.319	-168.167	0.550	-0.021
-59.305	-200.000	-0.082	-1.062
-58.290	-200.000	0.333	1.508
-57.276	565.313	0.656	1.558
-56.261	-200.000	111.596	615.149
-55.246	503.456	1531.488	3469.745
-54.232	174.835	2709.608	3841.628
-53.217	107.018	2190.641	2548.875
-52.203	38.385	1713.914	1495.771
-51.188	30.962	1530.893	1285.049
-50.173	28.703	1505.791	1248.586
-49.159	50.392	1564.217	1448.080
-48.144	49.949	1579.852	1459.428
-47.130	31.160	1535.074	1289.720
-46.115	28.116	1520.497	1256.548
-45.100	27.845	1517.481	1252.145
-44.086	27.794	1515.017	1249.714
-43.071	27.816	1512.772	1247.960
-42.057	27.787	1511.510	1246.673
-41.042	27.807	1510.309	1245.774
-40.027	27.726	1508.682	1243.827
-39.013	27.779	1507.115	1242.848
-37.998	27.755	1505.400	1241.220
-36.984	27.771	1504.533	1240.568
-35.969	27.804	1503.438	1239.837
-34.954	27.748	1501.585	1237.881
-33.940	27.747	1500.524	1236.947
-32.925	27.746	1499.219	1235.816
-31.911	27.836	1497.392	1234.874
-30.896	27.874	1496.474	1234.319
-29.881	27.839	1495.451	1233.191
-28.867	27.861	1493.954	1232.060
-27.852	27.855	1492.591	1230.846
-26.838	27.895	1491.410	1230.088
-25.823	27.852	1489.606	1228.266
-24.809	27.745	1488.435	1226.535
-23.794	27.807	1486.721	1225.486
-22.779	27.735	1486.097	1224.439
-21.765	27.809	1485.143	1224.105
-20.750	27.873	1483.789	1223.368
-19.736	27.755	1482.677	1221.609
-18.721	27.781	1481.426	1220.702
-17.706	27.841	1479.928	1219.823
-16.692	27.738	1479.280	1218.555
-15.677	27.767	1478.379	1217.954
-14.663	27.731	1477.285	1216.769
-13.648	27.792	1475.428	1215.593
-12.633	27.791	1475.342	1215.468
-11.619	27.784	1474.342	1214.549
-10.604	27.787	1473.404	1213.747
-9.590	27.712	1472.368	1212.347
-8.575	27.683	1472.022	1211.823
-7.560	27.861	1470.918	1212.050
-6.546	27.698	1470.387	1210.482
-5.531	27.742	1469.060	1209.635
-4.517	27.744	1468.443	1209.094
-3.502	27.717	1467.311	1207.931
-2.487	27.748	1466.160	1207.140
-1.473	27.751	1465.130	1206.263
-0.458	27.816	1463.886	1205.621
0.556	29.731	1454.590	1195.909
1.571	27.050	1429.704	1158.275
2.586	23.783	1369.363	1089.302
3.600	22.163	1285.298	1013.009
4.615	20.733	1238.951	968.444
5.629	17.822	1182.128	908.466
6.644	10.721	1098.592	808.941
7.659	5.192	1061.266	754.721
8.673	4.481	1055.656	747.242
9.688	4.234	1052.564	743.802
10.702	4.178	1050.379	741.927
11.717	4.268	1048.809	741.182
12.731	6.851	1050.827	754.896
13.746	14.416	1061.035	798.538
14.761	20.528	1068.878	833.782
15.775	22.106	1070.354	842.433
16.790	21.859	1068.768	839.926
17.804	20.834	1066.947	833.515
18.819	19.897	1065.219	827.617
19.834	19.674	1063.871	825.429
20.848	19.390	1063.061	823.372
21.863	19.231	1062.769	822.314
22.877	19.208	1061.593	821.222
23.892	19.082	1060.880	819.999
24.907	18.903	1060.156	818.514
25.921	18.967	1059.205	818.011
26.936	18.856	1058.882	817.162
27.950	18.832	1057.584	815.974
28.965	18.893	1056.411	815.288
29.980	19.067	1055.139	815.055
30.994	19.151	1054.659	815.009
32.009	19.304	1054.009	815.161
33.023	19.303	1052.971	814.282
34.038	19.279	1052.286	813.564
35.053	19.212	1051.434	812.520
36.067	19.075	1050.346	810.960
37.082	18.937	1049.440	809.540
38.096	19.008	1048.967	809.438
39.111	19.167	1048.319	809.610
40.126	19.337	1047.132	809.424
41.140	19.098	1046.098	807.433
42.155	18.824	1045.086	805.295
43.169	18.599	1044.096	803.405
44.184	18.400	1042.854	801.449
45.199	18.406	1041.890	800.667
46.213	18.631	1040.998	800.961
47.228	18.748	1039.841	800.543
48.242	18.838	1038.883	800.154
49.257	19.090	1038.983	801.334
50.271	19.015	1037.453	799.733
51.286	19.028	1036.320	798.853
52.301	19.143	1036.180	799.206
53.315	19.068	1035.766	798.467
54.330	19.042	1034.252	797.110
55.344	18.958	1033.259	795.885
56.359	18.751	1032.308	794.123
57.374	18.712	1031.655	793.375
58.388	18.747	1030.899	792.885
59.403	18.563	1030.250	791.466
60.417	18.413	1029.127	789.841
61.432	18.553	1028.194	789.700
62.447	18.529	1027.418	788.922
63.461	18.491	1026.764	788.177
64.476	18.395	1025.606	786.774
65.490	18.355	1024.883	785.970
66.505	18.244	1024.017	784.724
67.520	18.420	1023.532	785.091
68.534	18.493	1022.140	784.289
69.549	18.440	1022.254	784.063
70.563	18.340	1020.844	782.455
71.578	18.401	1020.252	782.209
72.593	18.241	1019.220	780.620
73.607	18.027	1018.735	779.204
74.622	18.174	1016.926	778.422
75.636	18.094	1016.000	777.279
76.651	18.162	1015.512	777.148
77.666	18.279	1014.762	777.034
78.680	18.251	1014.312	776.494
79.695	18.268	1013.820	776.128
80.709	18.294	1013.248	775.737
81.724	18.440	1012.552	775.798
82.739	18.547	1011.977	775.773
83.753	18.706	1010.849	775.557
84.768	18.922	1010.204	775.969
85.782	19.103	1009.880	776.469
86.797	19.223	1009.430	776.594
87.812	19.368	1008.116	776.167
88.826	19.126	1007.497	774.532
89.841	19.168	1006.523	773.906
90.855	19.225	1005.873	773.594
91.870	19.280	1005.399	773.409
92.884	19.343	1004.336	772.803
93.899	19.347	1004.090	772.561
94.914	19.214	1003.020	771.078
95.928	19.438	1002.062	771.272
96.943	19.404	1001.324	770.485
97.957	19.354	999.999	769.172
98.972	19.007	999.502	767.177
99.987	19.184	998.670	767.258
101.001	19.200	998.110	766.832
102.016	19.323	997.123	766.554
103.030	19.205	996.358	765.372
104.045	19.234	995.339	764.650
105.060	19.299	994.636	764.333
106.074	19.100	993.407	762.438
107.089	18.802	992.249	760.163
108.103	18.606	991.302	758.504
109.118	18.460	990.183	756.937
110.133	18.461	989.045	756.002
111.147	18.419	988.342	755.215
112.162	18.363	987.043	753.910
113.176	18.400	986.551	753.630
114.191	18.578	985.632	753.643
115.206	18.634	984.980	753.320
116.220	18.699	984.136	752.897
117.235	18.540	983.291	751.487
118.249	18.584	982.508	751.014
119.264	18.505	981.261	749.648
120.279	18.456	980.551	748.826
121.293	18.288	979.847	747.487
122.308	18.253	979.235	746.800
123.322	18.199	978.260	745.759
124.337	18.091	977.207	744.418
125.352	18.176	976.055	743.842
126.366	18.087	974.947	742.547
127.381	18.148	973.928	741.971
128.395	18.180	972.718	741.121
129.410	18.178	972.235	740.680
130.424	18.139	971.453	739.848
131.439	18.284	971.097	740.141
132.454	18.506	970.029	740.217
133.468	18.511	969.268	739.593
134.483	18.570	968.805	739.432
135.497	18.582	967.985	738.790
136.512	18.570	967.467	738.278
137.527	18.765	965.959	737.902
138.541	18.557	965.615	736.678
139.556	18.639	965.002	736.499
140.570	18.612	964.378	735.838
141.585	18.789	963.537	735.892
142.600	19.020	962.978	736.387
143.614	19.054	962.488	736.095
144.629	19.225	961.720	736.173
145.643	19.106	961.114	735.137
146.658	19.248	960.248	735.016
147.673	19.095	958.834	733.217
148.687	18.720	958.453	731.263
149.702	18.691	956.912	729.900
150.716	18.645	956.111	729.026
151.731	18.586	955.288	728.084
152.746	18.701	954.348	727.791
153.760	18.692	953.739	727.223
154.775	18.716	953.032	726.724
155.789	18.790	952.593	726.637
156.804	19.009	951.316	726.523
157.819	19.034	950.877	726.228
158.833	19.077	950.384	725.970
159.848	19.039	949.820	725.314
160.862	19.220	949.282	725.604
161.877	19.327	948.159	725.128
162.892	18.989	947.008	722.766
163.906	18.580	946.308	720.449
164.921	18.620	945.216	719.722
165.935	18.518	944.463	718.657
166.950	18.860	942.976	718.896
167.964	18.762	942.605	718.137
168.979	18.865	941.364	717.560
169.994	18.686	940.974	716.451
171.008	18.622	939.973	715.357
172.023	18.707	939.149	715.024
173.037	19.003	938.478	715.680
174.052	19.260	937.459	715.906
175.067	19.182	936.799	715.014
176.081	18.826	935.820	712.729
177.096	18.552	934.766	710.726
178.110	18.632	934.082	710.475
179.125	18.721	933.211	710.119
180.140	18.739	932.736	709.767
181.154	18.728	931.939	709.054
182.169	18.860	931.445	709.161
183.183	19.058	931.269	709.778
184.198	19.172	930.255	709.412
185.213	19.217	929.265	708.782
186.227	19.123	929.082	708.191
187.242	19.174	928.282	707.729
188.256	19.211	927.987	707.593
189.271	19.324	927.465	707.599
190.286	19.458	926.758	707.544
191.300	19.251	925.540	705.706
192.315	18.698	924.773	702.794
193.329	18.477	923.841	701.118
194.344	18.475	923.047	700.446
195.359	18.746	922.517	701.088
196.373	18.914	922.104	701.399
197.388	18.918	921.933	701.222
198.402	19.124	921.613	701.757
199.417	19.404	921.208	702.526
200.432	19.531	920.999	702.822
201.446	19.588	920.607	702.693
202.461	19.643	920.222	702.562
203.475	19.947	919.366	703.079
204.490	19.699	918.593	701.422
205.504	19.518	917.228	699.584
206.519	19.433	916.465	698.595
207.534	19.347	915.741	697.632
208.548	19.195	915.280	696.606
209.563	19.228	914.239	695.887
210.577	19.213	914.079	695.642
211.592	19.333	913.507	695.629
212.607	19.570	913.143	696.247
213.621	19.640	912.574	696.033
214.636	19.626	911.622	695.189
215.650	19.485	911.401	694.391
216.665	19.410	910.623	693.434
217.680	19.575	910.233	693.739
218.694	19.729	909.700	693.892
219.709	19.692	909.092	693.217
220.723	19.563	908.760	692.384
221.738	19.614	907.863	691.846
222.753	19.569	907.202	691.099
223.767	19.544	906.274	690.232
224.782	19.537	905.938	689.886
225.796	19.749	904.882	689.867
226.811	19.971	904.503	690.403
227.826	19.815	903.661	689.079
228.840	19.708	902.530	687.728
229.855	19.469	902.212	686.473
230.869	19.633	901.498	686.522
231.884	19.486	900.756	685.313
232.899	19.502	899.921	684.680
233.913	19.524	899.141	684.115
234.928	19.153	898.886	682.389
235.942	19.255	897.963	682.033
236.957	19.360	896.935	681.606
237.972	19.315	896.277	680.869
238.986	19.221	895.665	679.970
240.001	19.258	895.067	679.604
241.015	19.355	894.432	679.445
242.030	19.316	893.774	678.732
243.045	19.537	893.392	679.249
244.059	19.524	893.146	678.952
245.074	19.593	892.391	678.589
246.088	19.573	891.846	678.034
247.103	19.709	891.215	678.030
248.117	19.870	890.363	677.951
249.132	20.053	890.239	678.516
250.147	20.259	890.009	679.085
251.161	20.445	889.767	679.567
252.176	20.506	888.934	679.112
253.190	20.643	888.286	679.090
254.205	20.541	888.357	678.685
255.220	20.682	886.971	678.115
256.234	20.581	886.337	677.178
257.249	20.519	885.520	676.254
258.263	20.596	885.488	676.468
259.278	20.624	884.802	675.994
260.293	20.408	884.217	674.646
261.307	20.490	883.958	674.710
262.322	20.665	882.857	674.487
263.336	20.630	882.351	673.905
264.351	20.733	881.789	673.814
265.366	20.853	881.083	673.678
266.380	20.774	880.646	672.981
267.395	20.720	879.623	671.932
268.409	20.700	879.197	671.468
269.424	20.642	877.783	670.106
270.439	20.576	877.589	669.644
271.453	20.562	876.854	668.971
272.468	20.404	875.954	667.619
273.482	20.312	875.189	666.623
274.497	20.323	874.951	666.425
275.512	20.348	874.187	665.880
276.526	20.421	873.108	665.280
277.541	20.367	872.592	664.621
278.555	20.394	872.508	664.601
279.570	20.359	872.446	664.361
280.585	20.695	871.514	664.876
281.599	20.890	870.526	664.808
282.614	20.539	870.441	663.345
283.628	20.360	869.309	661.740
284.643	20.384	868.839	661.416
285.657	20.541	868.636	661.799
286.672	20.662	867.736	661.514
287.687	20.491	867.285	660.463
288.701	20.598	867.147	660.706
289.716	20.537	866.182	659.684
290.730	20.505	865.973	659.342
291.745	20.467	865.123	658.495
292.760	20.647	864.318	658.505
293.774	20.805	863.745	658.607
294.789	20.823	863.435	658.378
295.803	21.086	862.660	658.723
296.818	20.841	861.718	657.021
297.833	20.499	861.707	655.665
298.847	20.600	860.742	655.253
299.862	20.490	860.277	654.426
300.876	20.736	859.460	654.675
301.891	20.737	859.102	654.347
302.906	20.936	858.529	654.600
303.920	21.063	857.901	654.541
304.935	21.012	857.401	653.909
305.949	21.275	857.011	654.540
306.964	21.107	856.478	653.445
307.979	21.005	855.404	652.188
308.993	21.178	854.549	652.124
310.008	21.145	854.088	651.590
311.022	21.265	854.029	651.936
312.037	21.152	853.406	650.979
313.052	20.986	852.558	649.659
314.066	20.682	852.158	648.162
315.081	20.534	851.613	647.142
316.095	20.612	851.048	646.945
317.110	20.695	850.305	646.630
318.125	20.627	849.330	645.579
319.139	20.594	849.140	645.256
320.154	20.633	848.508	644.864
321.168	20.573	848.290	644.418
322.183	20.649	847.751	644.234
323.197	20.661	847.122	643.743
324.212	20.795	846.492	643.703
325.227	20.849	845.702	643.243
326.241	20.850	845.399	642.959
327.256	20.755	844.585	641.933
328.270	20.739	844.033	641.398
329.285	20.689	843.656	640.870
330.300	20.647	843.108	640.245
331.314	20.839	842.217	640.215
332.329	20.673	841.773	639.212
333.343	21.016	841.456	640.173
334.358	20.919	841.276	639.624
335.373	21.050	840.531	639.480
336.387	21.134	840.012	639.337
337.402	21.168	839.281	638.850
338.416	21.177	838.811	638.468
339.431	21.299	838.615	638.710
340.446	21.478	837.946	638.798
341.460	21.495	837.617	638.551
342.475	21.639	837.188	638.693
343.489	21.631	836.718	638.246
344.504	21.584	836.122	637.566
345.519	21.805	835.763	638.042
346.533	21.964	835.018	637.992
347.548	21.730	834.592	636.762
348.562	21.544	833.804	635.428
349.577	21.267	833.225	633.924
350.592	21.228	832.130	632.896
351.606	21.199	831.639	632.362
352.621	21.058	831.282	631.521
353.635	21.048	831.082	631.279
354.650	21.290	830.268	631.478
355.665	21.262	830.285	631.334
356.679	21.327	829.792	631.140
357.694	21.429	829.225	631.020
358.708	21.553	828.450	630.820
359.723	21.443	828.027	630.047
360.738	21.391	827.608	629.486
361.752	21.529	826.883	629.373
362.767	21.419	826.767	628.834
363.781	21.662	826.129	629.169
364.796	21.743	825.950	629.264
365.810	21.913	825.933	629.807
366.825	22.023	825.552	629.857
367.840	22.072	825.207	629.711
368.854	22.072	824.870	629.399
369.869	21.867	824.311	628.183
370.883	21.834	823.517	627.406
371.898	21.648	823.204	626.446
372.913	21.963	822.165	626.723
373.927	21.854	821.534	625.799
374.942	21.868	821.153	625.505
375.956	21.923	820.057	624.810
376.971	21.932	819.541	624.392
377.986	22.098	819.437	624.850
379.000	22.272	818.554	624.740
380.015	22.267	818.486	624.614
381.029	22.260	818.077	624.221
382.044	22.158	817.336	623.239
383.059	22.227	816.645	622.900
384.073	22.350	816.105	622.870
385.088	22.212	815.448	621.825
386.102	21.877	814.891	620.160
387.117	21.835	813.997	619.277
388.132	21.744	813.661	618.646
389.146	21.610	813.407	617.925
390.161	21.857	813.077	618.490
391.175	21.971	813.092	618.850
392.190	22.106	812.593	618.891
393.205	22.091	811.696	618.101
394.219	21.941	810.869	616.887
395.234	21.916	810.563	616.512
396.248	21.815	810.017	615.688
397.263	21.627	809.224	614.370
398.278	21.599	808.786	613.887
399.292	21.610	808.342	613.534
400.307	21.478	808.112	612.843
401.321	21.585	807.920	613.019
402.336	21.590	807.339	612.539
403.350	21.769	807.014	612.865
404.365	21.981	806.506	613.167
405.380	22.032	806.121	612.997
406.394	22.319	805.621	613.563
407.409	22.346	805.367	613.409
408.423	22.349	804.926	613.029
409.438	22.355	804.746	612.860
410.453	22.407	804.100	612.493
411.467	22.479	804.109	612.699
412.482	22.554	803.425	612.384
413.496	22.589	802.878	612.035
414.511	22.597	802.759	611.916
415.526	22.805	801.981	611.992
416.540	22.723	801.527	611.304
417.555	22.543	801.366	610.506
418.569	22.597	800.602	610.057
419.584	22.617	800.014	609.623
420.599	22.623	799.657	609.317
421.613	164.026	1369.921	1795.832
422.628	142.526	1452.991	1795.966
