DTS Sentinel unit serial number:	SN413079Multiplexer serial number:	ORYXHardware model number:	OX4-SRSoftware version number:	ORYX F/W v4.00 Oryx Data Collector v3.7.2.0data status	okinstallation	princeton_trtdifferential loss correction	single-endedforward channel	channel 3reverse channel	N/Adate	2019/09/13time	18:12:35forward acquisition time	60.00reverse acquisition time	0.00gamma	496.2192k internal	0.2311k external	0.2311temperature offset calibration	1.0115default loss term (dB/km)	0.3790temperature slope calibration	1.0000multiplexer offset coefficient	1.0000multiplexer slope coefficient	1.0000fibre end	0.00T internal ref (°C)	34.34T ext. ref 1 (°C)	4.50T ext. ref 2 (°C)	27.21length (m)	temperature (°C)	Stokes	anti-Stokes-747.200	76.377	0.190	-0.204
-746.185	716.187	0.041	0.111
-745.171	-198.932	0.201	-0.001
-744.156	142.682	0.078	0.106
-743.142	-116.262	0.224	-0.042
-742.127	593.118	-0.069	-0.174
-741.112	-37.144	-0.270	-0.147
-740.098	-200.000	0.024	0.253
-739.083	72.508	0.071	-0.075
-738.069	152.803	-0.316	0.438
-737.054	800.000	0.081	-0.334
-736.039	-95.012	-0.134	0.037
-735.025	-85.614	0.413	0.130
-734.010	-6.218	-0.210	0.146
-732.996	800.000	0.037	0.158
-731.981	-98.958	-0.283	-0.073
-730.966	800.000	-0.035	0.107
-729.952	-24.493	-0.181	0.109
-728.937	155.320	-0.079	-0.111
-727.923	25.570	0.065	0.055
-726.908	-44.083	0.105	-0.053
-725.894	-20.974	0.224	-0.139
-724.879	253.844	-0.040	0.069
-723.864	49.424	-0.050	-0.048
-722.850	-53.083	0.191	0.089
-721.835	-142.366	0.125	0.013
-720.821	543.860	0.072	-0.174
-719.806	-152.728	-0.135	0.010
-718.791	-42.582	0.077	0.040
-717.777	-22.396	0.120	-0.073
-716.762	-200.000	-0.006	0.087
-715.748	-44.346	-0.123	-0.063
-714.733	110.377	-0.022	-0.027
-713.718	-200.000	-0.009	0.058
-712.704	132.576	-0.179	-0.235
-711.689	-18.131	0.088	0.056
-710.675	-174.848	-0.211	0.006
-709.660	38.017	-0.171	0.154
-708.645	-47.387	-0.288	-0.142
-707.631	51.917	-0.198	-0.191
-706.616	-89.578	0.109	-0.033
-705.602	-127.233	0.084	-0.012
-704.587	-119.480	-0.284	0.050
-703.572	-51.275	0.204	-0.097
-702.558	594.878	-0.053	-0.133
-701.543	-103.194	-0.050	0.012
-700.529	-90.403	-0.031	-0.009
-699.514	-200.000	0.020	-0.175
-698.499	-19.850	-0.167	0.105
-697.485	-117.207	-0.157	-0.029
-696.470	218.408	-0.215	-0.348
-695.456	-200.000	0.034	0.251
-694.441	-38.699	0.099	-0.053
-693.426	-30.749	-0.186	-0.107
-692.412	-35.489	0.151	-0.083
-691.397	800.000	-0.118	-0.355
-690.383	-200.000	0.022	-0.306
-689.368	-93.201	-0.108	0.030
-688.354	-31.080	0.310	-0.177
-687.339	800.000	0.030	0.086
-686.324	-116.163	-0.209	-0.039
-685.310	-103.041	0.026	-0.006
-684.295	-74.316	-0.134	-0.049
-683.281	-76.423	-0.119	-0.042
-682.266	-200.000	0.034	0.243
-681.251	-121.461	-0.442	0.074
-680.237	-14.841	-0.142	0.093
-679.222	433.412	0.031	0.069
-678.208	-168.514	-0.228	0.009
-677.193	272.777	-0.163	-0.292
-676.178	800.000	-0.084	-0.235
-675.164	-178.514	-0.357	0.008
-674.149	-69.835	-0.147	0.057
-673.135	95.604	-0.235	-0.272
-672.120	-200.000	0.009	-0.274
-671.105	-144.199	-0.198	0.019
-670.091	-170.620	-0.290	-0.010
-669.076	-77.070	-0.074	0.026
-668.062	123.531	0.056	0.071
-667.047	800.000	-0.070	0.247
-666.032	383.957	-0.130	-0.271
-665.018	601.685	0.079	0.199
-664.003	-155.968	-0.246	-0.016
-662.989	-186.442	-0.137	0.002
-661.974	-200.000	0.028	-0.223
-660.959	-86.154	-0.242	0.075
-659.945	591.672	-0.100	-0.251
-658.930	231.454	-0.084	0.139
-657.916	224.134	-0.176	0.288
-656.901	-71.781	0.343	-0.129
-655.886	-40.886	-0.195	0.102
-654.872	-19.339	-0.083	0.052
-653.857	35.684	-0.115	0.102
-652.843	271.272	0.163	-0.290
-651.828	478.286	0.072	-0.165
-650.814	176.682	0.181	-0.267
-649.799	18.899	-0.254	-0.206
-648.784	-200.000	0.017	-0.192
-647.770	356.006	0.044	0.089
-646.755	-200.000	0.027	-0.351
-645.741	-135.091	0.236	0.029
-644.726	93.904	-0.211	0.242
-643.711	14.971	-0.159	-0.126
-642.697	-200.000	0.025	-0.126
-641.682	-123.611	-0.412	0.066
-640.668	23.151	0.071	0.059
-639.653	-200.000	-0.006	0.140
-638.638	615.244	-0.115	-0.291
-637.624	800.000	0.036	-0.133
-636.609	89.634	-0.030	-0.034
-635.595	-200.000	-0.011	-0.256
-634.580	-157.960	0.389	0.023
-633.565	-200.000	0.014	0.138
-632.551	135.832	0.208	-0.273
-631.536	108.264	-0.110	-0.132
-630.522	-111.635	-0.112	0.023
-629.507	10.573	-0.240	-0.185
-628.492	447.348	0.088	-0.195
-627.478	150.635	0.160	-0.220
-626.463	-112.106	0.325	-0.066
-625.449	14.041	0.107	-0.084
-624.434	-135.500	-0.171	0.021
-623.419	127.556	0.166	-0.214
-622.405	-153.792	-0.271	0.019
-621.390	-200.000	0.087	0.394
-620.376	800.000	-0.096	-0.358
-619.361	-121.962	0.102	0.017
-618.346	332.841	0.086	0.168
-617.332	-175.226	-0.184	-0.005
-616.317	64.059	0.076	0.077
-615.303	-200.000	0.004	-0.066
-614.288	121.700	-0.086	-0.108
-613.273	292.446	0.083	0.152
-612.259	-200.000	0.042	0.289
-611.244	800.000	0.030	0.130
-610.230	-12.375	-0.037	-0.024
-609.215	-176.136	0.315	0.008
-608.201	-135.630	0.257	-0.031
-607.186	-31.917	-0.101	-0.057
-606.171	3.968	0.388	0.287
-605.157	-200.000	-0.401	-0.002
-604.142	-72.466	0.254	0.095
-603.128	59.830	-0.085	-0.085
-602.113	12.657	-0.168	0.131
-601.098	-40.879	-0.341	-0.178
-600.084	329.431	0.144	-0.280
-599.069	722.670	-0.090	-0.242
-598.055	426.156	0.079	-0.172
-597.040	-114.826	-0.394	-0.076
-596.025	-200.000	-0.055	0.251
-595.011	99.456	-0.161	0.188
-593.996	-72.721	-0.061	0.023
-592.982	-149.557	0.120	-0.010
-591.967	41.704	0.062	-0.056
-590.952	800.000	-0.054	0.183
-589.938	-163.595	-0.369	-0.018
-588.923	-44.380	-0.108	-0.054
-587.909	-200.000	-0.002	0.048
-586.894	-200.000	0.013	-0.174
-585.879	341.773	0.069	-0.137
-584.865	115.071	-0.153	0.189
-583.850	333.052	-0.051	0.100
-582.836	591.398	-0.043	0.107
-581.821	254.690	0.047	0.081
-580.806	-57.480	0.185	0.082
-579.792	-200.000	0.028	-0.318
-578.777	-68.270	-0.288	0.113
-577.763	61.435	0.212	0.212
-576.748	360.959	0.080	-0.162
-575.733	-200.000	-0.009	-0.067
-574.719	-138.925	0.461	0.051
-573.704	-183.845	-0.282	0.005
-572.690	-150.923	-0.223	-0.017
-571.675	87.696	-0.161	-0.180
-570.661	800.000	-0.006	-0.024
-569.646	144.260	0.094	0.127
-568.631	165.169	-0.081	-0.116
-567.617	-200.000	0.075	-0.383
-566.602	-93.366	-0.181	0.051
-565.588	-200.000	0.024	-0.270
-564.573	291.430	-0.109	0.201
-563.558	221.395	-0.314	0.508
-562.544	-147.799	-0.138	-0.012
-561.529	155.997	0.125	0.174
-560.515	26.660	0.145	-0.122
-559.500	-141.023	0.506	0.052
-558.485	-122.580	0.440	-0.072
-557.471	10.063	0.017	0.013
-556.456	-52.676	0.589	-0.274
-555.442	-129.115	0.258	-0.036
-554.427	257.279	-0.086	-0.149
-553.412	-60.514	-0.141	-0.060
-552.398	380.071	0.100	0.206
-551.383	800.000	-0.010	-0.042
-550.369	-133.719	0.189	0.024
-549.354	283.701	-0.170	0.307
-548.339	15.564	-0.091	0.072
-547.325	142.839	0.057	0.076
-546.310	-200.000	0.051	0.254
-545.296	0.203	-0.073	-0.053
-544.281	-18.092	-0.337	-0.212
-543.266	-200.000	-0.013	0.091
-542.252	360.288	-0.107	0.215
-541.237	-55.000	0.352	-0.160
-540.223	-149.796	-0.337	0.027
-539.208	-95.260	-0.325	0.088
-538.193	-30.828	-0.120	-0.068
-537.179	-36.642	-0.517	-0.280
-536.164	800.000	-0.081	-0.260
-535.150	-124.569	0.238	0.037
-534.135	-1.567	-0.189	-0.134
-533.121	-4.333	0.073	0.051
-532.106	-30.938	0.240	-0.137
-531.091	206.943	-0.073	-0.115
-530.077	522.167	-0.208	-0.492
-529.062	-200.000	-0.006	-0.318
-528.048	-31.457	0.312	0.177
-527.033	457.047	-0.167	0.374
-526.018	-38.836	-0.036	-0.019
-525.004	544.662	0.097	-0.232
-523.989	-79.095	-0.076	-0.026
-522.975	228.957	-0.060	-0.099
-521.960	-200.000	0.011	-0.099
-520.945	585.585	-0.070	-0.173
-519.931	28.794	-0.179	-0.153
-518.916	45.971	0.377	0.352
-517.902	-141.906	-0.092	0.009
-516.887	396.137	0.171	-0.360
-515.872	-103.718	-0.112	-0.026
-514.858	792.623	-0.087	0.241
-513.843	800.000	-0.043	0.119
-512.829	-49.704	0.283	0.136
-511.814	800.000	0.043	0.124
-510.799	-200.000	-0.024	-0.248
-509.785	292.898	0.137	0.251
-508.770	72.725	0.144	0.151
-507.756	-200.000	-0.018	0.173
-506.741	-55.463	0.136	-0.062
-505.726	-200.000	-0.019	0.163
-504.712	-147.129	0.262	-0.022
-503.697	218.859	0.142	-0.228
-502.683	800.000	-0.026	-0.073
-501.668	67.359	0.249	-0.256
-500.653	800.000	-0.091	-0.301
-499.639	-200.000	0.000	0.035
-498.624	-68.823	-0.470	-0.183
-497.610	-200.000	-0.018	-0.179
-496.595	-134.882	-0.292	0.036
-495.581	8.760	0.305	-0.231
-494.566	-79.074	-0.390	0.133
-493.551	88.887	-0.039	0.044
-492.537	106.995	0.216	0.258
-491.522	206.586	0.052	0.081
-490.508	270.621	0.166	0.293
-489.493	264.393	0.136	0.238
-488.478	-200.000	0.020	0.127
-487.464	32.624	0.063	0.054
-486.449	-123.038	0.094	0.015
-485.435	-118.718	0.178	-0.032
-484.420	99.382	-0.132	0.154
-483.405	-187.303	-0.158	0.002
-482.391	261.826	-0.146	0.254
-481.376	-200.000	-0.033	0.274
-480.362	291.605	-0.229	0.419
-479.347	186.530	0.055	0.083
-478.332	226.063	-0.067	-0.109
-477.318	788.546	-0.099	0.272
-476.303	-200.000	0.018	0.229
-475.289	27.215	-0.257	-0.217
-474.274	-142.481	0.253	0.025
-473.259	-200.000	0.016	-0.119
-472.245	-12.652	0.238	-0.156
-471.230	98.878	0.061	-0.071
-470.216	170.649	-0.022	-0.032
-469.201	91.287	0.096	-0.109
-468.186	-107.180	-0.355	0.079
-467.172	17.994	-0.359	0.287
-466.157	-155.134	-0.155	0.010
-465.143	474.568	0.040	-0.090
-464.128	-37.514	-0.275	-0.147
-463.113	238.740	-0.145	0.242
-462.099	-2.892	-0.203	0.142
-461.084	800.000	-0.067	-0.206
-460.070	-200.000	0.002	0.160
-459.055	239.269	-0.103	0.172
-458.040	524.812	0.107	0.253
-457.026	21.529	-0.120	0.098
-456.011	-200.000	-0.027	-0.266
-454.997	-30.981	0.220	0.125
-453.982	-64.409	0.291	-0.119
-452.968	800.000	-0.107	0.308
-451.953	-200.000	0.026	-0.153
-450.938	103.447	0.123	0.144
-449.924	117.738	-0.171	-0.211
-448.909	11.274	0.128	-0.098
-447.895	-200.000	0.000	0.186
-446.880	-200.000	-0.025	-0.254
-445.865	-60.439	0.177	-0.075
-444.851	-43.764	-0.257	-0.130
-443.836	-54.861	0.054	0.024
-442.822	339.030	0.120	-0.235
-441.807	-80.168	0.112	0.038
-440.792	-128.859	0.132	-0.019
-439.778	-11.168	-0.187	-0.124
-438.763	153.674	-0.099	0.136
-437.749	179.780	0.170	-0.249
-436.734	147.044	0.062	-0.083
-435.719	-200.000	0.021	-0.178
-434.705	480.444	-0.068	0.154
-433.690	186.411	-0.338	0.504
-432.676	382.610	0.144	0.297
-431.661	-89.568	-0.117	-0.035
-430.646	232.198	0.249	-0.410
-429.632	17.718	-0.133	0.106
-428.617	175.461	0.093	-0.135
-427.603	-55.241	0.292	-0.132
-426.588	-200.000	-0.036	0.276
-425.573	-200.000	0.036	-0.272
-424.559	335.366	0.044	0.086
-423.544	-28.084	0.374	0.217
-422.530	-200.000	-0.020	-0.330
-421.515	498.186	-0.107	0.247
-420.500	-12.922	0.142	-0.093
-419.486	516.475	-0.089	0.208
-418.471	108.609	-0.029	0.034
-417.457	554.388	0.094	-0.227
-416.442	-66.429	0.254	0.101
-415.428	226.091	0.148	-0.240
-414.413	10.351	0.090	-0.068
-413.398	170.869	-0.152	0.219
-412.384	98.752	-0.119	-0.137
-411.369	800.000	0.064	-0.204
-410.355	-20.215	0.115	0.071
-409.340	-200.000	0.001	-0.084
-408.325	-42.302	-0.239	0.123
-407.311	346.075	0.074	0.145
-406.296	800.000	0.042	-0.163
-405.282	-91.767	-0.197	0.056
-404.267	800.000	0.031	0.104
-403.252	-86.218	-0.080	0.025
-402.238	-128.470	0.447	-0.064
-401.223	366.268	0.083	-0.168
-400.209	23.592	-0.173	-0.143
-399.194	-171.921	0.120	0.004
-398.179	800.000	-0.030	-0.100
-397.165	-18.918	-0.292	0.182
-396.150	-181.064	0.433	0.009
-395.136	-89.294	0.189	-0.056
-394.121	-177.444	0.136	-0.003
-393.106	58.209	0.061	-0.060
-392.092	209.302	0.229	0.359
-391.077	-68.476	0.260	-0.101
-390.063	800.000	-0.061	0.249
-389.048	413.122	-0.109	0.232
-388.033	-15.897	0.266	0.169
-387.019	-200.000	0.024	-0.127
-386.004	-87.043	-0.259	0.079
-384.990	-56.335	0.292	0.130
-383.975	157.533	0.221	0.306
-382.960	-200.000	-0.027	-0.361
-381.946	-11.346	-0.138	0.091
-380.931	-119.796	0.447	-0.077
-379.917	487.038	0.176	-0.401
-378.902	-33.167	-0.325	-0.180
-377.888	-74.050	0.218	0.079
-376.873	300.303	0.218	0.403
-375.858	45.664	0.008	0.008
-374.844	-98.827	0.059	-0.015
-373.829	138.066	0.030	0.040
-372.815	-200.000	0.006	-0.330
-371.800	133.087	-0.089	0.116
-370.785	23.398	-0.022	0.018
-369.771	-46.776	0.091	0.045
-368.756	120.070	-0.230	0.285
-367.742	-37.155	-0.260	-0.139
-366.727	-52.524	-0.112	-0.052
-365.712	230.065	0.270	-0.442
-364.698	16.849	-0.155	-0.123
-363.683	37.124	-0.102	-0.090
-362.669	47.705	-0.094	-0.088
-361.654	228.877	0.087	0.142
-360.639	135.955	-0.200	-0.260
-359.625	-35.230	0.302	-0.164
-358.610	-105.074	0.046	0.011
-357.596	78.444	-0.126	-0.135
-356.581	-139.881	0.374	-0.040
-355.566	496.817	0.097	-0.222
-354.552	-81.197	0.177	0.059
-353.537	-31.904	0.169	0.095
-352.523	-200.000	-0.123	0.000
-351.508	800.000	-0.169	0.522
-350.493	18.415	0.088	-0.070
-349.479	800.000	0.050	0.169
-348.464	800.000	-0.051	-0.145
-347.450	139.213	-0.085	0.112
-346.435	800.000	-0.016	0.063
-345.420	-67.423	-0.429	0.168
-344.406	448.441	-0.181	0.400
-343.391	800.000	0.084	0.321
-342.377	110.611	0.200	0.241
-341.362	-200.000	0.001	-0.264
-340.348	411.864	-0.113	0.239
-339.333	-18.435	0.248	0.155
-338.318	166.800	-0.103	0.146
-337.304	198.339	0.010	0.016
-336.289	-200.000	0.062	0.391
-335.275	-146.664	-0.471	-0.041
-334.260	-200.000	-0.055	0.251
-333.245	624.518	0.055	-0.138
-332.231	-26.345	-0.221	-0.129
-331.216	59.566	0.241	0.238
-330.202	-200.000	-0.054	-0.235
-329.187	115.386	-0.141	0.173
-328.172	800.000	-0.095	-0.351
-327.158	-4.649	-0.216	0.149
-326.143	-200.000	-0.021	0.429
-325.129	-24.074	0.139	0.083
-324.114	800.000	-0.109	-0.440
-323.099	-57.056	-0.095	-0.042
-322.085	-13.230	0.336	0.218
-321.070	-82.115	-0.182	-0.059
-320.056	-200.000	0.021	0.129
-319.041	-29.146	-0.347	0.199
-318.026	656.386	0.097	0.248
-317.012	251.588	0.118	0.201
-315.997	-161.909	0.154	-0.008
-314.983	-108.100	-0.325	-0.070
-313.968	-173.824	0.388	0.011
-312.953	-200.000	-0.032	-0.380
-311.939	128.436	0.205	-0.260
-310.924	-91.507	0.186	-0.053
-309.910	-125.547	-0.290	0.044
-308.895	-68.462	-0.079	-0.031
-307.880	434.162	0.139	-0.301
-306.866	-118.956	0.105	-0.018
-305.851	1.916	-0.100	-0.072
-304.837	-18.196	-0.192	0.120
-303.822	265.807	-0.215	0.374
-302.807	-14.530	0.119	0.077
-301.793	98.754	-0.265	-0.306
-300.778	-109.593	0.116	0.024
-299.764	440.702	0.040	-0.088
-298.749	47.275	-0.180	-0.167
-297.735	-142.805	0.123	0.012
-296.720	800.000	-0.040	-0.138
-295.705	-59.283	-0.199	0.085
-294.691	-71.347	0.371	0.139
-293.676	800.000	-0.065	0.241
-292.662	67.413	-0.133	-0.136
-291.647	128.841	-0.047	0.059
-290.632	287.907	-0.161	-0.291
-289.618	-125.526	-0.102	-0.016
-288.603	185.513	0.095	-0.140
-287.589	-118.506	-0.114	-0.020
-286.574	-123.058	0.082	-0.013
-285.559	-57.508	0.117	-0.051
-284.545	-10.644	-0.286	0.189
-283.530	81.419	0.113	-0.122
-282.516	-112.246	-0.270	0.054
-281.501	71.978	0.096	0.100
-280.486	50.155	0.135	-0.127
-279.472	-13.771	-0.108	0.069
-278.457	14.832	0.103	0.081
-277.443	-174.425	0.127	-0.004
-276.428	520.661	0.135	-0.316
-275.413	-200.000	0.044	0.211
-274.399	239.346	-0.032	0.054
-273.384	-146.046	0.186	0.016
-272.370	800.000	0.070	0.206
-271.355	209.617	-0.153	-0.239
-270.340	-128.038	0.014	-0.002
-269.326	-200.000	-0.046	-0.223
-268.311	107.001	-0.192	0.228
-267.297	-134.115	0.120	-0.015
-266.282	379.014	0.215	0.439
-265.267	-200.000	-0.001	0.288
-264.253	586.878	0.074	-0.182
-263.238	-62.201	0.134	-0.056
-262.224	52.414	0.176	0.167
-261.209	-146.468	-0.358	0.031
-260.195	-109.310	0.255	-0.054
-259.180	-143.396	0.191	-0.018
-258.165	28.877	-0.044	0.037
-257.151	-178.085	-0.172	0.004
-256.136	-15.148	0.130	-0.083
-255.122	-12.441	-0.292	-0.190
-254.107	109.947	-0.416	-0.497
-253.092	-141.182	-0.321	0.033
-252.078	41.564	0.065	0.059
-251.063	-162.611	0.386	-0.019
-250.049	-200.000	-0.000	0.050
-249.034	-135.198	-0.127	-0.015
-248.019	-200.000	0.043	0.512
-247.005	56.301	0.295	0.286
-245.990	40.676	0.167	-0.150
-244.976	332.061	0.110	0.211
-243.961	114.292	-0.060	0.073
-242.946	-106.887	0.200	-0.044
-241.932	-126.926	0.220	-0.032
-240.917	265.033	-0.088	0.153
-239.903	-13.262	-0.042	0.027
-238.888	90.072	0.052	-0.058
-237.873	-71.917	-0.222	-0.082
-236.859	-200.000	0.016	-0.083
-235.844	-12.509	0.257	0.167
-234.830	182.618	-0.105	-0.154
-233.815	72.108	0.119	-0.123
-232.800	98.643	-0.187	0.215
-231.786	-115.073	0.263	0.050
-230.771	-200.000	0.015	0.198
-229.757	60.129	-0.089	-0.088
-228.742	800.000	0.078	0.233
-227.727	-68.134	0.341	-0.132
-226.713	-200.000	-0.003	-0.057
-225.698	78.614	0.123	0.131
-224.684	-125.795	-0.158	-0.024
-223.669	-24.993	0.149	-0.088
-222.655	185.250	-0.252	0.371
-221.640	-54.616	0.212	-0.095
-220.625	13.016	-0.143	0.110
-219.611	-134.647	0.400	0.048
-218.596	-26.638	0.286	-0.167
-217.582	-63.131	-0.224	-0.092
-216.567	-112.859	0.115	0.023
-215.552	-72.918	-0.244	0.089
-214.538	-41.273	-0.148	-0.076
-213.523	37.808	-0.131	0.116
-212.509	158.676	-0.106	0.147
-211.494	22.302	0.160	0.130
-210.479	166.532	-0.159	-0.224
-209.465	181.370	-0.104	0.152
-208.450	578.728	0.073	0.178
-207.436	183.306	-0.122	0.179
-206.421	-114.965	-0.157	0.030
-205.406	-59.945	0.244	-0.104
-204.392	-21.103	-0.086	0.052
-203.377	9.683	-0.267	-0.201
-202.363	-11.998	-0.126	-0.082
-201.348	800.000	-0.037	-0.131
-200.333	-28.136	-0.116	-0.066
-199.319	191.012	-0.168	0.251
-198.304	-160.860	0.186	-0.010
-197.290	162.539	-0.081	0.112
-196.275	110.415	-0.092	-0.110
-195.260	531.272	0.176	0.413
-194.246	-5.723	-0.062	0.042
-193.231	-119.182	-0.148	0.026
-192.217	-151.369	-0.236	-0.017
-191.202	334.061	0.115	-0.221
-190.187	-125.190	0.399	-0.061
-189.173	119.776	0.302	-0.372
-188.158	155.888	0.046	-0.062
-187.144	-200.000	-0.030	-0.144
-186.129	800.000	0.067	-0.266
-185.114	238.214	0.113	-0.186
-184.100	345.673	-0.074	-0.145
-183.085	-66.870	0.356	-0.140
-182.071	-76.537	0.270	-0.094
-181.056	-200.000	0.048	-0.321
-180.042	-91.468	0.199	0.056
-179.027	-193.720	-0.114	0.001
-178.012	-200.000	-0.020	0.228
-176.998	-105.356	0.240	0.054
-175.983	-200.000	-0.016	-0.233
-174.969	800.000	-0.160	-0.508
-173.954	-49.300	0.077	-0.037
-172.939	-22.991	-0.168	0.100
-171.925	-3.126	0.079	0.054
-170.910	125.146	-0.114	-0.143
-169.896	61.163	-0.055	-0.055
-168.881	578.213	-0.150	0.364
-167.866	-89.764	-0.202	-0.059
-166.852	-119.745	-0.279	0.048
-165.837	164.808	-0.107	0.149
-164.823	-200.000	-0.094	0.423
-163.808	-200.000	0.020	-0.089
-162.793	-10.445	-0.150	0.099
-161.779	-93.986	0.159	0.043
-160.764	42.731	-0.194	0.176
-159.750	-127.835	-0.205	0.029
-158.735	-200.000	-0.048	-0.324
-157.720	-200.000	-0.340	-0.001
-156.706	201.075	-0.075	-0.114
-155.691	800.000	0.051	0.166
-154.677	-200.000	-0.002	-0.216
-153.662	149.486	-0.213	-0.287
-152.647	-47.073	-0.375	0.182
-151.633	428.269	0.175	-0.376
-150.618	-200.000	0.004	-0.226
-149.604	-111.242	0.177	-0.036
-148.589	335.464	-0.105	-0.201
-147.574	-95.424	0.317	-0.085
-146.560	18.488	-0.106	0.084
-145.545	800.000	-0.059	-0.204
-144.531	-200.000	0.001	0.338
-143.516	-73.233	0.359	0.130
-142.502	800.000	-0.017	0.051
-141.487	-61.115	-0.106	0.044
-140.472	-200.000	0.022	-0.212
-139.458	800.000	-0.043	0.137
-138.443	800.000	-0.003	-0.009
-137.429	-200.000	-0.010	-0.409
-136.414	800.000	-0.052	0.165
-135.399	-34.038	0.572	0.312
-134.385	-138.241	0.206	-0.023
-133.370	-105.987	0.135	-0.030
-132.356	788.954	-0.006	-0.017
-131.341	-73.277	-0.206	0.075
-130.326	396.037	0.093	-0.192
-129.312	-24.703	-0.439	-0.259
-128.297	268.475	0.093	0.161
-127.283	-153.851	-0.378	-0.026
-126.268	120.160	-0.034	0.042
-125.253	730.269	-0.073	0.193
-124.239	800.000	-0.076	-0.212
-123.224	-95.939	-0.236	0.062
-122.210	-200.000	-0.016	0.105
-121.195	-200.000	0.018	-0.209
-120.180	-200.000	-0.027	0.137
-119.166	138.057	0.103	0.134
-118.151	800.000	0.051	-0.148
-117.137	63.327	0.213	-0.212
-116.122	-65.436	-0.384	-0.153
-115.107	-74.609	-0.293	0.105
-114.093	280.280	0.082	-0.145
-113.078	-151.454	-0.195	-0.014
-112.064	-27.403	0.135	-0.078
-111.049	-200.000	0.021	0.182
-110.034	98.136	0.215	0.245
-109.020	-200.000	-0.037	0.243
-108.005	800.000	-0.100	0.411
-106.991	83.317	0.052	0.056
-105.976	197.176	0.097	0.147
-104.962	-200.000	-0.046	0.306
-103.947	-124.989	0.100	0.015
-102.932	24.320	-0.093	0.076
-101.918	-200.000	-0.041	-0.212
-100.903	401.317	-0.198	0.411
-99.889	800.000	0.042	0.158
-98.874	-187.978	-0.040	0.001
-97.859	41.503	0.240	-0.215
-96.845	800.000	0.031	0.095
-95.830	156.132	-0.007	-0.009
-94.816	-83.561	-0.195	-0.062
-93.801	-22.137	0.302	-0.181
-92.786	-37.652	-0.046	0.024
-91.772	-79.643	0.103	-0.035
-90.757	315.347	0.159	0.297
-89.743	-200.000	0.008	0.221
-88.728	-89.499	0.036	0.010
-87.713	301.474	0.094	0.172
-86.699	-89.817	-0.121	0.035
-85.684	197.253	-0.167	0.252
-84.670	-22.454	0.178	0.107
-83.655	71.707	0.183	0.188
-82.640	-200.000	0.019	0.156
-81.626	-149.203	0.277	-0.022
-80.611	-50.211	-0.269	0.126
-79.597	152.354	0.209	-0.282
-78.582	-200.000	-0.020	-0.188
-77.567	528.847	-0.047	0.111
-76.553	-105.798	0.093	-0.021
-75.538	-177.121	0.105	-0.003
-74.524	-200.000	-0.026	0.188
-73.509	4.652	-0.295	-0.214
-72.494	43.403	-0.039	0.035
-71.480	-41.947	0.116	-0.059
-70.465	-39.230	0.291	-0.151
-69.451	-200.000	0.005	-0.108
-68.436	-107.959	0.306	0.066
-67.422	-121.400	0.121	0.020
-66.407	101.841	-0.092	0.107
-65.392	-18.776	0.399	0.246
-64.378	-120.578	0.090	-0.015
-63.363	22.650	0.179	-0.145
-62.349	284.337	-0.101	-0.179
-61.334	36.568	-0.936	-0.817
-60.319	125.613	0.348	0.434
-59.305	-200.000	-0.114	-0.884
-58.290	800.000	0.323	0.953
-57.276	800.000	0.387	1.431
-56.261	-200.000	97.331	584.196
-55.246	620.737	1403.314	3488.024
-54.232	188.181	2598.528	3837.820
-53.217	118.620	2187.384	2668.833
-52.203	44.764	1723.093	1566.377
-51.188	37.541	1535.437	1345.996
-50.173	35.135	1508.114	1305.616
-49.159	54.374	1557.096	1481.638
-48.144	57.230	1575.634	1518.983
-47.130	37.765	1533.512	1345.639
-46.115	34.676	1518.399	1311.157
-45.100	34.443	1515.350	1306.878
-44.086	34.371	1513.681	1304.891
-43.071	34.325	1511.498	1302.646
-42.057	34.278	1509.684	1300.710
-41.042	34.361	1508.024	1299.795
-40.027	34.304	1507.043	1298.507
-39.013	34.377	1504.982	1297.178
-37.998	34.308	1504.323	1296.087
-36.984	34.331	1503.357	1295.364
-35.969	34.353	1501.572	1293.918
-34.954	34.437	1500.157	1293.222
-33.940	34.348	1498.747	1291.347
-32.925	34.320	1497.477	1290.015
-31.911	34.333	1496.651	1289.340
-30.896	34.272	1495.363	1287.769
-29.881	34.328	1493.689	1286.654
-28.867	34.318	1492.270	1285.314
-27.852	34.479	1490.599	1284.906
-26.838	34.334	1489.524	1282.954
-25.823	34.401	1487.749	1281.825
-24.809	34.402	1486.330	1280.558
-23.794	34.376	1484.837	1279.045
-22.779	34.328	1483.503	1277.523
-21.765	34.471	1481.871	1277.027
-20.750	34.417	1481.503	1276.294
-19.736	34.359	1480.632	1275.109
-18.721	34.404	1479.333	1274.235
-17.706	34.411	1478.619	1273.617
-16.692	34.405	1477.084	1272.206
-15.677	34.357	1476.578	1271.399
-14.663	34.355	1475.323	1270.254
-13.648	34.300	1474.789	1269.380
-12.633	34.396	1473.494	1268.851
-11.619	34.278	1472.645	1267.284
-10.604	34.252	1472.064	1266.566
-9.590	34.239	1470.960	1265.475
-8.575	34.358	1470.084	1265.461
-7.560	34.326	1469.293	1264.520
-6.546	34.251	1468.465	1263.259
-5.531	34.302	1467.528	1262.742
-4.517	34.318	1466.610	1262.009
-3.502	34.332	1465.566	1261.148
-2.487	34.360	1464.391	1260.277
-1.473	34.336	1463.687	1259.463
-0.458	34.269	1461.863	1257.402
0.556	35.496	1451.778	1244.278
1.571	31.453	1424.216	1194.780
2.586	26.634	1359.709	1111.085
3.600	24.194	1275.300	1027.962
4.615	22.383	1228.772	980.289
5.629	18.912	1172.279	916.665
6.644	11.362	1088.476	813.539
7.659	5.380	1049.456	755.469
8.673	4.535	1043.676	747.184
9.688	4.510	1040.851	744.971
10.702	4.450	1039.254	743.479
11.717	4.505	1037.792	742.626
12.731	6.384	1039.165	752.533
13.746	13.699	1049.564	795.190
14.761	20.099	1057.043	831.595
15.775	21.332	1057.544	837.830
16.790	20.599	1056.339	833.290
17.804	19.595	1054.433	826.908
18.819	18.776	1052.367	821.303
19.834	18.368	1051.152	818.330
20.848	18.119	1050.526	816.583
21.863	17.989	1049.764	815.298
22.877	17.795	1049.054	813.749
23.892	17.802	1047.933	812.839
24.907	17.625	1047.002	811.202
25.921	17.553	1046.533	810.424
26.936	17.525	1045.783	809.640
27.950	17.585	1044.817	809.105
28.965	17.650	1043.432	808.269
29.980	17.709	1042.173	807.504
30.994	17.686	1041.200	806.567
32.009	18.048	1040.605	807.748
33.023	17.978	1039.820	806.737
34.038	18.044	1039.054	806.384
35.053	17.783	1038.553	804.692
36.067	17.688	1037.433	803.304
37.082	17.763	1036.136	802.583
38.096	17.708	1035.525	801.778
39.111	17.804	1035.139	801.861
40.126	17.875	1034.198	801.394
41.140	17.804	1032.797	799.905
42.155	17.526	1031.298	797.371
43.169	17.318	1030.942	796.051
44.184	17.345	1029.618	795.083
45.199	17.388	1028.293	794.194
46.213	17.355	1027.364	793.252
47.228	17.413	1026.929	793.114
48.242	17.580	1025.882	793.014
49.257	17.682	1025.176	792.874
50.271	17.608	1024.112	791.637
51.286	17.641	1023.312	791.099
52.301	17.695	1022.729	790.829
53.315	17.729	1021.980	790.338
54.330	17.732	1020.684	789.280
55.344	17.418	1020.170	787.359
56.359	17.373	1018.861	786.071
57.374	17.443	1018.045	785.695
58.388	17.433	1017.321	785.024
59.403	17.278	1016.516	783.618
60.417	17.252	1015.819	782.892
61.432	17.301	1014.684	782.171
62.447	17.335	1014.557	782.162
63.461	17.132	1013.480	780.328
64.476	17.093	1012.472	779.304
65.490	16.988	1011.971	778.366
66.505	17.091	1011.253	778.218
67.520	17.214	1010.240	777.935
68.534	17.148	1009.848	777.263
69.549	17.255	1008.604	776.725
70.563	17.240	1008.197	776.272
71.578	17.129	1007.495	775.158
72.593	17.062	1006.067	773.683
73.607	17.062	1005.153	772.912
74.622	16.946	1003.997	771.429
75.636	17.023	1003.352	771.213
76.651	17.040	1002.688	770.713
77.666	16.989	1002.477	770.252
78.680	17.107	1001.167	769.711
79.695	16.991	1000.985	768.977
80.709	17.170	1000.187	769.107
81.724	17.185	999.131	768.296
82.739	17.372	998.532	768.610
83.753	17.393	997.772	768.052
84.768	17.706	996.841	768.681
85.782	17.736	997.015	768.884
86.797	17.931	996.316	769.152
87.812	17.924	995.340	768.301
88.826	17.871	994.016	766.974
89.841	17.639	993.739	765.648
90.855	17.830	992.600	765.559
91.870	17.724	992.499	764.940
92.884	17.940	991.247	764.875
93.899	17.918	990.555	764.176
94.914	17.855	989.812	763.250
95.928	18.005	989.126	763.324
96.943	18.108	988.286	763.071
97.957	17.876	987.680	761.497
98.972	17.788	986.817	760.372
99.987	17.767	986.287	759.806
101.001	17.813	985.329	759.203
102.016	17.724	984.689	758.250
103.030	17.667	983.702	757.167
104.045	17.862	982.685	757.181
105.060	17.842	981.762	756.317
106.074	17.747	980.983	755.229
107.089	17.468	980.256	753.367
108.103	17.353	979.143	751.935
109.118	17.263	978.033	750.620
110.133	17.232	976.823	749.488
111.147	17.240	976.218	748.992
112.162	17.145	975.793	748.183
113.176	17.258	974.808	747.857
114.191	17.364	974.203	747.795
115.206	17.477	973.521	747.700
116.220	17.470	972.524	746.838
117.235	17.261	971.757	745.268
118.249	17.251	971.231	744.753
119.264	17.261	970.219	743.955
120.279	17.271	969.311	743.235
121.293	17.192	968.090	741.891
122.308	17.294	967.399	741.740
123.322	17.143	967.103	740.789
124.337	17.035	965.657	739.146
125.352	17.012	964.893	738.395
126.366	17.110	963.347	737.574
127.381	17.090	962.342	736.653
128.395	17.145	961.406	736.109
129.410	17.113	960.589	735.279
130.424	17.159	959.847	734.846
131.439	17.219	959.246	734.578
132.454	17.409	958.053	734.421
133.468	17.435	957.421	733.985
134.483	17.355	957.155	733.369
135.497	17.397	956.670	733.113
136.512	17.479	955.610	732.591
137.527	17.431	954.899	731.772
138.541	17.451	954.184	731.247
139.556	17.504	953.617	730.976
140.570	17.492	952.964	730.359
141.585	17.635	952.342	730.431
142.600	17.713	951.929	730.381
143.614	17.627	951.275	729.447
144.629	17.762	950.212	729.146
145.643	17.912	949.559	729.219
146.658	17.912	948.570	728.397
147.673	17.675	947.813	726.740
148.687	17.604	946.635	725.471
149.702	17.606	945.363	724.442
150.716	17.456	944.647	723.191
151.731	17.383	943.997	722.320
152.746	17.369	943.240	721.616
153.760	17.436	942.462	721.240
154.775	17.611	941.794	721.408
155.789	17.621	941.054	720.820
156.804	17.659	940.469	720.469
157.819	17.758	939.443	720.034
158.833	17.680	939.099	719.379
159.848	17.893	938.401	719.680
160.862	17.830	937.953	719.006
161.877	17.954	936.810	718.587
162.892	17.635	935.991	716.556
163.906	17.524	934.686	715.025
164.921	17.440	933.879	713.993
165.935	17.377	932.771	712.821
166.950	17.463	932.044	712.562
167.964	17.629	931.177	712.529
168.979	17.655	930.105	711.756
169.994	17.504	929.291	710.440
171.008	17.458	928.493	709.574
172.023	17.558	927.542	709.201
173.037	17.709	927.163	709.477
174.052	17.888	926.347	709.535
175.067	17.887	925.439	708.770
176.081	17.682	924.966	707.497
177.096	17.575	923.379	705.776
178.110	17.517	922.979	705.169
179.125	17.623	921.673	704.548
180.140	17.745	921.061	704.521
181.154	17.647	920.814	703.861
182.169	17.676	920.380	703.590
183.183	17.723	919.912	703.365
184.198	17.844	919.067	703.153
185.213	17.967	918.484	703.150
186.227	17.911	917.613	702.192
187.242	17.916	917.413	701.998
188.256	18.088	916.706	702.103
189.271	18.163	915.905	701.733
190.286	18.139	915.580	701.325
191.300	17.950	914.232	699.454
192.315	17.660	913.275	697.474
193.329	17.309	912.694	695.535
194.344	17.322	911.926	694.940
195.359	17.394	911.887	695.144
196.373	17.670	910.794	695.373
197.388	17.709	911.088	695.695
198.402	18.012	910.309	696.275
199.417	18.163	909.809	696.447
200.432	18.270	909.518	696.596
201.446	18.200	909.522	696.252
202.461	18.399	908.907	696.529
203.475	18.537	908.086	696.401
204.490	18.530	907.273	695.686
205.504	18.153	906.540	693.533
206.519	18.066	905.694	692.475
207.534	18.105	904.911	691.972
208.548	17.945	904.169	690.697
209.563	18.059	903.381	690.493
210.577	18.057	903.023	690.151
211.592	17.995	902.256	689.253
212.607	18.320	901.648	690.037
213.621	18.357	901.619	690.102
214.636	18.318	900.383	688.941
215.650	18.239	900.200	688.420
216.665	18.274	899.443	687.921
217.680	18.381	899.006	687.958
218.694	18.545	898.432	688.114
219.709	18.522	898.076	687.690
220.723	18.467	897.289	686.806
221.738	18.377	896.670	685.909
222.753	18.397	895.819	685.280
223.767	18.501	895.259	685.205
224.782	18.402	894.316	684.027
225.796	18.534	893.929	684.197
226.811	18.744	893.198	684.416
227.826	18.504	892.591	682.932
228.840	18.360	892.022	681.865
229.855	18.358	891.257	681.209
230.869	18.292	890.584	680.373
231.884	18.364	890.083	680.218
232.899	18.415	889.084	679.594
233.913	18.340	887.897	678.331
234.928	18.265	887.673	677.801
235.942	18.311	887.264	677.613
236.957	18.226	886.295	676.477
237.972	18.227	885.485	675.802
238.986	18.241	884.727	675.221
240.001	18.225	884.383	674.836
241.015	18.292	883.627	674.462
242.030	18.356	882.944	674.133
243.045	18.428	882.232	673.812
244.059	18.493	881.884	673.744
245.074	18.481	881.015	672.973
246.088	18.621	880.333	672.941
247.103	18.483	880.307	672.319
248.117	18.772	879.726	672.950
249.132	18.594	879.737	672.200
250.147	19.062	878.495	673.021
251.161	19.163	878.033	673.003
252.176	19.128	877.869	672.683
253.190	19.306	876.963	672.625
254.205	19.358	876.222	672.197
255.220	19.391	876.270	672.302
256.234	19.227	875.554	671.057
257.249	19.123	874.752	669.976
258.263	19.308	874.349	670.329
259.278	19.194	873.356	669.064
260.293	19.179	873.319	668.919
261.307	19.282	872.673	668.764
262.322	19.553	871.680	668.996
263.336	19.510	871.461	668.602
264.351	19.457	870.934	667.934
265.366	19.500	870.244	667.511
266.380	19.341	869.856	666.538
267.395	19.508	868.870	666.369
268.409	19.378	868.523	665.544
269.424	19.234	867.481	664.130
270.439	19.306	866.476	663.578
271.453	19.303	865.850	663.030
272.468	19.205	865.233	662.124
273.482	19.037	864.936	661.193
274.497	19.094	864.285	660.852
275.512	19.063	863.776	660.288
276.526	19.271	862.464	660.023
277.541	19.193	862.170	659.440
278.555	19.332	861.442	659.355
279.570	19.398	861.236	659.394
280.585	19.455	860.917	659.308
281.599	19.697	859.819	659.332
282.614	19.513	859.442	658.282
283.628	19.349	858.742	657.062
284.643	19.321	858.182	656.470
285.657	19.374	857.674	656.225
286.672	19.362	857.010	655.613
287.687	19.313	856.916	655.297
288.701	19.389	856.446	655.169
289.716	19.477	855.721	654.892
290.730	19.558	854.943	654.546
291.745	19.460	854.558	653.822
292.760	19.465	853.596	653.046
293.774	19.478	853.140	652.688
294.789	19.760	853.039	653.618
295.803	19.558	852.780	652.600
296.818	19.563	851.368	651.480
297.833	19.478	850.635	650.542
298.847	19.507	849.875	650.011
299.862	19.447	849.166	649.186
300.876	19.548	849.045	649.416
301.891	19.641	848.368	649.189
302.906	19.681	847.830	648.870
303.920	19.682	847.143	648.294
304.935	19.997	846.397	648.845
305.949	20.079	846.065	648.839
306.964	19.967	845.501	647.929
307.979	19.836	844.426	646.561
308.993	19.770	844.482	646.298
310.008	20.003	843.464	646.332
311.022	19.967	843.008	645.791
312.037	19.905	842.613	645.201
313.052	19.819	842.201	644.508
314.066	19.673	841.657	643.489
315.081	19.594	840.934	642.588
316.095	19.489	840.141	641.532
317.110	19.640	839.612	641.632
318.125	19.473	838.963	640.462
319.139	19.637	838.455	640.625
320.154	19.577	837.901	639.922
321.168	19.604	837.558	639.705
322.183	19.517	837.238	639.079
323.197	19.593	836.475	638.722
324.212	19.624	835.736	638.216
325.227	19.689	835.452	638.185
326.241	19.750	834.761	637.823
327.256	19.780	834.065	637.347
328.270	19.655	833.773	636.605
329.285	19.637	833.227	636.068
330.300	19.572	832.640	635.324
331.314	19.658	831.826	634.963
332.329	19.727	831.199	634.679
333.343	19.744	830.730	634.328
334.358	19.981	830.464	634.938
335.373	20.060	829.574	634.490
336.387	20.047	829.286	634.167
337.402	20.169	828.630	634.057
338.416	20.208	828.336	633.916
339.431	20.196	828.001	633.559
340.446	20.237	827.719	633.441
341.460	20.394	826.857	633.297
342.475	20.380	826.358	632.805
343.489	20.321	826.118	632.351
344.504	20.486	825.377	632.330
345.519	20.558	824.618	631.954
346.533	20.604	824.295	631.817
347.548	20.501	823.692	630.924
348.562	20.443	822.793	629.969
349.577	20.209	822.685	628.983
350.592	20.156	821.908	628.143
351.606	20.091	821.124	627.252
352.621	20.152	820.838	627.197
353.635	20.193	820.271	626.858
354.650	20.183	819.957	626.527
355.665	20.272	819.605	626.523
356.679	20.279	818.817	625.891
357.694	20.293	818.750	625.835
358.708	20.313	818.167	625.404
359.723	20.344	817.697	625.102
360.738	20.450	816.922	624.837
361.752	20.476	816.688	624.696
362.767	20.357	816.514	624.080
363.781	20.615	816.149	624.672
364.796	20.554	815.415	623.836
365.810	20.678	815.446	624.251
366.825	20.779	815.142	624.323
367.840	20.885	814.767	624.361
368.854	20.940	814.057	623.957
369.869	20.718	813.790	622.902
370.883	20.702	813.025	622.205
371.898	20.650	812.657	621.685
372.913	20.692	811.736	621.074
373.927	20.764	811.254	620.906
374.942	20.812	810.298	620.292
375.956	20.802	809.757	619.787
376.971	20.892	809.297	619.700
377.986	20.857	809.060	619.340
379.000	20.944	808.790	619.385
380.015	21.002	808.287	619.153
381.029	21.072	807.952	619.089
382.044	20.899	807.094	617.765
383.059	20.982	806.568	617.600
384.073	21.002	805.930	617.130
385.088	21.088	805.066	616.718
386.102	20.844	804.935	615.700
387.117	20.736	804.137	614.652
388.132	20.646	803.659	613.916
389.146	20.607	803.196	613.370
390.161	20.674	802.789	613.242
391.175	20.957	802.389	613.878
392.190	21.045	802.213	613.999
393.205	20.894	801.958	613.218
394.219	20.832	801.241	612.396
395.234	20.818	800.896	612.031
396.248	20.735	800.271	611.207
397.263	20.578	799.349	609.898
398.278	20.694	798.632	609.702
399.292	20.424	798.750	608.793
400.307	20.404	798.245	608.287
401.321	20.640	797.781	608.703
402.336	20.618	797.539	608.390
403.350	20.869	797.039	608.829
404.365	20.737	796.577	607.964
405.380	20.996	796.062	608.420
406.394	21.000	796.006	608.337
407.409	21.143	795.622	608.486
408.423	21.271	794.976	608.388
409.438	21.381	794.631	608.450
410.453	21.298	794.338	607.885
411.467	21.241	794.099	607.449
412.482	21.407	793.496	607.510
413.496	21.474	793.294	607.535
414.511	21.653	792.542	607.527
415.526	21.509	792.675	607.074
416.540	21.537	791.955	606.566
417.555	21.548	791.227	605.995
418.569	21.296	791.035	604.920
419.584	21.396	790.351	604.691
420.599	21.444	790.080	604.595
421.613	159.164	1368.418	1790.663
422.628	137.822	1452.687	1790.777
