DTS Sentinel unit serial number:	SN413079Multiplexer serial number:	ORYXHardware model number:	OX4-SRSoftware version number:	ORYX F/W v4.00 Oryx Data Collector v3.7.2.0data status	okinstallation	princeton_trtdifferential loss correction	single-endedforward channel	channel 3reverse channel	N/Adate	2019/09/14time	05:08:35forward acquisition time	60.00reverse acquisition time	0.00gamma	496.2192k internal	0.2336k external	0.2336temperature offset calibration	1.0057default loss term (dB/km)	0.3790temperature slope calibration	1.0000multiplexer offset coefficient	1.0000multiplexer slope coefficient	1.0000fibre end	0.00T internal ref (°C)	26.87T ext. ref 1 (°C)	3.38T ext. ref 2 (°C)	21.98length (m)	temperature (°C)	Stokes	anti-Stokes-747.200	375.397	0.086	0.177
-746.185	4.393	0.071	0.052
-745.171	-200.000	0.002	-0.012
-744.156	-200.000	-0.043	0.308
-743.142	98.133	-0.161	-0.186
-742.127	-200.000	-0.021	-0.122
-741.112	-112.867	-0.142	0.028
-740.098	-111.750	-0.174	0.035
-739.083	67.127	-0.275	-0.282
-738.069	-200.000	-0.015	0.185
-737.054	-29.016	-0.196	0.113
-736.039	-49.053	-0.267	0.128
-735.025	445.961	0.188	0.416
-734.010	87.139	-0.401	-0.445
-732.996	639.899	0.096	-0.245
-731.981	17.392	-0.290	-0.231
-730.966	-16.824	-0.179	-0.114
-729.952	-134.323	0.097	-0.012
-728.937	-0.256	-0.227	-0.162
-727.923	-48.203	0.235	0.114
-726.908	307.519	-0.240	-0.450
-725.894	800.000	-0.129	-0.407
-724.879	143.049	-0.088	-0.118
-723.864	-129.575	-0.195	0.027
-722.850	-143.868	-0.296	0.028
-721.835	-189.646	-0.177	-0.002
-720.821	416.205	0.109	-0.233
-719.806	-200.000	0.008	0.232
-718.791	-99.732	-0.093	0.023
-717.777	800.000	-0.033	0.105
-716.762	800.000	-0.063	-0.246
-715.748	800.000	-0.048	-0.204
-714.733	1.762	0.142	0.103
-713.718	-33.058	0.080	0.044
-712.704	81.344	0.076	0.082
-711.689	-200.000	-0.001	-0.116
-710.675	148.779	0.225	-0.306
-709.660	-22.981	-0.421	-0.255
-708.645	-200.000	-0.024	0.338
-707.631	-165.952	-0.262	-0.011
-706.616	76.307	0.158	-0.168
-705.602	-7.654	-0.230	-0.156
-704.587	404.013	-0.037	-0.077
-703.572	-107.621	0.329	-0.072
-702.558	48.627	0.177	-0.166
-701.543	409.522	0.090	-0.190
-700.529	-75.244	-0.072	0.026
-699.514	113.413	-0.116	-0.142
-698.499	111.676	0.140	0.169
-697.485	54.843	0.129	-0.125
-696.470	-187.692	0.088	0.001
-695.456	18.667	-0.200	0.160
-694.441	208.423	-0.196	-0.306
-693.426	-200.000	-0.002	-0.413
-692.412	-63.338	-0.178	-0.074
-691.397	148.334	-0.162	-0.219
-690.383	150.543	0.073	0.099
-689.368	-43.172	0.172	0.087
-688.354	800.000	-0.127	-0.451
-687.339	284.825	-0.124	-0.224
-686.324	-200.000	0.003	-0.148
-685.310	-36.008	-0.199	-0.108
-684.295	-162.696	-0.259	0.013
-683.281	-200.000	-0.022	0.174
-682.266	-72.371	0.268	-0.099
-681.251	-32.624	-0.158	-0.088
-680.237	689.054	0.070	-0.184
-679.222	164.658	0.045	0.064
-678.208	52.409	-0.113	-0.108
-677.193	-24.487	-0.389	0.232
-676.178	-200.000	0.012	-0.169
-675.164	777.140	0.086	-0.236
-674.149	-51.969	-0.154	-0.072
-673.135	174.955	0.162	-0.235
-672.120	800.000	0.079	-0.250
-671.105	36.030	-0.095	-0.084
-670.091	-13.250	-0.138	0.090
-669.076	176.928	-0.053	-0.078
-668.062	-200.000	-0.020	-0.310
-667.047	-171.042	-0.043	-0.001
-666.032	-101.605	-0.343	0.084
-665.018	95.769	0.081	-0.092
-664.003	45.230	0.239	-0.220
-662.989	-200.000	0.003	0.204
-661.974	124.760	0.189	-0.239
-660.959	-114.585	-0.226	-0.043
-659.945	-200.000	-0.039	-0.262
-658.930	266.233	-0.127	-0.222
-657.916	-130.860	-0.142	-0.019
-656.901	-54.728	0.325	-0.147
-655.886	90.986	0.060	-0.067
-654.872	-165.373	0.447	0.020
-653.857	784.972	0.043	0.118
-652.843	-132.971	0.578	-0.074
-651.828	-99.615	0.423	-0.106
-650.814	1.536	0.187	-0.134
-649.799	-52.730	0.139	0.064
-648.784	204.174	0.076	-0.118
-647.770	-200.000	-0.039	-0.536
-646.755	-52.966	-0.141	-0.065
-645.741	320.344	0.069	0.130
-644.726	-164.406	0.174	-0.008
-643.711	610.845	-0.099	-0.247
-642.697	-139.127	-0.457	-0.049
-641.682	-142.133	-0.103	-0.010
-640.668	385.818	-0.070	-0.144
-639.653	-103.839	0.096	0.022
-638.638	37.460	-0.129	-0.114
-637.624	-29.541	-0.177	0.101
-636.609	-1.232	-0.056	0.040
-635.595	-161.152	-0.126	-0.007
-634.580	-116.024	-0.128	0.024
-633.565	-81.667	-0.166	-0.054
-632.551	134.174	-0.094	0.122
-631.536	124.491	-0.176	-0.222
-630.522	-81.049	-0.285	0.094
-629.507	-200.000	0.034	-0.165
-628.492	-200.000	0.042	0.255
-627.478	-154.059	0.242	0.016
-626.463	23.779	0.060	0.050
-625.449	-7.402	0.298	0.202
-624.434	672.925	-0.094	-0.243
-623.419	800.000	0.051	0.198
-622.405	-1.954	-0.177	0.125
-621.390	271.907	-0.146	-0.257
-620.376	106.823	-0.058	0.069
-619.361	425.380	0.067	-0.145
-618.346	-200.000	-0.016	-0.247
-617.332	716.045	-0.093	0.248
-616.317	669.907	0.043	0.111
-615.303	-200.000	0.032	0.312
-614.288	183.322	0.108	-0.159
-613.273	127.395	0.180	-0.228
-612.259	-63.337	0.307	0.126
-611.244	40.522	0.319	0.287
-610.230	-14.095	-0.233	0.150
-609.215	281.534	-0.130	-0.232
-608.201	-22.106	0.381	0.231
-607.186	-147.614	-0.231	0.019
-606.171	-139.388	-0.435	0.047
-605.157	-48.310	0.131	-0.063
-604.142	26.635	-0.057	0.047
-603.128	-115.745	-0.288	0.054
-602.113	-200.000	0.071	0.360
-601.098	677.070	0.016	0.042
-600.084	125.956	0.133	0.167
-599.069	-42.063	0.157	-0.080
-598.055	188.651	0.224	0.335
-597.040	30.870	-0.275	-0.235
-596.025	-47.487	0.103	-0.050
-595.011	-200.000	0.018	-0.501
-593.996	-200.000	-0.026	-0.185
-592.982	310.444	0.062	-0.116
-591.967	-126.189	0.383	0.057
-590.952	-43.581	-0.386	0.194
-589.938	-200.000	-0.030	-0.200
-588.923	-103.839	0.223	-0.052
-587.909	200.406	-0.227	-0.349
-586.894	-14.741	0.426	0.273
-585.879	800.000	-0.055	0.174
-584.865	-161.525	-0.050	-0.003
-583.850	-90.791	-0.458	0.132
-582.836	-85.494	-0.219	-0.068
-581.821	223.410	0.072	-0.116
-580.806	-76.696	-0.250	-0.087
-579.792	315.712	0.145	0.273
-578.777	135.722	0.294	0.382
-577.763	467.681	0.096	0.214
-576.748	-10.933	0.130	-0.085
-575.733	-139.613	0.111	0.012
-574.719	219.757	-0.071	0.113
-573.704	-144.826	0.216	0.020
-572.690	-48.867	0.136	-0.065
-571.675	164.783	-0.139	-0.196
-570.661	-199.513	0.196	0.001
-569.646	-14.918	-0.221	0.142
-568.631	20.183	-0.122	-0.098
-567.617	86.373	0.224	-0.246
-566.602	-99.601	0.283	0.071
-565.588	-168.404	0.183	0.007
-564.573	-155.261	-0.105	0.007
-563.558	-111.484	0.220	-0.045
-562.544	84.446	-0.200	-0.218
-561.529	-116.544	-0.076	0.014
-560.515	-85.569	0.276	0.085
-559.500	-156.197	-0.044	-0.003
-558.485	-50.321	0.210	-0.099
-557.471	-200.000	-0.009	0.129
-556.456	62.117	-0.068	-0.068
-555.442	25.592	0.164	-0.136
-554.427	-200.000	0.029	0.240
-553.412	-75.515	0.172	-0.061
-552.398	0.829	-0.285	-0.203
-551.383	122.964	0.105	-0.131
-550.369	74.928	-0.064	-0.067
-549.354	-200.000	0.074	0.000
-548.339	-27.031	-0.258	-0.150
-547.325	19.893	-0.265	-0.213
-546.310	294.949	-0.067	-0.121
-545.296	-200.000	-0.005	0.062
-544.281	72.975	0.113	-0.117
-543.266	-150.285	-0.108	-0.008
-542.252	26.646	0.200	0.167
-541.237	175.097	-0.129	-0.186
-540.223	-15.462	-0.235	-0.149
-539.208	-15.093	-0.401	0.256
-538.193	-82.403	-0.248	0.080
-537.179	-200.000	0.057	0.260
-536.164	309.669	0.227	0.423
-535.150	265.845	0.108	0.187
-534.135	-200.000	-0.456	0.001
-533.121	9.149	-0.082	0.062
-532.106	-81.737	0.129	0.042
-531.091	-128.328	0.282	-0.040
-530.077	-169.005	0.092	-0.003
-529.062	-194.531	-0.398	0.003
-528.048	69.160	-0.071	-0.072
-527.033	110.660	0.167	0.200
-526.018	20.752	-0.192	-0.155
-525.004	70.698	-0.156	-0.161
-523.989	127.064	-0.216	-0.272
-522.975	-200.000	-0.012	0.239
-521.960	-27.064	-0.214	0.124
-520.945	316.788	-0.156	0.294
-519.931	456.706	-0.074	0.164
-518.916	0.554	0.125	0.089
-517.902	-123.700	0.386	0.061
-516.887	673.784	-0.144	-0.373
-515.872	-64.736	-0.244	0.098
-514.858	-200.000	0.011	-0.091
-513.843	800.000	-0.031	0.114
-512.829	45.316	-0.319	0.293
-511.814	-45.529	0.274	0.135
-510.799	-21.148	-0.046	-0.028
-509.785	136.030	0.177	-0.230
-508.770	800.000	0.148	-0.427
-507.756	-117.079	0.223	0.040
-506.741	68.351	0.208	0.212
-505.726	-106.806	-0.179	0.040
-504.712	800.000	0.077	0.261
-503.697	73.852	0.230	0.240
-502.683	-136.867	0.522	-0.060
-501.668	-180.964	-0.238	-0.005
-500.653	-4.488	0.053	-0.036
-499.639	110.058	0.159	0.190
-498.624	-69.898	0.068	-0.026
-497.610	493.053	-0.128	0.292
-496.595	-152.493	-0.112	-0.008
-495.581	127.519	0.084	-0.106
-494.566	276.937	-0.119	0.210
-493.551	800.000	0.096	0.290
-492.537	-169.130	-0.170	0.006
-491.522	101.726	-0.045	-0.052
-490.508	-20.634	0.079	0.048
-489.493	331.135	-0.075	-0.145
-488.478	-79.505	0.012	0.004
-487.464	-158.351	0.303	-0.018
-486.449	800.000	0.056	-0.220
-485.435	-107.781	-0.070	0.015
-484.420	800.000	0.050	0.191
-483.405	-66.242	-0.117	0.046
-482.391	-63.636	-0.358	0.146
-481.376	158.503	-0.100	0.138
-480.362	-119.784	0.284	0.049
-479.347	261.449	-0.120	-0.207
-478.332	202.361	0.170	0.261
-477.318	352.541	0.057	0.111
-476.303	-101.021	0.231	-0.056
-475.289	-140.511	-0.400	-0.041
-474.274	-200.000	-0.001	-0.184
-473.259	-49.807	-0.239	0.113
-472.245	1.361	-0.131	-0.093
-471.230	31.262	0.154	-0.131
-470.216	22.165	0.153	0.124
-469.201	-154.164	-0.365	-0.025
-468.186	329.312	-0.158	-0.302
-467.172	-66.982	-0.173	-0.068
-466.157	-30.012	-0.240	-0.136
-465.143	-60.159	-0.266	-0.113
-464.128	-156.751	0.474	-0.029
-463.113	-140.591	-0.196	-0.020
-462.099	-120.124	-0.230	-0.039
-461.084	581.540	-0.074	0.179
-460.070	-166.143	-0.131	0.006
-459.055	-118.585	-0.372	0.065
-458.040	-135.624	0.220	-0.026
-457.026	92.848	-0.280	-0.314
-456.011	616.995	0.137	-0.342
-454.997	-86.028	0.249	0.076
-453.982	252.031	-0.079	-0.133
-452.968	241.560	0.076	0.127
-451.953	-114.397	-0.262	0.050
-450.938	-200.000	0.028	-0.316
-449.924	-128.997	0.185	0.026
-448.909	-164.854	-0.269	0.012
-447.895	-123.100	0.079	-0.013
-446.880	53.258	0.185	0.176
-445.865	-111.244	0.109	-0.022
-444.851	-200.000	-0.003	0.201
-443.836	102.071	0.141	0.164
-442.822	-200.000	0.015	-0.081
-441.807	-191.787	0.361	-0.004
-440.792	-44.956	-0.172	-0.085
-439.778	243.924	-0.111	-0.185
-438.763	30.372	-0.058	-0.049
-437.749	-115.016	0.067	0.013
-436.734	-75.638	0.231	0.081
-435.719	-60.266	0.070	-0.030
-434.705	-73.335	-0.213	0.077
-433.690	-16.193	0.066	0.041
-432.676	-81.823	0.227	-0.074
-431.661	-10.597	0.162	-0.106
-430.646	-82.748	-0.120	0.039
-429.632	800.000	-0.100	0.289
-428.617	-71.731	0.194	0.072
-427.603	-163.858	-0.198	-0.009
-426.588	250.796	0.089	-0.150
-425.573	35.374	0.173	-0.150
-424.559	36.930	0.163	-0.143
-423.544	-115.473	0.173	-0.032
-422.530	-78.354	-0.179	-0.061
-421.515	-162.824	0.242	-0.012
-420.500	154.850	0.133	0.181
-419.486	448.785	-0.064	-0.140
-418.471	131.361	0.196	-0.249
-417.457	-4.416	-0.150	0.103
-416.442	452.651	0.014	-0.030
-415.428	-67.785	-0.074	0.029
-414.413	104.244	0.224	-0.261
-413.398	281.466	-0.032	0.057
-412.384	-53.581	-0.256	-0.116
-411.369	-15.244	0.399	0.253
-410.355	800.000	0.047	0.157
-409.340	-41.581	0.113	0.057
-408.325	-152.464	0.271	0.019
-407.311	-104.938	0.214	-0.049
-406.296	-94.523	-0.118	0.032
-405.282	132.722	0.126	-0.160
-404.267	-200.000	0.024	-0.241
-403.252	800.000	-0.035	0.111
-402.238	-200.000	-0.012	-0.263
-401.223	-91.288	-0.199	-0.056
-400.209	140.639	0.157	-0.206
-399.194	547.121	0.091	-0.216
-398.179	-119.062	0.302	0.052
-397.165	-200.000	-0.021	-0.223
-396.150	-118.350	0.219	-0.038
-395.136	-49.351	-0.205	-0.097
-394.121	298.401	-0.035	0.063
-393.106	-200.000	0.022	-0.246
-392.092	-68.759	-0.350	-0.134
-391.077	-200.000	0.004	0.081
-390.063	-70.051	-0.287	-0.108
-389.048	-153.586	0.089	0.006
-388.033	356.607	-0.061	0.119
-387.019	174.907	0.040	-0.057
-386.004	50.564	-0.112	-0.105
-384.990	-200.000	-0.005	-0.183
-383.975	35.098	-0.400	-0.347
-382.960	800.000	-0.026	0.090
-381.946	242.725	-0.077	-0.128
-380.931	37.731	-0.017	0.015
-379.917	450.734	-0.105	-0.230
-378.902	-120.715	-0.102	0.017
-377.888	450.703	0.097	0.211
-376.873	3.113	0.195	0.140
-375.858	-91.809	-0.070	-0.020
-374.844	800.000	-0.033	-0.126
-373.829	16.010	-0.021	0.016
-372.815	346.970	-0.040	-0.078
-371.800	-200.000	-0.000	0.003
-370.785	417.966	-0.058	-0.123
-369.771	-200.000	-0.012	0.182
-368.756	-200.000	0.022	-0.185
-367.742	623.906	-0.132	0.330
-366.727	-58.245	0.321	-0.138
-365.712	-200.000	-0.035	-0.213
-364.698	-200.000	0.029	-0.138
-363.683	-56.958	-0.036	-0.016
-362.669	-117.356	-0.122	-0.022
-361.654	343.125	-0.165	-0.320
-360.639	800.000	-0.093	0.342
-359.625	-200.000	-0.016	0.086
-358.610	-200.000	-0.045	-0.383
-357.596	63.895	0.152	-0.151
-356.581	-170.760	0.271	0.009
-355.566	363.407	0.181	0.360
-354.552	800.000	-0.046	0.177
-353.537	-186.036	0.185	-0.003
-352.523	-68.225	0.364	-0.140
-351.508	47.103	-0.084	0.077
-350.493	-105.017	0.175	0.040
-349.479	97.146	0.229	0.260
-348.464	-163.973	-0.165	0.008
-347.450	-200.000	0.002	-0.086
-346.435	515.890	0.098	0.227
-345.420	-32.834	0.175	0.096
-344.406	800.000	0.048	-0.169
-343.391	800.000	0.068	-0.266
-342.377	-200.000	0.033	-0.165
-341.362	-58.188	-0.318	0.137
-340.348	164.973	-0.073	-0.102
-339.333	800.000	0.019	-0.056
-338.318	63.742	-0.146	-0.145
-337.304	-60.304	-0.086	0.036
-336.289	35.271	-0.229	-0.198
-335.275	-134.820	0.171	0.020
-334.260	114.802	-0.135	-0.162
-333.245	728.720	0.048	-0.127
-332.231	-200.000	-0.004	-0.112
-331.216	46.443	0.288	0.264
-330.202	800.000	0.039	-0.146
-329.187	484.504	-0.047	0.105
-328.172	800.000	0.111	0.456
-327.158	608.643	-0.086	0.212
-326.143	-200.000	-0.019	0.351
-325.129	170.462	0.075	-0.106
-324.114	117.928	-0.063	0.077
-323.099	-137.145	-0.573	0.065
-322.085	-42.045	0.072	0.036
-321.070	-114.912	0.426	-0.080
-320.056	756.953	-0.093	-0.250
-319.041	-200.000	-0.001	-0.049
-318.026	422.583	0.188	0.400
-317.012	196.932	0.043	0.064
-315.997	31.668	-0.188	-0.160
-314.983	45.361	0.213	-0.194
-313.968	608.814	0.112	-0.275
-312.953	-31.535	0.281	0.156
-311.939	-152.093	0.175	-0.013
-310.924	5.460	-0.121	0.088
-309.910	85.349	-0.075	0.081
-308.895	-161.563	-0.272	0.014
-307.880	-91.987	-0.304	-0.085
-306.866	-61.147	0.199	0.083
-305.851	177.025	-0.183	-0.263
-304.837	-52.399	-0.034	-0.015
-303.822	-56.013	-0.088	-0.039
-302.807	-200.000	-0.060	-0.303
-301.793	-2.029	-0.289	0.201
-300.778	41.697	0.202	-0.180
-299.764	-12.344	0.126	-0.081
-298.749	163.680	0.192	-0.267
-297.735	122.910	0.209	-0.258
-296.720	-127.614	0.052	-0.007
-295.705	252.174	-0.165	-0.277
-294.691	-81.963	-0.190	0.061
-293.676	-200.000	-0.007	0.308
-292.662	-98.528	-0.258	-0.065
-291.647	800.000	0.076	0.227
-290.632	-17.415	-0.349	-0.217
-289.618	70.452	0.095	-0.097
-288.603	-19.799	0.168	-0.102
-287.589	86.695	0.197	0.214
-286.574	19.913	-0.332	0.264
-285.559	800.000	-0.081	0.293
-284.545	800.000	-0.080	0.296
-283.530	-200.000	-0.010	-0.304
-282.516	-200.000	-0.029	0.220
-281.501	800.000	-0.116	-0.333
-280.486	-187.560	-0.183	-0.002
-279.472	274.911	0.125	-0.218
-278.457	-149.692	0.489	0.038
-277.443	-200.000	0.000	-0.217
-276.428	67.426	0.120	-0.120
-275.413	-2.992	-0.100	-0.069
-274.399	-196.852	0.394	-0.003
-273.384	-116.694	0.237	-0.043
-272.370	-133.628	0.283	0.035
-271.355	-95.859	-0.144	-0.038
-270.340	85.861	0.163	0.177
-269.326	254.481	0.089	0.150
-268.311	-200.000	0.030	0.257
-267.297	53.725	-0.249	-0.236
-266.282	93.608	0.231	-0.258
-265.267	294.837	-0.033	-0.060
-264.253	-200.000	0.018	-0.119
-263.238	562.362	0.181	0.432
-262.224	62.917	-0.288	-0.284
-261.209	166.634	-0.153	-0.213
-260.195	2.024	0.056	0.040
-259.180	462.051	-0.009	0.021
-258.165	773.285	-0.129	0.347
-257.151	525.356	0.072	0.166
-256.136	103.189	0.079	-0.091
-255.122	800.000	0.082	-0.226
-254.107	800.000	-0.064	0.189
-253.092	-90.025	-0.200	-0.058
-252.078	-200.000	-0.011	-0.084
-251.063	-89.918	-0.021	0.006
-250.049	-83.604	-0.095	0.030
-249.034	72.289	-0.110	0.113
-248.019	-200.000	0.009	0.277
-247.005	114.107	0.045	-0.054
-245.990	261.231	-0.112	0.190
-244.976	558.014	-0.168	0.399
-243.961	107.109	-0.161	0.188
-242.946	133.498	0.170	0.217
-241.932	-196.472	-0.040	0.000
-240.917	182.359	-0.095	0.138
-239.903	55.842	-0.144	0.137
-238.888	409.522	-0.063	-0.131
-237.873	-200.000	0.014	-0.466
-236.859	256.990	-0.106	0.179
-235.844	-72.672	0.184	-0.067
-234.830	-189.932	-0.184	-0.002
-233.815	-126.578	0.178	0.026
-232.800	-15.041	0.348	0.220
-231.786	-200.000	-0.055	0.250
-230.771	142.814	0.146	0.191
-229.757	-200.000	0.063	0.342
-228.742	43.758	0.277	-0.250
-227.727	390.007	-0.188	0.384
-226.713	74.605	-0.220	-0.228
-225.698	-4.045	0.204	-0.139
-224.684	-74.834	-0.073	-0.026
-223.669	-64.468	-0.159	-0.064
-222.655	-200.000	-0.024	0.175
-221.640	18.155	0.264	0.207
-220.625	35.779	-0.192	-0.166
-219.611	-200.000	0.004	-0.359
-218.596	-20.982	0.073	0.044
-217.582	41.208	-0.123	0.109
-216.567	-3.615	0.106	0.072
-215.552	800.000	-0.089	-0.341
-214.538	-200.000	-0.006	-0.077
-213.523	-200.000	0.054	0.321
-212.509	800.000	0.068	0.194
-211.494	-87.023	0.316	-0.095
-210.479	-156.241	0.067	-0.004
-209.465	34.510	-0.182	-0.157
-208.450	358.312	0.089	0.176
-207.436	-200.000	-0.032	-0.164
-206.421	-200.000	0.045	0.404
-205.406	259.582	-0.052	0.088
-204.392	-200.000	-0.005	0.119
-203.377	-101.554	0.065	-0.016
-202.363	-92.969	-0.167	0.046
-201.348	-138.669	0.217	-0.023
-200.333	-114.569	0.104	-0.020
-199.319	407.982	-0.108	0.224
-198.304	67.622	-0.105	-0.106
-197.290	-106.367	0.229	0.050
-196.275	-132.444	-0.274	0.035
-195.260	-104.140	0.081	0.019
-194.246	800.000	-0.120	-0.425
-193.231	-13.483	-0.275	0.175
-192.217	-88.246	0.286	0.084
-191.202	147.738	-0.166	0.219
-190.187	207.697	0.101	0.154
-189.173	286.723	-0.098	-0.173
-188.158	-133.875	-0.266	-0.032
-187.144	-157.944	-0.197	-0.011
-186.129	190.113	-0.083	0.123
-185.114	184.567	0.226	0.329
-184.100	-113.738	0.357	0.068
-183.085	-157.012	0.239	0.014
-182.071	-78.535	0.046	0.015
-181.056	121.908	0.238	0.292
-180.042	-39.169	0.061	-0.032
-179.027	-200.000	-0.001	0.238
-178.012	-200.000	-0.045	0.241
-176.998	46.703	-0.087	-0.080
-175.983	-127.436	0.274	0.039
-174.969	-83.524	0.139	-0.044
-173.954	-128.442	-0.336	-0.047
-172.939	-200.000	0.015	0.127
-171.925	356.994	-0.161	-0.315
-170.910	-121.839	0.127	-0.021
-169.896	69.630	-0.243	-0.246
-168.881	-43.702	0.220	0.109
-167.866	-83.035	-0.501	-0.158
-166.852	-159.853	0.331	-0.018
-165.837	-200.000	-0.043	-0.399
-164.823	-42.638	0.109	0.054
-163.808	40.767	-0.081	0.072
-162.793	-200.000	-0.003	-0.320
-161.779	-17.238	-0.222	0.138
-160.764	-159.063	0.353	-0.020
-159.750	66.560	-0.266	0.266
-158.735	800.000	-0.152	-0.420
-157.720	-74.034	0.298	-0.106
-156.706	66.252	-0.088	0.087
-155.691	29.261	0.072	0.060
-154.677	800.000	-0.033	-0.122
-153.662	-200.000	-0.022	0.171
-152.647	-19.161	-0.109	0.066
-151.633	-200.000	-0.046	0.338
-150.618	-7.141	0.218	0.145
-149.604	-59.365	0.234	-0.099
-148.589	-200.000	-0.014	-0.103
-147.574	-109.849	0.074	-0.015
-146.560	-188.153	-0.057	0.001
-145.545	340.393	0.159	0.305
-144.531	-200.000	0.059	0.370
-143.516	-119.037	0.094	0.016
-142.502	-56.222	0.068	-0.030
-141.487	-47.293	0.078	0.037
-140.472	-72.007	-0.285	-0.104
-139.458	31.563	-0.149	-0.125
-138.443	800.000	0.096	0.352
-137.429	71.978	-0.241	-0.246
-136.414	-34.521	-0.108	0.058
-135.399	-22.464	0.240	-0.142
-134.385	800.000	0.063	-0.222
-133.370	-112.680	0.068	-0.013
-132.356	91.506	0.293	0.323
-131.341	-149.338	-0.244	0.019
-130.326	-200.000	-0.002	-0.180
-129.312	524.653	0.074	0.171
-128.297	-40.670	-0.235	0.119
-127.283	783.755	-0.085	0.229
-126.268	-74.511	-0.572	0.202
-125.253	-200.000	-0.030	-0.387
-124.239	77.292	-0.103	-0.107
-123.224	19.806	0.419	-0.330
-122.210	67.872	0.354	-0.355
-121.195	74.846	-0.191	-0.197
-120.180	-17.785	0.127	-0.078
-119.166	381.043	0.062	-0.124
-118.151	192.554	0.063	0.094
-117.137	81.942	-0.034	-0.036
-116.122	-186.261	0.367	-0.005
-115.107	-17.104	-0.301	0.186
-114.093	-91.032	0.516	-0.145
-113.078	-90.717	0.157	-0.044
-112.064	763.869	-0.011	0.030
-111.049	15.357	-0.238	-0.183
-110.034	531.415	0.208	0.481
-109.020	29.903	0.110	-0.092
-108.005	0.580	-0.108	-0.076
-106.991	-86.380	-0.181	0.055
-105.976	-200.000	0.054	0.308
-104.962	-200.000	-0.008	-0.166
-103.947	54.728	-0.324	-0.306
-102.932	166.778	0.173	-0.241
-101.918	800.000	-0.102	0.342
-100.903	-42.031	0.498	0.250
-99.889	-65.319	0.175	0.069
-98.874	-107.501	0.047	0.010
-97.859	-2.927	-0.112	0.076
-96.845	742.478	0.068	0.179
-95.830	800.000	0.079	-0.229
-94.816	407.363	0.122	-0.252
-93.801	48.064	-0.093	0.085
-92.786	-109.830	-0.134	-0.028
-91.772	286.432	0.231	0.408
-90.757	165.616	0.067	-0.093
-89.743	-1.939	-0.089	0.061
-88.728	800.000	-0.037	-0.122
-87.713	-200.000	0.028	0.293
-86.699	-65.170	-0.166	0.065
-85.684	800.000	-0.095	-0.298
-84.670	-74.251	0.179	-0.063
-83.655	-24.064	0.169	-0.099
-82.640	433.214	0.184	-0.391
-81.626	90.834	-0.106	0.116
-80.611	434.293	-0.134	-0.286
-79.597	-28.582	-0.332	0.187
-78.582	800.000	0.021	0.066
-77.567	-200.000	-0.018	-0.163
-76.553	-92.783	0.200	0.055
-75.538	-200.000	-0.029	-0.296
-74.524	-200.000	0.036	0.187
-73.509	-44.151	-0.150	-0.074
-72.494	26.797	-0.139	-0.114
-71.480	800.000	-0.077	0.248
-70.465	46.385	0.185	0.167
-69.451	800.000	0.094	0.375
-68.436	-44.094	-0.243	0.119
-67.422	11.797	-0.176	0.132
-66.407	90.039	0.150	-0.164
-65.392	8.189	-0.149	-0.109
-64.378	-161.929	0.068	-0.003
-63.363	-200.000	0.019	0.111
-62.349	-109.642	0.154	0.032
-61.334	-36.524	-1.390	-0.731
-60.319	109.343	0.554	0.649
-59.305	-200.000	0.051	-1.135
-58.290	288.602	0.736	1.303
-57.276	800.000	0.376	1.283
-56.261	-200.000	116.409	661.380
-55.246	532.956	1532.353	3545.994
-54.232	176.601	2705.130	3843.490
-53.217	108.495	2182.358	2546.462
-52.203	37.889	1701.189	1477.629
-51.188	29.997	1517.298	1264.234
-50.173	27.706	1492.513	1228.133
-49.159	52.382	1552.704	1447.759
-48.144	50.274	1567.070	1446.651
-47.130	30.177	1522.711	1269.777
-46.115	27.040	1507.372	1235.629
-45.100	26.947	1503.522	1231.797
-44.086	27.021	1501.399	1230.511
-43.071	26.918	1499.654	1228.334
-42.057	26.818	1498.319	1226.514
-41.042	26.806	1496.973	1225.284
-40.027	26.770	1495.530	1223.809
-39.013	26.892	1493.606	1223.010
-37.998	26.760	1493.006	1221.579
-36.984	26.901	1491.126	1220.942
-35.969	26.843	1489.940	1219.535
-34.954	26.804	1488.884	1218.358
-33.940	26.813	1487.911	1217.575
-32.925	26.940	1485.708	1216.572
-31.911	26.860	1484.923	1215.347
-30.896	26.951	1483.076	1214.394
-29.881	26.930	1481.903	1213.250
-28.867	26.871	1481.114	1212.159
-27.852	26.835	1479.879	1210.859
-26.838	26.981	1478.408	1210.582
-25.823	26.983	1476.473	1208.962
-24.809	26.971	1475.393	1207.949
-23.794	26.967	1473.575	1206.384
-22.779	26.912	1472.513	1205.108
-21.765	26.949	1471.385	1204.376
-20.750	26.913	1470.699	1203.530
-19.736	26.910	1469.222	1202.258
-18.721	26.900	1468.365	1201.437
-17.706	26.819	1467.284	1199.968
-16.692	26.875	1466.372	1199.550
-15.677	26.939	1464.783	1198.621
-14.663	26.869	1464.544	1197.920
-13.648	26.772	1463.578	1196.441
-12.633	26.891	1462.307	1196.140
-11.619	26.816	1461.775	1195.165
-10.604	26.824	1460.676	1194.270
-9.590	26.844	1459.598	1193.468
-8.575	26.849	1458.689	1192.716
-7.560	26.865	1457.873	1192.103
-6.546	26.889	1457.203	1191.665
-5.531	26.851	1456.081	1190.449
-4.517	26.836	1455.049	1189.466
-3.502	26.781	1454.378	1188.505
-2.487	26.771	1453.394	1187.590
-1.473	26.807	1452.404	1186.972
-0.458	26.828	1451.094	1185.986
0.556	27.226	1441.193	1175.532
1.571	24.324	1415.922	1136.356
2.586	20.945	1354.970	1066.701
3.600	19.310	1271.779	991.721
4.615	18.035	1227.038	949.667
5.629	15.581	1170.612	892.889
6.644	8.908	1089.207	797.625
7.659	4.064	1052.227	747.148
8.673	3.496	1047.063	740.688
9.688	3.308	1044.243	737.730
10.702	3.261	1042.816	736.430
11.717	3.445	1040.520	735.624
12.731	5.068	1042.011	744.360
13.746	11.774	1050.609	782.611
14.761	17.883	1058.939	818.112
15.775	19.561	1059.722	826.686
16.790	19.030	1058.652	823.239
17.804	18.109	1056.378	816.997
18.819	17.286	1054.503	811.547
19.834	16.771	1053.709	808.406
20.848	16.574	1052.612	806.554
21.863	16.482	1052.134	805.677
22.877	16.223	1051.336	803.764
23.892	16.122	1050.160	802.313
24.907	15.979	1049.582	801.118
25.921	16.032	1048.808	800.708
26.936	15.988	1048.302	800.043
27.950	15.968	1047.138	798.991
28.965	16.087	1045.845	798.493
29.980	16.170	1044.989	798.162
30.994	16.410	1043.371	797.993
32.009	16.330	1042.889	797.173
33.023	16.398	1042.241	796.930
34.038	16.346	1041.451	796.012
35.053	16.261	1040.744	795.000
36.067	16.266	1039.455	793.966
37.082	16.230	1038.652	793.117
38.096	16.188	1038.074	792.406
39.111	16.308	1037.358	792.350
40.126	16.364	1036.344	791.768
41.140	16.258	1034.900	790.100
42.155	16.063	1033.795	788.275
43.169	15.872	1032.826	786.575
44.184	15.829	1031.921	785.615
45.199	15.843	1030.949	784.871
46.213	15.852	1029.807	783.974
47.228	15.993	1028.955	783.913
48.242	16.043	1027.907	783.277
49.257	16.234	1027.043	783.435
50.271	16.153	1025.898	782.120
51.286	16.211	1024.680	781.390
52.301	16.215	1024.113	780.905
53.315	16.324	1023.345	780.755
54.330	16.197	1022.674	779.589
55.344	15.922	1021.956	777.702
56.359	15.988	1020.941	777.164
57.374	15.912	1020.079	776.091
58.388	15.904	1019.206	775.317
59.403	15.987	1018.313	774.953
60.417	16.006	1017.434	774.303
61.432	15.818	1017.255	773.233
62.447	15.878	1016.476	772.851
63.461	15.815	1015.433	771.697
64.476	15.702	1014.492	770.399
65.490	15.724	1013.370	769.579
66.505	15.737	1012.380	768.818
67.520	15.756	1012.339	768.804
68.534	15.837	1010.878	767.998
69.549	15.665	1010.852	767.127
70.563	15.726	1009.843	766.567
71.578	15.740	1008.845	765.807
72.593	15.802	1007.690	765.145
73.607	15.589	1006.952	763.549
74.622	15.715	1005.781	763.165
75.636	15.608	1004.943	761.978
76.651	15.735	1004.380	762.057
77.666	15.602	1003.763	760.920
78.680	15.683	1003.087	760.707
79.695	15.755	1002.481	760.506
80.709	15.735	1001.828	759.853
81.724	15.834	1001.140	759.711
82.739	15.994	1000.297	759.724
83.753	15.914	999.532	758.715
84.768	16.035	999.053	758.831
85.782	16.287	998.101	759.173
86.797	16.285	997.854	758.911
87.812	16.324	997.061	758.416
88.826	16.298	996.086	757.491
89.841	16.145	995.203	756.065
90.855	16.259	994.394	755.893
91.870	16.244	993.867	755.358
92.884	16.400	992.902	755.255
93.899	16.369	992.205	754.521
94.914	16.400	991.670	754.187
95.928	16.450	990.786	753.669
96.943	16.382	990.190	752.849
97.957	16.401	989.298	752.188
98.972	16.362	988.324	751.204
99.987	16.195	987.744	749.957
101.001	16.313	987.091	749.917
102.016	16.236	986.333	748.932
103.030	16.335	985.130	748.393
104.045	16.272	984.194	747.335
105.060	16.384	982.988	746.850
106.074	16.269	982.052	745.567
107.089	16.083	981.015	743.892
108.103	16.028	980.294	743.038
109.118	15.950	979.216	741.810
110.133	15.777	978.545	740.474
111.147	15.854	977.715	740.122
112.162	15.910	976.753	739.571
113.176	15.801	976.221	738.624
114.191	15.947	975.294	738.498
115.206	16.088	974.190	738.213
116.220	15.997	973.854	737.498
117.235	15.977	972.517	736.333
118.249	16.042	972.256	736.355
119.264	16.073	970.856	735.362
120.279	15.860	970.709	734.256
121.293	15.858	969.797	733.494
122.308	15.874	968.720	732.683
123.322	15.760	968.183	731.717
124.337	15.841	966.684	730.871
125.352	15.673	966.018	729.574
126.366	15.769	964.312	728.636
127.381	15.796	963.585	728.139
128.395	15.763	962.443	727.069
129.410	15.851	961.523	726.691
130.424	15.807	960.767	725.866
131.439	15.914	959.274	725.132
132.454	15.859	958.876	724.531
133.468	15.988	958.464	724.710
134.483	15.946	957.520	723.753
135.497	16.003	956.971	723.521
136.512	15.840	956.830	722.650
137.527	16.047	955.147	722.200
138.541	15.972	954.624	721.421
139.556	16.085	953.670	721.120
140.570	15.947	953.587	720.403
141.585	15.956	953.032	719.958
142.600	16.301	952.096	720.660
143.614	16.322	951.708	720.391
144.629	16.383	950.814	719.913
145.643	16.452	950.029	719.546
146.658	16.370	949.418	718.672
147.673	16.181	948.498	717.109
148.687	16.124	947.330	715.918
149.702	16.124	946.418	715.169
150.716	16.199	944.861	714.245
151.731	16.137	944.235	713.449
152.746	16.062	943.981	712.874
153.760	16.120	942.990	712.309
154.775	16.082	942.820	711.957
155.789	16.208	941.688	711.569
156.804	16.314	940.986	711.421
157.819	16.311	940.213	710.765
158.833	16.433	939.346	710.555
159.848	16.415	938.558	709.821
160.862	16.527	938.305	710.038
161.877	16.529	937.658	709.495
162.892	16.182	936.548	707.138
163.906	16.028	935.470	705.614
164.921	16.084	934.942	705.392
165.935	16.102	934.022	704.710
166.950	16.098	933.175	703.992
167.964	16.142	932.108	703.306
168.979	16.228	931.220	702.934
169.994	16.216	929.693	701.670
171.008	16.165	929.199	701.021
172.023	16.322	928.513	701.093
173.037	16.397	927.511	700.585
174.052	16.461	927.131	700.505
175.067	16.392	926.300	699.526
176.081	16.296	925.717	698.627
177.096	16.080	925.080	697.191
178.110	16.121	923.831	696.359
179.125	16.263	922.957	696.223
180.140	16.292	921.854	695.452
181.154	16.156	922.036	694.965
182.169	16.466	920.976	695.379
183.183	16.410	920.727	694.901
184.198	16.498	919.754	694.467
185.213	16.646	919.061	694.488
186.227	16.465	918.787	693.477
187.242	16.557	918.048	693.235
188.256	16.726	917.508	693.456
189.271	16.690	916.881	692.777
190.286	16.797	916.205	692.643
191.300	16.532	915.250	690.776
192.315	16.255	914.537	689.044
193.329	16.110	913.310	687.468
194.344	16.136	913.067	687.333
195.359	16.232	912.968	687.588
196.373	16.448	912.039	687.705
197.388	16.423	912.049	687.550
198.402	16.638	910.944	687.528
199.417	16.774	910.738	687.868
200.432	16.783	910.439	687.617
201.446	16.790	910.186	687.392
202.461	16.983	909.694	687.745
203.475	17.030	908.860	687.242
204.490	17.035	907.890	686.468
205.504	16.774	908.061	685.482
206.519	16.535	906.524	683.294
207.534	16.576	905.721	682.795
208.548	16.608	905.081	682.382
209.563	16.651	904.232	681.853
210.577	16.793	903.560	681.859
211.592	16.707	902.720	680.816
212.607	16.784	902.574	680.955
213.621	16.884	902.029	680.887
214.636	16.990	901.259	680.671
215.650	16.894	900.892	679.947
216.665	16.815	900.677	679.408
217.680	16.998	899.599	679.267
218.694	17.018	899.513	679.225
219.709	17.009	898.913	678.676
220.723	17.211	898.130	678.831
221.738	17.027	897.544	677.592
222.753	17.013	896.707	676.844
223.767	16.900	896.431	676.127
224.782	17.005	895.373	675.685
225.796	17.200	894.423	675.684
226.811	17.259	893.867	675.440
227.826	17.231	893.373	674.896
228.840	17.073	892.446	673.509
229.855	17.078	891.539	672.784
230.869	17.061	891.043	672.283
231.884	17.147	890.443	672.113
232.899	16.763	890.151	670.312
233.913	16.905	889.519	670.337
234.928	16.954	888.407	669.636
235.942	16.882	887.996	668.980
236.957	16.847	886.989	668.028
237.972	16.945	886.521	668.001
238.986	16.907	885.725	667.191
240.001	16.880	885.385	666.770
241.015	16.853	884.923	666.256
242.030	17.095	883.231	665.874
243.045	17.105	883.334	665.932
244.059	17.051	883.377	665.695
245.074	17.142	881.959	664.921
246.088	17.170	881.539	664.657
247.103	17.194	881.260	664.480
248.117	17.188	880.743	664.008
249.132	17.393	880.292	664.412
250.147	17.442	879.751	664.133
251.161	17.697	878.930	664.450
252.176	17.822	878.186	664.318
253.190	17.872	877.290	663.775
254.205	17.796	877.084	663.265
255.220	17.952	876.439	663.322
256.234	17.836	876.286	662.700
257.249	17.859	875.137	661.861
258.263	17.914	874.544	661.567
259.278	17.803	874.808	661.279
260.293	17.895	873.767	660.789
261.307	17.944	872.994	660.336
262.322	17.925	872.318	659.691
263.336	17.904	872.224	659.480
264.351	17.874	871.758	658.956
265.366	17.976	870.669	658.466
266.380	17.974	870.087	657.960
267.395	18.123	869.485	658.021
268.409	17.971	868.524	656.649
269.424	18.010	867.861	656.242
270.439	17.883	866.980	655.027
271.453	17.738	866.479	654.038
272.468	17.895	865.362	653.736
273.482	17.780	864.986	652.955
274.497	17.779	864.445	652.486
275.512	17.825	863.671	652.018
276.526	17.870	862.779	651.460
277.541	17.860	862.141	650.882
278.555	17.778	861.861	650.299
279.570	17.842	861.652	650.330
280.585	18.241	861.069	651.349
281.599	18.227	860.129	650.528
282.614	17.991	859.738	649.279
283.628	17.917	859.203	648.534
284.643	18.020	858.868	648.615
285.657	18.035	858.329	648.209
286.672	18.064	857.416	647.571
287.687	18.123	856.934	647.375
288.701	18.000	856.624	646.617
289.716	18.098	855.580	646.142
290.730	18.151	855.318	646.086
291.745	18.032	854.795	645.185
292.760	18.220	853.734	645.035
293.774	18.233	853.091	644.543
294.789	18.433	852.694	644.937
295.803	18.204	852.534	643.898
296.818	18.114	851.507	642.729
297.833	18.090	850.943	642.156
298.847	18.080	850.461	641.696
299.862	18.121	849.605	641.149
300.876	18.166	849.189	640.947
301.891	18.306	848.245	640.702
302.906	18.332	847.909	640.489
303.920	18.464	847.004	640.241
304.935	18.494	846.825	640.162
305.949	18.497	846.253	639.684
306.964	18.631	845.358	639.448
307.979	18.349	844.789	637.911
308.993	18.501	844.484	638.191
310.008	18.517	843.542	637.483
311.022	18.435	843.410	637.020
312.037	18.743	842.489	637.414
313.052	18.535	841.841	636.096
314.066	18.304	841.193	634.692
315.081	18.326	840.569	634.247
316.095	18.338	840.187	633.946
317.110	18.262	839.475	633.072
318.125	18.374	839.099	633.148
319.139	18.372	838.701	632.784
320.154	18.357	838.112	632.227
321.168	18.303	837.785	631.728
322.183	18.387	837.186	631.529
323.197	18.372	837.118	631.364
324.212	18.369	836.447	630.792
325.227	18.367	835.352	629.903
326.241	18.424	835.260	629.987
327.256	18.536	834.302	629.623
328.270	18.463	833.787	628.908
329.285	18.421	833.577	628.540
330.300	18.511	832.588	628.071
331.314	18.405	832.374	627.463
332.329	18.352	832.114	627.020
333.343	18.670	831.215	627.450
334.358	18.583	830.666	626.660
335.373	18.646	830.200	626.484
336.387	18.798	829.264	626.278
337.402	18.851	828.735	626.012
338.416	18.855	828.613	625.883
339.431	18.817	827.888	625.141
340.446	18.901	827.485	625.087
341.460	19.018	826.980	625.074
342.475	18.864	826.708	624.253
343.489	19.010	825.794	624.040
344.504	19.034	825.674	623.978
345.519	19.134	824.827	623.645
346.533	19.185	824.618	623.617
347.548	19.265	823.867	623.285
348.562	19.112	823.256	622.214
349.577	18.843	822.564	620.664
350.592	18.954	822.089	620.652
351.606	18.866	821.910	620.142
352.621	18.630	821.447	618.889
353.635	18.876	820.715	619.168
354.650	18.799	820.627	618.770
355.665	18.888	820.159	618.684
356.679	19.009	819.502	618.568
357.694	18.988	819.098	618.130
358.708	19.059	818.443	617.839
359.723	19.057	817.660	617.184
360.738	19.023	817.094	616.582
361.752	18.960	816.858	616.124
362.767	19.066	816.289	616.020
363.781	19.008	816.529	615.939
364.796	19.241	815.689	616.083
365.810	19.276	815.499	616.012
366.825	19.331	815.024	615.792
367.840	19.393	814.923	615.883
368.854	19.447	814.279	615.534
369.869	19.314	814.052	614.836
370.883	19.215	813.442	613.966
371.898	19.245	812.730	613.483
372.913	19.436	812.004	613.558
373.927	19.431	811.577	613.163
374.942	19.495	810.729	612.698
375.956	19.513	809.869	612.055
376.971	19.437	809.671	611.583
377.986	19.508	809.234	611.451
379.000	19.543	808.626	611.062
380.015	19.655	808.304	611.159
381.029	19.692	807.807	610.862
382.044	19.548	807.184	609.826
383.059	19.631	806.646	609.660
384.073	19.504	806.334	608.921
385.088	19.573	805.535	608.508
386.102	19.458	804.940	607.598
387.117	19.619	804.159	607.524
388.132	19.410	803.985	606.603
389.146	19.335	803.501	605.920
390.161	19.435	803.408	606.148
391.175	19.490	802.552	605.640
392.190	19.631	802.512	606.050
393.205	19.639	801.597	605.334
394.219	19.689	801.237	605.184
395.234	19.623	800.721	604.512
396.248	19.410	800.271	603.373
397.263	19.431	799.472	602.791
398.278	19.406	799.214	602.455
399.292	19.326	798.584	601.648
400.307	19.310	798.351	601.362
401.321	19.322	797.978	601.071
402.336	19.321	797.821	600.896
403.350	19.338	797.543	600.694
404.365	19.461	797.234	600.834
405.380	19.482	796.590	600.369
406.394	19.720	796.190	600.843
407.409	19.835	795.645	600.776
408.423	19.792	795.395	600.384
409.438	19.883	794.790	600.192
410.453	19.903	794.474	599.971
411.467	20.142	793.709	600.165
412.482	20.064	793.329	599.555
413.496	20.139	792.749	599.325
414.511	20.003	793.032	599.014
415.526	20.181	792.535	599.200
416.540	20.098	791.944	598.416
417.555	20.069	791.354	597.817
418.569	20.000	791.111	597.342
419.584	20.095	790.724	597.322
420.599	20.077	790.306	596.893
421.613	161.791	1371.198	1797.318
422.628	140.142	1455.835	1797.396
