DTS Sentinel unit serial number:	SN413079Multiplexer serial number:	ORYXHardware model number:	OX4-SRSoftware version number:	ORYX F/W v4.00 Oryx Data Collector v3.7.2.0data status	okinstallation	princeton_trtdifferential loss correction	single-endedforward channel	channel 3reverse channel	N/Adate	2019/09/18time	06:40:35forward acquisition time	60.00reverse acquisition time	0.00gamma	496.2192k internal	0.2343k external	0.2343temperature offset calibration	0.9953default loss term (dB/km)	0.3790temperature slope calibration	1.0000multiplexer offset coefficient	1.0000multiplexer slope coefficient	1.0000fibre end	0.00T internal ref (°C)	23.27T ext. ref 1 (°C)	0.19T ext. ref 2 (°C)	17.10length (m)	temperature (°C)	Stokes	anti-Stokes-747.200	87.306	0.102	0.113
-746.185	-56.807	-0.338	0.150
-745.171	622.971	-0.047	0.118
-744.156	-18.579	-0.337	-0.211
-743.142	28.054	-0.096	-0.081
-742.127	-158.231	-0.146	0.009
-741.112	6.879	-0.029	-0.022
-740.098	-101.470	-0.829	-0.202
-739.083	16.773	0.086	0.068
-738.069	143.314	-0.263	0.351
-737.054	-154.642	0.234	-0.016
-736.039	334.561	-0.139	-0.269
-735.025	197.647	0.053	0.082
-734.010	27.733	0.257	-0.217
-732.996	-87.292	-0.699	0.212
-731.981	-163.974	0.251	0.012
-730.966	-24.689	0.122	0.073
-729.952	-26.183	-0.179	0.106
-728.937	230.534	-0.027	0.045
-727.923	-150.649	0.178	0.014
-726.908	-200.000	0.072	0.318
-725.894	345.621	-0.134	-0.264
-724.879	662.485	-0.083	0.213
-723.864	-200.000	-0.003	-0.174
-722.850	-27.420	-0.100	-0.058
-721.835	-151.625	-0.280	0.021
-720.821	64.738	-0.092	-0.093
-719.806	-63.228	-0.252	-0.104
-718.791	-88.417	0.264	-0.079
-717.777	1.732	0.075	-0.054
-716.762	582.608	0.142	0.350
-715.748	-11.836	-0.197	0.129
-714.733	-200.000	-0.032	0.285
-713.718	-200.000	0.019	-0.330
-712.704	276.993	-0.193	0.343
-711.689	-137.352	0.219	-0.025
-710.675	-200.000	-0.223	0.001
-709.660	340.908	-0.134	-0.262
-708.645	-35.488	0.239	-0.130
-707.631	181.888	0.205	0.302
-706.616	371.614	-0.108	-0.220
-705.602	-76.588	-0.029	-0.010
-704.587	-68.330	0.053	-0.020
-703.572	67.112	0.153	-0.156
-702.558	-45.455	0.149	0.074
-701.543	-200.000	-0.028	0.169
-700.529	-119.863	-0.090	0.016
-699.514	800.000	0.037	-0.149
-698.499	252.880	0.145	0.247
-697.485	-98.427	-0.167	0.043
-696.470	12.823	-0.098	0.076
-695.456	-32.531	-0.201	-0.112
-694.441	-22.728	0.071	-0.043
-693.426	-4.063	-0.034	-0.024
-692.412	33.302	-0.303	-0.263
-691.397	516.075	0.058	0.135
-690.383	240.871	0.069	0.116
-689.368	416.282	0.130	-0.276
-688.354	87.781	-0.062	-0.069
-687.339	800.000	-0.031	0.098
-686.324	25.308	0.208	-0.173
-685.310	254.332	-0.245	-0.419
-684.295	-75.861	-0.125	-0.044
-683.281	167.773	-0.137	-0.194
-682.266	4.414	-0.157	-0.115
-681.251	-200.000	0.006	-0.238
-680.237	17.006	0.172	0.136
-679.222	-76.354	-0.183	0.064
-678.208	-173.215	-0.038	0.001
-677.193	21.513	0.130	0.106
-676.178	800.000	-0.020	0.073
-675.164	-200.000	0.033	-0.461
-674.149	-139.316	0.181	0.019
-673.135	-181.911	0.166	-0.003
-672.120	-200.000	0.073	-0.416
-671.105	596.442	-0.091	-0.225
-670.091	800.000	0.124	0.402
-669.076	-51.440	-0.288	0.135
-668.062	-33.214	-0.271	-0.150
-667.047	800.000	0.019	-0.066
-666.032	260.389	-0.173	-0.298
-665.018	-132.032	0.106	0.014
-664.003	343.619	-0.047	0.092
-662.989	-200.000	-0.088	0.398
-661.974	265.398	0.201	0.350
-660.959	-75.328	0.062	0.022
-659.945	-129.637	0.087	0.012
-658.930	-149.615	0.055	-0.004
-657.916	-200.000	-0.045	-0.202
-656.901	38.987	-0.089	0.079
-655.886	-200.000	0.002	-0.097
-654.872	-200.000	0.007	0.048
-653.857	-94.099	0.080	0.022
-652.843	61.346	-0.138	0.137
-651.828	-200.000	0.005	-0.191
-650.814	58.184	-0.098	0.096
-649.799	113.057	0.161	-0.195
-648.784	-200.000	-0.001	0.247
-647.770	20.987	-0.117	-0.095
-646.755	34.739	-0.296	0.258
-645.741	633.946	0.059	-0.148
-644.726	800.000	0.076	0.267
-643.711	24.252	0.038	0.031
-642.697	800.000	-0.017	0.062
-641.682	-67.893	0.441	-0.172
-640.668	306.422	-0.123	0.228
-639.653	75.618	-0.054	0.057
-638.638	-7.895	-0.074	0.050
-637.624	186.947	-0.071	0.106
-636.609	-85.492	0.234	0.073
-635.595	-200.000	0.004	0.083
-634.580	-200.000	0.043	-0.223
-633.565	-200.000	-0.017	-0.117
-632.551	330.593	0.093	-0.179
-631.536	-146.291	-0.532	0.047
-630.522	79.762	0.267	0.286
-629.507	-145.743	-0.256	-0.023
-628.492	-200.000	-0.007	-0.113
-627.478	5.071	0.054	-0.039
-626.463	-22.298	0.327	0.198
-625.449	-200.000	0.011	0.252
-624.434	46.333	0.218	0.202
-623.419	-57.674	-0.211	0.092
-622.405	259.356	-0.064	0.109
-621.390	-88.575	-0.165	0.049
-620.376	-62.776	-0.536	-0.221
-619.361	13.200	0.316	0.244
-618.346	-8.370	-0.062	0.041
-617.332	-122.996	-0.152	-0.024
-616.317	-178.085	0.231	0.005
-615.303	800.000	0.080	-0.272
-614.288	-200.000	-0.077	-0.435
-613.273	377.680	-0.079	-0.161
-612.259	117.807	0.104	0.128
-611.244	85.814	-0.183	-0.200
-610.230	220.842	0.122	0.196
-609.215	-103.508	-0.099	0.023
-608.201	5.850	0.054	-0.040
-607.186	800.000	0.176	-0.521
-606.171	-102.042	0.103	-0.025
-605.157	-200.000	0.025	-0.202
-604.142	-200.000	-0.012	0.383
-603.128	54.462	-0.136	-0.131
-602.113	-46.472	0.225	-0.110
-601.098	-200.000	0.027	0.234
-600.084	-49.246	-0.164	-0.078
-599.069	-200.000	-0.063	0.280
-598.055	-200.000	-0.000	-0.068
-597.040	-200.000	-0.034	-0.254
-596.025	-50.525	-0.348	-0.163
-595.011	-37.311	-0.295	0.157
-593.996	20.645	-0.423	0.341
-592.982	-85.664	-0.155	0.048
-591.967	246.070	-0.127	0.214
-590.952	-77.112	0.158	0.055
-589.938	-114.573	0.272	-0.052
-588.923	148.520	0.089	0.119
-587.909	-48.575	0.118	0.057
-586.894	-8.740	0.168	-0.112
-585.879	-101.298	0.388	0.094
-584.865	36.090	0.145	0.127
-583.850	-200.000	-0.013	0.289
-582.836	-137.209	-0.053	0.006
-581.821	-26.965	-0.127	0.074
-580.806	-5.230	-0.428	0.293
-579.792	-86.513	-0.145	0.044
-578.777	131.721	0.137	0.175
-577.763	60.858	-0.091	-0.090
-576.748	-8.844	0.057	-0.038
-575.733	-200.000	-0.019	-0.135
-574.719	737.397	0.077	-0.206
-573.704	512.252	0.052	0.121
-572.690	230.256	-0.080	0.130
-571.675	-154.093	-0.285	0.019
-570.661	-131.962	-0.262	0.034
-569.646	-34.461	0.173	-0.094
-568.631	79.491	-0.105	0.112
-567.617	-64.712	-0.251	-0.101
-566.602	97.727	0.151	-0.172
-565.588	381.949	0.029	0.060
-564.573	30.790	0.204	0.174
-563.558	235.819	-0.095	0.157
-562.544	-46.690	0.116	-0.056
-561.529	154.918	0.046	-0.063
-560.515	800.000	0.116	0.351
-559.500	-179.273	-0.166	0.004
-558.485	-24.263	0.332	-0.197
-557.471	-200.000	-0.020	0.135
-556.456	-200.000	-0.060	-0.376
-555.442	800.000	-0.044	-0.144
-554.427	-134.558	0.178	0.022
-553.412	-109.688	0.093	0.020
-552.398	-6.947	0.239	-0.161
-551.383	-140.137	0.160	0.017
-550.369	-200.000	-0.059	0.357
-549.354	78.774	-0.177	0.188
-548.339	610.360	0.060	0.148
-547.325	-200.000	0.009	-0.049
-546.310	-75.405	-0.251	-0.089
-545.296	-200.000	-0.014	-0.313
-544.281	800.000	0.032	-0.130
-543.266	-200.000	0.026	-0.220
-542.252	202.025	-0.128	-0.196
-541.237	800.000	-0.016	0.058
-540.223	344.972	-0.089	0.174
-539.208	-61.260	-0.337	0.141
-538.193	-75.305	-0.350	0.124
-537.179	-200.000	-0.023	-0.265
-536.164	-200.000	0.002	-0.392
-535.150	498.499	-0.038	-0.087
-534.135	27.442	-0.228	0.190
-533.121	-53.258	0.075	0.034
-532.106	-44.316	0.318	-0.158
-531.091	180.262	-0.045	-0.066
-530.077	-55.636	-0.159	-0.071
-529.062	800.000	0.013	0.058
-528.048	-200.000	-0.027	-0.206
-527.033	-113.926	0.059	-0.011
-526.018	547.170	0.106	-0.251
-525.004	26.774	0.056	0.047
-523.989	-12.474	0.026	-0.017
-522.975	-40.513	0.221	0.114
-521.960	-200.000	0.075	-0.427
-520.945	-56.436	0.102	-0.045
-519.931	-4.037	0.197	0.135
-518.916	-149.292	0.133	0.010
-517.902	-200.000	-0.024	-0.217
-516.887	-200.000	0.026	-0.182
-515.872	401.118	-0.102	-0.213
-514.858	222.683	-0.035	-0.056
-513.843	-200.000	0.020	0.113
-512.829	-121.842	-0.274	0.045
-511.814	254.453	0.079	0.134
-510.799	800.000	-0.072	-0.270
-509.785	570.381	-0.106	0.257
-508.770	239.071	-0.125	0.206
-507.756	-25.970	0.068	0.040
-506.741	800.000	0.105	0.289
-505.726	20.099	0.253	-0.202
-504.712	75.985	-0.099	-0.104
-503.697	-200.000	-0.062	-0.280
-502.683	309.023	-0.057	-0.106
-501.668	-200.000	-0.009	-0.233
-500.653	259.186	0.226	0.387
-499.639	-183.613	-0.199	0.003
-498.624	-90.002	0.121	-0.035
-497.610	-39.834	-0.111	-0.057
-496.595	-85.412	0.289	0.089
-495.581	-104.370	-0.250	0.058
-494.566	87.936	-0.095	-0.105
-493.551	-14.572	-0.179	-0.114
-492.537	-200.000	-0.038	-0.212
-491.522	-45.947	-0.096	-0.047
-490.508	-200.000	-0.036	-0.206
-489.493	-69.454	-0.207	-0.079
-488.478	-69.396	0.325	-0.124
-487.464	800.000	0.018	0.061
-486.449	-200.000	0.015	0.153
-485.435	196.835	0.178	0.268
-484.420	139.643	0.197	0.257
-483.405	-61.945	0.283	0.117
-482.391	54.073	0.256	0.245
-481.376	70.042	-0.139	0.142
-480.362	-200.000	-0.002	0.125
-479.347	446.412	-0.090	0.195
-478.332	800.000	0.089	-0.381
-477.318	-50.880	-0.348	-0.162
-476.303	-162.181	0.331	0.016
-475.289	-200.000	-0.009	0.296
-474.274	64.801	-0.255	-0.255
-473.259	218.496	-0.146	0.230
-472.245	-200.000	0.012	-0.143
-471.230	105.514	-0.015	0.018
-470.216	-149.571	-0.109	0.009
-469.201	257.293	0.156	-0.265
-468.186	800.000	0.051	-0.166
-467.172	-96.754	0.177	-0.046
-466.157	-24.021	-0.190	-0.112
-465.143	-200.000	0.049	0.290
-464.128	-55.121	0.223	0.099
-463.113	-97.150	0.646	0.167
-462.099	556.576	-0.157	0.376
-461.084	18.726	0.285	0.226
-460.070	-147.813	-0.313	0.026
-459.055	-126.100	-0.197	-0.029
-458.040	8.616	0.348	-0.259
-457.026	-130.892	0.048	-0.006
-456.011	-138.343	0.371	-0.041
-454.997	-32.831	-0.100	-0.055
-453.982	412.377	0.059	-0.124
-452.968	-169.743	0.240	0.009
-451.953	-122.699	-0.173	-0.028
-450.938	70.965	-0.207	-0.213
-449.924	712.291	-0.086	0.226
-448.909	488.166	0.070	0.159
-447.895	-98.473	-0.263	-0.066
-446.880	-99.571	0.235	0.058
-445.865	800.000	0.050	-0.146
-444.851	129.962	-0.065	0.082
-443.836	71.754	-0.082	-0.084
-442.822	213.017	-0.131	-0.204
-441.807	-200.000	-0.017	0.072
-440.792	-112.765	-0.379	-0.074
-439.778	-86.405	0.150	-0.046
-438.763	800.000	-0.018	-0.063
-437.749	-57.719	0.253	0.110
-436.734	348.399	-0.077	-0.151
-435.719	800.000	0.071	-0.246
-434.705	-200.000	0.009	0.149
-433.690	800.000	0.141	0.440
-432.676	274.692	0.071	-0.124
-431.661	800.000	-0.079	0.285
-430.646	-71.564	0.085	0.032
-429.632	-118.165	-0.370	0.065
-428.617	223.383	-0.069	-0.111
-427.603	220.033	0.007	-0.011
-426.588	-200.000	0.006	0.055
-425.573	-22.495	0.205	-0.123
-424.559	220.674	0.238	0.377
-423.544	-200.000	-0.015	-0.125
-422.530	18.024	-0.142	-0.112
-421.515	-200.000	0.063	0.318
-420.500	-68.060	-0.216	-0.083
-419.486	800.000	-0.096	-0.406
-418.471	-200.000	0.030	0.320
-417.457	-105.087	0.270	0.061
-416.442	-27.881	0.070	-0.040
-415.428	-128.583	0.309	0.043
-414.413	-200.000	-0.003	0.078
-413.398	223.901	0.137	0.219
-412.384	-78.624	0.369	-0.125
-411.369	-105.414	0.354	0.080
-410.355	453.188	0.090	-0.197
-409.340	-200.000	-0.050	0.265
-408.325	-129.278	-0.039	0.005
-407.311	198.050	-0.086	-0.130
-406.296	-200.000	0.034	0.181
-405.282	-48.535	-0.358	-0.170
-404.267	-200.000	-0.018	-0.261
-403.252	469.262	-0.090	-0.201
-402.238	-40.311	0.213	0.110
-401.223	800.000	0.043	0.135
-400.209	-56.183	0.336	0.148
-399.194	-175.848	0.296	0.008
-398.179	526.478	0.075	0.173
-397.165	107.883	-0.191	0.225
-396.150	-97.048	0.126	-0.033
-395.136	-16.522	0.213	-0.133
-394.121	-139.219	-0.156	0.017
-393.106	83.467	-0.147	-0.159
-392.092	-200.000	0.016	0.096
-391.077	-16.540	0.256	0.160
-390.063	-55.642	-0.209	0.093
-389.048	800.000	0.030	0.131
-388.033	-200.000	-0.025	-0.126
-387.019	-113.333	0.300	0.058
-386.004	-61.299	-0.344	-0.143
-384.990	-97.466	0.211	0.054
-383.975	181.454	-0.179	0.261
-382.960	539.696	-0.074	-0.173
-381.946	800.000	-0.040	0.129
-380.931	-43.366	-0.493	-0.246
-379.917	-200.000	-0.014	-0.185
-378.902	123.930	0.039	-0.049
-377.888	-57.022	0.026	-0.011
-376.873	-125.281	0.144	0.022
-375.858	-200.000	-0.004	-0.120
-374.844	-200.000	0.066	0.359
-373.829	252.842	0.199	0.336
-372.815	-2.601	-0.023	0.016
-371.800	198.168	-0.069	-0.104
-370.785	8.874	-0.138	-0.102
-369.771	-110.104	0.151	-0.031
-368.756	-21.529	-0.401	-0.241
-367.742	-200.000	-0.001	0.143
-366.727	390.785	0.066	-0.134
-365.712	-134.551	-0.044	0.005
-364.698	-28.624	-0.426	-0.242
-363.683	-139.750	0.157	0.016
-362.669	-111.050	0.155	-0.031
-361.654	176.438	-0.218	-0.313
-360.639	800.000	-0.027	-0.103
-359.625	-48.692	-0.186	0.088
-358.610	44.765	-0.145	0.132
-357.596	62.235	-0.011	-0.011
-356.581	-200.000	0.058	-0.287
-355.566	153.179	0.040	0.053
-354.552	-141.832	-0.328	-0.032
-353.537	-121.948	0.134	-0.022
-352.523	-129.014	-0.286	0.040
-351.508	306.266	0.088	-0.162
-350.493	26.264	0.120	0.099
-349.479	-177.850	-0.202	-0.005
-348.464	-143.854	0.298	0.028
-347.450	-24.943	-0.122	-0.071
-346.435	800.000	0.078	-0.225
-345.420	-120.843	-0.208	-0.035
-344.406	-200.000	0.009	-0.173
-343.391	56.571	-0.200	-0.191
-342.377	800.000	-0.033	-0.099
-341.362	800.000	-0.109	-0.444
-340.348	-114.996	-0.155	-0.029
-339.333	544.164	0.086	0.203
-338.318	528.634	-0.155	-0.362
-337.304	-113.028	0.087	0.017
-336.289	507.302	-0.075	0.170
-335.275	-44.992	0.066	-0.032
-334.260	47.835	-0.211	0.194
-333.245	342.104	0.134	0.258
-332.231	585.138	-0.134	0.325
-331.216	715.858	0.131	-0.343
-330.202	-10.021	0.204	-0.134
-329.187	-82.156	0.328	0.105
-328.172	-144.322	-0.063	0.006
-327.158	-174.867	0.172	-0.005
-326.143	159.802	-0.079	0.108
-325.129	800.000	0.063	-0.219
-324.114	-15.488	-0.146	-0.092
-323.099	-200.000	-0.018	-0.087
-322.085	216.986	0.215	0.337
-321.070	224.217	0.066	-0.105
-320.056	-80.546	-0.275	-0.090
-319.041	3.509	0.262	0.188
-318.026	194.621	-0.092	0.137
-317.012	-163.330	-0.252	0.012
-315.997	410.906	0.074	0.155
-314.983	49.212	0.011	-0.010
-313.968	-200.000	-0.013	0.121
-312.953	-92.176	-0.132	0.037
-311.939	529.611	0.051	-0.118
-310.924	-109.333	0.143	0.030
-309.910	-85.616	-0.429	0.131
-308.895	-200.000	-0.015	-0.334
-307.880	-55.534	0.246	-0.108
-306.866	-58.360	-0.246	0.105
-305.851	800.000	-0.093	-0.373
-304.837	-70.438	-0.358	0.134
-303.822	130.651	0.114	0.144
-302.807	27.827	0.211	0.175
-301.793	108.907	0.233	0.274
-300.778	-58.112	-0.116	0.050
-299.764	-102.290	0.245	0.058
-298.749	800.000	-0.020	0.071
-297.735	396.334	0.165	-0.340
-296.720	-200.000	0.032	0.230
-295.705	-94.536	-0.201	0.054
-294.691	-200.000	0.037	-0.161
-293.676	638.543	-0.074	0.186
-292.662	1.518	0.328	-0.232
-291.647	-200.000	-0.018	-0.124
-290.632	-200.000	0.002	-0.082
-289.618	-42.168	0.225	-0.113
-288.603	121.667	0.125	-0.154
-287.589	129.863	-0.254	-0.320
-286.574	-164.228	0.176	0.008
-285.559	85.531	0.163	-0.177
-284.545	-63.430	0.441	0.178
-283.530	-112.412	0.162	-0.032
-282.516	-127.773	-0.181	-0.026
-281.501	-170.066	-0.035	-0.001
-280.486	-39.146	-0.291	0.150
-279.472	-1.725	-0.217	-0.150
-278.457	133.323	0.010	-0.012
-277.443	-28.101	-0.219	0.125
-276.428	-200.000	-0.025	0.166
-275.413	-90.152	0.030	-0.009
-274.399	-179.165	-0.073	0.002
-273.384	-130.894	-0.264	0.035
-272.370	576.781	0.012	-0.029
-271.355	800.000	0.055	-0.224
-270.340	-32.859	-0.259	-0.141
-269.326	-200.000	-0.005	-0.218
-268.311	-65.031	0.411	0.163
-267.297	-200.000	0.002	0.185
-266.282	33.164	0.057	0.049
-265.267	-200.000	0.010	-0.291
-264.253	10.717	-0.238	0.178
-263.238	74.180	0.117	0.121
-262.224	-158.432	-0.099	-0.006
-261.209	8.364	0.188	0.139
-260.195	-64.699	-0.215	0.086
-259.180	-62.872	0.168	-0.068
-258.165	-99.002	0.283	0.071
-257.151	67.414	0.146	-0.146
-256.136	790.222	0.041	0.111
-255.122	-56.294	0.084	0.037
-254.107	29.980	-0.294	-0.246
-253.092	-200.000	-0.014	0.322
-252.078	-194.304	-0.171	-0.001
-251.063	-55.801	-0.121	0.053
-250.049	665.238	0.060	0.153
-249.034	-49.843	0.047	-0.022
-248.019	214.160	-0.050	0.078
-247.005	394.724	-0.161	0.329
-245.990	800.000	-0.027	-0.074
-244.976	-124.328	-0.167	0.026
-243.961	-200.000	0.092	-0.422
-242.946	198.152	0.094	0.141
-241.932	221.369	0.085	0.134
-240.917	-34.925	-0.163	0.088
-239.903	5.131	0.182	0.132
-238.888	-28.217	-0.157	-0.089
-237.873	459.331	0.014	-0.031
-236.859	-88.034	0.061	0.018
-235.844	-200.000	-0.004	-0.031
-234.830	-200.000	0.001	-0.063
-233.815	428.214	-0.087	0.184
-232.800	-47.312	-0.104	0.049
-231.786	-11.920	-0.293	0.189
-230.771	131.930	-0.154	-0.194
-229.757	665.622	-0.079	0.200
-228.742	95.046	0.213	-0.238
-227.727	-189.237	0.432	0.005
-226.713	-142.632	0.268	0.026
-225.698	-200.000	0.016	-0.261
-224.684	800.000	-0.084	-0.312
-223.669	800.000	0.087	-0.320
-222.655	800.000	-0.086	-0.330
-221.640	-83.471	0.189	-0.059
-220.625	68.076	0.132	-0.133
-219.611	-200.000	0.037	0.170
-218.596	-88.052	-0.218	-0.064
-217.582	-77.669	0.087	-0.030
-216.567	-119.654	0.178	0.030
-215.552	-57.609	-0.134	0.058
-214.538	119.395	-0.306	0.372
-213.523	-150.528	-0.345	0.026
-212.509	7.757	-0.151	-0.111
-211.494	-80.678	-0.089	0.029
-210.479	34.344	-0.209	0.179
-209.465	52.998	0.307	-0.288
-208.450	78.421	-0.073	0.076
-207.436	-200.000	-0.029	-0.150
-206.421	-200.000	0.031	0.197
-205.406	-45.916	-0.077	0.037
-204.392	-24.820	-0.172	-0.100
-203.377	-200.000	-0.002	0.123
-202.363	-62.817	0.273	0.111
-201.348	-200.000	0.021	0.409
-200.333	-6.806	0.351	-0.234
-199.319	-9.489	-0.150	-0.098
-198.304	-132.399	0.016	0.002
-197.290	2.941	-0.095	0.068
-196.275	702.409	0.048	-0.124
-195.260	-2.425	0.296	0.204
-194.246	-3.388	-0.259	0.177
-193.231	300.390	-0.081	0.146
-192.217	-78.086	-0.240	-0.081
-191.202	69.102	-0.151	0.152
-190.187	-107.129	-0.375	0.081
-189.173	-98.727	0.286	-0.072
-188.158	-132.115	0.167	-0.021
-187.144	-85.328	-0.030	-0.009
-186.129	-158.845	-0.396	-0.022
-185.114	800.000	-0.035	-0.098
-184.100	191.380	0.057	0.085
-183.085	25.640	0.137	0.111
-182.071	-133.508	-0.123	-0.015
-181.056	-169.420	-0.158	-0.006
-180.042	-74.032	0.129	0.046
-179.027	-98.531	-0.231	0.058
-178.012	-30.576	-0.132	0.074
-176.998	23.850	-0.117	-0.094
-175.983	-115.672	-0.174	0.032
-174.969	-174.156	-0.093	0.003
-173.954	-144.459	0.263	-0.024
-172.939	-200.000	0.059	-0.261
-171.925	274.005	0.072	-0.125
-170.910	800.000	0.034	0.125
-169.896	-62.402	0.208	-0.085
-168.881	-127.853	-0.340	0.048
-167.866	-45.836	0.252	-0.122
-166.852	6.572	0.210	0.153
-165.837	606.976	0.088	-0.216
-164.823	-31.725	0.286	-0.157
-163.808	-200.000	0.015	0.277
-162.793	-57.059	0.346	-0.149
-161.779	-200.000	-0.031	-0.207
-160.764	-150.395	-0.266	-0.020
-159.750	153.284	0.135	0.180
-158.735	161.820	0.147	0.201
-157.720	-43.594	0.131	-0.065
-156.706	800.000	-0.007	-0.030
-155.691	183.755	0.134	0.194
-154.677	-200.000	0.012	0.357
-153.662	335.784	-0.045	0.086
-152.647	42.990	0.089	-0.079
-151.633	800.000	0.073	-0.295
-150.618	74.881	0.228	-0.235
-149.604	257.446	0.074	-0.124
-148.589	800.000	-0.091	0.246
-147.574	800.000	0.087	0.267
-146.560	684.316	-0.054	-0.139
-145.545	-65.501	0.157	-0.062
-144.531	-85.574	-0.183	-0.056
-143.516	574.638	-0.027	0.065
-142.502	254.217	0.129	-0.216
-141.487	-200.000	0.025	-0.339
-140.472	-88.837	0.326	0.095
-139.458	354.194	0.075	-0.146
-138.443	-200.000	0.085	-0.460
-137.429	-81.784	0.099	-0.032
-136.414	-156.532	-0.258	0.016
-135.399	133.478	-0.105	-0.133
-134.385	800.000	-0.126	-0.508
-133.370	264.700	0.225	-0.383
-132.356	45.702	-0.055	0.049
-131.341	-99.313	0.420	0.104
-130.326	192.349	-0.031	0.046
-129.312	134.319	0.177	-0.225
-128.297	800.000	0.124	0.412
-127.283	62.452	0.081	0.079
-126.268	779.303	-0.070	0.187
-125.253	298.567	0.213	0.383
-124.239	-27.734	-0.208	0.118
-123.224	273.731	-0.189	-0.327
-122.210	-153.951	0.447	0.030
-121.195	77.112	-0.117	0.122
-120.180	-200.000	-0.081	0.394
-119.166	94.357	0.173	0.192
-118.151	800.000	-0.075	-0.272
-117.137	-123.752	0.421	-0.065
-116.122	-64.555	-0.183	0.073
-115.107	-62.441	0.186	-0.076
-114.093	279.673	-0.115	-0.201
-113.078	488.595	-0.063	0.141
-112.064	-192.991	-0.251	0.002
-111.049	-69.610	-0.209	-0.078
-110.034	-57.193	-0.206	0.089
-109.020	-107.213	0.086	-0.018
-108.005	-200.000	0.044	0.000
-106.991	-93.412	0.272	0.074
-105.976	66.922	0.191	0.189
-104.962	639.794	-0.037	-0.091
-103.947	725.947	0.017	-0.045
-102.932	800.000	0.025	0.101
-101.918	-39.101	0.108	-0.055
-100.903	-67.430	0.326	0.125
-99.889	-145.594	0.151	0.013
-98.874	63.550	-0.094	0.092
-97.859	-200.000	-0.011	0.060
-96.845	-10.087	-0.154	-0.100
-95.830	-200.000	0.023	0.362
-94.816	800.000	0.040	-0.134
-93.801	-187.278	-0.293	-0.004
-92.786	-133.711	0.240	-0.029
-91.772	-81.767	-0.077	-0.025
-90.757	164.743	-0.067	-0.092
-89.743	380.438	-0.192	0.384
-88.728	-149.516	0.260	-0.020
-87.713	800.000	0.031	0.091
-86.699	-200.000	0.022	-0.111
-85.684	-86.484	0.270	-0.081
-84.670	-200.000	0.006	0.152
-83.655	449.981	0.074	-0.159
-82.640	800.000	-0.057	0.218
-81.626	800.000	0.048	-0.129
-80.611	115.277	0.203	-0.242
-79.597	-3.346	0.235	0.160
-78.582	507.269	-0.067	0.152
-77.567	17.762	0.224	-0.174
-76.553	-96.323	0.064	-0.017
-75.538	-115.007	-0.095	-0.018
-74.524	-37.420	0.182	-0.095
-73.509	103.154	0.079	0.090
-72.494	-65.298	0.030	0.012
-71.480	-6.306	0.083	0.055
-70.465	-97.445	-0.207	0.053
-69.451	-200.000	-0.000	-0.045
-68.436	-7.235	0.217	0.143
-67.422	58.372	0.145	-0.139
-66.407	-32.771	0.296	0.161
-65.392	-193.930	-0.277	-0.002
-64.378	3.863	0.204	-0.145
-63.363	-200.000	0.003	0.068
-62.349	-200.000	-0.050	0.304
-61.334	113.640	-0.978	-1.159
-60.319	-41.360	0.874	0.439
-59.305	800.000	-0.372	-1.177
-58.290	267.785	0.766	1.307
-57.276	587.471	0.558	1.339
-56.261	-200.000	124.585	646.205
-55.246	404.081	1574.559	3232.004
-54.232	141.838	2736.116	3534.600
-53.217	93.830	2189.991	2419.335
-52.203	33.658	1706.076	1445.653
-51.188	26.217	1523.459	1239.993
-50.173	24.302	1499.880	1207.798
-49.159	48.761	1570.976	1435.947
-48.144	46.012	1583.574	1428.313
-47.130	26.432	1532.829	1248.908
-46.115	23.523	1516.685	1215.801
-45.100	23.336	1513.299	1211.755
-44.086	23.346	1511.533	1210.363
-43.071	23.193	1509.955	1208.007
-42.057	23.183	1507.797	1206.164
-41.042	23.278	1506.126	1205.429
-40.027	23.321	1504.565	1204.419
-39.013	23.174	1503.107	1202.207
-37.998	23.240	1502.160	1201.849
-36.984	23.295	1500.784	1201.075
-35.969	23.245	1499.521	1199.676
-34.954	23.259	1497.659	1198.238
-33.940	23.246	1496.545	1197.212
-32.925	23.206	1495.236	1195.847
-31.911	23.316	1493.569	1195.208
-30.896	23.287	1492.496	1194.103
-29.881	23.265	1491.831	1193.381
-28.867	23.359	1490.040	1192.532
-27.852	23.250	1488.796	1190.756
-26.838	23.291	1487.298	1189.781
-25.823	23.231	1485.559	1187.941
-24.809	23.286	1483.598	1186.698
-23.794	23.390	1482.299	1186.305
-22.779	23.290	1481.354	1184.833
-21.765	23.298	1480.320	1184.017
-20.750	23.357	1479.260	1183.513
-19.736	23.367	1477.954	1182.491
-18.721	23.315	1477.024	1181.349
-17.706	23.282	1476.193	1180.422
-16.692	23.260	1475.094	1179.344
-15.677	23.251	1473.940	1178.317
-14.663	23.292	1472.497	1177.387
-13.648	23.172	1472.522	1176.563
-12.633	23.235	1471.292	1175.951
-11.619	23.312	1469.849	1175.268
-10.604	23.258	1469.502	1174.582
-9.590	23.225	1469.228	1174.099
-8.575	23.251	1467.560	1172.889
-7.560	23.196	1467.120	1172.126
-6.546	23.266	1465.907	1171.577
-5.531	23.294	1464.889	1170.898
-4.517	23.226	1464.308	1169.941
-3.502	23.263	1463.578	1169.555
-2.487	23.238	1462.498	1168.479
-1.473	23.328	1460.942	1167.781
-0.458	23.216	1460.026	1166.271
0.556	21.680	1449.415	1154.875
1.571	18.449	1425.400	1114.657
2.586	15.148	1364.261	1046.165
3.600	13.645	1280.126	972.747
4.615	12.707	1236.764	934.397
5.629	11.164	1180.188	883.214
6.644	5.479	1098.473	793.231
7.659	1.051	1062.664	745.552
8.673	0.272	1057.403	737.981
9.688	0.187	1054.224	735.280
10.702	0.151	1052.791	734.040
11.717	0.160	1050.251	732.246
12.731	2.086	1051.007	742.080
13.746	8.106	1059.556	777.480
14.761	14.157	1067.758	813.088
15.775	16.488	1070.358	826.404
16.790	16.438	1068.617	824.740
17.804	15.408	1066.686	818.160
18.819	14.630	1065.096	813.078
19.834	14.125	1063.797	809.557
20.848	13.948	1062.957	807.984
21.863	13.791	1061.453	806.007
22.877	13.480	1061.569	804.511
23.892	13.285	1060.084	802.368
24.907	13.108	1059.511	801.008
25.921	13.278	1058.148	800.727
26.936	13.319	1057.725	800.536
27.950	13.342	1057.373	800.311
28.965	13.314	1056.646	799.553
29.980	13.321	1055.955	798.996
30.994	13.382	1054.925	798.436
32.009	13.559	1053.622	798.233
33.023	13.534	1052.829	797.443
34.038	13.474	1052.562	796.882
35.053	13.448	1051.662	796.003
36.067	13.427	1050.734	795.132
37.082	13.326	1050.036	794.046
38.096	13.442	1049.268	793.953
39.111	13.467	1048.665	793.548
40.126	13.456	1047.788	792.759
41.140	13.289	1046.888	791.210
42.155	13.421	1045.766	790.920
43.169	13.324	1044.685	789.572
44.184	13.186	1044.021	788.341
45.199	13.101	1042.879	787.004
46.213	13.195	1042.143	786.829
47.228	13.232	1041.147	786.184
48.242	13.286	1039.933	785.452
49.257	13.281	1038.939	784.607
50.271	13.395	1037.646	784.101
51.286	13.244	1037.102	782.907
52.301	13.299	1036.710	782.802
53.315	13.300	1035.366	781.723
54.330	13.434	1034.202	781.409
55.344	13.348	1033.587	780.465
56.359	13.290	1032.562	779.349
57.374	13.302	1031.781	778.747
58.388	13.298	1030.569	777.746
59.403	13.232	1029.969	776.917
60.417	13.218	1029.429	776.373
61.432	13.296	1028.950	776.309
62.447	13.253	1028.086	775.385
63.461	13.056	1027.384	773.865
64.476	13.235	1026.125	773.689
65.490	13.127	1025.324	772.511
66.505	13.218	1024.408	772.175
67.520	13.289	1023.231	771.552
68.534	13.232	1022.970	771.019
69.549	13.189	1021.738	769.822
70.563	13.232	1021.133	769.502
71.578	13.248	1020.586	769.094
72.593	13.202	1019.520	768.010
73.607	13.263	1018.216	767.243
74.622	13.155	1017.731	766.307
75.636	13.068	1017.268	765.486
76.651	13.112	1016.583	765.111
77.666	13.150	1015.472	764.381
78.680	13.286	1014.207	763.988
79.695	13.057	1014.492	763.075
80.709	13.103	1013.439	762.430
81.724	13.307	1012.468	762.571
82.739	13.249	1011.883	761.796
83.753	13.319	1010.813	761.246
84.768	13.405	1010.259	761.160
85.782	13.512	1009.434	760.961
86.797	13.472	1008.531	760.029
87.812	13.422	1008.254	759.524
88.826	13.413	1006.987	758.459
89.841	13.379	1006.238	757.676
90.855	13.334	1005.237	756.646
91.870	13.416	1004.618	756.490
92.884	13.531	1003.788	756.325
93.899	13.454	1003.256	755.505
94.914	13.302	1002.911	754.484
95.928	13.579	1001.427	754.563
96.943	13.535	1000.850	753.861
97.957	13.473	1000.202	753.025
98.972	13.459	999.298	752.211
99.987	13.371	998.668	751.272
101.001	13.393	998.333	751.056
102.016	13.493	997.470	750.790
103.030	13.475	996.428	749.858
104.045	13.422	995.097	748.552
105.060	13.438	994.042	747.767
106.074	13.443	993.389	747.229
107.089	13.294	992.377	745.728
108.103	13.206	992.243	745.165
109.118	13.328	990.941	744.670
110.133	13.340	990.060	743.997
111.147	13.299	989.264	743.150
112.162	13.426	988.052	742.745
113.176	13.413	987.446	742.166
114.191	13.398	986.609	741.404
115.206	13.369	985.789	740.589
116.220	13.467	984.820	740.237
117.235	13.344	983.974	738.983
118.249	13.325	983.053	738.145
119.264	13.173	982.813	737.219
120.279	13.347	981.710	737.101
121.293	13.320	981.030	736.404
122.308	13.408	979.782	735.794
123.322	13.370	978.981	734.958
124.337	13.375	978.106	734.258
125.352	13.358	976.493	732.908
126.366	13.335	975.461	731.968
127.381	13.275	974.855	731.181
128.395	13.264	973.607	730.133
129.410	13.339	972.609	729.652
130.424	13.309	971.817	728.859
131.439	13.391	970.949	728.504
132.454	13.302	970.313	727.573
133.468	13.415	969.342	727.277
134.483	13.487	968.516	726.907
135.497	13.499	968.140	726.616
136.512	13.342	967.191	725.151
137.527	13.424	966.320	724.791
138.541	13.443	965.805	724.424
139.556	13.296	965.492	723.484
140.570	13.393	964.782	723.310
141.585	13.434	963.759	722.658
142.600	13.565	962.496	722.219
143.614	13.459	962.277	721.530
144.629	13.510	961.641	721.211
145.643	13.617	960.540	720.785
146.658	13.593	959.556	719.880
147.673	13.631	958.662	719.311
148.687	13.551	958.046	718.439
149.702	13.534	956.780	717.349
150.716	13.588	956.355	717.201
151.731	13.415	955.703	715.901
152.746	13.568	954.798	715.824
153.760	13.500	954.081	714.930
154.775	13.452	953.468	714.198
155.789	13.493	952.810	713.818
156.804	13.589	951.807	713.415
157.819	13.716	950.573	712.975
158.833	13.654	950.462	712.563
159.848	13.652	949.667	711.895
160.862	13.649	949.318	711.559
161.877	13.665	948.454	710.915
162.892	13.499	947.511	709.434
163.906	13.609	946.767	709.284
164.921	13.717	945.650	708.848
165.935	13.621	944.829	707.759
166.950	13.631	944.044	707.152
167.964	13.609	943.162	706.334
168.979	13.721	941.838	705.758
169.994	13.672	941.090	704.926
171.008	13.673	939.973	704.030
172.023	13.629	939.635	703.531
173.037	13.715	938.944	703.312
174.052	13.735	937.963	702.602
175.067	13.742	937.143	701.953
176.081	13.735	936.663	701.503
177.096	13.751	935.584	700.703
178.110	13.773	935.083	700.357
179.125	13.673	934.145	699.169
180.140	13.772	933.558	699.087
181.154	13.841	932.653	698.636
182.169	13.857	932.078	698.211
183.183	13.767	931.829	697.586
184.198	13.932	930.617	697.308
185.213	13.967	929.850	696.818
186.227	13.877	929.485	696.107
187.242	13.937	928.739	695.739
188.256	14.023	928.156	695.600
189.271	13.998	927.385	694.856
190.286	14.027	926.291	694.095
191.300	13.945	925.723	693.265
192.315	13.910	924.707	692.300
193.329	13.903	924.523	692.072
194.344	13.758	923.975	690.993
195.359	13.679	923.664	690.373
196.373	13.880	923.257	690.844
197.388	14.105	921.957	690.743
198.402	14.113	921.485	690.361
199.417	14.212	921.123	690.443
200.432	14.152	920.830	689.912
201.446	14.155	920.282	689.451
202.461	14.323	919.783	689.714
203.475	14.235	919.159	688.822
204.490	14.232	918.459	688.223
205.504	14.264	917.947	687.911
206.519	14.165	916.612	686.441
207.534	14.076	916.212	685.712
208.548	14.204	915.324	685.513
209.563	14.166	914.562	684.726
210.577	14.262	914.218	684.804
211.592	14.317	913.398	684.356
212.607	14.262	912.715	683.555
213.621	14.346	912.472	683.661
214.636	14.408	911.843	683.384
215.650	14.247	911.213	682.188
216.665	14.466	910.138	682.222
217.680	14.381	910.102	681.784
218.694	14.368	909.763	681.417
219.709	14.417	909.005	680.990
220.723	14.433	908.175	680.375
221.738	14.417	907.540	679.774
222.753	14.408	906.455	678.864
223.767	14.355	906.001	678.246
224.782	14.443	904.834	677.670
225.796	14.600	904.200	677.774
226.811	14.551	903.761	677.186
227.826	14.553	902.986	676.553
228.840	14.649	902.264	676.340
229.855	14.500	901.914	675.415
230.869	14.423	901.272	674.566
231.884	14.547	900.376	674.334
232.899	14.496	899.780	673.623
233.913	14.494	899.200	673.120
234.928	14.507	898.579	672.647
235.942	14.536	897.781	672.110
236.957	14.517	897.255	671.581
237.972	14.571	896.658	671.290
238.986	14.544	895.791	670.474
240.001	14.600	894.958	670.017
241.015	14.622	894.779	669.910
242.030	14.643	893.818	669.218
243.045	14.632	893.039	668.528
244.059	14.648	892.741	668.313
245.074	14.655	892.153	667.841
246.088	14.722	891.577	667.619
247.103	14.701	890.850	666.932
248.117	14.737	890.366	666.654
249.132	14.809	889.649	666.344
250.147	14.875	889.102	666.136
251.161	14.992	888.223	665.885
252.176	14.953	887.702	665.283
253.190	14.959	887.136	664.824
254.205	15.047	886.529	664.660
255.220	14.988	886.127	664.063
256.234	14.927	885.307	663.147
257.249	15.048	884.541	662.995
258.263	14.957	884.287	662.388
259.278	15.195	883.155	662.419
260.293	15.060	882.833	661.586
261.307	15.033	882.360	661.069
262.322	15.237	881.347	661.055
263.336	15.206	880.932	660.561
264.351	15.266	880.454	660.384
265.366	15.233	880.091	659.921
266.380	15.164	879.383	659.060
267.395	15.207	878.682	658.647
268.409	15.282	877.856	658.262
269.424	15.175	877.037	657.171
270.439	15.311	876.452	657.209
271.453	15.352	875.146	656.331
272.468	15.335	874.973	656.077
273.482	15.287	874.080	655.159
274.497	15.311	873.845	655.020
275.512	15.244	872.946	654.027
276.526	15.224	872.587	653.622
277.541	15.357	871.669	653.394
278.555	15.468	870.809	653.123
279.570	15.315	870.933	652.563
280.585	15.364	870.283	652.209
281.599	15.418	869.483	651.762
282.614	15.282	869.132	650.916
283.628	15.483	868.262	650.983
284.643	15.492	867.484	650.378
285.657	15.418	867.160	649.790
286.672	15.421	866.843	649.507
287.687	15.647	865.975	649.672
288.701	15.455	865.521	648.534
289.716	15.392	864.814	647.704
290.730	15.597	864.289	648.043
291.745	15.612	863.671	647.583
292.760	15.518	863.381	646.944
293.774	15.521	862.294	646.084
294.789	15.639	861.739	646.064
295.803	15.678	860.746	645.411
296.818	15.667	860.463	645.101
297.833	15.656	859.845	644.538
298.847	15.706	859.193	644.184
299.862	15.701	858.772	643.794
300.876	15.644	857.727	642.735
301.891	15.707	857.070	642.428
302.906	15.733	856.310	641.899
303.920	15.784	855.764	641.629
304.935	15.836	855.222	641.363
305.949	15.952	854.464	641.178
306.964	15.995	853.678	640.696
307.979	15.778	853.333	639.553
308.993	15.832	853.617	639.918
310.008	15.808	852.744	639.114
311.022	15.936	851.715	638.771
312.037	16.106	851.016	638.835
313.052	15.857	851.149	637.936
314.066	15.923	850.303	637.493
315.081	15.873	849.825	636.890
316.095	15.958	848.892	636.455
317.110	15.844	848.392	635.596
318.125	15.820	847.921	635.093
319.139	15.868	847.364	634.804
320.154	15.894	846.830	634.446
321.168	15.866	846.453	634.001
322.183	16.064	845.791	634.194
323.197	16.012	845.520	633.740
324.212	16.043	844.897	633.331
325.227	16.032	843.969	632.538
326.241	16.116	843.477	632.428
327.256	15.964	843.041	631.476
328.270	16.015	842.576	631.265
329.285	15.971	842.121	630.701
330.300	16.177	841.440	630.905
331.314	16.067	840.947	630.070
332.329	15.963	840.204	629.071
333.343	16.180	839.567	629.345
334.358	16.145	839.126	628.829
335.373	16.193	838.549	628.519
336.387	16.198	837.803	627.924
337.402	16.158	837.543	627.525
338.416	16.313	836.734	627.440
339.431	16.239	836.544	626.967
340.446	16.282	836.120	626.752
341.460	16.412	835.186	626.480
342.475	16.313	834.550	625.581
343.489	16.375	834.001	625.341
344.504	16.506	833.644	625.506
345.519	16.472	833.346	625.099
346.533	16.546	832.451	624.645
347.548	16.564	832.044	624.350
348.562	16.631	831.200	623.911
349.577	16.385	831.141	622.904
350.592	16.451	830.171	622.366
351.606	16.438	830.005	622.138
352.621	16.393	829.420	621.477
353.635	16.375	829.140	621.147
354.650	16.534	829.023	621.589
355.665	16.559	828.398	621.158
356.679	16.512	827.905	620.560
357.694	16.628	827.375	620.534
358.708	16.548	826.522	619.546
359.723	16.706	826.031	619.702
360.738	16.626	825.303	618.807
361.752	16.465	825.441	618.268
362.767	16.662	824.687	618.370
363.781	16.720	824.346	618.268
364.796	16.673	823.956	617.750
365.810	16.719	823.377	617.431
366.825	16.792	822.837	617.235
367.840	16.872	822.637	617.324
368.854	16.888	821.937	616.803
369.869	16.708	821.709	615.919
370.883	16.933	820.740	615.959
371.898	16.829	820.489	615.335
372.913	16.860	819.557	614.696
373.927	16.961	819.178	614.722
374.942	16.817	818.979	613.999
375.956	17.013	817.776	613.752
376.971	17.005	817.490	613.454
377.986	16.918	817.243	612.899
379.000	16.990	816.363	612.443
380.015	17.024	816.137	612.343
381.029	17.229	815.263	612.371
382.044	17.045	814.814	611.318
383.059	16.991	814.170	610.584
384.073	16.992	813.932	610.356
385.088	17.136	813.420	610.437
386.102	17.087	812.741	609.697
387.117	17.198	812.060	609.532
388.132	17.074	811.910	608.920
389.146	17.009	811.606	608.406
390.161	17.046	811.171	608.158
391.175	17.095	810.637	607.880
392.190	17.146	810.064	607.577
393.205	17.176	809.840	607.463
394.219	17.176	809.293	607.000
395.234	17.128	808.747	606.364
396.248	17.204	808.363	606.295
397.263	17.068	807.888	605.398
398.278	17.078	807.580	605.150
399.292	17.141	806.866	604.788
400.307	17.193	806.417	604.582
401.321	17.195	806.082	604.283
402.336	17.155	805.812	603.887
403.350	17.242	805.187	603.673
404.365	17.326	804.689	603.544
405.380	17.294	804.386	603.149
406.394	17.468	803.692	603.195
407.409	17.362	803.526	602.639
408.423	17.439	803.294	602.684
409.438	17.463	802.241	601.926
410.453	17.551	802.221	602.169
411.467	17.367	802.084	601.362
412.482	17.624	800.968	601.381
413.496	17.475	800.978	600.808
414.511	17.550	800.485	600.649
415.526	17.530	799.927	600.108
416.540	17.436	799.998	599.777
417.555	17.553	799.150	599.499
418.569	17.521	798.883	599.134
419.584	17.685	797.852	598.884
420.599	17.682	797.696	598.703
421.613	113.729	1297.742	1487.593
422.628	97.969	1370.562	1487.652
