DTS Sentinel unit serial number:	SN413079Multiplexer serial number:	ORYXHardware model number:	OX4-SRSoftware version number:	ORYX F/W v4.00 Oryx Data Collector v3.7.2.0data status	okinstallation	princeton_trtdifferential loss correction	single-endedforward channel	channel 3reverse channel	N/Adate	2019/09/12time	17:18:11forward acquisition time	60.00reverse acquisition time	0.00gamma	496.2192k internal	0.2314k external	0.2314temperature offset calibration	1.0082default loss term (dB/km)	0.3790temperature slope calibration	1.0000multiplexer offset coefficient	1.0000multiplexer slope coefficient	1.0000fibre end	0.00T internal ref (°C)	35.02T ext. ref 1 (°C)	2.80T ext. ref 2 (°C)	28.84length (m)	temperature (°C)	Stokes	anti-Stokes-747.200	800.000	-0.047	0.202
-746.185	-42.409	-0.114	0.059
-745.171	-53.409	0.487	0.226
-744.156	-200.000	-0.007	0.465
-743.142	19.286	-0.187	0.153
-742.127	-3.917	-0.045	0.031
-741.112	-85.440	-0.157	-0.050
-740.098	505.411	-0.187	0.440
-739.083	371.498	-0.172	0.354
-738.069	800.000	0.115	0.386
-737.054	-200.000	-0.017	-0.100
-736.039	140.645	-0.216	0.290
-735.025	420.343	0.254	0.552
-734.010	-25.164	0.262	-0.157
-732.996	-200.000	-0.006	0.150
-731.981	100.680	-0.187	-0.220
-730.966	546.319	-0.019	-0.046
-729.952	-200.000	0.025	-0.259
-728.937	22.468	0.049	-0.040
-727.923	-200.000	0.012	0.374
-726.908	800.000	-0.128	-0.446
-725.894	366.200	0.123	-0.252
-724.879	-109.394	-0.125	-0.027
-723.864	-110.396	0.265	0.056
-722.850	150.951	0.147	0.203
-721.835	74.837	0.132	-0.141
-720.821	-43.859	-0.275	-0.140
-719.806	-200.000	-0.006	-0.030
-718.791	-33.219	0.141	0.079
-717.777	-102.418	-0.306	-0.074
-716.762	338.774	0.226	0.445
-715.748	490.006	-0.129	-0.300
-714.733	451.951	0.063	-0.141
-713.718	-103.615	0.188	0.045
-712.704	-126.972	0.158	0.024
-711.689	-68.017	0.106	0.042
-710.675	137.937	0.235	-0.312
-709.660	16.103	0.062	0.050
-708.645	-164.097	0.256	0.012
-707.631	-200.000	0.007	-0.066
-706.616	-200.000	-0.097	-0.429
-705.602	-200.000	-0.081	-0.399
-704.587	169.058	-0.064	-0.092
-703.572	113.353	0.246	0.302
-702.558	-161.910	-0.136	-0.007
-701.543	116.222	0.032	0.040
-700.529	155.912	0.175	-0.245
-699.514	-200.000	0.004	0.557
-698.499	-6.786	0.219	0.151
-697.485	222.470	0.030	-0.050
-696.470	156.772	-0.239	-0.334
-695.456	273.096	-0.069	-0.124
-694.441	-200.000	0.012	-0.066
-693.426	-200.000	0.026	0.127
-692.412	-51.709	0.058	-0.027
-691.397	-127.356	0.031	0.005
-690.383	-171.909	-0.126	-0.004
-689.368	800.000	0.029	-0.082
-688.354	2.950	-0.107	-0.079
-687.339	-83.517	-0.086	-0.028
-686.324	-200.000	0.086	0.413
-685.310	781.392	-0.143	0.395
-684.295	7.258	-0.260	-0.196
-683.281	800.000	-0.029	0.122
-682.266	-105.244	-0.094	0.022
-681.251	-24.504	0.228	0.137
-680.237	-67.230	-0.225	-0.089
-679.222	800.000	0.053	-0.148
-678.208	-134.974	0.363	-0.044
-677.193	490.207	-0.091	0.211
-676.178	-200.000	0.015	-0.107
-675.164	592.372	0.020	0.051
-674.149	-91.270	0.439	-0.127
-673.135	-123.503	-0.270	-0.043
-672.120	-200.000	0.022	-0.321
-671.105	118.320	0.167	0.208
-670.091	-116.864	-0.172	-0.032
-669.076	-76.046	-0.269	0.096
-668.062	45.321	-0.083	0.078
-667.047	611.089	-0.100	-0.252
-666.032	-67.756	0.087	-0.034
-665.018	-79.360	0.104	0.035
-664.003	5.085	-0.213	0.158
-662.989	-200.000	-0.000	-0.110
-661.974	-94.868	-0.109	0.030
-660.959	21.612	-0.203	-0.167
-659.945	473.981	0.101	-0.229
-658.930	-37.955	0.109	0.059
-657.916	-200.000	0.014	-0.091
-656.901	-200.000	-0.044	-0.197
-655.886	15.390	0.277	-0.219
-654.872	194.921	-0.069	-0.106
-653.857	546.676	0.043	0.105
-652.843	274.637	-0.111	-0.198
-651.828	306.372	-0.093	-0.176
-650.814	-162.584	-0.051	0.003
-649.799	-121.345	0.086	0.015
-648.784	-149.247	0.401	-0.032
-647.770	-98.738	-0.320	0.082
-646.755	42.657	-0.426	-0.391
-645.741	-125.463	-0.272	-0.042
-644.726	663.934	0.069	-0.180
-643.711	-141.830	0.142	0.014
-642.697	-2.242	0.126	-0.089
-641.682	-71.444	0.259	0.098
-640.668	-176.002	-0.249	-0.007
-639.653	-103.757	-0.375	-0.089
-638.638	-133.058	-0.234	-0.030
-637.624	-4.765	-0.438	-0.305
-636.609	-89.484	-0.233	0.069
-635.595	-92.183	0.205	-0.058
-634.580	-200.000	-0.029	-0.158
-633.565	-64.031	-0.142	-0.058
-632.551	4.359	-0.124	-0.092
-631.536	123.822	0.015	0.019
-630.522	85.687	0.202	-0.224
-629.507	-73.932	-0.427	-0.156
-628.492	275.428	-0.061	-0.109
-627.478	15.542	-0.130	0.103
-626.463	800.000	0.074	0.252
-625.449	233.257	0.039	-0.065
-624.434	-31.363	0.269	-0.153
-623.419	186.114	-0.053	0.079
-622.405	-27.040	-0.265	0.156
-621.390	-200.000	-0.017	0.222
-620.376	-145.985	-0.151	0.014
-619.361	-200.000	-0.038	-0.284
-618.346	-200.000	0.011	-0.390
-617.332	-200.000	-0.007	-0.041
-616.317	-200.000	0.050	0.226
-615.303	-15.466	0.135	0.087
-614.288	800.000	0.099	0.283
-613.273	26.556	0.293	-0.248
-612.259	-99.710	0.055	-0.014
-611.244	-35.995	-0.266	0.145
-610.230	751.209	0.037	0.100
-609.215	-145.308	-0.072	-0.007
-608.201	316.791	-0.090	-0.171
-607.186	-125.631	-0.180	0.028
-606.171	-26.299	0.024	0.014
-605.157	-62.800	-0.319	-0.133
-604.142	-105.182	-0.169	-0.039
-603.128	41.895	0.165	-0.151
-602.113	-47.951	-0.052	-0.026
-601.098	-28.705	0.187	0.109
-600.084	-41.363	0.135	-0.070
-599.069	98.095	0.169	0.196
-598.055	-29.232	0.075	0.043
-597.040	17.434	0.420	-0.336
-596.025	-135.096	0.117	-0.014
-595.011	-172.357	-0.130	-0.004
-593.996	-81.934	0.457	-0.151
-592.982	-200.000	0.065	0.339
-591.967	82.280	0.152	0.166
-590.952	-200.000	-0.075	-0.383
-589.938	87.362	-0.113	0.126
-588.923	-91.366	-0.303	-0.087
-587.909	-151.582	0.372	-0.028
-586.894	-81.365	0.565	0.188
-585.879	198.373	0.113	-0.174
-584.865	83.372	-0.090	0.099
-583.850	-52.889	0.306	-0.142
-582.836	-200.000	-0.042	0.214
-581.821	-200.000	-0.007	-0.102
-580.806	355.201	-0.307	-0.616
-579.792	615.710	-0.051	0.128
-578.777	114.909	-0.433	0.532
-577.763	-49.946	-0.092	-0.044
-576.748	0.735	0.208	0.150
-575.733	-17.685	-0.077	-0.049
-574.719	-140.100	-0.105	-0.011
-573.704	800.000	0.072	0.283
-572.690	209.701	0.039	-0.061
-571.675	800.000	-0.043	-0.168
-570.661	471.207	0.094	0.213
-569.646	468.146	0.075	0.170
-568.631	800.000	-0.017	-0.064
-567.617	-138.574	0.083	0.009
-566.602	-86.741	0.481	-0.148
-565.588	106.207	-0.206	-0.245
-564.573	-170.253	0.226	-0.008
-563.558	301.113	0.032	0.059
-562.544	59.423	-0.091	0.090
-561.529	-43.357	0.232	-0.118
-560.515	-200.000	-0.028	-0.134
-559.500	-101.580	-0.121	-0.030
-558.485	800.000	0.083	-0.235
-557.471	-150.185	-0.304	-0.024
-556.456	800.000	0.135	0.402
-555.442	-200.000	0.008	0.076
-554.427	-151.244	0.258	-0.019
-553.412	-105.927	0.166	-0.038
-552.398	10.865	0.295	-0.227
-551.383	482.292	0.032	-0.072
-550.369	-168.384	-0.039	-0.001
-549.354	-60.624	-0.387	0.165
-548.339	630.171	-0.144	-0.367
-547.325	286.752	-0.091	0.165
-546.310	-60.535	-0.191	-0.082
-545.296	-200.000	0.001	0.071
-544.281	174.441	-0.094	0.137
-543.266	-200.000	-0.006	-0.060
-542.252	800.000	-0.056	-0.185
-541.237	23.437	-0.386	-0.319
-540.223	800.000	0.035	0.112
-539.208	-16.086	0.296	-0.189
-538.193	800.000	0.103	-0.307
-537.179	286.366	0.053	-0.097
-536.164	59.136	-0.303	-0.300
-535.150	-108.386	-0.063	0.014
-534.135	-125.084	0.253	0.039
-533.121	-81.634	0.267	-0.088
-532.106	-31.346	-0.119	0.067
-531.091	89.008	-0.105	-0.117
-530.077	-200.000	-0.030	-0.222
-529.062	-96.066	-0.262	0.070
-528.048	743.209	0.069	-0.187
-527.033	382.877	-0.090	0.186
-526.018	19.499	-0.121	0.097
-525.004	-200.000	-0.029	0.382
-523.989	-16.949	-0.118	0.075
-522.975	-200.000	0.006	0.121
-521.960	-200.000	0.025	0.313
-520.945	67.478	-0.105	0.108
-519.931	800.000	-0.052	0.161
-518.916	-200.000	-0.008	-0.096
-517.902	800.000	-0.071	0.215
-516.887	-155.769	-0.261	0.017
-515.872	458.741	0.082	-0.184
-514.858	212.870	-0.214	-0.339
-513.843	-200.000	0.020	0.207
-512.829	-82.161	-0.384	0.126
-511.814	-4.896	-0.164	0.113
-510.799	-89.278	-0.226	0.067
-509.785	-139.142	0.265	-0.029
-508.770	-200.000	-0.029	0.218
-507.756	-200.000	0.063	0.356
-506.741	-111.828	0.186	0.038
-505.726	-200.000	0.010	0.097
-504.712	-52.928	-0.114	-0.052
-503.697	800.000	-0.083	-0.261
-502.683	41.888	-0.106	-0.096
-501.668	-49.373	0.305	0.146
-500.653	800.000	0.069	-0.229
-499.639	-78.106	-0.223	-0.077
-498.624	371.205	-0.179	0.365
-497.610	317.460	0.114	-0.217
-496.595	41.412	-0.171	-0.156
-495.581	-133.690	-0.302	-0.038
-494.566	800.000	-0.087	0.355
-493.551	15.786	0.093	0.073
-492.537	-120.569	0.210	-0.036
-491.522	800.000	-0.061	-0.264
-490.508	69.523	0.142	0.147
-489.493	422.146	-0.089	-0.191
-488.478	50.253	-0.268	-0.255
-487.464	16.411	-0.106	-0.084
-486.449	-151.427	-0.074	0.005
-485.435	87.450	-0.081	-0.090
-484.420	-143.704	-0.159	-0.015
-483.405	24.132	-0.296	-0.246
-482.391	-104.523	-0.117	0.027
-481.376	115.331	0.031	0.038
-480.362	470.929	0.012	0.026
-479.347	-200.000	-0.030	0.342
-478.332	795.991	0.095	-0.262
-477.318	-117.298	-0.158	0.029
-476.303	-92.952	0.066	0.019
-475.289	693.587	0.145	-0.381
-474.274	-103.948	0.493	0.116
-473.259	-46.906	-0.107	0.052
-472.245	-200.000	-0.004	0.216
-471.230	-200.000	-0.035	0.169
-470.216	293.389	0.163	0.299
-469.201	-200.000	-0.005	0.065
-468.186	-136.625	-0.105	-0.012
-467.172	475.885	-0.156	0.353
-466.157	-200.000	-0.011	-0.309
-465.143	75.043	-0.160	0.169
-464.128	297.215	-0.094	-0.174
-463.113	-86.914	0.043	0.013
-462.099	-104.485	0.213	0.049
-461.084	-200.000	-0.045	-0.317
-460.070	391.645	-0.027	0.056
-459.055	-200.000	0.006	-0.092
-458.040	-168.912	0.154	-0.006
-457.026	-173.358	0.122	-0.004
-456.011	554.309	-0.121	-0.293
-454.997	225.412	-0.153	-0.249
-453.982	-200.000	0.002	-0.045
-452.968	800.000	-0.127	0.535
-451.953	-42.486	0.406	-0.208
-450.938	-200.000	0.017	-0.120
-449.924	-72.503	-0.304	0.113
-448.909	402.868	0.029	0.062
-447.895	662.319	-0.055	0.141
-446.880	-68.472	-0.238	-0.093
-445.865	122.523	-0.134	0.168
-444.851	544.063	0.066	-0.158
-443.836	-185.589	0.098	0.001
-442.822	216.282	0.077	-0.123
-441.807	-200.000	-0.000	-0.020
-440.792	308.013	0.041	0.076
-439.778	22.943	0.104	-0.085
-438.763	218.466	0.119	0.191
-437.749	800.000	-0.069	-0.206
-436.734	-86.931	-0.186	-0.057
-435.719	70.257	0.176	0.183
-434.705	-12.087	0.246	0.161
-433.690	-161.972	0.144	0.007
-432.676	-75.515	-0.231	0.082
-431.661	-82.244	-0.100	0.032
-430.646	174.399	0.163	0.237
-429.632	197.403	0.088	-0.135
-428.617	-3.041	-0.351	0.245
-427.603	130.756	0.066	0.085
-426.588	-118.638	0.185	-0.033
-425.573	-3.922	-0.531	0.369
-424.559	487.187	-0.074	0.170
-423.544	-104.079	0.173	-0.040
-422.530	140.229	-0.018	-0.024
-421.515	-169.346	0.225	-0.008
-420.500	-200.000	0.024	0.109
-419.486	26.020	-0.045	-0.037
-418.471	-91.343	-0.415	-0.119
-417.457	-200.000	0.000	0.013
-416.442	61.505	0.153	0.152
-415.428	405.070	-0.122	-0.258
-414.413	-200.000	-0.009	0.339
-413.398	55.177	-0.276	0.267
-412.384	115.237	0.255	0.312
-411.369	-59.712	-0.090	-0.039
-410.355	304.763	-0.157	0.293
-409.340	27.567	0.329	0.277
-408.325	-72.960	-0.310	-0.114
-407.311	106.535	0.099	0.117
-406.296	497.929	-0.039	0.089
-405.282	-187.278	-0.218	-0.003
-404.267	-200.000	-0.011	0.292
-403.252	214.953	-0.152	0.241
-402.238	199.416	0.218	0.334
-401.223	-130.341	-0.482	0.065
-400.209	-8.960	-0.143	-0.096
-399.194	15.471	0.072	0.056
-398.179	-41.961	-0.098	-0.050
-397.165	-185.173	-0.257	-0.004
-396.150	-200.000	-0.024	-0.127
-395.136	-161.401	0.321	-0.017
-394.121	291.386	-0.091	0.165
-393.106	-48.402	-0.270	0.130
-392.092	-200.000	-0.004	0.143
-391.077	225.327	-0.034	-0.055
-390.063	-104.721	-0.216	0.050
-389.048	-115.021	-0.290	-0.055
-388.033	-200.000	-0.010	-0.171
-387.019	-185.615	0.049	0.001
-386.004	-200.000	0.031	0.194
-384.990	66.920	-0.255	-0.260
-383.975	-200.000	0.031	0.275
-382.960	-23.455	-0.327	0.196
-381.946	-63.687	0.125	-0.051
-380.931	-155.497	-0.115	0.007
-379.917	-4.072	-0.142	-0.098
-378.902	-74.155	0.476	-0.172
-377.888	800.000	0.040	-0.171
-376.873	34.363	0.219	0.191
-375.858	484.129	-0.185	-0.420
-374.844	800.000	-0.065	-0.186
-373.829	-182.255	-0.239	-0.004
-372.815	-116.439	0.255	-0.047
-371.800	148.997	-0.249	0.336
-370.785	-200.000	-0.018	-0.211
-369.771	-12.753	0.169	0.110
-368.756	219.281	-0.167	0.267
-367.742	-200.000	-0.022	-0.188
-366.727	-167.851	-0.091	0.004
-365.712	-200.000	-0.005	-0.120
-364.698	-200.000	-0.024	0.393
-363.683	-200.000	-0.009	0.129
-362.669	-200.000	0.045	-0.341
-361.654	-100.992	0.373	-0.091
-360.639	195.636	-0.075	0.113
-359.625	-81.363	0.241	-0.079
-358.610	-144.509	0.096	-0.009
-357.596	46.089	-0.142	0.131
-356.581	-26.234	-0.074	-0.043
-355.566	-54.710	0.104	-0.047
-354.552	109.377	-0.223	-0.267
-353.537	70.584	-0.101	-0.104
-352.523	470.787	-0.130	-0.293
-351.508	718.765	-0.038	-0.100
-350.493	-200.000	0.006	-0.050
-349.479	22.274	-0.172	-0.140
-348.464	-124.099	-0.241	0.038
-347.450	-52.256	0.173	-0.080
-346.435	163.368	0.170	0.238
-345.420	-71.548	0.335	0.125
-344.406	-72.144	0.198	0.073
-343.391	78.273	0.458	-0.488
-342.377	407.730	0.140	-0.295
-341.362	55.023	-0.007	0.007
-340.348	-200.000	0.060	0.437
-339.333	-166.313	-0.286	-0.012
-338.318	43.499	0.145	-0.132
-337.304	119.375	0.116	-0.143
-336.289	782.629	0.021	0.059
-335.275	-200.000	0.049	0.332
-334.260	-156.168	-0.153	0.010
-333.245	499.001	-0.095	-0.219
-332.231	226.573	0.080	0.129
-331.216	-59.513	-0.313	-0.134
-330.202	-29.195	0.323	0.184
-329.187	5.350	0.222	-0.164
-328.172	-200.000	-0.022	0.199
-327.158	-200.000	-0.006	0.361
-326.143	32.384	0.328	0.283
-325.129	-21.059	-0.221	-0.135
-324.114	-116.032	-0.355	-0.066
-323.099	-158.817	0.229	0.013
-322.085	-200.000	0.000	-0.166
-321.070	95.665	0.115	-0.131
-320.056	77.272	0.075	0.079
-319.041	-200.000	-0.004	-0.257
-318.026	800.000	-0.056	-0.229
-317.012	298.566	0.104	0.190
-315.997	-200.000	-0.094	0.507
-314.983	-200.000	0.049	0.216
-313.968	-28.610	0.128	0.074
-312.953	-200.000	-0.024	-0.179
-311.939	-200.000	-0.043	0.387
-310.924	11.458	0.216	0.165
-309.910	800.000	-0.014	0.054
-308.895	175.353	0.193	0.279
-307.880	143.855	0.100	0.133
-306.866	-158.612	0.082	0.005
-305.851	-36.563	0.195	-0.105
-304.837	158.241	0.109	0.151
-303.822	-54.475	0.136	-0.061
-302.807	48.715	-0.185	0.173
-301.793	108.538	0.103	-0.122
-300.778	800.000	-0.094	0.315
-299.764	-78.529	-0.240	-0.082
-298.749	126.688	-0.084	-0.107
-297.735	-121.500	0.294	-0.049
-296.720	-200.000	-0.025	-0.223
-295.705	-62.269	-0.325	0.135
-294.691	64.713	0.081	-0.082
-293.676	217.691	-0.224	0.357
-292.662	717.036	-0.055	-0.145
-291.647	-4.309	-0.160	-0.110
-290.632	-39.912	-0.332	-0.172
-289.618	112.442	0.156	-0.188
-288.603	26.416	0.096	-0.080
-287.589	-200.000	0.004	0.342
-286.574	-200.000	0.020	0.217
-285.559	-72.434	-0.403	-0.149
-284.545	93.613	0.162	0.183
-283.530	-200.000	-0.011	-0.331
-282.516	-157.940	-0.277	0.016
-281.501	-99.497	0.344	0.086
-280.486	-67.147	-0.073	0.029
-279.472	-200.000	-0.054	0.259
-278.457	237.734	0.122	0.201
-277.443	786.889	-0.086	-0.235
-276.428	-200.000	0.106	-0.000
-275.413	-104.472	-0.156	0.036
-274.399	-200.000	-0.005	0.173
-273.384	745.864	0.139	-0.371
-272.370	9.452	0.219	0.165
-271.355	-1.589	-0.145	0.102
-270.340	-66.246	0.089	0.035
-269.326	-85.745	0.044	-0.013
-268.311	-15.880	-0.047	-0.030
-267.297	191.217	0.134	-0.201
-266.282	-200.000	-0.004	-0.101
-265.267	-10.012	-0.165	-0.109
-264.253	-102.423	0.047	0.011
-263.238	85.075	0.163	0.178
-262.224	-113.920	-0.145	0.028
-261.209	419.607	0.015	0.031
-260.195	636.801	-0.047	0.120
-259.180	182.144	0.076	-0.111
-258.165	-200.000	-0.027	-0.160
-257.151	-200.000	-0.007	-0.263
-256.136	160.895	0.095	0.133
-255.122	498.146	0.032	0.074
-254.107	22.921	0.221	0.181
-253.092	121.183	-0.201	-0.249
-252.078	55.428	0.152	0.147
-251.063	-200.000	-0.056	0.426
-250.049	-164.142	0.291	-0.013
-249.034	-200.000	0.058	0.283
-248.019	179.289	-0.096	0.140
-247.005	800.000	-0.049	0.188
-245.990	-200.000	0.006	0.141
-244.976	281.033	-0.075	-0.133
-243.961	-54.874	0.458	0.206
-242.946	85.953	-0.214	0.234
-241.932	-200.000	0.025	0.322
-240.917	-200.000	0.011	-0.196
-239.903	-48.620	-0.321	0.153
-238.888	-37.919	0.197	0.104
-237.873	158.927	0.076	0.105
-236.859	332.425	0.116	-0.223
-235.844	199.729	0.142	-0.217
-234.830	123.389	0.104	-0.130
-233.815	-150.224	0.091	-0.007
-232.800	-137.447	0.298	-0.034
-231.786	-94.463	-0.468	0.127
-230.771	-69.955	0.192	-0.073
-229.757	-126.410	-0.085	0.013
-228.742	-13.588	-0.017	-0.011
-227.727	98.387	-0.174	-0.199
-226.713	-67.504	-0.197	-0.077
-225.698	-73.774	0.224	-0.081
-224.684	-89.270	0.191	-0.056
-223.669	-52.851	-0.197	-0.090
-222.655	800.000	-0.039	-0.146
-221.640	-111.550	0.386	0.078
-220.625	-44.248	0.096	0.048
-219.611	-68.099	0.161	-0.062
-218.596	365.729	0.155	0.311
-217.582	-200.000	-0.055	-0.446
-216.567	-56.227	0.243	-0.107
-215.552	13.498	0.101	-0.078
-214.538	250.999	0.079	-0.134
-213.523	800.000	0.030	0.097
-212.509	64.621	0.145	-0.145
-211.494	115.596	0.092	0.112
-210.479	229.890	0.136	0.221
-209.465	675.092	0.093	-0.241
-208.450	74.871	0.155	0.162
-207.436	-69.569	0.184	0.070
-206.421	43.045	-0.064	-0.058
-205.406	400.087	0.043	-0.089
-204.392	800.000	0.097	-0.336
-203.377	800.000	-0.042	-0.138
-202.363	-200.000	0.095	-0.465
-201.348	-200.000	-0.039	-0.249
-200.333	800.000	0.139	0.445
-199.319	-3.595	0.204	-0.140
-198.304	-200.000	-0.002	-0.236
-197.290	29.822	-0.202	-0.171
-196.275	389.077	-0.112	0.231
-195.260	-90.861	-0.339	-0.097
-194.246	-36.628	0.080	-0.043
-193.231	119.811	-0.136	-0.167
-192.217	-107.216	0.079	-0.017
-191.202	-200.000	-0.013	0.189
-190.187	-153.685	0.139	-0.009
-189.173	-40.006	-0.285	0.147
-188.158	-16.040	0.092	-0.058
-187.144	445.619	-0.029	0.064
-186.129	800.000	-0.107	-0.419
-185.114	-200.000	-0.029	0.206
-184.100	97.221	-0.278	0.317
-183.085	800.000	-0.049	-0.140
-182.071	-134.865	-0.427	-0.051
-181.056	322.106	0.241	-0.455
-180.042	-16.036	0.179	0.113
-179.027	354.642	0.103	0.202
-178.012	800.000	-0.049	0.183
-176.998	-145.738	0.307	0.027
-175.983	21.291	-0.164	-0.132
-174.969	-104.910	0.378	-0.086
-173.954	-23.284	-0.078	-0.047
-172.939	800.000	-0.027	-0.114
-171.925	59.180	0.153	-0.149
-170.910	-90.211	0.217	-0.062
-169.896	-82.841	-0.463	0.148
-168.881	-90.824	0.265	-0.076
-167.866	48.321	0.260	-0.242
-166.852	800.000	0.104	-0.312
-165.837	-200.000	-0.002	0.238
-164.823	33.197	-0.207	-0.178
-163.808	-191.762	0.227	-0.002
-162.793	-17.927	0.267	-0.166
-161.779	-188.783	0.122	-0.001
-160.764	-200.000	-0.017	0.320
-159.750	-40.966	0.171	0.088
-158.735	-20.607	0.196	-0.120
-157.720	13.759	0.183	0.141
-156.706	-114.945	0.021	-0.004
-155.691	-40.394	0.130	-0.067
-154.677	347.424	-0.093	-0.181
-153.662	-27.938	0.273	0.156
-152.647	763.717	-0.035	-0.094
-151.633	-200.000	0.004	-0.257
-150.618	-128.891	-0.141	-0.020
-149.604	800.000	-0.088	0.254
-148.589	-129.725	0.241	0.033
-147.574	-200.000	-0.013	-0.304
-146.560	-79.815	0.139	-0.046
-145.545	-133.491	0.128	-0.016
-144.531	-48.381	-0.162	0.077
-143.516	-41.296	-0.555	-0.283
-142.502	302.940	0.140	-0.256
-141.487	9.827	0.014	0.011
-140.472	-93.839	-0.138	0.038
-139.458	287.291	0.093	-0.167
-138.443	-200.000	0.004	-0.197
-137.429	800.000	-0.016	-0.054
-136.414	50.141	0.294	-0.275
-135.399	186.022	-0.191	-0.282
-134.385	-200.000	0.005	-0.058
-133.370	800.000	-0.074	-0.206
-132.356	759.154	0.128	-0.344
-131.341	800.000	-0.041	-0.144
-130.326	124.220	-0.207	0.257
-129.312	-136.273	0.118	0.014
-128.297	43.434	0.171	-0.155
-127.283	-186.905	-0.010	-0.000
-126.268	52.283	0.159	-0.151
-125.253	-200.000	-0.023	0.268
-124.239	724.469	-0.052	0.136
-123.224	-12.778	0.213	0.137
-122.210	800.000	-0.127	-0.361
-121.195	-50.984	-0.185	-0.086
-120.180	-107.552	0.056	-0.012
-119.166	-119.422	-0.047	0.008
-118.151	-73.529	0.320	-0.116
-117.137	48.527	0.267	0.248
-116.122	99.152	0.055	-0.062
-115.107	-200.000	-0.009	0.290
-114.093	-67.646	-0.178	0.069
-113.078	97.038	0.282	0.320
-112.064	-200.000	0.029	0.189
-111.049	-84.733	0.179	-0.056
-110.034	192.929	0.028	0.042
-109.020	97.262	-0.176	0.200
-108.005	288.409	0.120	-0.215
-106.991	23.831	0.250	0.204
-105.976	320.396	0.164	0.308
-104.962	58.736	0.024	0.023
-103.947	-200.000	-0.061	0.342
-102.932	115.773	0.205	0.248
-101.918	-126.043	0.158	-0.023
-100.903	-143.197	-0.324	0.031
-99.889	313.562	-0.176	-0.327
-98.874	-51.288	-0.127	-0.059
-97.859	164.036	0.085	-0.118
-96.845	-200.000	0.043	-0.231
-95.830	-82.524	0.245	0.079
-94.816	67.171	-0.369	0.372
-93.801	-124.614	0.236	0.036
-92.786	-200.000	-0.065	0.307
-91.772	-107.211	0.464	-0.101
-90.757	61.797	-0.223	0.219
-89.743	251.306	0.092	0.155
-88.728	70.330	0.108	-0.110
-87.713	68.241	0.190	0.192
-86.699	-121.215	-0.375	-0.062
-85.684	354.242	0.084	0.164
-84.670	104.318	0.278	-0.323
-83.655	-200.000	0.034	0.252
-82.640	-200.000	0.029	0.197
-81.626	-102.524	-0.257	-0.061
-80.611	20.513	-0.107	0.086
-79.597	387.783	0.070	-0.143
-78.582	-38.572	-0.423	-0.221
-77.567	-72.489	-0.059	0.022
-76.553	-42.501	-0.226	0.114
-75.538	88.863	0.097	0.106
-74.524	120.151	0.069	0.085
-73.509	800.000	0.074	0.311
-72.494	619.354	0.126	0.314
-71.480	-66.984	0.232	0.090
-70.465	-36.857	-0.116	0.061
-69.451	-141.820	0.171	-0.017
-68.436	800.000	0.057	0.234
-67.422	-68.474	0.254	0.097
-66.407	-25.489	0.175	-0.102
-65.392	56.199	0.163	-0.157
-64.378	650.007	0.073	-0.185
-63.363	186.059	-0.126	-0.185
-62.349	44.735	-0.159	0.144
-61.334	-1.604	-1.082	-0.753
-60.319	57.292	0.312	0.300
-59.305	449.223	-0.330	-0.719
-58.290	711.039	0.306	0.799
-57.276	704.723	0.520	1.355
-56.261	-200.000	96.730	587.206
-55.246	565.348	1379.769	3301.923
-54.232	154.488	2576.230	3491.391
-53.217	115.195	2176.322	2622.587
-52.203	45.520	1715.647	1563.454
-51.188	38.116	1526.851	1340.758
-50.173	35.736	1499.644	1300.737
-49.159	55.870	1550.629	1483.837
-48.144	59.242	1570.395	1525.864
-47.130	38.550	1524.762	1341.686
-46.115	35.309	1509.280	1305.984
-45.100	35.077	1506.238	1301.722
-44.086	35.115	1504.146	1300.118
-43.071	34.916	1502.814	1297.563
-42.057	35.092	1499.895	1296.183
-41.042	34.946	1499.541	1294.839
-40.027	34.973	1497.836	1293.502
-39.013	35.066	1496.407	1292.840
-37.998	34.955	1495.288	1291.072
-36.984	34.923	1494.400	1290.043
-35.969	35.033	1492.647	1289.220
-34.954	34.998	1491.056	1287.556
-33.940	34.964	1489.619	1286.038
-32.925	34.972	1488.654	1285.205
-31.911	35.076	1487.206	1284.602
-30.896	35.096	1485.736	1283.419
-29.881	35.046	1484.987	1282.386
-28.867	35.138	1482.984	1281.220
-27.852	35.035	1481.761	1279.422
-26.838	35.097	1479.996	1278.259
-25.823	35.059	1478.950	1277.055
-24.809	35.056	1477.188	1275.463
-23.794	35.104	1475.799	1274.531
-22.779	35.088	1475.045	1273.725
-21.765	35.139	1473.932	1273.048
-20.750	35.033	1473.016	1271.503
-19.736	35.054	1471.730	1270.484
-18.721	34.978	1470.785	1269.112
-17.706	34.995	1469.659	1268.201
-16.692	35.014	1468.297	1267.105
-15.677	34.927	1467.776	1266.027
-14.663	35.004	1466.528	1265.410
-13.648	35.016	1465.274	1264.358
-12.633	34.912	1464.767	1263.181
-11.619	35.004	1463.335	1262.508
-10.604	34.972	1462.806	1261.788
-9.590	34.989	1461.631	1260.836
-8.575	34.956	1461.035	1260.053
-7.560	35.074	1459.823	1259.735
-6.546	35.002	1459.291	1258.755
-5.531	35.001	1458.506	1258.018
-4.517	34.984	1457.412	1256.911
-3.502	34.964	1456.341	1255.807
-2.487	34.969	1455.766	1255.298
-1.473	34.897	1454.384	1253.586
-0.458	34.988	1452.887	1252.837
0.556	35.584	1443.238	1240.041
1.571	32.211	1415.810	1194.964
2.586	28.004	1354.058	1117.095
3.600	25.884	1271.413	1036.638
4.615	24.135	1225.324	989.265
5.629	20.503	1168.395	923.950
6.644	11.171	1083.090	810.207
7.659	4.057	1041.669	745.029
8.673	2.996	1036.183	735.959
9.688	2.835	1032.253	732.333
10.702	2.659	1030.938	730.497
11.717	2.711	1028.867	729.211
12.731	5.737	1032.403	746.075
13.746	14.962	1045.794	799.986
14.761	23.406	1056.623	848.823
15.775	25.965	1058.980	862.904
16.790	26.323	1058.903	864.478
17.804	26.193	1058.101	863.126
18.819	25.947	1057.266	861.193
19.834	26.098	1056.604	861.298
20.848	26.383	1056.057	862.133
21.863	26.269	1056.303	861.717
22.877	26.376	1055.657	861.621
23.892	26.134	1055.298	860.101
24.907	26.222	1054.104	859.468
25.921	26.311	1053.332	859.189
26.936	26.335	1052.795	858.786
27.950	26.212	1051.757	857.282
28.965	26.181	1050.607	856.119
29.980	26.105	1048.833	854.240
30.994	26.234	1047.498	853.688
32.009	26.340	1047.144	853.824
33.023	26.362	1046.668	853.465
34.038	26.139	1045.397	851.297
35.053	26.080	1045.216	850.797
36.067	26.287	1043.923	850.644
37.082	26.344	1042.845	849.961
38.096	26.169	1042.856	849.070
39.111	26.485	1042.022	849.801
40.126	26.540	1041.632	849.667
41.140	26.418	1039.997	847.685
42.155	26.232	1038.562	845.570
43.169	25.917	1037.364	843.048
44.184	26.030	1036.442	842.751
45.199	25.994	1035.301	841.583
46.213	25.817	1034.526	840.050
47.228	25.963	1033.773	840.047
48.242	26.034	1032.872	839.568
49.257	26.165	1032.309	839.646
50.271	26.072	1031.826	838.750
51.286	26.280	1031.306	839.218
52.301	26.326	1030.503	838.700
53.315	26.309	1029.546	837.771
54.330	26.353	1028.749	837.249
55.344	26.138	1028.067	835.626
56.359	26.227	1026.756	834.900
57.374	26.285	1026.444	834.840
58.388	26.028	1025.306	832.652
59.403	25.941	1024.961	831.898
60.417	26.008	1024.095	831.429
61.432	25.791	1023.223	829.649
62.447	25.835	1022.545	829.231
63.461	26.020	1021.846	829.443
64.476	26.077	1021.211	829.115
65.490	25.906	1020.528	827.699
66.505	25.809	1019.610	826.439
67.520	26.026	1018.512	826.471
68.534	26.053	1018.447	826.465
69.549	25.982	1017.035	824.924
70.563	25.670	1015.389	822.088
71.578	25.461	1015.161	820.877
72.593	25.540	1014.227	820.410
73.607	25.424	1012.658	818.542
74.622	25.316	1012.038	817.473
75.636	25.591	1012.006	818.630
76.651	25.788	1011.337	818.912
77.666	25.830	1009.638	817.655
78.680	25.615	1009.131	816.196
79.695	25.520	1008.901	815.506
80.709	25.751	1007.999	815.752
81.724	25.873	1006.982	815.409
82.739	25.927	1006.204	814.951
83.753	25.800	1005.499	813.734
84.768	26.168	1005.301	815.165
85.782	26.366	1004.668	815.470
86.797	26.493	1004.190	815.583
87.812	26.712	1003.039	815.563
88.826	26.379	1002.214	813.323
89.841	26.530	1001.038	812.974
90.855	26.450	1000.860	812.398
91.870	26.627	999.697	812.176
92.884	26.524	999.376	811.382
93.899	26.431	998.544	810.217
94.914	26.305	997.658	808.861
95.928	26.506	996.763	808.966
96.943	26.568	995.865	808.442
97.957	26.102	995.135	805.698
98.972	25.943	993.836	803.864
99.987	25.767	993.094	802.408
101.001	25.944	992.533	802.672
102.016	26.072	992.216	802.916
103.030	26.126	990.964	802.072
104.045	26.233	989.586	801.358
105.060	26.017	988.896	799.770
106.074	25.877	987.677	798.096
107.089	25.959	987.061	797.890
108.103	26.192	986.640	798.512
109.118	26.264	986.293	798.475
110.133	25.979	984.776	795.922
111.147	25.932	983.498	794.611
112.162	25.893	982.445	793.517
113.176	25.536	981.652	791.236
114.191	25.811	981.023	791.867
115.206	25.908	980.292	791.635
116.220	25.574	978.969	789.031
117.235	25.388	978.050	787.404
118.249	25.625	977.548	787.969
119.264	25.584	977.105	787.364
120.279	25.551	976.106	786.341
121.293	25.597	975.247	785.782
122.308	25.633	974.401	785.189
123.322	25.651	973.992	784.869
124.337	25.633	972.469	783.491
125.352	25.488	971.855	782.297
126.366	25.008	970.069	778.706
127.381	24.914	968.432	776.913
128.395	25.261	968.493	778.401
129.410	26.127	968.006	781.692
130.424	25.997	968.116	781.149
131.439	26.202	966.942	781.020
132.454	26.013	965.889	779.282
133.468	25.926	965.675	778.668
134.483	26.080	964.451	778.275
135.497	26.128	963.597	777.722
136.512	26.350	963.079	778.192
137.527	26.548	962.074	778.162
138.541	26.333	962.425	777.453
139.556	26.316	960.967	776.134
140.570	26.399	960.203	775.805
141.585	26.535	959.213	775.520
142.600	26.676	958.780	775.700
143.614	26.438	958.281	774.213
144.629	26.532	956.828	773.370
145.643	26.733	956.556	773.941
146.658	26.627	955.575	772.629
147.673	26.339	954.558	770.509
148.687	26.326	953.213	769.300
149.702	26.261	951.869	767.870
150.716	26.274	950.956	767.121
151.731	26.031	950.196	765.408
152.746	26.129	949.769	765.413
153.760	26.337	949.264	765.819
154.775	26.478	948.245	765.525
155.789	26.572	947.615	765.348
156.804	26.470	946.985	764.340
157.819	26.412	945.711	763.000
158.833	26.533	945.023	762.887
159.848	26.669	943.877	762.467
160.862	26.743	943.619	762.502
161.877	26.714	942.525	761.428
162.892	26.572	941.588	760.008
163.906	26.588	940.657	759.259
164.921	26.643	939.903	758.814
165.935	26.397	938.766	756.796
166.950	26.536	937.635	756.400
167.964	26.669	936.385	755.881
168.979	26.568	935.723	754.857
169.994	26.460	935.164	753.890
171.008	26.316	934.141	752.400
172.023	26.315	933.796	752.051
173.037	26.693	932.640	752.624
174.052	26.485	931.710	750.944
175.067	26.198	930.653	748.835
176.081	26.157	929.898	747.992
177.096	26.331	928.790	747.755
178.110	26.338	928.116	747.174
179.125	26.195	927.358	745.906
180.140	25.924	926.448	743.990
181.154	25.797	925.953	743.005
182.169	26.084	925.727	743.938
183.183	26.212	925.220	743.992
184.198	26.509	924.637	744.683
185.213	26.490	923.814	743.873
186.227	26.506	923.230	743.404
187.242	26.415	922.996	742.775
188.256	26.503	922.316	742.524
189.271	26.558	921.327	741.889
190.286	26.574	920.664	741.356
191.300	26.332	920.045	739.799
192.315	25.783	918.545	736.286
193.329	25.001	916.660	731.517
194.344	24.773	915.524	729.614
195.359	25.324	916.085	732.245
196.373	26.110	916.565	735.771
197.388	26.545	916.262	737.235
198.402	26.345	915.793	735.977
199.417	26.270	915.168	735.106
200.432	26.433	914.848	735.444
201.446	26.353	913.874	734.272
202.461	25.944	913.203	732.008
203.475	26.084	912.568	732.002
204.490	25.665	910.969	728.959
205.504	24.581	909.067	722.988
206.519	24.882	908.683	723.835
207.534	25.821	909.672	728.359
208.548	26.061	908.835	728.592
209.563	26.374	908.499	729.522
210.577	26.443	907.662	729.062
211.592	26.089	906.780	726.864
212.607	26.540	906.911	728.721
213.621	26.730	906.266	728.903
214.636	26.580	905.759	727.828
215.650	26.550	905.225	727.213
216.665	26.453	904.985	726.567
217.680	26.518	904.535	726.402
218.694	26.519	904.040	725.943
219.709	26.530	902.833	724.956
220.723	26.048	901.907	722.219
221.738	26.077	901.682	722.091
222.753	26.304	900.996	722.383
223.767	26.414	899.908	721.888
224.782	26.332	899.746	721.367
225.796	26.584	899.348	721.988
226.811	26.797	898.530	722.115
227.826	26.406	897.345	719.543
228.840	25.478	895.759	714.521
229.855	25.489	895.140	714.008
230.869	25.607	894.842	714.177
231.884	25.312	894.070	712.327
232.899	25.552	893.401	712.683
233.913	26.245	893.749	715.642
234.928	26.454	893.232	715.993
235.942	26.238	892.558	714.533
236.957	26.332	892.044	714.433
237.972	26.016	890.736	712.076
238.986	25.877	890.252	711.077
240.001	26.073	889.985	711.575
241.015	26.198	889.167	711.346
242.030	26.022	888.628	710.161
243.045	26.191	888.147	710.380
244.059	26.340	887.884	710.691
245.074	26.531	887.579	711.134
246.088	26.588	886.281	710.255
247.103	26.127	885.571	707.818
248.117	26.257	884.690	707.560
249.132	26.672	885.042	709.404
250.147	26.949	885.001	710.393
251.161	27.123	884.463	710.580
252.176	27.275	884.000	710.737
253.190	27.361	883.160	710.336
254.205	27.325	882.800	709.841
255.220	27.596	882.799	710.834
256.234	27.545	881.799	709.768
257.249	27.330	881.257	708.431
258.263	27.334	880.426	707.716
259.278	27.193	880.127	706.867
260.293	27.348	879.789	707.134
261.307	27.308	879.482	706.668
262.322	27.449	878.238	706.153
263.336	27.259	877.543	704.798
264.351	26.750	876.305	701.770
265.366	25.811	874.026	696.253
266.380	25.096	873.666	693.142
267.395	26.124	873.655	697.043
268.409	26.909	873.776	700.110
269.424	26.860	873.197	699.397
270.439	26.875	873.335	699.503
271.453	26.916	872.506	698.935
272.468	27.118	871.685	698.993
273.482	27.239	871.339	699.118
274.497	27.336	870.919	699.092
275.512	27.208	869.856	697.686
276.526	26.543	868.552	694.030
277.541	26.625	868.168	693.974
278.555	27.207	868.007	696.015
279.570	26.970	867.692	694.793
280.585	26.868	866.595	693.464
281.599	27.029	865.954	693.505
282.614	26.971	865.687	693.007
283.628	26.645	864.446	690.708
284.643	26.244	863.739	688.554
285.657	26.591	863.713	689.795
286.672	26.476	863.079	688.790
287.687	26.038	862.058	686.247
288.701	26.377	862.292	687.662
289.716	26.854	861.579	688.846
290.730	26.595	860.326	686.802
291.745	26.248	860.036	685.191
292.760	26.142	859.092	683.979
293.774	26.007	858.710	683.104
294.789	26.951	859.389	687.157
295.803	27.594	859.301	689.459
296.818	27.589	858.858	689.026
297.833	27.667	858.260	688.780
298.847	27.451	857.269	687.108
299.862	27.133	855.921	684.769
300.876	27.293	855.944	685.328
301.891	27.599	855.443	686.019
302.906	27.703	854.914	685.926
303.920	27.271	854.162	683.639
304.935	27.103	853.337	682.287
305.949	27.501	853.127	683.551
306.964	27.676	852.837	683.915
307.979	27.428	851.647	681.974
308.993	27.330	851.605	681.510
310.008	27.579	850.845	681.775
311.022	27.839	850.832	682.677
312.037	27.685	850.099	681.450
313.052	27.405	849.229	679.651
314.066	27.115	848.810	678.171
315.081	26.550	847.169	674.696
316.095	25.924	845.647	671.092
317.110	26.437	846.066	673.278
318.125	27.276	846.637	676.793
319.139	26.843	845.266	674.031
320.154	25.687	843.864	668.561
321.168	25.273	842.601	665.963
322.183	25.877	843.086	668.529
323.197	26.843	843.563	672.435
324.212	27.077	843.294	673.026
325.227	27.095	843.317	673.053
326.241	27.343	842.232	673.045
327.256	27.279	841.640	672.275
328.270	27.127	841.039	671.173
329.285	27.068	840.373	670.365
330.300	26.909	839.725	669.204
331.314	26.740	839.056	667.989
332.329	26.927	838.308	668.021
333.343	27.220	838.288	669.026
334.358	27.601	837.660	669.864
335.373	27.531	837.377	669.324
336.387	27.535	836.739	668.769
337.402	27.828	836.167	669.326
338.416	28.096	835.896	670.030
339.431	27.920	835.453	668.973
340.446	28.028	834.877	668.849
341.460	28.071	834.687	668.795
342.475	28.196	833.776	668.462
343.489	27.868	833.430	666.927
344.504	27.829	832.739	666.173
345.519	28.188	832.478	667.215
346.533	28.416	832.212	667.772
347.548	28.448	831.496	667.254
348.562	28.332	831.405	666.701
349.577	28.334	830.426	665.866
350.592	28.221	829.825	664.915
351.606	28.210	829.334	664.422
352.621	28.190	829.007	664.028
353.635	28.221	828.095	663.349
354.650	28.020	828.221	662.665
355.665	27.573	827.067	660.065
356.679	26.708	825.282	655.452
357.694	26.643	824.777	654.759
358.708	27.170	824.984	656.772
359.723	27.267	824.125	656.377
360.738	27.345	824.050	656.541
361.752	27.861	823.887	658.216
362.767	27.980	823.562	658.324
363.781	28.294	823.172	659.087
364.796	28.468	823.483	659.901
365.810	28.616	822.899	659.910
366.825	28.672	822.443	659.687
367.840	28.678	821.976	659.277
368.854	28.533	821.335	658.181
369.869	28.198	820.477	656.237
370.883	27.879	819.659	654.379
371.898	28.111	819.108	654.714
372.913	28.194	818.140	654.177
373.927	27.958	818.229	653.348
374.942	28.050	817.131	652.742
375.956	28.299	816.911	653.395
376.971	28.369	816.546	653.295
377.986	28.440	816.049	653.092
379.000	28.620	815.910	653.567
380.015	28.660	815.281	653.148
381.029	28.492	814.744	652.063
382.044	28.495	813.782	651.245
383.059	28.527	813.417	651.008
384.073	28.556	813.271	650.937
385.088	28.713	812.538	650.850
386.102	28.584	811.869	649.797
387.117	28.419	811.119	648.555
388.132	28.236	810.600	647.436
389.146	28.089	809.726	646.162
390.161	27.673	808.655	643.784
391.175	27.673	808.321	643.459
392.190	28.258	808.567	645.661
393.205	28.461	807.786	645.696
394.219	27.280	806.589	640.526
395.234	25.603	804.230	632.704
396.248	24.885	803.036	629.184
397.263	25.869	804.112	633.434
398.278	27.604	805.466	640.547
399.292	28.066	805.611	642.227
400.307	27.907	804.453	640.691
401.321	27.866	804.226	640.309
402.336	28.019	803.840	640.483
403.350	28.199	803.846	641.061
404.365	28.631	804.015	642.653
405.380	28.873	803.734	643.218
406.394	29.198	803.364	644.002
407.409	29.364	803.323	644.491
408.423	29.271	802.844	643.727
409.438	29.172	802.194	642.800
410.453	29.272	801.609	642.623
411.467	29.308	801.243	642.401
412.482	29.270	800.286	641.442
413.496	29.386	799.764	641.371
414.511	29.370	799.538	641.077
415.526	29.513	799.086	641.155
416.540	29.184	799.176	640.028
417.555	29.152	798.563	639.370
418.569	28.977	797.864	638.145
419.584	28.983	796.950	637.379
420.599	29.259	796.378	637.821
421.613	108.612	1281.435	1443.324
422.628	93.522	1352.100	1443.465
