DTS Sentinel unit serial number:	SN413079Multiplexer serial number:	ORYXHardware model number:	OX4-SRSoftware version number:	ORYX F/W v4.00 Oryx Data Collector v3.7.2.0data status	okinstallation	princeton_trtdifferential loss correction	single-endedforward channel	channel 3reverse channel	N/Adate	2019/09/15time	04:04:35forward acquisition time	60.00reverse acquisition time	0.00gamma	496.2192k internal	0.2322k external	0.2322temperature offset calibration	0.9968default loss term (dB/km)	0.3790temperature slope calibration	1.0000multiplexer offset coefficient	1.0000multiplexer slope coefficient	1.0000fibre end	0.00T internal ref (°C)	30.94T ext. ref 1 (°C)	4.61T ext. ref 2 (°C)	25.85length (m)	temperature (°C)	Stokes	anti-Stokes-747.200	148.988	0.112	0.153
-746.185	-119.752	0.142	0.025
-745.171	800.000	-0.050	-0.186
-744.156	-26.852	-0.403	0.238
-743.142	-200.000	0.001	0.113
-742.127	-131.727	-0.161	-0.021
-741.112	-180.936	-0.314	-0.006
-740.098	229.514	-0.064	0.106
-739.083	-85.833	-0.202	-0.063
-738.069	-200.000	0.063	0.314
-737.054	-53.141	0.320	-0.149
-736.039	-200.000	-0.011	-0.221
-735.025	36.896	0.078	-0.070
-734.010	-182.479	0.278	-0.005
-732.996	-175.600	-0.245	-0.007
-731.981	-104.941	-0.206	0.048
-730.966	81.752	0.092	-0.101
-729.952	-44.157	-0.233	-0.118
-728.937	-200.000	0.022	-0.219
-727.923	577.123	-0.015	-0.038
-726.908	88.864	-0.058	-0.066
-725.894	-74.424	-0.179	-0.065
-724.879	-200.000	-0.065	0.291
-723.864	-139.303	-0.319	0.035
-722.850	-133.090	-0.298	-0.038
-721.835	-137.593	-0.304	0.035
-720.821	-19.441	-0.180	-0.113
-719.806	538.138	-0.092	0.220
-718.791	54.155	-0.263	-0.255
-717.777	800.000	0.053	-0.221
-716.762	174.935	0.159	-0.233
-715.748	-12.152	-0.106	0.070
-714.733	-139.005	-0.267	0.029
-713.718	105.489	-0.130	-0.155
-712.704	647.447	-0.022	-0.056
-711.689	-68.659	0.395	0.154
-710.675	-132.184	-0.392	-0.051
-709.660	800.000	-0.080	-0.290
-708.645	800.000	-0.087	0.261
-707.631	-130.225	-0.121	0.017
-706.616	-200.000	-0.034	0.162
-705.602	800.000	-0.029	0.085
-704.587	308.500	-0.075	-0.141
-703.572	-200.000	-0.004	0.027
-702.558	9.720	0.294	-0.225
-701.543	-53.287	-0.227	0.105
-700.529	-170.039	0.144	0.005
-699.514	-98.739	0.267	-0.069
-698.499	-15.092	0.046	-0.030
-697.485	441.580	-0.048	-0.106
-696.470	115.960	0.214	0.265
-695.456	297.294	-0.120	0.222
-694.441	11.056	-0.217	-0.167
-693.426	330.133	-0.055	-0.106
-692.412	-200.000	-0.016	-0.154
-691.397	-94.133	0.077	-0.021
-690.383	-81.247	-0.372	-0.124
-689.368	20.479	0.127	0.103
-688.354	376.128	-0.162	-0.333
-687.339	295.471	0.075	0.138
-686.324	-2.153	0.120	0.085
-685.310	92.277	0.352	0.399
-684.295	-28.097	0.065	-0.038
-683.281	-200.000	-0.091	0.430
-682.266	-6.217	-0.279	-0.192
-681.251	-72.489	-0.153	0.057
-680.237	-200.000	0.033	-0.393
-679.222	-181.712	0.284	0.006
-678.208	161.767	0.053	0.074
-677.193	21.542	-0.081	-0.067
-676.178	197.091	0.046	0.070
-675.164	-200.000	-0.005	0.034
-674.149	147.608	0.128	-0.173
-673.135	122.899	0.196	-0.247
-672.120	14.891	-0.186	-0.147
-671.105	71.120	0.173	-0.181
-670.091	212.370	-0.147	-0.234
-669.076	-96.493	0.108	0.029
-668.062	37.398	-0.033	0.029
-667.047	800.000	0.045	0.151
-666.032	112.219	-0.177	0.215
-665.018	800.000	0.033	-0.097
-664.003	-64.324	-0.171	0.070
-662.989	198.690	0.147	0.226
-661.974	-134.939	-0.089	-0.011
-660.959	227.637	0.062	-0.102
-659.945	72.143	-0.121	-0.127
-658.930	-128.799	0.322	-0.046
-657.916	285.324	-0.052	-0.094
-656.901	33.263	-0.096	0.084
-655.886	79.166	0.220	-0.238
-654.872	-200.000	-0.031	0.446
-653.857	-200.000	0.017	0.416
-652.843	133.206	-0.121	0.157
-651.828	-42.494	0.343	0.176
-650.814	-92.935	0.197	0.055
-649.799	-200.000	0.027	0.175
-648.784	800.000	-0.065	-0.249
-647.770	789.181	-0.094	-0.260
-646.755	31.107	-0.268	-0.231
-645.741	-66.911	0.224	-0.089
-644.726	-113.239	-0.241	0.048
-643.711	108.712	0.072	-0.086
-642.697	725.375	0.094	-0.252
-641.682	169.309	-0.182	0.261
-640.668	-21.920	-0.243	0.148
-639.653	254.904	0.012	0.021
-638.638	-48.643	0.174	0.084
-637.624	147.047	-0.189	-0.255
-636.609	54.227	-0.033	-0.032
-635.595	-99.775	0.201	0.051
-634.580	-107.335	0.078	-0.017
-633.565	-200.000	0.137	0.000
-632.551	180.477	0.113	-0.167
-631.536	200.924	-0.106	-0.164
-630.522	-30.109	0.128	-0.073
-629.507	-5.579	0.158	0.109
-628.492	39.087	-0.164	0.148
-627.478	-124.778	-0.350	-0.054
-626.463	-48.128	0.247	0.120
-625.449	-112.124	0.030	-0.006
-624.434	188.357	0.155	0.233
-623.419	162.216	0.163	-0.230
-622.405	-146.277	-0.348	-0.031
-621.390	-42.839	-0.035	0.018
-620.376	-200.000	0.005	0.124
-619.361	-68.526	-0.117	-0.046
-618.346	-200.000	-0.010	0.233
-617.332	340.073	0.097	-0.191
-616.317	-200.000	-0.042	0.270
-615.303	-200.000	0.019	-0.135
-614.288	577.316	-0.062	-0.152
-613.273	121.726	0.186	0.234
-612.259	-200.000	0.097	-0.471
-611.244	234.321	-0.264	-0.437
-610.230	-200.000	-0.003	0.050
-609.215	-29.079	-0.171	0.098
-608.201	-165.637	0.173	-0.008
-607.186	800.000	0.056	0.175
-606.171	318.157	0.099	-0.188
-605.157	21.021	0.441	-0.359
-604.142	82.305	0.236	0.257
-603.128	568.362	0.122	0.297
-602.113	-200.000	0.053	-0.251
-601.098	205.119	-0.083	-0.129
-600.084	-112.168	-0.212	0.043
-599.069	121.919	0.161	0.201
-598.055	800.000	-0.125	-0.521
-597.040	363.102	0.060	0.122
-596.025	36.758	0.037	-0.033
-595.011	-13.960	0.158	-0.102
-593.996	-72.630	-0.280	0.104
-592.982	-48.852	-0.267	-0.129
-591.967	203.837	-0.153	0.237
-590.952	-122.875	-0.303	-0.049
-589.938	-200.000	-0.032	-0.182
-588.923	-200.000	-0.045	-0.312
-587.909	106.694	0.073	-0.087
-586.894	611.244	-0.071	0.178
-585.879	-133.826	0.184	0.023
-584.865	-146.797	-0.351	0.030
-583.850	220.268	-0.065	0.105
-582.836	23.592	-0.158	0.130
-581.821	164.912	0.134	-0.190
-580.806	-97.512	0.268	-0.070
-579.792	-124.309	-0.236	0.037
-578.777	800.000	-0.024	0.078
-577.763	254.529	-0.085	0.146
-576.748	-114.528	-0.304	-0.058
-575.733	-200.000	-0.010	-0.060
-574.719	1.544	0.223	-0.161
-573.704	800.000	-0.016	0.046
-572.690	800.000	-0.046	-0.157
-571.675	-75.329	-0.334	0.119
-570.661	482.870	-0.046	-0.105
-569.646	-81.571	0.286	0.094
-568.631	-22.429	-0.265	-0.161
-567.617	407.167	-0.062	-0.132
-566.602	-15.872	0.320	-0.205
-565.588	59.099	-0.173	-0.171
-564.573	763.984	-0.045	0.121
-563.558	800.000	0.109	0.362
-562.544	55.020	-0.131	-0.127
-561.529	341.514	-0.127	-0.248
-560.515	-74.296	0.155	-0.056
-559.500	800.000	0.056	0.189
-558.485	344.060	-0.067	-0.132
-557.471	-86.348	0.202	-0.062
-556.456	-59.117	-0.097	-0.042
-555.442	-25.704	0.245	0.145
-554.427	139.483	0.100	-0.132
-553.412	-77.122	-0.399	0.140
-552.398	-75.462	-0.186	0.066
-551.383	-175.301	-0.112	-0.003
-550.369	-200.000	-0.011	-0.107
-549.354	-4.677	0.205	-0.142
-548.339	-115.252	-0.098	0.019
-547.325	634.613	0.131	0.334
-546.310	131.338	-0.159	0.204
-545.296	-200.000	-0.014	0.083
-544.281	800.000	-0.020	-0.059
-543.266	134.631	-0.083	-0.108
-542.252	-124.189	-0.269	0.042
-541.237	-76.939	-0.231	0.081
-540.223	3.344	0.200	-0.146
-539.208	-200.000	-0.000	-0.340
-538.193	-200.000	-0.006	-0.090
-537.179	-78.787	0.442	-0.151
-536.164	-200.000	-0.020	0.195
-535.150	-200.000	-0.050	0.242
-534.135	-200.000	0.009	-0.061
-533.121	148.606	0.102	0.139
-532.106	36.665	-0.246	0.217
-531.091	189.125	-0.101	0.151
-530.077	397.569	0.043	-0.090
-529.062	542.805	-0.106	-0.252
-528.048	-200.000	-0.015	0.091
-527.033	-79.431	0.249	0.084
-526.018	5.881	-0.151	-0.112
-525.004	-200.000	-0.220	0.001
-523.989	-55.201	-0.089	-0.040
-522.975	-67.032	-0.244	0.096
-521.960	-200.000	-0.027	0.323
-520.945	800.000	-0.067	-0.265
-519.931	-200.000	-0.031	0.306
-518.916	88.640	0.049	0.054
-517.902	362.015	-0.083	-0.168
-516.887	-29.606	0.257	0.147
-515.872	92.788	-0.356	0.403
-514.858	235.977	0.074	0.123
-513.843	657.335	0.094	-0.242
-512.829	-84.658	0.238	-0.075
-511.814	661.852	0.105	-0.271
-510.799	70.479	-0.114	-0.118
-509.785	-200.000	0.011	-0.083
-508.770	-14.009	0.201	-0.130
-507.756	476.081	0.013	-0.030
-506.741	32.860	-0.229	0.198
-505.726	-130.854	0.182	0.024
-504.712	535.768	0.050	-0.119
-503.697	-51.220	-0.176	-0.083
-502.683	-79.440	0.218	0.074
-501.668	155.748	-0.057	0.078
-500.653	14.000	0.300	-0.234
-499.639	295.644	0.132	-0.242
-498.624	309.420	-0.065	0.121
-497.610	-200.000	0.012	0.175
-496.595	-3.611	-0.200	0.139
-495.581	-112.317	0.167	-0.033
-494.566	71.934	0.087	-0.090
-493.551	-184.167	-0.260	-0.004
-492.537	194.908	-0.056	0.084
-491.522	-90.360	0.311	0.090
-490.508	475.415	0.002	0.004
-489.493	306.460	-0.092	-0.172
-488.478	259.881	0.233	0.403
-487.464	800.000	0.035	0.121
-486.449	-18.824	-0.224	-0.140
-485.435	-200.000	-0.008	-0.197
-484.420	6.589	0.276	-0.206
-483.405	73.854	-0.209	-0.220
-482.391	800.000	0.079	-0.272
-481.376	-185.894	-0.421	-0.006
-480.362	-62.604	-0.055	0.023
-479.347	-96.016	0.049	0.013
-478.332	800.000	-0.023	0.095
-477.318	82.845	-0.120	0.130
-476.303	800.000	0.080	-0.223
-475.289	800.000	-0.061	0.181
-474.274	-83.118	-0.120	-0.039
-473.259	-140.644	-0.158	-0.016
-472.245	-22.120	-0.063	0.038
-471.230	43.304	0.074	-0.067
-470.216	-200.000	0.018	0.098
-469.201	800.000	-0.025	0.082
-468.186	38.359	-0.120	0.107
-467.172	-200.000	0.010	0.252
-466.157	-106.812	-0.304	-0.067
-465.143	-42.091	-0.338	0.173
-464.128	639.534	-0.102	-0.258
-463.113	800.000	0.059	0.223
-462.099	-194.433	0.090	-0.001
-461.084	-153.956	0.194	-0.013
-460.070	73.176	0.283	0.295
-459.055	800.000	0.053	-0.222
-458.040	399.745	0.071	-0.148
-457.026	-138.817	-0.357	-0.039
-456.011	230.193	0.068	0.111
-454.997	109.861	-0.095	0.113
-453.982	800.000	0.013	0.054
-452.968	140.457	-0.069	0.091
-451.953	800.000	-0.067	0.211
-450.938	-44.318	-0.120	-0.060
-449.924	-76.211	0.176	0.062
-448.909	-44.859	-0.161	0.080
-447.895	-56.247	0.055	0.025
-446.880	-149.789	-0.239	-0.019
-445.865	21.654	0.228	-0.185
-444.851	-8.301	-0.192	-0.129
-443.836	-200.000	0.029	-0.151
-442.822	147.075	-0.040	-0.054
-441.807	-132.431	-0.143	0.018
-440.792	-164.368	0.405	0.019
-439.778	88.943	-0.162	0.180
-438.763	-99.059	0.345	-0.087
-437.749	-200.000	-0.002	-0.027
-436.734	16.706	0.115	-0.091
-435.719	47.730	-0.230	-0.214
-434.705	32.395	-0.209	-0.180
-433.690	238.680	0.188	-0.311
-432.676	-94.404	0.216	0.059
-431.661	68.037	-0.112	-0.114
-430.646	-14.111	-0.512	0.330
-429.632	323.452	0.166	-0.316
-428.617	-61.612	0.287	-0.120
-427.603	-193.184	-0.170	0.002
-426.588	77.859	0.016	-0.017
-425.573	-178.101	0.150	-0.004
-424.559	-4.955	0.293	-0.201
-423.544	127.629	-0.071	-0.090
-422.530	428.524	-0.112	0.241
-421.515	134.209	-0.199	-0.257
-420.500	116.612	0.035	0.043
-419.486	-99.905	0.075	0.019
-418.471	387.456	0.173	0.356
-417.457	204.849	0.165	0.256
-416.442	-110.141	0.160	-0.033
-415.428	-57.477	0.216	-0.095
-414.413	-200.000	0.010	-0.172
-413.398	-133.825	0.202	-0.025
-412.384	-102.165	0.304	-0.073
-411.369	85.629	-0.025	0.028
-410.355	-42.026	0.212	-0.108
-409.340	199.371	0.137	0.210
-408.325	-97.258	-0.462	-0.120
-407.311	395.970	0.139	-0.289
-406.296	11.101	-0.287	-0.219
-405.282	322.494	-0.051	0.096
-404.267	60.897	0.126	0.125
-403.252	192.232	0.066	-0.099
-402.238	316.105	0.061	-0.115
-401.223	-129.487	-0.119	0.016
-400.209	-4.923	0.279	0.192
-399.194	-35.577	-0.037	0.020
-398.179	65.658	-0.114	0.115
-397.165	-67.733	-0.270	-0.105
-396.150	800.000	0.075	-0.269
-395.136	800.000	-0.099	-0.325
-394.121	244.181	-0.217	-0.364
-393.106	74.413	0.016	0.016
-392.092	800.000	0.061	-0.259
-391.077	-200.000	-0.024	-0.233
-390.063	-200.000	-0.032	0.174
-389.048	-33.365	-0.086	0.047
-388.033	-200.000	0.094	0.432
-387.019	241.921	0.241	0.401
-386.004	800.000	0.138	0.440
-384.990	-154.804	0.094	-0.006
-383.975	-32.936	0.251	0.139
-382.960	-13.646	0.144	-0.093
-381.946	-200.000	-0.009	0.319
-380.931	-146.377	0.097	0.008
-379.917	-61.120	0.066	0.028
-378.902	268.194	-0.082	-0.144
-377.888	-200.000	-0.037	-0.288
-376.873	45.386	-0.106	-0.097
-375.858	-120.974	0.143	0.024
-374.844	-16.943	0.119	0.075
-373.829	533.720	0.029	0.069
-372.815	449.289	0.063	0.138
-371.800	-182.980	0.185	-0.003
-370.785	-49.241	-0.217	0.103
-369.771	800.000	0.024	0.102
-368.756	-145.055	-0.067	-0.006
-367.742	800.000	0.027	-0.105
-366.727	53.040	0.147	0.140
-365.712	-45.479	-0.168	-0.083
-364.698	468.661	0.166	-0.370
-363.683	-52.762	0.255	-0.117
-362.669	800.000	0.087	0.258
-361.654	-77.843	0.163	-0.056
-360.639	21.736	0.163	0.132
-359.625	-186.238	-0.145	-0.002
-358.610	-200.000	-0.003	0.151
-357.596	800.000	-0.027	0.113
-356.581	-54.225	0.083	0.038
-355.566	227.611	0.136	0.221
-354.552	600.712	0.093	-0.230
-353.537	-200.000	-0.002	-0.222
-352.523	758.781	-0.094	0.252
-351.508	-200.000	0.057	-0.253
-350.493	-200.000	-0.005	-0.256
-349.479	83.924	0.098	-0.106
-348.464	-114.710	0.102	-0.019
-347.450	0.267	-0.188	-0.134
-346.435	-67.256	-0.114	0.045
-345.420	-86.639	0.191	-0.058
-344.406	-200.000	-0.037	-0.174
-343.391	-200.000	0.015	-0.237
-342.377	800.000	0.026	0.075
-341.362	-100.499	0.129	0.032
-340.348	-78.034	0.168	0.058
-339.333	-106.255	-0.254	0.056
-338.318	-200.000	0.042	0.334
-337.304	28.499	0.170	0.143
-336.289	-15.276	-0.140	0.089
-335.275	191.215	0.145	0.217
-334.260	-112.920	0.191	0.038
-333.245	800.000	-0.057	0.237
-332.231	723.645	0.144	0.380
-331.216	-200.000	0.017	0.114
-330.202	-75.088	-0.137	-0.049
-329.187	724.074	0.038	-0.101
-328.172	162.524	0.195	0.272
-327.158	76.509	0.221	-0.233
-326.143	525.054	0.063	-0.148
-325.129	-14.252	0.166	0.107
-324.114	-32.800	-0.266	-0.147
-323.099	800.000	0.042	-0.116
-322.085	-147.614	0.213	0.018
-321.070	-57.698	0.366	0.159
-320.056	-200.000	0.063	0.400
-319.041	-92.705	-0.123	0.034
-318.026	-200.000	0.003	0.041
-317.012	-115.926	0.136	0.025
-315.997	104.917	-0.154	-0.180
-314.983	-200.000	-0.043	0.387
-313.968	53.379	-0.146	-0.139
-312.953	-59.055	-0.203	-0.087
-311.939	108.851	0.084	0.100
-310.924	-200.000	0.021	0.259
-309.910	-148.400	0.637	0.052
-308.895	-113.086	-0.305	-0.060
-307.880	19.732	-0.126	-0.101
-306.866	488.851	0.050	0.113
-305.851	352.489	-0.056	-0.110
-304.837	-200.000	-0.063	0.289
-303.822	716.195	-0.094	0.246
-302.807	118.428	-0.153	0.187
-301.793	-200.000	0.038	-0.271
-300.778	26.257	0.168	-0.139
-299.764	29.501	-0.033	0.028
-298.749	11.749	0.361	0.275
-297.735	-112.798	0.074	0.015
-296.720	105.673	-0.036	-0.043
-295.705	74.379	-0.180	0.188
-294.691	-140.986	-0.329	0.033
-293.676	-11.808	0.320	-0.209
-292.662	195.287	0.035	0.053
-291.647	-14.831	0.086	-0.055
-290.632	-200.000	-0.041	0.264
-289.618	-134.626	0.321	-0.039
-288.603	800.000	0.049	-0.163
-287.589	-100.637	-0.420	0.103
-286.574	-200.000	0.005	-0.122
-285.559	507.105	0.074	0.171
-284.545	-200.000	0.001	0.078
-283.530	-48.571	0.370	-0.177
-282.516	-112.754	0.202	0.040
-281.501	212.954	-0.079	0.124
-280.486	321.109	-0.075	0.141
-279.472	75.478	-0.082	-0.086
-278.457	800.000	-0.080	0.288
-277.443	7.717	-0.168	0.125
-276.428	-127.867	0.068	0.010
-275.413	-93.682	-0.208	0.057
-274.399	-95.168	-0.100	0.027
-273.384	518.796	0.010	-0.024
-272.370	526.456	0.053	0.124
-271.355	95.012	-0.255	0.287
-270.340	414.194	-0.106	-0.223
-269.326	18.834	-0.218	-0.173
-268.311	-39.923	0.084	-0.043
-267.297	-105.201	0.238	-0.054
-266.282	-65.930	0.189	-0.075
-265.267	-37.984	-0.345	-0.182
-264.253	19.096	-0.252	-0.201
-263.238	-80.135	-0.096	-0.032
-262.224	-200.000	-0.038	0.194
-261.209	202.656	-0.184	-0.281
-260.195	51.843	-0.214	0.202
-259.180	-28.825	0.061	0.035
-258.165	-73.328	0.097	-0.035
-257.151	800.000	0.089	0.255
-256.136	-33.060	0.169	0.093
-255.122	244.975	0.054	0.090
-254.107	-76.163	0.097	0.034
-253.092	9.119	0.253	-0.190
-252.078	-200.000	-0.028	0.277
-251.063	-63.672	-0.443	-0.180
-250.049	800.000	0.035	-0.127
-249.034	79.499	-0.109	0.116
-248.019	-200.000	0.005	0.160
-247.005	80.406	0.153	-0.163
-245.990	-8.120	-0.269	0.180
-244.976	91.025	0.188	0.209
-243.961	-139.018	0.261	-0.028
-242.946	62.466	-0.183	-0.181
-241.932	-200.000	0.033	-0.178
-240.917	255.930	-0.138	0.235
-239.903	658.760	-0.098	0.250
-238.888	-140.031	0.327	0.034
-237.873	-70.603	-0.328	0.123
-236.859	-147.021	0.028	0.002
-235.844	81.966	0.058	0.062
-234.830	18.483	0.252	0.200
-233.815	-200.000	0.003	-0.115
-232.800	800.000	-0.030	-0.129
-231.786	528.610	0.083	0.193
-230.771	-20.167	0.078	-0.048
-229.757	236.105	0.083	-0.136
-228.742	-113.867	-0.052	0.010
-227.727	800.000	0.023	0.066
-226.713	-200.000	-0.027	-0.343
-225.698	-193.685	0.086	0.001
-224.684	-112.431	-0.104	-0.021
-223.669	-125.915	-0.255	-0.038
-222.655	-84.892	-0.086	0.027
-221.640	-194.262	0.279	-0.002
-220.625	800.000	-0.075	0.228
-219.611	-65.175	0.174	-0.069
-218.596	800.000	0.038	0.156
-217.582	-126.461	0.138	-0.020
-216.567	-200.000	0.015	0.155
-215.552	148.494	-0.173	-0.231
-214.538	800.000	-0.048	0.133
-213.523	175.818	0.144	0.207
-212.509	234.229	-0.146	-0.239
-211.494	-79.843	-0.291	-0.097
-210.479	-62.382	0.130	-0.054
-209.465	151.042	-0.120	-0.162
-208.450	38.921	0.265	-0.234
-207.436	800.000	0.137	-0.487
-206.421	-200.000	0.003	-0.218
-205.406	800.000	-0.058	0.231
-204.392	-200.000	0.016	0.158
-203.377	260.969	-0.148	-0.253
-202.363	-200.000	-0.026	-0.218
-201.348	800.000	0.082	-0.332
-200.333	62.664	-0.101	0.100
-199.319	67.834	0.104	-0.105
-198.304	348.019	0.128	0.250
-197.290	-102.721	0.186	-0.044
-196.275	-18.571	-0.259	-0.160
-195.260	800.000	0.060	0.257
-194.246	800.000	0.058	0.179
-193.231	-141.757	0.418	0.042
-192.217	-12.636	-0.279	0.180
-191.202	-178.734	0.198	-0.004
-190.187	-48.025	0.105	-0.050
-189.173	129.003	-0.220	-0.277
-188.158	-158.494	-0.314	-0.018
-187.144	-79.881	-0.203	-0.067
-186.129	-152.092	-0.082	-0.006
-185.114	3.915	0.214	-0.154
-184.100	800.000	0.103	-0.293
-183.085	-39.074	-0.130	-0.067
-182.071	-2.140	-0.043	0.030
-181.056	-200.000	0.046	0.220
-180.042	-86.992	-0.188	0.057
-179.027	256.945	0.092	0.156
-178.012	545.202	0.127	0.299
-176.998	-51.396	0.152	-0.070
-175.983	-43.263	-0.303	-0.152
-174.969	800.000	-0.048	0.178
-173.954	285.094	-0.116	0.207
-172.939	-46.666	-0.184	0.089
-171.925	150.160	-0.126	0.170
-170.910	-200.000	0.009	0.203
-169.896	-79.986	0.192	0.064
-168.881	-96.614	0.280	-0.073
-167.866	-200.000	0.038	-0.292
-166.852	-51.547	-0.214	-0.099
-165.837	-200.000	-0.048	0.245
-164.823	664.491	0.093	-0.237
-163.808	498.873	0.039	-0.088
-162.793	-77.141	-0.124	0.043
-161.779	88.610	-0.189	0.207
-160.764	-200.000	-0.047	-0.271
-159.750	-168.052	-0.400	-0.015
-158.735	21.217	-0.252	-0.202
-157.720	-22.520	0.123	-0.074
-156.706	279.785	-0.127	0.223
-155.691	-200.000	0.002	-0.279
-154.677	63.770	0.205	0.204
-153.662	-200.000	-0.065	0.355
-152.647	-8.270	0.129	0.086
-151.633	-200.000	0.021	0.106
-150.618	197.975	0.138	0.208
-149.604	-200.000	0.020	-0.142
-148.589	-71.515	0.144	0.053
-147.574	-80.095	0.231	0.077
-146.560	384.342	0.015	-0.031
-145.545	800.000	-0.051	-0.160
-144.531	17.740	-0.054	0.043
-143.516	-200.000	0.008	-0.056
-142.502	-200.000	0.087	0.383
-141.487	-37.341	0.132	0.069
-140.472	-137.291	0.299	0.033
-139.458	197.701	0.199	-0.300
-138.443	23.683	0.137	0.111
-137.429	-200.000	-0.002	-0.042
-136.414	24.508	0.216	0.177
-135.399	-200.000	0.009	0.140
-134.385	-103.950	0.194	-0.045
-133.370	187.382	-0.082	-0.121
-132.356	-126.068	-0.086	-0.013
-131.341	70.063	0.132	0.135
-130.326	800.000	0.013	-0.054
-129.312	338.121	0.124	0.239
-128.297	30.376	0.161	0.135
-127.283	-103.140	0.235	0.055
-126.268	800.000	-0.021	0.089
-125.253	-133.425	0.156	0.019
-124.239	800.000	0.086	-0.259
-123.224	436.656	0.152	-0.326
-122.210	-149.507	0.051	0.004
-121.195	-200.000	0.016	-0.180
-120.180	-200.000	0.009	-0.347
-119.166	743.444	0.163	-0.433
-118.151	-137.543	0.232	0.026
-117.137	800.000	-0.071	-0.208
-116.122	10.323	-0.203	0.153
-115.107	51.228	0.303	0.283
-114.093	-200.000	0.002	0.452
-113.078	146.855	0.077	-0.101
-112.064	-100.043	-0.275	0.068
-111.049	-200.000	0.019	0.086
-110.034	246.488	0.133	-0.221
-109.020	602.632	-0.203	-0.497
-108.005	431.637	-0.024	-0.051
-106.991	81.558	-0.073	0.078
-105.976	9.027	0.262	-0.195
-104.962	800.000	0.035	0.142
-103.947	800.000	-0.023	-0.084
-102.932	80.649	0.221	0.235
-101.918	446.200	0.042	-0.092
-100.903	-156.188	-0.296	-0.018
-99.889	396.247	-0.046	0.095
-98.874	-112.482	0.534	-0.105
-97.859	33.788	-0.145	0.124
-96.845	800.000	0.067	0.185
-95.830	165.895	0.118	-0.164
-94.816	6.548	0.218	-0.160
-93.801	-76.591	-0.133	0.046
-92.786	95.132	0.239	0.268
-91.772	-32.336	0.155	0.085
-90.757	93.677	0.165	-0.184
-89.743	-91.548	0.261	-0.073
-88.728	-200.000	0.008	0.116
-87.713	-200.000	0.011	0.460
-86.699	-85.614	-0.487	-0.149
-85.684	401.570	0.079	0.164
-84.670	579.632	0.087	0.211
-83.655	-17.710	-0.247	-0.153
-82.640	-143.081	-0.142	0.014
-81.626	36.639	0.219	0.191
-80.611	50.806	-0.146	0.136
-79.597	800.000	-0.082	0.247
-78.582	492.021	0.011	0.025
-77.567	338.234	-0.086	-0.165
-76.553	-200.000	-0.017	0.280
-75.538	-200.000	0.015	0.267
-74.524	-5.729	0.204	0.138
-73.509	-200.000	-0.035	0.248
-72.494	-200.000	-0.080	0.362
-71.480	172.719	-0.021	0.030
-70.465	352.905	0.141	0.275
-69.451	-132.334	-0.293	-0.037
-68.436	339.709	0.196	0.376
-67.422	-113.629	-0.189	0.036
-66.407	289.943	0.071	0.127
-65.392	340.977	0.137	0.264
-64.378	-69.711	-0.235	0.088
-63.363	35.401	-0.257	0.222
-62.349	-200.000	-0.008	0.281
-61.334	245.842	-0.714	-1.183
-60.319	9.550	0.683	0.509
-59.305	327.297	-0.590	-1.112
-58.290	113.170	0.884	1.055
-57.276	285.508	0.660	1.170
-56.261	-200.000	101.806	594.188
-55.246	566.762	1417.890	3383.681
-54.232	190.620	2601.274	3844.279
-53.217	116.167	2162.661	2604.561
-52.203	41.677	1696.605	1511.252
-51.188	34.199	1506.499	1291.375
-50.173	31.690	1479.915	1251.797
-49.159	51.278	1531.950	1429.577
-48.144	52.718	1550.053	1456.216
-47.130	34.219	1508.236	1292.795
-46.115	31.118	1493.270	1259.029
-45.100	30.944	1489.712	1254.811
-44.086	31.014	1487.388	1253.270
-43.071	30.963	1485.560	1251.340
-42.057	30.849	1483.946	1249.167
-41.042	30.912	1482.597	1248.406
-40.027	30.904	1480.978	1246.935
-39.013	30.803	1479.712	1245.145
-37.998	30.970	1477.844	1244.642
-36.984	30.911	1476.951	1243.447
-35.969	30.902	1475.531	1242.139
-34.954	30.900	1474.292	1241.036
-33.940	30.816	1473.281	1239.577
-32.925	30.927	1471.641	1238.885
-31.911	30.998	1470.060	1237.973
-30.896	30.984	1469.067	1236.999
-29.881	31.029	1467.418	1235.860
-28.867	31.077	1465.943	1234.888
-27.852	30.966	1465.039	1233.340
-26.838	31.000	1463.162	1231.933
-25.823	30.976	1461.895	1230.660
-24.809	30.979	1460.260	1229.258
-23.794	31.065	1458.531	1228.319
-22.779	30.983	1457.575	1226.924
-21.765	30.977	1456.892	1226.262
-20.750	30.980	1455.656	1225.190
-19.736	30.957	1454.576	1224.081
-18.721	30.934	1453.327	1222.833
-17.706	30.943	1452.638	1222.266
-16.692	30.950	1451.311	1221.143
-15.677	30.920	1450.168	1219.936
-14.663	30.933	1449.107	1219.084
-13.648	30.863	1448.652	1218.191
-12.633	30.824	1447.816	1217.186
-11.619	30.896	1446.783	1216.743
-10.604	30.925	1445.786	1216.040
-9.590	30.949	1445.170	1215.634
-8.575	30.968	1444.052	1214.769
-7.560	30.955	1443.229	1213.941
-6.546	30.913	1442.521	1213.026
-5.531	30.928	1441.542	1212.254
-4.517	30.814	1440.592	1210.661
-3.502	30.968	1438.866	1210.165
-2.487	30.872	1438.732	1209.379
-1.473	30.884	1437.694	1208.535
-0.458	30.860	1436.290	1207.156
0.556	29.517	1426.733	1196.135
1.571	26.599	1402.009	1156.692
2.586	23.425	1343.257	1088.663
3.600	21.767	1262.833	1013.812
4.615	20.380	1217.613	969.683
5.629	17.689	1162.172	911.086
6.644	10.738	1080.261	812.150
7.659	5.394	1042.548	757.881
8.673	4.841	1037.201	751.260
9.688	4.616	1034.239	747.967
10.702	4.503	1032.675	746.228
11.717	4.500	1030.533	744.597
12.731	6.520	1032.191	755.417
13.746	13.290	1041.200	794.574
14.761	18.223	1047.017	822.722
15.775	18.237	1046.662	822.441
16.790	17.389	1044.482	816.585
17.804	16.252	1042.219	809.293
18.819	15.290	1040.821	803.530
19.834	15.023	1038.925	800.720
20.848	14.600	1038.469	798.269
21.863	14.302	1037.730	796.208
22.877	14.202	1036.339	794.592
23.892	14.079	1035.687	793.434
24.907	13.895	1035.145	792.072
25.921	13.944	1034.491	791.735
26.936	13.966	1033.752	791.205
27.950	14.097	1032.542	790.834
28.965	14.054	1031.220	789.545
29.980	14.010	1030.620	788.806
30.994	14.254	1029.402	788.962
32.009	14.318	1028.076	788.181
33.023	14.214	1027.812	787.413
34.038	14.260	1026.840	786.816
35.053	14.264	1025.944	786.080
36.067	14.187	1025.052	784.966
37.082	14.179	1023.948	784.013
38.096	14.172	1023.061	783.231
39.111	14.177	1022.777	782.967
40.126	14.301	1021.386	782.416
41.140	14.113	1020.662	780.911
42.155	13.886	1019.631	778.984
43.169	13.881	1018.523	778.046
44.184	13.898	1017.280	777.106
45.199	13.816	1016.514	776.072
46.213	13.896	1015.373	775.505
47.228	13.933	1014.648	775.056
48.242	14.044	1013.228	774.420
49.257	14.016	1012.809	773.900
50.271	14.097	1011.860	773.483
51.286	14.059	1010.562	772.244
52.301	14.045	1010.462	772.036
53.315	14.005	1009.557	771.093
54.330	14.158	1008.722	771.094
55.344	13.951	1007.769	769.342
56.359	13.905	1006.825	768.338
57.374	14.104	1005.335	768.053
58.388	13.756	1005.427	766.448
59.403	13.883	1004.045	765.910
60.417	13.863	1003.363	765.230
61.432	13.952	1002.468	764.891
62.447	13.778	1002.169	763.796
63.461	13.760	1001.187	762.895
64.476	13.825	999.642	761.948
65.490	13.737	999.086	761.053
66.505	13.727	998.504	760.498
67.520	13.757	997.813	760.043
68.534	13.879	996.898	759.838
69.549	13.802	995.930	758.678
70.563	13.735	995.292	757.820
71.578	13.824	994.912	757.870
72.593	13.785	993.851	756.814
73.607	13.616	993.018	755.345
74.622	13.731	991.853	754.915
75.636	13.740	990.681	753.997
76.651	13.723	990.305	753.569
77.666	13.696	989.748	752.952
78.680	13.629	989.541	752.426
79.695	13.751	988.632	752.219
80.709	13.786	988.058	751.874
81.724	13.706	987.111	750.725
82.739	13.812	986.483	750.664
83.753	13.787	986.030	750.138
84.768	13.969	984.938	750.061
85.782	14.232	984.222	750.636
86.797	14.232	983.320	749.882
87.812	14.170	982.532	748.937
88.826	14.022	982.041	747.832
89.841	14.026	981.052	747.031
90.855	14.130	980.541	747.041
91.870	14.127	979.300	746.015
92.884	14.229	978.521	745.812
93.899	14.192	977.914	745.117
94.914	14.088	977.230	744.067
95.928	14.163	976.816	744.021
96.943	14.293	975.874	743.817
97.957	14.222	974.976	742.751
98.972	14.187	974.301	742.016
99.987	14.055	974.057	741.175
101.001	14.286	972.573	741.010
102.016	14.094	972.176	739.787
103.030	14.131	971.186	739.131
104.045	14.157	970.503	738.662
105.060	14.130	969.000	737.332
106.074	14.175	968.009	736.712
107.089	14.132	967.198	735.842
108.103	13.782	966.584	733.762
109.118	13.943	965.527	733.607
110.133	13.855	964.806	732.605
111.147	13.825	964.178	731.929
112.162	13.862	962.887	731.049
113.176	13.875	962.462	730.717
114.191	13.877	961.714	730.093
115.206	14.034	960.376	729.704
116.220	13.915	959.940	728.787
117.235	13.932	959.009	728.091
118.249	13.974	958.309	727.676
119.264	13.920	957.240	726.564
120.279	13.799	956.773	725.614
121.293	13.847	955.748	724.983
122.308	13.806	955.107	724.256
123.322	13.844	953.944	723.473
124.337	13.792	953.331	722.719
125.352	13.783	951.921	721.547
126.366	13.664	951.057	720.313
127.381	13.717	950.312	719.912
128.395	13.817	949.204	719.443
129.410	13.742	948.540	718.555
130.424	13.878	947.585	718.354
131.439	13.758	946.856	717.220
132.454	13.986	945.971	717.469
133.468	13.905	945.207	716.478
134.483	14.012	944.430	716.288
135.497	14.011	943.808	715.747
136.512	13.992	943.028	715.011
137.527	13.929	942.342	714.156
138.541	13.974	941.712	713.809
139.556	14.033	940.476	713.061
140.570	14.003	939.762	712.330
141.585	14.038	939.062	711.886
142.600	13.986	938.955	711.517
143.614	14.263	937.483	711.525
144.629	14.156	937.027	710.660
145.643	14.253	936.080	710.292
146.658	14.240	935.660	709.854
147.673	14.062	934.576	708.211
148.687	14.102	933.287	707.341
149.702	14.018	932.848	706.590
150.716	14.009	931.807	705.700
151.731	13.976	931.192	705.030
152.746	14.027	930.259	704.478
153.760	14.124	929.403	704.178
154.775	14.066	928.704	703.343
155.789	14.048	928.207	702.827
156.804	14.113	927.178	702.260
157.819	14.092	926.730	701.772
158.833	14.096	925.960	701.140
159.848	14.166	925.541	701.059
160.862	14.296	924.871	701.036
161.877	14.427	923.457	700.453
162.892	14.128	922.797	698.633
163.906	13.923	922.163	697.230
164.921	14.044	921.519	697.190
165.935	14.202	920.186	696.783
166.950	14.198	919.096	695.879
167.964	14.255	918.210	695.383
168.979	14.256	917.083	694.473
169.994	14.108	916.513	693.364
171.008	14.282	915.579	693.321
172.023	14.209	914.877	692.423
173.037	14.210	914.169	691.828
174.052	14.432	913.512	692.192
175.067	14.268	912.824	690.931
176.081	14.317	912.032	690.473
177.096	14.092	911.029	688.720
178.110	14.154	910.483	688.503
179.125	14.139	909.522	687.652
180.140	14.204	909.120	687.557
181.154	14.221	908.213	686.882
182.169	14.109	908.222	686.366
183.183	14.325	907.313	686.508
184.198	14.356	906.597	686.035
185.213	14.381	906.080	685.683
186.227	14.509	904.944	685.289
187.242	14.550	905.061	685.487
188.256	14.535	904.201	684.711
189.271	14.614	903.274	684.273
190.286	14.545	902.961	683.694
191.300	14.568	901.894	682.918
192.315	14.279	900.860	680.893
193.329	14.189	900.328	680.065
194.344	14.119	900.290	679.690
195.359	14.173	899.699	679.404
196.373	14.266	898.972	679.173
197.388	14.523	898.501	679.807
198.402	14.559	898.135	679.614
199.417	14.622	897.383	679.242
200.432	14.726	897.092	679.386
201.446	14.746	896.557	679.000
202.461	14.793	896.837	679.344
203.475	15.014	895.679	679.302
204.490	14.888	894.946	678.179
205.504	14.803	893.975	677.037
206.519	14.727	893.491	676.303
207.534	14.578	892.872	675.170
208.548	14.744	891.767	674.948
209.563	14.642	891.336	674.149
210.577	14.627	890.586	673.463
211.592	14.710	889.835	673.169
212.607	14.662	889.895	672.962
213.621	14.796	888.897	672.687
214.636	14.963	888.152	672.736
215.650	14.844	887.705	671.858
216.665	14.903	887.052	671.539
217.680	14.804	886.728	670.839
218.694	14.878	886.408	670.835
219.709	14.951	885.723	670.548
220.723	14.926	884.906	669.772
221.738	14.955	884.239	669.324
222.753	15.075	883.201	668.958
223.767	15.002	882.671	668.204
224.782	14.909	882.188	667.411
225.796	14.991	881.550	667.196
226.811	15.059	880.859	666.885
227.826	15.069	879.988	666.204
228.840	14.994	879.096	665.172
229.855	14.887	878.497	664.236
230.869	14.976	878.029	664.175
231.884	15.017	877.179	663.636
232.899	15.016	876.043	662.714
233.913	15.008	876.184	662.733
234.928	14.898	875.411	661.654
235.942	14.911	874.626	661.052
236.957	14.958	873.864	660.605
237.972	14.905	873.246	659.871
238.986	14.980	872.592	659.612
240.001	14.955	871.896	658.931
241.015	14.910	871.588	658.460
242.030	14.986	870.957	658.225
243.045	15.083	870.179	657.959
244.059	14.956	869.995	657.263
245.074	15.349	868.832	657.869
246.088	15.120	868.538	656.690
247.103	15.085	868.173	656.221
248.117	15.216	867.261	655.985
249.132	15.239	866.838	655.696
250.147	15.272	866.383	655.424
251.161	15.434	865.871	655.611
252.176	15.569	864.865	655.316
253.190	15.580	864.320	654.891
254.205	15.622	863.883	654.664
255.220	15.588	863.400	654.109
256.234	15.721	862.412	653.818
257.249	15.469	862.223	652.638
258.263	15.631	861.330	652.534
259.278	15.625	860.902	652.127
260.293	15.670	860.520	651.957
261.307	15.704	859.829	651.505
262.322	15.687	859.334	651.006
263.336	15.770	858.704	650.795
264.351	15.874	857.868	650.504
265.366	15.818	857.066	649.622
266.380	15.755	856.861	649.168
267.395	15.752	856.242	648.628
268.409	15.744	855.977	648.339
269.424	15.716	854.799	647.284
270.439	15.862	853.894	647.102
271.453	15.799	853.445	646.461
272.468	15.638	852.776	645.281
273.482	15.644	851.914	644.593
274.497	15.801	851.051	644.483
275.512	15.689	850.800	643.809
276.526	15.613	850.184	642.994
277.541	15.671	849.747	642.829
278.555	15.718	849.026	642.406
279.570	15.750	848.561	642.121
280.585	16.020	848.073	642.724
281.599	15.935	847.670	642.038
282.614	16.074	846.909	641.933
283.628	15.861	846.293	640.598
284.643	15.793	845.728	639.856
285.657	15.834	845.387	639.697
286.672	16.076	844.537	639.917
287.687	15.944	844.409	639.262
288.701	16.051	843.693	639.069
289.716	16.029	842.732	638.200
290.730	15.902	842.798	637.714
291.745	16.005	841.836	637.318
292.760	15.949	841.472	636.775
293.774	16.054	840.394	636.300
294.789	16.223	839.890	636.498
295.803	16.065	839.777	635.759
296.818	16.030	838.964	634.956
297.833	16.000	838.200	634.211
298.847	16.079	837.444	633.881
299.862	16.081	836.721	633.284
300.876	16.245	836.011	633.307
301.891	16.139	835.583	632.527
302.906	16.200	835.151	632.372
303.920	16.394	834.277	632.382
304.935	16.328	833.978	631.852
305.949	16.355	833.453	631.500
306.964	16.485	832.559	631.252
307.979	16.275	832.103	630.067
308.993	16.373	831.188	629.684
310.008	16.245	831.261	629.205
311.022	16.397	830.700	629.290
312.037	16.556	830.025	629.317
313.052	16.331	829.773	628.234
314.066	16.326	829.139	627.679
315.081	16.155	828.493	626.498
316.095	16.264	827.983	626.464
317.110	16.233	827.664	626.051
318.125	16.206	826.488	625.003
319.139	16.267	826.343	625.066
320.154	16.327	825.885	624.886
321.168	16.233	825.340	624.072
322.183	16.391	824.751	624.154
323.197	16.251	824.678	623.527
324.212	16.348	823.658	623.059
325.227	16.441	822.919	622.786
326.241	16.335	822.807	622.256
327.256	16.318	822.267	621.732
328.270	16.357	821.605	621.317
329.285	16.528	820.877	621.340
330.300	16.424	820.471	620.598
331.314	16.517	819.674	620.281
332.329	16.419	819.041	619.386
333.343	16.552	818.690	619.553
334.358	16.588	817.842	618.989
335.373	16.529	817.617	618.550
336.387	16.689	817.020	618.627
337.402	16.620	816.539	617.957
338.416	16.779	816.057	618.119
339.431	16.471	815.638	616.622
340.446	16.870	814.799	617.388
341.460	16.817	814.400	616.837
342.475	16.821	813.776	616.322
343.489	16.812	813.388	615.941
344.504	16.922	812.620	615.706
345.519	16.971	812.010	615.366
346.533	17.025	811.984	615.490
347.548	17.065	811.276	615.043
348.562	16.869	810.972	614.048
349.577	16.716	810.602	613.158
350.592	16.708	809.848	612.506
351.606	16.937	809.196	612.785
352.621	16.662	808.685	611.351
353.635	16.742	808.644	611.555
354.650	16.690	808.469	611.181
355.665	16.716	807.868	610.765
356.679	16.797	807.571	610.779
357.694	16.937	806.581	610.483
358.708	16.912	806.317	610.137
359.723	16.964	805.457	609.620
360.738	16.936	805.021	609.137
361.752	17.102	804.482	609.268
362.767	16.970	804.082	608.439
363.781	17.045	803.764	608.413
364.796	17.183	803.406	608.584
365.810	17.278	802.825	608.429
366.825	17.257	802.637	608.156
367.840	17.210	802.549	607.869
368.854	17.338	801.598	607.551
369.869	17.191	801.540	606.930
370.883	17.129	800.645	605.977
371.898	17.205	800.201	605.857
372.913	17.370	799.531	605.884
373.927	17.263	799.376	605.334
374.942	17.366	798.428	604.927
375.956	17.311	797.988	604.344
376.971	17.389	797.268	604.022
377.986	17.445	796.690	603.731
379.000	17.559	796.196	603.709
380.015	17.507	796.070	603.373
381.029	17.441	795.440	602.611
382.044	17.523	794.555	602.177
383.059	17.532	794.058	601.777
384.073	17.535	793.827	601.562
385.088	17.481	793.495	601.065
386.102	17.413	792.598	600.093
387.117	17.450	791.764	599.539
388.132	17.481	791.450	599.355
389.146	17.469	790.955	598.885
390.161	17.388	790.723	598.373
391.175	17.531	790.412	598.587
392.190	17.579	790.142	598.496
393.205	17.528	789.422	597.720
394.219	17.750	788.713	597.910
395.234	17.580	788.540	597.128
396.248	17.366	787.929	595.866
397.263	17.434	787.621	595.816
398.278	17.280	786.977	594.740
399.292	17.438	786.468	594.852
400.307	17.446	786.189	594.617
401.321	17.561	785.913	594.758
402.336	17.488	785.601	594.215
403.350	17.522	785.364	594.100
404.365	17.480	784.769	593.454
405.380	17.501	784.259	593.088
406.394	17.757	783.741	593.533
407.409	17.736	783.723	593.396
408.423	17.676	783.104	592.665
409.438	17.741	782.474	592.362
410.453	17.897	782.263	592.689
411.467	17.887	781.973	592.383
412.482	17.873	781.388	591.839
413.496	18.038	780.730	591.860
414.511	18.125	780.443	591.890
415.526	18.108	779.874	591.350
416.540	17.887	779.979	590.611
417.555	17.998	779.110	590.286
418.569	17.975	778.681	589.827
419.584	17.894	778.476	589.340
420.599	17.986	778.018	589.259
421.613	156.640	1369.346	1797.189
422.628	135.111	1455.518	1797.292
