DTS Sentinel unit serial number:	SN413079Multiplexer serial number:	ORYXHardware model number:	OX4-SRSoftware version number:	ORYX F/W v4.00 Oryx Data Collector v3.7.2.0data status	okinstallation	princeton_trtdifferential loss correction	single-endedforward channel	channel 3reverse channel	N/Adate	2019/09/14time	20:16:34forward acquisition time	60.00reverse acquisition time	0.00gamma	496.2192k internal	0.2315k external	0.2315temperature offset calibration	1.0009default loss term (dB/km)	0.3790temperature slope calibration	1.0000multiplexer offset coefficient	1.0000multiplexer slope coefficient	1.0000fibre end	0.00T internal ref (°C)	33.77T ext. ref 1 (°C)	4.84T ext. ref 2 (°C)	28.23length (m)	temperature (°C)	Stokes	anti-Stokes-747.200	-103.285	0.234	-0.056
-746.185	34.546	0.195	0.173
-745.171	49.233	0.224	-0.213
-744.156	-108.231	0.159	-0.035
-743.142	340.809	0.035	0.070
-742.127	14.988	0.095	0.076
-741.112	12.286	0.052	0.041
-740.098	800.000	0.053	0.220
-739.083	156.225	-0.138	0.193
-738.069	-148.795	0.301	-0.025
-737.054	-51.737	-0.141	-0.067
-736.039	-112.568	-0.407	-0.082
-735.025	141.555	0.164	-0.220
-734.010	102.574	-0.128	0.152
-732.996	117.599	0.082	0.103
-731.981	-75.519	-0.345	-0.124
-730.966	-21.462	0.089	-0.055
-729.952	-129.041	-0.317	-0.045
-728.937	-99.844	-0.242	-0.061
-727.923	-92.934	0.035	0.010
-726.908	-200.000	-0.037	0.318
-725.894	-24.795	-0.347	0.209
-724.879	-144.347	-0.237	0.022
-723.864	-141.096	0.105	-0.011
-722.850	-110.482	0.149	0.031
-721.835	455.018	-0.190	-0.426
-720.821	323.976	-0.059	-0.114
-719.806	800.000	0.131	-0.396
-718.791	-129.043	-0.379	0.054
-717.777	800.000	-0.129	0.380
-716.762	-159.619	0.234	-0.013
-715.748	-94.773	-0.184	0.051
-714.733	236.112	-0.132	0.220
-713.718	562.967	-0.059	-0.144
-712.704	-76.626	-0.105	-0.037
-711.689	-155.013	0.166	0.011
-710.675	800.000	0.021	-0.081
-709.660	-127.353	0.340	-0.050
-708.645	-47.004	-0.244	-0.120
-707.631	-29.799	0.474	-0.273
-706.616	116.458	0.233	-0.290
-705.602	-106.720	-0.316	0.071
-704.587	38.428	0.084	-0.075
-703.572	800.000	0.014	-0.044
-702.558	-101.308	0.356	0.088
-701.543	800.000	0.028	0.080
-700.529	-134.599	0.104	0.013
-699.514	-200.000	-0.034	-0.232
-698.499	-83.504	0.238	0.077
-697.485	-118.195	-0.278	0.050
-696.470	800.000	0.046	-0.143
-695.456	-200.000	0.007	-0.179
-694.441	-50.004	0.206	-0.099
-693.426	-141.614	-0.219	0.022
-692.412	187.782	0.241	-0.364
-691.397	800.000	0.103	-0.348
-690.383	294.691	-0.118	-0.218
-689.368	-91.208	0.266	-0.077
-688.354	307.814	-0.073	-0.137
-687.339	99.348	0.113	-0.132
-686.324	-118.119	-0.193	0.035
-685.310	-23.992	-0.312	-0.188
-684.295	233.728	0.080	-0.133
-683.281	-176.725	0.176	0.005
-682.266	-18.925	0.030	0.019
-681.251	6.436	-0.125	0.094
-680.237	204.526	-0.004	-0.006
-679.222	4.741	0.078	0.058
-678.208	67.307	0.103	-0.106
-677.193	247.531	-0.087	-0.148
-676.178	-90.370	-0.219	-0.064
-675.164	127.872	0.107	0.137
-674.149	201.434	-0.211	-0.329
-673.135	-161.867	-0.300	0.015
-672.120	37.460	-0.189	-0.170
-671.105	-147.567	-0.166	-0.014
-670.091	163.568	-0.157	-0.223
-669.076	794.891	0.057	-0.158
-668.062	-73.448	-0.300	-0.111
-667.047	142.899	-0.116	0.155
-666.032	-131.864	-0.132	-0.017
-665.018	-59.000	0.115	-0.050
-664.003	181.634	-0.034	0.051
-662.989	-105.890	-0.299	0.068
-661.974	-30.669	-0.319	-0.182
-660.959	23.766	-0.101	-0.084
-659.945	-73.846	-0.132	-0.049
-658.930	800.000	0.063	-0.270
-657.916	-200.000	-0.001	-0.127
-656.901	-53.333	-0.258	0.119
-655.886	18.674	-0.261	0.211
-654.872	-200.000	-0.027	-0.513
-653.857	537.892	-0.177	-0.425
-652.843	195.199	0.126	0.194
-651.828	179.006	-0.120	0.177
-650.814	183.133	0.048	0.072
-649.799	-46.509	0.138	0.068
-648.784	-200.000	0.020	-0.209
-647.770	454.889	-0.070	0.157
-646.755	800.000	0.017	0.072
-645.741	-57.212	-0.287	-0.127
-644.726	-200.000	-0.007	0.074
-643.711	-66.884	0.347	0.139
-642.697	-146.430	-0.397	0.035
-641.682	-165.075	0.150	-0.007
-640.668	71.636	0.137	-0.143
-639.653	160.440	0.169	-0.238
-638.638	9.681	0.207	0.158
-637.624	-200.000	-0.073	-0.484
-636.609	140.182	-0.231	-0.307
-635.595	-47.451	0.115	0.057
-634.580	-149.732	0.364	0.029
-633.565	-200.000	-0.003	-0.187
-632.551	-78.980	0.116	0.040
-631.536	-107.408	-0.164	0.036
-630.522	-140.109	0.236	0.025
-629.507	557.985	-0.070	0.171
-628.492	-200.000	0.017	0.218
-627.478	-117.738	0.148	0.027
-626.463	-87.705	0.153	0.047
-625.449	36.247	-0.193	-0.172
-624.434	2.086	-0.239	-0.174
-623.419	33.600	-0.098	-0.086
-622.405	-104.952	-0.073	-0.017
-621.390	-56.978	0.267	-0.119
-620.376	-37.191	-0.112	-0.060
-619.361	-200.000	-0.045	0.258
-618.346	35.529	0.216	-0.192
-617.332	136.187	0.272	0.357
-616.317	400.203	0.112	0.237
-615.303	-95.434	-0.203	-0.055
-614.288	-105.939	0.174	0.040
-613.273	800.000	-0.146	0.426
-612.259	86.550	0.111	-0.123
-611.244	390.634	-0.094	0.198
-610.230	197.107	-0.074	0.113
-609.215	-200.000	0.006	0.088
-608.201	-48.319	-0.113	-0.055
-607.186	-138.082	0.083	-0.009
-606.171	-6.215	-0.118	-0.081
-605.157	304.158	-0.148	-0.276
-604.142	-23.711	0.154	-0.093
-603.128	-74.972	0.362	0.131
-602.113	26.576	-0.057	-0.048
-601.098	-200.000	-0.013	0.106
-600.084	-22.591	0.105	-0.064
-599.069	42.820	-0.093	0.086
-598.055	-200.000	-0.043	0.205
-597.040	450.983	-0.069	0.153
-596.025	-200.000	0.041	-0.264
-595.011	-200.000	0.004	-0.260
-593.996	800.000	-0.021	-0.091
-592.982	575.868	0.112	0.276
-591.967	140.385	-0.055	0.073
-590.952	-81.820	-0.057	-0.019
-589.938	-119.200	-0.361	-0.064
-588.923	209.502	-0.020	0.031
-587.909	19.330	0.148	0.119
-586.894	-45.785	-0.379	-0.188
-585.879	-146.321	0.552	-0.049
-584.865	-12.377	0.301	-0.198
-583.850	-78.903	0.191	0.066
-582.836	-1.924	-0.149	0.105
-581.821	-121.718	0.359	0.060
-580.806	106.435	0.163	-0.194
-579.792	-43.036	-0.105	0.053
-578.777	-162.501	-0.123	-0.006
-577.763	87.944	0.099	0.111
-576.748	-105.931	-0.228	-0.052
-575.733	70.811	-0.120	-0.125
-574.719	800.000	0.039	0.158
-573.704	208.281	-0.096	0.152
-572.690	-178.519	0.258	0.006
-571.675	-45.981	-0.215	-0.107
-570.661	479.413	-0.166	0.378
-569.646	388.990	0.014	-0.029
-568.631	621.154	-0.066	0.168
-567.617	71.712	0.061	0.064
-566.602	-98.968	0.517	0.132
-565.588	-90.251	0.273	0.080
-564.573	-70.515	-0.243	0.092
-563.558	800.000	-0.092	0.372
-562.544	47.008	-0.143	-0.133
-561.529	44.990	-0.232	-0.215
-560.515	130.877	-0.082	0.106
-559.500	-87.026	-0.096	-0.029
-558.485	-21.636	-0.105	-0.064
-557.471	-113.557	-0.076	-0.015
-556.456	-162.868	-0.452	-0.022
-555.442	800.000	0.035	0.104
-554.427	16.447	0.190	-0.151
-553.412	174.390	-0.185	-0.268
-552.398	-200.000	-0.025	-0.229
-551.383	-180.330	0.131	0.003
-550.369	-200.000	-0.010	-0.098
-549.354	41.986	0.059	0.054
-548.339	-200.000	-0.002	-0.065
-547.325	40.393	0.030	-0.027
-546.310	-152.090	0.200	0.015
-545.296	-139.252	-0.064	-0.007
-544.281	128.030	-0.081	-0.104
-543.266	800.000	-0.058	0.224
-542.252	680.704	-0.070	0.183
-541.237	-11.872	-0.181	0.119
-540.223	111.068	0.164	0.198
-539.208	323.359	0.096	-0.185
-538.193	-15.305	-0.465	0.299
-537.179	70.169	0.164	0.170
-536.164	13.836	-0.148	0.116
-535.150	-47.844	0.064	0.031
-534.135	800.000	0.024	0.068
-533.121	48.835	-0.093	0.087
-532.106	9.548	-0.197	-0.150
-531.091	800.000	-0.009	-0.028
-530.077	800.000	0.104	0.398
-529.062	-193.054	0.176	0.002
-528.048	456.869	-0.202	-0.451
-527.033	83.038	0.269	0.294
-526.018	-149.842	-0.158	0.012
-525.004	-120.844	-0.130	-0.022
-523.989	651.293	-0.107	-0.276
-522.975	95.663	0.097	0.111
-521.960	292.662	-0.002	-0.003
-520.945	-30.199	-0.189	0.108
-519.931	800.000	-0.030	0.090
-518.916	-200.000	-0.021	-0.252
-517.902	-121.484	0.227	0.038
-516.887	230.484	0.230	-0.377
-515.872	-200.000	0.062	-0.340
-514.858	-200.000	-0.004	0.105
-513.843	-19.851	0.165	-0.102
-512.829	-200.000	0.004	-0.105
-511.814	16.698	-0.227	-0.180
-510.799	-72.691	-0.293	-0.108
-509.785	49.248	-0.131	0.124
-508.770	-97.326	0.324	-0.085
-507.756	-92.860	-0.165	0.046
-506.741	-109.013	0.170	-0.036
-505.726	-200.000	-0.043	0.417
-504.712	-8.399	0.016	-0.011
-503.697	-95.122	0.234	-0.063
-502.683	-165.129	0.132	0.006
-501.668	19.201	0.141	-0.114
-500.653	386.829	-0.094	-0.196
-499.639	0.858	0.152	0.109
-498.624	-140.484	0.151	-0.016
-497.610	800.000	0.055	-0.193
-496.595	800.000	-0.019	-0.058
-495.581	-200.000	-0.023	-0.245
-494.566	468.929	-0.128	0.289
-493.551	19.920	0.237	0.192
-492.537	534.308	0.123	0.292
-491.522	-200.000	-0.023	-0.116
-490.508	515.753	0.076	0.179
-489.493	-200.000	0.068	0.518
-488.478	-132.644	-0.441	-0.057
-487.464	198.354	-0.130	-0.199
-486.449	-59.075	0.081	0.035
-485.435	111.374	-0.172	0.209
-484.420	398.409	0.037	-0.078
-483.405	188.485	0.238	-0.357
-482.391	-200.000	0.001	0.299
-481.376	-8.305	-0.235	-0.159
-480.362	77.692	0.126	0.135
-479.347	-9.006	-0.222	0.149
-478.332	-85.966	-0.194	-0.060
-477.318	-162.995	0.322	-0.016
-476.303	-124.922	-0.217	0.033
-475.289	-155.394	0.243	-0.016
-474.274	571.081	0.053	-0.131
-473.259	-13.827	-0.215	-0.139
-472.245	-200.000	0.011	-0.234
-471.230	-200.000	-0.013	-0.105
-470.216	800.000	0.074	0.259
-469.201	800.000	0.020	0.082
-468.186	452.401	0.165	0.365
-467.172	-5.781	0.318	-0.218
-466.157	-133.900	-0.183	-0.023
-465.143	-51.277	0.308	-0.145
-464.128	-1.569	-0.143	-0.101
-463.113	-200.000	0.030	-0.137
-462.099	-137.464	-0.343	-0.039
-461.084	-200.000	0.000	-0.169
-460.070	-162.532	-0.236	0.012
-459.055	16.763	-0.226	-0.179
-458.040	183.458	0.202	0.299
-457.026	-200.000	-0.034	-0.224
-456.011	-65.798	-0.448	-0.179
-454.997	-133.376	0.042	-0.005
-453.982	-132.271	0.125	-0.016
-452.968	179.822	-0.077	-0.114
-451.953	185.189	0.063	-0.094
-450.938	-200.000	-0.018	-0.096
-449.924	-147.088	-0.196	-0.017
-448.909	-57.419	0.138	-0.061
-447.895	353.384	-0.064	-0.127
-446.880	800.000	0.138	-0.390
-445.865	-200.000	-0.037	-0.257
-444.851	-200.000	0.008	-0.179
-443.836	15.755	-0.289	-0.228
-442.822	-128.107	-0.248	0.036
-441.807	30.103	-0.267	-0.228
-440.792	94.605	0.204	-0.233
-439.778	-3.643	-0.279	-0.194
-438.763	-200.000	-0.089	-0.478
-437.749	-10.814	0.073	-0.048
-436.734	223.253	0.079	-0.127
-435.719	238.401	0.112	0.186
-434.705	-25.998	-0.058	0.034
-433.690	-155.601	-0.117	0.008
-432.676	-200.000	0.002	-0.210
-431.661	-50.933	-0.147	0.069
-430.646	276.192	-0.116	-0.207
-429.632	-73.177	-0.195	-0.072
-428.617	800.000	0.090	-0.305
-427.603	47.871	-0.102	-0.095
-426.588	61.037	-0.035	0.035
-425.573	-200.000	0.027	0.129
-424.559	-87.745	0.366	0.110
-423.544	-151.032	0.109	-0.008
-422.530	37.230	0.128	-0.114
-421.515	-72.895	-0.183	-0.067
-420.500	-18.058	-0.050	-0.031
-419.486	-159.213	0.310	0.017
-418.471	392.899	0.089	-0.185
-417.457	-121.422	-0.097	0.016
-416.442	800.000	0.027	0.092
-415.428	160.301	-0.250	-0.348
-414.413	209.694	-0.164	-0.258
-413.398	271.657	-0.146	-0.258
-412.384	202.982	-0.117	-0.182
-411.369	-76.742	-0.052	-0.018
-410.355	314.554	0.120	-0.227
-409.340	-122.787	0.273	0.044
-408.325	-25.026	0.261	0.155
-407.311	27.806	0.181	0.152
-406.296	-200.000	0.011	-0.367
-405.282	-139.404	-0.283	0.030
-404.267	-33.833	0.075	0.041
-403.252	-200.000	-0.031	-0.276
-402.238	-18.458	-0.240	-0.150
-401.223	-19.174	0.038	0.024
-400.209	-200.000	0.087	0.476
-399.194	-14.715	0.273	0.175
-398.179	560.978	-0.092	-0.222
-397.165	-37.569	-0.235	-0.125
-396.150	-179.940	-0.192	0.004
-395.136	41.314	-0.115	0.104
-394.121	-129.730	0.293	-0.040
-393.106	228.791	0.057	0.092
-392.092	630.700	0.071	0.180
-391.077	-200.000	-0.025	0.126
-390.063	-200.000	0.040	0.185
-389.048	95.641	0.258	0.294
-388.033	800.000	-0.048	-0.156
-387.019	-200.000	0.099	-0.000
-386.004	129.336	0.191	0.244
-384.990	106.393	-0.145	0.172
-383.975	734.768	-0.161	0.432
-382.960	-16.377	0.026	0.017
-381.946	561.430	0.019	-0.045
-380.931	42.684	0.171	0.155
-379.917	326.761	0.094	-0.179
-378.902	203.483	0.106	-0.163
-377.888	47.263	-0.095	0.088
-376.873	4.004	-0.376	0.274
-375.858	-129.971	0.226	-0.031
-374.844	44.903	0.325	-0.298
-373.829	561.962	0.043	0.104
-372.815	-37.073	-0.213	0.114
-371.800	-200.000	0.099	0.500
-370.785	58.713	-0.138	0.135
-369.771	-19.317	0.109	0.067
-368.756	730.570	-0.112	0.299
-367.742	467.930	0.069	0.155
-366.727	-24.433	0.337	-0.201
-365.712	340.749	0.224	-0.436
-364.698	-57.553	-0.193	-0.084
-363.683	36.755	-0.076	-0.067
-362.669	-112.096	-0.093	-0.019
-361.654	-93.619	0.071	0.020
-360.639	-32.424	0.330	0.184
-359.625	133.094	0.132	0.170
-358.610	453.443	-0.113	0.249
-357.596	-128.479	-0.383	0.054
-356.581	305.904	0.127	0.235
-355.566	-66.281	-0.195	0.078
-354.552	-29.237	0.298	-0.170
-353.537	-200.000	0.027	0.134
-352.523	62.284	-0.173	0.172
-351.508	-45.906	-0.235	0.116
-350.493	-38.100	0.223	0.118
-349.479	-60.954	0.222	0.094
-348.464	-42.485	0.143	0.073
-347.450	800.000	-0.045	0.174
-346.435	-123.323	-0.082	0.013
-345.420	-106.061	-0.185	-0.042
-344.406	-106.913	-0.062	0.014
-343.391	-74.049	-0.259	-0.094
-342.377	-91.212	0.059	-0.017
-341.362	-200.000	-0.006	-0.060
-340.348	800.000	-0.067	0.257
-339.333	800.000	0.122	-0.356
-338.318	315.691	0.099	-0.186
-337.304	280.075	-0.073	0.131
-336.289	800.000	0.037	0.116
-335.275	61.124	-0.084	0.083
-334.260	-58.174	0.170	0.074
-333.245	-200.000	-0.025	-0.117
-332.231	-55.403	-0.052	-0.023
-331.216	-1.833	0.277	-0.194
-330.202	73.145	-0.074	-0.077
-329.187	116.937	-0.033	-0.041
-328.172	157.583	-0.121	0.166
-327.158	-126.811	0.235	0.035
-326.143	-124.326	-0.084	0.013
-325.129	58.410	0.137	-0.134
-324.114	36.062	-0.164	0.144
-323.099	428.596	0.129	0.279
-322.085	89.879	-0.147	0.164
-321.070	-200.000	0.063	0.502
-320.056	258.662	-0.131	-0.226
-319.041	109.235	0.021	0.025
-318.026	-48.616	-0.173	0.083
-317.012	453.430	-0.050	0.110
-315.997	92.610	-0.077	0.086
-314.983	-28.468	-0.146	0.084
-313.968	-70.632	-0.204	0.077
-312.953	-200.000	-0.042	0.253
-311.939	800.000	-0.047	0.153
-310.924	-39.838	-0.035	-0.018
-309.910	-200.000	0.019	-0.249
-308.895	-200.000	0.028	0.236
-307.880	-116.316	-0.254	-0.047
-306.866	287.511	-0.112	0.203
-305.851	800.000	0.036	-0.108
-304.837	800.000	0.067	-0.258
-303.822	-92.180	0.052	0.015
-302.807	103.888	0.024	0.028
-301.793	204.718	-0.044	-0.069
-300.778	28.895	0.116	0.098
-299.764	800.000	0.066	-0.243
-298.749	-43.280	-0.194	0.098
-297.735	26.993	-0.237	-0.198
-296.720	-73.370	0.290	0.106
-295.705	-106.189	0.188	-0.042
-294.691	-140.537	0.282	-0.029
-293.676	-110.851	0.124	-0.025
-292.662	-200.000	0.033	-0.191
-291.647	-2.676	-0.336	-0.234
-290.632	58.651	0.182	-0.178
-289.618	-48.047	0.155	0.075
-288.603	-200.000	-0.049	-0.279
-287.589	-200.000	-0.026	-0.260
-286.574	-43.103	-0.211	-0.107
-285.559	-117.065	0.186	-0.034
-284.545	800.000	0.028	0.115
-283.530	-138.084	-0.144	-0.016
-282.516	422.537	-0.137	-0.292
-281.501	137.215	0.223	-0.290
-280.486	-92.849	-0.517	0.144
-279.472	-146.768	0.136	0.012
-278.457	-200.000	-0.038	0.253
-277.443	120.612	-0.043	0.054
-276.428	-200.000	0.016	0.323
-275.413	-4.501	-0.172	0.118
-274.399	-104.761	-0.103	-0.023
-273.384	-7.944	0.209	-0.140
-272.370	800.000	-0.050	0.140
-271.355	-114.585	0.082	-0.016
-270.340	-200.000	0.046	-0.376
-269.326	800.000	0.115	-0.341
-268.311	392.885	-0.139	0.287
-267.297	-59.994	-0.083	0.035
-266.282	61.107	0.041	-0.040
-265.267	-82.700	0.244	-0.079
-264.253	-164.991	0.155	-0.007
-263.238	-92.465	-0.038	-0.011
-262.224	-118.814	-0.363	0.064
-261.209	-84.874	-0.104	0.033
-260.195	310.800	0.164	-0.306
-259.180	-7.746	-0.300	0.202
-258.165	800.000	0.071	-0.202
-257.151	-129.513	-0.231	0.032
-256.136	800.000	-0.076	0.256
-255.122	-200.000	-0.030	0.174
-254.107	404.280	-0.072	0.150
-253.092	-61.828	0.324	-0.135
-252.078	261.356	0.126	0.216
-251.063	303.634	0.091	0.168
-250.049	78.015	-0.102	-0.108
-249.034	109.287	-0.162	-0.193
-248.019	80.640	0.114	-0.122
-247.005	-200.000	0.056	-0.351
-245.990	-74.464	0.045	0.016
-244.976	-130.368	-0.186	0.025
-243.961	800.000	-0.034	0.130
-242.946	-115.054	0.140	0.026
-241.932	800.000	-0.010	0.029
-240.917	-53.562	0.207	0.094
-239.903	94.015	-0.085	0.095
-238.888	758.006	-0.121	-0.325
-237.873	-57.792	-0.212	-0.092
-236.859	-44.885	0.067	0.033
-235.844	-82.844	-0.261	-0.084
-234.830	116.163	0.080	0.097
-233.815	62.193	-0.111	-0.110
-232.800	507.433	0.079	-0.182
-231.786	143.678	0.099	-0.131
-230.771	-94.372	0.164	0.045
-229.757	-9.230	-0.318	-0.211
-228.742	-121.469	0.177	0.029
-227.727	-94.950	0.077	-0.021
-226.713	800.000	0.105	-0.317
-225.698	-41.322	-0.074	-0.038
-224.684	-133.872	0.111	-0.014
-223.669	15.632	0.076	-0.059
-222.655	800.000	0.067	0.263
-221.640	117.427	0.080	-0.098
-220.625	-200.000	0.028	-0.208
-219.611	-56.668	0.173	-0.076
-218.596	103.864	-0.271	0.316
-217.582	-28.398	0.192	-0.110
-216.567	-17.347	0.308	-0.193
-215.552	-59.249	0.198	0.085
-214.538	-200.000	-0.020	0.257
-213.523	-157.669	0.124	-0.007
-212.509	-87.596	-0.179	0.054
-211.494	-149.459	-0.212	-0.017
-210.479	-200.000	-0.045	0.200
-209.465	112.527	0.154	0.185
-208.450	8.892	-0.255	0.191
-207.436	800.000	-0.120	0.428
-206.421	-6.153	-0.304	0.206
-205.406	132.204	0.214	0.273
-204.392	-105.255	0.285	-0.064
-203.377	121.484	0.142	0.176
-202.363	125.095	-0.106	-0.133
-201.348	456.565	-0.153	-0.336
-200.333	-108.692	-0.060	0.013
-199.319	-128.493	-0.300	-0.042
-198.304	-200.000	-0.003	-0.114
-197.290	-9.300	-0.268	0.177
-196.275	-183.214	0.267	-0.005
-195.260	-200.000	-0.032	0.204
-194.246	29.900	0.169	0.142
-193.231	-85.725	-0.242	0.075
-192.217	-200.000	0.011	-0.110
-191.202	698.075	-0.014	0.035
-190.187	309.351	-0.079	0.146
-189.173	184.763	0.110	0.161
-188.158	-91.830	-0.198	-0.056
-187.144	-125.090	0.028	0.004
-186.129	-30.041	-0.334	0.188
-185.114	-152.115	0.182	-0.013
-184.100	43.845	-0.177	0.160
-183.085	-200.000	-0.038	0.231
-182.071	-200.000	-0.007	-0.176
-181.056	123.107	0.196	0.244
-180.042	258.050	-0.041	-0.069
-179.027	-51.241	0.275	-0.128
-178.012	7.750	0.195	0.144
-176.998	-200.000	-0.345	-0.000
-175.983	99.399	0.210	-0.240
-174.969	-200.000	-0.004	0.030
-173.954	800.000	-0.095	-0.392
-172.939	-193.001	-0.174	-0.002
-171.925	468.200	0.107	0.238
-170.910	287.798	0.093	-0.167
-169.896	118.949	0.096	0.118
-168.881	130.642	-0.058	0.073
-167.866	75.931	-0.057	0.060
-166.852	-200.000	0.012	0.205
-165.837	85.859	0.129	0.141
-164.823	-157.055	0.131	-0.008
-163.808	5.579	0.226	-0.166
-162.793	-59.696	-0.158	0.067
-161.779	-64.236	0.329	0.133
-160.764	131.368	-0.130	0.166
-159.750	195.485	0.146	0.219
-158.735	401.711	-0.069	-0.143
-157.720	800.000	-0.076	0.261
-156.706	-179.226	0.090	-0.002
-155.691	-200.000	-0.011	-0.299
-154.677	-38.628	0.218	0.114
-153.662	508.358	0.104	-0.239
-152.647	-114.834	0.172	0.033
-151.633	-200.000	0.046	-0.239
-150.618	377.154	-0.055	0.110
-149.604	620.789	-0.057	-0.143
-148.589	60.807	0.051	0.050
-147.574	6.999	-0.173	-0.127
-146.560	-70.882	0.498	-0.186
-145.545	-92.369	-0.097	0.027
-144.531	152.466	-0.106	0.143
-143.516	16.436	-0.179	0.140
-142.502	-72.069	0.206	0.076
-141.487	-69.172	0.174	0.066
-140.472	210.908	0.138	-0.214
-139.458	-200.000	-0.005	-0.294
-138.443	-68.444	0.238	-0.092
-137.429	-6.922	-0.081	0.054
-136.414	296.460	-0.140	0.255
-135.399	12.056	0.125	0.095
-134.385	14.766	0.136	0.106
-133.370	-200.000	-0.072	-0.311
-132.356	-200.000	0.001	-0.309
-131.341	115.757	-0.132	-0.160
-130.326	-118.276	-0.237	0.042
-129.312	-54.144	0.162	-0.073
-128.297	-0.151	-0.236	-0.166
-127.283	-91.110	-0.137	0.039
-126.268	51.160	-0.422	0.396
-125.253	-173.768	-0.350	-0.010
-124.239	-97.936	-0.310	-0.079
-123.224	-43.515	0.099	-0.050
-122.210	-103.986	0.335	0.077
-121.195	-53.681	0.272	-0.123
-120.180	-110.479	-0.342	-0.070
-119.166	-133.138	0.425	-0.053
-118.151	-200.000	0.001	-0.166
-117.137	-200.000	-0.019	0.356
-116.122	89.306	0.059	0.065
-115.107	-22.465	-0.224	0.134
-114.093	-29.826	-0.091	0.051
-113.078	40.180	-0.137	0.122
-112.064	183.488	0.143	-0.208
-111.049	800.000	0.091	-0.285
-110.034	-143.245	-0.186	-0.018
-109.020	-38.386	0.176	-0.092
-108.005	-200.000	0.037	0.283
-106.991	800.000	0.047	-0.177
-105.976	436.260	-0.038	-0.082
-104.962	-200.000	0.048	-0.502
-103.947	800.000	0.095	-0.278
-102.932	309.876	-0.120	0.223
-101.918	75.369	0.117	-0.122
-100.903	157.317	-0.083	-0.114
-99.889	58.334	0.150	-0.146
-98.874	-96.906	-0.218	0.057
-97.859	-0.440	-0.288	-0.202
-96.845	282.109	-0.043	0.076
-95.830	228.999	0.089	-0.144
-94.816	-31.252	-0.092	0.051
-93.801	311.494	0.102	-0.188
-92.786	248.779	0.127	0.213
-91.772	-130.093	-0.318	-0.043
-90.757	-16.629	-0.526	0.329
-89.743	-200.000	0.049	-0.496
-88.728	65.323	-0.129	-0.129
-87.713	-71.254	-0.170	-0.063
-86.699	84.798	0.101	-0.109
-85.684	-84.518	-0.152	0.047
-84.670	33.827	0.162	-0.139
-83.655	-200.000	0.023	0.380
-82.640	114.256	-0.017	-0.020
-81.626	40.323	-0.111	0.099
-80.611	137.299	-0.006	0.008
-79.597	800.000	-0.091	0.275
-78.582	-73.219	0.580	0.210
-77.567	95.050	-0.072	-0.081
-76.553	-87.197	-0.275	-0.082
-75.538	800.000	-0.027	-0.081
-74.524	-85.780	-0.158	-0.048
-73.509	-200.000	-0.016	0.135
-72.494	-200.000	-0.005	0.125
-71.480	-32.529	0.085	0.047
-70.465	31.657	0.194	-0.165
-69.451	-200.000	-0.056	0.258
-68.436	-200.000	-0.042	0.204
-67.422	-200.000	-0.001	-0.120
-66.407	154.697	-0.113	-0.153
-65.392	548.364	-0.083	-0.196
-64.378	-56.455	-0.299	-0.131
-63.363	-147.668	0.078	-0.006
-62.349	-200.000	0.040	0.279
-61.334	-67.751	-0.999	-0.386
-60.319	800.000	0.173	0.533
-59.305	800.000	-0.329	-1.374
-58.290	416.930	0.500	1.054
-57.276	343.849	0.756	1.461
-56.261	-200.000	95.657	567.314
-55.246	618.091	1389.143	3440.412
-54.232	192.809	2576.607	3838.837
-53.217	117.067	2174.214	2634.292
-52.203	43.913	1714.470	1549.001
-51.188	36.972	1526.840	1331.943
-50.173	34.561	1499.615	1291.848
-49.159	53.685	1548.014	1465.438
-48.144	55.900	1566.895	1498.494
-47.130	37.243	1525.000	1331.991
-46.115	34.086	1510.105	1297.439
-45.100	33.910	1507.084	1293.594
-44.086	33.712	1505.574	1290.899
-43.071	33.757	1503.683	1289.531
-42.057	33.761	1501.792	1287.883
-41.042	33.766	1500.437	1286.708
-40.027	33.791	1499.359	1285.898
-39.013	33.694	1497.869	1283.915
-37.998	33.771	1496.289	1283.033
-36.984	33.804	1495.020	1282.113
-35.969	33.797	1493.507	1280.717
-34.954	33.847	1492.027	1279.734
-33.940	33.764	1491.100	1278.331
-32.925	33.738	1489.717	1276.918
-31.911	33.846	1488.370	1276.439
-30.896	33.864	1486.787	1275.155
-29.881	33.818	1486.057	1274.166
-28.867	33.875	1484.591	1273.241
-27.852	33.825	1482.747	1271.274
-26.838	33.866	1481.402	1270.344
-25.823	33.858	1480.043	1269.078
-24.809	33.847	1478.294	1267.455
-23.794	33.875	1476.397	1265.965
-22.779	33.763	1475.683	1264.555
-21.765	33.820	1474.382	1263.767
-20.750	33.810	1473.114	1262.566
-19.736	33.760	1472.430	1261.598
-18.721	33.687	1471.718	1260.451
-17.706	33.710	1470.521	1259.526
-16.692	33.825	1468.947	1258.896
-15.677	33.743	1468.435	1257.862
-14.663	33.774	1467.128	1256.894
-13.648	33.662	1466.912	1255.920
-12.633	33.691	1465.902	1255.198
-11.619	33.739	1464.432	1254.207
-10.604	33.693	1463.836	1253.344
-9.590	33.725	1463.231	1252.986
-8.575	33.761	1462.305	1252.383
-7.560	33.661	1461.977	1251.387
-6.546	33.697	1460.668	1250.454
-5.531	33.660	1459.641	1249.286
-4.517	33.733	1458.764	1248.966
-3.502	33.690	1458.027	1248.003
-2.487	33.667	1457.146	1247.048
-1.473	33.636	1455.789	1245.635
-0.458	33.716	1454.444	1244.958
0.556	33.069	1444.932	1233.353
1.571	29.932	1418.790	1190.786
2.586	26.158	1356.918	1115.494
3.600	24.286	1275.097	1037.253
4.615	22.936	1228.183	991.431
5.629	19.550	1172.705	928.390
6.644	11.683	1088.966	822.586
7.659	5.773	1048.996	763.610
8.673	4.877	1043.629	755.296
9.688	4.908	1040.497	753.113
10.702	4.810	1039.254	751.671
11.717	4.754	1037.292	749.918
12.731	6.828	1039.317	761.318
13.746	14.014	1049.383	803.478
14.761	19.267	1055.459	833.537
15.775	19.180	1054.129	831.993
16.790	18.155	1051.920	825.234
17.804	17.088	1049.818	818.370
18.819	16.235	1047.470	812.364
19.834	15.808	1046.331	809.351
20.848	15.328	1045.904	806.644
21.863	15.235	1045.087	805.497
22.877	15.017	1043.969	803.515
23.892	14.882	1043.094	802.124
24.907	14.837	1042.319	801.238
25.921	14.748	1041.997	800.497
26.936	14.731	1041.286	799.796
27.950	14.854	1039.601	799.020
28.965	14.730	1038.769	797.717
29.980	14.840	1037.977	797.564
30.994	15.085	1036.748	797.715
32.009	15.025	1035.989	796.778
33.023	15.033	1034.961	795.952
34.038	15.097	1034.249	795.639
35.053	14.995	1033.510	794.517
36.067	14.924	1032.831	793.586
37.082	14.975	1031.793	792.959
38.096	14.876	1031.129	791.912
39.111	15.053	1030.178	791.948
40.126	15.045	1029.246	791.125
41.140	14.919	1028.118	789.591
42.155	14.838	1027.136	788.386
43.169	14.782	1025.999	787.179
44.184	14.618	1025.031	785.594
45.199	14.801	1023.360	785.107
46.213	14.656	1023.277	784.294
47.228	14.660	1022.105	783.344
48.242	14.804	1021.048	783.135
49.257	14.906	1020.387	783.040
50.271	14.805	1019.828	782.068
51.286	14.771	1018.791	781.043
52.301	14.923	1017.773	780.905
53.315	14.891	1016.918	780.032
54.330	14.834	1016.201	779.144
55.344	14.729	1015.237	777.848
56.359	14.704	1014.326	776.965
57.374	14.652	1013.740	776.208
58.388	14.844	1012.399	776.002
59.403	14.728	1011.793	774.930
60.417	14.640	1010.866	773.744
61.432	14.701	1009.784	773.131
62.447	14.734	1009.317	772.859
63.461	14.452	1008.943	771.196
64.476	14.578	1007.782	770.825
65.490	14.487	1006.652	769.473
66.505	14.488	1006.047	768.948
67.520	14.464	1005.578	768.409
68.534	14.673	1004.420	768.420
69.549	14.571	1003.744	767.365
70.563	14.528	1003.359	766.804
71.578	14.572	1002.202	766.053
72.593	14.416	1001.521	764.753
73.607	14.436	1000.508	764.002
74.622	14.407	999.413	762.966
75.636	14.506	998.799	762.881
76.651	14.499	997.700	761.942
77.666	14.363	997.301	760.947
78.680	14.427	996.642	760.670
79.695	14.463	996.068	760.329
80.709	14.512	995.596	760.124
81.724	14.656	994.555	759.918
82.739	14.654	993.638	759.140
83.753	14.674	993.446	759.019
84.768	14.898	992.589	759.315
85.782	14.922	991.745	758.710
86.797	15.151	990.874	759.015
87.812	14.913	990.315	757.443
88.826	14.805	989.541	756.293
89.841	14.834	988.659	755.682
90.855	14.857	988.142	755.326
91.870	15.048	987.116	755.339
92.884	14.900	986.661	754.255
93.899	15.013	985.772	754.018
94.914	15.092	984.743	753.519
95.928	14.952	984.422	752.578
96.943	15.107	983.895	752.805
97.957	14.930	982.976	751.238
98.972	14.958	981.766	750.376
99.987	14.951	981.286	749.908
101.001	14.885	980.635	749.049
102.016	15.020	979.871	749.005
103.030	14.966	978.875	747.935
104.045	15.013	977.860	747.302
105.060	15.017	977.094	746.670
106.074	14.838	976.120	745.062
107.089	14.894	975.074	744.449
108.103	14.594	974.095	742.296
109.118	14.750	973.114	742.180
110.133	14.678	972.519	741.341
111.147	14.656	971.759	740.594
112.162	14.680	970.708	739.835
113.176	14.585	969.983	738.797
114.191	14.628	969.029	738.197
115.206	14.798	968.133	738.199
116.220	14.737	967.194	737.150
117.235	14.803	966.395	736.766
118.249	14.730	965.951	736.041
119.264	14.680	964.904	734.958
120.279	14.701	964.323	734.544
121.293	14.557	963.490	733.210
122.308	14.618	962.437	732.610
123.322	14.524	961.843	731.684
124.337	14.453	960.731	730.459
125.352	14.542	960.003	730.233
126.366	14.629	959.007	729.789
127.381	14.501	957.972	728.378
128.395	14.451	957.107	727.436
129.410	14.636	955.454	726.922
130.424	14.579	955.170	726.397
131.439	14.574	954.234	725.599
132.454	14.585	953.871	725.307
133.468	14.744	952.850	725.154
134.483	14.782	952.308	724.843
135.497	14.763	951.467	724.058
136.512	14.662	950.649	722.931
137.527	14.785	949.828	722.777
138.541	14.713	949.307	722.005
139.556	14.745	948.774	721.675
140.570	14.722	947.946	720.882
141.585	14.782	947.015	720.368
142.600	14.868	946.612	720.368
143.614	14.989	945.853	720.245
144.629	15.061	944.757	719.659
145.643	15.034	944.143	719.013
146.658	15.099	942.900	718.279
147.673	14.987	942.546	717.466
148.687	14.873	941.615	716.207
149.702	14.845	940.806	715.409
150.716	14.744	939.976	714.281
151.731	14.793	939.072	713.739
152.746	14.710	938.793	713.111
153.760	14.893	937.596	712.917
154.775	14.804	937.440	712.356
155.789	14.944	936.317	712.039
156.804	14.984	935.468	711.500
157.819	14.983	934.883	710.985
158.833	14.990	934.414	710.596
159.848	15.079	933.768	710.419
160.862	15.113	933.278	710.131
161.877	15.237	931.990	709.611
162.892	14.969	931.503	708.041
163.906	14.836	930.516	706.668
164.921	14.868	929.922	706.288
165.935	14.860	928.605	705.192
166.950	14.854	928.094	704.717
167.964	14.922	927.262	704.309
168.979	15.051	925.577	703.508
169.994	14.942	925.055	702.593
171.008	14.832	924.324	701.514
172.023	14.970	924.110	701.867
173.037	14.926	923.167	700.906
174.052	15.032	922.245	700.587
175.067	15.032	921.733	700.137
176.081	14.936	920.720	698.906
177.096	14.823	919.872	697.728
178.110	14.902	919.338	697.591
179.125	14.915	918.452	696.908
180.140	14.991	917.171	696.191
181.154	14.996	916.665	695.769
182.169	15.025	916.714	695.863
183.183	15.120	915.475	695.255
184.198	15.206	915.101	695.266
185.213	15.123	914.236	694.204
186.227	15.174	913.597	693.871
187.242	15.201	913.242	693.651
188.256	15.384	912.095	693.472
189.271	15.288	912.062	692.991
190.286	15.395	911.133	692.665
191.300	15.123	910.532	691.024
192.315	15.074	909.424	689.919
193.329	14.895	908.687	688.562
194.344	14.813	908.378	687.933
195.359	15.027	907.624	688.181
196.373	15.091	907.581	688.348
197.388	15.169	906.886	688.079
198.402	15.297	906.292	688.094
199.417	15.354	906.063	688.092
200.432	15.612	905.017	688.295
201.446	15.642	904.835	688.220
202.461	15.559	904.385	687.477
203.475	15.554	904.169	687.231
204.490	15.615	903.309	686.765
205.504	15.601	902.399	685.955
206.519	15.340	901.870	684.430
207.534	15.510	900.795	684.243
208.548	15.429	900.223	683.422
209.563	15.379	899.576	682.664
210.577	15.568	898.996	682.932
211.592	15.517	898.669	682.417
212.607	15.539	897.896	681.858
213.621	15.633	897.399	681.804
214.636	15.629	896.763	681.243
215.650	15.582	895.800	680.261
216.665	15.518	895.552	679.752
217.680	15.519	895.140	679.383
218.694	15.687	894.606	679.599
219.709	15.727	894.089	679.306
220.723	15.849	893.446	679.249
221.738	15.774	892.277	677.997
222.753	15.757	891.529	677.302
223.767	15.694	891.254	676.778
224.782	15.810	890.290	676.456
225.796	15.840	889.733	676.093
226.811	15.847	889.199	675.656
227.826	15.802	888.386	674.797
228.840	15.854	887.631	674.372
229.855	15.698	886.955	673.173
230.869	15.712	886.316	672.686
231.884	15.669	885.705	671.989
232.899	15.723	884.993	671.605
233.913	15.710	884.319	670.984
234.928	15.723	883.490	670.346
235.942	15.665	882.934	669.632
236.957	15.596	882.249	668.781
237.972	15.578	881.671	668.212
238.986	15.762	880.802	668.223
240.001	15.714	880.044	667.400
241.015	15.623	880.045	666.980
242.030	15.634	879.344	666.436
243.045	15.825	878.134	666.214
244.059	15.857	878.102	666.259
245.074	15.882	877.306	665.695
246.088	15.808	876.880	665.017
247.103	15.944	876.035	664.858
248.117	16.085	875.675	665.080
249.132	16.057	875.402	664.703
250.147	16.142	874.656	664.414
251.161	16.313	874.206	664.688
252.176	16.281	873.259	663.782
253.190	16.271	872.709	663.266
254.205	16.361	872.080	663.082
255.220	16.452	871.455	662.904
256.234	16.465	870.726	662.344
257.249	16.488	870.209	661.982
258.263	16.373	869.824	661.178
259.278	16.427	868.820	660.569
260.293	16.511	868.317	660.457
261.307	16.469	868.183	660.131
262.322	16.419	867.429	659.303
263.336	16.540	866.661	659.135
264.351	16.681	866.001	659.125
265.366	16.504	865.914	658.311
266.380	16.559	865.512	658.159
267.395	16.527	864.612	657.294
268.409	16.520	863.898	656.663
269.424	16.476	862.862	655.648
270.439	16.419	862.407	655.022
271.453	16.404	861.929	654.543
272.468	16.544	860.543	653.975
273.482	16.666	859.893	653.896
274.497	16.567	859.518	653.169
275.512	16.355	858.771	651.725
276.526	16.564	858.070	651.941
277.541	16.587	857.801	651.770
278.555	16.611	857.048	651.230
279.570	16.719	856.528	651.194
280.585	16.781	856.047	651.010
281.599	16.753	855.892	650.726
282.614	16.710	855.218	649.990
283.628	16.664	854.059	648.877
284.643	16.662	853.551	648.427
285.657	16.688	853.210	648.207
286.672	16.766	852.520	647.924
287.687	16.751	851.941	647.372
288.701	16.883	851.478	647.465
289.716	16.646	851.137	646.246
290.730	16.643	850.839	645.951
291.745	16.734	849.951	645.566
292.760	16.760	849.234	645.061
293.774	16.758	848.646	644.550
294.789	16.958	848.087	644.829
295.803	17.017	847.204	644.325
296.818	16.892	846.642	643.367
297.833	16.929	845.806	642.816
298.847	16.862	845.257	642.086
299.862	16.848	844.498	641.401
300.876	16.935	844.260	641.493
301.891	16.957	843.830	641.193
302.906	17.024	842.987	640.749
303.920	17.105	842.112	640.332
304.935	17.110	841.801	640.056
305.949	17.250	841.149	640.032
306.964	17.133	840.734	639.219
307.979	17.127	839.830	638.453
308.993	17.168	839.765	638.501
310.008	17.105	839.385	637.917
311.022	17.268	838.461	637.771
312.037	17.357	837.704	637.472
313.052	17.251	837.338	636.740
314.066	17.075	836.628	635.486
315.081	16.997	836.305	634.894
316.095	17.022	835.736	634.498
317.110	17.039	835.265	634.147
318.125	17.032	834.579	633.545
319.139	17.022	834.077	633.070
320.154	17.013	833.658	632.662
321.168	16.930	833.584	632.242
322.183	17.000	832.495	631.621
323.197	17.223	832.077	632.077
324.212	17.120	831.435	631.149
325.227	17.243	830.942	631.176
326.241	17.248	830.392	630.722
327.256	17.199	829.837	630.062
328.270	17.135	829.295	629.357
329.285	17.152	828.499	628.762
330.300	17.192	827.896	628.396
331.314	17.151	827.703	628.041
332.329	17.182	826.995	627.565
333.343	17.200	826.609	627.283
334.358	17.415	825.772	627.383
335.373	17.370	825.439	626.909
336.387	17.382	824.969	626.540
337.402	17.341	824.591	626.047
338.416	17.410	823.776	625.628
339.431	17.432	823.187	625.207
340.446	17.562	822.964	625.458
341.460	17.651	822.403	625.304
342.475	17.643	821.608	624.615
343.489	17.698	821.792	624.900
344.504	17.813	820.730	624.459
345.519	17.699	820.423	623.753
346.533	17.876	819.505	623.645
347.548	17.740	819.336	622.966
348.562	17.681	818.772	622.268
349.577	17.431	818.559	621.137
350.592	17.592	817.677	621.001
351.606	17.527	817.297	620.420
352.621	17.588	816.469	619.960
353.635	17.465	816.550	619.518
354.650	17.532	815.951	619.253
355.665	17.698	815.390	619.373
356.679	17.683	814.901	618.894
357.694	17.771	814.408	618.785
358.708	17.646	813.798	617.811
359.723	17.718	813.367	617.692
360.738	17.813	812.698	617.473
361.752	17.815	812.339	617.154
362.767	17.722	812.134	616.607
363.781	17.611	811.752	615.858
364.796	17.864	810.939	616.101
365.810	17.953	811.083	616.479
366.825	17.849	810.902	615.909
367.840	17.995	810.419	616.015
368.854	18.081	809.512	615.580
369.869	18.014	809.209	615.053
370.883	17.993	808.265	614.206
371.898	17.997	807.902	613.892
372.913	18.012	807.026	613.225
373.927	18.149	806.503	613.265
374.942	18.123	805.783	612.571
375.956	18.163	805.291	612.286
376.971	18.088	804.943	611.700
377.986	18.197	804.259	611.514
379.000	18.252	803.914	611.395
380.015	18.304	803.455	611.177
381.029	18.269	802.741	610.455
382.044	18.099	802.541	609.642
383.059	18.421	801.407	609.875
384.073	18.330	801.400	609.491
385.088	18.138	800.995	608.447
386.102	18.152	800.085	607.748
387.117	18.263	799.458	607.613
388.132	18.142	798.947	606.744
389.146	18.017	798.801	606.134
390.161	18.120	798.460	606.188
391.175	18.309	797.989	606.447
392.190	18.395	797.622	606.418
393.205	18.524	796.774	606.174
394.219	18.314	796.442	605.127
395.234	18.262	796.152	604.668
396.248	18.185	795.634	603.949
397.263	18.200	794.846	603.351
398.278	18.124	794.582	602.831
399.292	17.891	794.589	601.960
400.307	18.154	793.841	602.267
401.321	18.095	793.489	601.740
402.336	18.082	793.036	601.298
403.350	18.284	792.450	601.510
404.365	18.242	792.128	601.063
405.380	18.444	791.644	601.351
406.394	18.394	791.420	600.954
407.409	18.568	790.720	600.979
408.423	18.589	790.337	600.709
409.438	18.577	790.401	600.660
410.453	18.642	789.587	600.216
411.467	18.628	789.291	599.891
412.482	18.647	789.087	599.748
413.496	18.710	788.421	599.410
414.511	18.649	788.196	598.972
415.526	18.881	787.404	599.124
416.540	18.688	787.764	598.674
417.555	18.721	787.129	598.252
418.569	18.536	786.762	597.277
419.584	18.787	785.669	597.267
420.599	18.816	785.340	597.064
421.613	155.998	1369.366	1792.226
422.628	134.774	1454.485	1792.321
