DTS Sentinel unit serial number:	SN413079Multiplexer serial number:	ORYXHardware model number:	OX4-SRSoftware version number:	ORYX F/W v4.00 Oryx Data Collector v3.7.2.0data status	okinstallation	princeton_trtdifferential loss correction	single-endedforward channel	channel 3reverse channel	N/Adate	2019/09/18time	19:36:35forward acquisition time	60.00reverse acquisition time	0.00gamma	496.2192k internal	0.2325k external	0.2325temperature offset calibration	1.0005default loss term (dB/km)	0.3790temperature slope calibration	1.0000multiplexer offset coefficient	1.0000multiplexer slope coefficient	1.0000fibre end	0.00T internal ref (°C)	32.30T ext. ref 1 (°C)	1.07T ext. ref 2 (°C)	22.50length (m)	temperature (°C)	Stokes	anti-Stokes-747.200	-25.600	0.199	0.119
-746.185	242.469	0.107	-0.181
-745.171	800.000	0.093	-0.300
-744.156	19.927	-0.178	-0.145
-743.142	62.175	0.241	0.243
-742.127	-152.584	0.025	-0.002
-741.112	353.853	0.099	0.199
-740.098	-111.795	-0.215	0.044
-739.083	9.558	-0.263	-0.201
-738.069	-13.012	-0.092	0.061
-737.054	-200.000	0.012	-0.107
-736.039	83.001	-0.141	-0.154
-735.025	113.789	-0.340	0.417
-734.010	-172.805	-0.227	-0.007
-732.996	206.281	-0.209	-0.328
-731.981	79.949	0.217	-0.235
-730.966	-2.602	-0.044	-0.031
-729.952	-6.817	-0.141	0.097
-728.937	-103.459	0.057	0.014
-727.923	-153.015	0.052	0.004
-726.908	-200.000	0.036	0.367
-725.894	790.646	0.034	0.095
-724.879	-200.000	-0.021	-0.212
-723.864	-22.423	-0.172	0.105
-722.850	87.543	0.161	0.179
-721.835	800.000	0.045	-0.196
-720.821	46.353	0.109	-0.102
-719.806	194.906	0.105	-0.161
-718.791	-200.000	0.013	0.136
-717.777	-200.000	-0.050	0.259
-716.762	235.948	0.284	0.473
-715.748	549.475	0.111	-0.269
-714.733	-113.444	-0.528	-0.104
-713.718	-21.595	-0.251	-0.154
-712.704	-200.000	-0.034	0.185
-711.689	675.653	0.012	-0.033
-710.675	-31.644	-0.057	0.032
-709.660	331.934	-0.050	-0.097
-708.645	-55.409	0.033	0.015
-707.631	-67.312	0.389	-0.154
-706.616	4.474	0.059	-0.044
-705.602	-184.706	0.310	0.005
-704.587	-200.000	-0.023	-0.146
-703.572	-200.000	0.015	0.346
-702.558	800.000	0.010	0.035
-701.543	513.391	0.049	-0.116
-700.529	-200.000	0.074	-0.330
-699.514	-200.000	0.050	0.233
-698.499	-154.826	0.213	0.014
-697.485	-2.995	0.362	0.255
-696.470	22.976	0.173	-0.143
-695.456	-84.293	-0.235	-0.075
-694.441	-32.083	0.131	0.074
-693.426	37.805	0.254	0.228
-692.412	47.903	0.095	0.090
-691.397	382.413	-0.041	-0.085
-690.383	60.545	-0.179	-0.179
-689.368	-199.332	0.425	-0.002
-688.354	15.460	-0.244	0.193
-687.339	-56.945	0.250	-0.111
-686.324	-200.000	-0.017	-0.138
-685.310	-64.697	-0.158	0.064
-684.295	160.347	-0.119	0.166
-683.281	-29.456	-0.359	0.207
-682.266	59.478	-0.158	0.157
-681.251	-200.000	-0.021	-0.334
-680.237	-53.486	0.198	0.091
-679.222	245.437	0.084	-0.143
-678.208	794.867	0.081	-0.225
-677.193	566.012	0.146	-0.358
-676.178	-50.128	0.221	0.105
-675.164	-200.000	-0.008	-0.188
-674.149	200.365	0.087	-0.135
-673.135	-97.063	0.155	-0.041
-672.120	-200.000	0.021	-0.281
-671.105	-115.131	-0.119	-0.023
-670.091	-71.852	0.201	-0.075
-669.076	-29.826	-0.187	0.107
-668.062	-189.737	0.161	0.002
-667.047	3.483	0.196	0.144
-666.032	31.941	0.030	0.026
-665.018	-132.703	-0.130	0.017
-664.003	135.103	0.027	-0.035
-662.989	-100.419	-0.327	0.081
-661.974	-36.616	-0.369	-0.200
-660.959	800.000	-0.018	0.054
-659.945	-200.000	0.005	0.090
-658.930	-26.714	-0.297	0.175
-657.916	-116.820	0.152	0.028
-656.901	6.097	-0.272	0.203
-655.886	-117.998	0.040	0.007
-654.872	800.000	0.061	-0.209
-653.857	712.713	-0.103	-0.274
-652.843	348.003	0.045	0.089
-651.828	-27.801	0.098	0.057
-650.814	-39.549	0.235	-0.124
-649.799	-180.574	0.190	-0.004
-648.784	587.819	0.083	0.204
-647.770	61.496	0.176	0.176
-646.755	-200.000	-0.057	0.695
-645.741	-200.000	0.008	0.062
-644.726	-200.000	0.014	-0.105
-643.711	-110.155	0.304	-0.064
-642.697	-91.428	0.127	-0.036
-641.682	115.437	-0.161	0.197
-640.668	-142.728	0.162	0.016
-639.653	800.000	0.057	-0.207
-638.638	82.704	-0.085	0.093
-637.624	706.513	0.080	0.212
-636.609	-120.054	0.167	0.029
-635.595	200.263	0.210	-0.324
-634.580	74.161	-0.235	-0.248
-633.565	-93.172	-0.193	0.054
-632.551	800.000	-0.059	0.212
-631.536	8.469	0.148	0.112
-630.522	-60.167	-0.271	0.116
-629.507	-94.557	-0.448	0.123
-628.492	67.055	-0.145	-0.149
-627.478	-165.334	-0.335	-0.015
-626.463	-200.000	-0.046	-0.315
-625.449	-146.692	-0.158	-0.014
-624.434	661.245	0.058	-0.150
-623.419	-89.477	0.386	-0.114
-622.405	-43.704	0.338	-0.171
-621.390	-107.435	0.162	0.036
-620.376	-39.498	-0.084	0.044
-619.361	-66.376	-0.322	0.128
-618.346	104.928	0.188	-0.222
-617.332	11.738	0.286	0.221
-616.317	-105.470	-0.303	-0.069
-615.303	-200.000	-0.004	0.066
-614.288	230.308	-0.102	0.168
-613.273	275.533	0.088	-0.156
-612.259	800.000	0.079	-0.238
-611.244	-200.000	-0.004	-0.213
-610.230	376.041	0.144	-0.296
-609.215	-18.700	-0.284	-0.177
-608.201	-200.000	-0.001	0.033
-607.186	-52.451	0.346	-0.161
-606.171	-143.762	0.149	-0.014
-605.157	21.369	0.228	-0.186
-604.142	5.500	-0.226	0.168
-603.128	-71.383	0.318	0.120
-602.113	404.322	-0.086	0.182
-601.098	-25.863	-0.253	0.150
-600.084	-200.000	-0.015	0.115
-599.069	111.061	-0.119	-0.144
-598.055	800.000	0.052	0.164
-597.040	190.367	0.078	0.117
-596.025	397.350	0.086	0.181
-595.011	1.181	0.183	0.132
-593.996	337.454	0.115	0.225
-592.982	-10.224	-0.104	-0.070
-591.967	799.303	0.121	-0.336
-590.952	-141.342	-0.148	-0.015
-589.938	-82.915	0.313	0.101
-588.923	-43.465	-0.160	0.081
-587.909	-13.638	0.172	0.112
-586.894	-15.265	0.050	-0.032
-585.879	-119.072	-0.351	-0.062
-584.865	-14.345	0.223	-0.144
-583.850	-85.226	-0.177	-0.056
-582.836	-200.000	0.034	-0.354
-581.821	-200.000	0.007	0.040
-580.806	439.019	-0.088	-0.193
-579.792	-136.469	-0.366	0.043
-578.777	13.233	0.144	-0.112
-577.763	-47.845	0.090	0.044
-576.748	-200.000	0.005	0.136
-575.733	-200.000	-0.001	0.004
-574.719	-6.684	0.207	0.141
-573.704	-131.216	-0.103	0.014
-572.690	116.408	0.053	0.065
-571.675	-37.306	-0.103	0.055
-570.661	-113.191	-0.243	-0.048
-569.646	800.000	0.096	0.312
-568.631	-200.000	0.000	-0.048
-567.617	-142.258	-0.253	-0.025
-566.602	53.087	0.099	-0.095
-565.588	-167.133	0.146	-0.006
-564.573	774.191	-0.092	0.251
-563.558	-14.996	-0.171	-0.110
-562.544	800.000	-0.023	0.089
-561.529	78.977	-0.100	0.107
-560.515	149.896	-0.126	-0.171
-559.500	295.961	0.126	0.231
-558.485	145.138	-0.125	0.168
-557.471	81.730	-0.101	-0.109
-556.456	427.218	0.056	0.120
-555.442	128.377	-0.068	0.086
-554.427	85.184	-0.075	-0.082
-553.412	347.894	-0.095	-0.188
-552.398	-102.538	-0.238	-0.057
-551.383	218.726	-0.068	-0.109
-550.369	-49.762	0.302	0.144
-549.354	-200.000	-0.009	-0.046
-548.339	800.000	-0.078	0.280
-547.325	2.571	-0.408	0.296
-546.310	383.386	0.165	-0.341
-545.296	-58.498	0.362	0.158
-544.281	-170.230	-0.258	0.009
-543.266	-71.465	-0.016	0.006
-542.252	-87.049	-0.091	0.028
-541.237	145.298	-0.022	-0.029
-540.223	253.333	0.258	-0.440
-539.208	-6.986	-0.129	0.088
-538.193	-200.000	0.009	-0.099
-537.179	61.902	-0.124	0.124
-536.164	-157.630	0.267	-0.016
-535.150	756.154	0.042	-0.115
-534.135	90.794	0.116	-0.130
-533.121	13.062	0.183	-0.142
-532.106	-200.000	0.006	-0.187
-531.091	-181.562	-0.261	-0.005
-530.077	-57.985	0.201	0.088
-529.062	800.000	0.098	-0.306
-528.048	-200.000	0.008	-0.126
-527.033	-53.553	-0.160	0.073
-526.018	474.323	-0.160	-0.361
-525.004	800.000	-0.025	-0.072
-523.989	-23.151	-0.286	-0.172
-522.975	89.378	0.196	-0.218
-521.960	800.000	0.071	0.211
-520.945	-49.996	-0.410	-0.194
-519.931	54.450	0.082	0.079
-518.916	97.044	-0.237	-0.272
-517.902	800.000	-0.027	-0.105
-516.887	-200.000	0.078	0.435
-515.872	-28.063	-0.094	0.054
-514.858	-66.064	-0.190	0.076
-513.843	-60.754	-0.144	-0.061
-512.829	-10.391	-0.182	0.121
-511.814	-85.481	-0.264	-0.082
-510.799	69.461	-0.283	-0.291
-509.785	-65.071	0.144	0.058
-508.770	16.482	0.122	0.096
-507.756	-98.265	0.293	-0.075
-506.741	-38.868	-0.173	0.091
-505.726	88.046	0.079	0.088
-504.712	-82.678	0.121	-0.039
-503.697	800.000	-0.073	0.290
-502.683	-92.557	-0.086	-0.024
-501.668	-61.469	0.133	-0.056
-500.653	-115.037	-0.211	-0.040
-499.639	-136.163	-0.259	-0.030
-498.624	256.259	-0.190	0.327
-497.610	-200.000	0.067	0.414
-496.595	46.270	-0.127	0.118
-495.581	-33.640	-0.448	-0.247
-494.566	800.000	-0.044	-0.144
-493.551	30.267	0.056	-0.047
-492.537	144.272	-0.120	-0.160
-491.522	-57.688	0.124	-0.054
-490.508	757.562	0.112	0.302
-489.493	-200.000	-0.010	0.285
-488.478	800.000	0.032	-0.119
-487.464	55.195	-0.179	0.173
-486.449	4.363	-0.268	-0.196
-485.435	800.000	-0.028	-0.098
-484.420	23.955	-0.054	0.044
-483.405	39.356	0.318	0.284
-482.391	-103.745	-0.246	0.058
-481.376	38.815	0.302	-0.270
-480.362	85.839	0.109	-0.119
-479.347	362.212	0.057	-0.115
-478.332	214.175	-0.192	-0.304
-477.318	35.559	0.193	-0.169
-476.303	-200.000	-0.058	-0.493
-475.289	-200.000	-0.031	-0.370
-474.274	233.377	-0.048	0.078
-473.259	153.670	0.139	-0.190
-472.245	800.000	-0.051	-0.157
-471.230	357.439	0.097	0.194
-470.216	-117.833	-0.273	0.049
-469.201	-81.845	0.209	0.068
-468.186	-6.281	-0.231	-0.157
-467.172	-182.033	0.311	0.006
-466.157	-41.720	0.092	0.047
-465.143	-52.432	-0.155	-0.071
-464.128	144.740	0.214	-0.286
-463.113	86.744	-0.292	-0.322
-462.099	-42.651	0.206	-0.105
-461.084	83.962	0.061	0.067
-460.070	-44.518	0.301	0.150
-459.055	434.307	0.097	-0.211
-458.040	-99.185	0.287	0.072
-457.026	280.217	0.086	-0.153
-456.011	405.892	-0.020	0.042
-454.997	800.000	0.020	0.072
-453.982	-200.000	-0.027	0.220
-452.968	800.000	-0.063	-0.251
-451.953	-41.070	-0.265	0.137
-450.938	667.777	0.079	-0.203
-449.924	529.823	-0.063	-0.149
-448.909	-200.000	0.042	0.275
-447.895	275.540	0.100	0.177
-446.880	-175.320	-0.230	0.006
-445.865	315.953	-0.200	0.376
-444.851	189.367	0.106	0.159
-443.836	-200.000	0.038	0.187
-442.822	15.029	-0.202	0.158
-441.807	2.847	0.327	0.237
-440.792	10.122	-0.278	-0.211
-439.778	-51.553	-0.272	0.127
-438.763	-50.048	0.142	0.067
-437.749	0.013	-0.420	-0.298
-436.734	-164.265	-0.439	-0.020
-435.719	-45.156	0.199	-0.099
-434.705	-146.069	0.134	-0.012
-433.690	-39.541	0.178	-0.093
-432.676	-83.771	-0.206	-0.066
-431.661	-200.000	0.061	-0.271
-430.646	-85.975	0.377	0.116
-429.632	522.627	0.065	0.152
-428.617	-78.156	-0.130	0.044
-427.603	-170.354	-0.364	0.013
-426.588	-200.000	-0.028	-0.162
-425.573	83.765	-0.143	-0.156
-424.559	-26.572	0.177	0.103
-423.544	-200.000	-0.000	-0.060
-422.530	180.394	0.187	0.274
-421.515	-23.809	-0.025	-0.015
-420.500	553.860	-0.132	0.317
-419.486	-168.624	-0.095	-0.004
-418.471	-110.387	-0.594	0.123
-417.457	800.000	0.108	0.348
-416.442	-200.000	-0.017	-0.286
-415.428	-176.617	-0.245	-0.006
-414.413	41.517	-0.079	-0.071
-413.398	549.182	-0.154	0.367
-412.384	-200.000	0.012	-0.248
-411.369	504.671	0.161	-0.372
-410.355	47.161	-0.084	-0.078
-409.340	-82.696	0.306	-0.099
-408.325	-126.065	-0.102	-0.015
-407.311	754.095	0.111	-0.300
-406.296	-183.095	-0.752	0.013
-405.282	-141.471	-0.120	-0.012
-404.267	-200.000	-0.012	0.174
-403.252	-23.953	-0.171	-0.102
-402.238	0.508	0.147	-0.104
-401.223	-57.749	-0.163	0.071
-400.209	-98.038	0.299	0.077
-399.194	0.032	0.230	0.164
-398.179	-75.713	0.203	-0.072
-397.165	656.635	-0.020	-0.052
-396.150	-15.053	0.068	-0.043
-395.136	-46.780	-0.199	0.097
-394.121	-133.889	-0.212	-0.026
-393.106	-36.659	0.189	0.101
-392.092	24.138	0.293	-0.241
-391.077	800.000	-0.103	0.356
-390.063	56.452	0.092	-0.089
-389.048	114.413	-0.073	0.088
-388.033	47.160	0.205	0.190
-387.019	-2.160	0.114	0.080
-386.004	160.523	0.112	0.156
-384.990	772.246	0.084	-0.227
-383.975	-89.158	-0.275	-0.081
-382.960	130.448	0.065	0.082
-381.946	-200.000	-0.000	-0.083
-380.931	-131.452	0.068	0.009
-379.917	469.200	0.139	-0.311
-378.902	-110.026	0.109	-0.023
-377.888	-52.662	-0.216	0.099
-376.873	77.727	-0.206	0.218
-375.858	-19.920	0.190	-0.117
-374.844	-42.221	0.029	-0.015
-373.829	-200.000	0.009	0.062
-372.815	314.691	0.050	0.093
-371.800	-200.000	0.007	-0.075
-370.785	254.222	0.078	0.133
-369.771	-120.216	0.198	-0.034
-368.756	185.334	-0.108	-0.159
-367.742	505.368	-0.073	0.167
-366.727	-47.533	0.227	-0.110
-365.712	53.767	0.161	0.154
-364.698	-166.287	-0.326	-0.014
-363.683	27.505	0.271	-0.227
-362.669	72.238	0.092	-0.095
-361.654	800.000	-0.129	0.402
-360.639	-62.719	-0.162	-0.067
-359.625	-200.000	0.008	-0.188
-358.610	-200.000	-0.055	0.253
-357.596	-82.468	-0.117	0.038
-356.581	-200.000	-0.029	-0.436
-355.566	-39.102	-0.155	-0.081
-354.552	-113.525	-0.107	0.021
-353.537	107.572	-0.137	0.162
-352.523	13.367	0.172	-0.133
-351.508	-97.031	-0.191	-0.050
-350.493	389.821	0.052	-0.107
-349.479	437.676	0.070	-0.152
-348.464	-35.676	0.056	0.030
-347.450	-74.718	0.071	-0.025
-346.435	123.231	0.314	-0.391
-345.420	-107.929	-0.140	0.030
-344.406	-200.000	0.014	0.069
-343.391	-200.000	0.121	0.000
-342.377	397.116	0.046	0.095
-341.362	-78.913	-0.209	-0.071
-340.348	-38.925	0.244	-0.128
-339.333	-97.655	0.324	0.083
-338.318	-50.731	-0.088	-0.041
-337.304	343.555	-0.035	0.068
-336.289	625.999	0.095	0.239
-335.275	-21.930	0.137	-0.083
-334.260	-89.486	0.089	-0.026
-333.245	-200.000	-0.039	0.205
-332.231	-200.000	0.042	-0.352
-331.216	-200.000	0.018	0.273
-330.202	290.372	0.040	0.072
-329.187	412.514	0.087	0.184
-328.172	-50.439	-0.129	0.060
-327.158	537.754	0.165	-0.388
-326.143	800.000	0.046	-0.131
-325.129	-200.000	-0.014	-0.071
-324.114	-143.889	-0.125	0.012
-323.099	-200.000	0.060	0.426
-322.085	-200.000	-0.034	0.356
-321.070	659.809	0.060	0.153
-320.056	-126.527	-0.211	0.031
-319.041	-1.506	-0.030	0.021
-318.026	98.538	-0.020	0.023
-317.012	-64.547	0.264	0.106
-315.997	11.274	-0.177	0.135
-314.983	-124.804	0.223	-0.034
-313.968	106.276	-0.167	-0.197
-312.953	44.709	-0.063	0.058
-311.939	-10.881	0.288	0.189
-310.924	108.269	-0.126	0.149
-309.910	-142.401	0.210	-0.021
-308.895	37.759	-0.114	-0.100
-307.880	-101.068	0.325	0.079
-306.866	113.596	-0.187	-0.225
-305.851	-18.239	0.096	0.060
-304.837	-64.298	-0.448	0.181
-303.822	800.000	0.043	-0.131
-302.807	-200.000	-0.047	0.210
-301.793	-22.619	0.218	-0.130
-300.778	-200.000	-0.021	-0.205
-299.764	14.823	0.466	-0.361
-298.749	-13.054	-0.140	-0.090
-297.735	72.759	0.169	-0.175
-296.720	-33.742	0.204	-0.111
-295.705	-52.031	0.322	0.148
-294.691	82.598	0.253	-0.272
-293.676	-200.000	-0.038	0.193
-292.662	-16.472	-0.229	-0.144
-291.647	792.673	-0.077	-0.210
-290.632	-41.046	-0.252	-0.129
-289.618	307.576	0.112	0.207
-288.603	-127.818	-0.371	0.053
-287.589	-75.688	-0.060	0.021
-286.574	178.882	-0.110	-0.160
-285.559	800.000	0.043	-0.150
-284.545	287.594	0.034	-0.061
-283.530	270.365	-0.027	0.046
-282.516	746.334	-0.020	-0.053
-281.501	-57.653	-0.161	0.070
-280.486	-74.534	-0.307	0.109
-279.472	-200.000	-0.020	-0.184
-278.457	-57.057	0.150	-0.066
-277.443	155.927	0.049	-0.067
-276.428	512.053	-0.086	-0.200
-275.413	-45.072	0.278	0.137
-274.399	-160.207	-0.082	0.004
-273.384	154.033	0.127	-0.172
-272.370	71.535	0.026	-0.027
-271.355	-105.621	0.127	-0.029
-270.340	219.940	0.081	-0.128
-269.326	-75.214	0.107	0.038
-268.311	32.136	-0.128	0.110
-267.297	22.294	0.437	0.353
-266.282	356.950	0.190	0.375
-265.267	-57.046	0.292	-0.128
-264.253	22.887	-0.253	-0.205
-263.238	-200.000	-0.015	-0.268
-262.224	645.822	-0.016	0.040
-261.209	485.782	0.096	0.216
-260.195	-104.875	-0.129	0.029
-259.180	-6.865	-0.029	-0.020
-258.165	-74.332	0.411	-0.147
-257.151	155.133	-0.102	0.138
-256.136	-200.000	-0.002	0.145
-255.122	33.762	0.203	-0.175
-254.107	800.000	-0.044	-0.134
-253.092	-200.000	-0.002	-0.145
-252.078	-145.935	-0.065	0.006
-251.063	-27.393	-0.118	-0.068
-250.049	84.709	-0.122	0.132
-249.034	-200.000	-0.062	-0.282
-248.019	142.920	0.166	-0.218
-247.005	-200.000	0.005	-0.089
-245.990	800.000	-0.116	0.461
-244.976	-84.164	0.496	0.156
-243.961	-103.584	-0.269	-0.062
-242.946	-200.000	0.016	-0.183
-241.932	-63.824	-0.199	0.081
-240.917	-124.529	-0.157	-0.024
-239.903	170.944	-0.052	0.074
-238.888	-34.692	0.397	-0.215
-237.873	-200.000	0.046	0.302
-236.859	-4.386	-0.084	0.057
-235.844	-138.369	0.153	0.017
-234.830	800.000	0.082	0.244
-233.815	110.657	-0.241	0.286
-232.800	-59.647	-0.267	0.113
-231.786	316.307	-0.134	-0.251
-230.771	-79.301	0.259	0.087
-229.757	216.950	-0.095	0.149
-228.742	-33.699	-0.081	-0.044
-227.727	13.451	0.174	-0.133
-226.713	47.805	0.116	-0.107
-225.698	-33.638	0.283	0.154
-224.684	182.372	-0.146	0.213
-223.669	-105.355	-0.450	-0.101
-222.655	62.205	-0.156	0.154
-221.640	-88.857	0.193	0.057
-220.625	51.924	-0.180	0.170
-219.611	373.859	0.081	0.164
-218.596	-11.487	0.120	-0.078
-217.582	379.468	0.074	0.150
-216.567	775.427	0.055	0.148
-215.552	-174.104	0.126	-0.004
-214.538	-200.000	-0.034	-0.420
-213.523	-123.025	0.230	-0.037
-212.509	-200.000	0.049	0.222
-211.494	-151.154	-0.295	-0.022
-210.479	778.839	-0.056	0.152
-209.465	-141.391	0.503	0.050
-208.450	365.447	0.105	0.210
-207.436	3.039	-0.156	0.112
-206.421	148.296	-0.082	-0.109
-205.406	221.758	-0.126	0.200
-204.392	-129.397	-0.154	0.021
-203.377	208.050	0.221	0.342
-202.363	154.153	0.260	-0.352
-201.348	-184.898	0.356	-0.006
-200.333	618.373	0.079	0.196
-199.319	145.390	-0.120	-0.159
-198.304	-150.029	-0.326	-0.025
-197.290	-62.121	-0.152	-0.063
-196.275	283.924	-0.098	0.174
-195.260	-17.851	0.270	0.167
-194.246	-200.000	-0.031	0.000
-193.231	256.925	0.132	0.224
-192.217	106.561	0.168	0.196
-191.202	159.672	0.074	-0.102
-190.187	135.300	-0.060	-0.077
-189.173	-97.932	-0.195	-0.050
-188.158	-200.000	-0.024	0.168
-187.144	-146.240	0.020	0.002
-186.129	800.000	-0.112	-0.362
-185.114	-50.906	-0.102	-0.047
-184.100	-200.000	-0.001	-0.018
-183.085	-200.000	-0.002	0.242
-182.071	-115.725	0.255	-0.047
-181.056	800.000	0.061	0.243
-180.042	-62.246	0.315	-0.130
-179.027	140.688	-0.018	-0.024
-178.012	-200.000	-0.022	0.141
-176.998	56.855	0.146	-0.141
-175.983	-43.092	0.120	0.060
-174.969	800.000	-0.095	-0.361
-173.954	-200.000	0.021	-0.175
-172.939	189.342	-0.108	-0.160
-171.925	-81.124	0.174	0.057
-170.910	-200.000	0.036	0.240
-169.896	-100.540	0.289	0.071
-168.881	49.544	-0.142	-0.132
-167.866	239.191	0.092	-0.151
-166.852	-3.538	0.092	0.063
-165.837	485.771	-0.058	0.130
-164.823	-32.199	-0.012	-0.007
-163.808	638.502	-0.082	0.206
-162.793	141.183	0.203	0.265
-161.779	-64.482	-0.185	-0.074
-160.764	-16.726	0.073	0.045
-159.750	-113.301	0.252	0.049
-158.735	-177.428	0.125	0.003
-157.720	-92.072	-0.132	0.037
-156.706	-60.967	-0.217	-0.091
-155.691	9.239	-0.313	0.233
-154.677	195.326	-0.250	0.374
-153.662	-129.234	-0.190	-0.026
-152.647	800.000	-0.030	-0.112
-151.633	-200.000	0.011	-0.222
-150.618	-74.727	0.160	-0.057
-149.604	-61.316	0.188	-0.078
-148.589	800.000	0.057	0.163
-147.574	116.491	-0.198	0.239
-146.560	-200.000	0.060	0.321
-145.545	-32.184	0.315	-0.174
-144.531	-200.000	-0.015	0.196
-143.516	800.000	0.023	-0.098
-142.502	-200.000	0.007	0.305
-141.487	124.750	0.217	0.269
-140.472	-79.613	-0.387	0.129
-139.458	-120.632	-0.113	0.019
-138.443	53.361	0.287	0.271
-137.429	621.282	-0.170	0.422
-136.414	594.141	0.052	-0.126
-135.399	-200.000	0.005	0.111
-134.385	4.035	0.188	-0.136
-133.370	74.169	-0.057	-0.059
-132.356	-22.320	0.183	-0.109
-131.341	59.598	-0.235	-0.228
-130.326	447.150	0.032	-0.068
-129.312	172.261	-0.170	0.241
-128.297	-30.415	-0.135	0.076
-127.283	445.389	0.164	0.354
-126.268	-32.060	-0.188	0.104
-125.253	-200.000	0.071	-0.308
-124.239	-168.851	0.138	-0.005
-123.224	142.380	0.245	0.321
-122.210	-126.470	-0.245	-0.036
-121.195	-200.000	-0.022	-0.098
-120.180	423.837	-0.033	-0.071
-119.166	-123.547	0.441	0.069
-118.151	-200.000	-0.032	-0.377
-117.137	219.664	-0.146	-0.231
-116.122	338.006	-0.082	0.157
-115.107	466.771	0.105	0.233
-114.093	-62.899	0.356	-0.145
-113.078	1.169	0.162	0.114
-112.064	-147.306	-0.146	-0.012
-111.049	698.822	0.105	0.272
-110.034	191.051	0.115	-0.171
-109.020	800.000	-0.116	-0.331
-108.005	-54.113	0.287	-0.128
-106.991	-60.459	-0.160	0.067
-105.976	-200.000	0.027	-0.198
-104.962	333.437	0.050	0.095
-103.947	-106.636	0.273	0.060
-102.932	518.126	-0.054	-0.124
-101.918	-4.544	0.130	-0.089
-100.903	800.000	-0.035	0.107
-99.889	-123.983	-0.051	-0.008
-98.874	-173.883	0.213	0.006
-97.859	-114.128	-0.377	0.072
-96.845	-107.329	0.117	0.025
-95.830	17.296	-0.138	-0.108
-94.816	28.361	0.071	-0.059
-93.801	-18.581	0.232	0.143
-92.786	800.000	0.003	-0.011
-91.772	-200.000	0.016	-0.314
-90.757	-35.092	-0.238	0.127
-89.743	-67.324	0.068	0.026
-88.728	-76.911	0.168	-0.058
-87.713	-200.000	-0.026	-0.146
-86.699	-52.942	0.178	-0.081
-85.684	-103.351	0.226	0.052
-84.670	-98.431	0.289	-0.073
-83.655	439.142	0.124	0.266
-82.640	155.123	0.261	0.353
-81.626	78.533	0.286	-0.300
-80.611	-200.000	0.027	-0.166
-79.597	81.668	-0.123	-0.131
-78.582	-84.588	-0.169	0.052
-77.567	278.391	0.223	0.391
-76.553	75.905	0.238	0.248
-75.538	-200.000	-0.016	0.113
-74.524	-24.559	-0.557	0.326
-73.509	109.916	-0.197	-0.232
-72.494	39.448	-0.154	0.136
-71.480	800.000	-0.063	-0.226
-70.465	-200.000	-0.023	-0.125
-69.451	-200.000	0.032	0.326
-68.436	-200.000	0.016	0.203
-67.422	4.532	0.201	-0.145
-66.407	-200.000	-0.007	-0.056
-65.392	-27.911	-0.058	0.033
-64.378	131.001	-0.161	-0.203
-63.363	-104.237	-0.196	-0.045
-62.349	-53.576	-0.134	0.060
-61.334	70.665	-1.000	-1.017
-60.319	-53.350	0.745	0.336
-59.305	800.000	-0.347	-1.179
-58.290	94.899	0.884	0.988
-57.276	699.833	0.638	1.648
-56.261	-200.000	100.497	587.723
-55.246	494.537	1429.879	3224.792
-54.232	154.275	2605.814	3512.807
-53.217	110.602	2170.167	2563.347
-52.203	42.840	1707.469	1528.351
-51.188	35.641	1518.632	1310.410
-50.173	33.134	1491.592	1270.204
-49.159	52.996	1542.852	1450.042
-48.144	54.611	1560.340	1477.456
-47.130	35.740	1518.888	1311.092
-46.115	32.571	1504.671	1277.324
-45.100	32.300	1501.383	1272.647
-44.086	32.240	1499.099	1270.254
-43.071	32.305	1496.925	1268.798
-42.057	32.281	1495.393	1267.288
-41.042	32.219	1494.373	1265.961
-40.027	32.278	1493.079	1265.212
-39.013	32.176	1491.436	1263.081
-37.998	32.251	1489.807	1262.153
-36.984	32.176	1489.160	1261.049
-35.969	32.265	1487.307	1260.031
-34.954	32.295	1485.874	1258.968
-33.940	32.297	1484.665	1257.906
-32.925	32.307	1483.782	1257.178
-31.911	32.351	1482.360	1256.214
-30.896	32.323	1480.993	1254.821
-29.881	32.345	1479.715	1253.833
-28.867	32.333	1478.257	1252.470
-27.852	32.361	1476.785	1251.361
-26.838	32.323	1475.512	1249.974
-25.823	32.350	1474.276	1249.059
-24.809	32.311	1472.193	1246.988
-23.794	32.343	1470.770	1245.943
-22.779	32.358	1469.752	1245.134
-21.765	32.407	1468.322	1244.193
-20.750	32.351	1468.075	1243.567
-19.736	32.336	1466.458	1242.044
-18.721	32.331	1465.218	1240.913
-17.706	32.221	1464.712	1239.713
-16.692	32.311	1462.773	1238.611
-15.677	32.391	1462.424	1238.793
-14.663	32.242	1461.464	1236.952
-13.648	32.329	1460.018	1236.253
-12.633	32.369	1459.131	1235.715
-11.619	32.393	1458.120	1234.970
-10.604	32.216	1457.329	1233.086
-9.590	32.220	1456.812	1232.628
-8.575	32.250	1455.786	1231.905
-7.560	32.332	1454.900	1231.644
-6.546	32.244	1454.272	1230.485
-5.531	32.222	1453.378	1229.539
-4.517	32.310	1452.216	1229.079
-3.502	32.291	1451.263	1228.099
-2.487	32.338	1449.883	1227.196
-1.473	32.254	1449.380	1226.171
-0.458	32.355	1447.595	1225.273
0.556	31.077	1436.947	1209.137
1.571	26.397	1409.293	1155.926
2.586	21.257	1344.304	1071.097
3.600	18.498	1260.000	987.956
4.615	16.941	1214.267	943.358
5.629	14.904	1159.558	889.949
6.644	8.099	1077.890	793.426
7.659	2.152	1037.897	735.350
8.673	1.109	1032.632	726.561
9.688	1.071	1029.636	724.204
10.702	1.050	1027.938	722.846
11.717	1.060	1026.647	721.923
12.731	3.145	1028.107	732.823
13.746	10.076	1037.549	772.716
14.761	16.253	1044.571	807.513
15.775	17.776	1045.794	815.679
16.790	17.317	1044.149	812.132
17.804	16.415	1042.140	806.196
18.819	15.510	1040.586	800.607
19.834	14.972	1039.497	797.137
20.848	14.790	1037.993	795.045
21.863	14.447	1037.513	792.976
22.877	14.155	1036.775	790.955
23.892	14.018	1035.299	789.109
24.907	13.882	1035.181	788.305
25.921	13.981	1034.285	788.022
26.936	13.902	1033.666	787.103
27.950	13.931	1032.679	786.419
28.965	13.943	1032.658	786.391
29.980	14.004	1031.801	785.960
30.994	14.154	1030.280	785.438
32.009	14.232	1029.369	785.043
33.023	14.139	1028.746	784.059
34.038	14.154	1028.161	783.616
35.053	14.106	1027.096	782.509
36.067	14.081	1026.401	781.794
37.082	13.994	1025.866	780.907
38.096	14.129	1024.871	780.713
39.111	14.141	1024.044	780.072
40.126	14.114	1023.185	779.221
41.140	14.139	1021.694	778.136
42.155	13.932	1021.159	776.691
43.169	13.953	1020.395	776.138
44.184	14.048	1019.238	775.632
45.199	14.016	1018.295	774.696
46.213	13.860	1017.406	773.227
47.228	14.036	1015.894	772.827
48.242	13.999	1015.262	772.107
49.257	14.083	1014.150	771.579
50.271	14.086	1013.195	770.800
51.286	14.078	1012.307	770.020
52.301	13.964	1012.096	769.262
53.315	14.051	1010.964	768.737
54.330	14.042	1009.616	767.602
55.344	14.050	1009.241	767.285
56.359	13.992	1007.912	765.939
57.374	14.142	1006.908	765.803
58.388	13.964	1006.707	764.760
59.403	14.051	1005.646	764.289
60.417	13.906	1005.131	763.164
61.432	14.044	1003.992	762.861
62.447	14.002	1003.552	762.267
63.461	13.977	1003.152	761.781
64.476	13.810	1002.026	760.094
65.490	14.034	1001.295	760.499
66.505	13.925	1000.476	759.309
67.520	13.930	999.750	758.716
68.534	13.956	999.010	758.204
69.549	14.058	998.210	757.998
70.563	13.940	997.864	757.126
71.578	13.858	997.318	756.274
72.593	14.005	995.499	755.498
73.607	13.915	994.809	754.498
74.622	13.777	993.958	753.157
75.636	13.942	993.215	753.278
76.651	13.934	992.076	752.312
77.666	13.951	991.620	751.976
78.680	13.805	990.974	750.759
79.695	13.923	990.697	751.016
80.709	13.910	989.760	750.179
81.724	14.011	988.415	749.551
82.739	13.908	988.134	748.805
83.753	13.978	987.827	748.820
84.768	14.019	986.761	748.133
85.782	14.008	985.899	747.363
86.797	14.166	985.005	747.330
87.812	14.116	984.652	746.773
88.826	14.097	983.506	745.749
89.841	13.900	983.081	744.480
90.855	14.050	982.039	744.296
91.870	14.215	980.808	744.035
92.884	14.108	980.699	743.406
93.899	14.266	979.657	743.259
94.914	14.159	979.080	742.276
95.928	14.249	978.235	741.970
96.943	14.185	977.712	741.223
97.957	14.092	977.341	740.464
98.972	14.224	975.663	739.712
99.987	14.173	975.515	739.307
101.001	14.245	974.490	738.785
102.016	14.232	973.868	738.194
103.030	14.213	972.680	737.139
104.045	14.254	971.955	736.708
105.060	14.148	971.210	735.611
106.074	14.185	970.000	734.794
107.089	14.111	969.308	733.874
108.103	14.037	968.884	733.163
109.118	13.917	968.170	732.029
110.133	14.036	966.465	731.199
111.147	14.089	965.868	730.916
112.162	14.046	964.849	729.890
113.176	14.215	964.012	729.935
114.191	14.020	963.636	728.732
115.206	14.054	962.799	728.182
116.220	14.182	961.555	727.735
117.235	14.215	960.844	727.280
118.249	14.155	959.963	726.286
119.264	14.284	958.951	726.018
120.279	14.056	958.454	724.584
121.293	14.080	957.723	724.071
122.308	14.108	957.074	723.637
123.322	14.055	956.138	722.636
124.337	14.102	954.756	721.732
125.352	14.158	953.913	721.272
126.366	14.173	952.577	720.267
127.381	14.060	951.823	719.141
128.395	14.084	950.797	718.408
129.410	14.198	949.921	718.176
130.424	14.133	948.819	716.996
131.439	14.123	948.070	716.324
132.454	14.116	947.482	715.786
133.468	14.215	946.752	715.597
134.483	14.274	945.748	715.027
135.497	14.131	945.294	714.010
136.512	14.109	944.513	713.262
137.527	14.074	944.028	712.681
138.541	14.192	942.571	712.022
139.556	14.200	942.133	711.665
140.570	14.200	941.639	711.226
141.585	14.291	940.201	710.467
142.600	14.281	939.942	710.166
143.614	14.244	939.120	709.323
144.629	14.258	938.639	708.957
145.643	14.258	937.607	708.114
146.658	14.276	936.807	707.526
147.673	14.350	935.763	706.987
148.687	14.148	934.973	705.473
149.702	14.298	934.252	705.504
150.716	14.233	933.546	704.632
151.731	14.265	932.605	703.992
152.746	14.309	932.066	703.709
153.760	14.183	931.446	702.650
154.775	14.198	930.712	702.095
155.789	14.275	929.830	701.694
156.804	14.276	929.003	701.011
157.819	14.380	928.174	700.760
158.833	14.317	927.395	699.845
159.848	14.412	926.769	699.712
160.862	14.357	926.121	698.927
161.877	14.304	925.439	698.131
162.892	14.377	924.464	697.638
163.906	14.326	923.555	696.675
164.921	14.315	922.596	695.847
165.935	14.398	921.792	695.526
166.950	14.380	921.020	694.807
167.964	14.436	920.176	694.340
168.979	14.611	918.818	693.982
169.994	14.405	917.772	692.274
171.008	14.406	917.506	692.016
172.023	14.471	916.480	691.450
173.037	14.448	915.982	690.918
174.052	14.541	914.933	690.451
175.067	14.421	914.850	689.831
176.081	14.404	913.935	689.012
177.096	14.486	913.106	688.664
178.110	14.454	911.582	687.321
179.125	14.422	911.522	687.081
180.140	14.535	910.547	686.754
181.154	14.529	909.537	685.905
182.169	14.556	909.342	685.809
183.183	14.511	908.901	685.229
184.198	14.555	907.895	684.590
185.213	14.548	907.107	683.910
186.227	14.602	906.791	683.832
187.242	14.668	906.297	683.668
188.256	14.713	905.213	682.975
189.271	14.637	904.700	682.216
190.286	14.655	903.958	681.671
191.300	14.762	903.046	681.356
192.315	14.677	901.848	680.048
193.329	14.510	902.149	679.532
194.344	14.471	901.267	678.649
195.359	14.507	900.825	678.407
196.373	14.549	900.209	678.052
197.388	14.665	899.333	677.802
198.402	14.681	898.764	677.379
199.417	14.813	898.693	677.801
200.432	14.936	897.948	677.676
201.446	14.744	897.959	676.846
202.461	14.888	897.594	677.098
203.475	14.854	897.110	676.533
204.490	14.836	896.164	675.686
205.504	15.001	894.953	675.381
206.519	14.892	894.436	674.492
207.534	14.871	893.602	673.717
208.548	14.851	892.917	673.063
209.563	14.825	892.193	672.350
210.577	14.868	891.913	672.255
211.592	14.990	890.906	671.927
212.607	15.040	890.666	671.885
213.621	15.067	890.342	671.691
214.636	15.068	889.155	670.739
215.650	14.872	889.082	669.837
216.665	15.065	888.263	669.936
217.680	14.879	887.784	668.772
218.694	14.979	887.483	668.883
219.709	15.084	886.558	668.548
220.723	14.994	886.115	667.794
221.738	15.204	885.065	667.780
222.753	15.136	884.629	667.125
223.767	15.172	883.505	666.360
224.782	15.045	882.900	665.341
225.796	15.237	882.185	665.504
226.811	15.223	881.576	664.928
227.826	15.227	880.780	664.288
228.840	15.211	879.907	663.506
229.855	15.220	879.273	663.004
230.869	15.294	878.937	662.984
231.884	15.146	878.462	661.986
232.899	15.252	877.611	661.701
233.913	15.282	876.645	661.034
234.928	15.263	876.527	660.812
235.942	15.197	875.939	660.049
236.957	15.215	875.124	659.447
237.972	15.186	874.613	658.889
238.986	15.191	873.957	658.356
240.001	15.253	873.127	657.918
241.015	15.250	872.676	657.508
242.030	15.373	871.544	657.080
243.045	15.202	871.076	655.998
244.059	15.359	870.497	656.119
245.074	15.390	869.739	655.612
246.088	15.534	868.866	655.457
247.103	15.389	869.187	655.075
248.117	15.445	868.670	654.844
249.132	15.311	867.948	653.721
250.147	15.502	867.176	653.824
251.161	15.622	866.478	653.708
252.176	15.841	865.495	653.758
253.190	15.672	864.737	652.472
254.205	15.565	864.633	651.922
255.220	15.495	864.377	651.401
256.234	15.693	863.300	651.298
257.249	15.700	862.966	651.013
258.263	15.838	862.086	650.826
259.278	15.583	861.801	649.568
260.293	15.657	861.303	649.421
261.307	15.847	860.278	649.325
262.322	15.670	860.273	648.580
263.336	15.965	859.257	648.892
264.351	15.947	858.689	648.336
265.366	15.941	858.394	648.036
266.380	15.936	857.669	647.411
267.395	15.816	856.982	646.375
268.409	15.854	855.875	645.628
269.424	16.061	854.974	645.684
270.439	16.025	854.882	645.418
271.453	16.070	853.913	644.802
272.468	15.954	853.402	643.914
273.482	15.953	852.761	643.372
274.497	15.909	852.485	642.940
275.512	15.900	851.579	642.163
276.526	15.937	850.583	641.497
277.541	16.102	849.754	641.443
278.555	16.124	849.158	641.018
279.570	16.064	849.040	640.647
280.585	16.334	847.809	640.684
281.599	16.280	847.613	640.275
282.614	16.198	847.357	639.714
283.628	16.227	846.504	639.122
284.643	16.302	845.859	638.862
285.657	16.161	845.647	638.113
286.672	16.276	845.193	638.148
287.687	16.228	844.332	637.264
288.701	16.262	844.299	637.308
289.716	16.267	843.558	636.713
290.730	16.041	843.111	635.466
291.745	16.381	842.235	636.028
292.760	16.289	841.549	635.108
293.774	16.289	841.140	634.744
294.789	16.360	840.704	634.626
295.803	16.349	839.774	633.825
296.818	16.396	839.246	633.547
297.833	16.387	838.442	632.851
298.847	16.417	837.992	632.568
299.862	16.364	837.255	631.759
300.876	16.462	836.760	631.694
301.891	16.381	836.104	630.839
302.906	16.409	835.579	630.496
303.920	16.539	834.395	630.028
304.935	16.646	834.025	630.093
305.949	16.673	833.555	629.781
306.964	16.540	833.120	628.901
307.979	16.566	832.128	628.197
308.993	16.595	831.903	628.079
310.008	16.760	831.211	628.112
311.022	16.507	831.352	627.223
312.037	16.723	830.428	627.272
313.052	16.662	829.691	626.434
314.066	16.539	829.255	625.592
315.081	16.574	828.587	625.165
316.095	16.402	828.684	624.547
317.110	16.603	827.503	624.341
318.125	16.547	827.240	623.881
319.139	16.686	826.583	623.842
320.154	16.620	826.174	623.236
321.168	16.622	825.516	622.694
322.183	16.715	824.998	622.590
323.197	16.677	824.825	622.265
324.212	16.739	823.820	621.677
325.227	16.895	823.300	621.804
326.241	16.759	822.881	620.933
327.256	16.752	822.385	620.479
328.270	16.752	821.909	620.064
329.285	16.700	821.683	619.649
330.300	16.727	820.697	618.947
331.314	16.799	820.031	618.654
332.329	16.767	819.801	618.310
333.343	16.675	818.899	617.239
334.358	16.725	818.306	616.920
335.373	16.814	817.686	616.720
336.387	16.872	817.324	616.606
337.402	16.800	817.032	616.067
338.416	17.005	816.180	616.114
339.431	16.965	815.655	615.518
340.446	16.989	815.054	615.100
341.460	17.013	814.895	615.012
342.475	17.001	814.121	614.329
343.489	17.016	813.733	614.036
344.504	17.161	812.838	613.831
345.519	17.056	812.451	613.104
346.533	17.219	811.724	613.092
347.548	17.362	811.439	613.337
348.562	17.159	811.111	612.304
349.577	17.226	810.446	611.989
350.592	16.932	810.103	610.617
351.606	16.979	809.739	610.458
352.621	16.966	809.137	609.903
353.635	17.019	808.767	609.759
354.650	17.177	808.194	609.840
355.665	17.201	807.758	609.545
356.679	17.244	807.555	609.491
357.694	17.094	806.876	608.388
358.708	17.084	806.116	607.724
359.723	17.213	805.705	607.822
360.738	17.181	805.359	607.393
361.752	17.368	804.619	607.450
362.767	17.412	804.422	607.405
363.781	17.408	804.048	607.053
364.796	17.460	803.593	606.840
365.810	17.365	803.378	606.287
366.825	17.422	802.937	606.102
367.840	17.676	802.038	606.273
368.854	17.592	801.917	605.833
369.869	17.580	801.352	605.309
370.883	17.498	800.987	604.688
371.898	17.440	800.257	603.878
372.913	17.546	799.765	603.827
373.927	17.616	799.222	603.612
374.942	17.467	798.748	602.675
375.956	17.642	797.555	602.338
376.971	17.731	797.199	602.332
377.986	17.671	797.050	601.955
379.000	17.735	796.434	601.661
380.015	17.661	796.175	601.151
381.029	17.938	795.287	601.404
382.044	17.802	794.824	600.521
383.059	17.800	794.110	599.921
384.073	17.889	793.453	599.684
385.088	17.788	793.176	599.068
386.102	17.694	793.014	598.562
387.117	17.620	792.341	597.741
388.132	17.721	791.821	597.650
389.146	17.794	791.495	597.606
390.161	17.817	790.706	597.040
391.175	17.800	790.723	596.942
392.190	17.890	790.249	596.844
393.205	17.896	789.750	596.435
394.219	18.053	789.145	596.474
395.234	17.792	789.061	595.446
396.248	17.732	788.559	594.807
397.263	17.787	788.253	594.713
398.278	17.862	787.543	594.388
399.292	17.911	787.165	594.220
400.307	17.870	786.511	593.530
401.321	17.825	786.488	593.303
402.336	17.916	785.877	593.107
403.350	17.888	785.781	592.885
404.365	18.031	785.145	592.847
405.380	17.928	784.813	592.188
406.394	18.071	784.068	592.067
407.409	18.018	783.858	591.675
408.423	18.127	783.170	591.481
409.438	18.216	782.711	591.389
410.453	18.228	782.321	591.083
411.467	18.055	782.070	590.244
412.482	18.173	781.476	590.149
413.496	18.169	780.864	589.624
414.511	18.253	780.455	589.551
415.526	18.317	780.696	589.900
416.540	18.142	780.078	588.778
417.555	18.248	779.408	588.587
418.569	18.378	778.889	588.589
419.584	18.309	778.474	587.986
420.599	18.292	778.097	587.592
421.613	110.404	1288.864	1464.842
422.628	94.498	1363.281	1464.949
