DTS Sentinel unit serial number:	SN413079Multiplexer serial number:	ORYXHardware model number:	OX4-SRSoftware version number:	ORYX F/W v4.00 Oryx Data Collector v3.7.2.0data status	okinstallation	princeton_trtdifferential loss correction	single-endedforward channel	channel 3reverse channel	N/Adate	2019/09/16time	17:00:35forward acquisition time	60.00reverse acquisition time	0.00gamma	496.2192k internal	0.2295k external	0.2295temperature offset calibration	0.9942default loss term (dB/km)	0.3790temperature slope calibration	1.0000multiplexer offset coefficient	1.0000multiplexer slope coefficient	1.0000fibre end	0.00T internal ref (°C)	39.31T ext. ref 1 (°C)	15.28T ext. ref 2 (°C)	33.60length (m)	temperature (°C)	Stokes	anti-Stokes-747.200	-104.855	0.192	-0.045
-746.185	-72.793	-0.139	0.052
-745.171	-200.000	-0.025	-0.115
-744.156	800.000	0.031	0.091
-743.142	-200.000	-0.042	0.206
-742.127	-131.983	-0.301	0.040
-741.112	775.892	0.169	0.473
-740.098	-200.000	-0.044	0.399
-739.083	200.529	0.079	-0.123
-738.069	-187.624	-0.179	0.002
-737.054	221.490	-0.129	-0.211
-736.039	-200.000	-0.005	0.068
-735.025	102.847	0.114	0.136
-734.010	324.841	0.079	-0.155
-732.996	-102.579	0.282	-0.069
-731.981	457.594	0.032	0.073
-730.966	-200.000	-0.009	0.133
-729.952	612.933	-0.005	-0.014
-728.937	-200.000	-0.052	-0.252
-727.923	549.158	-0.081	-0.199
-726.908	257.724	0.142	-0.250
-725.894	252.728	0.116	0.202
-724.879	-129.605	-0.352	-0.050
-723.864	-200.000	0.048	-0.218
-722.850	31.715	0.234	-0.205
-721.835	98.904	-0.122	-0.144
-720.821	-18.027	-0.126	0.080
-719.806	-45.516	-0.168	-0.085
-718.791	228.735	-0.163	-0.271
-717.777	16.305	0.116	0.093
-716.762	12.320	0.152	0.119
-715.748	-173.350	0.142	-0.004
-714.733	44.200	-0.126	-0.118
-713.718	-34.584	-0.185	0.103
-712.704	-105.943	0.074	0.017
-711.689	-108.000	0.098	0.022
-710.675	710.486	-0.064	-0.172
-709.660	-200.000	0.052	-0.390
-708.645	-86.228	0.156	-0.049
-707.631	800.000	0.072	0.261
-706.616	-0.121	0.429	-0.312
-705.602	-38.882	0.207	-0.111
-704.587	83.205	0.286	-0.318
-703.572	-53.875	0.206	0.096
-702.558	-152.382	-0.191	-0.014
-701.543	-140.172	-0.354	-0.038
-700.529	-71.416	-0.152	-0.058
-699.514	800.000	-0.059	0.206
-698.499	16.279	0.197	-0.159
-697.485	-200.000	0.094	0.446
-696.470	24.876	0.103	0.087
-695.456	-191.477	-0.105	0.001
-694.441	-64.620	-0.220	-0.091
-693.426	600.400	-0.169	-0.428
-692.412	115.859	-0.119	-0.148
-691.397	-153.565	-0.066	0.005
-690.383	-63.011	0.339	0.143
-689.368	-200.000	0.002	-0.050
-688.354	-91.512	0.161	-0.047
-687.339	-136.122	-0.434	0.052
-686.324	-200.000	-0.022	0.167
-685.310	-200.000	0.003	-0.467
-684.295	66.648	0.152	-0.157
-683.281	-85.765	-0.139	-0.044
-682.266	-200.000	0.042	0.352
-681.251	-51.463	-0.278	0.133
-680.237	-105.386	-0.252	0.059
-679.222	155.265	-0.101	-0.141
-678.208	-49.653	-0.146	-0.071
-677.193	-138.304	-0.263	-0.030
-676.178	203.071	-0.058	-0.092
-675.164	-23.942	-0.088	-0.054
-674.149	-39.215	-0.104	-0.056
-673.135	93.687	0.420	0.485
-672.120	-134.130	-0.382	0.048
-671.105	174.122	-0.010	0.014
-670.091	800.000	-0.049	-0.204
-669.076	-92.497	-0.205	-0.059
-668.062	115.762	-0.106	-0.133
-667.047	-20.141	-0.197	0.124
-666.032	-200.000	0.040	-0.221
-665.018	800.000	0.050	0.207
-664.003	-200.000	0.012	-0.082
-662.989	800.000	0.033	-0.136
-661.974	-41.028	0.068	0.036
-660.959	799.697	-0.121	-0.339
-659.945	-24.959	0.107	0.064
-658.930	53.282	-0.130	0.126
-657.916	-50.555	0.090	0.043
-656.901	-41.917	-0.089	0.047
-655.886	574.280	-0.105	-0.260
-654.872	-158.430	0.209	0.012
-653.857	80.953	0.181	0.199
-652.843	800.000	-0.059	-0.211
-651.828	800.000	0.122	-0.367
-650.814	-200.000	0.056	0.308
-649.799	-101.304	0.081	0.020
-648.784	367.777	-0.126	-0.258
-647.770	-200.000	0.004	-0.295
-646.755	293.386	0.107	0.198
-645.741	324.414	-0.190	-0.369
-644.726	-27.846	0.086	-0.051
-643.711	-15.168	-0.227	0.148
-642.697	87.600	0.097	0.109
-641.682	-200.000	-0.025	-0.390
-640.668	-200.000	0.004	-0.271
-639.653	43.183	-0.338	-0.314
-638.638	50.804	0.164	0.159
-637.624	-3.032	-0.008	-0.005
-636.609	-130.250	-0.216	0.030
-635.595	-135.683	-0.068	0.008
-634.580	19.151	-0.054	0.044
-633.565	64.825	0.045	-0.046
-632.551	113.740	0.165	-0.204
-631.536	2.449	0.123	0.091
-630.522	-2.082	-0.475	-0.339
-629.507	-136.968	0.286	-0.033
-628.492	18.855	-0.174	-0.141
-627.478	800.000	-0.077	-0.269
-626.463	64.962	-0.111	-0.114
-625.449	800.000	0.054	-0.187
-624.434	-2.724	0.069	0.049
-623.419	-9.069	-0.586	-0.399
-622.405	-200.000	0.008	-0.243
-621.390	122.688	0.168	0.214
-620.376	-47.912	0.150	0.074
-619.361	14.807	0.231	-0.183
-618.346	-200.000	-0.057	0.314
-617.332	-44.380	-0.465	-0.237
-616.317	73.223	-0.164	0.174
-615.303	800.000	0.084	0.373
-614.288	-74.428	0.405	-0.149
-613.273	-61.100	-0.093	-0.040
-612.259	236.409	0.087	-0.146
-611.244	208.795	-0.160	-0.255
-610.230	-128.374	-0.294	0.042
-609.215	800.000	-0.132	0.426
-608.201	505.141	-0.066	-0.155
-607.186	-172.520	0.395	-0.013
-606.171	113.636	0.018	-0.022
-605.157	-200.000	-0.070	0.419
-604.142	-200.000	0.006	0.045
-603.128	-200.000	0.026	-0.392
-602.113	67.467	0.199	-0.207
-601.098	-110.420	0.041	0.009
-600.084	-115.467	0.099	0.019
-599.069	-109.127	-0.266	0.057
-598.055	427.995	-0.103	0.226
-597.040	-67.011	-0.122	0.049
-596.025	-96.873	0.253	0.067
-595.011	-120.748	-0.315	-0.054
-593.996	-127.150	-0.086	0.013
-592.982	205.527	0.055	0.087
-591.967	189.091	0.185	0.282
-590.952	-133.358	-0.147	0.019
-589.938	-150.147	0.231	-0.018
-588.923	-34.803	-0.349	-0.194
-587.909	5.782	0.205	0.154
-586.894	149.718	-0.121	0.167
-585.879	-67.675	-0.445	-0.177
-584.865	-17.356	0.453	0.290
-583.850	584.273	0.020	0.049
-582.836	800.000	0.054	0.164
-581.821	-200.000	0.050	-0.237
-580.806	-68.809	0.081	-0.032
-579.792	-35.737	-0.161	0.089
-578.777	399.419	0.105	0.223
-577.763	33.023	-0.108	-0.095
-576.748	-71.760	-0.371	-0.141
-575.733	-84.777	0.336	-0.107
-574.719	-139.618	0.072	-0.008
-573.704	-33.343	0.146	0.082
-572.690	-87.998	-0.291	-0.089
-571.675	-6.414	-0.179	-0.124
-570.661	434.317	-0.112	0.248
-569.646	-147.944	-0.120	0.010
-568.631	800.000	0.034	-0.132
-567.617	-99.346	-0.254	0.065
-566.602	800.000	-0.044	-0.179
-565.588	300.990	-0.043	-0.080
-564.573	-182.168	-0.081	0.002
-563.558	51.981	-0.110	0.107
-562.544	-130.017	0.179	0.025
-561.529	29.628	-0.228	0.197
-560.515	-6.006	-0.081	0.056
-559.500	-150.779	-0.205	0.016
-558.485	339.096	0.040	-0.079
-557.471	92.882	0.053	0.061
-556.456	-86.440	-0.065	0.020
-555.442	-200.000	0.097	-0.000
-554.427	-200.000	0.028	0.170
-553.412	-9.227	-0.094	-0.064
-552.398	95.688	-0.084	0.098
-551.383	138.723	0.126	0.167
-550.369	124.504	0.109	0.139
-549.354	800.000	-0.012	0.045
-548.339	-122.610	-0.102	-0.017
-547.325	78.724	0.140	0.152
-546.310	-150.219	-0.072	0.006
-545.296	-200.000	0.031	-0.137
-544.281	-200.000	-0.017	0.113
-543.266	84.295	-0.026	0.029
-542.252	800.000	-0.085	-0.285
-541.237	-155.195	-0.318	-0.021
-540.223	-57.885	-0.087	-0.038
-539.208	23.479	-0.203	-0.170
-538.193	51.392	0.043	-0.042
-537.179	-147.393	-0.184	-0.016
-536.164	162.721	0.176	-0.251
-535.150	-91.888	0.229	-0.066
-534.135	36.039	-0.165	0.147
-533.121	-200.000	0.011	0.194
-532.106	-155.944	0.132	0.009
-531.091	-149.004	0.232	-0.019
-530.077	-200.000	0.031	0.256
-529.062	9.393	0.220	-0.169
-528.048	35.660	-0.171	0.152
-527.033	32.193	0.043	0.038
-526.018	779.860	-0.050	-0.139
-525.004	-65.542	-0.388	-0.158
-523.989	800.000	-0.040	-0.172
-522.975	-46.548	-0.137	0.068
-521.960	62.464	0.144	0.146
-520.945	-96.099	0.138	-0.037
-519.931	169.859	0.156	-0.225
-518.916	55.717	0.117	-0.115
-517.902	800.000	-0.025	-0.110
-516.887	-88.945	0.085	0.026
-515.872	57.873	-0.191	-0.189
-514.858	800.000	-0.022	-0.077
-513.843	-200.000	0.032	0.148
-512.829	-88.147	-0.425	-0.129
-511.814	8.590	-0.260	-0.198
-510.799	178.717	-0.119	-0.175
-509.785	-109.909	-0.266	-0.056
-508.770	96.076	-0.061	0.070
-507.756	-73.409	-0.223	-0.082
-506.741	498.341	0.113	0.263
-505.726	-40.618	-0.303	0.159
-504.712	251.634	0.237	0.408
-503.697	-30.366	0.102	-0.059
-502.683	-144.120	-0.298	0.028
-501.668	-116.526	-0.176	0.033
-500.653	-63.812	0.162	-0.067
-499.639	41.065	-0.153	-0.140
-498.624	297.961	-0.147	0.273
-497.610	800.000	0.088	0.306
-496.595	-135.320	0.123	-0.015
-495.581	342.948	0.077	-0.153
-494.566	-200.000	0.043	-0.294
-493.551	800.000	-0.148	-0.488
-492.537	-153.201	0.139	0.010
-491.522	-95.925	0.237	-0.064
-490.508	-15.800	0.172	-0.111
-489.493	-200.000	-0.329	-0.001
-488.478	-200.000	0.055	0.261
-487.464	-131.592	-0.266	0.035
-486.449	-200.000	0.021	-0.178
-485.435	-200.000	0.004	0.089
-484.420	800.000	0.079	-0.232
-483.405	-55.016	0.174	0.079
-482.391	-32.774	0.175	0.098
-481.376	5.604	0.144	-0.108
-480.362	34.660	-0.284	0.251
-479.347	6.568	-0.176	-0.133
-478.332	61.730	-0.095	-0.096
-477.318	-74.696	-0.312	0.113
-476.303	800.000	-0.078	0.222
-475.289	-200.000	-0.002	-0.014
-474.274	526.356	-0.058	-0.138
-473.259	71.455	0.131	-0.138
-472.245	-55.901	-0.276	-0.125
-471.230	-0.798	-0.270	-0.194
-470.216	243.288	0.162	0.275
-469.201	20.022	-0.082	-0.067
-468.186	-62.813	-0.207	0.087
-467.172	-44.643	0.057	-0.029
-466.157	-151.504	0.397	-0.030
-465.143	-30.735	0.219	0.126
-464.128	-7.559	0.080	0.055
-463.113	-106.327	0.295	0.067
-462.099	457.930	0.102	-0.229
-461.084	-200.000	0.029	-0.236
-460.070	800.000	-0.073	0.205
-459.055	-144.181	0.433	-0.041
-458.040	-200.000	-0.039	-0.261
-457.026	91.475	0.238	0.271
-456.011	-200.000	0.014	-0.137
-454.997	-156.587	0.084	-0.005
-453.982	232.850	0.120	-0.199
-452.968	187.207	-0.069	-0.104
-451.953	-200.000	0.049	0.275
-450.938	-23.262	-0.219	0.133
-449.924	-145.230	0.252	0.023
-448.909	11.817	-0.190	0.147
-447.895	-61.112	0.273	-0.116
-446.880	22.484	0.221	-0.183
-445.865	192.259	0.033	0.050
-444.851	800.000	0.030	-0.115
-443.836	15.679	-0.148	0.117
-442.822	161.775	-0.032	0.045
-441.807	452.872	0.141	-0.315
-440.792	287.791	-0.172	-0.314
-439.778	84.378	0.067	0.074
-438.763	113.742	0.126	0.155
-437.749	-63.508	0.096	0.040
-436.734	800.000	-0.044	-0.158
-435.719	131.260	0.066	-0.085
-434.705	213.368	0.160	0.255
-433.690	-22.019	0.105	0.064
-432.676	667.884	-0.010	0.027
-431.661	82.304	0.123	0.135
-430.646	187.735	-0.097	0.147
-429.632	109.558	0.098	-0.119
-428.617	-31.701	0.295	-0.167
-427.603	189.050	0.089	-0.135
-426.588	89.776	0.187	0.210
-425.573	-200.000	0.100	0.488
-424.559	229.230	-0.123	-0.203
-423.544	-7.538	-0.331	-0.226
-422.530	-200.000	0.004	0.373
-421.515	-200.000	0.042	0.353
-420.500	-200.000	0.009	0.278
-419.486	95.359	-0.177	-0.204
-418.471	-50.699	0.311	-0.148
-417.457	800.000	-0.096	0.269
-416.442	-200.000	0.002	0.136
-415.428	34.293	0.090	-0.079
-414.413	-59.930	0.076	0.033
-413.398	165.842	-0.149	-0.212
-412.384	143.822	0.116	-0.156
-411.369	381.536	0.005	0.010
-410.355	800.000	0.089	-0.273
-409.340	201.645	-0.207	-0.322
-408.325	46.961	-0.038	-0.036
-407.311	-14.551	-0.169	0.110
-406.296	800.000	-0.014	-0.053
-405.282	-112.996	-0.081	0.016
-404.267	-122.932	0.186	-0.030
-403.252	-121.568	-0.028	0.005
-402.238	-106.162	-0.193	-0.044
-401.223	166.171	0.130	0.185
-400.209	-166.664	0.359	0.015
-399.194	179.819	0.105	-0.155
-398.179	256.875	0.100	0.173
-397.165	47.674	0.137	0.129
-396.150	-20.038	0.206	0.128
-395.136	-105.141	-0.250	0.058
-394.121	173.774	-0.067	0.098
-393.106	81.732	-0.147	0.160
-392.092	-162.170	0.243	-0.012
-391.077	-200.000	-0.007	-0.219
-390.063	-22.353	-0.214	0.131
-389.048	-11.255	-0.223	0.148
-388.033	627.482	-0.065	-0.166
-387.019	-84.857	0.270	-0.085
-386.004	-1.107	0.075	-0.054
-384.990	-56.239	-0.304	-0.136
-383.975	-168.830	-0.276	-0.010
-382.960	-200.000	0.006	-0.033
-381.946	94.251	0.170	0.194
-380.931	800.000	0.085	0.262
-379.917	-95.743	0.498	-0.134
-378.902	341.124	0.086	-0.170
-377.888	-87.234	-0.273	0.084
-376.873	-53.702	0.165	-0.076
-375.858	-159.306	-0.059	0.003
-374.844	281.673	0.051	0.093
-373.829	-116.988	-0.268	-0.049
-372.815	124.276	0.198	0.250
-371.800	-200.000	0.078	0.446
-370.785	145.277	-0.081	0.110
-369.771	184.417	0.246	0.367
-368.756	-32.920	0.345	0.193
-367.742	-46.820	-0.101	0.050
-366.727	562.151	-0.114	-0.279
-365.712	800.000	0.061	0.217
-364.698	97.599	0.153	-0.178
-363.683	-200.000	0.091	-0.458
-362.669	40.838	-0.290	0.264
-361.654	344.423	-0.030	0.059
-360.639	-46.826	-0.204	0.101
-359.625	191.154	0.092	-0.140
-358.610	186.457	-0.045	-0.067
-357.596	511.456	0.093	-0.218
-356.581	-8.536	0.300	0.203
-355.566	-200.000	-0.020	-0.476
-354.552	16.579	-0.212	-0.169
-353.537	75.150	-0.281	-0.298
-352.523	9.332	-0.094	0.072
-351.508	42.123	0.278	-0.254
-350.493	-200.000	-0.046	0.234
-349.479	189.291	0.064	-0.096
-348.464	6.536	-0.122	-0.091
-347.450	800.000	0.083	0.287
-346.435	-161.774	-0.066	-0.003
-345.420	-200.000	-0.010	0.228
-344.406	800.000	0.096	-0.345
-343.391	-72.184	0.313	-0.117
-342.377	762.084	-0.054	-0.146
-341.362	12.697	0.216	-0.168
-340.348	186.846	0.110	0.165
-339.333	98.045	0.178	0.206
-338.318	-140.918	0.253	0.026
-337.304	26.921	0.317	-0.268
-336.289	774.592	0.069	-0.189
-335.275	91.983	0.167	-0.189
-334.260	-72.285	0.195	-0.073
-333.245	598.279	-0.028	0.071
-332.231	-200.000	-0.010	-0.375
-331.216	-6.630	-0.059	-0.041
-330.202	-99.486	0.082	-0.021
-329.187	-160.189	-0.205	0.011
-328.172	-59.899	0.293	-0.126
-327.158	79.846	0.112	0.121
-326.143	-6.916	-0.175	0.119
-325.129	-8.849	0.323	0.218
-324.114	64.596	0.136	-0.138
-323.099	800.000	0.026	-0.102
-322.085	-200.000	0.020	-0.130
-321.070	24.527	0.301	0.250
-320.056	-200.000	0.034	-0.205
-319.041	-10.973	0.031	-0.021
-318.026	-25.848	-0.075	0.045
-317.012	800.000	-0.077	-0.289
-315.997	-48.004	0.105	-0.051
-314.983	-200.000	-0.049	-0.329
-313.968	28.964	-0.058	-0.049
-312.953	-29.542	0.296	0.170
-311.939	-200.000	0.034	-0.167
-310.924	24.938	0.207	-0.173
-309.910	800.000	0.065	0.185
-308.895	21.689	-0.167	0.136
-307.880	-144.957	-0.088	-0.008
-306.866	225.511	-0.111	-0.180
-305.851	-124.473	-0.120	-0.019
-304.837	131.063	0.024	0.030
-303.822	-112.158	0.355	-0.072
-302.807	-19.330	0.082	-0.051
-301.793	800.000	0.086	0.253
-300.778	170.416	-0.013	-0.018
-299.764	144.074	-0.037	-0.049
-298.749	308.687	-0.062	-0.116
-297.735	556.957	-0.127	0.308
-296.720	-90.600	-0.252	0.073
-295.705	35.996	-0.148	0.131
-294.691	-8.025	-0.056	0.038
-293.676	66.653	0.271	-0.277
-292.662	-106.377	0.122	0.027
-291.647	456.296	-0.063	0.141
-290.632	738.733	0.086	0.232
-289.618	352.807	-0.042	-0.083
-288.603	-41.016	-0.201	0.104
-287.589	41.378	0.114	-0.103
-286.574	-103.181	-0.319	0.076
-285.559	-200.000	0.025	-0.232
-284.545	-182.727	-0.060	0.001
-283.530	800.000	0.070	0.293
-282.516	-200.000	-0.012	0.130
-281.501	-137.317	-0.194	0.022
-280.486	-124.066	-0.156	0.025
-279.472	-200.000	-0.072	0.349
-278.457	493.605	-0.056	0.130
-277.443	230.701	0.133	-0.219
-276.428	-200.000	-0.033	-0.286
-275.413	6.700	0.030	0.023
-274.399	-61.696	0.331	0.139
-273.384	170.678	-0.149	-0.215
-272.370	-122.898	0.067	0.011
-271.355	430.013	-0.075	0.162
-270.340	130.061	-0.207	-0.266
-269.326	596.885	0.047	0.118
-268.311	175.976	-0.128	0.186
-267.297	-200.000	-0.011	0.135
-266.282	-129.465	0.172	-0.024
-265.267	36.801	0.239	0.212
-264.253	134.079	0.038	-0.049
-263.238	53.670	-0.332	0.319
-262.224	800.000	-0.022	-0.088
-261.209	-141.669	-0.278	0.028
-260.195	324.730	0.140	0.267
-259.180	304.578	-0.053	0.099
-258.165	-200.000	0.056	0.349
-257.151	800.000	-0.007	0.022
-256.136	229.950	-0.114	0.186
-255.122	-107.125	-0.122	0.027
-254.107	-194.541	-0.329	-0.003
-253.092	18.086	-0.205	-0.164
-252.078	-171.427	-0.140	-0.005
-251.063	-200.000	-0.001	-0.026
-250.049	-151.519	0.448	0.033
-249.034	-19.805	0.105	0.065
-248.019	136.117	-0.179	0.234
-247.005	-21.710	0.104	-0.063
-245.990	-200.000	-0.012	0.239
-244.976	800.000	-0.073	0.283
-243.961	-200.000	-0.004	0.048
-242.946	-182.644	0.327	0.006
-241.932	660.815	0.068	0.175
-240.917	301.117	0.157	-0.291
-239.903	-187.937	0.141	0.002
-238.888	-96.331	0.176	-0.047
-237.873	-200.000	-0.025	-0.148
-236.859	-80.021	0.150	0.050
-235.844	87.534	0.140	0.155
-234.830	148.828	-0.057	0.078
-233.815	249.494	0.078	-0.132
-232.800	800.000	-0.057	-0.163
-231.786	-102.702	0.197	0.047
-230.771	-56.606	-0.450	0.200
-229.757	-66.192	0.429	0.171
-228.742	800.000	0.053	0.232
-227.727	-22.163	-0.309	-0.188
-226.713	-154.959	0.151	0.010
-225.698	-77.266	-0.305	0.106
-224.684	-158.645	-0.140	0.008
-223.669	185.512	0.143	-0.213
-222.655	570.185	0.082	-0.201
-221.640	147.044	0.183	0.246
-220.625	74.395	-0.156	0.164
-219.611	263.964	0.095	0.166
-218.596	-13.798	-0.120	0.078
-217.582	637.924	0.050	-0.127
-216.567	10.574	0.062	0.048
-215.552	111.279	-0.272	0.329
-214.538	-200.000	0.007	-0.205
-213.523	-130.262	0.113	-0.015
-212.509	-17.213	0.228	-0.144
-211.494	800.000	-0.040	-0.122
-210.479	47.209	-0.219	-0.204
-209.465	-127.824	0.211	-0.031
-208.450	6.040	-0.281	-0.208
-207.436	66.784	-0.024	-0.025
-206.421	81.217	0.163	0.176
-205.406	-200.000	0.010	-0.319
-204.392	2.701	-0.014	-0.010
-203.377	-7.150	0.178	-0.121
-202.363	-118.623	-0.329	-0.058
-201.348	130.628	0.234	0.300
-200.333	-200.000	0.048	0.218
-199.319	-1.517	0.187	-0.132
-198.304	35.813	0.064	0.056
-197.290	-76.533	0.267	-0.094
-196.275	338.642	0.076	0.149
-195.260	-200.000	0.007	0.067
-194.246	101.103	0.145	-0.169
-193.231	-140.666	-0.392	0.041
-192.217	-160.575	0.074	-0.004
-191.202	800.000	0.094	0.295
-190.187	123.273	-0.114	0.143
-189.173	-122.542	0.009	-0.001
-188.158	78.993	-0.188	-0.201
-187.144	-63.545	-0.155	-0.064
-186.129	-111.250	-0.269	-0.055
-185.114	-200.000	-0.015	0.185
-184.100	-200.000	-0.019	-0.182
-183.085	800.000	0.081	0.226
-182.071	-28.037	0.024	0.014
-181.056	280.068	-0.151	-0.269
-180.042	-200.000	0.035	-0.193
-179.027	-141.004	-0.212	0.022
-178.012	91.847	0.180	0.202
-176.998	-65.854	-0.442	0.177
-175.983	270.512	0.063	0.111
-174.969	6.926	-0.161	0.120
-173.954	54.287	0.182	-0.176
-172.939	-4.786	0.238	-0.164
-171.925	-23.482	0.223	-0.134
-170.910	-200.000	-0.033	0.165
-169.896	-200.000	0.047	0.222
-168.881	28.805	0.109	-0.092
-167.866	75.228	-0.071	-0.074
-166.852	103.321	0.198	0.232
-165.837	27.021	0.219	-0.183
-164.823	-79.885	-0.103	0.035
-163.808	86.534	-0.184	0.202
-162.793	-200.000	0.009	-0.116
-161.779	-200.000	-0.003	-0.189
-160.764	-31.425	0.271	0.152
-159.750	800.000	-0.050	0.167
-158.735	-108.779	-0.281	0.060
-157.720	-128.246	-0.296	-0.042
-156.706	-62.468	-0.370	-0.154
-155.691	-200.000	0.005	0.563
-154.677	218.074	-0.112	0.179
-153.662	800.000	0.074	-0.217
-152.647	118.133	0.059	0.073
-151.633	7.740	-0.061	-0.046
-150.618	-22.773	0.096	-0.058
-149.604	704.030	-0.081	0.214
-148.589	-120.679	0.226	-0.038
-147.574	139.953	-0.231	-0.304
-146.560	-84.128	0.161	-0.051
-145.545	800.000	-0.058	0.170
-144.531	-124.856	0.127	-0.020
-143.516	115.610	0.132	-0.161
-142.502	163.849	0.056	-0.079
-141.487	214.343	-0.080	-0.127
-140.472	-159.170	-0.159	0.009
-139.458	-200.000	0.037	-0.227
-138.443	-26.578	0.125	0.073
-137.429	-8.459	-0.276	-0.185
-136.414	-200.000	-0.053	0.276
-135.399	800.000	0.047	0.154
-134.385	-200.000	0.008	-0.046
-133.370	271.111	-0.129	-0.227
-132.356	128.237	0.085	-0.108
-131.341	782.101	-0.055	0.151
-130.326	-200.000	0.022	-0.110
-129.312	-38.711	0.483	-0.254
-128.297	14.416	-0.175	-0.136
-127.283	23.293	-0.379	0.310
-126.268	-30.795	-0.133	0.075
-125.253	-43.050	-0.070	0.035
-124.239	-170.287	-0.116	0.004
-123.224	800.000	0.032	-0.114
-122.210	-46.105	-0.193	-0.095
-121.195	-92.352	0.204	0.057
-120.180	-86.667	-0.138	0.042
-119.166	54.007	-0.201	-0.192
-118.151	800.000	0.098	0.271
-117.137	-200.000	0.100	0.465
-116.122	-200.000	-0.000	-0.121
-115.107	-33.186	0.332	0.184
-114.093	4.928	0.181	-0.133
-113.078	-200.000	0.000	0.090
-112.064	-10.081	-0.257	0.171
-111.049	242.734	0.108	0.180
-110.034	-200.000	0.037	0.291
-109.020	304.496	0.129	0.238
-108.005	508.928	0.141	-0.326
-106.991	-200.000	0.008	-0.183
-105.976	71.903	0.112	0.116
-104.962	378.692	-0.111	0.226
-103.947	-200.000	0.069	0.365
-102.932	-2.993	0.272	-0.189
-101.918	800.000	0.057	-0.193
-100.903	377.136	-0.013	0.027
-99.889	78.427	-0.098	0.104
-98.874	345.333	0.097	0.191
-97.859	81.210	-0.099	-0.106
-96.845	-41.121	-0.284	0.146
-95.830	501.988	-0.112	-0.257
-94.816	-200.000	0.002	-0.223
-93.801	-200.000	-0.012	0.059
-92.786	-22.856	-0.053	-0.032
-91.772	33.120	0.151	0.130
-90.757	-180.935	0.320	0.006
-89.743	491.902	0.109	0.248
-88.728	-30.691	0.313	0.176
-87.713	16.876	0.321	0.253
-86.699	400.659	-0.136	-0.284
-85.684	121.102	0.061	0.076
-84.670	-149.797	0.364	-0.028
-83.655	-69.497	0.201	-0.077
-82.640	-35.271	-0.070	0.038
-81.626	55.263	0.214	0.206
-80.611	-200.000	0.009	0.092
-79.597	199.548	0.054	-0.083
-78.582	98.298	-0.070	0.080
-77.567	800.000	-0.036	0.113
-76.553	324.383	0.184	0.350
-75.538	105.440	0.304	0.358
-74.524	303.940	-0.126	0.232
-73.509	115.549	0.169	0.206
-72.494	-200.000	-0.019	0.245
-71.480	800.000	0.027	0.113
-70.465	-16.805	0.318	0.200
-69.451	-57.943	0.355	0.154
-68.436	800.000	0.086	-0.306
-67.422	-200.000	0.008	-0.345
-66.407	-200.000	-0.058	0.348
-65.392	500.853	-0.045	0.105
-64.378	189.220	0.189	0.282
-63.363	-133.406	0.093	-0.012
-62.349	52.450	0.225	0.213
-61.334	10.873	-0.935	-0.711
-60.319	-79.384	0.256	0.086
-59.305	-200.000	-0.091	-0.768
-58.290	107.496	0.631	0.747
-57.276	800.000	0.417	1.350
-56.261	-200.000	81.963	517.866
-55.246	521.690	1334.303	3116.089
-54.232	151.004	2547.407	3447.343
-53.217	112.905	2233.845	2693.274
-52.203	49.093	1768.337	1652.845
-51.188	42.344	1573.274	1422.813
-50.173	39.894	1544.706	1379.833
-49.159	55.827	1586.835	1530.510
-48.144	60.437	1607.600	1583.137
-47.130	43.048	1567.519	1422.358
-46.115	39.708	1552.501	1385.270
-45.100	39.368	1549.495	1380.146
-44.086	39.402	1546.993	1378.102
-43.071	39.264	1545.035	1375.337
-42.057	39.278	1543.278	1373.820
-41.042	39.133	1542.566	1372.120
-40.027	39.275	1540.510	1371.224
-39.013	39.175	1538.965	1369.098
-37.998	39.339	1537.351	1368.752
-36.984	39.294	1536.021	1367.201
-35.969	39.290	1535.054	1366.256
-34.954	39.227	1533.670	1364.530
-33.940	39.341	1532.135	1363.902
-32.925	39.461	1530.332	1363.073
-31.911	39.372	1528.995	1361.215
-30.896	39.333	1528.015	1360.019
-29.881	39.458	1526.202	1359.213
-28.867	39.352	1525.736	1358.012
-27.852	39.325	1524.082	1356.304
-26.838	39.358	1522.475	1355.042
-25.823	39.433	1520.749	1353.973
-24.809	39.371	1519.188	1352.101
-23.794	39.357	1517.321	1350.286
-22.779	39.312	1516.533	1349.228
-21.765	39.389	1514.868	1348.218
-20.750	39.427	1513.820	1347.490
-19.736	39.379	1512.721	1346.134
-18.721	39.371	1511.863	1345.261
-17.706	39.286	1510.807	1343.690
-16.692	39.285	1509.737	1342.674
-15.677	39.350	1508.698	1342.144
-14.663	39.181	1508.237	1340.528
-13.648	39.267	1506.584	1339.589
-12.633	39.249	1505.766	1338.688
-11.619	39.278	1504.648	1337.837
-10.604	39.172	1504.443	1336.880
-9.590	39.308	1503.239	1336.684
-8.575	39.312	1502.245	1335.772
-7.560	39.315	1501.037	1334.667
-6.546	39.220	1500.217	1333.240
-5.531	39.276	1499.395	1332.833
-4.517	39.227	1498.796	1331.916
-3.502	39.230	1497.795	1330.996
-2.487	39.284	1496.304	1329.980
-1.473	39.286	1495.319	1329.068
-0.458	39.233	1494.268	1327.721
0.556	37.268	1484.601	1315.554
1.571	33.879	1457.321	1268.686
2.586	29.620	1391.633	1184.158
3.600	27.426	1305.705	1097.731
4.615	25.625	1257.121	1046.332
5.629	24.074	1203.886	993.286
6.644	19.918	1123.999	905.596
7.659	16.030	1083.810	853.487
8.673	15.400	1078.465	846.027
9.688	15.308	1075.026	842.792
10.702	15.209	1073.823	841.276
11.717	15.203	1071.901	839.669
12.731	16.927	1073.106	849.180
13.746	20.325	1078.040	870.071
14.761	20.718	1076.967	871.097
15.775	18.419	1072.667	856.067
16.790	16.982	1069.697	846.456
17.804	15.730	1067.540	838.435
18.819	14.815	1065.615	832.291
19.834	14.384	1063.808	828.665
20.848	13.896	1062.820	825.396
21.863	13.596	1062.145	823.313
22.877	13.389	1061.326	821.577
23.892	13.302	1060.181	820.183
24.907	13.115	1059.723	818.828
25.921	13.152	1058.810	818.237
26.936	13.081	1058.080	817.249
27.950	13.178	1056.868	816.721
28.965	13.300	1055.740	816.378
29.980	13.303	1054.869	815.648
30.994	13.403	1053.317	814.865
32.009	13.384	1052.244	813.869
33.023	13.535	1051.327	813.830
34.038	13.480	1050.710	813.010
35.053	13.397	1049.906	811.912
36.067	13.252	1049.389	810.728
37.082	13.272	1048.240	809.866
38.096	13.288	1047.451	809.262
39.111	13.319	1046.829	808.861
40.126	13.384	1045.495	808.076
41.140	13.342	1044.468	807.007
42.155	13.254	1043.200	805.527
43.169	13.123	1042.644	804.390
44.184	13.106	1041.707	803.512
45.199	13.002	1040.432	801.951
46.213	13.138	1039.420	801.764
47.228	13.129	1038.430	800.883
48.242	13.227	1037.767	800.775
49.257	13.242	1036.156	799.537
50.271	13.287	1035.188	798.934
51.286	13.301	1034.409	798.329
52.301	13.249	1033.550	797.346
53.315	13.330	1033.021	797.259
54.330	13.259	1032.164	796.184
55.344	13.190	1031.374	795.173
56.359	13.229	1029.894	794.146
57.374	13.326	1029.118	793.946
58.388	13.037	1028.441	791.966
59.403	13.086	1027.674	791.539
60.417	13.128	1026.904	791.077
61.432	13.188	1026.190	790.748
62.447	13.115	1025.668	789.925
63.461	13.164	1024.453	789.151
64.476	13.041	1023.870	788.045
65.490	12.973	1022.808	786.833
66.505	13.045	1021.977	786.471
67.520	13.024	1021.018	785.563
68.534	13.118	1020.459	785.511
69.549	13.076	1019.143	784.230
70.563	13.054	1019.095	784.014
71.578	13.105	1018.427	783.676
72.593	13.210	1017.153	783.121
73.607	13.067	1016.157	781.610
74.622	13.076	1015.565	781.129
75.636	12.934	1014.810	779.809
76.651	12.913	1013.908	778.946
77.666	13.027	1012.941	778.671
78.680	13.022	1012.299	778.088
79.695	12.964	1012.205	777.671
80.709	13.111	1011.146	777.483
81.724	12.993	1010.426	776.303
82.739	13.196	1009.480	776.464
83.753	13.114	1009.264	775.843
84.768	13.353	1008.165	776.051
85.782	13.133	1007.432	774.387
86.797	13.335	1006.317	774.405
87.812	13.309	1005.653	773.706
88.826	13.288	1004.947	772.993
89.841	13.186	1004.328	771.974
90.855	13.277	1003.640	771.803
91.870	13.270	1002.685	770.967
92.884	13.352	1001.548	770.407
93.899	13.308	1001.417	770.031
94.914	13.222	1000.742	769.045
95.928	13.298	999.444	768.333
96.943	13.350	999.158	768.284
97.957	13.292	998.211	767.220
98.972	13.241	997.694	766.519
99.987	13.471	996.250	766.405
101.001	13.353	995.874	765.506
102.016	13.353	994.930	764.710
103.030	13.312	994.036	763.768
104.045	13.396	993.182	763.430
105.060	13.325	992.007	762.132
106.074	13.260	991.032	761.018
107.089	13.229	990.375	760.304
108.103	13.177	989.644	759.436
109.118	13.111	988.128	757.903
110.133	13.138	987.485	757.465
111.147	13.061	986.794	756.516
112.162	13.141	985.652	755.939
113.176	12.991	985.199	754.837
114.191	13.153	984.001	754.596
115.206	13.306	983.383	754.752
116.220	13.148	982.528	753.308
117.235	13.192	981.688	752.797
118.249	13.136	980.847	751.832
119.264	13.159	979.640	750.942
120.279	13.161	978.745	750.199
121.293	13.212	977.853	749.680
122.308	13.136	977.739	749.185
123.322	13.127	976.714	748.293
124.337	13.160	975.466	747.419
125.352	13.155	974.475	746.568
126.366	13.122	973.521	745.624
127.381	13.081	972.549	744.629
128.395	13.088	971.633	743.892
129.410	13.222	970.333	743.432
130.424	13.106	969.706	742.369
131.439	13.169	968.700	741.813
132.454	13.190	967.857	741.197
133.468	13.195	967.401	740.805
134.483	13.321	966.461	740.584
135.497	13.136	966.203	739.493
136.512	13.274	965.399	739.428
137.527	13.266	964.453	738.601
138.541	13.167	963.676	737.503
139.556	13.287	962.648	737.186
140.570	13.353	961.954	736.879
141.585	13.372	961.207	736.329
142.600	13.399	960.529	735.864
143.614	13.351	959.786	735.016
144.629	13.290	959.444	734.420
145.643	13.365	958.243	733.765
146.658	13.360	957.091	732.796
147.673	13.275	956.696	732.053
148.687	13.217	955.694	730.965
149.702	13.237	954.792	730.298
150.716	13.178	953.795	729.213
151.731	13.160	953.275	728.670
152.746	13.161	952.383	727.927
153.760	13.220	951.624	727.545
154.775	13.356	950.856	727.490
155.789	13.325	950.253	726.829
156.804	13.320	949.850	726.435
157.819	13.437	948.740	726.036
158.833	13.454	948.216	725.646
159.848	13.472	947.386	725.024
160.862	13.447	947.061	724.601
161.877	13.501	945.891	723.877
162.892	13.336	945.458	722.762
163.906	13.404	944.421	722.201
164.921	13.322	943.749	721.265
165.935	13.262	942.791	720.210
166.950	13.338	942.018	719.887
167.964	13.396	940.864	719.192
168.979	13.409	940.198	718.673
169.994	13.542	938.947	718.234
171.008	13.469	938.179	717.267
172.023	13.404	937.768	716.606
173.037	13.467	936.826	716.093
174.052	13.484	936.099	715.550
175.067	13.495	935.440	715.028
176.081	13.524	934.582	714.437
177.096	13.305	934.037	713.012
178.110	13.427	933.039	712.714
179.125	13.556	932.108	712.492
180.140	13.544	931.266	711.736
181.154	13.484	930.953	711.175
182.169	13.573	930.021	710.782
183.183	13.665	929.343	710.595
184.198	13.623	928.689	709.851
185.213	13.566	928.248	709.207
186.227	13.685	927.652	709.200
187.242	13.586	927.158	708.336
188.256	13.649	926.560	708.086
189.271	13.839	925.266	707.845
190.286	13.839	924.329	707.065
191.300	13.596	923.753	705.525
192.315	13.475	923.257	704.571
193.329	13.488	922.339	703.865
194.344	13.416	921.721	703.022
195.359	13.554	921.073	703.053
196.373	13.655	920.585	703.046
197.388	13.681	920.125	702.744
198.402	13.707	919.804	702.545
199.417	13.870	919.209	702.719
200.432	13.851	918.870	702.320
201.446	13.968	918.155	702.204
202.461	13.869	917.955	701.572
203.475	13.930	917.384	701.328
204.490	13.941	916.352	700.524
205.504	13.898	915.586	699.696
206.519	13.858	915.379	699.309
207.534	13.830	914.336	698.332
208.548	13.841	913.430	697.621
209.563	13.766	912.983	696.905
210.577	13.806	912.313	696.499
211.592	13.904	911.757	696.426
212.607	14.020	910.773	696.099
213.621	14.032	910.560	695.925
214.636	14.125	909.462	695.410
215.650	13.925	909.333	694.416
216.665	14.057	908.375	694.174
217.680	14.080	907.919	693.860
218.694	14.144	907.645	693.855
219.709	14.159	907.031	693.389
220.723	14.062	906.342	692.396
221.738	14.103	905.718	692.028
222.753	14.185	904.838	691.638
223.767	14.183	904.328	691.175
224.782	14.194	903.282	690.363
225.796	14.334	902.159	690.023
226.811	14.295	901.818	689.537
227.826	14.200	901.436	688.793
228.840	14.335	900.787	688.794
229.855	14.209	899.965	687.582
230.869	14.238	898.976	686.888
231.884	14.212	898.469	686.333
232.899	14.223	897.752	685.767
233.913	14.129	897.095	684.817
234.928	14.080	896.903	684.411
235.942	14.100	895.948	683.705
236.957	14.206	894.882	683.262
237.972	14.190	894.502	682.848
238.986	14.149	894.013	682.248
240.001	14.290	893.177	682.124
241.015	14.114	892.560	680.874
242.030	14.298	891.955	681.106
243.045	14.376	891.358	680.908
244.059	14.196	890.846	679.720
245.074	14.496	889.518	679.870
246.088	14.277	889.775	679.114
247.103	14.415	888.690	678.789
248.117	14.492	888.016	678.526
249.132	14.444	887.664	678.002
250.147	14.574	886.972	677.941
251.161	14.580	886.150	677.277
252.176	14.611	885.706	677.003
253.190	14.668	884.935	676.585
254.205	14.615	884.851	676.248
255.220	14.764	884.094	676.211
256.234	14.757	883.228	675.460
257.249	14.752	882.572	674.881
258.263	14.802	881.769	674.409
259.278	14.769	881.262	673.828
260.293	14.851	880.793	673.740
261.307	14.776	880.579	673.212
262.322	14.860	879.743	672.851
263.336	14.922	879.315	672.717
264.351	15.059	878.358	672.474
265.366	15.079	877.685	671.980
266.380	14.817	877.598	670.800
267.395	14.774	877.111	670.199
268.409	14.928	875.970	669.883
269.424	14.987	875.137	669.424
270.439	14.959	874.611	668.849
271.453	14.972	873.762	668.196
272.468	14.794	873.254	667.035
273.482	14.875	872.485	666.713
274.497	14.942	871.834	666.424
275.512	14.921	871.099	665.718
276.526	14.932	870.062	664.912
277.541	14.905	869.688	664.460
278.555	14.809	869.429	663.821
279.570	15.043	868.417	663.919
280.585	15.055	868.147	663.701
281.599	15.124	867.838	663.677
282.614	15.107	866.990	662.905
283.628	15.113	865.894	662.031
284.643	15.119	865.754	661.890
285.657	15.171	865.269	661.666
286.672	15.103	864.458	660.718
287.687	15.116	864.172	660.492
288.701	15.228	863.853	660.633
289.716	15.144	863.096	659.663
290.730	15.176	862.598	659.351
291.745	15.020	862.189	658.367
292.760	15.161	861.145	658.066
293.774	15.172	860.864	657.833
294.789	15.097	860.261	657.023
295.803	15.300	859.501	657.177
296.818	15.174	859.025	656.264
297.833	15.144	858.340	655.563
298.847	15.264	857.788	655.555
299.862	15.424	856.388	655.049
300.876	15.454	855.952	654.774
301.891	15.387	855.548	654.146
302.906	15.361	855.031	653.594
303.920	15.499	854.221	653.453
304.935	15.384	853.919	652.719
305.949	15.539	853.280	652.771
306.964	15.565	852.452	652.181
307.979	15.618	851.552	651.642
308.993	15.534	851.655	651.337
310.008	15.629	850.757	650.961
311.022	15.452	850.448	649.984
312.037	15.550	849.660	649.700
313.052	15.635	849.072	649.521
314.066	15.584	848.527	648.852
315.081	15.573	847.759	648.166
316.095	15.414	847.370	647.197
317.110	15.498	847.040	647.212
318.125	15.528	846.335	646.732
319.139	15.602	846.168	646.831
320.154	15.544	845.796	646.267
321.168	15.589	844.555	645.434
322.183	15.640	844.034	645.174
323.197	15.662	843.761	644.992
324.212	15.694	843.099	644.552
325.227	15.683	842.868	644.275
326.241	15.681	842.121	643.640
327.256	15.761	841.331	643.285
328.270	15.633	841.097	642.560
329.285	15.727	840.427	642.352
330.300	15.680	839.945	641.746
331.314	15.724	839.141	641.244
332.329	15.657	838.806	640.677
333.343	15.612	838.238	640.012
334.358	15.840	837.354	640.149
335.373	15.671	837.231	639.354
336.387	15.806	836.442	639.209
337.402	15.783	836.108	638.811
338.416	15.933	835.145	638.588
339.431	16.073	834.586	638.634
340.446	16.022	833.693	637.699
341.460	16.031	833.633	637.633
342.475	15.946	832.924	636.711
343.489	15.923	832.936	636.579
344.504	16.069	832.158	636.478
345.519	15.988	831.792	635.837
346.533	16.167	831.046	635.882
347.548	16.206	830.765	635.761
348.562	16.207	829.817	634.982
349.577	16.081	829.345	634.091
350.592	16.090	828.922	633.744
351.606	15.964	828.662	633.016
352.621	15.915	828.252	632.465
353.635	15.984	827.847	632.359
354.650	16.110	827.116	632.217
355.665	16.049	826.744	631.646
356.679	16.053	826.234	631.217
357.694	16.093	826.051	631.170
358.708	16.302	824.984	631.081
359.723	16.256	824.328	630.352
360.738	16.261	823.468	629.657
361.752	16.136	824.058	629.584
362.767	16.159	823.185	628.948
363.781	16.348	822.553	629.115
364.796	16.343	822.288	628.836
365.810	16.251	822.308	628.453
366.825	16.368	821.631	628.316
367.840	16.458	821.217	628.278
368.854	16.443	820.910	627.933
369.869	16.371	820.180	627.050
370.883	16.447	819.370	626.659
371.898	16.525	818.818	626.469
372.913	16.460	818.389	625.846
373.927	16.417	817.991	625.328
374.942	16.558	817.262	625.236
375.956	16.464	816.672	624.381
376.971	16.633	816.112	624.520
377.986	16.639	815.584	624.084
379.000	16.490	815.195	623.183
380.015	16.527	814.588	622.800
381.029	16.779	813.685	622.980
382.044	16.741	813.225	622.433
383.059	16.720	812.821	621.992
384.073	16.748	812.081	621.472
385.088	16.713	811.996	621.224
386.102	16.618	810.939	620.014
387.117	16.701	810.333	619.800
388.132	16.692	810.244	619.643
389.146	16.565	809.988	618.929
390.161	16.612	809.484	618.662
391.175	16.602	809.325	618.448
392.190	16.818	808.506	618.554
393.205	16.841	808.149	618.312
394.219	16.870	807.610	617.951
395.234	16.695	807.491	617.166
396.248	16.773	806.414	616.573
397.263	16.725	806.233	616.206
398.278	16.805	805.635	615.985
399.292	16.728	805.351	615.434
400.307	16.794	804.889	615.265
401.321	16.696	804.524	614.575
402.336	16.730	804.261	614.443
403.350	16.904	803.671	614.571
404.365	16.780	803.386	613.849
405.380	16.878	802.918	613.792
406.394	16.910	802.521	613.550
407.409	16.855	802.209	613.059
408.423	17.020	801.509	613.065
409.438	16.931	801.124	612.393
410.453	16.945	800.861	612.189
411.467	17.091	800.247	612.192
412.482	17.130	799.750	611.896
413.496	17.257	799.053	611.769
414.511	17.179	798.821	611.257
415.526	17.219	798.611	611.186
416.540	17.312	797.955	610.962
417.555	17.247	797.516	610.340
418.569	17.166	797.346	609.865
419.584	17.186	796.583	609.297
420.599	17.170	796.222	608.911
421.613	95.820	1271.148	1399.289
422.628	81.877	1340.343	1399.427
