DTS Sentinel unit serial number:	SN413079Multiplexer serial number:	ORYXHardware model number:	OX4-SRSoftware version number:	ORYX F/W v4.00 Oryx Data Collector v3.7.2.0data status	okinstallation	princeton_trtdifferential loss correction	single-endedforward channel	channel 3reverse channel	N/Adate	2019/09/13time	05:12:35forward acquisition time	60.00reverse acquisition time	0.00gamma	496.2192k internal	0.2338k external	0.2338temperature offset calibration	1.0137default loss term (dB/km)	0.3790temperature slope calibration	1.0000multiplexer offset coefficient	1.0000multiplexer slope coefficient	1.0000fibre end	0.00T internal ref (°C)	26.39T ext. ref 1 (°C)	4.05T ext. ref 2 (°C)	20.86length (m)	temperature (°C)	Stokes	anti-Stokes-747.200	14.767	0.249	0.196
-746.185	34.459	0.067	-0.058
-745.171	-200.000	0.000	-0.047
-744.156	85.276	-0.170	0.187
-743.142	-30.804	-0.222	0.126
-742.127	-35.350	-0.221	0.121
-741.112	800.000	0.071	0.312
-740.098	172.649	0.057	-0.082
-739.083	800.000	-0.020	0.087
-738.069	-148.347	-0.106	-0.009
-737.054	-53.097	-0.384	-0.177
-736.039	-200.000	-0.024	-0.362
-735.025	509.740	0.014	0.033
-734.010	-55.989	-0.463	0.207
-732.996	-88.337	-0.168	0.050
-731.981	415.403	0.107	0.229
-730.966	85.655	-0.155	-0.171
-729.952	-78.416	-0.380	-0.130
-728.937	128.324	-0.164	-0.209
-727.923	800.000	0.052	0.159
-726.908	-142.473	0.322	-0.032
-725.894	-155.756	-0.305	-0.020
-724.879	-164.270	-0.273	-0.013
-723.864	71.179	-0.150	-0.156
-722.850	-52.830	0.045	-0.021
-721.835	105.983	0.067	0.080
-720.821	-200.000	-0.014	-0.272
-719.806	19.997	0.124	0.100
-718.791	-144.848	-0.243	-0.022
-717.777	-97.423	-0.314	0.082
-716.762	-110.828	-0.163	0.034
-715.748	-2.897	-0.326	-0.228
-714.733	-49.474	0.317	0.152
-713.718	-200.000	0.041	-0.180
-712.704	-200.000	-0.030	-0.265
-711.689	-125.666	-0.163	0.025
-710.675	-200.000	0.023	-0.174
-709.660	-88.802	0.154	0.046
-708.645	1.479	-0.115	0.083
-707.631	95.278	-0.186	-0.213
-706.616	-200.000	0.097	-0.481
-705.602	743.569	0.023	-0.061
-704.587	-122.376	-0.266	-0.043
-703.572	-158.857	-0.188	0.011
-702.558	313.532	-0.142	0.268
-701.543	29.115	0.185	-0.157
-700.529	14.143	-0.195	0.152
-699.514	177.606	-0.269	0.392
-698.499	366.779	-0.085	-0.173
-697.485	-71.588	-0.351	-0.132
-696.470	295.715	-0.272	0.499
-695.456	800.000	-0.030	-0.129
-694.441	127.453	0.338	-0.430
-693.426	65.335	0.182	0.184
-692.412	-83.396	-0.216	-0.069
-691.397	56.431	-0.279	-0.271
-690.383	-15.853	0.313	-0.200
-689.368	85.937	-0.086	0.094
-688.354	-67.704	0.209	-0.082
-687.339	91.857	0.176	-0.199
-686.324	800.000	0.031	0.109
-685.310	-85.107	-0.343	-0.107
-684.295	-114.871	0.115	0.022
-683.281	-200.000	-0.009	-0.043
-682.266	205.473	-0.051	-0.079
-681.251	-163.046	-0.306	-0.015
-680.237	-200.000	-0.002	-0.299
-679.222	-129.937	-0.365	-0.050
-678.208	-200.000	0.091	-0.444
-677.193	-94.435	0.135	0.037
-676.178	-132.344	-0.125	0.016
-675.164	214.582	-0.130	-0.205
-674.149	-90.735	-0.225	-0.065
-673.135	800.000	0.049	-0.141
-672.120	298.202	-0.053	0.097
-671.105	-63.536	0.278	0.114
-670.091	3.524	0.097	-0.071
-669.076	800.000	0.014	0.051
-668.062	-92.190	-0.147	-0.042
-667.047	-133.923	-0.230	0.029
-666.032	-125.145	-0.393	-0.060
-665.018	88.863	0.104	-0.116
-664.003	-149.926	-0.104	-0.008
-662.989	51.160	0.151	0.144
-661.974	-103.933	0.409	0.096
-660.959	77.886	-0.171	-0.182
-659.945	120.633	0.215	0.267
-658.930	800.000	-0.028	-0.108
-657.916	-191.041	0.033	0.000
-656.901	-66.788	-0.204	0.081
-655.886	-114.802	-0.102	-0.019
-654.872	608.450	0.124	0.310
-653.857	-21.515	0.127	-0.078
-652.843	-200.000	0.044	0.284
-651.828	-200.000	-0.019	0.297
-650.814	-47.645	-0.190	-0.092
-649.799	-200.000	-0.016	-0.168
-648.784	783.552	0.062	-0.169
-647.770	-200.000	0.012	0.246
-646.755	-200.000	-0.032	0.203
-645.741	-90.196	0.206	0.060
-644.726	-200.000	0.007	0.039
-643.711	136.854	0.097	-0.127
-642.697	224.599	0.077	-0.124
-641.682	-200.000	-0.006	0.162
-640.668	277.487	0.180	0.321
-639.653	-92.702	0.039	-0.011
-638.638	704.522	0.062	-0.165
-637.624	516.018	-0.018	-0.041
-636.609	-39.151	-0.071	-0.037
-635.595	800.000	-0.134	0.385
-634.580	15.711	-0.046	-0.036
-633.565	-200.000	0.094	-0.412
-632.551	-34.444	-0.237	0.130
-631.536	-121.637	0.156	0.026
-630.522	83.159	-0.180	-0.196
-629.507	-200.000	-0.104	-0.473
-628.492	-72.188	-0.282	-0.104
-627.478	231.414	0.080	0.130
-626.463	-1.040	0.049	-0.035
-625.449	-83.748	-0.241	0.077
-624.434	-13.766	-0.201	-0.130
-623.419	293.782	0.036	-0.066
-622.405	-174.105	-0.103	0.003
-621.390	278.445	-0.074	0.131
-620.376	12.016	-0.239	-0.184
-619.361	-57.876	0.123	0.054
-618.346	800.000	-0.049	-0.201
-617.332	-200.000	0.012	-0.152
-616.317	184.483	-0.250	-0.370
-615.303	72.717	-0.088	-0.092
-614.288	-200.000	0.000	0.117
-613.273	-200.000	-0.001	0.056
-612.259	264.605	-0.154	-0.268
-611.244	493.862	-0.078	0.178
-610.230	-117.578	-0.341	-0.062
-609.215	-117.758	-0.137	0.025
-608.201	481.610	0.102	-0.231
-607.186	-62.114	-0.192	-0.080
-606.171	-187.175	0.351	0.005
-605.157	-28.969	-0.087	-0.050
-604.142	800.000	-0.067	-0.200
-603.128	195.465	0.080	-0.121
-602.113	150.165	0.053	0.071
-601.098	-74.566	-0.130	-0.047
-600.084	-66.298	0.575	0.228
-599.069	-71.737	0.213	-0.079
-598.055	42.035	0.204	0.185
-597.040	-130.892	-0.300	0.040
-596.025	-1.820	0.205	-0.144
-595.011	-102.765	0.204	-0.048
-593.996	-200.000	0.047	-0.427
-592.982	383.528	-0.197	-0.404
-591.967	-182.498	-0.301	0.006
-590.952	398.734	-0.158	0.329
-589.938	160.997	0.097	-0.135
-588.923	-48.357	-0.330	-0.159
-587.909	800.000	-0.056	-0.162
-586.894	493.473	0.013	0.031
-585.879	247.291	0.013	0.022
-584.865	-96.733	-0.066	-0.017
-583.850	-90.331	-0.247	0.071
-582.836	-73.033	0.101	-0.037
-581.821	-52.320	0.369	0.170
-580.806	87.335	-0.105	-0.116
-579.792	-136.927	0.247	0.028
-578.777	800.000	0.101	-0.329
-577.763	-200.000	0.002	-0.030
-576.748	101.711	-0.313	0.364
-575.733	-200.000	0.029	0.216
-574.719	-28.101	-0.034	0.019
-573.704	-33.508	0.097	-0.053
-572.690	-200.000	0.096	0.427
-571.675	321.502	0.048	0.091
-570.661	-200.000	-0.018	-0.137
-569.646	-200.000	-0.041	-0.301
-568.631	-107.571	-0.118	0.026
-567.617	25.298	-0.126	0.104
-566.602	-40.557	-0.143	0.074
-565.588	800.000	-0.041	-0.165
-564.573	-80.852	-0.292	0.096
-563.558	16.102	-0.231	0.181
-562.544	245.594	0.155	0.260
-561.529	-25.738	-0.202	0.119
-560.515	118.606	-0.231	-0.285
-559.500	-16.461	0.172	0.109
-558.485	800.000	0.028	0.087
-557.471	405.127	0.189	0.397
-556.456	-187.407	-0.085	-0.001
-555.442	146.836	-0.258	0.346
-554.427	-39.007	-0.124	-0.065
-553.412	-27.988	-0.116	-0.067
-552.398	568.638	0.087	-0.210
-551.383	81.983	0.213	-0.230
-550.369	-139.483	0.380	0.041
-549.354	-65.177	-0.150	0.060
-548.339	-73.207	-0.117	-0.043
-547.325	-110.401	-0.383	-0.079
-546.310	77.143	0.098	-0.104
-545.296	-39.441	-0.297	0.155
-544.281	398.452	0.199	-0.415
-543.266	-81.241	0.023	-0.008
-542.252	-37.760	-0.188	0.100
-541.237	-64.541	-0.457	-0.185
-540.223	63.346	-0.119	0.118
-539.208	-47.605	0.101	0.049
-538.193	43.709	-0.338	-0.308
-537.179	-85.400	-0.233	0.072
-536.164	-160.655	-0.271	-0.014
-535.150	800.000	0.038	-0.152
-534.135	733.688	0.096	0.255
-533.121	470.007	0.019	-0.042
-532.106	48.075	0.148	-0.138
-531.091	273.441	0.054	0.096
-530.077	-126.487	0.134	0.020
-529.062	-93.530	0.176	0.048
-528.048	20.966	-0.059	0.048
-527.033	-200.000	-0.038	0.475
-526.018	-200.000	0.041	0.272
-525.004	-86.070	0.188	-0.058
-523.989	-105.233	-0.089	-0.020
-522.975	-200.000	0.042	0.361
-521.960	178.007	0.176	-0.255
-520.945	-35.877	0.081	0.044
-519.931	-200.000	-0.079	-0.435
-518.916	43.820	-0.034	0.031
-517.902	-24.649	0.089	-0.053
-516.887	-63.212	-0.306	-0.126
-515.872	-60.820	-0.034	0.014
-514.858	-83.852	0.220	0.070
-513.843	-86.351	-0.025	0.008
-512.829	197.666	0.037	0.055
-511.814	-169.689	0.188	-0.007
-510.799	472.012	-0.195	-0.435
-509.785	-172.365	0.161	0.005
-508.770	-86.950	-0.148	-0.045
-507.756	-111.860	-0.087	-0.017
-506.741	491.597	-0.056	0.127
-505.726	-43.170	0.158	0.080
-504.712	-31.048	0.273	-0.153
-503.697	-1.938	0.151	0.106
-502.683	-68.685	0.214	-0.082
-501.668	-137.065	-0.252	0.029
-500.653	38.476	0.103	0.091
-499.639	66.774	0.212	-0.215
-498.624	800.000	-0.072	0.251
-497.610	105.718	0.258	-0.303
-496.595	52.458	-0.059	0.055
-495.581	-22.008	0.277	0.167
-494.566	0.880	0.175	0.124
-493.551	-86.331	-0.019	-0.006
-492.537	11.839	0.092	-0.070
-491.522	-8.209	0.186	-0.124
-490.508	579.322	0.082	-0.199
-489.493	303.063	0.071	0.131
-488.478	-89.694	-0.220	-0.064
-487.464	-106.359	-0.430	-0.096
-486.449	-144.874	0.154	0.014
-485.435	-80.630	0.240	0.079
-484.420	117.147	0.082	0.100
-483.405	-123.258	0.263	0.042
-482.391	231.510	-0.133	0.216
-481.376	-139.759	-0.355	0.037
-480.362	-200.000	-0.016	0.171
-479.347	2.961	0.086	0.062
-478.332	251.681	0.020	0.034
-477.318	-16.278	0.081	0.051
-476.303	-38.635	0.350	0.184
-475.289	800.000	-0.079	-0.244
-474.274	-200.000	0.027	0.221
-473.259	253.287	-0.028	-0.048
-472.245	-97.309	0.332	0.086
-471.230	-117.155	-0.146	0.026
-470.216	210.127	-0.173	-0.269
-469.201	-200.000	-0.024	-0.308
-468.186	-21.510	0.221	0.134
-467.172	124.924	-0.082	-0.102
-466.157	-200.000	0.012	0.149
-465.143	240.012	-0.083	0.137
-464.128	-153.729	-0.134	-0.009
-463.113	46.714	-0.097	-0.089
-462.099	-200.000	-0.014	0.272
-461.084	111.093	0.127	0.152
-460.070	-90.240	0.200	0.058
-459.055	115.420	0.101	-0.122
-458.040	178.113	0.157	-0.227
-457.026	367.216	0.045	0.089
-456.011	-13.826	0.064	-0.041
-454.997	-200.000	0.010	0.201
-453.982	-35.604	-0.192	-0.103
-452.968	496.108	-0.181	0.412
-451.953	100.373	-0.145	-0.167
-450.938	-49.191	-0.284	0.135
-449.924	-142.466	0.262	0.026
-448.909	-1.508	0.161	0.112
-447.895	-67.783	0.415	0.161
-446.880	-102.808	0.107	-0.025
-445.865	16.261	-0.266	-0.208
-444.851	-93.189	-0.202	-0.056
-443.836	52.284	0.254	-0.240
-442.822	-174.452	-0.092	-0.003
-441.807	-200.000	0.002	-0.254
-440.792	-112.988	-0.152	0.030
-439.778	-171.940	-0.286	0.009
-438.763	225.040	-0.079	-0.127
-437.749	-52.843	0.398	0.182
-436.734	800.000	-0.086	-0.258
-435.719	-200.000	-0.002	0.243
-434.705	16.609	-0.143	-0.112
-433.690	508.828	-0.129	0.298
-432.676	-75.925	0.183	0.064
-431.661	-142.355	-0.330	-0.032
-430.646	-200.000	-0.060	-0.278
-429.632	157.181	-0.036	-0.049
-428.617	-144.915	0.167	0.015
-427.603	639.610	-0.110	0.278
-426.588	213.932	0.176	0.276
-425.573	66.456	-0.148	-0.149
-424.559	145.256	0.082	-0.108
-423.544	-200.000	0.040	-0.338
-422.530	148.176	0.069	0.092
-421.515	-99.422	-0.125	-0.031
-420.500	344.142	-0.061	0.118
-419.486	-122.530	0.218	0.035
-418.471	-200.000	-0.034	-0.237
-417.457	800.000	0.102	-0.283
-416.442	-200.000	0.024	-0.432
-415.428	-132.811	0.198	0.025
-414.413	566.948	-0.118	-0.284
-413.398	518.560	-0.019	-0.045
-412.384	111.626	-0.104	-0.124
-411.369	-103.856	-0.337	0.078
-410.355	800.000	-0.047	0.150
-409.340	800.000	0.028	-0.102
-408.325	-75.764	0.121	-0.043
-407.311	646.354	-0.032	-0.081
-406.296	167.779	-0.162	-0.228
-405.282	-200.000	-0.007	-0.157
-404.267	40.284	0.213	0.190
-403.252	41.652	-0.069	0.062
-402.238	-74.509	-0.100	-0.036
-401.223	-200.000	0.020	0.250
-400.209	-82.849	0.110	0.035
-399.194	-200.000	-0.056	0.273
-398.179	-93.333	-0.107	-0.029
-397.165	-17.234	0.187	-0.117
-396.150	529.928	-0.132	0.309
-395.136	-200.000	0.041	-0.196
-394.121	185.884	0.199	-0.293
-393.106	-3.708	0.036	-0.025
-392.092	159.554	0.123	0.170
-391.077	201.518	0.153	0.233
-390.063	-56.150	0.445	-0.196
-389.048	-72.266	-0.302	-0.111
-388.033	75.913	-0.191	0.199
-387.019	-34.485	0.176	0.096
-386.004	-200.000	0.004	0.028
-384.990	-200.000	-0.001	-0.024
-383.975	-47.634	-0.181	-0.087
-382.960	-5.264	-0.201	-0.137
-381.946	-166.963	-0.156	-0.006
-380.931	-115.161	-0.437	-0.082
-379.917	500.014	0.158	0.361
-378.902	84.514	-0.249	-0.269
-377.888	-32.883	0.270	-0.148
-376.873	531.645	0.080	0.187
-375.858	-84.146	-0.194	-0.061
-374.844	-200.000	0.084	-0.362
-373.829	-87.623	-0.115	0.034
-372.815	165.060	0.027	-0.038
-371.800	10.260	-0.136	-0.102
-370.785	800.000	-0.067	-0.213
-369.771	8.495	-0.180	0.134
-368.756	-22.318	0.076	0.046
-367.742	-118.972	-0.148	0.026
-366.727	92.394	0.118	-0.132
-365.712	266.554	-0.153	-0.265
-364.698	-87.390	-0.189	0.057
-363.683	-28.899	-0.367	0.209
-362.669	-200.000	-0.023	-0.239
-361.654	-200.000	-0.030	-0.134
-360.639	-125.290	-0.158	0.024
-359.625	797.989	-0.069	0.188
-358.610	-116.188	0.137	0.025
-357.596	-14.001	-0.081	-0.052
-356.581	4.581	0.127	0.092
-355.566	800.000	0.085	-0.288
-354.552	234.190	0.141	0.229
-353.537	-200.000	0.016	0.235
-352.523	800.000	0.043	-0.146
-351.508	645.776	-0.092	-0.231
-350.493	-200.000	0.011	-0.103
-349.479	800.000	0.134	0.389
-348.464	800.000	0.043	0.156
-347.450	545.172	0.077	-0.183
-346.435	126.579	-0.052	-0.064
-345.420	-68.796	-0.284	0.108
-344.406	62.333	0.130	0.129
-343.391	213.007	0.042	-0.066
-342.377	69.711	0.255	0.259
-341.362	136.041	0.126	-0.162
-340.348	-56.578	0.333	0.146
-339.333	49.627	-0.206	-0.192
-338.318	-167.585	0.039	0.002
-337.304	-200.000	-0.036	0.368
-336.289	385.100	0.104	0.213
-335.275	-1.966	0.288	0.200
-334.260	779.327	-0.078	-0.211
-333.245	-53.200	0.418	0.189
-332.231	-200.000	0.013	-0.404
-331.216	800.000	-0.037	-0.138
-330.202	-74.206	-0.266	0.095
-329.187	-97.565	0.015	-0.004
-328.172	-130.203	-0.249	-0.033
-327.158	-100.950	-0.144	0.035
-326.143	-200.000	-0.006	-0.106
-325.129	-105.093	0.255	-0.057
-324.114	-197.929	-0.308	0.002
-323.099	-93.909	-0.071	-0.019
-322.085	-83.163	-0.248	0.079
-321.070	573.821	-0.080	-0.193
-320.056	-71.165	0.299	-0.111
-319.041	131.252	-0.065	-0.082
-318.026	-32.101	0.192	0.106
-317.012	7.388	0.264	0.195
-315.997	487.036	-0.090	0.202
-314.983	241.953	0.132	0.218
-313.968	-86.392	-0.040	-0.012
-312.953	-74.085	-0.353	-0.126
-311.939	74.078	0.010	-0.010
-310.924	-155.079	0.246	0.016
-309.910	-126.379	0.331	0.049
-308.895	800.000	-0.086	-0.267
-307.880	-19.509	-0.209	0.128
-306.866	-200.000	-0.044	0.410
-305.851	70.022	-0.143	-0.146
-304.837	800.000	-0.069	0.190
-303.822	-115.256	0.100	0.019
-302.807	189.274	0.202	0.299
-301.793	200.070	-0.109	-0.165
-300.778	144.907	0.116	0.153
-299.764	461.248	-0.007	-0.016
-298.749	-200.000	0.005	-0.051
-297.735	-83.133	0.119	0.038
-296.720	-117.991	0.232	0.041
-295.705	-200.000	-0.036	0.188
-294.691	-55.877	0.225	-0.099
-293.676	-200.000	0.012	0.075
-292.662	-50.960	-0.134	0.062
-291.647	-177.945	-0.096	0.002
-290.632	-38.997	-0.145	0.075
-289.618	220.367	0.244	0.386
-288.603	-200.000	0.040	0.256
-287.589	127.105	-0.163	0.204
-286.574	-200.000	-0.042	-0.227
-285.559	53.557	0.024	-0.022
-284.545	11.432	0.128	0.096
-283.530	-200.000	-0.031	0.210
-282.516	-195.129	-0.053	-0.000
-281.501	2.689	0.068	0.049
-280.486	-44.042	-0.417	0.206
-279.472	69.475	-0.105	-0.106
-278.457	56.480	0.155	0.149
-277.443	153.017	0.202	-0.273
-276.428	-185.780	0.214	0.003
-275.413	131.847	0.117	0.148
-274.399	-200.000	0.007	0.160
-273.384	763.714	-0.058	0.154
-272.370	476.532	0.208	0.462
-271.355	-200.000	0.050	0.268
-270.340	165.749	0.039	0.054
-269.326	-76.287	-0.158	-0.055
-268.311	18.041	0.066	0.052
-267.297	-149.433	0.198	0.015
-266.282	106.110	0.168	0.196
-265.267	-165.420	0.032	0.001
-264.253	-120.593	-0.152	0.025
-263.238	-56.668	-0.192	0.084
-262.224	5.641	0.108	0.079
-261.209	800.000	0.058	-0.237
-260.195	-137.142	0.065	0.007
-259.180	-9.722	-0.122	-0.080
-258.165	423.173	-0.165	-0.349
-257.151	463.407	0.020	0.043
-256.136	358.027	0.268	0.526
-255.122	-200.000	0.050	-0.235
-254.107	-20.938	-0.260	0.157
-253.092	392.473	-0.192	0.393
-252.078	800.000	-0.021	0.059
-251.063	800.000	0.059	-0.235
-250.049	-200.000	0.027	-0.292
-249.034	223.541	0.103	0.164
-248.019	-200.000	0.032	0.300
-247.005	19.342	0.082	0.065
-245.990	-200.000	0.038	0.221
-244.976	348.624	0.073	-0.142
-243.961	-200.000	0.064	-0.298
-242.946	-126.897	-0.064	0.009
-241.932	48.443	-0.139	0.128
-240.917	179.309	0.108	0.155
-239.903	-2.882	0.119	-0.082
-238.888	217.468	-0.136	-0.213
-237.873	-26.934	0.226	-0.130
-236.859	800.000	-0.036	0.099
-235.844	270.457	0.141	0.243
-234.830	705.100	0.066	-0.171
-233.815	227.831	0.043	-0.069
-232.800	-119.612	-0.405	0.069
-231.786	14.341	-0.311	-0.238
-230.771	74.265	-0.235	-0.243
-229.757	-20.584	-0.140	0.084
-228.742	-91.888	0.107	-0.030
-227.727	-200.000	-0.043	-0.216
-226.713	800.000	-0.076	0.266
-225.698	35.207	0.227	0.196
-224.684	170.710	0.338	-0.477
-223.669	-65.640	0.113	-0.044
-222.655	-21.271	0.297	0.178
-221.640	800.000	-0.042	0.157
-220.625	26.436	-0.105	0.086
-219.611	800.000	-0.066	-0.204
-218.596	38.155	0.363	-0.318
-217.582	51.191	0.086	0.080
-216.567	800.000	-0.024	-0.075
-215.552	-97.379	-0.320	-0.082
-214.538	-200.000	-0.013	-0.058
-213.523	277.783	0.088	0.154
-212.509	-100.799	-0.320	0.077
-211.494	800.000	-0.039	0.155
-210.479	33.093	0.191	-0.162
-209.465	-200.000	0.003	-0.200
-208.450	765.061	-0.067	-0.178
-207.436	-65.782	-0.107	-0.042
-206.421	4.337	0.030	-0.022
-205.406	-27.336	0.307	0.176
-204.392	-108.336	-0.378	-0.080
-203.377	-57.004	-0.186	-0.081
-202.363	166.864	0.202	0.281
-201.348	-200.000	0.009	0.093
-200.333	-68.726	0.242	-0.092
-199.319	-162.027	0.142	0.007
-198.304	169.995	-0.105	-0.147
-197.290	16.162	-0.265	0.205
-196.275	-17.774	0.139	-0.086
-195.260	-200.000	0.002	-0.047
-194.246	-40.901	0.214	0.109
-193.231	251.534	0.256	-0.428
-192.217	24.596	0.146	0.119
-191.202	800.000	0.059	-0.164
-190.187	-200.000	0.032	-0.405
-189.173	15.026	0.158	-0.121
-188.158	265.078	0.211	0.361
-187.144	370.419	-0.099	-0.197
-186.129	-79.036	0.218	-0.073
-185.114	-200.000	0.040	-0.196
-184.100	14.421	-0.350	0.268
-183.085	38.379	-0.183	-0.160
-182.071	12.763	0.034	0.026
-181.056	-57.047	-0.227	-0.098
-180.042	96.209	0.215	-0.242
-179.027	-87.589	0.254	-0.075
-178.012	233.892	-0.069	-0.111
-176.998	66.107	-0.091	0.090
-175.983	20.526	-0.285	0.226
-174.969	800.000	0.087	0.292
-173.954	17.032	-0.160	0.125
-172.939	154.125	-0.191	0.258
-171.925	304.817	0.136	0.248
-170.910	800.000	-0.060	0.170
-169.896	800.000	0.081	0.329
-168.881	796.545	0.049	-0.134
-167.866	538.854	-0.026	0.061
-166.852	26.522	0.409	-0.336
-165.837	-27.721	-0.631	-0.359
-164.823	-31.310	0.080	-0.044
-163.808	-53.418	0.299	-0.134
-162.793	-53.760	0.196	0.088
-161.779	14.679	-0.114	-0.087
-160.764	503.946	0.029	-0.065
-159.750	-146.354	-0.162	-0.014
-158.735	-200.000	-0.009	0.074
-157.720	79.086	0.212	0.222
-156.706	461.987	-0.089	-0.196
-155.691	-35.137	0.267	0.143
-154.677	117.988	0.110	-0.133
-153.662	-71.010	0.096	-0.035
-152.647	140.611	0.267	0.345
-151.633	-151.970	-0.337	-0.024
-150.618	-200.000	0.008	-0.444
-149.604	140.276	-0.098	0.127
-148.589	46.753	-0.158	0.144
-147.574	133.066	0.171	-0.216
-146.560	-200.000	-0.012	-0.160
-145.545	361.231	-0.110	-0.215
-144.531	-200.000	0.022	-0.101
-143.516	-91.013	0.141	0.040
-142.502	-200.000	0.011	0.189
-141.487	-23.446	0.157	-0.093
-140.472	-200.000	-0.033	0.362
-139.458	-200.000	-0.020	0.214
-138.443	-111.325	0.412	0.082
-137.429	-32.601	0.200	-0.109
-136.414	800.000	0.056	0.185
-135.399	-200.000	-0.003	0.195
-134.385	800.000	0.081	-0.297
-133.370	800.000	-0.147	0.445
-132.356	-199.840	-0.160	0.001
-131.341	14.455	-0.147	-0.112
-130.326	34.943	0.401	0.344
-129.312	-34.534	0.169	-0.091
-128.297	358.466	0.055	0.107
-127.283	-200.000	0.005	0.026
-126.268	52.196	-0.105	-0.098
-125.253	7.920	-0.016	0.012
-124.239	425.075	0.097	0.205
-123.224	-200.000	-0.012	0.270
-122.210	331.112	-0.068	0.128
-121.195	24.057	0.150	0.121
-120.180	-81.370	0.085	0.027
-119.166	-155.854	0.033	-0.002
-118.151	-106.324	-0.073	0.016
-117.137	-77.656	-0.317	-0.107
-116.122	-4.614	0.253	0.171
-115.107	-31.906	0.023	0.013
-114.093	800.000	0.069	0.209
-113.078	-26.555	-0.102	0.058
-112.064	-60.335	0.029	0.012
-111.049	588.208	-0.117	0.283
-110.034	54.952	0.202	0.191
-109.020	-143.793	0.453	-0.042
-108.005	-4.208	-0.178	0.120
-106.991	80.645	-0.082	-0.086
-105.976	576.445	0.150	-0.359
-104.962	-200.000	-0.035	-0.339
-103.947	238.556	-0.070	-0.114
-102.932	524.628	-0.200	0.459
-101.918	-200.000	-0.020	-0.093
-100.903	-116.181	0.183	0.033
-99.889	-1.786	0.242	0.167
-98.874	-113.330	-0.185	-0.036
-97.859	-43.303	0.183	0.090
-96.845	-28.515	0.244	0.138
-95.830	-82.561	0.108	-0.034
-94.816	-69.814	-0.353	0.132
-93.801	-144.252	0.053	-0.005
-92.786	131.423	0.104	-0.131
-91.772	456.958	0.058	0.125
-90.757	-1.808	0.282	-0.194
-89.743	284.893	-0.102	0.180
-88.728	167.656	0.066	0.092
-87.713	-200.000	0.032	0.249
-86.699	464.721	0.054	0.119
-85.684	800.000	-0.049	0.148
-84.670	-88.080	0.024	0.007
-83.655	9.516	0.147	-0.109
-82.640	800.000	0.066	0.195
-81.626	4.655	-0.492	0.353
-80.611	583.234	0.080	-0.193
-79.597	-4.049	0.310	-0.210
-78.582	-52.475	-0.189	-0.085
-77.567	-200.000	-0.005	0.208
-76.553	246.469	0.190	-0.313
-75.538	-27.443	0.119	-0.068
-74.524	149.196	-0.209	-0.277
-73.509	-65.113	0.196	0.077
-72.494	-200.000	0.027	0.247
-71.480	-38.786	0.131	-0.067
-70.465	652.573	0.047	-0.117
-69.451	83.939	-0.043	0.046
-68.436	206.363	-0.090	-0.137
-67.422	8.740	0.500	-0.368
-66.407	-200.000	-0.009	-0.356
-65.392	-49.876	-0.156	0.072
-64.378	5.659	0.091	0.066
-63.363	-53.940	0.164	-0.073
-62.349	-36.876	-0.144	0.076
-61.334	12.422	-1.271	-0.957
-60.319	23.881	0.575	0.463
-59.305	800.000	-0.366	-1.086
-58.290	201.740	0.830	1.250
-57.276	800.000	0.385	1.538
-56.261	-200.000	117.238	652.351
-55.246	499.914	1547.602	3485.658
-54.232	175.440	2714.464	3842.857
-53.217	104.410	2171.166	2496.130
-52.203	36.846	1688.758	1457.879
-51.188	29.553	1504.588	1249.701
-50.173	27.367	1479.542	1214.282
-49.159	49.893	1541.001	1419.004
-48.144	48.368	1554.978	1421.423
-47.130	29.596	1510.185	1254.438
-46.115	26.707	1494.663	1222.047
-45.100	26.454	1491.498	1217.707
-44.086	26.367	1489.609	1215.531
-43.071	26.405	1487.395	1213.934
-42.057	26.346	1486.060	1212.400
-41.042	26.452	1484.715	1211.962
-40.027	26.381	1483.381	1210.353
-39.013	26.285	1482.162	1208.667
-37.998	26.384	1480.592	1208.000
-36.984	26.461	1479.577	1207.638
-35.969	26.389	1478.579	1206.294
-34.954	26.387	1476.826	1204.807
-33.940	26.366	1475.578	1203.596
-32.925	26.415	1474.339	1202.863
-31.911	26.394	1472.975	1201.567
-30.896	26.421	1471.697	1200.654
-29.881	26.393	1470.477	1199.428
-28.867	26.396	1469.021	1198.208
-27.852	26.388	1468.074	1197.339
-26.838	26.305	1466.931	1195.808
-25.823	26.467	1465.140	1195.371
-24.809	26.521	1463.449	1194.299
-23.794	26.398	1462.115	1192.357
-22.779	26.467	1460.472	1191.418
-21.765	26.444	1459.770	1190.647
-20.750	26.472	1458.514	1189.760
-19.736	26.451	1457.852	1189.038
-18.721	26.445	1456.672	1187.987
-17.706	26.429	1455.021	1186.488
-16.692	26.394	1454.518	1185.801
-15.677	26.324	1453.822	1184.732
-14.663	26.416	1452.387	1184.115
-13.648	26.315	1451.672	1182.827
-12.633	26.324	1450.566	1181.933
-11.619	26.329	1449.938	1181.406
-10.604	26.431	1448.244	1180.649
-9.590	26.368	1447.815	1179.839
-8.575	26.338	1447.363	1179.232
-7.560	26.430	1445.588	1178.339
-6.546	26.421	1445.377	1178.061
-5.531	26.347	1444.640	1176.930
-4.517	26.328	1443.626	1175.935
-3.502	26.366	1442.453	1175.176
-2.487	26.372	1441.388	1174.303
-1.473	26.293	1440.464	1172.990
-0.458	26.394	1439.097	1172.483
0.556	28.085	1428.988	1161.011
1.571	24.808	1404.832	1120.792
2.586	21.254	1346.139	1052.494
3.600	19.580	1265.164	979.608
4.615	18.448	1220.879	939.037
5.629	16.398	1164.765	885.066
6.644	9.905	1084.235	792.045
7.659	4.885	1047.950	741.623
8.673	4.243	1042.613	734.737
9.688	4.024	1038.742	730.911
10.702	3.902	1037.482	729.387
11.717	4.032	1035.096	728.254
12.731	6.463	1037.041	741.001
13.746	13.574	1046.912	781.646
14.761	20.098	1055.433	818.869
15.775	22.290	1057.367	830.657
16.790	21.970	1056.358	828.285
17.804	21.056	1054.458	822.412
18.819	20.229	1052.846	817.186
19.834	19.812	1051.316	813.966
20.848	19.777	1050.916	813.421
21.863	19.970	1050.070	813.600
22.877	19.774	1049.489	812.160
23.892	19.521	1048.841	810.397
24.907	19.337	1048.396	809.117
25.921	19.370	1046.901	808.050
26.936	19.339	1046.519	807.537
27.950	19.265	1045.640	806.438
28.965	19.356	1044.805	806.152
29.980	19.484	1043.004	805.286
30.994	19.630	1042.146	805.235
32.009	19.808	1041.328	805.358
33.023	19.922	1040.732	805.355
34.038	19.677	1040.577	804.028
35.053	19.695	1039.283	803.040
36.067	19.419	1038.114	800.783
37.082	19.450	1037.163	800.122
38.096	19.318	1037.363	799.596
39.111	19.563	1035.777	799.434
40.126	19.612	1035.479	799.360
41.140	19.690	1033.672	798.257
42.155	19.257	1032.156	795.019
43.169	19.080	1031.326	793.494
44.184	19.012	1029.966	792.064
45.199	18.822	1029.332	790.630
46.213	18.882	1028.658	790.320
47.228	19.035	1028.131	790.549
48.242	19.375	1027.063	791.217
49.257	19.458	1026.350	790.979
50.271	19.498	1025.085	790.113
51.286	19.457	1024.575	789.464
52.301	19.655	1023.830	789.724
53.315	19.598	1023.199	788.908
54.330	19.419	1022.121	787.194
55.344	19.269	1021.496	785.958
56.359	19.293	1020.181	784.986
57.374	19.172	1019.466	783.814
58.388	19.293	1018.586	783.619
59.403	19.101	1017.724	782.014
60.417	19.011	1016.914	780.913
61.432	18.950	1016.464	780.222
62.447	18.988	1015.738	779.771
63.461	18.855	1015.005	778.536
64.476	18.812	1014.048	777.535
65.490	18.786	1012.659	776.286
66.505	18.669	1012.373	775.466
67.520	18.794	1010.980	774.899
68.534	18.852	1010.835	774.979
69.549	18.811	1010.089	774.156
70.563	18.908	1008.746	773.491
71.578	18.708	1008.274	772.160
72.593	18.490	1007.217	770.307
73.607	18.444	1005.643	768.826
74.622	18.447	1005.016	768.292
75.636	18.524	1004.462	768.146
76.651	18.652	1003.454	767.878
77.666	18.608	1002.970	767.243
78.680	18.690	1002.189	766.946
79.695	18.719	1001.923	766.803
80.709	18.607	1001.422	765.853
81.724	18.821	1000.515	766.045
82.739	19.062	999.672	766.407
83.753	19.110	999.195	766.187
84.768	19.343	998.810	766.861
85.782	19.621	998.390	767.706
86.797	19.879	997.590	768.170
87.812	19.850	996.688	767.278
88.826	19.739	996.045	766.223
89.841	19.602	995.007	764.749
90.855	19.693	994.252	764.504
91.870	19.707	993.708	764.077
92.884	19.891	992.838	764.157
93.899	19.793	992.623	763.489
94.914	19.849	991.451	762.766
95.928	19.892	990.790	762.380
96.943	19.944	989.797	761.781
97.957	19.768	988.638	760.046
98.972	19.649	987.862	758.859
99.987	19.664	987.698	758.734
101.001	19.684	987.177	758.351
102.016	19.768	985.900	757.672
103.030	19.714	984.982	756.662
104.045	19.621	984.450	755.782
105.060	19.750	983.210	755.325
106.074	19.647	981.978	753.861
107.089	19.342	981.236	751.895
108.103	19.070	979.892	749.617
109.118	18.951	978.948	748.311
110.133	18.962	977.914	747.501
111.147	18.901	976.960	746.439
112.162	18.780	975.951	745.077
113.176	18.929	975.042	744.964
114.191	18.963	974.356	744.519
115.206	19.080	974.260	744.889
116.220	19.062	973.283	743.999
117.235	18.948	972.292	742.682
118.249	18.975	971.724	742.298
119.264	19.027	970.251	741.331
120.279	18.903	969.814	740.401
121.293	18.796	968.979	739.236
122.308	18.665	967.846	737.744
123.322	18.503	967.425	736.659
124.337	18.439	966.251	735.425
125.352	18.603	964.510	734.738
126.366	18.502	963.863	733.750
127.381	18.547	962.839	733.095
128.395	18.549	962.175	732.533
129.410	18.537	961.124	731.617
130.424	18.591	960.528	731.332
131.439	18.726	959.490	731.050
132.454	18.916	958.930	731.369
133.468	18.887	958.550	730.890
134.483	18.994	957.498	730.479
135.497	19.007	957.047	730.124
136.512	19.096	956.216	729.801
137.527	19.004	955.823	729.050
138.541	19.015	954.962	728.375
139.556	19.058	953.987	727.748
140.570	19.095	953.350	727.355
141.585	19.169	952.647	727.064
142.600	19.426	952.493	727.966
143.614	19.617	951.884	728.244
144.629	19.469	951.660	727.385
145.643	19.745	950.322	727.458
146.658	19.714	949.479	726.617
147.673	19.474	948.102	724.493
148.687	19.369	947.048	723.181
149.702	19.176	946.303	721.741
150.716	19.064	945.293	720.439
151.731	18.962	944.538	719.373
152.746	19.087	943.724	719.212
153.760	19.156	942.939	718.837
154.775	19.270	942.131	718.632
155.789	19.287	941.756	718.355
156.804	19.358	940.797	717.856
157.819	19.365	939.850	717.097
158.833	19.372	939.740	716.979
159.848	19.649	938.900	717.426
160.862	19.765	938.428	717.482
161.877	19.738	937.490	716.589
162.892	19.355	936.321	714.047
163.906	19.072	935.083	711.870
164.921	19.039	934.364	711.121
165.935	19.022	933.107	710.033
166.950	19.188	932.418	710.129
167.964	19.300	931.786	710.047
168.979	19.229	930.768	708.917
169.994	19.136	929.587	707.573
171.008	19.147	928.718	706.893
172.023	19.284	927.650	706.580
173.037	19.510	927.318	707.192
174.052	19.670	927.040	707.571
175.067	19.547	926.582	706.657
176.081	19.260	925.511	704.604
177.096	19.153	924.090	703.022
178.110	18.986	923.477	701.813
179.125	19.117	922.923	701.864
180.140	19.159	922.274	701.478
181.154	19.336	921.083	701.230
182.169	19.362	920.959	701.180
183.183	19.419	920.890	701.296
184.198	19.511	920.042	700.964
185.213	19.627	919.225	700.751
186.227	19.638	918.958	700.531
187.242	19.514	918.820	699.857
188.256	19.774	917.476	699.826
189.271	19.907	917.031	699.961
190.286	19.887	916.166	699.158
191.300	19.496	915.779	697.222
192.315	18.986	914.530	694.153
193.329	18.813	913.684	692.753
194.344	18.978	912.809	692.692
195.359	19.147	912.464	693.048
196.373	19.148	912.069	692.690
197.388	19.287	911.552	692.795
198.402	19.627	911.157	693.802
199.417	19.787	911.072	694.318
200.432	19.921	910.995	694.735
201.446	20.096	910.219	694.784
202.461	20.160	910.004	694.814
203.475	20.296	909.592	694.981
204.490	20.103	909.079	693.757
205.504	19.814	907.670	691.463
206.519	19.764	906.534	690.338
207.534	19.867	905.588	689.967
208.548	19.636	905.167	688.663
209.563	19.750	904.397	688.474
210.577	19.680	903.754	687.642
211.592	19.765	903.307	687.579
212.607	20.088	902.579	688.247
213.621	20.167	902.409	688.370
214.636	20.072	901.667	687.369
215.650	19.974	900.400	685.952
216.665	19.930	900.270	685.618
217.680	19.935	900.097	685.444
218.694	20.248	899.544	686.201
219.709	20.314	899.106	686.070
220.723	20.218	898.298	685.014
221.738	20.090	897.559	683.882
222.753	20.086	896.894	683.299
223.767	19.867	896.228	681.870
224.782	20.039	895.542	681.965
225.796	20.235	894.812	682.120
226.811	20.332	894.071	681.876
227.826	20.118	893.595	680.613
228.840	20.029	892.606	679.450
229.855	19.979	891.818	678.595
230.869	20.080	891.277	678.516
231.884	19.865	890.720	677.192
232.899	19.823	889.810	676.276
233.913	19.765	889.308	675.606
234.928	19.681	888.423	674.545
235.942	19.606	888.052	673.915
236.957	19.648	887.213	673.379
237.972	19.481	886.556	672.171
238.986	19.754	885.698	672.522
240.001	19.602	885.087	671.411
241.015	19.674	884.614	671.270
242.030	19.686	884.337	671.050
243.045	19.884	883.298	670.970
244.059	19.847	883.113	670.627
245.074	19.986	882.491	670.633
246.088	19.955	881.780	669.911
247.103	20.065	881.686	670.206
248.117	20.169	881.108	670.112
249.132	20.465	880.386	670.643
250.147	20.542	880.643	671.080
251.161	20.958	879.723	671.922
252.176	20.983	879.246	671.593
253.190	20.974	878.468	670.908
254.205	21.069	878.271	671.061
255.220	21.242	877.642	671.188
256.234	21.130	876.714	669.989
257.249	21.041	876.145	669.152
258.263	20.875	876.023	668.363
259.278	21.053	874.871	668.107
260.293	21.017	874.506	667.629
261.307	21.143	873.276	667.114
262.322	21.151	873.480	667.241
263.336	21.217	872.777	666.896
264.351	21.313	872.480	666.978
265.366	20.979	872.260	665.478
266.380	21.197	871.715	665.834
267.395	21.210	870.529	664.920
268.409	21.127	869.800	663.988
269.424	20.974	868.913	662.668
270.439	20.983	867.990	661.940
271.453	20.847	867.632	661.091
272.468	20.891	866.792	660.560
273.482	20.696	866.478	659.524
274.497	20.689	865.705	658.853
275.512	20.908	864.606	658.785
276.526	20.774	863.783	657.594
277.541	20.598	863.546	656.689
278.555	20.875	862.906	657.190
279.570	20.929	862.856	657.299
280.585	21.076	862.545	657.555
281.599	21.195	861.890	657.448
282.614	21.186	860.804	656.529
283.628	20.801	860.323	654.656
284.643	20.866	859.592	654.285
285.657	20.867	859.108	653.862
286.672	20.796	858.656	653.195
287.687	20.860	857.876	652.782
288.701	20.960	857.664	652.937
289.716	21.021	856.865	652.499
290.730	20.899	856.363	651.605
291.745	20.973	856.385	651.839
292.760	21.020	855.027	650.924
293.774	20.979	854.763	650.513
294.789	21.456	854.272	651.858
295.803	21.325	853.812	650.962
296.818	21.071	852.992	649.336
297.833	20.899	851.966	647.858
298.847	21.086	851.299	647.985
299.862	20.947	850.794	647.030
300.876	21.002	850.599	647.028
301.891	21.193	849.889	647.137
302.906	21.482	849.395	647.774
303.920	21.357	848.890	646.871
304.935	21.439	848.783	647.034
305.949	21.874	847.787	647.825
306.964	21.674	846.986	646.419
307.979	21.476	846.475	645.239
308.993	21.350	846.307	644.589
310.008	21.427	845.471	644.179
311.022	21.490	845.211	644.158
312.037	21.514	844.671	643.776
313.052	21.381	844.147	642.833
314.066	21.098	843.075	640.919
315.081	20.940	842.330	639.716
316.095	20.944	841.847	639.309
317.110	20.943	841.484	638.970
318.125	20.878	840.593	638.001
319.139	20.856	840.258	637.610
320.154	21.062	839.328	637.599
321.168	20.994	839.232	637.222
322.183	21.121	838.906	637.384
323.197	21.077	838.431	636.805
324.212	21.246	837.408	636.586
325.227	21.080	837.139	635.720
326.241	21.072	836.816	635.392
327.256	21.103	836.256	635.021
328.270	21.014	835.599	634.145
329.285	20.990	834.656	633.286
330.300	21.028	834.308	633.102
331.314	21.058	833.446	632.501
332.329	21.157	833.339	632.724
333.343	21.410	832.412	632.879
334.358	21.411	832.228	632.689
335.373	21.510	831.808	632.669
336.387	21.364	831.318	631.714
337.402	21.594	830.534	631.893
338.416	21.668	830.302	631.926
339.431	21.719	830.075	631.880
340.446	22.022	829.414	632.413
341.460	22.182	828.763	632.439
342.475	22.033	828.555	631.686
343.489	22.257	827.695	631.782
344.504	22.129	827.545	631.151
345.519	22.241	827.207	631.238
346.533	22.224	827.302	631.195
347.548	22.283	826.066	630.406
348.562	21.970	825.547	628.833
349.577	21.787	824.745	627.511
350.592	21.572	823.944	626.080
351.606	21.430	823.282	625.013
352.621	21.435	822.958	624.730
353.635	21.392	822.666	624.297
354.650	21.680	821.994	624.762
355.665	21.742	821.641	624.656
356.679	21.657	821.440	624.146
357.694	21.863	820.567	624.160
358.708	21.869	820.444	624.035
359.723	21.772	819.650	623.031
360.738	21.779	819.053	622.548
361.752	21.675	818.650	621.814
362.767	21.846	818.304	622.105
363.781	22.028	818.141	622.572
364.796	22.190	817.916	622.918
365.810	22.375	817.419	623.141
366.825	22.458	816.967	623.034
367.840	22.560	816.551	623.021
368.854	22.540	816.357	622.747
369.869	22.302	815.896	621.502
370.883	22.081	815.182	620.122
371.898	22.171	814.099	619.560
372.913	22.343	813.987	620.027
373.927	22.427	813.581	619.958
374.942	22.502	812.434	619.292
375.956	22.213	812.126	617.987
376.971	22.351	811.644	618.053
377.986	22.634	810.900	618.424
379.000	22.722	810.819	618.613
380.015	22.903	809.835	618.444
381.029	22.652	809.548	617.291
382.044	22.492	809.453	616.603
383.059	22.480	808.321	615.646
384.073	22.599	808.117	615.849
385.088	22.488	806.959	614.527
386.102	22.367	806.345	613.582
387.117	22.097	805.802	612.174
388.132	22.218	805.236	612.110
389.146	22.139	805.030	611.627
390.161	22.263	804.651	611.714
391.175	22.444	804.588	612.243
392.190	22.399	804.355	611.854
393.205	22.357	803.974	611.363
394.219	22.453	802.652	610.636
395.234	22.216	802.254	609.461
396.248	21.995	801.559	608.112
397.263	21.993	801.306	607.861
398.278	21.841	800.403	606.594
399.292	21.811	800.295	606.357
400.307	21.860	800.090	606.316
401.321	21.925	799.534	606.065
402.336	21.927	798.889	605.529
403.350	22.127	798.537	605.899
404.365	22.164	798.679	606.080
405.380	22.534	798.012	606.795
406.394	22.672	797.746	607.014
407.409	22.778	797.366	607.037
408.423	22.823	796.899	606.782
409.438	22.962	796.362	606.797
410.453	23.009	795.984	606.618
411.467	22.870	795.879	606.006
412.482	23.093	795.369	606.330
413.496	22.983	795.190	605.760
414.511	23.183	794.638	605.974
415.526	23.294	793.907	605.740
416.540	23.077	793.482	604.621
417.555	22.973	793.314	604.083
418.569	22.921	792.817	603.475
419.584	23.015	792.295	603.345
420.599	22.970	791.773	602.741
421.613	165.590	1370.061	1798.056
422.628	143.655	1454.282	1798.142
