DTS Sentinel unit serial number:	SN413079Multiplexer serial number:	ORYXHardware model number:	OX4-SRSoftware version number:	ORYX F/W v4.00 Oryx Data Collector v3.7.2.0data status	okinstallation	princeton_trtdifferential loss correction	single-endedforward channel	channel 3reverse channel	N/Adate	2019/09/12time	18:33:04forward acquisition time	15.00reverse acquisition time	0.00gamma	496.2192k internal	0.2317k external	0.2317temperature offset calibration	1.0088default loss term (dB/km)	0.3790temperature slope calibration	1.0000multiplexer offset coefficient	1.0000multiplexer slope coefficient	1.0000fibre end	0.00T internal ref (°C)	33.19T ext. ref 1 (°C)	2.96T ext. ref 2 (°C)	27.76length (m)	temperature (°C)	Stokes	anti-Stokes-747.200	-45.282	0.700	0.352
-746.185	-200.000	0.092	0.476
-745.171	12.295	-0.325	-0.253
-744.156	-71.677	-0.203	0.077
-743.142	114.733	-0.190	-0.234
-742.127	112.009	-0.561	0.686
-741.112	15.457	0.675	0.536
-740.098	83.379	-0.215	0.237
-739.083	-92.907	0.469	0.133
-738.069	800.000	-0.135	0.387
-737.054	-200.000	0.051	-0.368
-736.039	-7.298	-0.384	-0.263
-735.025	198.281	0.088	-0.137
-734.010	6.802	-0.439	-0.331
-732.996	501.638	-0.227	0.531
-731.981	-17.285	0.557	0.355
-730.966	-58.695	0.263	0.115
-729.952	34.720	0.490	-0.434
-728.937	-28.749	-0.149	-0.087
-727.923	-38.098	-0.922	0.495
-726.908	114.767	-0.462	0.570
-725.894	-53.528	-0.308	0.142
-724.879	96.988	-0.455	0.528
-723.864	-200.000	-0.718	-0.003
-722.850	-21.166	-0.303	0.187
-721.835	-200.000	-0.044	0.994
-720.821	-115.369	-0.439	-0.084
-719.806	-44.149	-0.325	0.165
-718.791	-111.395	-0.264	0.054
-717.777	127.031	0.230	0.295
-716.762	222.320	-0.719	-1.170
-715.748	-54.235	0.570	-0.262
-714.733	800.000	-0.249	0.829
-713.718	-127.414	-0.432	-0.064
-712.704	-142.207	-0.485	-0.049
-711.689	93.131	0.290	-0.331
-710.675	311.284	0.149	0.283
-709.660	800.000	0.161	0.505
-708.645	78.238	0.470	-0.507
-707.631	604.945	-0.247	-0.622
-706.616	79.867	-0.061	0.066
-705.602	-152.963	-0.161	0.011
-704.587	-200.000	-0.000	0.230
-703.572	-200.000	0.056	0.849
-702.558	-18.093	-0.691	0.437
-701.543	800.000	0.109	0.309
-700.529	303.217	0.110	-0.206
-699.514	-148.905	-0.403	0.033
-698.499	-166.594	0.545	-0.023
-697.485	-126.689	-0.347	0.052
-696.470	33.827	0.237	-0.209
-695.456	-55.243	-0.688	-0.313
-694.441	26.341	-0.685	-0.578
-693.426	33.286	-0.944	0.828
-692.412	59.370	-0.613	-0.610
-691.397	24.459	0.433	-0.362
-690.383	-141.742	0.543	0.055
-689.368	540.328	0.210	-0.506
-688.354	267.915	-0.200	0.354
-687.339	126.295	0.109	0.139
-686.324	800.000	0.143	0.422
-685.310	343.716	-0.483	0.956
-684.295	-200.000	0.045	-0.478
-683.281	12.073	-0.416	-0.324
-682.266	-58.985	0.076	0.033
-681.251	-115.898	-0.388	0.073
-680.237	800.000	0.293	-0.818
-679.222	-41.326	0.632	-0.329
-678.208	22.583	-0.717	-0.593
-677.193	-22.921	0.209	-0.127
-676.178	-170.520	-0.623	-0.022
-675.164	70.624	0.143	-0.149
-674.149	-137.204	0.912	-0.105
-673.135	335.546	0.154	0.301
-672.120	800.000	0.332	-1.236
-671.105	133.206	0.212	-0.277
-670.091	-74.249	0.521	-0.190
-669.076	-59.741	-0.264	-0.114
-668.062	11.904	0.430	-0.334
-667.047	551.045	0.124	0.300
-666.032	585.409	-0.208	0.515
-665.018	-38.140	0.465	-0.249
-664.003	176.522	-0.057	-0.083
-662.989	-3.432	0.155	0.109
-661.974	138.806	0.156	0.207
-660.959	-95.298	0.101	0.027
-659.945	550.950	0.122	0.296
-658.930	173.977	0.616	0.897
-657.916	133.890	-0.508	-0.663
-656.901	87.133	-0.411	-0.459
-655.886	-200.000	0.124	0.889
-654.872	8.036	-0.510	0.386
-653.857	588.498	0.391	-0.972
-652.843	800.000	0.155	0.586
-651.828	-90.561	0.646	-0.189
-650.814	137.107	0.039	-0.052
-649.799	311.743	0.524	0.992
-648.784	-200.000	-0.002	-0.016
-647.770	-12.593	-0.796	0.524
-646.755	-200.000	0.067	0.678
-645.741	178.929	-0.211	0.310
-644.726	-58.686	-0.674	-0.295
-643.711	163.091	-0.099	-0.141
-642.697	304.175	-0.341	-0.638
-641.682	-182.604	-0.784	0.014
-640.668	800.000	0.138	-0.446
-639.653	-200.000	-0.004	0.116
-638.638	-200.000	-0.100	0.690
-637.624	-51.929	0.425	-0.199
-636.609	-200.000	-0.047	0.834
-635.595	-200.000	0.047	0.880
-634.580	-111.746	0.704	0.144
-633.565	-93.363	-0.256	-0.072
-632.551	-200.000	-0.087	0.834
-631.536	19.984	-0.379	0.308
-630.522	65.734	-0.337	0.344
-629.507	-200.000	0.018	-0.098
-628.492	-78.837	0.104	-0.036
-627.478	-59.857	-0.458	0.198
-626.463	-200.000	-0.080	-0.384
-625.449	-19.187	0.542	-0.339
-624.434	129.592	-0.441	0.568
-623.419	-30.018	-0.903	-0.518
-622.405	143.637	-0.379	0.508
-621.390	52.560	-0.307	-0.296
-620.376	29.967	0.830	0.713
-619.361	800.000	-0.305	0.893
-618.346	84.008	0.265	0.292
-617.332	24.081	0.300	0.249
-616.317	538.974	0.214	-0.513
-615.303	187.887	-0.351	0.528
-614.288	-88.069	0.753	0.228
-613.273	359.428	-0.125	-0.251
-612.259	800.000	0.191	-0.819
-611.244	83.665	0.150	-0.165
-610.230	-69.745	-0.516	0.199
-609.215	-119.767	-0.178	0.031
-608.201	27.684	-0.853	-0.723
-607.186	281.831	0.065	-0.116
-606.171	487.598	-0.203	0.468
-605.157	-113.756	0.965	0.189
-604.142	-200.000	-0.050	-0.453
-603.128	40.711	0.712	-0.646
-602.113	15.291	0.140	0.111
-601.098	89.216	0.060	0.068
-600.084	-84.348	-0.377	-0.120
-599.069	-200.000	0.038	0.754
-598.055	-94.171	-0.784	-0.216
-597.040	627.046	-0.300	0.762
-596.025	126.488	-0.517	0.659
-595.011	108.674	0.281	-0.338
-593.996	689.624	-0.277	0.729
-592.982	-200.000	-0.050	-0.397
-591.967	-200.000	-0.041	-0.337
-590.952	-30.974	0.505	-0.287
-589.938	299.165	-0.192	-0.355
-588.923	-161.381	-0.331	0.017
-587.909	165.171	-0.063	-0.090
-586.894	-125.850	-0.314	0.048
-585.879	-200.000	0.129	0.643
-584.865	-32.316	-0.583	0.328
-583.850	800.000	0.047	0.131
-582.836	728.242	0.197	-0.529
-581.821	634.433	-0.290	-0.741
-580.806	245.184	0.243	-0.412
-579.792	800.000	-0.061	-0.223
-578.777	-115.057	0.489	-0.093
-577.763	800.000	-0.136	-0.506
-576.748	-176.153	-0.512	0.014
-575.733	-1.534	-0.839	-0.595
-574.719	-82.104	-0.766	0.251
-573.704	310.681	0.469	-0.883
-572.690	800.000	0.166	-0.624
-571.675	284.342	-0.038	-0.069
-570.661	-45.809	0.671	-0.333
-569.646	764.986	0.332	0.906
-568.631	-200.000	0.052	0.550
-567.617	86.048	-0.513	-0.568
-566.602	-66.891	0.547	-0.217
-565.588	-48.795	-0.376	0.181
-564.573	800.000	0.090	-0.284
-563.558	-200.000	0.061	-0.381
-562.544	-181.862	0.410	-0.008
-561.529	-200.000	0.048	0.318
-560.515	576.697	-0.266	-0.653
-559.500	62.130	-0.680	-0.682
-558.485	307.713	0.286	-0.536
-557.471	-91.743	-0.607	0.173
-556.456	54.676	0.431	-0.418
-555.442	563.890	0.382	-0.930
-554.427	-200.000	0.074	-0.666
-553.412	156.483	0.133	0.185
-552.398	126.668	0.514	-0.654
-551.383	512.127	0.214	0.502
-550.369	-200.000	-0.112	-0.520
-549.354	-52.803	-0.283	-0.131
-548.339	-200.000	-0.071	-0.327
-547.325	324.947	0.545	-1.046
-546.310	507.672	0.208	0.484
-545.296	794.591	0.099	-0.273
-544.281	-128.612	-0.207	0.029
-543.266	-200.000	0.066	-0.299
-542.252	-32.958	1.118	0.624
-541.237	283.174	-0.240	0.433
-540.223	-200.000	0.114	-0.535
-539.208	-200.000	0.006	0.221
-538.193	-142.885	1.022	-0.100
-537.179	588.692	-0.355	-0.878
-536.164	266.629	0.027	0.047
-535.150	125.195	0.243	0.307
-534.135	444.724	0.225	-0.496
-533.121	-116.922	0.291	0.054
-532.106	800.000	-0.208	0.697
-531.091	-25.906	0.180	0.107
-530.077	48.913	-0.974	0.918
-529.062	-34.540	0.568	-0.312
-528.048	469.532	0.270	-0.608
-527.033	57.696	-0.103	0.101
-526.018	32.739	0.518	0.450
-525.004	-150.668	-0.481	0.037
-523.989	-200.000	0.047	-0.278
-522.975	146.457	0.376	0.507
-521.960	-14.095	0.167	-0.108
-520.945	251.275	0.233	-0.397
-519.931	144.270	0.221	-0.296
-518.916	-151.674	1.040	-0.077
-517.902	-180.459	0.635	0.013
-516.887	-200.000	0.223	-1.228
-515.872	800.000	-0.101	-0.320
-514.858	57.837	-0.715	0.702
-513.843	800.000	-0.210	0.652
-512.829	320.760	-0.492	-0.938
-511.814	-33.102	0.523	0.291
-510.799	-95.411	-0.406	-0.109
-509.785	237.030	0.289	-0.480
-508.770	800.000	0.041	-0.172
-507.756	214.799	0.104	0.165
-506.741	353.097	-0.203	0.403
-505.726	-171.415	0.852	-0.029
-504.712	-45.225	0.846	-0.421
-503.697	-72.977	-0.486	-0.179
-502.683	-80.226	0.946	-0.318
-501.668	172.415	-0.780	1.125
-500.653	-200.000	0.002	-0.106
-499.639	55.870	-0.483	-0.469
-498.624	-98.169	-0.823	0.212
-497.610	-42.932	0.057	-0.029
-496.595	800.000	0.144	-0.461
-495.581	-96.692	-0.668	0.176
-494.566	100.419	0.396	0.460
-493.551	800.000	-0.191	0.564
-492.537	457.785	0.112	-0.249
-491.522	378.349	0.307	-0.630
-490.508	800.000	-0.056	0.225
-489.493	-15.285	0.296	-0.190
-488.478	196.879	0.350	0.535
-487.464	-45.040	0.835	0.416
-486.449	800.000	0.008	-0.023
-485.435	-147.282	0.675	0.057
-484.420	-76.004	0.528	0.187
-483.405	-129.038	0.379	-0.053
-482.391	102.680	0.190	0.223
-481.376	-63.794	-0.551	-0.226
-480.362	149.223	0.336	0.456
-479.347	30.679	-0.230	0.197
-478.332	62.395	-0.778	0.778
-477.318	-136.993	0.659	0.076
-476.303	-200.000	-0.094	-1.191
-475.289	206.143	-0.515	-0.803
-474.274	415.089	-0.364	-0.777
-473.259	-200.000	-0.410	0.000
-472.245	-21.768	0.538	-0.328
-471.230	-72.059	0.256	0.095
-470.216	-34.630	-0.371	0.203
-469.201	-76.142	0.643	0.227
-468.186	-107.445	0.318	0.070
-467.172	-200.000	0.167	0.991
-466.157	92.524	0.170	0.193
-465.143	325.872	-0.362	-0.693
-464.128	-200.000	-0.608	0.001
-463.113	736.651	0.165	-0.443
-462.099	-60.815	0.225	0.095
-461.084	121.894	-0.289	-0.362
-460.070	28.389	-0.313	-0.265
-459.055	-200.000	-0.067	-0.447
-458.040	800.000	0.222	-0.675
-457.026	-60.736	0.601	-0.255
-456.011	-35.333	0.608	0.331
-454.997	800.000	0.135	-0.482
-453.982	267.596	-0.401	0.703
-452.968	737.317	0.094	-0.253
-451.953	800.000	-0.198	-0.556
-450.938	-143.734	-0.556	0.053
-449.924	114.991	0.393	0.480
-448.909	82.410	0.228	-0.247
-447.895	393.915	0.296	0.617
-446.880	324.891	0.200	0.383
-445.865	-100.956	-0.978	0.240
-444.851	-134.976	0.692	0.084
-443.836	-50.014	0.596	-0.283
-442.822	766.614	0.258	0.702
-441.807	369.076	0.063	-0.128
-440.792	-148.193	-0.620	-0.051
-439.778	129.881	0.211	0.270
-438.763	-200.000	0.081	-1.037
-437.749	-3.765	-0.661	0.459
-436.734	800.000	-0.150	-0.464
-435.719	-3.299	-0.424	0.296
-434.705	800.000	0.043	-0.121
-433.690	346.454	0.367	0.721
-432.676	50.311	0.990	0.936
-431.661	-168.584	0.574	-0.022
-430.646	130.581	-0.530	0.679
-429.632	45.149	0.221	0.203
-428.617	-124.650	-0.491	0.076
-427.603	91.746	-0.534	-0.600
-426.588	112.360	-0.410	-0.496
-425.573	-151.598	-1.243	-0.092
-424.559	124.892	0.235	0.296
-423.544	800.000	0.203	0.562
-422.530	74.632	-0.181	-0.191
-421.515	122.911	0.216	-0.271
-420.500	435.945	0.159	-0.345
-419.486	-200.000	-0.037	0.397
-418.471	800.000	0.123	0.501
-417.457	371.639	-0.144	0.293
-416.442	132.699	0.603	0.778
-415.428	-200.000	-0.008	0.204
-414.413	494.857	-0.338	0.775
-413.398	389.892	0.210	-0.435
-412.384	-60.725	-0.420	0.178
-411.369	-122.018	-0.481	-0.079
-410.355	800.000	-0.105	0.425
-409.340	64.869	0.489	0.493
-408.325	436.423	0.119	0.260
-407.311	-43.041	0.711	0.360
-406.296	60.717	0.701	-0.694
-405.282	385.308	-0.270	-0.556
-404.267	176.254	-0.111	0.161
-403.252	59.121	0.159	0.157
-402.238	49.005	-0.471	0.442
-401.223	-200.000	-0.035	-0.481
-400.209	-107.802	-0.338	-0.074
-399.194	356.609	0.116	0.231
-398.179	-33.193	-0.727	0.402
-397.165	-110.840	0.702	0.144
-396.150	-158.236	-0.944	0.055
-395.136	-81.834	-0.428	0.140
-394.121	-92.422	-0.241	-0.068
-393.106	767.804	0.270	-0.732
-392.092	-135.854	-1.001	0.118
-391.077	746.372	0.116	0.312
-390.063	-48.955	-0.226	0.108
-389.048	-40.739	0.857	0.443
-388.033	-55.206	0.898	0.403
-387.019	-200.000	0.027	-1.062
-386.004	800.000	0.145	0.404
-384.990	209.489	0.292	0.457
-383.975	46.963	-0.489	-0.454
-382.960	800.000	0.307	1.263
-381.946	164.338	-0.297	0.418
-380.931	-200.000	-0.008	-0.047
-379.917	800.000	-0.348	-1.039
-378.902	-200.000	0.016	0.088
-377.888	70.359	0.201	0.208
-376.873	800.000	-0.224	0.646
-375.858	-20.508	-0.427	0.262
-374.844	93.488	-0.235	0.266
-373.829	503.025	-0.047	0.107
-372.815	-21.903	0.699	0.424
-371.800	-55.334	-0.662	-0.296
-370.785	35.423	-0.518	0.454
-369.771	-125.048	0.592	0.091
-368.756	-39.609	0.188	-0.098
-367.742	104.826	-0.117	0.138
-366.727	800.000	-0.106	0.411
-365.712	-95.377	0.320	-0.086
-364.698	800.000	0.042	0.177
-363.683	336.519	0.503	-0.974
-362.669	-200.000	-0.008	-1.030
-361.654	-148.257	0.596	0.049
-360.639	720.289	0.157	-0.416
-359.625	-30.511	-0.461	0.260
-358.610	-50.027	-0.075	-0.035
-357.596	762.408	-0.106	-0.288
-356.581	800.000	-0.140	0.399
-355.566	619.879	-0.118	0.295
-354.552	800.000	0.412	1.236
-353.537	37.993	-0.637	0.565
-352.523	-92.567	-0.754	0.211
-351.508	-200.000	0.166	-0.780
-350.493	-184.552	-0.680	-0.011
-349.479	-180.672	0.652	0.013
-348.464	-107.584	0.472	0.103
-347.450	-95.542	-0.508	0.136
-346.435	-115.526	0.677	-0.127
-345.420	53.034	0.324	0.309
-344.406	260.693	0.266	0.459
-343.391	-200.000	-0.042	0.354
-342.377	-151.373	0.763	-0.057
-341.362	174.754	-0.338	-0.488
-340.348	80.083	0.274	0.294
-339.333	107.125	-0.136	0.161
-338.318	-182.316	0.425	0.008
-337.304	38.989	0.055	-0.049
-336.289	-101.615	-0.413	0.100
-335.275	-200.000	0.103	-1.093
-334.260	-200.000	0.024	0.542
-333.245	-103.592	-0.623	-0.146
-332.231	-97.001	-0.468	-0.122
-331.216	372.756	-0.186	-0.376
-330.202	114.922	-0.714	-0.868
-329.187	-200.000	0.024	-0.169
-328.172	-65.139	0.393	-0.158
-327.158	6.880	-0.751	0.557
-326.143	27.222	0.414	-0.347
-325.129	11.366	-0.452	0.345
-324.114	179.053	0.222	-0.324
-323.099	800.000	0.219	0.808
-322.085	-25.544	-0.262	0.154
-321.070	-23.421	-0.060	-0.036
-320.056	-167.870	-0.734	0.029
-319.041	-34.835	0.256	-0.139
-318.026	103.040	0.595	-0.694
-317.012	394.003	-0.322	0.667
-315.997	531.093	-0.199	-0.467
-314.983	-195.737	-0.668	0.005
-313.968	-0.805	0.241	-0.170
-312.953	-157.642	-0.785	-0.047
-311.939	33.025	0.514	-0.444
-310.924	307.201	0.074	0.138
-309.910	196.393	0.416	0.631
-308.895	800.000	0.270	-0.982
-307.880	-200.000	-0.051	0.590
-306.866	-200.000	0.079	-0.400
-305.851	-200.000	-0.179	-0.878
-304.837	375.587	0.050	0.101
-303.822	-75.900	0.374	-0.132
-302.807	32.171	-0.578	-0.496
-301.793	-200.000	-0.034	0.256
-300.778	-95.537	-0.290	-0.077
-299.764	-200.000	0.033	-0.252
-298.749	186.850	-0.110	0.163
-297.735	-181.948	0.191	0.004
-296.720	69.222	0.767	-0.785
-295.705	-4.278	0.155	-0.107
-294.691	-38.501	-0.371	-0.195
-293.676	-18.557	-0.446	0.277
-292.662	-135.877	-0.255	-0.030
-291.647	85.974	-0.410	0.449
-290.632	174.435	-0.333	0.479
-289.618	276.991	0.170	-0.301
-288.603	-45.196	0.375	0.186
-287.589	-200.000	0.121	0.742
-286.574	-167.405	0.293	-0.012
-285.559	-9.543	0.517	0.343
-284.545	-200.000	0.057	-0.556
-283.530	-81.652	-0.650	-0.212
-282.516	-129.709	0.811	-0.111
-281.501	67.115	-0.275	0.279
-280.486	-114.871	-0.022	-0.004
-279.472	-30.521	-0.502	-0.283
-278.457	276.071	-0.365	-0.643
-277.443	-136.695	0.456	0.052
-276.428	45.062	-0.608	0.557
-275.413	-145.548	-0.744	-0.066
-274.399	207.389	-0.331	-0.514
-273.384	-70.911	-0.131	0.049
-272.370	800.000	0.171	0.482
-271.355	-83.361	-0.605	0.193
-270.340	-180.228	0.313	-0.007
-269.326	-65.631	0.650	0.259
-268.311	-200.000	-0.174	1.105
-267.297	10.704	0.460	0.349
-266.282	14.098	-0.182	0.141
-265.267	-200.000	-0.100	-0.514
-264.253	-83.590	0.335	0.106
-263.238	-27.358	-0.293	-0.169
-262.224	105.309	0.476	0.558
-261.209	-8.771	-0.498	0.332
-260.195	173.055	0.313	0.448
-259.180	121.497	0.650	-0.805
-258.165	-132.917	0.584	0.074
-257.151	5.328	-0.522	0.383
-256.136	42.409	-0.690	-0.623
-255.122	-113.982	0.542	-0.104
-254.107	-11.913	-0.140	-0.091
-253.092	-108.705	0.278	0.059
-252.078	-90.014	0.482	-0.140
-251.063	-200.000	-0.053	-0.503
-250.049	-49.934	0.395	0.186
-249.034	-200.000	0.067	0.484
-248.019	269.046	0.334	-0.581
-247.005	-200.000	0.005	0.073
-245.990	145.477	0.472	0.628
-244.976	-103.402	0.658	-0.154
-243.961	-200.000	-0.046	0.432
-242.946	37.959	-0.100	-0.088
-241.932	-127.334	-0.525	0.076
-240.917	-97.509	-0.446	-0.115
-239.903	-200.000	-0.026	0.177
-238.888	-134.812	-0.356	0.043
-237.873	687.092	-0.159	-0.413
-236.859	-200.000	0.140	-0.634
-235.844	4.584	-0.329	0.240
-234.830	-200.000	0.079	-0.463
-233.815	-200.000	-0.142	-1.210
-232.800	69.039	0.123	-0.126
-231.786	49.016	0.134	-0.125
-230.771	15.927	-0.435	-0.340
-229.757	-200.000	0.075	-0.459
-228.742	471.869	0.386	0.861
-227.727	345.051	-0.143	-0.279
-226.713	-64.748	-0.159	0.064
-225.698	404.336	0.346	0.722
-224.684	-200.000	-0.132	-0.917
-223.669	-114.050	-0.358	-0.069
-222.655	-200.000	0.029	0.293
-221.640	800.000	0.114	-0.449
-220.625	520.527	0.266	0.619
-219.611	170.708	-0.249	-0.353
-218.596	-200.000	0.131	-0.687
-217.582	-121.180	0.342	0.057
-216.567	72.666	-0.470	0.486
-215.552	-82.811	-0.687	-0.220
-214.538	-104.872	0.887	-0.202
-213.523	355.589	-0.236	0.466
-212.509	-127.535	-0.683	0.098
-211.494	438.100	-0.261	0.564
-210.479	-200.000	-0.003	-0.342
-209.465	704.148	0.147	-0.386
-208.450	-8.604	0.900	-0.599
-207.436	-141.805	0.439	-0.044
-206.421	3.920	0.632	-0.458
-205.406	-164.957	0.764	0.034
-204.392	-141.394	-0.207	-0.021
-203.377	-132.857	-0.394	0.050
-202.363	-62.976	-0.771	-0.316
-201.348	-23.732	0.953	-0.566
-200.333	-4.256	-0.088	-0.060
-199.319	-124.863	-0.540	0.083
-198.304	800.000	-0.062	0.262
-197.290	36.496	-0.703	0.615
-196.275	-200.000	-0.034	-0.221
-195.260	211.081	0.320	-0.498
-194.246	626.284	0.257	-0.642
-193.231	8.656	0.336	-0.251
-192.217	-82.853	-0.499	0.160
-191.202	133.118	0.044	-0.057
-190.187	-47.738	0.390	0.187
-189.173	99.227	0.329	0.377
-188.158	-200.000	-0.086	-0.436
-187.144	759.165	0.054	-0.145
-186.129	-39.121	-0.723	-0.377
-185.114	-75.400	-0.462	0.163
-184.100	-200.000	-0.140	1.177
-183.085	-170.184	-0.734	-0.026
-182.071	-128.967	0.445	0.062
-181.056	-83.271	0.520	-0.165
-180.042	362.215	-0.249	-0.494
-179.027	-200.000	0.067	0.613
-178.012	-200.000	-0.006	0.146
-176.998	-200.000	-0.033	0.362
-175.983	73.963	0.113	0.118
-174.969	-31.842	-0.725	-0.402
-173.954	-10.606	0.254	0.166
-172.939	-200.000	0.032	-0.487
-171.925	800.000	0.127	0.432
-170.910	-161.693	0.884	0.045
-169.896	-200.000	0.016	0.208
-168.881	203.841	0.304	0.467
-167.866	800.000	0.062	0.241
-166.852	800.000	0.058	0.184
-165.837	-35.447	-0.600	0.323
-164.823	-50.239	-0.642	0.300
-163.808	70.911	-0.241	0.247
-162.793	-200.000	0.025	-0.685
-161.779	-91.561	-0.598	-0.169
-160.764	165.773	0.290	-0.406
-159.750	87.206	0.536	-0.586
-158.735	-98.797	0.136	-0.034
-157.720	-151.432	0.584	0.043
-156.706	236.032	0.336	0.549
-155.691	-78.441	-0.562	0.191
-154.677	-200.000	0.037	0.322
-153.662	-49.371	-0.285	-0.135
-152.647	800.000	-0.163	0.593
-151.633	-200.000	0.033	-0.238
-150.618	-69.258	1.083	0.412
-149.604	-200.000	-0.001	-0.161
-148.589	-81.324	-0.766	0.250
-147.574	-82.056	-0.549	-0.177
-146.560	-47.506	-0.724	-0.348
-145.545	64.616	0.629	-0.627
-144.531	-200.000	0.025	0.128
-143.516	-200.000	-0.161	-0.875
-142.502	-15.604	-0.335	-0.211
-141.487	518.846	0.455	1.053
-140.472	-106.910	0.459	0.100
-139.458	789.264	0.247	0.672
-138.443	130.091	0.173	0.219
-137.429	-53.801	0.432	-0.195
-136.414	-200.000	0.013	0.404
-135.399	202.093	-0.387	0.590
-134.385	-132.948	-0.192	-0.024
-133.370	-200.000	0.114	0.540
-132.356	286.866	0.190	0.340
-131.341	3.894	-0.320	-0.231
-130.326	-30.594	0.528	-0.296
-129.312	195.058	0.210	-0.315
-128.297	-122.274	0.866	0.140
-127.283	-150.870	-0.469	-0.035
-126.268	-200.000	-0.094	0.498
-125.253	800.000	-0.262	0.982
-124.239	-170.924	-0.680	0.023
-123.224	137.214	-0.156	-0.201
-122.210	161.428	0.083	-0.115
-121.195	88.549	-0.224	0.246
-120.180	-200.000	-0.032	-0.340
-119.166	-22.619	-0.393	-0.235
-118.151	-153.321	-0.254	0.017
-117.137	-87.218	-0.286	0.086
-116.122	-113.953	0.661	-0.127
-115.107	-153.988	0.127	0.009
-114.093	-200.000	0.028	0.250
-113.078	-58.765	-0.413	0.177
-112.064	-200.000	0.022	-0.215
-111.049	800.000	0.251	1.023
-110.034	316.404	0.217	-0.405
-109.020	431.660	0.354	-0.758
-108.005	800.000	-0.046	0.177
-106.991	114.479	0.369	-0.444
-105.976	-200.000	-0.001	-0.109
-104.962	-200.000	-0.078	-0.477
-103.947	-0.340	0.203	-0.143
-102.932	13.965	-0.134	-0.103
-101.918	206.993	-0.090	-0.138
-100.903	129.057	-0.151	0.190
-99.889	50.293	0.484	-0.452
-98.874	325.093	-0.275	0.520
-97.859	-187.040	1.111	0.015
-96.845	-1.589	-1.095	0.762
-95.830	-13.804	-0.182	-0.116
-94.816	-71.060	0.475	0.176
-93.801	-26.158	0.586	0.340
-92.786	-34.015	0.693	0.376
-91.772	-5.089	-0.478	-0.325
-90.757	-74.852	0.479	-0.170
-89.743	25.018	0.498	0.408
-88.728	65.374	-0.333	0.332
-87.713	12.345	-0.092	0.070
-86.699	-200.000	0.196	-1.048
-85.684	-200.000	0.033	-0.578
-84.670	-154.646	-0.405	0.027
-83.655	94.669	0.229	-0.257
-82.640	-98.864	0.304	-0.076
-81.626	1.888	-0.275	-0.196
-80.611	79.252	-0.510	-0.539
-79.597	119.626	0.520	-0.635
-78.582	92.366	-0.545	0.606
-77.567	142.980	0.261	0.342
-76.553	-200.000	-0.144	-0.976
-75.538	57.424	-0.126	-0.122
-74.524	184.750	0.323	0.472
-73.509	-80.065	0.531	-0.176
-72.494	-24.346	-0.417	0.245
-71.480	-28.759	-0.836	-0.474
-70.465	-130.923	-0.463	0.061
-69.451	-5.194	-0.845	0.573
-68.436	-161.380	0.433	-0.022
-67.422	-200.000	-0.097	0.476
-66.407	800.000	-0.233	-0.648
-65.392	-72.475	-0.279	-0.102
-64.378	-200.000	0.027	0.989
-63.363	211.663	0.323	0.501
-62.349	-150.426	0.584	-0.044
-61.334	-7.467	-0.739	-0.493
-60.319	800.000	0.044	0.134
-59.305	800.000	-0.236	-0.835
-58.290	212.969	0.607	0.945
-57.276	800.000	0.351	0.979
-56.261	-200.000	95.698	572.253
-55.246	642.825	1367.901	3436.383
-54.232	200.243	2535.472	3838.199
-53.217	117.480	2148.271	2604.292
-52.203	43.368	1698.736	1529.440
-51.188	36.342	1512.651	1314.230
-50.173	34.028	1486.706	1276.129
-49.159	54.100	1538.367	1457.951
-48.144	54.990	1555.236	1479.954
-47.130	36.447	1514.132	1316.022
-46.115	33.562	1498.349	1282.768
-45.100	33.266	1496.369	1279.021
-44.086	33.167	1494.903	1277.051
-43.071	33.232	1491.936	1274.903
-42.057	33.144	1491.125	1273.568
-41.042	33.300	1488.332	1272.180
-40.027	33.219	1488.172	1271.446
-39.013	33.133	1485.985	1268.954
-37.998	33.150	1484.346	1267.618
-36.984	33.035	1484.095	1266.582
-35.969	33.195	1482.373	1266.131
-34.954	33.467	1480.029	1265.894
-33.940	33.285	1480.079	1264.672
-32.925	33.087	1478.341	1261.818
-31.911	33.147	1477.092	1261.097
-30.896	33.117	1476.048	1259.955
-29.881	33.240	1474.365	1259.289
-28.867	33.192	1472.558	1257.381
-27.852	33.407	1471.056	1257.477
-26.838	33.206	1469.758	1254.981
-25.823	33.434	1468.481	1255.354
-24.809	33.302	1466.921	1253.095
-23.794	33.219	1465.765	1251.505
-22.779	32.892	1464.369	1248.101
-21.765	33.056	1463.372	1248.288
-20.750	33.111	1462.260	1247.654
-19.736	33.251	1461.083	1247.526
-18.721	33.230	1460.106	1246.497
-17.706	33.229	1458.016	1244.661
-16.692	33.167	1457.944	1244.143
-15.677	33.009	1457.800	1242.930
-14.663	33.341	1455.387	1243.007
-13.648	33.239	1454.332	1241.386
-12.633	33.210	1453.537	1240.469
-11.619	33.218	1453.411	1240.359
-10.604	33.201	1452.754	1239.637
-9.590	33.209	1451.576	1238.640
-8.575	33.291	1449.839	1237.643
-7.560	33.256	1450.105	1237.595
-6.546	33.157	1448.525	1235.548
-5.531	32.921	1448.816	1234.204
-4.517	33.253	1446.055	1233.967
-3.502	33.163	1445.496	1232.856
-2.487	33.021	1444.935	1231.403
-1.473	33.031	1443.706	1230.369
-0.458	33.134	1442.430	1229.908
0.556	33.909	1432.610	1217.632
1.571	30.860	1406.329	1175.974
2.586	27.141	1348.413	1104.881
3.600	25.250	1266.440	1026.814
4.615	23.906	1219.605	981.338
5.629	20.269	1163.289	916.761
6.644	11.206	1078.465	805.244
7.659	4.029	1036.806	739.875
8.673	3.068	1031.832	731.687
9.688	3.058	1027.344	728.394
10.702	2.902	1025.985	726.629
11.717	2.812	1024.885	725.357
12.731	6.047	1027.788	742.662
13.746	15.467	1041.215	797.225
14.761	22.740	1050.527	839.004
15.775	24.676	1052.853	850.004
16.790	25.016	1051.694	850.608
17.804	24.698	1051.540	848.895
18.819	24.930	1050.063	848.731
19.834	25.003	1049.168	848.277
20.848	24.948	1049.261	848.016
21.863	24.888	1049.309	847.696
22.877	24.870	1049.215	847.462
23.892	24.921	1048.282	846.873
24.907	24.846	1047.376	845.710
25.921	24.932	1046.889	845.650
26.936	24.789	1045.678	843.920
27.950	24.736	1045.476	843.436
28.965	24.678	1043.339	841.360
29.980	24.569	1042.057	839.741
30.994	24.746	1041.048	839.685
32.009	24.757	1040.713	839.392
33.023	25.115	1039.624	840.116
34.038	25.023	1038.653	838.831
35.053	25.109	1037.081	837.885
36.067	24.783	1038.036	837.057
37.082	24.974	1036.342	836.512
38.096	25.155	1035.169	836.335
39.111	24.941	1036.060	835.982
40.126	24.844	1034.410	834.125
41.140	25.111	1033.432	834.506
42.155	24.668	1031.418	830.747
43.169	24.562	1030.826	829.702
44.184	24.859	1029.980	830.327
45.199	24.500	1028.720	827.572
46.213	24.260	1028.491	826.206
47.228	24.271	1028.504	826.191
48.242	24.924	1026.978	827.913
49.257	25.093	1026.450	828.197
50.271	25.130	1025.452	827.490
51.286	24.898	1025.209	826.149
52.301	25.002	1024.399	825.903
53.315	25.226	1022.520	825.345
54.330	24.880	1023.631	824.576
55.344	25.010	1020.879	822.882
56.359	24.761	1020.875	821.665
57.374	24.850	1019.774	821.113
58.388	24.709	1018.984	819.756
59.403	24.899	1019.006	820.575
60.417	24.648	1018.474	818.922
61.432	24.846	1017.454	818.936
62.447	24.975	1017.385	819.398
63.461	24.851	1015.211	817.011
64.476	24.790	1015.173	816.627
65.490	24.593	1015.099	815.596
66.505	24.846	1013.225	815.172
67.520	24.515	1013.395	813.727
68.534	24.693	1012.641	813.862
69.549	24.396	1010.861	811.009
70.563	24.529	1009.017	810.059
71.578	24.378	1009.929	810.034
72.593	24.281	1008.276	808.196
73.607	24.134	1007.024	806.456
74.622	24.297	1006.238	806.494
75.636	24.366	1005.761	806.351
76.651	24.630	1004.916	806.796
77.666	24.696	1004.493	806.684
78.680	24.302	1003.162	803.766
79.695	24.469	1003.542	804.752
80.709	24.736	1002.434	804.996
81.724	24.904	1000.483	804.111
82.739	24.624	1000.532	802.823
83.753	24.480	999.635	801.383
84.768	24.796	999.476	802.604
85.782	25.265	998.862	804.142
86.797	25.382	998.693	804.459
87.812	25.420	998.411	804.332
88.826	25.041	997.104	801.511
89.841	25.497	996.155	802.717
90.855	25.083	995.069	799.922
91.870	25.426	994.693	801.078
92.884	25.283	994.087	799.882
93.899	25.283	993.265	799.151
94.914	25.378	991.523	798.100
95.928	25.570	990.513	798.069
96.943	25.168	990.963	796.574
97.957	24.735	989.789	793.641
98.972	24.710	988.816	792.679
99.987	24.881	987.655	792.434
101.001	25.026	986.255	791.884
102.016	25.106	985.857	791.848
103.030	25.327	985.359	792.353
104.045	25.059	984.618	790.506
105.060	25.090	983.121	789.369
106.074	25.213	980.991	788.132
107.089	24.977	981.589	787.503
108.103	25.268	980.515	787.850
109.118	25.186	980.245	787.201
110.133	24.786	979.921	785.117
111.147	24.687	978.867	783.772
112.162	24.622	978.265	782.935
113.176	24.756	976.094	781.714
114.191	24.794	975.490	781.327
115.206	24.851	974.771	780.928
116.220	24.582	974.528	779.492
117.235	24.376	973.195	777.460
118.249	24.445	973.081	777.601
119.264	24.763	971.523	777.670
120.279	24.431	971.522	776.155
121.293	24.415	969.798	774.642
122.308	24.267	970.022	774.109
123.322	24.526	968.582	774.013
124.337	24.524	967.536	773.102
125.352	24.266	966.401	771.008
126.366	24.213	964.348	769.076
127.381	24.063	964.263	768.290
128.395	24.750	963.594	770.650
129.410	25.179	962.398	771.472
130.424	25.094	962.595	771.196
131.439	25.156	961.020	770.135
132.454	24.830	960.410	768.177
133.468	25.358	958.596	768.921
134.483	24.820	958.891	766.782
135.497	24.887	958.195	766.446
136.512	25.097	957.899	767.040
137.527	25.057	957.604	766.564
138.541	25.353	954.820	765.530
139.556	25.127	955.609	765.132
140.570	25.117	954.437	764.084
141.585	25.368	953.715	764.504
142.600	25.209	953.308	763.435
143.614	25.292	952.143	762.787
144.629	25.442	951.687	762.991
145.643	25.466	951.130	762.578
146.658	25.425	950.190	761.583
147.673	25.454	947.823	759.742
148.687	25.348	947.503	758.971
149.702	25.073	946.651	757.061
150.716	25.056	946.203	756.561
151.731	25.044	945.168	755.617
152.746	25.018	945.153	755.428
153.760	25.305	943.369	755.142
154.775	25.307	942.710	754.557
155.789	25.444	942.963	755.269
156.804	25.262	941.450	753.227
157.819	25.411	940.119	752.721
158.833	25.439	939.204	752.037
159.848	25.627	938.630	752.297
160.862	25.761	938.199	752.447
161.877	25.646	936.934	750.885
162.892	25.501	936.343	749.739
163.906	25.505	935.230	748.798
164.921	25.342	934.327	747.333
165.935	25.398	934.398	747.555
166.950	25.485	932.468	746.305
167.964	25.178	932.145	744.708
168.979	25.633	930.804	745.457
169.994	25.295	930.272	743.566
171.008	25.598	928.317	743.189
172.023	25.165	929.113	741.968
173.037	25.569	927.683	742.431
174.052	25.257	927.231	740.716
175.067	25.568	925.981	740.933
176.081	25.354	925.696	739.756
177.096	25.293	924.773	738.705
178.110	24.935	923.652	736.269
179.125	24.678	923.607	735.113
180.140	24.893	921.470	734.229
181.154	24.953	920.737	733.825
182.169	24.942	921.160	734.055
183.183	25.250	920.766	734.937
184.198	25.490	920.392	735.553
185.213	25.861	918.714	735.663
186.227	25.070	919.113	732.687
187.242	25.381	918.687	733.551
188.256	25.441	917.076	732.445
189.271	25.972	915.388	733.191
190.286	25.916	915.532	733.014
191.300	25.633	914.138	730.684
192.315	24.720	914.034	726.827
193.329	24.361	912.939	724.436
194.344	24.312	911.443	722.983
195.359	24.371	912.422	723.938
196.373	25.461	911.755	727.762
197.388	25.278	912.578	727.610
198.402	25.507	911.011	727.223
199.417	25.438	910.807	726.715
200.432	25.593	910.323	726.895
201.446	25.383	909.796	725.561
202.461	25.431	909.474	725.432
203.475	25.524	909.414	725.695
204.490	25.298	907.817	723.446
205.504	24.030	905.485	716.426
206.519	24.620	905.064	718.399
207.534	24.985	905.831	720.415
208.548	25.198	905.182	720.689
209.563	25.369	905.277	721.387
210.577	25.839	903.346	721.671
211.592	25.175	903.076	718.730
212.607	25.876	902.695	721.170
213.621	25.958	902.573	721.335
214.636	25.850	901.535	720.014
215.650	25.749	901.589	719.589
216.665	25.700	900.555	718.505
217.680	25.664	900.324	718.113
218.694	25.613	900.438	717.936
219.709	25.516	898.944	716.294
220.723	25.322	898.194	714.861
221.738	25.646	897.214	715.305
222.753	25.399	896.920	714.027
223.767	25.537	896.221	713.955
224.782	25.779	895.542	714.312
225.796	25.878	895.216	714.379
226.811	26.089	894.174	714.319
227.826	25.810	893.143	712.330
228.840	25.083	891.885	708.392
229.855	24.684	892.003	706.848
230.869	25.445	890.078	708.259
231.884	25.047	890.093	706.641
232.899	24.822	889.859	705.503
233.913	25.460	890.311	708.314
234.928	25.467	889.284	707.465
235.942	25.250	888.727	706.104
236.957	25.307	887.666	705.422
237.972	25.381	886.646	704.840
238.986	25.230	886.068	703.724
240.001	25.208	885.447	703.085
241.015	25.181	884.937	702.512
242.030	25.135	884.810	702.168
243.045	25.791	883.052	703.276
244.059	25.193	884.382	701.933
245.074	25.472	883.500	702.261
246.088	25.696	882.118	701.971
247.103	25.509	880.842	700.165
248.117	25.384	880.889	699.655
249.132	25.911	880.737	701.524
250.147	26.321	880.594	702.943
251.161	26.544	880.851	703.954
252.176	26.697	878.848	702.885
253.190	26.170	879.574	701.357
254.205	26.323	878.995	701.426
255.220	26.764	877.636	701.990
256.234	26.873	876.214	701.210
257.249	26.094	876.537	698.393
258.263	26.228	875.946	698.378
259.278	26.120	876.021	697.961
260.293	26.024	875.532	697.138
261.307	26.269	875.468	697.971
262.322	26.722	873.875	698.383
263.336	26.185	873.266	695.768
264.351	26.198	871.927	694.691
265.366	25.343	871.152	690.722
266.380	25.062	869.963	688.640
267.395	25.834	868.886	690.687
268.409	26.036	870.310	692.535
269.424	26.217	869.397	692.441
270.439	26.160	869.117	691.936
271.453	26.316	867.918	691.520
272.468	26.156	868.024	690.928
273.482	26.133	867.027	689.989
274.497	26.512	866.476	690.933
275.512	26.303	866.140	689.808
276.526	26.016	864.633	687.453
277.541	26.044	864.184	687.143
278.555	26.169	864.287	687.640
279.570	26.221	863.560	687.197
280.585	26.872	862.885	689.073
281.599	26.420	862.770	687.206
282.614	26.190	862.806	686.298
283.628	25.993	860.952	684.015
284.643	25.874	860.002	682.748
285.657	25.610	859.775	681.507
286.672	26.035	859.794	683.074
287.687	25.636	858.521	680.492
288.701	25.874	858.988	681.703
289.716	25.993	858.230	681.491
290.730	25.524	857.534	679.106
291.745	25.857	856.302	679.327
292.760	25.508	856.657	678.232
293.774	25.901	855.195	678.495
294.789	26.457	855.016	680.384
295.803	26.825	855.103	681.776
296.818	26.469	855.394	680.607
297.833	26.847	853.564	680.510
298.847	26.379	853.396	678.561
299.862	26.440	852.164	677.752
300.876	26.247	852.365	677.127
301.891	26.649	851.142	677.601
302.906	26.490	851.342	677.105
303.920	26.279	849.776	675.011
304.935	26.505	849.369	675.472
305.949	26.857	848.625	676.131
306.964	26.855	848.314	675.816
307.979	26.661	847.743	674.581
308.993	26.472	846.487	672.817
310.008	26.781	846.935	674.264
311.022	26.679	847.176	674.018
312.037	26.339	846.694	672.310
313.052	26.710	845.637	672.788
314.066	26.610	844.113	671.145
315.081	25.789	843.716	667.726
316.095	25.412	842.853	665.590
317.110	25.787	842.220	666.417
318.125	26.532	841.814	668.791
319.139	26.368	840.065	666.739
320.154	25.339	839.083	662.108
321.168	24.709	840.272	660.660
322.183	25.483	839.481	662.835
323.197	26.116	839.104	664.811
324.212	26.162	839.001	664.840
325.227	26.211	837.795	664.008
326.241	26.276	838.174	664.487
327.256	26.448	836.824	663.989
328.270	26.210	836.995	663.193
329.285	25.906	836.173	661.368
330.300	26.038	835.669	661.393
331.314	25.703	835.175	659.716
332.329	25.639	835.058	659.331
333.343	25.982	833.814	659.545
334.358	26.326	833.674	660.637
335.373	26.530	833.411	661.113
336.387	26.622	833.151	661.184
337.402	26.586	832.899	660.793
338.416	26.941	832.230	661.500
339.431	26.766	831.570	660.278
340.446	27.011	830.970	660.636
341.460	26.958	831.153	660.530
342.475	27.248	829.797	660.445
343.489	26.807	829.597	658.629
344.504	26.881	829.587	658.832
345.519	26.986	828.208	658.058
346.533	27.079	828.148	658.290
347.548	27.363	827.632	658.850
348.562	26.925	827.393	657.013
349.577	27.009	825.863	656.044
350.592	27.142	825.646	656.295
351.606	27.011	824.651	654.975
352.621	26.903	823.789	653.841
353.635	26.818	824.432	653.989
354.650	26.647	824.357	653.255
355.665	26.783	823.258	652.815
356.679	26.051	821.174	648.475
357.694	25.731	821.573	647.579
358.708	26.699	820.707	650.319
359.723	26.481	820.787	649.541
360.738	26.217	820.229	648.096
361.752	26.677	818.877	648.618
362.767	26.682	820.039	649.499
363.781	26.865	820.060	650.112
364.796	26.886	819.086	649.359
365.810	27.097	819.126	650.089
366.825	26.894	817.835	648.282
367.840	27.243	817.773	649.422
368.854	27.221	817.036	648.699
369.869	26.608	817.750	647.019
370.883	26.653	816.190	645.887
371.898	26.837	815.755	646.140
372.913	26.728	815.558	645.540
373.927	27.227	812.500	644.832
374.942	27.023	812.609	644.141
375.956	26.791	813.339	643.838
376.971	26.994	811.575	643.102
377.986	27.246	812.157	644.400
379.000	27.106	811.347	643.206
380.015	27.248	810.742	643.172
381.029	26.973	810.578	642.011
382.044	27.240	809.506	642.048
383.059	27.470	809.679	642.941
384.073	27.325	809.186	641.981
385.088	27.201	808.100	640.626
386.102	27.212	807.471	640.110
387.117	26.427	806.661	636.649
388.132	26.963	805.746	637.752
389.146	26.432	805.299	635.478
390.161	26.129	804.857	634.010
391.175	26.494	805.156	635.469
392.190	26.930	804.402	636.350
393.205	27.357	804.635	637.973
394.219	26.391	803.228	633.419
395.234	25.289	800.762	627.567
396.248	24.935	800.470	626.046
397.263	25.238	801.679	627.997
398.278	26.965	801.278	633.662
399.292	26.273	801.637	631.473
400.307	26.603	800.210	631.445
401.321	26.085	799.331	628.888
402.336	26.117	799.386	628.990
403.350	26.688	799.419	630.947
404.365	26.811	798.991	630.983
405.380	26.903	799.311	631.500
406.394	27.149	799.774	632.667
407.409	27.449	798.038	632.278
408.423	27.694	797.838	632.916
409.438	27.353	797.445	631.364
410.453	27.804	796.909	632.448
411.467	27.711	796.340	631.616
412.482	27.649	795.046	630.322
413.496	26.932	794.923	627.690
414.511	27.305	794.636	628.696
415.526	27.469	794.596	629.176
416.540	27.576	793.944	628.971
417.555	27.385	794.052	628.341
418.569	27.615	792.680	627.995
419.584	27.686	792.538	628.069
420.599	27.556	791.362	626.635
421.613	159.298	1369.072	1792.066
422.628	137.958	1453.297	1792.158
