DTS Sentinel unit serial number:	SN413079Multiplexer serial number:	ORYXHardware model number:	OX4-SRSoftware version number:	ORYX F/W v4.00 Oryx Data Collector v3.7.2.0data status	okinstallation	princeton_trtdifferential loss correction	single-endedforward channel	channel 3reverse channel	N/Adate	2019/09/19time	01:32:34forward acquisition time	60.00reverse acquisition time	0.00gamma	496.2192k internal	0.2348k external	0.2348temperature offset calibration	0.9988default loss term (dB/km)	0.3790temperature slope calibration	1.0000multiplexer offset coefficient	1.0000multiplexer slope coefficient	1.0000fibre end	0.00T internal ref (°C)	21.56T ext. ref 1 (°C)	0.69T ext. ref 2 (°C)	15.02length (m)	temperature (°C)	Stokes	anti-Stokes-747.200	-48.810	0.456	0.218
-746.185	85.546	0.136	-0.150
-745.171	-200.000	-0.001	-0.168
-744.156	314.433	0.099	0.186
-743.142	-200.000	-0.010	-0.085
-742.127	800.000	-0.078	0.277
-741.112	-4.260	-0.300	-0.207
-740.098	-200.000	-0.068	0.477
-739.083	-132.373	0.129	0.017
-738.069	-200.000	0.127	0.000
-737.054	800.000	-0.073	-0.227
-736.039	-172.983	-0.321	0.010
-735.025	800.000	-0.056	0.207
-734.010	-21.542	-0.283	0.172
-732.996	-64.323	0.191	-0.078
-731.981	667.421	-0.078	0.202
-730.966	-200.000	0.036	0.281
-729.952	-200.000	-0.080	-0.430
-728.937	-61.903	-0.309	0.129
-727.923	-200.000	0.000	0.164
-726.908	-200.000	-0.017	-0.215
-725.894	-77.429	-0.255	-0.089
-724.879	-197.236	0.187	0.001
-723.864	73.770	-0.071	0.074
-722.850	188.343	-0.134	0.200
-721.835	800.000	-0.127	-0.379
-720.821	-29.676	-0.195	-0.111
-719.806	77.465	-0.113	-0.120
-718.791	800.000	0.117	-0.357
-717.777	-59.771	-0.111	-0.047
-716.762	7.950	0.130	-0.097
-715.748	10.835	0.330	-0.252
-714.733	266.337	-0.098	0.170
-713.718	-71.244	-0.334	-0.125
-712.704	-139.352	-0.241	0.026
-711.689	-156.259	0.464	-0.029
-710.675	15.593	-0.126	-0.099
-709.660	-200.000	-0.012	-0.122
-708.645	-60.110	-0.259	-0.110
-707.631	7.708	-0.266	-0.199
-706.616	301.234	-0.154	-0.285
-705.602	79.335	-0.184	-0.197
-704.587	-36.748	-0.123	-0.066
-703.572	25.550	-0.217	0.180
-702.558	-107.173	0.107	0.023
-701.543	8.868	0.201	-0.151
-700.529	-65.811	0.069	-0.027
-699.514	-58.005	-0.066	0.029
-698.499	127.418	0.214	-0.271
-697.485	800.000	-0.071	0.206
-696.470	-200.000	-0.002	-0.099
-695.456	96.119	-0.042	0.047
-694.441	-165.102	-0.486	-0.022
-693.426	-143.244	0.132	-0.013
-692.412	-200.000	-0.013	0.133
-691.397	-118.210	-0.374	0.066
-690.383	-25.567	0.165	0.097
-689.368	703.044	0.044	0.114
-688.354	-200.000	0.034	-0.328
-687.339	-200.000	-0.019	-0.299
-686.324	-6.142	0.100	-0.068
-685.310	25.690	-0.270	-0.224
-684.295	-200.000	0.020	0.165
-683.281	-173.364	-0.310	-0.009
-682.266	-93.199	-0.181	-0.050
-681.251	-77.174	0.089	-0.031
-680.237	44.852	0.060	0.055
-679.222	-126.187	-0.402	-0.060
-678.208	55.587	-0.155	-0.150
-677.193	-105.471	0.217	0.049
-676.178	-144.095	-0.370	-0.035
-675.164	800.000	-0.088	-0.337
-674.149	-173.957	-0.490	-0.014
-673.135	112.847	0.171	0.207
-672.120	73.447	0.140	-0.146
-671.105	27.910	-0.099	0.083
-670.091	85.500	-0.149	0.163
-669.076	-28.154	0.329	0.189
-668.062	-79.775	0.255	-0.085
-667.047	154.270	-0.021	0.028
-666.032	-200.000	-0.001	0.078
-665.018	720.937	-0.110	0.290
-664.003	-120.594	0.205	0.035
-662.989	-68.065	-0.340	0.132
-661.974	-16.740	0.115	-0.072
-660.959	792.186	0.081	0.223
-659.945	800.000	0.073	0.241
-658.930	-200.000	-0.075	0.386
-657.916	-21.331	0.198	0.120
-656.901	237.578	0.088	-0.146
-655.886	137.521	0.184	-0.239
-654.872	24.591	-0.365	-0.301
-653.857	77.724	-0.165	-0.175
-652.843	-50.682	-0.153	-0.072
-651.828	-47.538	0.247	0.119
-650.814	5.389	0.171	-0.126
-649.799	800.000	0.188	0.627
-648.784	176.599	0.217	0.315
-647.770	284.659	-0.077	0.138
-646.755	381.552	0.163	0.333
-645.741	-200.000	0.011	-0.382
-644.726	-112.088	0.247	0.050
-643.711	800.000	-0.026	-0.103
-642.697	800.000	-0.066	0.233
-641.682	56.676	0.191	0.185
-640.668	-81.765	-0.021	0.007
-639.653	800.000	-0.063	-0.180
-638.638	74.250	0.207	-0.216
-637.624	365.658	0.148	0.296
-636.609	-55.690	0.143	0.063
-635.595	128.553	-0.078	-0.099
-634.580	-77.735	0.149	0.051
-633.565	332.091	-0.210	0.402
-632.551	53.609	0.286	0.273
-631.536	-26.544	-0.133	0.078
-630.522	129.127	-0.130	-0.165
-629.507	403.723	-0.152	-0.318
-628.492	81.949	0.153	-0.164
-627.478	-66.731	-0.172	0.068
-626.463	-200.000	-0.054	-0.361
-625.449	190.566	-0.236	-0.353
-624.434	800.000	-0.066	-0.200
-623.419	321.605	-0.212	-0.402
-622.405	-45.861	-0.413	-0.203
-621.390	-13.166	-0.244	0.158
-620.376	-150.892	-0.264	-0.020
-619.361	-75.339	0.178	-0.063
-618.346	-28.785	0.159	0.091
-617.332	-200.000	-0.046	0.522
-616.317	-63.479	-0.239	0.098
-615.303	-27.570	-0.239	-0.138
-614.288	-200.000	0.003	-0.263
-613.273	595.150	0.100	-0.246
-612.259	-172.312	-0.312	0.010
-611.244	-72.306	-0.133	-0.049
-610.230	-200.000	0.042	0.226
-609.215	551.530	-0.029	0.069
-608.201	-200.000	0.010	-0.045
-607.186	44.760	-0.215	0.197
-606.171	266.823	0.080	-0.140
-605.157	197.448	-0.209	-0.317
-604.142	-23.907	0.032	0.019
-603.128	-110.030	-0.347	-0.072
-602.113	-57.347	0.044	0.019
-601.098	81.779	0.115	-0.123
-600.084	76.067	0.147	-0.154
-599.069	11.154	-0.453	-0.344
-598.055	144.332	-0.158	-0.210
-597.040	-118.054	-0.315	0.056
-596.025	-200.000	0.058	0.288
-595.011	146.644	-0.156	-0.209
-593.996	14.639	0.092	0.071
-592.982	-200.000	-0.054	0.724
-591.967	-29.220	0.298	0.169
-590.952	-88.756	-0.462	-0.136
-589.938	-200.000	0.025	-0.136
-588.923	-142.528	-0.219	0.021
-587.909	320.088	0.049	-0.092
-586.894	84.990	-0.147	-0.160
-585.879	-48.798	0.227	-0.108
-584.865	10.215	-0.264	-0.199
-583.850	22.818	0.087	0.071
-582.836	215.390	-0.199	0.314
-581.821	-75.585	0.136	-0.048
-580.806	-27.383	-0.072	0.042
-579.792	262.544	-0.047	0.081
-578.777	-119.228	-0.101	0.017
-577.763	649.512	-0.011	-0.028
-576.748	194.230	0.181	-0.272
-575.733	536.017	0.033	-0.078
-574.719	150.343	-0.067	-0.091
-573.704	160.407	-0.113	-0.156
-572.690	409.109	-0.040	-0.083
-571.675	-28.579	0.345	0.197
-570.661	77.475	0.075	0.079
-569.646	128.189	0.138	-0.174
-568.631	-163.045	-0.260	0.012
-567.617	-200.000	-0.065	-0.389
-566.602	-200.000	0.019	-0.112
-565.588	-200.000	0.012	0.064
-564.573	4.758	-0.064	-0.047
-563.558	8.882	-0.359	0.268
-562.544	-46.211	-0.159	-0.078
-561.529	800.000	0.066	0.273
-560.515	405.090	-0.085	0.177
-559.500	30.719	0.074	-0.063
-558.485	-121.343	0.454	-0.075
-557.471	0.542	-0.110	0.078
-556.456	-66.117	0.237	-0.094
-555.442	-133.042	-0.114	0.014
-554.427	-135.088	0.094	-0.011
-553.412	-59.116	0.251	-0.108
-552.398	-35.879	-0.104	-0.056
-551.383	-109.091	-0.074	0.016
-550.369	-44.055	0.214	0.107
-549.354	-12.093	-0.250	-0.162
-548.339	-85.374	-0.321	0.099
-547.325	-49.991	-0.113	-0.053
-546.310	-139.607	-0.149	0.016
-545.296	60.605	-0.320	-0.315
-544.281	99.743	0.177	-0.203
-543.266	-120.549	0.057	-0.010
-542.252	-200.000	-0.025	0.180
-541.237	53.453	0.073	0.070
-540.223	169.977	0.134	-0.190
-539.208	-200.000	0.043	0.269
-538.193	-128.800	-0.166	0.023
-537.179	-8.469	-0.144	0.096
-536.164	368.773	0.128	0.257
-535.150	-57.578	-0.242	-0.105
-534.135	-200.000	-0.065	0.463
-533.121	273.603	-0.134	0.234
-532.106	-200.000	-0.006	0.035
-531.091	-38.544	-0.174	-0.091
-530.077	-200.000	-0.003	0.338
-529.062	56.262	0.069	0.067
-528.048	-24.726	0.257	-0.151
-527.033	-4.453	0.098	0.067
-526.018	489.231	0.024	0.055
-525.004	-200.000	0.027	0.278
-523.989	-27.473	-0.277	-0.160
-522.975	-200.000	0.017	-0.233
-521.960	166.997	-0.157	-0.221
-520.945	223.542	0.157	-0.250
-519.931	30.263	0.079	-0.067
-518.916	529.884	-0.050	-0.116
-517.902	-75.733	0.078	-0.027
-516.887	-200.000	-0.006	-0.113
-515.872	-113.243	0.123	-0.024
-514.858	79.418	0.169	-0.180
-513.843	543.173	0.084	-0.198
-512.829	264.131	0.124	0.214
-511.814	-53.522	-0.135	0.061
-510.799	-154.612	-0.108	-0.007
-509.785	-115.970	0.176	-0.032
-508.770	-85.253	-0.310	0.096
-507.756	68.622	0.033	-0.034
-506.741	-131.765	0.376	0.049
-505.726	-50.978	0.108	0.050
-504.712	-55.287	-0.186	0.083
-503.697	-100.301	0.322	-0.079
-502.683	-179.950	0.331	-0.007
-501.668	57.337	-0.226	-0.218
-500.653	58.176	-0.191	0.185
-499.639	-125.460	0.232	0.035
-498.624	-173.635	0.126	-0.004
-497.610	56.293	-0.137	0.131
-496.595	-27.074	-0.120	-0.069
-495.581	100.698	0.176	-0.202
-494.566	388.920	0.044	-0.089
-493.551	-200.000	0.003	0.185
-492.537	-13.052	-0.169	0.109
-491.522	-190.687	-0.126	0.001
-490.508	-200.000	0.041	0.200
-489.493	-200.000	0.011	-0.106
-488.478	287.155	-0.227	-0.406
-487.464	9.249	0.112	0.084
-486.449	-174.685	-0.110	0.003
-485.435	-108.478	0.392	-0.083
-484.420	-54.407	-0.111	-0.050
-483.405	495.933	-0.053	-0.120
-482.391	103.461	0.037	0.042
-481.376	72.313	0.159	-0.164
-480.362	-49.169	-0.259	-0.123
-479.347	-76.744	-0.093	0.032
-478.332	265.915	-0.047	0.082
-477.318	393.250	0.188	-0.387
-476.303	-91.063	-0.084	0.024
-475.289	800.000	0.155	-0.506
-474.274	-9.473	-0.256	-0.169
-473.259	-128.513	0.415	-0.058
-472.245	-200.000	0.011	0.156
-471.230	120.276	0.174	0.214
-470.216	800.000	0.092	-0.330
-469.201	-30.053	0.106	-0.060
-468.186	-14.790	0.322	0.204
-467.172	155.535	0.145	-0.197
-466.157	3.560	0.147	0.106
-465.143	-89.480	0.132	-0.038
-464.128	800.000	0.021	-0.071
-463.113	64.496	0.274	-0.273
-462.099	-13.368	-0.297	-0.191
-461.084	-200.000	-0.029	0.323
-460.070	104.128	-0.178	0.207
-459.055	-56.939	-0.099	-0.043
-458.040	800.000	0.061	0.255
-457.026	-7.956	-0.382	-0.255
-456.011	-79.109	0.537	-0.180
-454.997	-71.393	0.059	0.022
-453.982	-96.524	-0.086	0.022
-452.968	-5.432	0.142	-0.096
-451.953	-77.973	-0.122	-0.042
-450.938	283.588	-0.120	-0.213
-449.924	-200.000	0.025	0.142
-448.909	-127.260	0.282	0.041
-447.895	800.000	-0.036	-0.143
-446.880	48.606	-0.059	0.054
-445.865	-200.000	0.039	0.196
-444.851	723.376	0.022	0.058
-443.836	156.721	-0.066	0.090
-442.822	15.995	-0.133	0.104
-441.807	180.557	-0.134	-0.194
-440.792	800.000	-0.018	0.062
-439.778	95.166	0.096	-0.108
-438.763	-200.000	0.008	-0.073
-437.749	-200.000	0.039	-0.406
-436.734	800.000	-0.057	-0.173
-435.719	-67.616	0.143	0.055
-434.705	-52.867	0.169	-0.077
-433.690	-72.045	0.146	-0.054
-432.676	498.519	0.117	-0.266
-431.661	59.167	-0.233	0.227
-430.646	80.854	-0.196	0.209
-429.632	-25.254	-0.277	-0.162
-428.617	-149.158	0.387	-0.031
-427.603	428.449	-0.134	-0.285
-426.588	-80.456	0.102	-0.034
-425.573	673.446	-0.046	-0.118
-424.559	-54.090	-0.092	-0.041
-423.544	-108.503	0.346	-0.073
-422.530	800.000	-0.066	0.283
-421.515	412.696	0.028	0.058
-420.500	27.242	0.249	-0.206
-419.486	-200.000	-0.020	-0.200
-418.471	-14.667	0.151	0.096
-417.457	-118.702	0.200	0.035
-416.442	-200.000	0.030	0.156
-415.428	174.393	0.109	-0.156
-414.413	-93.440	-0.167	-0.046
-413.398	446.964	0.118	-0.257
-412.384	-91.599	-0.173	0.049
-411.369	47.884	-0.165	-0.152
-410.355	-111.308	-0.337	-0.068
-409.340	15.583	0.174	-0.135
-408.325	18.400	0.291	0.229
-407.311	-155.230	-0.353	-0.023
-406.296	-200.000	0.036	-0.240
-405.282	-103.371	0.073	0.017
-404.267	-200.000	0.013	-0.127
-403.252	334.965	0.090	-0.172
-402.238	-72.535	-0.325	-0.118
-401.223	381.271	0.109	-0.221
-400.209	-189.672	0.105	-0.001
-399.194	70.401	-0.371	0.378
-398.179	-58.003	0.294	0.126
-397.165	22.274	-0.138	-0.111
-396.150	-135.281	-0.364	0.043
-395.136	-133.839	-0.180	-0.022
-394.121	27.190	-0.205	-0.170
-393.106	-200.000	-0.006	0.026
-392.092	-15.814	-0.144	-0.090
-391.077	-36.992	0.134	-0.071
-390.063	575.514	0.134	0.322
-389.048	800.000	0.035	0.111
-388.033	-58.079	-0.301	0.129
-387.019	-79.090	-0.213	0.071
-386.004	5.877	0.167	0.122
-384.990	800.000	-0.029	0.116
-383.975	800.000	-0.037	0.141
-382.960	369.480	0.048	0.095
-381.946	653.359	0.065	0.165
-380.931	91.143	-0.116	-0.128
-379.917	140.657	-0.059	-0.077
-378.902	165.245	0.150	-0.208
-377.888	0.900	-0.158	0.112
-376.873	-126.972	0.148	-0.021
-375.858	223.846	0.037	0.058
-374.844	800.000	0.026	0.108
-373.829	431.191	0.121	0.259
-372.815	343.639	-0.087	-0.168
-371.800	-145.104	-0.215	-0.019
-370.785	140.461	-0.214	0.278
-369.771	473.165	-0.066	-0.146
-368.756	147.604	0.209	-0.278
-367.742	-200.000	-0.003	-0.210
-366.727	-102.888	-0.231	0.054
-365.712	800.000	0.071	-0.198
-364.698	-186.476	0.086	-0.001
-363.683	115.173	0.143	0.172
-362.669	104.378	0.203	-0.235
-361.654	77.859	-0.177	0.186
-360.639	800.000	-0.020	0.064
-359.625	-16.869	-0.369	0.230
-358.610	151.666	-0.208	0.278
-357.596	-107.678	-0.255	-0.055
-356.581	79.354	0.163	-0.172
-355.566	34.007	0.115	-0.098
-354.552	-53.687	0.038	0.017
-353.537	23.305	0.309	0.250
-352.523	139.638	0.046	0.059
-351.508	-138.989	-0.317	-0.034
-350.493	-88.879	0.370	-0.108
-349.479	-200.000	0.016	0.140
-348.464	-80.908	-0.348	0.114
-347.450	-125.055	-0.173	0.026
-346.435	674.443	-0.038	-0.096
-345.420	-200.000	0.018	0.125
-344.406	-200.000	-0.013	-0.064
-343.391	246.897	-0.089	0.148
-342.377	-200.000	0.046	0.384
-341.362	-200.000	-0.069	-0.346
-340.348	-152.664	0.438	-0.031
-339.333	39.385	-0.260	0.229
-338.318	-14.455	0.290	0.183
-337.304	179.997	-0.176	-0.254
-336.289	-6.619	-0.071	-0.047
-335.275	17.369	0.179	-0.140
-334.260	426.770	0.048	0.102
-333.245	-157.675	0.250	0.015
-332.231	-200.000	0.019	-0.086
-331.216	-99.116	0.177	-0.044
-330.202	97.340	0.080	0.090
-329.187	-131.845	-0.457	-0.059
-328.172	-200.000	-0.004	-0.256
-327.158	38.533	0.248	0.217
-326.143	-200.000	0.036	0.234
-325.129	-200.000	-0.028	-0.147
-324.114	556.287	-0.083	0.195
-323.099	391.692	-0.025	-0.052
-322.085	-200.000	0.042	0.271
-321.070	-70.775	0.118	-0.044
-320.056	-197.045	-0.091	0.001
-319.041	262.707	0.106	0.180
-318.026	-139.492	0.265	0.028
-317.012	52.433	-0.123	0.115
-315.997	27.524	-0.212	-0.175
-314.983	-200.000	0.027	-0.180
-313.968	109.227	-0.171	0.202
-312.953	775.309	0.056	-0.149
-311.939	368.248	0.110	-0.219
-310.924	254.853	-0.104	0.175
-309.910	-6.214	0.044	-0.030
-308.895	-200.000	0.017	0.328
-307.880	-200.000	-0.045	-0.253
-306.866	800.000	0.030	0.108
-305.851	17.682	-0.190	-0.149
-304.837	-200.000	-0.045	-0.247
-303.822	-32.859	0.090	0.049
-302.807	-200.000	-0.010	-0.088
-301.793	-200.000	-0.001	0.028
-300.778	397.257	0.107	-0.220
-299.764	-135.222	-0.276	-0.032
-298.749	-200.000	0.031	0.197
-297.735	-144.433	-0.238	0.022
-296.720	-55.163	0.142	0.063
-295.705	800.000	-0.054	0.211
-294.691	-180.628	0.066	0.001
-293.676	-200.000	-0.056	-0.373
-292.662	-90.027	0.188	0.054
-291.647	-112.123	0.199	-0.039
-290.632	662.763	-0.159	-0.404
-289.618	-200.000	-0.014	0.221
-288.603	-59.856	-0.089	0.038
-287.589	-37.288	0.288	0.151
-286.574	-108.134	0.324	-0.069
-285.559	-91.995	-0.292	0.081
-284.545	46.382	0.134	0.122
-283.530	77.591	0.171	0.178
-282.516	-154.283	-0.114	-0.008
-281.501	-200.000	-0.042	0.252
-280.486	800.000	0.057	-0.203
-279.472	66.962	0.120	0.120
-278.457	-74.543	0.218	0.077
-277.443	-200.000	-0.031	-0.199
-276.428	-125.633	0.124	0.018
-275.413	644.157	-0.154	-0.385
-274.399	110.646	-0.104	0.122
-273.384	800.000	-0.087	0.281
-272.370	-19.888	-0.454	-0.275
-271.355	-140.158	0.275	0.028
-270.340	181.521	-0.119	0.171
-269.326	-36.016	-0.190	0.101
-268.311	244.562	-0.040	0.067
-267.297	-31.517	-0.212	0.117
-266.282	800.000	-0.106	-0.368
-265.267	-39.664	0.318	-0.163
-264.253	-200.000	-0.013	0.196
-263.238	-1.670	-0.128	0.089
-262.224	-29.890	-0.208	0.116
-261.209	304.400	0.195	-0.355
-260.195	-172.583	0.345	0.011
-259.180	-200.000	-0.007	0.230
-258.165	-151.682	0.131	0.009
-257.151	49.851	-0.211	0.195
-256.136	73.059	0.209	-0.214
-255.122	-200.000	-0.009	0.074
-254.107	93.146	-0.305	0.338
-253.092	-31.945	0.069	0.038
-252.078	7.775	0.279	-0.205
-251.063	-72.427	-0.180	0.065
-250.049	-200.000	0.007	-0.040
-249.034	224.063	0.101	0.160
-248.019	419.676	0.174	-0.365
-247.005	287.813	-0.029	-0.052
-245.990	130.359	-0.239	0.299
-244.976	88.990	0.276	-0.301
-243.961	168.729	0.344	0.480
-242.946	84.606	0.067	-0.072
-241.932	13.524	0.401	-0.305
-240.917	35.730	0.213	0.183
-239.903	10.410	-0.258	-0.192
-238.888	-10.294	0.166	-0.108
-237.873	-200.000	-0.020	0.122
-236.859	297.875	-0.077	0.139
-235.844	-70.938	-0.329	0.121
-234.830	-200.000	-0.006	0.146
-233.815	651.485	-0.054	0.135
-232.800	-9.054	-0.207	-0.136
-231.786	-46.155	0.272	-0.131
-230.771	-48.907	-0.355	0.167
-229.757	-47.729	0.202	0.096
-228.742	26.679	0.169	-0.139
-227.727	-28.290	0.209	0.118
-226.713	71.023	0.099	-0.100
-225.698	63.506	0.114	-0.112
-224.684	800.000	0.141	0.407
-223.669	188.691	0.155	-0.227
-222.655	800.000	-0.061	0.187
-221.640	-19.618	-0.105	-0.063
-220.625	46.883	0.034	0.031
-219.611	-200.000	0.044	0.269
-218.596	276.082	-0.087	0.151
-217.582	279.367	-0.026	-0.046
-216.567	-47.343	0.138	-0.066
-215.552	335.212	-0.148	0.281
-214.538	67.072	-0.209	0.208
-213.523	-129.508	0.416	-0.056
-212.509	8.136	-0.223	-0.164
-211.494	-37.931	0.406	-0.211
-210.479	-43.885	-0.234	-0.115
-209.465	-140.173	-0.326	0.034
-208.450	516.387	-0.064	0.147
-207.436	-79.785	-0.154	-0.051
-206.421	263.256	0.044	-0.075
-205.406	-29.777	0.137	0.077
-204.392	66.698	-0.183	0.182
-203.377	-200.000	-0.037	-0.327
-202.363	-114.909	-0.586	-0.109
-201.348	134.760	0.321	0.408
-200.333	-200.000	-0.026	0.270
-199.319	-97.485	0.110	-0.028
-198.304	296.181	-0.107	-0.192
-197.290	-200.000	0.004	-0.066
-196.275	-57.750	0.162	-0.069
-195.260	-24.395	0.072	-0.042
-194.246	-82.906	-0.179	-0.057
-193.231	190.136	-0.124	-0.182
-192.217	155.109	0.146	-0.196
-191.202	-198.443	0.160	-0.001
-190.187	169.160	0.097	-0.136
-189.173	-13.123	-0.063	0.040
-188.158	646.475	0.113	0.282
-187.144	-112.685	-0.051	0.010
-186.129	-187.644	0.033	0.000
-185.114	-200.000	-0.048	0.215
-184.100	-200.000	0.022	0.129
-183.085	137.404	-0.038	0.049
-182.071	267.935	0.053	-0.091
-181.056	-200.000	-0.025	0.229
-180.042	-147.190	-0.168	-0.014
-179.027	-119.002	-0.025	-0.004
-178.012	-200.000	0.040	0.000
-176.998	55.967	0.044	-0.042
-175.983	-6.359	0.166	-0.110
-174.969	-153.984	0.071	0.005
-173.954	176.669	0.041	0.059
-172.939	162.279	0.143	-0.195
-171.925	-131.191	0.044	0.006
-170.910	800.000	0.095	0.328
-169.896	-94.927	0.249	0.066
-168.881	253.149	0.031	-0.052
-167.866	-17.465	0.144	0.089
-166.852	-78.360	0.131	-0.044
-165.837	515.657	-0.102	0.233
-164.823	683.749	0.172	0.438
-163.808	280.662	0.204	-0.357
-162.793	-20.652	0.223	0.134
-161.779	292.244	-0.070	0.125
-160.764	-200.000	0.026	0.176
-159.750	-101.487	-0.228	-0.054
-158.735	-200.000	-0.021	-0.176
-157.720	800.000	0.086	-0.239
-156.706	-200.000	0.028	0.343
-155.691	-120.858	0.287	0.047
-154.677	14.150	0.212	0.161
-153.662	-200.000	0.028	0.271
-152.647	-142.344	-0.279	-0.027
-151.633	-200.000	-0.016	0.182
-150.618	617.438	-0.123	0.300
-149.604	-166.602	-0.143	-0.006
-148.589	212.876	-0.123	-0.190
-147.574	800.000	-0.078	0.233
-146.560	-153.944	0.125	-0.008
-145.545	85.030	-0.153	0.164
-144.531	-142.170	0.325	0.031
-143.516	87.523	0.156	0.169
-142.502	45.447	0.114	0.103
-141.487	-104.605	-0.374	0.084
-140.472	14.581	0.068	0.052
-139.458	-109.938	-0.220	-0.045
-138.443	800.000	-0.079	0.217
-137.429	-200.000	-0.096	0.476
-136.414	-200.000	-0.002	-0.287
-135.399	247.988	0.012	0.020
-134.385	85.656	-0.071	-0.076
-133.370	65.083	0.253	0.250
-132.356	128.959	-0.074	0.093
-131.341	-138.848	-0.318	-0.034
-130.326	-99.236	0.108	-0.027
-129.312	-84.903	0.206	-0.063
-128.297	-65.671	-0.206	0.081
-127.283	-0.188	-0.073	-0.051
-126.268	25.194	0.360	-0.292
-125.253	-200.000	0.010	0.315
-124.239	-52.929	-0.144	0.065
-123.224	-170.711	-0.159	-0.005
-122.210	58.031	0.282	0.269
-121.195	453.628	0.030	-0.065
-120.180	30.415	0.134	0.112
-119.166	454.414	0.079	0.171
-118.151	800.000	-0.023	-0.095
-117.137	43.419	0.199	0.177
-116.122	-200.000	0.001	0.066
-115.107	-103.579	0.114	-0.026
-114.093	-83.733	0.223	0.069
-113.078	-102.721	0.389	0.090
-112.064	-139.958	-0.115	-0.012
-111.049	49.462	-0.010	0.009
-110.034	22.142	0.255	-0.203
-109.020	-200.000	0.021	-0.199
-108.005	-200.000	0.029	-0.156
-106.991	-76.974	0.134	-0.046
-105.976	486.633	-0.048	-0.107
-104.962	-200.000	0.016	0.288
-103.947	-57.838	0.165	-0.070
-102.932	-200.000	0.031	0.256
-101.918	105.615	0.203	0.233
-100.903	-16.908	0.282	-0.174
-99.889	-200.000	0.014	0.327
-98.874	-21.937	0.181	0.107
-97.859	-88.872	-0.263	-0.076
-96.845	713.811	0.053	0.136
-95.830	-200.000	-0.029	-0.175
-94.816	242.457	-0.164	-0.268
-93.801	-200.000	-0.016	0.252
-92.786	-10.262	0.045	-0.029
-91.772	360.586	0.171	0.333
-90.757	-200.000	-0.051	0.337
-89.743	43.446	0.200	-0.178
-88.728	254.463	-0.040	0.066
-87.713	800.000	0.029	0.118
-86.699	35.913	0.132	0.113
-85.684	-200.000	-0.012	-0.211
-84.670	358.949	0.074	0.143
-83.655	-200.000	0.026	-0.225
-82.640	-108.710	-0.212	-0.044
-81.626	57.223	0.081	-0.077
-80.611	-32.903	0.076	-0.041
-79.597	-200.000	0.021	-0.144
-78.582	40.312	0.196	-0.172
-77.567	370.583	-0.072	0.141
-76.553	14.245	0.053	-0.040
-75.538	-200.000	-0.012	-0.177
-74.524	37.177	0.287	0.247
-73.509	-200.000	0.052	0.303
-72.494	38.941	0.105	0.091
-71.480	800.000	0.112	-0.373
-70.465	-99.043	0.064	-0.016
-69.451	3.065	-0.149	-0.105
-68.436	-200.000	0.006	-0.096
-67.422	210.597	0.170	-0.260
-66.407	224.691	0.165	0.260
-65.392	-116.021	0.299	0.054
-64.378	64.087	-0.145	0.142
-63.363	-52.466	-0.235	-0.106
-62.349	-103.942	-0.105	0.024
-61.334	119.504	-1.018	-1.227
-60.319	-47.799	0.897	0.423
-59.305	481.346	-0.583	-1.288
-58.290	219.560	0.769	1.197
-57.276	800.000	0.647	1.823
-56.261	-200.000	134.578	687.738
-55.246	348.121	1670.848	3203.418
-54.232	134.516	2802.963	3536.089
-53.217	89.694	2192.847	2380.097
-52.203	31.745	1707.607	1429.134
-51.188	24.564	1530.258	1231.352
-50.173	22.883	1506.916	1201.103
-49.159	47.673	1582.217	1435.457
-48.144	44.331	1592.971	1421.821
-47.130	24.720	1541.344	1241.164
-46.115	21.851	1525.297	1208.456
-45.100	21.685	1521.529	1204.281
-44.086	21.644	1519.558	1202.386
-43.071	21.528	1518.207	1200.480
-42.057	21.463	1516.770	1198.847
-41.042	21.463	1515.417	1197.728
-40.027	21.504	1513.635	1196.557
-39.013	21.538	1511.544	1195.086
-37.998	21.426	1511.233	1194.030
-36.984	21.517	1509.891	1193.541
-35.969	21.416	1508.801	1191.946
-34.954	21.460	1507.459	1191.135
-33.940	21.434	1506.396	1190.075
-32.925	21.517	1504.242	1188.887
-31.911	21.548	1502.928	1188.015
-30.896	21.502	1501.922	1186.859
-29.881	21.636	1501.073	1187.046
-28.867	21.680	1498.971	1185.635
-27.852	21.602	1497.697	1184.055
-26.838	21.671	1496.589	1183.601
-25.823	21.644	1494.455	1181.682
-24.809	21.656	1492.413	1180.098
-23.794	21.590	1491.776	1179.108
-22.779	21.553	1490.476	1177.784
-21.765	21.670	1489.515	1177.765
-20.750	21.626	1488.529	1176.640
-19.736	21.585	1487.495	1175.503
-18.721	21.660	1486.543	1175.209
-17.706	21.617	1485.407	1173.973
-16.692	21.612	1484.230	1172.962
-15.677	21.603	1483.503	1172.279
-14.663	21.596	1482.643	1171.505
-13.648	21.546	1481.755	1170.423
-12.633	21.558	1480.878	1169.764
-11.619	21.505	1480.168	1168.804
-10.604	21.509	1479.104	1167.944
-9.590	21.555	1477.866	1167.230
-8.575	21.599	1477.127	1166.890
-7.560	21.595	1476.353	1166.207
-6.546	21.611	1475.488	1165.583
-5.531	21.506	1474.583	1164.128
-4.517	21.504	1473.443	1163.167
-3.502	21.581	1472.220	1162.663
-2.487	21.504	1471.355	1161.423
-1.473	21.536	1470.574	1160.977
-0.458	21.524	1469.140	1159.716
0.556	20.536	1459.037	1148.338
1.571	17.201	1434.557	1107.272
2.586	13.585	1372.964	1037.046
3.600	12.120	1287.700	963.950
4.615	11.135	1243.806	925.414
5.629	9.836	1187.489	876.389
6.644	5.084	1107.456	793.134
7.659	1.288	1072.731	749.482
8.673	0.737	1067.686	743.181
9.688	0.726	1064.111	740.571
10.702	0.680	1062.910	739.444
11.717	0.638	1060.428	737.447
12.731	2.360	1060.340	745.722
13.746	7.652	1068.053	777.012
14.761	14.005	1076.078	813.990
15.775	16.998	1079.722	831.363
16.790	16.835	1079.174	830.068
17.804	15.925	1076.652	823.609
18.819	15.200	1074.444	818.309
19.834	14.744	1073.191	815.053
20.848	14.529	1072.311	813.269
21.863	14.305	1071.545	811.523
22.877	13.962	1071.297	809.589
23.892	13.846	1069.892	807.895
24.907	13.710	1068.921	806.429
25.921	13.774	1068.289	806.191
26.936	13.721	1068.158	805.764
27.950	13.778	1067.005	805.098
28.965	13.714	1066.259	804.155
29.980	13.717	1065.648	803.639
30.994	13.802	1064.260	802.932
32.009	13.994	1063.066	802.888
33.023	13.803	1062.705	801.618
34.038	13.941	1061.847	801.565
35.053	13.899	1061.052	800.693
36.067	13.900	1060.233	800.010
37.082	13.956	1059.126	799.372
38.096	13.793	1058.622	798.141
39.111	13.936	1057.806	798.137
40.126	14.012	1056.736	797.624
41.140	13.817	1056.222	796.231
42.155	13.914	1054.502	795.333
43.169	13.785	1054.062	794.312
44.184	13.638	1053.043	792.771
45.199	13.747	1051.950	792.397
46.213	13.717	1050.603	791.171
47.228	13.810	1049.812	790.948
48.242	13.828	1048.837	790.227
49.257	13.804	1047.912	789.345
50.271	13.785	1046.957	788.466
51.286	13.838	1045.667	787.679
52.301	13.815	1045.455	787.339
53.315	13.897	1044.305	786.793
54.330	13.839	1043.663	785.963
55.344	13.807	1042.670	784.994
56.359	13.800	1041.689	784.153
57.374	13.826	1040.796	783.535
58.388	13.773	1039.662	782.362
59.403	13.746	1039.137	781.773
60.417	13.801	1038.192	781.250
61.432	13.684	1037.870	780.390
62.447	13.676	1037.037	779.656
63.461	13.718	1035.963	778.975
64.476	13.650	1035.282	778.074
65.490	13.716	1034.070	777.403
66.505	13.694	1033.211	776.588
67.520	13.660	1032.482	775.811
68.534	13.897	1031.454	776.077
69.549	13.801	1030.836	775.096
70.563	13.757	1030.113	774.280
71.578	13.769	1029.530	773.830
72.593	13.721	1028.635	772.862
73.607	13.700	1027.428	771.792
74.622	13.630	1026.717	770.865
75.636	13.697	1025.564	770.241
76.651	13.610	1024.777	769.177
77.666	13.708	1024.078	769.037
78.680	13.676	1023.622	768.481
79.695	13.721	1022.984	768.141
80.709	13.624	1022.600	767.338
81.724	13.614	1021.793	766.615
82.739	13.730	1020.909	766.422
83.753	13.616	1020.258	765.338
84.768	13.839	1019.008	765.359
85.782	13.843	1018.422	764.871
86.797	13.910	1017.510	764.425
87.812	13.990	1016.173	763.723
88.826	13.805	1016.137	762.778
89.841	13.849	1015.021	762.074
90.855	13.891	1013.960	761.403
91.870	13.827	1013.394	760.619
92.884	13.974	1012.191	760.320
93.899	13.969	1011.941	760.041
94.914	13.808	1011.204	758.687
95.928	13.936	1010.476	758.657
96.943	14.014	1009.612	758.299
97.957	13.876	1008.415	756.702
98.972	13.929	1007.920	756.504
99.987	13.908	1006.910	755.583
101.001	13.947	1006.422	755.328
102.016	13.939	1005.349	754.422
103.030	13.979	1004.719	754.064
104.045	14.011	1003.732	753.400
105.060	13.956	1002.913	752.468
106.074	13.903	1001.799	751.328
107.089	13.847	1001.242	750.591
108.103	13.769	1000.217	749.405
109.118	13.702	999.320	748.364
110.133	13.669	998.861	747.806
111.147	13.848	997.666	747.651
112.162	13.901	997.037	747.348
113.176	13.834	996.113	746.289
114.191	13.854	995.037	745.506
115.206	13.879	994.333	745.026
116.220	13.848	993.222	743.988
117.235	13.928	992.447	743.701
118.249	13.923	991.565	742.950
119.264	13.886	991.119	742.385
120.279	13.936	989.689	741.471
121.293	13.933	989.037	740.906
122.308	13.806	988.509	739.879
123.322	13.786	987.843	739.227
124.337	13.823	986.373	738.224
125.352	13.749	985.457	737.144
126.366	13.646	984.557	735.947
127.381	13.686	983.513	735.282
128.395	13.794	982.460	734.906
129.410	13.832	981.266	734.118
130.424	13.731	980.479	733.015
131.439	13.808	979.642	732.666
132.454	13.797	978.362	731.598
133.468	13.723	978.453	731.273
134.483	13.830	977.421	730.908
135.497	13.903	976.479	730.461
136.512	13.789	975.962	729.505
137.527	13.752	975.111	728.642
138.541	13.830	974.067	728.141
139.556	13.955	973.392	728.122
140.570	13.896	973.188	727.644
141.585	13.911	972.060	726.801
142.600	14.016	971.306	726.634
143.614	13.886	970.907	725.703
144.629	13.939	970.405	725.495
145.643	14.103	968.998	725.094
146.658	14.171	968.423	724.896
147.673	14.046	967.241	723.402
148.687	13.951	966.431	722.320
149.702	14.013	965.676	721.961
150.716	14.020	964.758	721.243
151.731	13.991	964.069	720.538
152.746	14.074	963.096	720.104
153.760	13.876	963.100	719.188
154.775	14.052	961.782	718.899
155.789	14.067	960.867	718.219
156.804	14.197	959.943	718.025
157.819	14.166	959.558	717.539
158.833	14.110	958.672	716.572
159.848	14.127	958.421	716.393
160.862	14.220	957.284	715.881
161.877	14.147	956.929	715.237
162.892	13.978	956.384	714.043
163.906	14.218	954.842	713.855
164.921	14.170	954.064	713.006
165.935	14.038	953.326	711.826
166.950	14.120	952.316	711.359
167.964	14.105	951.214	710.409
168.979	14.140	950.502	709.964
169.994	14.057	949.614	708.886
171.008	14.249	948.915	709.120
172.023	14.232	948.258	708.494
173.037	14.206	946.966	707.352
174.052	14.162	947.087	707.196
175.067	14.280	945.636	706.548
176.081	14.242	944.975	705.831
177.096	14.230	943.840	704.871
178.110	14.335	943.125	704.721
179.125	14.350	942.387	704.170
180.140	14.300	941.587	703.299
181.154	14.327	940.856	702.804
182.169	14.345	940.447	702.512
183.183	14.324	939.556	701.696
184.198	14.416	938.773	701.434
185.213	14.528	937.809	701.123
186.227	14.315	937.450	699.899
187.242	14.498	936.905	700.196
188.256	14.517	936.440	699.869
189.271	14.608	935.587	699.551
190.286	14.419	935.089	698.322
191.300	14.451	933.813	697.445
192.315	14.452	933.130	696.874
193.329	14.528	932.750	696.849
194.344	14.471	932.290	696.203
195.359	14.478	931.557	695.625
196.373	14.400	931.032	694.846
197.388	14.425	930.259	694.311
198.402	14.643	929.478	694.574
199.417	14.767	929.033	694.696
200.432	14.642	929.078	694.148
201.446	14.596	928.559	693.510
202.461	14.736	928.105	693.691
203.475	14.719	927.472	693.082
204.490	14.704	926.609	692.317
205.504	14.709	925.646	691.555
206.519	14.591	925.226	690.692
207.534	14.555	924.452	689.904
208.548	14.698	923.632	689.821
209.563	14.724	922.950	689.359
210.577	14.733	922.015	688.639
211.592	14.692	921.521	688.038
212.607	14.803	920.845	687.930
213.621	14.811	920.098	687.342
214.636	14.885	919.464	687.112
215.650	14.762	918.593	685.898
216.665	14.951	918.012	686.179
217.680	14.959	917.985	686.128
218.694	14.969	917.414	685.682
219.709	14.814	917.017	684.692
220.723	14.977	915.974	684.517
221.738	14.869	915.441	683.619
222.753	14.948	914.529	683.200
223.767	15.027	913.718	682.853
224.782	14.951	913.061	681.994
225.796	15.111	912.064	681.841
226.811	15.250	911.096	681.622
227.826	15.033	911.235	680.784
228.840	15.038	910.602	680.270
229.855	14.921	909.782	679.121
230.869	15.031	908.661	678.670
231.884	14.888	908.576	677.966
232.899	15.061	907.629	677.902
233.913	14.998	907.427	677.437
234.928	15.016	906.252	676.571
235.942	15.073	905.678	676.315
236.957	15.034	905.123	675.683
237.972	15.055	904.733	675.416
238.986	15.075	903.799	674.738
240.001	14.948	903.828	674.189
241.015	15.095	902.358	673.623
242.030	15.094	901.580	672.980
243.045	15.280	900.805	673.090
244.059	15.172	900.818	672.607
245.074	15.334	899.701	672.362
246.088	15.119	899.548	671.328
247.103	15.254	898.593	671.095
248.117	15.262	898.533	671.024
249.132	15.368	897.320	670.479
250.147	15.326	897.034	670.041
251.161	15.388	896.004	669.459
252.176	15.516	895.171	669.285
253.190	15.445	894.956	668.785
254.205	15.496	893.890	668.132
255.220	15.593	893.685	668.305
256.234	15.471	892.932	667.198
257.249	15.487	892.589	666.944
258.263	15.515	892.043	666.591
259.278	15.465	891.730	666.098
260.293	15.530	890.860	665.646
261.307	15.598	890.292	665.432
262.322	15.709	889.384	665.137
263.336	15.696	888.969	664.715
264.351	15.883	887.904	664.597
265.366	15.848	887.138	663.829
266.380	15.683	886.845	662.899
267.395	15.802	886.302	662.902
268.409	15.792	885.319	662.071
269.424	15.853	884.301	661.490
270.439	15.874	883.751	661.104
271.453	15.773	883.290	660.303
272.468	15.793	882.413	659.668
273.482	15.677	882.041	658.876
274.497	15.831	881.222	658.808
275.512	15.833	880.594	658.288
276.526	15.907	879.790	657.920
277.541	15.885	878.675	656.943
278.555	16.018	878.253	657.088
279.570	15.775	878.029	655.913
280.585	16.104	877.533	656.767
281.599	15.888	876.859	655.364
282.614	15.987	876.047	655.084
283.628	15.899	875.748	654.459
284.643	15.952	875.341	654.302
285.657	15.929	874.731	653.701
286.672	15.923	874.290	653.290
287.687	16.028	873.949	653.383
288.701	16.010	873.208	652.704
289.716	16.141	872.542	652.655
290.730	16.048	871.712	651.614
291.745	16.103	871.430	651.559
292.760	16.002	870.875	650.699
293.774	16.161	869.897	650.523
294.789	16.099	869.450	649.892
295.803	16.292	868.561	649.913
296.818	16.204	868.071	649.149
297.833	16.134	867.186	648.163
298.847	16.205	866.429	647.810
299.862	16.132	865.984	647.142
300.876	16.310	864.918	646.970
301.891	16.356	864.244	646.585
302.906	16.302	863.616	645.851
303.920	16.262	863.033	645.205
304.935	16.335	862.729	645.198
305.949	16.357	861.937	644.633
306.964	16.547	860.874	644.503
307.979	16.576	860.491	644.272
308.993	16.355	860.559	643.423
310.008	16.381	860.008	643.054
311.022	16.599	859.230	643.243
312.037	16.459	858.679	642.242
313.052	16.326	858.704	641.698
314.066	16.404	857.840	641.293
315.081	16.328	857.229	640.493
316.095	16.384	856.795	640.323
317.110	16.388	856.285	639.900
318.125	16.314	855.634	639.076
319.139	16.473	854.837	639.024
320.154	16.603	854.274	639.038
321.168	16.597	853.714	638.540
322.183	16.557	853.303	638.026
323.197	16.561	852.705	637.539
324.212	16.551	852.395	637.214
325.227	16.518	851.985	636.725
326.241	16.626	850.877	636.246
327.256	16.728	850.178	636.051
328.270	16.563	850.398	635.540
329.285	16.509	849.650	634.723
330.300	16.541	848.810	634.156
331.314	16.641	848.473	634.225
332.329	16.743	847.442	633.781
333.343	16.551	847.054	632.715
334.358	16.749	846.470	632.963
335.373	16.820	845.576	632.504
336.387	16.693	845.277	631.750
337.402	16.675	845.173	631.549
338.416	16.775	844.631	631.463
339.431	16.861	843.576	630.939
340.446	16.834	843.212	630.510
341.460	16.879	842.461	630.057
342.475	16.838	842.461	629.849
343.489	16.903	842.113	629.776
344.504	16.932	841.136	629.099
345.519	16.873	840.364	628.246
346.533	16.889	840.283	628.189
347.548	16.939	839.591	627.803
348.562	16.978	839.267	627.649
349.577	16.949	838.497	626.907
350.592	16.994	837.853	626.538
351.606	16.958	837.357	625.977
352.621	17.006	837.221	626.000
353.635	16.848	836.985	625.184
354.650	17.000	836.408	625.258
355.665	17.103	835.782	625.113
356.679	17.015	835.413	624.458
357.694	17.173	834.710	624.457
358.708	17.136	834.419	624.051
359.723	17.060	833.589	623.094
360.738	17.141	832.932	622.844
361.752	17.099	832.193	622.084
362.767	17.113	832.320	622.176
363.781	17.182	831.645	621.868
364.796	17.119	831.535	621.501
365.810	17.270	830.768	621.426
366.825	17.398	830.251	621.452
367.840	17.325	829.818	620.806
368.854	17.371	829.475	620.660
369.869	17.491	828.843	620.571
370.883	17.407	828.438	619.905
371.898	17.359	827.879	619.260
372.913	17.276	827.276	618.449
373.927	17.394	826.629	618.340
374.942	17.469	825.897	618.012
375.956	17.467	825.150	617.392
376.971	17.527	824.451	617.032
377.986	17.442	824.508	616.710
379.000	17.508	823.908	616.447
380.015	17.602	823.129	616.149
381.029	17.662	822.674	615.970
382.044	17.472	822.192	614.868
383.059	17.664	821.808	615.220
384.073	17.538	821.392	614.398
385.088	17.733	820.486	614.371
386.102	17.696	819.972	613.798
387.117	17.438	819.650	612.574
388.132	17.616	818.892	612.592
389.146	17.603	818.493	612.195
390.161	17.541	818.269	611.750
391.175	17.618	817.826	611.641
392.190	17.716	817.381	611.603
393.205	17.720	817.185	611.417
394.219	17.720	816.603	610.928
395.234	17.734	815.966	610.447
396.248	17.670	815.395	609.737
397.263	17.651	815.028	609.343
398.278	17.619	814.653	608.892
399.292	17.668	813.992	608.521
400.307	17.743	813.737	608.542
401.321	17.711	813.216	607.986
402.336	17.786	812.672	607.794
403.350	17.729	812.561	607.453
404.365	17.806	811.990	607.245
405.380	17.758	811.450	606.618
406.394	17.937	811.169	606.992
407.409	17.878	810.627	606.322
408.423	17.916	810.425	606.253
409.438	17.942	809.749	605.783
410.453	18.149	808.962	605.874
411.467	18.038	808.906	605.387
412.482	17.943	808.306	604.548
413.496	18.137	807.636	604.679
414.511	18.109	807.416	604.363
415.526	18.096	807.218	604.115
416.540	18.082	806.780	603.684
417.555	18.117	806.544	603.579
418.569	18.194	805.969	603.367
419.584	18.058	805.594	602.551
420.599	18.250	804.824	602.601
421.613	115.306	1300.081	1489.488
422.628	99.590	1372.194	1489.542
