DTS Sentinel unit serial number:	SN413079Multiplexer serial number:	ORYXHardware model number:	OX4-SRSoftware version number:	ORYX F/W v4.00 Oryx Data Collector v3.7.2.0data status	okinstallation	princeton_trtdifferential loss correction	single-endedforward channel	channel 3reverse channel	N/Adate	2019/09/18time	22:52:35forward acquisition time	60.00reverse acquisition time	0.00gamma	496.2192k internal	0.2344k external	0.2344temperature offset calibration	0.9996default loss term (dB/km)	0.3790temperature slope calibration	1.0000multiplexer offset coefficient	1.0000multiplexer slope coefficient	1.0000fibre end	0.00T internal ref (°C)	24.06T ext. ref 1 (°C)	0.79T ext. ref 2 (°C)	18.00length (m)	temperature (°C)	Stokes	anti-Stokes-747.200	60.006	0.020	0.019
-746.185	-73.820	-0.268	0.097
-745.171	-200.000	-0.026	0.237
-744.156	605.625	0.075	0.187
-743.142	-94.681	0.095	-0.026
-742.127	-49.782	-0.219	-0.104
-741.112	-54.423	-0.110	-0.050
-740.098	26.785	-0.233	0.196
-739.083	-78.677	0.558	0.191
-738.069	-200.000	0.020	0.366
-737.054	51.227	-0.268	-0.255
-736.039	-200.000	0.008	0.223
-735.025	517.561	0.173	0.404
-734.010	-60.896	-0.043	0.018
-732.996	-11.521	-0.088	0.058
-731.981	97.668	-0.078	-0.090
-730.966	-135.863	-0.315	0.037
-729.952	59.506	0.123	-0.121
-728.937	8.000	0.170	-0.128
-727.923	-44.070	-0.086	-0.043
-726.908	-200.000	-0.020	-0.159
-725.894	318.875	-0.134	0.254
-724.879	-45.910	0.059	-0.029
-723.864	315.423	-0.076	-0.144
-722.850	-100.147	0.182	0.045
-721.835	800.000	0.025	0.103
-720.821	-200.000	0.010	-0.241
-719.806	-200.000	-0.042	0.192
-718.791	161.074	0.178	0.249
-717.777	-69.518	0.044	-0.017
-716.762	800.000	-0.066	-0.195
-715.748	-147.385	0.219	-0.019
-714.733	-52.002	-0.125	-0.058
-713.718	800.000	0.012	-0.040
-712.704	-161.791	0.180	-0.009
-711.689	442.856	0.087	0.191
-710.675	-200.000	0.028	-0.458
-709.660	9.532	0.343	-0.259
-708.645	-14.204	-0.152	0.098
-707.631	-41.713	-0.242	-0.124
-706.616	-200.000	0.001	-0.027
-705.602	-200.000	-0.042	-0.465
-704.587	-83.680	-0.081	0.026
-703.572	-200.000	0.000	-0.004
-702.558	-200.000	-0.062	-0.324
-701.543	56.661	-0.184	-0.179
-700.529	27.501	0.068	-0.057
-699.514	433.942	0.134	-0.292
-698.499	-118.263	0.145	0.026
-697.485	-46.778	0.124	-0.061
-696.470	800.000	0.052	-0.161
-695.456	-13.351	-0.334	-0.216
-694.441	191.417	0.064	0.096
-693.426	-122.252	-0.164	-0.027
-692.412	711.100	-0.047	0.125
-691.397	54.105	0.149	0.143
-690.383	201.691	0.016	-0.025
-689.368	-99.168	-0.009	-0.002
-688.354	-71.121	0.156	-0.059
-687.339	-20.429	0.312	-0.191
-686.324	75.828	-0.175	-0.185
-685.310	-72.795	-0.088	-0.032
-684.295	520.430	0.111	0.260
-683.281	-200.000	-0.003	-0.372
-682.266	2.775	-0.448	-0.325
-681.251	-200.000	-0.019	0.304
-680.237	-76.686	-0.348	0.122
-679.222	800.000	0.103	-0.297
-678.208	203.760	-0.103	0.159
-677.193	61.787	-0.354	0.352
-676.178	81.146	-0.283	-0.305
-675.164	-36.719	-0.268	-0.144
-674.149	-200.000	-0.028	-0.192
-673.135	-200.000	-0.026	-0.150
-672.120	-111.976	-0.335	-0.067
-671.105	63.598	-0.142	-0.142
-670.091	800.000	-0.059	0.192
-669.076	509.872	-0.118	0.275
-668.062	800.000	-0.080	-0.336
-667.047	-62.450	-0.131	-0.054
-666.032	241.053	0.107	0.179
-665.018	-137.204	0.227	-0.026
-664.003	-64.335	0.357	-0.145
-662.989	22.574	0.123	0.101
-661.974	-197.368	0.397	-0.002
-660.959	-104.158	-0.333	-0.077
-659.945	358.125	-0.124	0.248
-658.930	-60.887	-0.512	0.216
-657.916	-121.687	-0.166	0.027
-656.901	531.943	-0.138	-0.326
-655.886	-86.411	0.072	0.022
-654.872	-186.347	0.134	0.002
-653.857	-42.975	-0.065	0.033
-652.843	19.364	0.128	0.103
-651.828	-115.036	0.106	-0.020
-650.814	-11.160	0.171	0.112
-649.799	800.000	-0.089	-0.249
-648.784	335.461	-0.066	0.127
-647.770	-96.128	-0.388	0.103
-646.755	-48.628	0.091	0.044
-645.741	-200.000	0.028	-0.125
-644.726	786.039	-0.180	-0.493
-643.711	105.021	0.079	0.093
-642.697	-122.832	0.372	-0.060
-641.682	15.508	0.155	-0.121
-640.668	723.978	-0.037	0.099
-639.653	-62.143	0.076	-0.032
-638.638	258.993	0.125	-0.214
-637.624	-163.377	-0.115	-0.005
-636.609	34.569	-0.321	0.280
-635.595	77.275	-0.112	0.119
-634.580	-51.838	-0.105	-0.049
-633.565	203.677	-0.052	0.081
-632.551	-200.000	0.016	-0.367
-631.536	-200.000	0.038	0.475
-630.522	-155.146	-0.239	0.016
-629.507	-200.000	0.020	0.102
-628.492	-200.000	0.021	0.153
-627.478	-77.128	-0.243	-0.084
-626.463	279.178	-0.097	0.173
-625.449	495.756	0.082	-0.188
-624.434	26.314	-0.279	-0.232
-623.419	-132.343	0.236	0.030
-622.405	65.875	-0.116	-0.117
-621.390	-58.317	0.194	0.084
-620.376	337.421	-0.060	-0.115
-619.361	-194.508	-0.238	-0.002
-618.346	-130.740	-0.205	-0.027
-617.332	11.627	-0.139	-0.106
-616.317	-87.624	0.203	-0.061
-615.303	800.000	-0.033	0.101
-614.288	68.099	-0.122	0.124
-613.273	-45.674	-0.096	0.047
-612.259	113.774	0.154	0.187
-611.244	-200.000	-0.008	0.081
-610.230	159.223	-0.105	-0.146
-609.215	301.857	0.009	0.017
-608.201	-200.000	0.002	-0.192
-607.186	800.000	-0.097	-0.282
-606.171	-200.000	0.070	0.340
-605.157	-200.000	0.017	0.161
-604.142	-167.041	-0.048	0.002
-603.128	150.754	0.088	-0.120
-602.113	-200.000	0.008	-0.118
-601.098	-200.000	0.008	0.079
-600.084	102.504	-0.394	0.459
-599.069	5.083	-0.053	0.039
-598.055	39.587	-0.292	-0.260
-597.040	-118.413	0.030	0.005
-596.025	558.160	0.161	-0.386
-595.011	-200.000	-0.014	-0.169
-593.996	-62.718	0.064	-0.026
-592.982	279.957	-0.071	0.126
-591.967	3.253	0.141	-0.102
-590.952	428.892	0.080	-0.171
-589.938	-168.397	0.183	0.007
-588.923	-14.583	-0.184	0.117
-587.909	800.000	0.064	0.242
-586.894	206.823	0.151	0.234
-585.879	26.845	0.157	0.131
-584.865	-200.000	0.029	-0.279
-583.850	318.963	-0.041	-0.077
-582.836	380.344	0.094	0.192
-581.821	182.030	-0.170	0.249
-580.806	-200.000	-0.017	0.200
-579.792	-92.467	-0.129	0.036
-578.777	111.505	-0.033	-0.040
-577.763	-200.000	-0.007	-0.060
-576.748	800.000	0.045	-0.183
-575.733	32.919	-0.022	0.019
-574.719	-131.906	0.209	0.027
-573.704	80.571	-0.290	-0.310
-572.690	92.375	-0.335	-0.376
-571.675	298.989	-0.020	-0.036
-570.661	-200.000	-0.004	0.031
-569.646	-104.206	-0.113	0.026
-568.631	800.000	0.076	0.281
-567.617	590.240	0.035	-0.086
-566.602	46.762	0.367	-0.339
-565.588	85.802	0.232	-0.254
-564.573	135.535	0.136	0.176
-563.558	8.062	-0.204	0.152
-562.544	-200.000	0.016	0.093
-561.529	800.000	0.091	-0.312
-560.515	-79.774	-0.233	0.078
-559.500	550.195	0.039	0.092
-558.485	2.972	0.165	0.119
-557.471	-200.000	-0.033	0.254
-556.456	109.208	-0.093	-0.111
-555.442	397.224	0.184	0.383
-554.427	-200.000	-0.069	0.408
-553.412	-37.766	0.066	-0.035
-552.398	-200.000	-0.022	0.138
-551.383	800.000	-0.084	0.254
-550.369	800.000	-0.042	-0.137
-549.354	-101.268	0.083	-0.020
-548.339	117.450	0.058	0.071
-547.325	-200.000	0.002	0.306
-546.310	311.440	-0.148	-0.275
-545.296	-124.522	-0.301	-0.046
-544.281	223.784	-0.080	-0.128
-543.266	-200.000	-0.009	0.501
-542.252	114.858	0.228	-0.276
-541.237	-200.000	-0.042	-0.205
-540.223	386.704	0.158	0.324
-539.208	-107.656	-0.092	-0.020
-538.193	-76.267	0.086	-0.030
-537.179	21.916	-0.292	0.236
-536.164	-200.000	0.019	-0.318
-535.150	33.229	-0.159	0.137
-534.135	-56.942	0.129	-0.056
-533.121	-147.648	0.372	-0.031
-532.106	800.000	-0.092	-0.308
-531.091	-200.000	-0.027	0.127
-530.077	800.000	-0.086	0.356
-529.062	-102.482	0.087	0.021
-528.048	481.329	0.057	-0.128
-527.033	-86.417	0.212	-0.065
-526.018	-127.327	0.234	0.034
-525.004	-118.071	-0.020	-0.004
-523.989	107.166	0.104	-0.123
-522.975	17.345	-0.198	-0.156
-521.960	-112.368	-0.252	-0.050
-520.945	-35.534	-0.282	-0.152
-519.931	-151.914	0.160	0.012
-518.916	120.783	0.142	0.175
-517.902	-200.000	-0.015	-0.064
-516.887	-188.807	-0.343	-0.004
-515.872	36.784	-0.152	-0.133
-514.858	222.961	0.089	-0.142
-513.843	59.069	-0.156	-0.152
-512.829	800.000	0.085	-0.265
-511.814	-200.000	0.003	-0.316
-510.799	-14.248	-0.183	0.117
-509.785	-85.274	0.343	0.106
-508.770	-200.000	0.008	-0.120
-507.756	-73.067	-0.145	0.053
-506.741	-59.370	0.216	-0.092
-505.726	-170.200	-0.137	0.005
-504.712	-4.479	-0.194	-0.133
-503.697	366.516	-0.132	0.263
-502.683	43.348	-0.199	0.180
-501.668	45.172	0.088	-0.080
-500.653	800.000	-0.046	0.193
-499.639	-59.003	0.218	-0.093
-498.624	284.591	0.059	0.104
-497.610	373.315	0.165	-0.333
-496.595	49.920	-0.101	0.094
-495.581	-7.605	0.147	0.099
-494.566	-58.003	-0.383	-0.166
-493.551	56.792	0.127	-0.123
-492.537	-80.266	-0.112	0.037
-491.522	-200.000	0.008	-0.055
-490.508	-104.906	-0.318	0.072
-489.493	800.000	-0.057	0.178
-488.478	-42.484	-0.142	0.072
-487.464	800.000	-0.053	0.206
-486.449	-200.000	-0.053	0.287
-485.435	-5.902	0.259	-0.176
-484.420	800.000	-0.080	-0.327
-483.405	-200.000	-0.002	-0.015
-482.391	-170.658	0.160	-0.005
-481.376	33.430	-0.083	-0.072
-480.362	536.823	0.047	0.111
-479.347	-68.980	0.439	0.168
-478.332	-14.622	-0.108	0.069
-477.318	-1.076	0.186	-0.130
-476.303	96.479	-0.146	0.166
-475.289	618.619	0.053	0.131
-474.274	800.000	-0.052	-0.219
-473.259	-117.532	-0.293	-0.052
-472.245	-20.221	0.111	0.068
-471.230	27.437	0.197	0.164
-470.216	-67.322	-0.054	0.021
-469.201	-200.000	0.036	-0.201
-468.186	150.108	-0.125	-0.168
-467.172	-79.950	-0.267	0.089
-466.157	355.654	-0.018	0.036
-465.143	-6.934	-0.214	0.144
-464.128	-174.482	0.110	-0.003
-463.113	23.420	-0.148	-0.120
-462.099	-143.378	0.216	-0.020
-461.084	-17.552	-0.310	-0.193
-460.070	-91.204	-0.096	0.027
-459.055	-66.476	-0.305	0.120
-458.040	800.000	0.115	-0.380
-457.026	800.000	-0.056	0.215
-456.011	-200.000	0.005	-0.054
-454.997	485.068	0.053	-0.119
-453.982	382.880	0.041	-0.084
-452.968	-148.797	-0.313	0.025
-451.953	70.619	0.211	-0.216
-450.938	88.606	0.166	0.183
-449.924	-103.810	-0.090	-0.021
-448.909	-158.872	0.187	0.011
-447.895	-169.252	-0.231	0.008
-446.880	56.064	-0.221	-0.212
-445.865	343.460	-0.107	-0.208
-444.851	-39.268	-0.231	-0.120
-443.836	-200.000	-0.017	-0.207
-442.822	3.848	0.039	0.028
-441.807	-200.000	0.005	-0.086
-440.792	-18.674	-0.092	0.057
-439.778	41.608	0.056	-0.050
-438.763	800.000	-0.051	0.208
-437.749	168.259	-0.167	-0.235
-436.734	-200.000	0.058	0.340
-435.719	63.875	-0.103	0.102
-434.705	-200.000	-0.011	0.000
-433.690	-35.434	-0.145	-0.078
-432.676	28.592	-0.333	0.278
-431.661	-121.278	0.333	-0.055
-430.646	-112.876	0.177	0.035
-429.632	800.000	-0.015	-0.047
-428.617	239.646	0.120	-0.198
-427.603	33.953	-0.302	0.260
-426.588	-200.000	-0.028	0.129
-425.573	-100.610	0.435	0.106
-424.559	26.984	-0.066	0.055
-423.544	800.000	0.076	-0.239
-422.530	-76.624	0.206	-0.071
-421.515	23.517	-0.151	0.123
-420.500	403.770	-0.084	-0.174
-419.486	212.128	0.073	0.113
-418.471	-16.617	-0.413	-0.258
-417.457	-54.525	0.098	-0.044
-416.442	-200.000	-0.004	0.184
-415.428	128.202	0.256	-0.322
-414.413	320.111	-0.040	-0.075
-413.398	220.146	-0.106	0.167
-412.384	-1.503	0.120	0.083
-411.369	-91.986	-0.229	-0.064
-410.355	138.942	0.258	-0.335
-409.340	61.654	-0.292	0.287
-408.325	-40.843	0.211	-0.108
-407.311	212.834	0.114	-0.177
-406.296	13.616	0.189	0.145
-405.282	-69.059	0.182	0.069
-404.267	256.269	0.087	0.147
-403.252	50.687	0.117	0.110
-402.238	-90.683	-0.254	0.072
-401.223	-42.719	-0.056	0.028
-400.209	-56.951	0.391	0.170
-399.194	41.296	-0.111	-0.099
-398.179	305.921	0.068	-0.124
-397.165	-200.000	-0.015	-0.139
-396.150	-155.049	0.305	0.020
-395.136	91.165	0.238	-0.264
-394.121	603.908	-0.153	-0.375
-393.106	-148.554	-0.237	-0.019
-392.092	800.000	0.037	0.141
-391.077	-165.056	0.186	0.008
-390.063	678.002	-0.056	-0.143
-389.048	-14.319	-0.168	0.107
-388.033	-168.084	0.265	-0.010
-387.019	-44.344	-0.252	0.125
-386.004	1.904	0.291	-0.207
-384.990	-200.000	-0.024	-0.255
-383.975	-200.000	0.002	0.094
-382.960	-200.000	0.049	0.386
-381.946	-36.887	0.294	0.156
-380.931	-52.933	0.071	-0.032
-379.917	800.000	0.047	-0.183
-378.902	-35.196	-0.167	-0.090
-377.888	154.877	-0.230	-0.312
-376.873	800.000	-0.056	0.194
-375.858	309.995	0.101	-0.186
-374.844	38.146	0.030	-0.026
-373.829	-200.000	-0.044	-0.262
-372.815	51.682	-0.285	0.268
-371.800	-25.698	-0.230	0.134
-370.785	-43.211	-0.144	0.072
-369.771	-22.804	-0.254	-0.151
-368.756	11.303	-0.148	0.112
-367.742	-20.714	-0.162	-0.098
-366.727	174.509	-0.204	-0.290
-365.712	-28.427	0.114	-0.065
-364.698	-100.486	-0.373	-0.091
-363.683	681.272	-0.075	0.192
-362.669	-42.991	0.145	-0.073
-361.654	-140.853	-0.150	-0.015
-360.639	-27.325	-0.139	0.080
-359.625	737.696	0.253	-0.669
-358.610	-101.970	-0.210	-0.050
-357.596	274.305	0.105	-0.183
-356.581	-99.184	-0.158	0.039
-355.566	84.434	-0.390	-0.421
-354.552	-200.000	0.250	-0.001
-353.537	280.785	0.182	0.321
-352.523	-31.801	0.176	0.097
-351.508	112.059	0.184	-0.220
-350.493	-33.440	0.400	-0.218
-349.479	177.058	-0.243	-0.349
-348.464	800.000	-0.081	0.287
-347.450	4.472	-0.106	-0.076
-346.435	-200.000	0.034	0.185
-345.420	-45.275	-0.245	0.120
-344.406	800.000	0.050	-0.143
-343.391	53.834	-0.123	-0.117
-342.377	-200.000	0.037	0.260
-341.362	-67.613	-0.101	-0.039
-340.348	138.040	0.138	0.178
-339.333	110.373	0.132	-0.156
-338.318	-91.211	0.255	-0.072
-337.304	800.000	0.052	0.167
-336.289	-110.037	0.364	-0.075
-335.275	800.000	0.028	0.100
-334.260	-200.000	-0.075	-0.353
-333.245	280.106	0.080	0.141
-332.231	-139.691	0.600	0.063
-331.216	18.009	-0.251	-0.197
-330.202	800.000	-0.084	0.250
-329.187	800.000	-0.127	0.352
-328.172	-83.701	0.155	0.049
-327.158	-200.000	-0.006	0.054
-326.143	-38.885	0.474	0.246
-325.129	-87.670	-0.352	-0.105
-324.114	60.145	0.247	0.241
-323.099	-200.000	0.039	-0.180
-322.085	276.132	-0.053	0.092
-321.070	-21.580	-0.045	-0.027
-320.056	-71.418	0.280	-0.103
-319.041	182.022	-0.164	0.238
-318.026	-92.716	0.480	0.132
-317.012	318.777	-0.056	0.105
-315.997	-142.501	0.365	-0.035
-314.983	-132.186	-0.397	-0.051
-313.968	-101.825	-0.064	-0.015
-312.953	-200.000	0.017	0.216
-311.939	-181.431	-0.146	-0.003
-310.924	800.000	0.027	-0.088
-309.910	372.213	-0.058	0.115
-308.895	-200.000	0.000	-0.162
-307.880	284.593	-0.173	0.307
-306.866	-200.000	0.010	-0.097
-305.851	-1.509	-0.065	-0.045
-304.837	-200.000	0.006	-0.102
-303.822	-200.000	0.004	0.074
-302.807	-200.000	0.013	0.217
-301.793	256.113	0.104	0.176
-300.778	385.654	-0.241	-0.489
-299.764	-200.000	0.035	-0.247
-298.749	-38.700	0.417	-0.216
-297.735	800.000	-0.129	-0.386
-296.720	5.686	-0.391	0.284
-295.705	236.543	0.128	0.208
-294.691	455.460	0.141	0.308
-293.676	-85.620	0.120	0.037
-292.662	-200.000	-0.005	0.146
-291.647	-200.000	0.013	0.118
-290.632	-82.276	-0.422	0.135
-289.618	-79.272	0.183	0.061
-288.603	-20.152	0.106	0.064
-287.589	360.837	0.126	-0.248
-286.574	-128.348	0.241	-0.034
-285.559	-89.831	-0.124	-0.036
-284.545	800.000	0.132	0.433
-283.530	800.000	-0.077	-0.243
-282.516	-200.000	-0.030	-0.214
-281.501	-142.625	-0.214	-0.021
-280.486	-49.753	0.104	-0.049
-279.472	-200.000	-0.026	0.128
-278.457	800.000	0.032	-0.090
-277.443	-200.000	-0.019	0.090
-276.428	-16.732	0.191	-0.119
-275.413	282.637	-0.125	-0.220
-274.399	-200.000	0.022	0.165
-273.384	149.368	-0.053	-0.071
-272.370	635.039	-0.039	-0.096
-271.355	120.465	0.244	-0.297
-270.340	-36.202	0.295	-0.156
-269.326	-174.618	-0.276	0.008
-268.311	-95.578	0.136	0.036
-267.297	-200.000	-0.006	-0.408
-266.282	-90.683	0.282	0.080
-265.267	104.739	0.117	-0.136
-264.253	-53.363	-0.064	-0.029
-263.238	-92.304	0.368	0.102
-262.224	150.215	0.045	-0.059
-261.209	-66.859	0.089	0.034
-260.195	34.580	0.225	0.193
-259.180	-148.931	0.122	0.010
-258.165	-156.866	-0.073	-0.004
-257.151	148.715	-0.064	0.085
-256.136	-52.510	-0.209	0.095
-255.122	-102.101	-0.127	0.030
-254.107	-94.939	-0.068	-0.018
-253.092	-19.494	0.139	-0.084
-252.078	-39.472	0.163	-0.084
-251.063	3.989	-0.205	-0.147
-250.049	-79.330	0.210	0.070
-249.034	-119.919	-0.153	-0.026
-248.019	25.050	-0.155	0.126
-247.005	2.813	-0.146	0.104
-245.990	132.751	0.167	0.211
-244.976	800.000	0.059	-0.194
-243.961	-62.825	0.238	-0.097
-242.946	166.030	0.199	0.277
-241.932	-32.293	-0.090	0.049
-240.917	-200.000	0.066	-0.322
-239.903	62.781	-0.072	0.071
-238.888	-200.000	-0.017	0.441
-237.873	-88.685	0.160	-0.047
-236.859	80.589	0.136	-0.144
-235.844	-100.555	-0.071	0.017
-234.830	800.000	-0.053	-0.163
-233.815	-78.166	0.206	-0.070
-232.800	127.779	-0.163	-0.203
-231.786	63.362	-0.037	0.036
-230.771	313.236	0.185	0.342
-229.757	358.186	0.095	-0.185
-228.742	-200.000	-0.016	-0.097
-227.727	800.000	-0.108	0.451
-226.713	324.650	-0.102	0.190
-225.698	-94.312	0.184	-0.049
-224.684	-96.198	0.326	-0.085
-223.669	-200.000	-0.011	0.200
-222.655	-3.024	0.153	0.105
-221.640	-89.154	-0.186	0.054
-220.625	-4.821	0.345	0.234
-219.611	14.008	0.341	0.260
-218.596	7.640	0.311	0.228
-217.582	-200.000	-0.020	-0.129
-216.567	22.013	-0.235	-0.188
-215.552	-200.000	0.026	-0.460
-214.538	-27.348	0.367	0.209
-213.523	-55.048	-0.345	0.152
-212.509	300.472	0.122	-0.221
-211.494	93.391	-0.258	0.287
-210.479	-65.127	-0.187	0.074
-209.465	256.523	-0.125	0.210
-208.450	101.009	-0.321	-0.366
-207.436	262.491	0.036	-0.062
-206.421	-200.000	0.052	-0.249
-205.406	-164.359	-0.247	-0.011
-204.392	-110.744	0.326	-0.066
-203.377	-200.000	0.023	0.152
-202.363	276.835	-0.088	0.154
-201.348	461.716	-0.037	0.082
-200.333	800.000	0.063	0.220
-199.319	235.058	-0.019	0.031
-198.304	35.030	0.305	0.262
-197.290	125.023	0.211	0.261
-196.275	-47.357	-0.287	-0.137
-195.260	800.000	0.076	0.246
-194.246	-200.000	-0.002	0.201
-193.231	-99.214	0.219	0.054
-192.217	-29.237	-0.138	0.077
-191.202	-83.770	0.379	0.118
-190.187	-200.000	0.016	-0.207
-189.173	800.000	-0.069	0.257
-188.158	140.327	-0.243	0.313
-187.144	-51.424	0.286	-0.131
-186.129	-200.000	0.027	0.115
-185.114	324.713	0.150	0.281
-184.100	771.532	0.045	0.120
-183.085	-33.999	-0.281	-0.151
-182.071	122.904	0.275	0.338
-181.056	89.444	-0.177	-0.194
-180.042	23.144	-0.138	0.111
-179.027	50.207	0.081	0.075
-178.012	148.233	0.242	-0.320
-176.998	-97.874	-0.632	-0.160
-175.983	-200.000	0.057	-0.288
-174.969	21.651	0.075	0.060
-173.954	167.613	-0.159	-0.221
-172.939	-156.456	-0.328	-0.020
-171.925	566.613	0.047	0.113
-170.910	24.228	0.203	-0.164
-169.896	340.409	-0.142	-0.272
-168.881	-123.722	0.350	-0.054
-167.866	52.608	0.049	-0.046
-166.852	800.000	-0.021	-0.069
-165.837	-164.070	-0.088	-0.004
-164.823	490.697	0.102	-0.227
-163.808	-74.142	0.319	-0.113
-162.793	576.314	-0.056	0.133
-161.779	162.301	-0.126	0.172
-160.764	-200.000	-0.003	0.089
-159.750	-59.530	0.177	-0.074
-158.735	256.111	-0.140	0.235
-157.720	208.648	-0.039	-0.060
-156.706	-200.000	-0.021	0.205
-155.691	-200.000	0.063	0.480
-154.677	129.244	-0.199	0.248
-153.662	248.697	0.116	-0.193
-152.647	-49.350	0.118	-0.055
-151.633	-53.890	-0.118	0.053
-150.618	331.504	0.081	-0.153
-149.604	-145.337	0.400	-0.035
-148.589	373.535	0.108	0.214
-147.574	525.308	0.086	-0.198
-146.560	800.000	-0.055	-0.161
-145.545	800.000	-0.041	-0.145
-144.531	-200.000	0.008	0.260
-143.516	800.000	0.024	0.066
-142.502	29.866	0.297	-0.247
-141.487	262.871	0.260	0.441
-140.472	-81.423	0.045	-0.015
-139.458	-200.000	0.070	-0.338
-138.443	-151.846	0.736	0.053
-137.429	-113.438	0.181	0.035
-136.414	-46.033	-0.019	-0.009
-135.399	-200.000	-0.007	-0.036
-134.385	-19.572	0.186	0.113
-133.370	-111.450	-0.155	0.031
-132.356	-98.698	-0.385	-0.096
-131.341	605.703	-0.063	0.153
-130.326	-76.210	-0.340	-0.117
-129.312	-148.958	0.102	-0.008
-128.297	-18.602	-0.221	0.134
-127.283	-66.571	-0.528	0.204
-126.268	512.817	0.029	0.066
-125.253	-75.764	-0.051	-0.018
-124.239	800.000	-0.041	0.156
-123.224	800.000	-0.067	-0.233
-122.210	232.420	0.078	0.124
-121.195	-185.195	-0.371	-0.006
-120.180	800.000	-0.058	-0.196
-119.166	102.666	-0.288	0.329
-118.151	278.997	-0.262	-0.456
-117.137	-51.856	0.123	-0.056
-116.122	-200.000	0.024	-0.105
-115.107	317.487	-0.126	-0.234
-114.093	-106.200	0.351	0.077
-113.078	-121.545	0.396	0.064
-112.064	-89.221	0.128	0.037
-111.049	52.313	-0.055	0.051
-110.034	-200.000	0.014	0.271
-109.020	-11.134	0.282	0.182
-108.005	161.744	0.151	-0.207
-106.991	-200.000	0.023	-0.149
-105.976	-175.628	0.235	-0.006
-104.962	235.363	0.134	-0.216
-103.947	64.596	0.083	-0.082
-102.932	26.137	0.195	-0.159
-101.918	-174.238	-0.088	-0.002
-100.903	-154.936	0.097	0.006
-99.889	277.617	-0.078	-0.135
-98.874	65.848	0.022	-0.022
-97.859	366.958	-0.023	-0.046
-96.845	164.506	0.104	0.144
-95.830	585.086	-0.036	-0.087
-94.816	-67.728	0.246	0.094
-93.801	157.551	0.096	-0.129
-92.786	-92.483	-0.147	-0.040
-91.772	63.688	0.124	-0.121
-90.757	-200.000	0.012	-0.101
-89.743	-116.496	0.325	-0.059
-88.728	-92.463	-0.127	0.035
-87.713	-31.388	0.191	-0.105
-86.699	-200.000	-0.005	-0.036
-85.684	-200.000	0.017	-0.165
-84.670	-200.000	-0.015	0.154
-83.655	-43.019	-0.025	-0.012
-82.640	282.033	0.098	0.171
-81.626	230.702	0.024	0.039
-80.611	-200.000	-0.033	0.393
-79.597	800.000	0.063	0.180
-78.582	800.000	-0.050	-0.147
-77.567	-200.000	-0.027	-0.203
-76.553	51.499	0.247	-0.229
-75.538	-99.686	-0.129	-0.032
-74.524	-24.697	0.277	0.161
-73.509	800.000	-0.078	0.273
-72.494	581.939	-0.083	0.197
-71.480	-126.728	0.161	-0.023
-70.465	-200.000	0.084	0.407
-69.451	-136.099	0.187	-0.021
-68.436	161.438	-0.112	0.152
-67.422	432.725	-0.102	0.216
-66.407	347.000	0.148	0.283
-65.392	187.893	-0.052	0.076
-64.378	89.989	-0.135	-0.147
-63.363	-3.258	0.244	-0.165
-62.349	-113.006	0.099	0.019
-61.334	91.700	-1.004	-1.100
-60.319	-0.438	0.936	0.647
-59.305	172.567	-0.836	-1.172
-58.290	800.000	0.544	1.744
-57.276	800.000	0.388	1.392
-56.261	-200.000	121.997	646.453
-55.246	435.884	1541.336	3267.276
-54.232	147.868	2693.234	3536.879
-53.217	97.684	2161.567	2420.066
-52.203	34.607	1687.154	1435.781
-51.188	27.179	1505.847	1231.341
-50.173	25.063	1482.526	1198.096
-49.159	48.508	1552.712	1416.562
-48.144	46.205	1565.690	1412.539
-47.130	27.120	1514.886	1238.136
-46.115	24.239	1498.803	1205.487
-45.100	24.118	1495.953	1202.329
-44.086	24.110	1494.635	1201.167
-43.071	24.067	1491.901	1198.635
-42.057	23.992	1490.636	1197.067
-41.042	24.123	1488.722	1196.358
-40.027	24.004	1487.548	1194.573
-39.013	24.020	1485.900	1193.306
-37.998	23.977	1484.446	1191.804
-36.984	24.035	1483.582	1191.450
-35.969	24.111	1481.742	1190.430
-34.954	24.025	1480.227	1188.598
-33.940	24.101	1478.997	1188.065
-32.925	24.011	1477.939	1186.573
-31.911	24.026	1476.593	1185.546
-30.896	24.024	1475.446	1184.564
-29.881	24.094	1474.262	1184.028
-28.867	24.208	1472.153	1183.045
-27.852	24.137	1471.036	1181.630
-26.838	24.093	1470.245	1180.659
-25.823	24.124	1468.393	1179.325
-24.809	24.170	1466.577	1178.129
-23.794	24.126	1465.861	1177.212
-22.779	24.146	1464.949	1176.564
-21.765	24.114	1463.434	1175.090
-20.750	24.109	1462.534	1174.289
-19.736	24.131	1461.438	1173.511
-18.721	24.102	1460.370	1172.416
-17.706	24.112	1458.837	1171.200
-16.692	24.091	1458.363	1170.634
-15.677	24.190	1456.662	1169.871
-14.663	24.008	1456.689	1168.653
-13.648	24.012	1455.535	1167.711
-12.633	23.986	1454.811	1166.908
-11.619	24.059	1453.732	1166.477
-10.604	24.015	1452.767	1165.372
-9.590	23.989	1451.836	1164.406
-8.575	23.945	1451.241	1163.597
-7.560	23.993	1449.819	1162.724
-6.546	24.037	1448.763	1162.118
-5.531	24.019	1448.478	1161.722
-4.517	24.093	1447.169	1161.112
-3.502	24.045	1446.217	1159.986
-2.487	24.003	1445.170	1158.827
-1.473	24.019	1444.566	1158.400
-0.458	24.063	1443.050	1157.429
0.556	23.105	1433.408	1145.639
1.571	20.003	1409.602	1106.724
2.586	16.545	1348.259	1037.298
3.600	14.908	1266.794	965.095
4.615	13.882	1223.459	926.274
5.629	12.203	1167.515	874.900
6.644	6.429	1086.095	785.103
7.659	1.569	1050.402	735.767
8.673	0.828	1045.054	728.389
9.688	0.816	1041.856	726.039
10.702	0.747	1040.523	724.715
11.717	0.758	1038.598	723.362
12.731	2.753	1039.369	733.377
13.746	9.083	1048.039	769.868
14.761	15.095	1055.614	804.325
15.775	17.310	1057.576	816.393
16.790	17.105	1056.344	814.390
17.804	16.215	1053.941	808.204
18.819	15.195	1052.599	802.223
19.834	14.954	1050.789	799.618
20.848	14.630	1049.999	797.399
21.863	14.365	1049.512	795.693
22.877	14.013	1048.654	793.295
23.892	13.907	1047.446	791.802
24.907	13.673	1047.144	790.389
25.921	13.772	1046.145	790.039
26.936	13.860	1045.551	789.936
27.950	13.777	1044.884	788.967
28.965	13.948	1044.047	789.080
29.980	13.857	1043.188	787.926
30.994	13.814	1042.465	787.107
32.009	13.979	1041.426	787.037
33.023	13.929	1040.710	786.190
34.038	13.938	1040.386	785.918
35.053	13.980	1039.051	785.039
36.067	13.929	1038.509	784.317
37.082	13.967	1037.346	783.549
38.096	13.882	1036.799	782.666
39.111	13.952	1036.125	782.418
40.126	14.045	1035.012	781.947
41.140	14.022	1033.865	780.904
42.155	13.763	1033.347	779.226
43.169	13.780	1032.319	778.460
44.184	13.921	1030.870	777.958
45.199	13.595	1030.448	776.044
46.213	13.834	1029.342	776.263
47.228	13.730	1028.567	775.125
48.242	13.869	1026.848	774.410
49.257	13.946	1026.259	774.255
50.271	13.823	1025.202	772.814
51.286	13.889	1024.425	772.469
52.301	13.906	1023.766	771.981
53.315	14.023	1022.632	771.601
54.330	13.837	1022.237	770.373
55.344	13.968	1021.242	770.162
56.359	13.993	1019.825	769.142
57.374	13.837	1019.190	767.872
58.388	13.799	1018.878	767.392
59.403	13.815	1017.866	766.636
60.417	13.695	1016.872	765.266
61.432	13.782	1016.265	765.144
62.447	13.751	1015.603	764.437
63.461	13.775	1014.439	763.600
64.476	13.675	1014.092	762.811
65.490	13.720	1013.008	762.138
66.505	13.780	1012.026	761.608
67.520	13.812	1011.247	761.097
68.534	13.789	1010.288	760.203
69.549	13.854	1009.574	759.896
70.563	13.810	1009.149	759.307
71.578	13.855	1008.361	758.856
72.593	13.789	1007.787	758.056
73.607	13.878	1006.364	757.324
74.622	13.735	1005.674	756.085
75.636	13.673	1005.147	755.336
76.651	13.702	1004.433	754.865
77.666	13.742	1003.823	754.523
78.680	13.713	1002.819	753.573
79.695	13.690	1002.527	753.182
80.709	13.760	1001.862	752.933
81.724	13.677	1001.200	751.992
82.739	13.738	1000.123	751.391
83.753	13.864	998.979	751.036
84.768	13.973	998.444	751.059
85.782	13.859	997.916	750.083
86.797	14.001	996.947	749.929
87.812	13.909	996.126	748.828
88.826	13.860	995.276	747.904
89.841	13.894	994.649	747.520
90.855	14.027	993.606	747.267
91.870	14.037	992.749	746.600
92.884	14.082	991.823	746.039
93.899	14.013	991.545	745.455
94.914	14.100	990.718	745.159
95.928	14.062	990.273	744.587
96.943	14.206	989.343	744.467
97.957	14.145	988.414	743.429
98.972	14.014	987.774	742.296
99.987	13.972	987.293	741.680
101.001	13.933	986.635	740.946
102.016	14.101	985.277	740.610
103.030	13.996	984.590	739.561
104.045	14.054	983.529	738.956
105.060	13.962	982.998	738.082
106.074	13.975	981.641	737.059
107.089	13.997	980.772	736.437
108.103	13.878	980.194	735.411
109.118	13.894	979.273	734.728
110.133	13.860	978.419	733.871
111.147	13.803	977.730	733.038
112.162	13.787	977.082	732.414
113.176	13.755	976.190	731.541
114.191	13.971	974.773	731.365
115.206	13.965	974.553	731.110
116.220	13.968	973.129	729.988
117.235	14.050	972.248	729.622
118.249	13.932	972.054	728.897
119.264	13.964	970.828	728.051
120.279	13.840	970.446	727.159
121.293	13.970	969.497	726.950
122.308	13.960	969.067	726.522
123.322	13.954	968.059	725.676
124.337	13.821	967.094	724.309
125.352	13.834	965.728	723.279
126.366	13.846	964.938	722.673
127.381	13.800	963.418	721.270
128.395	13.928	962.356	720.969
129.410	13.870	961.328	719.884
130.424	14.041	960.227	719.733
131.439	13.967	959.122	718.525
132.454	13.882	958.670	717.751
133.468	13.896	958.256	717.442
134.483	13.872	957.561	716.753
135.497	13.960	956.775	716.480
136.512	13.924	955.931	715.629
137.527	13.882	955.034	714.715
138.541	13.904	954.149	714.085
139.556	14.031	953.429	714.029
140.570	13.907	953.043	713.141
141.585	13.972	951.849	712.466
142.600	14.291	951.180	713.266
143.614	14.001	950.474	711.433
144.629	14.159	949.986	711.682
145.643	14.081	949.346	710.804
146.658	14.169	948.177	710.242
147.673	14.150	947.129	709.315
148.687	14.059	946.865	708.668
149.702	14.107	945.450	707.750
150.716	14.042	944.656	706.817
151.731	14.213	943.603	706.690
152.746	14.089	943.404	705.951
153.760	14.009	942.597	704.946
154.775	14.121	942.026	704.932
155.789	14.174	940.670	704.078
156.804	14.022	940.476	703.230
157.819	14.185	939.435	703.077
158.833	14.226	938.576	702.546
159.848	14.267	937.846	702.108
160.862	14.226	937.517	701.630
161.877	14.183	936.881	700.910
162.892	14.230	935.891	700.303
163.906	14.185	935.206	699.539
164.921	14.305	934.199	699.227
165.935	14.161	933.410	697.974
166.950	14.160	932.412	697.162
167.964	14.337	931.398	697.082
168.979	14.264	930.482	696.031
169.994	14.084	929.752	694.670
171.008	14.231	928.916	694.596
172.023	14.168	927.919	693.528
173.037	14.300	926.638	693.057
174.052	14.328	926.249	692.821
175.067	14.352	925.441	692.258
176.081	14.272	924.641	691.266
177.096	14.166	924.385	690.570
178.110	14.355	922.977	690.241
179.125	14.474	922.380	690.229
180.140	14.361	921.573	689.095
181.154	14.319	921.518	688.818
182.169	14.265	920.846	688.034
183.183	14.344	919.999	687.668
184.198	14.527	919.355	687.879
185.213	14.407	918.904	686.984
186.227	14.386	918.175	686.293
187.242	14.462	917.710	686.198
188.256	14.603	916.760	686.004
189.271	14.470	916.174	684.962
190.286	14.512	915.403	684.494
191.300	14.413	914.778	683.564
192.315	14.443	913.991	683.035
193.329	14.339	913.326	682.055
194.344	14.417	912.740	681.874
195.359	14.393	912.175	681.292
196.373	14.497	911.698	681.301
197.388	14.609	910.928	681.124
198.402	14.685	910.220	680.845
199.417	14.754	909.706	680.679
200.432	14.821	909.627	680.835
201.446	14.725	909.058	679.956
202.461	14.596	908.661	679.077
203.475	14.716	908.149	679.121
204.490	14.759	907.146	678.485
205.504	14.851	906.586	678.377
206.519	14.725	905.675	677.125
207.534	14.791	904.833	676.706
208.548	14.755	904.363	676.145
209.563	14.882	903.368	675.855
210.577	14.713	902.802	674.691
211.592	14.766	902.501	674.621
212.607	14.932	901.892	674.773
213.621	14.963	900.960	674.142
214.636	14.803	900.132	672.821
215.650	14.846	899.697	672.607
216.665	14.927	898.953	672.319
217.680	14.921	898.722	672.062
218.694	14.983	898.263	671.907
219.709	15.032	897.444	671.433
220.723	15.036	896.597	670.755
221.738	15.010	896.155	670.260
222.753	15.006	895.340	669.576
223.767	14.939	894.457	668.587
224.782	15.076	893.560	668.405
225.796	15.153	892.764	668.058
226.811	14.979	892.638	667.213
227.826	15.131	891.636	667.010
228.840	15.182	890.925	666.621
229.855	14.988	890.674	665.602
230.869	15.148	889.568	665.352
231.884	15.181	889.066	665.048
232.899	15.104	888.532	664.287
233.913	15.135	887.833	663.826
234.928	15.125	886.964	663.077
235.942	15.085	886.821	662.753
236.957	15.034	885.982	661.867
237.972	15.111	885.129	661.475
238.986	15.134	884.648	661.148
240.001	15.246	883.773	660.879
241.015	15.291	882.814	660.279
242.030	15.224	882.534	659.750
243.045	15.248	882.232	659.561
244.059	15.117	881.808	658.669
245.074	15.184	880.844	658.154
246.088	15.212	880.298	657.796
247.103	15.418	879.786	658.166
248.117	15.345	879.009	657.237
249.132	15.359	878.313	656.715
250.147	15.449	877.509	656.406
251.161	15.526	876.893	656.188
252.176	15.459	876.524	655.593
253.190	15.624	875.823	655.654
254.205	15.567	875.131	654.855
255.220	15.397	874.958	654.007
256.234	15.566	873.900	653.817
257.249	15.593	873.347	653.448
258.263	15.748	872.592	653.427
259.278	15.654	872.092	652.633
260.293	15.793	871.703	652.823
261.307	15.675	870.915	651.716
262.322	15.749	870.552	651.672
263.336	15.827	870.067	651.554
264.351	15.621	869.657	650.392
265.366	15.814	868.621	650.307
266.380	15.813	868.056	649.821
267.395	15.843	867.306	649.318
268.409	15.880	866.232	648.599
269.424	15.838	865.766	648.033
270.439	15.872	865.160	647.653
271.453	15.778	864.307	646.596
272.468	15.872	863.520	646.310
273.482	15.787	863.121	645.629
274.497	15.840	862.857	645.576
275.512	15.968	861.665	645.120
276.526	16.061	860.689	644.686
277.541	15.984	860.740	644.373
278.555	15.991	860.023	643.808
279.570	16.038	859.434	643.487
280.585	16.042	858.646	642.856
281.599	15.973	858.459	642.396
282.614	16.081	857.875	642.314
283.628	15.961	857.117	641.231
284.643	16.101	856.717	641.410
285.657	15.951	856.575	640.675
286.672	16.139	855.474	640.508
287.687	16.170	854.956	640.182
288.701	16.052	854.547	639.370
289.716	16.053	853.763	638.732
290.730	16.036	853.399	638.339
291.745	16.156	852.635	638.164
292.760	16.115	852.293	637.699
293.774	16.255	851.522	637.593
294.789	16.300	850.513	636.952
295.803	16.172	850.697	636.550
296.818	16.210	849.752	635.930
297.833	16.151	849.414	635.396
298.847	16.094	848.688	634.583
299.862	16.241	847.633	634.291
300.876	16.252	847.075	633.861
301.891	16.206	846.207	632.983
302.906	16.376	845.694	633.180
303.920	16.388	845.206	632.802
304.935	16.389	844.544	632.256
305.949	16.559	844.315	632.661
306.964	16.453	843.321	631.466
307.979	16.430	842.751	630.900
308.993	16.469	842.559	630.844
310.008	16.529	841.661	630.338
311.022	16.501	841.125	629.779
312.037	16.553	840.799	629.673
313.052	16.533	840.159	629.063
314.066	16.380	839.931	628.267
315.081	16.394	838.837	627.446
316.095	16.411	838.493	627.194
317.110	16.430	838.279	627.050
318.125	16.624	837.461	627.100
319.139	16.496	836.881	626.138
320.154	16.575	836.563	626.137
321.168	16.517	836.045	625.478
322.183	16.557	835.482	625.149
323.197	16.663	834.422	624.693
324.212	16.507	834.512	624.130
325.227	16.596	833.735	623.821
326.241	16.706	833.010	623.629
327.256	16.653	832.641	623.102
328.270	16.617	832.145	622.543
329.285	16.592	831.781	622.123
330.300	16.574	830.826	621.291
331.314	16.806	830.188	621.607
332.329	16.632	829.582	620.461
333.343	16.722	829.207	620.455
334.358	16.746	828.706	620.115
335.373	16.839	827.581	619.559
336.387	16.775	827.790	619.423
337.402	16.779	827.042	618.824
338.416	16.878	826.196	618.499
339.431	16.963	825.683	618.371
340.446	16.873	825.426	617.795
341.460	16.846	824.924	617.265
342.475	16.909	824.200	616.900
343.489	16.896	823.571	616.327
344.504	17.091	822.697	616.327
345.519	17.016	822.568	615.902
346.533	16.992	822.454	615.676
347.548	17.110	821.557	615.377
348.562	17.071	821.186	614.903
349.577	16.883	820.885	613.943
350.592	17.051	820.276	614.039
351.606	16.996	819.423	613.148
352.621	16.866	819.480	612.669
353.635	17.008	818.744	612.574
354.650	17.076	818.247	612.396
355.665	17.127	817.791	612.185
356.679	17.013	817.575	611.556
357.694	17.088	816.951	611.307
358.708	17.272	816.067	611.253
359.723	17.198	815.784	610.721
360.738	17.213	815.156	610.250
361.752	17.088	814.927	609.574
362.767	17.205	814.140	609.351
363.781	17.303	813.887	609.461
364.796	17.175	813.561	608.705
365.810	17.316	813.095	608.806
366.825	17.427	812.569	608.756
367.840	17.346	812.076	608.043
368.854	17.400	811.689	607.891
369.869	17.443	811.247	607.661
370.883	17.484	810.423	607.136
371.898	17.382	810.329	606.649
372.913	17.326	809.894	606.071
373.927	17.439	808.897	605.671
374.942	17.451	808.441	605.321
375.956	17.520	807.756	604.999
376.971	17.547	807.241	604.655
377.986	17.470	806.383	603.685
379.000	17.578	805.978	603.712
380.015	17.493	805.795	603.220
381.029	17.594	805.201	603.082
382.044	17.580	804.702	602.604
383.059	17.513	804.254	601.978
384.073	17.726	803.247	601.922
385.088	17.590	803.336	601.454
386.102	17.717	802.606	601.304
387.117	17.610	802.044	600.453
388.132	17.580	801.442	599.843
389.146	17.629	801.156	599.747
390.161	17.781	800.739	599.918
391.175	17.576	800.364	598.864
392.190	17.563	800.209	598.650
393.205	17.601	799.768	598.398
394.219	17.690	799.106	598.162
395.234	17.665	798.581	597.630
396.248	17.642	798.278	597.271
397.263	17.790	797.415	597.090
398.278	17.895	796.830	596.965
399.292	17.764	796.835	596.459
400.307	17.643	796.634	595.831
401.321	17.663	796.002	595.376
402.336	17.842	795.519	595.585
403.350	17.746	795.381	595.095
404.365	17.870	794.872	595.096
405.380	17.841	794.213	594.447
406.394	17.917	793.843	594.384
407.409	17.877	793.403	593.863
408.423	17.969	792.965	593.800
409.438	18.013	792.618	593.643
410.453	17.996	791.881	592.979
411.467	18.002	791.618	592.748
412.482	18.007	791.106	592.333
413.496	18.027	790.439	591.850
414.511	18.116	790.336	592.028
415.526	18.145	789.991	591.817
416.540	18.129	789.546	591.378
417.555	18.071	789.202	590.864
418.569	18.218	788.717	590.957
419.584	18.130	788.051	590.103
420.599	18.247	787.638	590.145
421.613	115.978	1296.492	1489.725
422.628	99.767	1370.587	1489.809
