DTS Sentinel unit serial number:	SN413079Multiplexer serial number:	ORYXHardware model number:	OX4-SRSoftware version number:	ORYX F/W v4.00 Oryx Data Collector v3.7.2.0data status	okinstallation	princeton_trtdifferential loss correction	single-endedforward channel	channel 3reverse channel	N/Adate	2019/09/11time	02:02:10forward acquisition time	60.00reverse acquisition time	0.00gamma	496.2192k internal	0.2332k external	0.2332temperature offset calibration	0.9914default loss term (dB/km)	0.3790temperature slope calibration	1.0000multiplexer offset coefficient	1.0000multiplexer slope coefficient	1.0000fibre end	0.00T internal ref (°C)	29.19T ext. ref 1 (°C)	-0.30T ext. ref 2 (°C)	23.23length (m)	temperature (°C)	Stokes	anti-Stokes-747.200	-32.055	-0.203	0.114
-746.185	163.560	0.076	-0.108
-745.171	-105.703	-0.145	-0.033
-744.156	800.000	-0.042	0.132
-743.142	-175.014	-0.405	0.011
-742.127	-51.959	-0.309	0.144
-741.112	-108.381	0.300	0.065
-740.098	-200.000	0.009	-0.115
-739.083	-170.885	-0.286	-0.010
-738.069	-200.000	0.011	0.148
-737.054	110.766	-0.131	0.159
-736.039	106.332	-0.059	-0.070
-735.025	-200.000	-0.024	-0.110
-734.010	-38.423	-0.329	-0.175
-732.996	239.681	-0.072	0.120
-731.981	-52.375	-0.061	0.029
-730.966	-102.695	0.143	-0.034
-729.952	-78.431	-0.306	0.105
-728.937	-200.000	-0.010	0.405
-727.923	533.487	0.054	0.130
-726.908	-200.000	-0.132	0.000
-725.894	1.726	0.207	-0.150
-724.879	-137.040	-0.062	-0.007
-723.864	144.772	0.035	0.047
-722.850	379.965	-0.181	0.374
-721.835	29.911	-0.202	-0.173
-720.821	-106.916	0.304	0.068
-719.806	13.101	0.156	-0.121
-718.791	631.042	0.047	0.120
-717.777	77.140	-0.208	0.222
-716.762	-108.960	0.189	0.041
-715.748	-200.000	-0.017	-0.104
-714.733	102.435	0.201	-0.236
-713.718	-80.898	0.249	-0.083
-712.704	616.172	0.033	0.084
-711.689	-47.334	0.145	-0.071
-710.675	-41.417	0.155	0.080
-709.660	49.846	-0.330	0.313
-708.645	-156.701	-0.013	-0.001
-707.631	-153.429	-0.153	-0.011
-706.616	340.753	0.156	0.305
-705.602	46.570	-0.185	-0.173
-704.587	-110.089	-0.268	0.056
-703.572	136.558	0.171	-0.224
-702.558	19.880	0.200	-0.162
-701.543	-108.947	0.210	-0.045
-700.529	-42.089	0.299	-0.153
-699.514	57.197	-0.173	-0.169
-698.499	-130.603	0.180	-0.024
-697.485	-200.000	-0.013	-0.077
-696.470	-36.465	-0.270	0.146
-695.456	-107.582	0.163	0.036
-694.441	255.413	-0.163	0.281
-693.426	463.544	-0.066	0.148
-692.412	-1.144	0.149	0.106
-691.397	-200.000	-0.040	-0.293
-690.383	-18.383	0.172	-0.108
-689.368	-141.586	-0.160	0.016
-688.354	800.000	-0.060	-0.187
-687.339	-50.989	-0.174	0.082
-686.324	35.929	0.057	-0.050
-685.310	-125.326	-0.276	0.042
-684.295	-91.978	-0.215	0.061
-683.281	227.755	0.187	-0.305
-682.266	-11.430	-0.147	-0.097
-681.251	800.000	-0.021	0.083
-680.237	-41.217	0.152	0.079
-679.222	-46.088	0.572	0.283
-678.208	183.152	0.203	-0.301
-677.193	100.833	0.110	-0.128
-676.178	-125.012	0.363	-0.056
-675.164	98.609	-0.155	-0.180
-674.149	-37.540	-0.285	-0.153
-673.135	107.335	-0.096	0.114
-672.120	-74.879	-0.054	0.019
-671.105	800.000	0.046	-0.144
-670.091	135.304	0.128	0.168
-669.076	-47.669	0.024	-0.012
-668.062	800.000	-0.088	-0.316
-667.047	-92.208	-0.091	0.026
-666.032	116.140	0.104	-0.128
-665.018	800.000	-0.034	0.108
-664.003	653.169	0.120	0.308
-662.989	-33.998	0.095	-0.053
-661.974	157.950	-0.037	0.051
-660.959	-158.005	-0.269	0.016
-659.945	-200.000	0.033	-0.186
-658.930	625.845	0.104	-0.264
-657.916	-101.030	-0.300	-0.074
-656.901	19.228	0.126	-0.101
-655.886	-73.226	-0.578	-0.212
-654.872	25.880	0.187	-0.156
-653.857	3.221	-0.243	-0.177
-652.843	10.685	-0.075	-0.057
-651.828	-137.900	-0.157	-0.018
-650.814	41.647	-0.280	0.254
-649.799	80.529	-0.204	0.220
-648.784	129.877	-0.158	0.203
-647.770	20.742	-0.100	-0.081
-646.755	800.000	0.050	0.217
-645.741	157.317	0.034	0.047
-644.726	800.000	0.092	-0.322
-643.711	800.000	-0.052	-0.222
-642.697	-26.862	-0.111	-0.065
-641.682	800.000	-0.046	-0.181
-640.668	-111.622	-0.233	-0.047
-639.653	-7.604	-0.182	0.123
-638.638	-36.133	-0.115	0.062
-637.624	-2.966	0.143	-0.100
-636.609	-147.492	0.517	0.044
-635.595	800.000	0.009	-0.026
-634.580	-200.000	0.004	0.069
-633.565	336.403	-0.105	0.204
-632.551	-200.000	-0.019	0.168
-631.536	127.633	0.226	-0.287
-630.522	-179.879	0.387	0.008
-629.507	-85.846	-0.137	0.043
-628.492	-157.258	-0.095	-0.006
-627.478	60.068	-0.150	0.148
-626.463	800.000	-0.047	-0.175
-625.449	523.146	0.045	-0.106
-624.434	-200.000	0.006	-0.196
-623.419	49.947	-0.276	0.261
-622.405	800.000	0.085	-0.284
-621.390	-200.000	0.009	-0.194
-620.376	-156.434	0.387	0.024
-619.361	-73.897	-0.178	0.065
-618.346	-200.000	0.028	-0.234
-617.332	800.000	0.095	0.313
-616.317	-97.800	-0.415	0.108
-615.303	67.707	-0.048	-0.049
-614.288	681.845	0.047	-0.123
-613.273	172.866	0.100	-0.143
-612.259	-132.598	-0.238	0.031
-611.244	-134.290	0.084	-0.010
-610.230	298.074	0.057	-0.105
-609.215	-125.242	0.269	-0.041
-608.201	-78.249	0.183	0.063
-607.186	-75.608	0.151	-0.054
-606.171	-138.104	-0.221	0.025
-605.157	-61.645	-0.379	-0.159
-604.142	-31.148	0.216	-0.122
-603.128	40.087	-0.104	-0.093
-602.113	56.787	0.118	-0.114
-601.098	34.610	0.163	0.143
-600.084	468.475	-0.155	-0.349
-599.069	-157.664	0.282	0.017
-598.055	800.000	-0.128	-0.390
-597.040	-126.241	0.037	-0.006
-596.025	-73.847	-0.460	0.167
-595.011	-67.469	0.389	0.153
-593.996	-31.239	-0.130	-0.073
-592.982	99.351	0.143	-0.166
-591.967	-43.251	-0.246	0.125
-590.952	-195.451	0.153	0.001
-589.938	-200.000	-0.086	-0.386
-588.923	38.598	-0.199	0.178
-587.909	-200.000	0.015	0.137
-586.894	-22.616	0.329	0.199
-585.879	-200.000	-0.031	0.615
-584.865	-66.582	-0.256	0.101
-583.850	35.220	0.472	-0.413
-582.836	-200.000	0.030	-0.364
-581.821	-34.675	-0.315	-0.172
-580.806	-82.920	0.198	0.064
-579.792	-115.024	-0.472	-0.090
-578.777	-3.254	-0.154	-0.107
-577.763	-133.707	0.151	-0.019
-576.748	-59.344	-0.134	-0.057
-575.733	-174.187	-0.168	0.005
-574.719	-200.000	-0.040	0.218
-573.704	200.779	0.058	0.089
-572.690	-200.000	-0.023	-0.338
-571.675	-200.000	-0.276	-0.001
-570.661	115.897	-0.026	0.032
-569.646	-200.000	-0.023	-0.271
-568.631	-200.000	-0.001	-0.073
-567.617	-108.529	0.246	0.053
-566.602	-200.000	-0.024	-0.110
-565.588	-200.000	0.026	0.117
-564.573	-95.995	-0.255	0.068
-563.558	-43.531	-0.059	0.030
-562.544	-168.011	0.424	0.017
-561.529	-200.000	0.016	0.228
-560.515	-85.451	-0.176	-0.055
-559.500	299.535	0.093	0.172
-558.485	-200.000	0.021	0.179
-557.471	800.000	-0.080	-0.256
-556.456	-126.866	-0.234	-0.034
-555.442	800.000	0.079	-0.226
-554.427	27.669	-0.097	0.082
-553.412	387.899	0.109	0.225
-552.398	800.000	0.087	0.315
-551.383	3.930	-0.290	0.211
-550.369	-69.737	0.432	0.165
-549.354	-16.098	0.181	0.115
-548.339	-200.000	-0.065	0.355
-547.325	230.350	0.095	0.155
-546.310	59.139	0.031	-0.030
-545.296	119.009	0.082	0.101
-544.281	6.873	0.281	-0.209
-543.266	-76.135	-0.087	0.031
-542.252	-200.000	0.006	-0.191
-541.237	-48.133	0.200	-0.096
-540.223	5.012	0.139	0.102
-539.208	-57.492	0.024	-0.011
-538.193	150.160	0.149	0.202
-537.179	497.867	0.074	0.171
-536.164	-60.234	-0.019	-0.008
-535.150	628.835	-0.087	0.221
-534.135	-200.000	-0.273	0.000
-533.121	-30.757	-0.047	0.026
-532.106	-13.226	-0.293	0.190
-531.091	-170.776	0.212	-0.007
-530.077	217.706	0.217	0.345
-529.062	800.000	0.081	-0.224
-528.048	582.528	0.136	0.332
-527.033	5.414	0.193	0.142
-526.018	800.000	-0.011	-0.041
-525.004	-57.552	-0.148	0.065
-523.989	-200.000	0.023	0.317
-522.975	-33.448	0.053	0.029
-521.960	-47.757	-0.422	-0.204
-520.945	800.000	0.037	0.112
-519.931	-71.230	-0.297	0.111
-518.916	-196.002	-0.296	-0.002
-517.902	60.227	-0.133	0.131
-516.887	220.669	-0.314	-0.502
-515.872	91.318	0.110	0.123
-514.858	800.000	-0.096	0.276
-513.843	-31.325	-0.423	-0.238
-512.829	-140.474	0.220	-0.023
-511.814	207.926	-0.044	-0.069
-510.799	404.840	0.104	-0.219
-509.785	-113.150	0.119	0.023
-508.770	-119.956	0.177	0.030
-507.756	-120.988	0.629	0.105
-506.741	-22.952	-0.161	-0.097
-505.726	-200.000	0.001	0.164
-504.712	-151.262	0.193	-0.014
-503.697	112.187	-0.133	0.160
-502.683	306.085	0.112	0.207
-501.668	43.670	-0.128	0.117
-500.653	800.000	-0.010	-0.036
-499.639	-200.000	0.047	-0.567
-498.624	661.863	0.153	-0.392
-497.610	-200.000	-0.048	-0.305
-496.595	306.749	-0.141	-0.261
-495.581	800.000	0.117	-0.365
-494.566	2.948	0.197	-0.142
-493.551	-10.098	-0.201	-0.133
-492.537	-78.242	-0.319	0.109
-491.522	-121.132	-0.225	0.038
-490.508	185.420	-0.147	-0.218
-489.493	-81.566	0.351	0.115
-488.478	800.000	-0.039	-0.139
-487.464	800.000	0.055	-0.154
-486.449	135.268	0.231	-0.299
-485.435	800.000	-0.029	0.118
-484.420	-171.094	-0.303	-0.010
-483.405	-83.342	0.253	-0.081
-482.391	-189.316	0.253	0.003
-481.376	-9.968	-0.214	-0.142
-480.362	-200.000	0.038	0.229
-479.347	-69.836	0.088	0.033
-478.332	28.332	0.325	0.273
-477.318	190.285	-0.062	-0.093
-476.303	-112.827	0.379	-0.075
-475.289	-0.087	-0.237	0.168
-474.274	-200.000	0.006	-0.108
-473.259	-101.691	-0.296	0.071
-472.245	-66.358	0.239	-0.095
-471.230	633.784	0.041	0.103
-470.216	247.135	0.057	0.096
-469.201	-200.000	0.015	-0.131
-468.186	293.620	-0.062	-0.112
-467.172	5.456	-0.157	0.115
-466.157	-33.902	-0.080	-0.044
-465.143	-162.537	0.336	-0.017
-464.128	-192.096	-0.232	0.002
-463.113	-30.488	-0.176	0.099
-462.099	-71.388	0.105	-0.039
-461.084	800.000	0.051	-0.146
-460.070	-18.486	-0.230	0.143
-459.055	-79.253	0.349	0.118
-458.040	800.000	-0.073	-0.247
-457.026	-85.591	-0.024	-0.007
-456.011	-47.584	0.176	-0.085
-454.997	65.189	-0.071	0.072
-453.982	-200.000	-0.020	0.136
-452.968	800.000	0.073	-0.216
-451.953	-37.408	0.212	-0.112
-450.938	371.228	0.078	-0.158
-449.924	68.835	-0.101	0.103
-448.909	800.000	-0.106	-0.432
-447.895	249.432	-0.137	-0.231
-446.880	800.000	0.055	-0.225
-445.865	77.833	-0.135	-0.143
-444.851	-133.574	-0.139	-0.017
-443.836	-200.000	-0.015	0.116
-442.822	-111.883	-0.220	0.044
-441.807	209.125	0.179	0.279
-440.792	-72.576	0.266	-0.098
-439.778	-111.269	-0.191	0.039
-438.763	-98.892	0.211	-0.053
-437.749	800.000	-0.060	0.184
-436.734	-89.759	0.216	0.063
-435.719	-200.000	0.016	-0.650
-434.705	-170.508	-0.272	-0.009
-433.690	520.583	0.039	0.090
-432.676	751.342	-0.087	-0.234
-431.661	-200.000	0.030	0.295
-430.646	-154.805	0.229	-0.015
-429.632	508.644	0.094	-0.217
-428.617	800.000	0.025	-0.080
-427.603	71.450	-0.087	0.089
-426.588	85.388	0.037	0.040
-425.573	580.424	-0.103	-0.252
-424.559	788.440	-0.048	-0.131
-423.544	-105.828	-0.048	-0.011
-422.530	167.881	-0.081	0.114
-421.515	-120.291	-0.363	0.062
-420.500	71.317	-0.100	0.103
-419.486	-200.000	-0.025	0.241
-418.471	217.585	0.154	-0.243
-417.457	156.212	-0.071	0.097
-416.442	77.373	-0.080	-0.084
-415.428	-9.112	0.085	-0.057
-414.413	95.170	0.065	-0.073
-413.398	15.395	0.139	0.109
-412.384	281.594	-0.069	-0.123
-411.369	-121.131	-0.272	0.045
-410.355	800.000	-0.020	-0.070
-409.340	-180.142	0.135	-0.003
-408.325	-67.039	-0.293	0.115
-407.311	-15.080	-0.250	-0.159
-406.296	-166.579	0.142	0.006
-405.282	-200.000	0.006	-0.191
-404.267	239.018	0.038	-0.062
-403.252	-157.350	-0.225	-0.013
-402.238	-193.464	0.162	-0.001
-401.223	191.918	-0.056	0.083
-400.209	-39.656	-0.145	-0.075
-399.194	160.090	-0.114	-0.158
-398.179	147.237	-0.101	0.135
-397.165	354.406	0.133	0.262
-396.150	240.288	0.096	-0.159
-395.136	37.014	-0.195	0.171
-394.121	-89.733	-0.320	0.093
-393.106	109.579	-0.123	0.147
-392.092	800.000	0.020	0.071
-391.077	-200.000	0.008	0.147
-390.063	-36.410	0.161	-0.086
-389.048	144.430	-0.231	-0.306
-388.033	196.825	0.222	0.336
-387.019	-164.219	-0.256	0.012
-386.004	88.972	0.150	-0.166
-384.990	-86.908	0.257	-0.078
-383.975	12.463	0.106	-0.081
-382.960	-59.249	-0.038	-0.016
-381.946	-200.000	0.009	-0.206
-380.931	60.517	0.079	-0.077
-379.917	23.893	-0.224	-0.183
-378.902	335.463	0.036	-0.070
-377.888	93.309	-0.133	-0.149
-376.873	229.477	0.089	0.145
-375.858	237.028	0.083	-0.136
-374.844	-44.495	0.230	-0.114
-373.829	334.050	-0.136	-0.261
-372.815	-147.928	0.230	0.019
-371.800	-61.395	0.319	-0.133
-370.785	4.703	0.165	0.120
-369.771	800.000	0.127	0.408
-368.756	25.911	0.230	0.190
-367.742	-197.396	-0.492	0.003
-366.727	-80.152	0.292	0.097
-365.712	-17.855	0.047	-0.029
-364.698	13.088	-0.081	-0.062
-363.683	-19.335	-0.215	-0.132
-362.669	-11.665	0.149	0.097
-361.654	-200.000	-0.002	-0.194
-360.639	-52.418	0.071	-0.032
-359.625	105.443	0.215	-0.251
-358.610	-4.226	-0.130	-0.089
-357.596	120.025	-0.112	-0.137
-356.581	28.267	-0.250	-0.209
-355.566	5.280	0.165	-0.120
-354.552	20.859	0.180	-0.145
-353.537	14.981	-0.031	-0.024
-352.523	-34.582	-0.031	-0.017
-351.508	-76.103	-0.037	-0.013
-350.493	-108.553	-0.040	0.008
-349.479	32.108	-0.093	-0.080
-348.464	-200.000	-0.021	0.159
-347.450	-122.294	0.347	0.056
-346.435	-13.805	0.427	0.274
-345.420	-23.954	-0.043	0.025
-344.406	-200.000	-0.020	-0.109
-343.391	114.032	0.050	0.060
-342.377	-182.414	-0.397	-0.007
-341.362	-2.218	-0.206	-0.143
-340.348	200.829	0.173	0.263
-339.333	659.565	0.158	-0.402
-338.318	-137.876	0.009	-0.001
-337.304	-43.113	-0.119	-0.060
-336.289	124.594	0.122	0.151
-335.275	-200.000	-0.031	0.155
-334.260	-200.000	-0.028	0.198
-333.245	15.799	-0.248	0.193
-332.231	-200.000	0.016	0.187
-331.216	-118.989	0.179	0.031
-330.202	-61.792	-0.388	0.161
-329.187	-84.908	0.081	0.025
-328.172	-26.528	0.293	0.170
-327.158	-23.287	-0.234	-0.139
-326.143	800.000	-0.043	0.123
-325.129	-24.884	0.199	0.117
-324.114	-28.438	0.288	0.164
-323.099	26.952	-0.029	0.024
-322.085	-32.896	-0.120	0.066
-321.070	-102.488	-0.107	-0.025
-320.056	-89.332	-0.262	0.076
-319.041	413.853	-0.140	0.295
-318.026	390.628	-0.087	0.178
-317.012	800.000	-0.067	-0.185
-315.997	-56.010	-0.493	-0.217
-314.983	-110.158	-0.420	0.087
-313.968	46.955	0.221	-0.203
-312.953	87.847	0.193	0.212
-311.939	-2.507	0.072	-0.050
-310.924	-136.346	0.306	-0.035
-309.910	-67.145	0.371	-0.145
-308.895	306.821	0.057	-0.105
-307.880	-200.000	-0.011	-0.067
-306.866	-69.838	0.107	-0.040
-305.851	-200.000	-0.011	0.197
-304.837	-51.328	-0.083	0.038
-303.822	120.197	0.161	0.198
-302.807	-44.813	0.246	0.121
-301.793	-62.310	-0.109	-0.045
-300.778	70.349	-0.127	0.130
-299.764	550.871	-0.013	0.030
-298.749	-23.780	0.286	0.170
-297.735	-67.811	-0.299	-0.116
-296.720	211.332	-0.055	-0.085
-295.705	-59.439	-0.111	-0.047
-294.691	-159.559	-0.075	0.004
-293.676	-102.479	-0.142	-0.034
-292.662	240.231	-0.043	0.072
-291.647	757.820	-0.018	0.047
-290.632	800.000	-0.028	0.117
-289.618	800.000	0.049	0.151
-288.603	-112.173	0.080	0.016
-287.589	-117.021	0.127	-0.023
-286.574	-128.551	0.187	-0.026
-285.559	-71.609	-0.208	0.077
-284.545	-101.326	0.245	0.059
-283.530	241.496	-0.142	-0.234
-282.516	-16.284	-0.245	-0.154
-281.501	430.835	0.056	-0.119
-280.486	332.765	-0.061	-0.116
-279.472	-94.410	-0.247	0.067
-278.457	-169.185	0.204	-0.007
-277.443	74.440	-0.060	0.062
-276.428	-200.000	0.026	-0.250
-275.413	-200.000	-0.010	0.134
-274.399	204.529	0.060	-0.092
-273.384	-142.557	0.069	0.007
-272.370	-80.646	-0.167	-0.055
-271.355	-200.000	-0.009	-0.343
-270.340	-200.000	0.022	-0.115
-269.326	-200.000	-0.036	-0.182
-268.311	-76.785	0.113	-0.039
-267.297	26.986	-0.247	-0.205
-266.282	800.000	-0.061	0.220
-265.267	800.000	-0.056	-0.202
-264.253	-68.790	-0.317	0.121
-263.238	-163.656	0.309	0.014
-262.224	-200.000	0.013	0.364
-261.209	143.169	0.220	0.289
-260.195	-31.480	0.050	-0.027
-259.180	-128.261	-0.132	0.019
-258.165	137.884	0.184	0.238
-257.151	-25.300	0.027	0.016
-256.136	800.000	0.090	0.293
-255.122	0.123	0.317	-0.223
-254.107	-69.423	0.218	0.083
-253.092	-200.000	-0.044	0.226
-252.078	102.358	-0.244	0.282
-251.063	46.577	0.128	0.117
-250.049	715.839	0.115	0.301
-249.034	-1.420	0.433	0.302
-248.019	-55.476	-0.074	0.033
-247.005	-136.406	0.368	-0.042
-245.990	114.543	-0.078	0.093
-244.976	-178.923	0.226	-0.005
-243.961	-83.192	-0.120	0.038
-242.946	401.538	0.029	-0.061
-241.932	-105.233	0.199	0.045
-240.917	-6.585	-0.288	-0.194
-239.903	800.000	-0.089	0.291
-238.888	-124.325	-0.397	0.061
-237.873	446.449	-0.044	0.095
-236.859	800.000	0.055	0.169
-235.844	111.553	0.139	-0.165
-234.830	800.000	-0.045	-0.144
-233.815	37.380	0.294	0.257
-232.800	-113.765	-0.130	0.025
-231.786	-27.974	-0.239	-0.137
-230.771	-66.050	-0.246	-0.097
-229.757	55.987	-0.074	-0.071
-228.742	-200.000	0.070	-0.380
-227.727	31.547	0.295	-0.250
-226.713	664.017	-0.069	0.177
-225.698	141.678	-0.121	0.158
-224.684	-129.668	-0.158	-0.022
-223.669	245.074	-0.076	-0.126
-222.655	-62.463	0.210	0.086
-221.640	151.532	-0.105	-0.140
-220.625	-200.000	0.023	-0.103
-219.611	139.409	0.116	-0.150
-218.596	464.436	0.084	-0.185
-217.582	-35.844	-0.497	-0.265
-216.567	800.000	0.072	0.302
-215.552	-50.271	0.356	-0.166
-214.538	27.986	0.224	-0.186
-213.523	-200.000	0.077	-0.339
-212.509	-107.814	0.092	0.020
-211.494	-132.637	-0.437	-0.055
-210.479	-200.000	0.031	-0.319
-209.465	517.235	0.053	0.123
-208.450	388.647	0.049	-0.101
-207.436	800.000	-0.056	-0.235
-206.421	-18.912	-0.181	0.111
-205.406	-29.879	-0.127	0.071
-204.392	-20.018	0.282	0.171
-203.377	232.588	0.144	-0.233
-202.363	-200.000	0.019	0.192
-201.348	483.248	-0.129	0.288
-200.333	800.000	-0.086	0.295
-199.319	-52.738	-0.283	0.129
-198.304	-116.806	0.560	0.101
-197.290	356.642	0.116	0.228
-196.275	82.534	0.175	-0.187
-195.260	323.618	-0.078	0.147
-194.246	-119.760	-0.538	0.091
-193.231	-76.870	-0.184	0.063
-192.217	300.351	-0.065	-0.119
-191.202	-54.865	0.319	-0.142
-190.187	-108.601	-0.141	0.030
-189.173	283.940	-0.152	-0.269
-188.158	-151.751	-0.309	-0.022
-187.144	-200.000	0.018	0.179
-186.129	800.000	-0.067	0.182
-185.114	-49.177	0.252	-0.119
-184.100	154.678	-0.079	-0.106
-183.085	-200.000	-0.001	0.163
-182.071	-62.421	0.020	-0.008
-181.056	99.331	0.121	0.138
-180.042	378.217	0.071	-0.143
-179.027	282.923	-0.065	0.115
-178.012	-4.632	0.192	0.130
-176.998	-180.093	0.216	-0.005
-175.983	150.285	0.098	-0.131
-174.969	-120.403	0.434	0.073
-173.954	767.631	-0.129	0.344
-172.939	-92.253	-0.190	0.053
-171.925	-200.000	0.011	0.128
-170.910	-146.867	0.069	-0.006
-169.896	424.510	0.111	0.235
-168.881	99.364	-0.106	-0.121
-167.866	-164.689	-0.214	-0.009
-166.852	110.783	0.059	0.070
-165.837	-21.428	0.119	-0.071
-164.823	-200.000	0.012	-0.065
-163.808	-200.000	0.024	0.150
-162.793	373.234	-0.150	0.300
-161.779	132.467	0.239	0.303
-160.764	42.865	0.183	0.164
-159.750	59.679	-0.186	0.181
-158.735	258.507	0.121	0.206
-157.720	86.015	0.124	-0.134
-156.706	-147.761	-0.150	-0.012
-155.691	800.000	-0.030	-0.104
-154.677	800.000	-0.041	-0.135
-153.662	-35.921	0.185	0.098
-152.647	37.732	-0.342	0.299
-151.633	-128.630	-0.156	-0.022
-150.618	-15.890	-0.112	0.070
-149.604	-200.000	0.017	0.111
-148.589	800.000	-0.017	0.065
-147.574	-109.424	0.197	0.041
-146.560	800.000	0.070	0.213
-145.545	800.000	-0.058	-0.215
-144.531	-125.021	0.115	-0.017
-143.516	231.726	0.156	-0.251
-142.502	-200.000	-0.242	-0.001
-141.487	-121.608	-0.036	-0.006
-140.472	707.294	-0.109	-0.283
-139.458	800.000	0.057	0.238
-138.443	800.000	-0.104	0.291
-137.429	-99.141	0.223	0.055
-136.414	-86.830	-0.019	-0.006
-135.399	178.466	-0.057	0.082
-134.385	-200.000	-0.050	-0.345
-133.370	-21.714	-0.215	0.129
-132.356	800.000	0.044	-0.186
-131.341	-154.821	-0.238	-0.015
-130.326	-200.000	-0.023	-0.180
-129.312	52.525	0.354	0.332
-128.297	-75.007	0.157	-0.055
-127.283	-36.109	0.257	0.136
-126.268	547.519	-0.058	0.137
-125.253	-200.000	0.001	0.051
-124.239	91.457	0.123	-0.135
-123.224	-41.233	-0.214	0.109
-122.210	-0.196	-0.055	-0.038
-121.195	-87.576	0.300	-0.089
-120.180	800.000	0.064	0.256
-119.166	-93.986	0.105	-0.028
-118.151	250.704	-0.139	0.232
-117.137	-163.187	0.226	0.011
-116.122	171.294	-0.084	0.118
-115.107	572.309	-0.078	-0.187
-114.093	51.604	0.238	0.222
-113.078	-35.744	0.388	0.206
-112.064	98.784	0.195	0.221
-111.049	-200.000	-0.013	-0.206
-110.034	161.280	-0.106	-0.146
-109.020	-16.512	-0.264	0.164
-108.005	93.294	-0.078	0.086
-106.991	800.000	0.082	0.235
-105.976	-64.990	0.313	0.124
-104.962	800.000	-0.059	0.250
-103.947	-89.693	0.324	-0.093
-102.932	15.270	-0.130	0.100
-101.918	-34.344	0.094	0.050
-100.903	406.038	0.030	-0.062
-99.889	53.300	-0.092	0.087
-98.874	-63.846	0.161	0.065
-97.859	-86.011	0.280	-0.085
-96.845	13.418	-0.033	-0.025
-95.830	-200.000	0.011	0.080
-94.816	800.000	0.056	-0.199
-93.801	-74.731	0.269	-0.095
-92.786	234.089	0.104	0.168
-91.772	-129.155	0.128	0.018
-90.757	138.211	0.138	-0.177
-89.743	800.000	-0.067	0.285
-88.728	-34.640	0.062	-0.033
-87.713	800.000	0.081	0.282
-86.699	-152.320	0.310	0.022
-85.684	107.408	0.144	0.168
-84.670	-138.965	-0.287	0.031
-83.655	9.846	-0.203	0.151
-82.640	-200.000	-0.013	0.061
-81.626	136.426	0.081	0.104
-80.611	53.371	0.203	0.190
-79.597	800.000	0.036	0.132
-78.582	800.000	-0.061	-0.236
-77.567	89.584	-0.137	-0.150
-76.553	-200.000	0.009	0.103
-75.538	800.000	0.019	0.059
-74.524	-155.121	-0.113	-0.007
-73.509	-124.069	-0.203	-0.031
-72.494	-124.211	-0.103	-0.016
-71.480	-38.399	0.065	0.033
-70.465	-200.000	0.007	0.067
-69.451	-64.194	-0.203	-0.081
-68.436	124.857	-0.140	-0.173
-67.422	-200.000	-0.014	0.086
-66.407	-138.329	0.169	0.018
-65.392	-135.139	0.057	0.007
-64.378	800.000	-0.048	0.148
-63.363	154.790	-0.208	0.281
-62.349	800.000	-0.108	0.361
-61.334	112.383	-0.912	-1.080
-60.319	1.714	0.601	0.424
-59.305	227.514	-0.478	-0.762
-58.290	213.725	0.833	1.289
-57.276	619.050	0.560	1.378
-56.261	-200.000	106.740	625.463
-55.246	522.336	1514.260	3482.015
-54.232	176.103	2704.699	3845.435
-53.217	110.648	2185.207	2573.302
-52.203	39.874	1706.779	1500.384
-51.188	32.370	1519.258	1284.488
-50.173	30.024	1492.443	1246.008
-49.159	51.041	1549.045	1437.978
-48.144	51.201	1565.181	1453.998
-47.130	32.435	1521.415	1286.553
-46.115	29.461	1506.482	1253.704
-45.100	29.352	1502.682	1249.756
-44.086	29.226	1500.749	1247.245
-43.071	29.205	1498.665	1245.326
-42.057	29.113	1496.796	1243.100
-41.042	29.061	1496.139	1242.151
-40.027	29.179	1494.385	1241.443
-39.013	29.145	1492.519	1239.615
-37.998	29.001	1491.957	1238.130
-36.984	29.140	1490.177	1237.537
-35.969	29.124	1488.492	1235.981
-34.954	29.101	1487.463	1234.926
-33.940	29.072	1486.374	1233.776
-32.925	29.175	1484.645	1232.979
-31.911	29.152	1483.354	1231.710
-30.896	29.260	1481.880	1231.154
-29.881	29.346	1480.738	1230.735
-28.867	29.267	1479.588	1229.199
-27.852	29.346	1477.975	1228.337
-26.838	29.215	1477.069	1226.661
-25.823	29.271	1475.227	1225.455
-24.809	29.258	1473.311	1223.731
-23.794	29.234	1472.255	1222.650
-22.779	29.159	1471.202	1221.225
-21.765	29.342	1469.800	1221.228
-20.750	29.211	1469.586	1220.135
-19.736	29.222	1468.324	1219.109
-18.721	29.258	1466.788	1218.025
-17.706	29.275	1465.634	1217.127
-16.692	29.245	1464.492	1215.938
-15.677	29.219	1463.693	1215.054
-14.663	29.237	1462.527	1214.154
-13.648	29.217	1461.501	1213.121
-12.633	29.196	1460.460	1212.072
-11.619	29.067	1460.309	1211.048
-10.604	29.117	1458.888	1210.154
-9.590	29.142	1458.294	1209.773
-8.575	29.246	1457.092	1209.410
-7.560	29.116	1456.847	1208.309
-6.546	29.164	1455.459	1207.422
-5.531	29.064	1454.655	1206.051
-4.517	29.178	1453.583	1205.864
-3.502	29.117	1453.035	1204.962
-2.487	29.121	1451.713	1203.846
-1.473	29.136	1450.892	1203.215
-0.458	29.174	1449.296	1202.087
0.556	26.868	1439.594	1191.116
1.571	23.986	1414.607	1151.714
2.586	20.768	1355.497	1083.498
3.600	19.381	1274.484	1010.524
4.615	18.245	1229.863	968.636
5.629	15.778	1174.750	911.789
6.644	7.578	1090.680	805.046
7.659	0.937	1050.827	743.051
8.673	-0.165	1045.237	733.650
9.688	-0.285	1041.763	730.561
10.702	-0.337	1039.872	728.917
11.717	-0.413	1038.094	727.239
12.731	2.539	1041.466	743.889
13.746	11.452	1053.590	796.115
14.761	18.440	1062.907	837.353
15.775	20.084	1064.657	846.699
16.790	20.412	1064.254	847.901
17.804	20.269	1063.334	846.399
18.819	20.009	1062.865	844.683
19.834	20.129	1061.769	844.321
20.848	20.213	1061.516	844.455
21.863	20.311	1061.279	844.669
22.877	20.294	1060.532	843.915
23.892	20.290	1060.033	843.421
24.907	20.262	1058.775	842.214
25.921	20.250	1058.614	841.953
26.936	20.342	1057.556	841.481
27.950	20.204	1056.816	840.152
28.965	20.183	1055.381	838.833
29.980	20.097	1053.348	836.728
30.994	20.156	1051.849	835.750
32.009	20.371	1051.174	836.173
33.023	20.424	1050.735	836.004
34.038	20.153	1049.347	833.525
35.053	19.981	1048.638	832.059
36.067	20.407	1047.992	833.521
37.082	20.348	1046.993	832.369
38.096	20.229	1047.022	831.749
39.111	20.419	1046.037	831.801
40.126	20.563	1044.880	831.497
41.140	20.678	1043.230	830.657
42.155	20.274	1041.881	827.584
43.169	19.981	1040.963	825.387
44.184	19.957	1040.075	824.493
45.199	20.127	1038.604	824.065
46.213	19.988	1037.957	822.815
47.228	19.846	1037.059	821.357
48.242	20.059	1035.972	821.435
49.257	20.118	1034.851	820.752
50.271	20.248	1033.891	820.534
51.286	20.367	1033.557	820.761
52.301	20.335	1032.569	819.751
53.315	20.295	1031.582	818.707
54.330	20.356	1030.693	818.213
55.344	20.239	1030.270	817.257
56.359	20.174	1029.254	816.071
57.374	20.272	1028.182	815.610
58.388	20.205	1027.012	814.296
59.403	20.079	1026.276	813.049
60.417	20.060	1026.059	812.717
61.432	19.972	1025.011	811.401
62.447	19.925	1024.270	810.525
63.461	20.153	1023.490	810.901
64.476	20.169	1022.824	810.375
65.490	20.147	1021.926	809.491
66.505	20.136	1021.014	808.642
67.520	20.042	1020.109	807.417
68.534	20.112	1019.253	806.996
69.549	20.091	1018.214	806.004
70.563	19.670	1016.862	802.908
71.578	19.724	1016.357	802.687
72.593	19.727	1015.637	802.062
73.607	19.612	1014.350	800.440
74.622	19.614	1013.349	799.591
75.636	20.009	1012.016	800.291
76.651	19.978	1011.994	800.061
77.666	19.983	1010.430	798.775
78.680	19.818	1010.171	797.742
79.695	19.798	1010.023	797.461
80.709	19.889	1008.957	796.966
81.724	20.004	1008.320	796.925
82.739	20.060	1006.841	795.939
83.753	20.092	1006.457	795.716
84.768	20.061	1006.010	795.147
85.782	20.471	1005.370	796.453
86.797	20.636	1004.263	796.261
87.812	20.636	1003.367	795.478
88.826	20.402	1002.178	793.395
89.841	20.461	1001.385	792.970
90.855	20.629	1000.777	793.182
91.870	20.429	1000.555	792.023
92.884	20.439	999.574	791.223
93.899	20.215	998.253	789.091
94.914	20.392	997.241	789.023
95.928	20.530	996.618	789.087
96.943	20.388	996.220	788.059
97.957	20.226	994.456	785.861
98.972	20.014	993.452	784.038
99.987	19.796	992.785	782.454
101.001	19.890	991.649	781.916
102.016	20.271	991.013	783.066
103.030	20.178	990.614	782.260
104.045	20.090	988.852	780.405
105.060	19.972	988.095	779.204
106.074	19.818	986.636	777.294
107.089	19.948	986.033	777.334
108.103	20.379	985.720	778.950
109.118	20.270	984.580	777.495
110.133	20.013	983.935	775.767
111.147	20.166	982.655	775.373
112.162	20.132	981.294	774.079
113.176	19.896	980.493	772.324
114.191	20.095	978.923	771.905
115.206	20.044	978.291	771.112
116.220	19.799	977.308	769.179
117.235	19.669	976.207	767.666
118.249	19.770	975.468	767.469
119.264	19.790	974.801	766.961
120.279	19.707	973.455	765.469
121.293	19.673	973.193	765.043
122.308	19.742	972.406	764.662
123.322	19.809	971.398	764.098
124.337	19.848	970.373	763.397
125.352	19.688	968.787	761.379
126.366	19.475	967.086	759.037
127.381	18.958	966.005	755.847
128.395	19.594	965.723	758.352
129.410	20.137	965.075	760.162
130.424	20.435	964.067	760.605
131.439	20.396	963.082	759.589
132.454	20.261	961.920	758.016
133.468	20.399	961.174	757.963
134.483	20.108	960.404	756.018
135.497	20.310	958.931	755.672
136.512	20.419	958.645	755.853
137.527	20.361	958.550	755.463
138.541	20.469	957.018	754.655
139.556	20.406	956.736	754.094
140.570	20.445	955.703	753.382
141.585	20.510	954.681	752.790
142.600	20.440	954.210	752.051
143.614	20.448	952.879	750.970
144.629	20.423	952.357	750.382
145.643	20.712	951.953	751.244
146.658	20.652	950.795	750.006
147.673	20.550	949.270	748.298
148.687	20.390	948.100	746.620
149.702	20.316	947.772	745.979
150.716	20.145	946.695	744.332
151.731	20.301	945.627	744.095
152.746	20.305	944.964	743.527
153.760	20.623	944.068	744.116
154.775	20.627	943.622	743.714
155.789	20.658	942.562	742.947
156.804	20.605	942.003	742.214
157.819	20.613	940.640	741.108
158.833	20.591	939.920	740.381
159.848	20.805	939.118	740.594
160.862	20.741	938.384	739.678
161.877	20.788	937.209	738.885
162.892	20.566	936.529	737.346
163.906	20.727	936.014	737.553
164.921	20.715	934.789	736.474
165.935	20.669	933.721	735.373
166.950	20.658	932.844	734.570
167.964	20.598	931.829	733.452
168.979	20.669	930.717	732.814
169.994	20.677	929.049	731.466
171.008	20.368	929.001	730.068
172.023	20.594	928.360	730.448
173.037	20.706	927.668	730.309
174.052	20.380	926.287	727.789
175.067	20.198	925.437	726.297
176.081	20.389	924.304	726.139
177.096	20.595	923.532	726.330
178.110	20.546	922.863	725.538
179.125	20.324	921.991	723.861
180.140	20.117	920.443	721.717
181.154	20.001	920.295	721.055
182.169	20.091	919.722	720.919
183.183	20.335	918.983	721.287
184.198	20.617	918.347	721.895
185.213	20.485	917.900	720.934
186.227	20.468	917.347	720.366
187.242	20.556	916.929	720.336
188.256	20.700	916.048	720.178
189.271	20.549	915.618	719.153
190.286	20.637	915.040	718.997
191.300	20.561	913.924	717.746
192.315	20.114	912.127	714.425
193.329	19.386	910.718	710.262
194.344	19.007	910.094	708.152
195.359	19.578	910.322	710.620
196.373	20.299	910.864	713.948
197.388	20.636	910.286	714.817
198.402	20.523	909.242	713.469
199.417	20.392	908.597	712.360
200.432	20.446	908.133	712.155
201.446	20.366	907.332	711.139
202.461	19.986	906.628	708.965
203.475	20.118	905.833	708.824
204.490	19.624	904.312	705.552
205.504	18.655	902.266	699.941
206.519	19.098	902.572	701.927
207.534	20.004	902.736	705.686
208.548	20.192	901.931	705.757
209.563	20.404	902.166	706.744
210.577	20.471	901.191	706.188
211.592	20.242	900.259	704.465
212.607	20.511	900.166	705.423
213.621	20.714	899.648	705.779
214.636	20.709	898.521	704.809
215.650	20.824	898.085	704.870
216.665	20.749	897.316	703.904
217.680	20.552	897.693	703.338
218.694	20.752	896.796	703.383
219.709	20.367	895.483	700.735
220.723	20.179	894.520	699.165
221.738	20.386	894.248	699.725
222.753	20.459	893.456	699.335
223.767	20.450	892.814	698.733
224.782	20.463	892.080	698.149
225.796	20.637	891.842	698.600
226.811	20.666	891.367	698.284
227.826	20.482	889.498	696.023
228.840	19.670	888.133	691.643
229.855	19.550	887.613	690.695
230.869	19.908	887.538	692.010
231.884	19.432	886.689	689.384
232.899	19.609	886.010	689.504
233.913	20.339	886.276	692.562
234.928	20.510	885.367	692.472
235.942	20.396	885.054	691.712
236.957	20.319	884.596	690.984
237.972	20.115	883.685	689.400
238.986	20.036	882.745	688.291
240.001	20.102	882.194	688.066
241.015	20.245	881.302	687.873
242.030	20.351	880.403	687.532
243.045	20.376	879.824	687.120
244.059	20.523	879.926	687.718
245.074	20.652	879.037	687.473
246.088	20.563	878.194	686.401
247.103	20.163	877.461	684.189
248.117	20.221	877.066	684.051
249.132	20.825	876.997	686.318
250.147	21.016	876.744	686.810
251.161	21.113	875.671	686.290
252.176	21.374	875.136	686.836
253.190	21.264	874.412	685.776
254.205	21.301	873.759	685.348
255.220	21.560	873.402	686.023
256.234	21.372	872.954	684.875
257.249	21.438	871.856	684.207
258.263	21.134	871.714	682.849
259.278	21.040	871.308	682.104
260.293	21.249	870.549	682.266
261.307	21.497	869.820	682.601
262.322	21.254	868.668	680.688
263.336	21.156	868.427	680.056
264.351	20.573	867.125	676.711
265.366	19.613	864.917	671.198
266.380	19.255	863.911	668.967
267.395	20.030	864.754	672.572
268.409	20.770	864.897	675.498
269.424	20.846	864.136	675.138
270.439	21.010	863.358	675.106
271.453	21.045	862.605	674.592
272.468	21.160	862.104	674.586
273.482	21.250	861.890	674.705
274.497	21.498	861.500	675.298
275.512	21.340	859.889	673.365
276.526	20.727	858.617	669.950
277.541	20.868	858.780	670.564
278.555	21.149	858.674	671.500
279.570	21.061	857.310	670.036
280.585	20.851	856.567	668.590
281.599	20.773	856.317	668.039
282.614	21.079	855.794	668.743
283.628	20.623	854.272	665.749
284.643	20.375	853.695	664.292
285.657	20.752	853.588	665.591
286.672	20.714	852.687	664.687
287.687	20.199	851.918	662.062
288.701	20.576	851.609	663.200
289.716	20.862	851.178	663.898
290.730	20.465	850.678	661.936
291.745	20.394	849.522	660.707
292.760	20.218	848.737	659.370
293.774	20.011	848.435	658.289
294.789	20.978	848.750	662.150
295.803	21.578	848.701	664.331
296.818	21.661	848.058	664.086
297.833	21.824	847.677	664.346
298.847	21.560	846.321	662.226
299.862	21.102	845.837	660.055
300.876	21.437	844.951	660.571
301.891	21.605	844.991	661.178
302.906	21.721	844.217	660.953
303.920	21.325	842.988	658.438
304.935	21.091	842.502	657.119
305.949	21.608	842.010	658.623
306.964	21.732	841.306	658.481
307.979	21.410	841.171	657.108
308.993	21.317	840.420	656.112
310.008	21.730	840.402	657.593
311.022	21.959	839.639	657.794
312.037	21.712	838.788	656.146
313.052	21.452	838.512	654.899
314.066	21.322	837.523	653.581
315.081	20.641	836.202	649.948
316.095	19.988	835.006	646.524
317.110	20.579	835.196	648.821
318.125	21.351	835.468	651.855
319.139	20.902	834.532	649.392
320.154	19.796	832.900	643.951
321.168	19.554	831.344	641.793
322.183	20.228	831.653	644.477
323.197	21.028	832.517	648.065
324.212	21.296	831.802	648.447
325.227	21.313	831.490	648.209
326.241	21.582	831.047	648.800
327.256	21.388	830.466	647.572
328.270	21.432	829.588	646.993
329.285	21.232	829.460	646.097
330.300	21.066	828.652	644.795
331.314	20.767	828.080	643.191
332.329	21.028	827.238	643.444
333.343	21.431	826.604	644.376
334.358	21.772	826.267	645.314
335.373	21.613	826.129	644.564
336.387	21.623	825.494	644.048
337.402	21.863	824.744	644.289
338.416	22.020	824.587	644.684
339.431	21.897	823.757	643.525
340.446	21.839	823.532	643.082
341.460	22.216	822.828	643.855
342.475	22.171	822.231	643.167
343.489	21.809	821.287	641.049
344.504	21.888	820.826	640.919
345.519	22.088	820.914	641.663
346.533	22.302	820.433	642.010
347.548	22.318	820.056	641.717
348.562	22.352	819.471	641.328
349.577	22.378	819.267	641.205
350.592	22.210	818.916	640.263
351.606	22.288	818.139	639.883
352.621	22.378	817.570	639.707
353.635	22.173	816.891	638.375
354.650	22.159	816.379	637.866
355.665	21.883	815.369	636.022
356.679	20.825	813.922	631.005
357.694	20.739	813.256	630.121
358.708	21.348	813.236	632.253
359.723	21.370	812.881	632.001
360.738	21.542	812.618	632.362
361.752	21.994	812.622	633.942
362.767	21.932	812.294	633.408
363.781	22.262	811.941	634.266
364.796	22.658	811.265	635.109
365.810	22.545	811.060	634.487
366.825	22.600	810.926	634.521
367.840	22.667	810.639	634.481
368.854	22.509	809.994	633.353
369.869	22.087	809.156	631.126
370.883	21.881	808.495	629.815
371.898	22.045	807.905	629.889
372.913	22.094	806.971	629.280
373.927	22.038	806.240	628.453
374.942	22.192	805.728	628.549
375.956	22.324	805.366	628.683
376.971	22.375	804.684	628.276
377.986	22.567	804.246	628.563
379.000	22.609	804.441	628.810
380.015	22.451	803.914	627.782
381.029	22.351	803.169	626.788
382.044	22.341	802.149	625.900
383.059	22.594	801.715	626.404
384.073	22.544	801.431	625.949
385.088	22.628	800.721	625.640
386.102	22.683	800.030	625.240
387.117	22.657	799.436	624.627
388.132	22.465	799.116	623.641
389.146	22.178	798.433	622.039
390.161	21.761	797.670	619.914
391.175	21.880	797.265	619.966
392.190	22.232	797.300	621.182
393.205	22.296	796.694	620.881
394.219	21.403	794.870	616.256
395.234	19.823	792.728	608.983
396.248	19.178	791.883	606.012
397.263	20.282	792.930	610.647
398.278	22.010	793.878	617.406
399.292	22.368	793.846	618.585
400.307	21.943	793.388	616.681
401.321	22.035	792.584	616.325
402.336	21.976	792.750	616.191
403.350	22.328	792.354	617.063
404.365	22.834	792.165	618.635
405.380	23.003	791.726	618.829
406.394	23.241	791.661	619.558
407.409	23.390	791.114	619.595
408.423	23.437	790.475	619.203
409.438	23.263	790.099	618.248
410.453	23.210	789.917	617.865
411.467	23.229	789.592	617.620
412.482	23.286	788.966	617.276
413.496	23.164	788.384	616.340
414.511	23.364	787.680	616.432
415.526	23.297	787.288	615.839
416.540	23.331	787.231	615.858
417.555	23.229	786.325	614.739
418.569	23.006	785.764	613.474
419.584	22.922	785.413	612.854
420.599	22.978	784.941	612.626
421.613	158.094	1363.655	1799.028
422.628	136.775	1447.963	1799.131
