DTS Sentinel unit serial number:	SN413079Multiplexer serial number:	ORYXHardware model number:	OX4-SRSoftware version number:	ORYX F/W v4.00 Oryx Data Collector v3.7.2.0data status	okinstallation	princeton_trtdifferential loss correction	single-endedforward channel	channel 3reverse channel	N/Adate	2019/09/12time	22:16:34forward acquisition time	60.00reverse acquisition time	0.00gamma	496.2192k internal	0.2326k external	0.2326temperature offset calibration	1.0132default loss term (dB/km)	0.3790temperature slope calibration	1.0000multiplexer offset coefficient	1.0000multiplexer slope coefficient	1.0000fibre end	0.00T internal ref (°C)	29.87T ext. ref 1 (°C)	3.74T ext. ref 2 (°C)	24.42length (m)	temperature (°C)	Stokes	anti-Stokes-747.200	-200.000	-0.007	0.051
-746.185	256.307	0.086	0.150
-745.171	36.714	0.102	-0.091
-744.156	-200.000	0.015	0.227
-743.142	-164.298	-0.049	-0.002
-742.127	238.403	-0.137	0.230
-741.112	-200.000	0.049	-0.231
-740.098	-10.384	0.360	-0.241
-739.083	-17.041	-0.102	-0.065
-738.069	-75.160	-0.237	-0.085
-737.054	-125.158	0.047	0.007
-736.039	-83.364	-0.171	-0.055
-735.025	280.983	0.129	-0.232
-734.010	-200.000	-0.005	0.229
-732.996	-63.257	0.195	-0.081
-731.981	-176.747	0.056	-0.001
-730.966	-200.000	0.068	0.616
-729.952	-116.192	-0.175	-0.033
-728.937	9.956	-0.170	0.130
-727.923	-179.652	-0.269	-0.006
-726.908	208.868	0.157	0.247
-725.894	-54.012	-0.321	0.147
-724.879	-169.236	-0.392	-0.015
-723.864	-119.216	-0.202	-0.036
-722.850	-200.000	0.022	0.347
-721.835	-182.164	0.167	0.003
-720.821	-200.000	0.012	0.409
-719.806	-200.000	-0.151	-0.001
-718.791	7.932	-0.236	-0.179
-717.777	81.372	-0.075	-0.081
-716.762	-200.000	-0.039	-0.288
-715.748	274.417	-0.095	-0.169
-714.733	-6.133	-0.290	-0.200
-713.718	381.136	-0.169	-0.350
-712.704	-5.500	-0.378	-0.261
-711.689	581.851	0.031	0.077
-710.675	-5.987	0.190	-0.131
-709.660	800.000	-0.085	0.314
-708.645	421.815	-0.068	0.147
-707.631	64.247	-0.116	-0.118
-706.616	200.844	0.123	-0.190
-705.602	-88.738	0.209	-0.062
-704.587	-98.786	0.005	0.001
-703.572	-29.770	-0.342	-0.196
-702.558	-63.395	-0.076	-0.031
-701.543	-90.418	-0.242	0.071
-700.529	79.394	0.035	0.038
-699.514	-200.000	-0.005	-0.048
-698.499	207.509	-0.045	0.071
-697.485	800.000	0.059	-0.216
-696.470	99.531	0.232	-0.270
-695.456	-2.941	-0.079	-0.056
-694.441	-31.192	0.126	-0.071
-693.426	-200.000	0.004	-0.137
-692.412	-200.000	0.046	-0.232
-691.397	141.688	0.234	0.312
-690.383	-55.999	-0.085	-0.038
-689.368	86.001	-0.153	-0.169
-688.354	-200.000	-0.027	0.183
-687.339	28.352	-0.230	-0.196
-686.324	-23.706	0.118	0.071
-685.310	412.338	-0.113	-0.242
-684.295	270.121	0.125	-0.221
-683.281	-35.921	0.441	-0.240
-682.266	-93.517	-0.166	-0.046
-681.251	-177.347	-0.154	-0.004
-680.237	-164.570	-0.142	0.006
-679.222	37.352	0.308	-0.275
-678.208	-37.872	-0.169	-0.090
-677.193	-189.490	-0.206	0.002
-676.178	253.497	-0.085	0.146
-675.164	1.716	-0.133	-0.096
-674.149	-149.548	0.063	0.005
-673.135	135.359	-0.130	0.170
-672.120	25.167	0.139	-0.116
-671.105	-78.577	-0.239	-0.082
-670.091	-123.254	-0.326	-0.052
-669.076	-96.260	-0.162	-0.043
-668.062	-92.233	0.193	-0.055
-667.047	12.526	0.107	-0.083
-666.032	800.000	0.071	-0.283
-665.018	90.839	0.105	-0.118
-664.003	543.760	0.089	0.214
-662.989	43.513	-0.164	-0.150
-661.974	-20.848	-0.374	-0.231
-660.959	-5.004	-0.192	0.133
-659.945	-200.000	-0.007	0.052
-658.930	45.936	-0.179	0.167
-657.916	-200.000	-0.064	0.000
-656.901	800.000	-0.053	-0.199
-655.886	244.600	0.130	-0.220
-654.872	-30.531	-0.206	0.117
-653.857	773.510	0.021	-0.057
-652.843	394.216	0.164	0.343
-651.828	416.295	0.200	-0.430
-650.814	-200.000	0.002	-0.196
-649.799	800.000	0.102	-0.297
-648.784	800.000	-0.027	0.116
-647.770	8.731	0.229	-0.173
-646.755	-105.803	-0.249	-0.056
-645.741	-15.990	-0.495	-0.317
-644.726	97.347	-0.206	-0.237
-643.711	-76.521	-0.090	0.032
-642.697	-47.960	-0.166	0.081
-641.682	77.746	0.089	0.095
-640.668	16.723	-0.090	0.072
-639.653	-147.049	-0.020	-0.002
-638.638	-92.634	-0.117	-0.033
-637.624	257.236	-0.199	-0.344
-636.609	-53.614	-0.216	0.099
-635.595	27.918	0.296	-0.251
-634.580	243.041	0.096	0.161
-633.565	-102.638	0.201	0.048
-632.551	800.000	-0.030	-0.104
-631.536	46.310	0.094	0.088
-630.522	23.453	0.246	0.203
-629.507	-57.137	-0.237	-0.105
-628.492	437.854	-0.059	-0.129
-627.478	54.211	0.267	0.258
-626.463	449.008	0.072	-0.160
-625.449	-79.291	0.060	0.020
-624.434	-200.000	-0.013	-0.080
-623.419	123.104	-0.309	-0.388
-622.405	-43.139	-0.161	0.082
-621.390	-120.271	0.129	-0.022
-620.376	99.436	-0.164	0.191
-619.361	-164.137	0.247	-0.011
-618.346	800.000	-0.034	-0.137
-617.332	-200.000	-0.029	0.266
-616.317	59.574	0.103	-0.102
-615.303	-102.449	-0.250	0.060
-614.288	-3.319	-0.099	-0.069
-613.273	39.718	-0.101	-0.091
-612.259	-200.000	-0.019	-0.239
-611.244	458.061	0.078	0.174
-610.230	-22.085	0.161	0.098
-609.215	-84.121	0.111	-0.035
-608.201	38.494	-0.209	0.187
-607.186	-15.164	0.327	0.210
-606.171	-116.352	-0.120	-0.022
-605.157	-133.061	-0.230	-0.029
-604.142	188.433	-0.158	-0.237
-603.128	-90.167	0.129	-0.038
-602.113	186.959	0.185	0.276
-601.098	-200.000	-0.075	-0.346
-600.084	-31.756	0.030	-0.017
-599.069	66.192	-0.107	-0.109
-598.055	-61.165	0.044	-0.019
-597.040	26.735	0.220	0.185
-596.025	-91.124	-0.074	0.021
-595.011	438.386	0.076	-0.167
-593.996	-154.894	-0.117	0.008
-592.982	105.455	0.078	-0.092
-591.967	81.104	-0.356	-0.385
-590.952	-200.000	0.044	-0.287
-589.938	-98.041	0.072	-0.019
-588.923	-61.019	-0.100	-0.042
-587.909	-0.525	-0.208	-0.148
-586.894	-66.241	-0.155	0.062
-585.879	207.382	0.117	-0.183
-584.865	-194.042	0.222	-0.002
-583.850	-200.000	0.012	-0.056
-582.836	-90.269	-0.147	-0.043
-581.821	-200.000	-0.017	-0.254
-580.806	800.000	0.051	-0.167
-579.792	681.506	-0.091	-0.239
-578.777	-200.000	0.000	0.076
-577.763	-107.565	0.022	0.005
-576.748	-46.008	-0.155	-0.076
-575.733	261.444	-0.387	-0.671
-574.719	-46.070	0.132	0.065
-573.704	-32.603	-0.103	0.058
-572.690	-152.738	0.117	-0.008
-571.675	70.216	-0.194	0.201
-570.661	-70.499	0.075	0.028
-569.646	242.818	-0.054	0.091
-568.631	-200.000	-0.036	-0.197
-567.617	89.514	-0.095	-0.106
-566.602	-70.339	-0.301	-0.114
-565.588	-72.088	-0.239	0.089
-564.573	560.611	0.182	-0.441
-563.558	-97.773	0.196	-0.051
-562.544	-200.000	-0.024	0.114
-561.529	166.612	0.141	-0.200
-560.515	75.633	0.257	-0.272
-559.500	-84.917	0.115	0.036
-558.485	-51.308	-0.186	0.087
-557.471	-126.061	-0.164	0.025
-556.456	-14.611	0.254	-0.164
-555.442	800.000	-0.060	-0.254
-554.427	240.560	0.175	0.292
-553.412	10.119	0.120	0.091
-552.398	93.560	0.245	0.277
-551.383	800.000	0.075	0.252
-550.369	283.548	-0.140	0.252
-549.354	-200.000	-0.044	0.233
-548.339	-64.577	-0.058	-0.024
-547.325	96.046	0.015	0.017
-546.310	-200.000	-0.003	0.284
-545.296	-200.000	0.018	0.175
-544.281	-114.028	-0.260	-0.050
-543.266	800.000	0.060	0.220
-542.252	-86.039	0.157	0.048
-541.237	70.664	-0.033	-0.034
-540.223	-68.348	-0.133	0.052
-539.208	161.350	-0.174	0.244
-538.193	-106.033	0.207	-0.046
-537.179	494.429	0.048	-0.110
-536.164	215.475	-0.195	-0.310
-535.150	800.000	-0.072	-0.236
-534.135	-131.860	0.262	-0.034
-533.121	-107.453	0.339	-0.074
-532.106	-63.539	-0.252	0.103
-531.091	800.000	-0.102	0.422
-530.077	800.000	0.069	-0.234
-529.062	-168.459	-0.473	0.018
-528.048	86.240	-0.117	0.129
-527.033	-99.450	-0.150	0.038
-526.018	-155.520	-0.169	0.011
-525.004	29.302	-0.192	0.163
-523.989	92.321	0.121	-0.137
-522.975	-200.000	0.017	0.183
-521.960	-118.904	-0.212	-0.037
-520.945	-86.651	0.304	-0.093
-519.931	-89.831	0.241	-0.070
-518.916	-118.476	0.210	-0.037
-517.902	-197.279	0.126	-0.001
-516.887	-200.000	-0.022	-0.099
-515.872	159.930	0.053	-0.074
-514.858	175.808	-0.100	-0.145
-513.843	-152.486	-0.136	0.010
-512.829	-11.463	-0.244	-0.161
-511.814	32.338	0.145	0.125
-510.799	-165.092	0.150	-0.007
-509.785	800.000	-0.054	-0.176
-508.770	237.140	-0.102	-0.168
-507.756	-132.907	0.217	0.028
-506.741	120.775	-0.118	-0.147
-505.726	-200.000	-0.025	-0.175
-504.712	-136.253	0.163	0.019
-503.697	-66.989	-0.440	-0.174
-502.683	-92.209	-0.576	0.162
-501.668	-119.859	0.050	-0.009
-500.653	-48.109	0.079	-0.038
-499.639	-74.248	-0.188	0.068
-498.624	275.604	-0.222	-0.393
-497.610	800.000	-0.048	0.145
-496.595	-135.237	0.246	-0.029
-495.581	-93.705	-0.268	-0.074
-494.566	-143.893	0.265	0.025
-493.551	-125.857	0.133	0.020
-492.537	23.097	0.241	0.198
-491.522	-45.613	-0.072	-0.035
-490.508	-96.450	-0.516	-0.136
-489.493	-63.210	-0.251	-0.103
-488.478	-84.150	0.385	0.122
-487.464	-200.000	-0.017	0.162
-486.449	-73.519	0.335	-0.122
-485.435	-29.529	0.191	-0.109
-484.420	800.000	0.092	-0.259
-483.405	800.000	0.059	-0.205
-482.391	51.677	0.290	-0.276
-481.376	-166.261	0.205	-0.009
-480.362	-6.403	0.358	-0.244
-479.347	177.916	-0.041	-0.059
-478.332	-200.000	0.039	0.220
-477.318	135.922	0.111	0.144
-476.303	-127.724	-0.265	-0.038
-475.289	219.201	0.044	-0.070
-474.274	77.311	0.116	-0.123
-473.259	800.000	0.010	0.043
-472.245	330.085	0.080	0.154
-471.230	202.759	-0.122	-0.188
-470.216	-200.000	0.062	-0.331
-469.201	800.000	-0.055	-0.167
-468.186	137.352	-0.166	0.217
-467.172	185.380	0.087	-0.129
-466.157	-1.579	0.177	0.125
-465.143	7.764	-0.267	-0.199
-464.128	-36.647	0.167	0.089
-463.113	125.209	0.061	-0.077
-462.099	-0.933	0.341	0.241
-461.084	-114.256	-0.318	-0.061
-460.070	532.467	0.045	0.106
-459.055	35.424	0.131	-0.115
-458.040	-99.220	0.203	0.051
-457.026	554.362	-0.064	0.152
-456.011	-143.653	0.152	-0.014
-454.997	-200.000	-0.018	0.081
-453.982	-25.077	0.051	-0.030
-452.968	800.000	0.024	0.076
-451.953	25.514	-0.235	-0.195
-450.938	465.862	0.171	-0.383
-449.924	-126.119	0.290	0.043
-448.909	800.000	-0.158	-0.467
-447.895	-75.808	-0.128	0.045
-446.880	530.056	-0.142	-0.334
-445.865	-12.830	0.161	-0.104
-444.851	152.959	0.108	-0.147
-443.836	278.649	-0.111	0.197
-442.822	32.823	-0.105	-0.090
-441.807	-27.271	-0.116	0.067
-440.792	-200.000	0.013	-0.095
-439.778	-68.407	0.353	-0.137
-438.763	23.865	-0.096	-0.079
-437.749	53.401	0.071	-0.067
-436.734	-200.000	0.037	0.220
-435.719	800.000	0.045	-0.148
-434.705	-138.578	0.338	-0.037
-433.690	50.961	-0.048	-0.046
-432.676	-15.677	0.145	-0.092
-431.661	336.146	0.070	-0.134
-430.646	710.611	0.059	-0.155
-429.632	29.310	0.259	0.219
-428.617	-129.659	-0.155	-0.021
-427.603	95.597	-0.110	0.125
-426.588	-162.564	-0.524	0.026
-425.573	800.000	-0.096	-0.376
-424.559	-15.322	0.218	0.139
-423.544	-45.532	0.115	-0.057
-422.530	72.459	0.251	-0.261
-421.515	800.000	-0.110	0.453
-420.500	374.801	-0.004	0.009
-419.486	432.289	0.063	0.135
-418.471	186.055	-0.167	-0.247
-417.457	-200.000	-0.046	-0.273
-416.442	-200.000	-0.041	-0.250
-415.428	800.000	0.083	0.278
-414.413	33.767	-0.113	-0.098
-413.398	-147.494	-0.200	0.017
-412.384	-200.000	0.004	-0.164
-411.369	-200.000	0.011	-0.252
-410.355	58.771	0.081	0.079
-409.340	-56.304	-0.125	0.055
-408.325	-3.654	-0.186	0.128
-407.311	-38.697	0.119	0.062
-406.296	54.243	0.272	-0.260
-405.282	375.985	0.087	-0.176
-404.267	492.377	0.213	0.487
-403.252	136.623	-0.158	0.206
-402.238	800.000	0.054	0.182
-401.223	800.000	0.033	-0.123
-400.209	69.529	-0.096	-0.099
-399.194	-118.052	0.156	0.028
-398.179	135.162	0.159	-0.205
-397.165	789.328	-0.082	-0.224
-396.150	82.466	-0.164	0.177
-395.136	0.857	-0.123	-0.088
-394.121	792.361	-0.076	0.207
-393.106	-66.029	0.224	-0.089
-392.092	-178.320	0.201	0.005
-391.077	-200.000	-0.030	0.208
-390.063	-109.489	-0.145	-0.030
-389.048	131.686	0.140	-0.179
-388.033	22.114	-0.157	0.127
-387.019	-115.876	0.173	0.032
-386.004	704.286	0.060	-0.158
-384.990	-200.000	0.012	-0.192
-383.975	-132.060	-0.037	-0.005
-382.960	-3.366	0.113	0.078
-381.946	-118.743	-0.132	0.023
-380.931	-46.369	-0.029	0.014
-379.917	-17.656	-0.102	0.064
-378.902	5.095	0.129	-0.094
-377.888	56.701	-0.050	-0.049
-376.873	-38.542	0.369	-0.194
-375.858	491.102	0.108	0.246
-374.844	-200.000	-0.048	0.309
-373.829	124.011	-0.134	-0.167
-372.815	137.682	-0.028	0.037
-371.800	-69.373	0.133	0.051
-370.785	28.079	0.072	0.061
-369.771	-200.000	0.057	0.346
-368.756	545.990	-0.070	0.165
-367.742	-139.926	-0.276	-0.029
-366.727	-50.676	-0.119	-0.056
-365.712	15.808	-0.053	-0.041
-364.698	22.445	0.272	0.221
-363.683	-200.000	0.043	-0.262
-362.669	-200.000	0.010	0.158
-361.654	103.814	0.132	0.154
-360.639	-200.000	-0.026	0.114
-359.625	-38.575	-0.296	-0.155
-358.610	156.359	0.123	0.169
-357.596	-11.956	0.353	-0.230
-356.581	-70.657	-0.264	-0.099
-355.566	800.000	0.021	-0.090
-354.552	-200.000	0.004	-0.170
-353.537	483.211	0.133	0.300
-352.523	-200.000	-0.004	-0.245
-351.508	-97.671	-0.263	-0.068
-350.493	-118.722	-0.085	-0.015
-349.479	-200.000	-0.019	0.313
-348.464	256.426	-0.149	0.255
-347.450	126.569	0.022	0.028
-346.435	325.042	-0.099	-0.188
-345.420	800.000	0.072	-0.305
-344.406	-81.967	-0.443	-0.144
-343.391	-13.555	0.203	0.130
-342.377	70.451	0.061	-0.062
-341.362	-69.753	0.323	0.123
-340.348	117.304	-0.267	0.325
-339.333	-64.136	0.102	0.041
-338.318	748.137	0.173	0.462
-337.304	388.456	-0.147	0.302
-336.289	-30.806	0.167	0.093
-335.275	800.000	-0.006	-0.024
-334.260	-153.062	0.230	0.016
-333.245	-150.802	-0.202	0.015
-332.231	-113.453	0.101	0.020
-331.216	-58.417	0.152	-0.065
-330.202	72.448	-0.146	-0.151
-329.187	-112.967	-0.227	-0.045
-328.172	-8.896	0.063	0.042
-327.158	-200.000	-0.020	0.201
-326.143	306.471	0.091	-0.168
-325.129	-65.448	-0.197	-0.078
-324.114	29.153	-0.194	-0.164
-323.099	608.972	0.176	0.437
-322.085	-200.000	-0.033	-0.165
-321.070	-40.852	0.379	-0.195
-320.056	-79.127	-0.082	0.028
-319.041	124.314	0.056	-0.070
-318.026	-134.390	-0.306	-0.037
-317.012	396.481	0.132	-0.273
-315.997	-134.943	-0.043	-0.005
-314.983	-42.356	0.238	0.120
-313.968	-30.832	0.190	0.107
-312.953	-200.000	-0.022	0.127
-311.939	113.398	0.048	-0.058
-310.924	-200.000	-0.026	0.315
-309.910	41.377	-0.184	0.165
-308.895	-107.422	-0.092	0.020
-307.880	118.586	-0.059	-0.073
-306.866	-70.571	0.186	-0.070
-305.851	-200.000	-0.025	-0.304
-304.837	54.174	0.074	0.070
-303.822	800.000	-0.023	0.064
-302.807	-64.637	-0.090	-0.036
-301.793	-193.133	-0.105	0.001
-300.778	157.840	-0.137	-0.188
-299.764	-137.318	0.166	0.019
-298.749	-200.000	0.122	0.000
-297.735	-79.389	0.140	0.047
-296.720	-149.583	-0.139	0.011
-295.705	43.679	0.137	-0.124
-294.691	800.000	0.057	0.180
-293.676	-154.686	-0.172	0.011
-292.662	735.952	0.161	0.428
-291.647	-76.444	0.111	0.039
-290.632	-122.472	0.155	-0.025
-289.618	248.635	0.043	-0.073
-288.603	327.854	0.037	0.070
-287.589	-200.000	-0.046	-0.231
-286.574	-37.383	-0.193	-0.102
-285.559	302.162	-0.077	0.140
-284.545	-118.053	0.186	0.033
-283.530	-60.202	0.031	0.013
-282.516	-137.778	0.275	0.030
-281.501	22.553	-0.277	0.225
-280.486	247.500	-0.038	0.064
-279.472	18.303	0.458	-0.362
-278.457	800.000	0.084	0.317
-277.443	-159.592	0.174	0.010
-276.428	-167.744	0.150	0.006
-275.413	104.880	0.158	-0.185
-274.399	-149.939	-0.254	-0.020
-273.384	-42.425	0.066	0.034
-272.370	142.603	-0.074	-0.097
-271.355	178.119	-0.122	-0.176
-270.340	425.425	-0.142	-0.304
-269.326	-28.719	0.171	-0.097
-268.311	-104.529	-0.350	-0.080
-267.297	-126.459	0.102	-0.015
-266.282	800.000	0.087	0.319
-265.267	-200.000	-0.028	0.344
-264.253	-63.685	-0.200	-0.081
-263.238	-200.000	-0.072	0.350
-262.224	800.000	0.074	0.209
-261.209	-30.757	-0.125	-0.070
-260.195	8.257	0.087	0.065
-259.180	-168.604	0.302	-0.011
-258.165	-52.211	0.312	0.143
-257.151	-4.555	0.048	-0.033
-256.136	-91.351	0.236	-0.067
-255.122	51.349	0.194	-0.182
-254.107	-46.357	0.168	0.082
-253.092	-128.415	-0.134	0.019
-252.078	-25.961	0.056	0.033
-251.063	39.059	0.070	0.062
-250.049	68.033	-0.112	0.114
-249.034	266.586	0.140	0.242
-248.019	109.206	0.048	0.057
-247.005	-16.780	-0.177	0.111
-245.990	6.140	-0.207	0.152
-244.976	-153.143	0.172	0.012
-243.961	-66.649	-0.175	0.069
-242.946	800.000	-0.161	-0.462
-241.932	-16.804	-0.189	0.118
-240.917	22.526	-0.240	-0.194
-239.903	172.129	-0.089	0.126
-238.888	-102.177	0.030	-0.007
-237.873	16.651	-0.266	0.208
-236.859	-193.895	0.390	-0.003
-235.844	-200.000	-0.130	-0.001
-234.830	-87.085	-0.107	0.032
-233.815	434.924	0.069	-0.148
-232.800	-46.771	-0.007	0.003
-231.786	256.237	-0.215	0.365
-230.771	6.175	-0.195	-0.143
-229.757	800.000	-0.019	-0.054
-228.742	34.619	-0.254	-0.219
-227.727	-200.000	0.032	-0.239
-226.713	528.967	0.096	0.223
-225.698	24.122	0.084	-0.068
-224.684	592.617	-0.024	0.059
-223.669	387.274	-0.083	0.170
-222.655	-68.730	0.486	0.186
-221.640	-85.935	-0.204	-0.062
-220.625	-200.000	-0.003	0.270
-219.611	-200.000	-0.065	0.387
-218.596	109.478	0.286	0.339
-217.582	111.841	-0.204	0.243
-216.567	6.206	-0.207	-0.152
-215.552	-200.000	0.036	0.192
-214.538	-131.313	0.091	0.012
-213.523	-82.249	0.363	0.117
-212.509	-200.000	0.005	0.428
-211.494	-200.000	0.056	0.344
-210.479	-61.714	0.125	0.052
-209.465	-200.000	0.018	0.296
-208.450	-40.500	-0.073	-0.037
-207.436	-121.245	0.251	0.041
-206.421	-154.867	-0.138	-0.009
-205.406	-144.218	0.149	0.014
-204.392	-43.076	-0.208	-0.104
-203.377	-44.291	-0.404	0.200
-202.363	-200.000	0.017	0.074
-201.348	-21.183	0.091	0.055
-200.333	137.856	-0.177	0.229
-199.319	-185.922	-0.288	-0.004
-198.304	-32.881	-0.131	-0.072
-197.290	-47.301	-0.073	0.035
-196.275	199.302	-0.322	0.487
-195.260	-13.458	-0.036	-0.023
-194.246	0.289	-0.086	0.061
-193.231	138.187	0.127	-0.164
-192.217	77.926	0.050	-0.053
-191.202	-200.000	0.049	0.327
-190.187	347.840	-0.114	0.223
-189.173	69.807	0.119	0.121
-188.158	120.781	0.253	0.311
-187.144	87.239	0.117	0.128
-186.129	-145.546	-0.373	-0.033
-185.114	-56.107	0.226	-0.099
-184.100	-200.000	-0.010	0.428
-183.085	-30.670	-0.031	0.018
-182.071	-118.506	0.246	0.043
-181.056	73.254	0.041	-0.042
-180.042	-33.482	0.213	0.116
-179.027	189.683	-0.100	0.148
-178.012	-112.544	0.093	-0.018
-176.998	601.846	0.076	-0.187
-175.983	-200.000	0.009	-0.185
-174.969	145.912	-0.053	0.070
-173.954	15.805	-0.139	-0.108
-172.939	71.607	-0.170	-0.174
-171.925	-64.249	0.341	0.137
-170.910	-200.000	0.002	0.023
-169.896	-118.181	0.099	-0.017
-168.881	-162.715	-0.309	0.015
-167.866	800.000	0.042	0.138
-166.852	-36.021	-0.398	0.212
-165.837	-100.100	0.042	-0.010
-164.823	-99.336	0.306	0.076
-163.808	-54.152	-0.171	-0.076
-162.793	800.000	-0.086	-0.284
-161.779	1.690	-0.273	-0.194
-160.764	324.933	0.072	0.136
-159.750	-38.588	0.152	0.079
-158.735	35.565	-0.033	0.028
-157.720	166.912	-0.083	0.116
-156.706	-13.869	-0.228	0.145
-155.691	70.772	-0.079	-0.081
-154.677	-54.450	0.249	0.111
-153.662	439.756	-0.088	-0.190
-152.647	778.137	0.079	-0.213
-151.633	308.161	0.028	0.052
-150.618	95.402	-0.101	0.114
-149.604	134.336	0.199	-0.254
-148.589	-8.488	-0.085	0.057
-147.574	188.564	-0.136	-0.201
-146.560	800.000	-0.057	0.219
-145.545	50.536	-0.114	-0.106
-144.531	-94.678	-0.340	0.091
-143.516	-200.000	0.038	0.201
-142.502	203.906	-0.132	0.202
-141.487	4.955	-0.127	-0.092
-140.472	-200.000	-0.001	-0.066
-139.458	-27.994	0.224	-0.127
-138.443	-76.674	-0.151	0.052
-137.429	800.000	-0.101	-0.328
-136.414	-200.000	0.023	0.161
-135.399	305.637	-0.160	-0.292
-134.385	30.327	-0.123	-0.104
-133.370	-200.000	0.066	-0.462
-132.356	-13.040	0.207	0.133
-131.341	28.807	-0.300	0.250
-130.326	-154.504	0.440	-0.029
-129.312	-98.773	0.062	-0.016
-128.297	35.385	0.136	-0.118
-127.283	-125.639	-0.185	0.028
-126.268	-200.000	-0.003	-0.293
-125.253	-128.768	0.178	-0.025
-124.239	249.220	-0.211	0.352
-123.224	-68.994	-0.196	-0.075
-122.210	-60.194	0.085	-0.036
-121.195	-96.703	0.308	0.080
-120.180	-14.622	-0.174	0.110
-119.166	-128.526	0.172	0.024
-118.151	-164.679	0.499	0.022
-117.137	78.065	-0.117	0.123
-116.122	-200.000	0.049	-0.226
-115.107	200.255	-0.030	0.045
-114.093	-200.000	-0.028	0.284
-113.078	-186.950	0.285	0.004
-112.064	800.000	0.043	-0.146
-111.049	388.813	-0.148	-0.301
-110.034	6.614	-0.296	0.216
-109.020	800.000	-0.038	-0.112
-108.005	174.731	-0.147	-0.210
-106.991	292.888	0.176	-0.315
-105.976	109.602	-0.182	-0.214
-104.962	-118.507	0.101	-0.018
-103.947	800.000	-0.112	0.358
-102.932	-200.000	0.034	-0.175
-101.918	-147.562	0.194	0.016
-100.903	515.646	0.046	0.105
-99.889	-56.075	0.145	0.064
-98.874	78.890	0.151	0.159
-97.859	85.318	-0.168	-0.182
-96.845	800.000	0.065	-0.177
-95.830	-200.000	-0.023	-0.400
-94.816	-42.303	0.127	0.064
-93.801	601.230	0.044	-0.107
-92.786	-14.411	0.193	-0.122
-91.772	-147.324	-0.285	0.024
-90.757	-200.000	0.020	0.319
-89.743	-200.000	-0.007	-0.161
-88.728	-80.416	-0.082	-0.027
-87.713	-0.948	0.213	-0.148
-86.699	-51.814	-0.221	0.101
-85.684	379.117	0.086	-0.172
-84.670	131.219	-0.076	0.096
-83.655	-30.070	0.104	0.058
-82.640	122.767	-0.159	0.196
-81.626	800.000	-0.051	0.142
-80.611	-97.171	-0.238	0.061
-79.597	-200.000	0.063	-0.336
-78.582	678.235	0.085	0.216
-77.567	800.000	-0.045	0.139
-76.553	594.698	-0.043	0.104
-75.538	65.927	-0.070	0.070
-74.524	0.540	0.027	0.019
-73.509	-77.277	0.115	-0.039
-72.494	52.623	0.322	0.302
-71.480	-57.801	0.201	0.086
-70.465	-83.787	-0.136	0.042
-69.451	800.000	0.060	0.179
-68.436	65.921	0.102	0.102
-67.422	333.172	0.156	-0.296
-66.407	101.599	0.150	0.171
-65.392	37.141	-0.079	0.069
-64.378	-74.676	0.042	0.015
-63.363	35.115	-0.158	-0.136
-62.349	58.516	-0.128	-0.123
-61.334	10.950	-1.212	-0.909
-60.319	114.827	0.435	0.520
-59.305	800.000	-0.483	-1.361
-58.290	225.225	0.639	1.016
-57.276	261.562	0.752	1.279
-56.261	-200.000	107.027	589.512
-55.246	520.169	1472.000	3387.249
-54.232	182.581	2653.881	3842.161
-53.217	110.831	2165.063	2557.332
-52.203	40.096	1697.929	1497.898
-51.188	33.044	1512.003	1286.040
-50.173	30.569	1485.805	1247.129
-49.159	50.533	1541.319	1430.831
-48.144	51.169	1558.406	1450.987
-47.130	33.074	1514.800	1288.415
-46.115	30.127	1499.431	1255.373
-45.100	29.991	1495.804	1251.365
-44.086	29.948	1493.866	1249.407
-43.071	29.878	1492.009	1247.330
-42.057	29.888	1490.193	1245.833
-41.042	29.845	1489.243	1244.695
-40.027	29.843	1487.693	1243.339
-39.013	29.852	1485.969	1241.907
-37.998	29.865	1484.690	1240.875
-36.984	29.757	1483.838	1239.393
-35.969	29.804	1482.243	1238.327
-34.954	29.849	1480.657	1237.251
-33.940	29.877	1479.905	1236.761
-32.925	29.875	1478.185	1235.265
-31.911	29.935	1477.000	1234.623
-30.896	29.962	1476.019	1233.937
-29.881	29.909	1474.509	1232.271
-28.867	29.929	1473.495	1231.507
-27.852	29.988	1471.605	1230.272
-26.838	29.973	1470.530	1229.221
-25.823	29.860	1469.636	1227.678
-24.809	29.950	1467.399	1226.355
-23.794	29.989	1465.922	1225.333
-22.779	29.966	1464.909	1224.280
-21.765	29.938	1463.911	1223.215
-20.750	30.014	1462.595	1222.572
-19.736	29.895	1461.695	1220.983
-18.721	29.831	1460.717	1219.695
-17.706	29.907	1459.377	1219.029
-16.692	29.934	1457.857	1217.889
-15.677	29.808	1457.683	1216.870
-14.663	29.829	1456.638	1216.086
-13.648	29.812	1455.423	1214.908
-12.633	29.887	1454.278	1214.397
-11.619	29.860	1453.037	1213.138
-10.604	29.854	1452.565	1212.653
-9.590	29.824	1451.918	1211.870
-8.575	29.883	1450.818	1211.292
-7.560	29.784	1449.538	1209.528
-6.546	29.749	1449.191	1208.961
-5.531	29.842	1448.050	1208.568
-4.517	29.833	1447.099	1207.670
-3.502	29.838	1445.894	1206.649
-2.487	29.868	1445.056	1206.094
-1.473	29.785	1444.394	1204.954
-0.458	29.783	1443.186	1203.886
0.556	31.398	1433.061	1191.979
1.571	28.258	1407.791	1151.151
2.586	24.523	1349.222	1080.606
3.600	22.884	1267.985	1006.124
4.615	21.437	1222.205	961.762
5.629	18.719	1166.009	903.177
6.644	10.981	1083.596	801.297
7.659	4.854	1044.155	742.907
8.673	3.982	1039.004	735.039
9.688	3.775	1035.743	731.685
10.702	3.521	1034.408	729.479
11.717	3.673	1032.315	728.655
12.731	6.471	1034.814	743.575
13.746	14.537	1045.686	789.647
14.761	21.509	1054.984	829.779
15.775	23.631	1056.296	840.800
16.790	23.371	1055.664	838.994
17.804	22.535	1053.492	833.241
18.819	21.946	1052.516	829.611
19.834	21.630	1051.973	827.619
20.848	21.691	1050.487	826.661
21.863	21.763	1050.834	827.203
22.877	21.832	1049.871	826.698
23.892	21.642	1049.081	825.109
24.907	21.411	1048.076	823.157
25.921	21.484	1047.700	823.133
26.936	21.289	1046.787	821.425
27.950	21.325	1045.541	820.542
28.965	21.278	1044.633	819.540
29.980	21.386	1043.462	819.054
30.994	21.516	1042.410	818.764
32.009	21.531	1041.626	818.146
33.023	21.682	1041.097	818.364
34.038	21.696	1040.617	817.975
35.053	21.569	1039.437	816.387
36.067	21.413	1038.434	814.800
37.082	21.170	1037.492	812.855
38.096	21.329	1036.640	812.857
39.111	21.468	1036.183	813.073
40.126	21.557	1035.151	812.603
41.140	21.394	1034.137	810.977
42.155	21.082	1032.598	808.255
43.169	20.842	1031.290	806.052
44.184	20.678	1030.571	804.657
45.199	20.786	1029.216	804.028
46.213	20.680	1028.414	802.842
47.228	20.830	1027.824	803.001
48.242	21.238	1027.163	804.291
49.257	21.530	1026.223	804.830
50.271	21.552	1025.589	804.362
51.286	21.478	1025.105	803.572
52.301	21.483	1024.635	803.155
53.315	21.634	1023.515	802.897
54.330	21.524	1022.795	801.755
55.344	21.345	1021.867	800.142
56.359	21.095	1020.789	798.082
57.374	21.183	1019.980	797.780
58.388	21.101	1019.514	796.972
59.403	21.054	1017.948	795.461
60.417	20.712	1017.748	793.678
61.432	20.686	1017.126	793.002
62.447	20.780	1016.492	792.864
63.461	20.761	1015.405	791.860
64.476	20.669	1014.372	790.567
65.490	20.480	1013.956	789.317
66.505	20.520	1012.696	788.447
67.520	20.471	1012.177	787.750
68.534	20.729	1010.835	787.806
69.549	20.612	1010.115	786.644
70.563	20.467	1009.675	785.575
71.578	20.331	1009.291	784.591
72.593	20.130	1008.222	782.785
73.607	19.988	1006.876	781.031
74.622	20.076	1005.737	780.474
75.636	20.128	1005.293	780.294
76.651	20.235	1004.401	780.016
77.666	20.306	1003.736	779.748
78.680	20.347	1002.880	779.198
79.695	20.371	1002.639	779.049
80.709	20.410	1001.989	778.652
81.724	20.515	1001.154	778.404
82.739	20.637	1001.063	778.809
83.753	20.781	999.974	778.539
84.768	21.167	999.598	779.901
85.782	21.565	999.399	781.453
86.797	21.877	998.957	782.431
87.812	21.974	997.656	781.775
88.826	21.578	997.191	779.580
89.841	21.609	996.186	778.860
90.855	21.791	995.516	779.076
91.870	21.848	994.674	778.604
92.884	21.819	994.252	778.074
93.899	21.920	993.228	777.654
94.914	21.722	992.212	775.910
95.928	21.837	991.666	775.926
96.943	21.918	990.366	775.196
97.957	21.540	990.070	773.225
98.972	21.424	988.971	771.786
99.987	21.578	988.289	771.868
101.001	21.724	987.460	771.796
102.016	21.778	986.543	771.246
103.030	21.436	985.565	768.909
104.045	21.608	984.765	768.974
105.060	21.691	983.906	768.601
106.074	21.588	983.182	767.516
107.089	21.390	981.427	765.211
108.103	21.052	980.938	763.284
109.118	20.785	980.056	761.362
110.133	20.587	978.685	759.362
111.147	20.529	977.468	758.098
112.162	20.353	976.841	756.778
113.176	20.490	975.617	756.360
114.191	20.606	975.191	756.469
115.206	20.772	974.690	756.735
116.220	20.886	973.636	756.343
117.235	20.757	973.174	755.357
118.249	20.605	972.257	753.922
119.264	20.593	971.099	752.902
120.279	20.566	970.175	752.003
121.293	20.367	969.695	750.707
122.308	20.145	969.299	749.374
123.322	20.194	967.720	748.297
124.337	20.055	966.908	747.004
125.352	20.036	965.696	745.919
126.366	20.015	964.525	744.859
127.381	20.033	963.931	744.413
128.395	20.086	962.830	743.723
129.410	20.276	962.155	743.948
130.424	20.308	961.389	743.430
131.439	20.311	960.611	742.772
132.454	20.675	959.794	743.633
133.468	20.692	959.600	743.491
134.483	20.608	959.210	742.764
135.497	20.859	957.903	742.755
136.512	20.856	957.137	742.081
137.527	20.920	956.673	741.931
138.541	20.845	956.034	741.049
139.556	20.882	955.309	740.577
140.570	20.787	954.900	739.795
141.585	21.000	954.178	740.074
142.600	21.310	953.816	741.039
143.614	21.406	952.988	740.740
144.629	21.620	952.496	741.198
145.643	21.637	951.939	740.771
146.658	21.711	950.713	740.061
147.673	21.577	949.574	738.544
148.687	21.100	948.717	735.804
149.702	20.921	947.765	734.246
150.716	20.881	946.776	733.248
151.731	20.797	945.516	731.851
152.746	20.835	944.500	731.160
153.760	21.009	944.155	731.560
154.775	21.140	943.147	731.263
155.789	21.236	942.221	730.881
156.804	21.285	942.039	730.880
157.819	21.131	941.278	729.580
158.833	21.304	940.503	729.638
159.848	21.543	940.039	730.209
160.862	21.653	939.401	730.110
161.877	21.649	938.721	729.500
162.892	21.180	937.096	726.222
163.906	20.916	936.104	724.291
164.921	20.821	935.206	723.138
165.935	20.764	934.328	722.161
166.950	20.785	933.275	721.369
167.964	21.054	932.227	721.607
168.979	20.998	931.709	720.911
169.994	20.939	930.292	719.509
171.008	20.970	929.300	718.805
172.023	21.033	929.185	718.912
173.037	21.368	928.500	719.697
174.052	21.581	927.920	720.060
175.067	21.506	927.224	719.147
176.081	21.105	925.861	716.381
177.096	20.483	924.940	713.054
178.110	20.553	924.243	712.743
179.125	20.625	923.262	712.214
180.140	20.729	922.414	711.925
181.154	20.909	921.962	712.247
182.169	21.093	921.868	712.864
183.183	21.260	921.533	713.225
184.198	21.346	921.067	713.151
185.213	21.308	920.209	712.271
186.227	21.286	919.204	711.337
187.242	21.394	919.021	711.572
188.256	21.347	918.709	711.078
189.271	21.467	917.808	710.807
190.286	21.769	917.026	711.363
191.300	21.523	916.125	709.602
192.315	20.994	914.462	706.109
193.329	20.467	913.723	703.345
194.344	20.655	912.909	703.416
195.359	20.545	913.161	703.103
196.373	20.874	912.249	703.670
197.388	21.045	911.474	703.698
198.402	21.312	911.431	704.678
199.417	21.436	911.688	705.317
200.432	21.734	911.611	706.396
201.446	21.959	911.460	707.122
202.461	22.162	910.332	707.002
203.475	22.006	910.509	706.447
204.490	22.038	909.295	705.573
205.504	21.673	908.189	703.188
206.519	21.302	907.152	700.836
207.534	21.382	906.664	700.715
208.548	21.383	905.399	699.682
209.563	21.362	905.106	699.308
210.577	21.444	904.260	698.920
211.592	21.371	903.737	698.164
212.607	21.680	903.462	699.122
213.621	21.975	903.477	700.248
214.636	21.959	902.687	699.510
215.650	21.597	902.014	697.485
216.665	21.657	901.338	697.140
217.680	21.794	900.652	697.091
218.694	21.773	900.482	696.814
219.709	22.010	899.842	697.200
220.723	21.872	898.918	695.873
221.738	21.778	898.618	695.210
222.753	21.593	897.556	693.593
223.767	21.547	896.896	692.837
224.782	21.836	895.805	693.079
225.796	21.850	895.483	692.820
226.811	21.933	895.155	692.833
227.826	21.821	894.381	691.732
228.840	21.665	893.093	690.061
229.855	21.492	892.444	688.819
230.869	21.585	892.355	689.053
231.884	21.695	891.202	688.533
232.899	21.360	890.353	686.501
233.913	21.302	889.824	685.804
234.928	21.296	889.336	685.345
235.942	21.126	888.535	684.000
236.957	20.975	887.835	682.809
237.972	20.915	886.955	681.838
238.986	21.035	886.636	682.002
240.001	21.039	885.984	681.455
241.015	21.103	885.206	681.048
242.030	21.237	884.839	681.226
243.045	21.277	884.276	680.889
244.059	21.337	884.194	681.001
245.074	21.456	883.423	680.809
246.088	21.616	882.700	680.815
247.103	21.448	882.591	680.017
248.117	21.757	882.089	680.771
249.132	22.086	881.318	681.392
250.147	22.359	881.503	682.533
251.161	22.938	881.064	684.374
252.176	22.956	880.682	684.087
253.190	22.910	879.936	683.271
254.205	22.796	879.770	682.640
255.220	23.097	878.838	683.021
256.234	22.895	878.522	681.934
257.249	22.743	877.593	680.564
258.263	22.734	877.317	680.256
259.278	22.730	876.352	679.435
260.293	22.492	876.399	678.492
261.307	22.801	875.711	679.088
262.322	22.861	875.007	678.715
263.336	22.867	874.482	678.271
264.351	22.929	873.613	677.774
265.366	22.746	873.258	676.736
266.380	22.801	872.641	676.409
267.395	22.966	871.859	676.373
268.409	22.713	871.339	674.943
269.424	22.663	870.146	673.770
270.439	22.603	869.757	673.181
271.453	22.587	869.145	672.584
272.468	22.370	868.184	670.955
273.482	22.399	867.186	670.232
274.497	22.350	867.315	670.089
275.512	22.451	866.298	669.627
276.526	22.333	865.826	668.756
277.541	22.473	864.712	668.368
278.555	22.447	864.589	668.113
279.570	22.730	864.029	668.696
280.585	23.121	863.727	669.883
281.599	23.164	863.027	669.443
282.614	22.788	862.632	667.655
283.628	22.485	861.422	665.516
284.643	22.422	860.847	664.775
285.657	22.357	860.684	664.345
286.672	22.246	860.432	663.672
287.687	22.443	859.133	663.353
288.701	22.576	859.234	663.874
289.716	22.760	858.138	663.659
290.730	22.579	857.992	662.809
291.745	22.411	857.458	661.706
292.760	22.594	856.514	661.607
293.774	22.633	856.014	661.306
294.789	22.985	856.007	662.564
295.803	23.047	855.752	662.538
296.818	22.810	854.526	660.644
297.833	22.490	853.319	658.455
298.847	22.436	853.073	658.007
299.862	22.624	852.177	657.958
300.876	22.649	851.761	657.672
301.891	22.610	851.585	657.333
302.906	23.078	850.737	658.364
303.920	23.231	850.910	659.009
304.935	23.140	850.422	658.235
305.949	23.407	849.700	658.607
306.964	23.370	849.169	658.001
307.979	23.128	847.986	656.131
308.993	22.714	847.985	654.535
310.008	23.082	847.160	655.203
311.022	23.213	846.496	655.117
312.037	23.137	846.103	654.475
313.052	22.882	845.130	652.721
314.066	22.608	844.483	651.151
315.081	22.261	843.545	649.090
316.095	22.358	842.805	648.821
317.110	22.390	842.311	648.502
318.125	22.423	841.789	648.164
319.139	22.304	841.329	647.315
320.154	22.281	840.883	646.829
321.168	22.312	840.301	646.439
322.183	22.388	839.592	646.116
323.197	22.628	839.097	646.556
324.212	22.566	838.711	645.975
325.227	22.514	838.215	645.344
326.241	22.531	837.888	645.098
327.256	22.564	837.110	644.565
328.270	22.525	836.136	643.613
329.285	22.394	835.857	642.862
330.300	22.375	835.092	642.150
331.314	22.298	834.781	641.571
332.329	22.267	834.323	641.052
333.343	22.646	833.757	641.939
334.358	22.843	833.407	642.329
335.373	22.922	832.779	642.077
336.387	23.097	832.321	642.302
337.402	23.185	831.873	642.219
338.416	23.191	831.420	641.832
339.431	23.321	831.048	641.962
340.446	23.410	830.908	642.119
341.460	23.582	830.470	642.346
342.475	23.705	830.010	642.376
343.489	23.737	829.489	642.034
344.504	23.654	829.463	641.657
345.519	23.751	828.837	641.464
346.533	23.991	828.207	641.787
347.548	23.994	827.394	641.112
348.562	23.595	826.771	639.136
349.577	23.452	825.508	637.588
350.592	23.217	825.293	636.520
351.606	22.844	824.659	634.636
352.621	22.938	823.921	634.349
353.635	22.896	823.339	633.692
354.650	23.029	823.126	633.952
355.665	23.001	822.698	633.463
356.679	22.934	822.533	633.039
357.694	23.048	822.264	633.184
358.708	23.192	821.633	633.159
359.723	22.993	821.039	631.934
360.738	23.155	820.094	631.730
361.752	23.295	819.597	631.790
362.767	23.270	819.213	631.348
363.781	23.568	819.054	632.231
364.796	23.794	818.925	632.882
365.810	23.887	819.001	633.215
366.825	23.956	818.632	633.120
367.840	23.911	818.328	632.668
368.854	24.021	817.789	632.588
369.869	23.719	817.004	630.852
370.883	23.706	815.982	629.959
371.898	23.617	815.534	629.245
372.913	23.777	815.347	629.612
373.927	23.862	814.965	629.559
374.942	23.695	814.228	628.345
375.956	23.590	813.444	627.313
376.971	23.855	812.725	627.640
377.986	24.071	812.434	628.119
379.000	24.192	811.902	628.081
380.015	24.387	811.590	628.472
381.029	24.268	810.992	627.533
382.044	24.058	810.299	626.202
383.059	24.077	809.953	625.945
384.073	24.250	808.971	625.739
385.088	23.889	808.648	624.168
386.102	23.610	807.787	622.471
387.117	23.486	806.825	621.239
388.132	23.382	806.399	620.492
389.146	23.518	805.886	620.517
390.161	23.552	805.313	620.141
391.175	23.781	805.277	620.860
392.190	24.145	805.204	622.018
393.205	23.852	804.775	620.608
394.219	23.559	803.950	618.895
395.234	23.417	803.521	618.014
396.248	23.201	802.489	616.416
397.263	23.282	802.204	616.423
398.278	23.192	801.667	615.645
399.292	23.195	801.126	615.185
400.307	23.114	800.521	614.385
401.321	23.024	800.212	613.780
402.336	23.162	799.882	613.950
403.350	23.201	799.495	613.735
404.365	23.582	799.196	614.772
405.380	23.843	799.331	615.725
406.394	24.096	798.886	616.203
407.409	24.388	798.467	616.835
408.423	24.448	798.109	616.713
409.438	24.663	797.183	616.683
410.453	24.513	797.420	616.294
411.467	24.610	796.880	616.159
412.482	24.602	796.267	615.603
413.496	24.476	795.904	614.833
414.511	24.701	795.928	615.571
415.526	24.676	795.194	614.861
416.540	24.639	794.430	614.090
417.555	24.453	794.007	613.069
418.569	24.421	793.498	612.514
419.584	24.535	793.100	612.544
420.599	24.423	792.668	611.772
421.613	163.094	1369.817	1796.097
422.628	141.432	1453.901	1796.192
