DTS Sentinel unit serial number:	SN413079Multiplexer serial number:	ORYXHardware model number:	OX4-SRSoftware version number:	ORYX F/W v4.00 Oryx Data Collector v3.7.2.0data status	okinstallation	princeton_trtdifferential loss correction	single-endedforward channel	channel 3reverse channel	N/Adate	2019/09/18time	08:04:35forward acquisition time	60.00reverse acquisition time	0.00gamma	496.2192k internal	0.2342k external	0.2342temperature offset calibration	0.9940default loss term (dB/km)	0.3790temperature slope calibration	1.0000multiplexer offset coefficient	1.0000multiplexer slope coefficient	1.0000fibre end	0.00T internal ref (°C)	23.69T ext. ref 1 (°C)	0.20T ext. ref 2 (°C)	19.34length (m)	temperature (°C)	Stokes	anti-Stokes-747.200	88.879	-0.042	-0.047
-746.185	502.124	-0.093	0.215
-745.171	-88.295	0.181	-0.054
-744.156	-171.898	-0.349	-0.011
-743.142	-104.778	0.177	-0.041
-742.127	-57.044	0.045	0.020
-741.112	-200.000	0.017	0.167
-740.098	576.489	-0.126	0.308
-739.083	-200.000	0.072	-0.376
-738.069	-90.076	-0.271	0.079
-737.054	-200.000	0.013	0.090
-736.039	295.543	-0.030	0.055
-735.025	19.538	0.288	0.232
-734.010	-136.035	-0.425	0.050
-732.996	31.144	-0.270	-0.232
-731.981	-52.428	-0.279	0.129
-730.966	-88.021	0.192	-0.058
-729.952	-200.000	-0.190	0.001
-728.937	444.885	-0.138	-0.303
-727.923	-52.451	-0.422	-0.195
-726.908	-200.000	-0.037	0.458
-725.894	38.223	-0.147	-0.131
-724.879	-130.013	0.385	-0.053
-723.864	-39.774	0.285	-0.149
-722.850	-172.910	-0.369	0.011
-721.835	-62.469	-0.154	-0.064
-720.821	7.573	-0.051	0.038
-719.806	-107.328	-0.059	0.013
-718.791	197.967	-0.222	-0.340
-717.777	-44.022	0.136	-0.068
-716.762	323.017	-0.030	-0.057
-715.748	361.618	0.045	0.090
-714.733	-137.948	-0.560	-0.063
-713.718	-140.305	0.212	-0.022
-712.704	-182.942	0.135	0.002
-711.689	-69.201	0.372	-0.143
-710.675	-124.065	-0.116	0.018
-709.660	-85.841	0.140	0.043
-708.645	800.000	-0.118	0.367
-707.631	-65.503	0.324	-0.130
-706.616	-180.500	0.124	0.003
-705.602	-114.296	-0.244	-0.047
-704.587	-200.000	0.063	-0.420
-703.572	-200.000	-0.001	-0.135
-702.558	564.800	-0.011	-0.027
-701.543	800.000	0.064	-0.238
-700.529	-37.936	0.051	0.027
-699.514	169.828	0.048	0.068
-698.499	-142.032	-0.125	-0.012
-697.485	462.312	-0.082	-0.183
-696.470	-60.683	0.459	0.194
-695.456	27.658	-0.153	0.129
-694.441	428.758	-0.091	-0.196
-693.426	61.139	-0.326	-0.324
-692.412	96.054	-0.413	-0.471
-691.397	-54.464	0.084	0.038
-690.383	-192.966	-0.186	0.002
-689.368	9.416	0.016	0.012
-688.354	134.676	-0.230	0.298
-687.339	-18.712	0.121	0.075
-686.324	-200.000	-0.095	0.454
-685.310	84.815	0.176	0.192
-684.295	-29.724	-0.040	0.023
-683.281	-200.000	-0.077	0.461
-682.266	-200.000	-0.010	-0.100
-681.251	-84.411	0.119	-0.038
-680.237	92.585	-0.045	-0.051
-679.222	-30.983	0.095	0.054
-678.208	60.618	0.142	0.141
-677.193	-112.985	-0.419	-0.083
-676.178	-72.433	-0.103	0.038
-675.164	-115.348	-0.149	-0.028
-674.149	409.168	0.138	-0.291
-673.135	-200.000	-0.167	0.000
-672.120	34.937	0.312	0.273
-671.105	-97.529	-0.062	0.016
-670.091	198.667	0.115	0.176
-669.076	800.000	0.112	0.321
-668.062	47.220	0.233	-0.217
-667.047	-0.595	0.106	0.075
-666.032	138.417	0.110	0.144
-665.018	800.000	-0.048	-0.154
-664.003	158.317	-0.156	0.216
-662.989	-38.657	0.165	0.087
-661.974	633.556	0.216	-0.546
-660.959	5.315	-0.286	-0.211
-659.945	191.790	0.184	-0.277
-658.930	800.000	-0.033	0.121
-657.916	541.213	-0.093	-0.222
-656.901	512.425	-0.116	0.270
-655.886	17.220	-0.293	-0.232
-654.872	-200.000	-0.013	0.232
-653.857	800.000	0.105	-0.362
-652.843	-89.466	-0.267	-0.078
-651.828	800.000	-0.036	0.105
-650.814	800.000	0.068	-0.270
-649.799	-159.307	0.345	0.019
-648.784	321.263	0.053	-0.100
-647.770	139.677	0.180	0.237
-646.755	-200.000	-0.003	0.264
-645.741	-43.383	-0.054	0.027
-644.726	-200.000	-0.019	-0.171
-643.711	-200.000	-0.005	0.150
-642.697	-139.850	-0.372	-0.039
-641.682	469.639	-0.080	-0.179
-640.668	786.094	-0.032	-0.087
-639.653	-200.000	0.024	0.159
-638.638	-116.729	-0.187	0.034
-637.624	-200.000	0.026	0.141
-636.609	-11.055	0.057	0.038
-635.595	2.557	0.161	0.116
-634.580	-95.132	-0.202	-0.054
-633.565	110.841	-0.164	-0.197
-632.551	251.548	-0.108	-0.183
-631.536	168.740	0.025	0.036
-630.522	43.844	-0.144	0.132
-629.507	-37.518	0.395	-0.210
-628.492	800.000	0.121	0.467
-627.478	-79.332	0.281	0.095
-626.463	634.827	0.093	0.235
-625.449	186.457	-0.219	-0.325
-624.434	-200.000	0.003	0.201
-623.419	-200.000	0.036	0.341
-622.405	800.000	-0.088	-0.372
-621.390	-2.668	0.218	0.152
-620.376	363.467	-0.129	0.258
-619.361	-60.810	-0.245	0.104
-618.346	45.597	-0.100	0.092
-617.332	164.545	-0.101	0.142
-616.317	-22.511	-0.169	0.102
-615.303	-200.000	-0.014	-0.317
-614.288	-109.635	-0.169	-0.035
-613.273	-54.272	0.118	-0.053
-612.259	72.153	-0.320	-0.332
-611.244	-46.401	-0.161	-0.079
-610.230	-48.916	-0.256	0.122
-609.215	-119.661	0.074	0.013
-608.201	800.000	-0.078	-0.327
-607.186	-164.798	0.246	0.011
-606.171	-173.190	-0.326	0.010
-605.157	-200.000	0.030	-0.391
-604.142	-44.790	0.192	-0.095
-603.128	34.075	0.064	0.055
-602.113	31.368	0.090	-0.077
-601.098	-200.000	-0.003	-0.111
-600.084	362.616	-0.068	-0.136
-599.069	65.318	0.136	-0.137
-598.055	-160.690	0.350	0.019
-597.040	-200.000	0.012	-0.161
-596.025	-72.491	-0.207	-0.076
-595.011	-200.000	0.064	0.343
-593.996	378.941	0.037	-0.076
-592.982	162.070	-0.050	-0.070
-591.967	-64.105	0.266	-0.108
-590.952	280.630	0.161	0.288
-589.938	73.609	-0.126	0.131
-588.923	-157.904	-0.452	0.027
-587.909	-132.938	0.307	0.039
-586.894	130.235	0.209	-0.266
-585.879	404.493	0.098	-0.206
-584.865	-200.000	-0.029	-0.145
-583.850	-41.899	-0.075	-0.038
-582.836	199.274	-0.048	0.074
-581.821	-97.774	-0.334	-0.086
-580.806	-96.029	-0.205	0.054
-579.792	-139.693	0.484	-0.051
-578.777	400.565	0.119	0.248
-577.763	0.353	-0.282	-0.200
-576.748	733.573	-0.008	-0.022
-575.733	572.262	-0.047	-0.113
-574.719	-54.647	-0.199	-0.089
-573.704	-200.000	0.037	0.211
-572.690	578.760	-0.058	-0.141
-571.675	-200.000	0.018	-0.224
-570.661	47.040	-0.196	-0.182
-569.646	800.000	-0.125	0.359
-568.631	-30.829	-0.209	0.118
-567.617	195.261	0.131	-0.199
-566.602	-200.000	-0.012	-0.503
-565.588	110.121	-0.138	0.165
-564.573	557.075	-0.204	-0.488
-563.558	-33.979	-0.138	-0.076
-562.544	521.153	-0.036	0.084
-561.529	133.763	-0.149	-0.192
-560.515	-16.246	-0.212	-0.134
-559.500	-21.918	-0.312	0.189
-558.485	800.000	0.195	-0.571
-557.471	169.834	-0.199	-0.283
-556.456	-200.000	0.001	-0.054
-555.442	-24.901	0.207	0.122
-554.427	47.367	0.019	0.018
-553.412	3.533	-0.225	0.163
-552.398	-178.782	0.106	0.002
-551.383	-112.719	-0.616	0.122
-550.369	-141.219	0.177	-0.018
-549.354	-95.003	-0.248	0.067
-548.339	172.723	-0.194	0.277
-547.325	10.356	0.289	0.219
-546.310	75.045	-0.175	0.183
-545.296	-23.705	-0.099	0.059
-544.281	-200.000	-0.024	-0.177
-543.266	-80.037	-0.401	-0.134
-542.252	250.382	-0.093	-0.157
-541.237	-200.000	-0.005	0.293
-540.223	18.560	-0.265	-0.210
-539.208	145.797	-0.221	-0.294
-538.193	51.435	0.133	-0.125
-537.179	433.548	-0.180	-0.388
-536.164	278.052	0.264	-0.467
-535.150	76.046	-0.091	-0.095
-534.135	-35.208	0.065	-0.035
-533.121	-200.000	-0.008	-0.179
-532.106	-33.141	0.125	0.069
-531.091	-120.491	-0.219	0.037
-530.077	-1.235	0.221	0.155
-529.062	93.773	-0.133	0.149
-528.048	188.315	-0.131	0.194
-527.033	18.180	0.190	-0.150
-526.018	800.000	-0.108	0.391
-525.004	-55.477	-0.187	0.083
-523.989	-115.268	-0.129	0.024
-522.975	483.878	-0.130	0.293
-521.960	48.991	-0.123	0.115
-520.945	800.000	0.039	0.165
-519.931	17.754	-0.133	-0.105
-518.916	-138.767	0.238	-0.026
-517.902	409.659	0.107	-0.226
-516.887	65.466	0.249	-0.250
-515.872	-92.764	0.043	0.012
-514.858	-52.811	0.155	-0.071
-513.843	-47.123	-0.531	-0.257
-512.829	76.261	-0.178	0.187
-511.814	-21.523	0.295	0.179
-510.799	-161.172	0.057	-0.003
-509.785	-81.511	0.149	-0.049
-508.770	-200.000	0.022	-0.247
-507.756	38.656	0.206	0.182
-506.741	-175.384	-0.088	0.002
-505.726	800.000	0.038	-0.123
-504.712	-200.000	0.030	0.250
-503.697	175.172	0.041	0.060
-502.683	-135.703	0.308	0.036
-501.668	310.464	-0.090	0.167
-500.653	203.685	0.034	0.053
-499.639	660.789	-0.091	-0.232
-498.624	33.981	0.030	-0.026
-497.610	237.744	-0.022	0.037
-496.595	-89.168	-0.103	-0.030
-495.581	-0.016	-0.169	-0.119
-494.566	165.379	-0.231	0.324
-493.551	-200.000	-0.035	-0.221
-492.537	197.688	-0.087	0.132
-491.522	-200.000	-0.018	0.168
-490.508	-81.716	0.067	-0.022
-489.493	800.000	0.032	0.097
-488.478	-18.929	-0.443	0.273
-487.464	208.736	0.094	0.147
-486.449	-200.000	0.045	-0.257
-485.435	305.189	-0.014	-0.025
-484.420	800.000	0.120	0.418
-483.405	-155.286	0.181	-0.012
-482.391	103.771	-0.139	0.162
-481.376	-36.050	-0.162	-0.087
-480.362	-167.236	-0.170	-0.007
-479.347	158.813	-0.076	-0.104
-478.332	-65.161	0.311	-0.124
-477.318	-14.091	-0.267	-0.171
-476.303	19.323	0.029	0.023
-475.289	22.640	-0.131	-0.106
-474.274	-107.512	-0.130	-0.028
-473.259	551.755	-0.098	-0.233
-472.245	-106.661	-0.230	0.051
-471.230	-200.000	0.023	0.190
-470.216	-8.075	0.225	0.151
-469.201	0.390	0.218	0.154
-468.186	-200.000	-0.041	-0.231
-467.172	-120.469	0.271	0.046
-466.157	-200.000	-0.047	-0.361
-465.143	274.456	-0.135	0.237
-464.128	-61.291	0.170	-0.071
-463.113	-143.558	0.200	0.019
-462.099	23.854	-0.110	-0.090
-461.084	299.339	0.092	0.169
-460.070	-107.337	-0.234	-0.051
-459.055	-200.000	-0.022	-0.428
-458.040	-200.000	-0.021	0.159
-457.026	800.000	0.040	0.120
-456.011	-200.000	0.060	0.299
-454.997	-200.000	-0.012	0.106
-453.982	800.000	-0.084	-0.323
-452.968	-69.245	-0.092	-0.035
-451.953	57.582	-0.150	0.145
-450.938	-200.000	-0.060	0.441
-449.924	-73.627	-0.222	0.080
-448.909	-61.579	0.444	0.185
-447.895	13.581	-0.452	-0.347
-446.880	50.595	0.231	-0.216
-445.865	-71.831	0.082	0.030
-444.851	166.164	-0.105	0.147
-443.836	-200.000	0.005	0.063
-442.822	88.423	0.147	-0.162
-441.807	-175.345	0.180	-0.005
-440.792	-159.126	0.245	0.014
-439.778	800.000	-0.050	-0.186
-438.763	-92.318	-0.209	0.058
-437.749	9.713	0.122	0.091
-436.734	-67.741	-0.226	-0.088
-435.719	137.784	-0.191	-0.247
-434.705	800.000	0.048	0.140
-433.690	-152.322	0.212	-0.015
-432.676	800.000	0.034	0.114
-431.661	509.890	0.093	0.213
-430.646	-200.000	-0.037	0.268
-429.632	253.048	0.239	0.404
-428.617	91.102	0.158	0.175
-427.603	161.741	-0.343	0.475
-426.588	-74.771	-0.381	-0.135
-425.573	321.470	0.112	-0.211
-424.559	-40.685	0.230	-0.118
-423.544	678.387	-0.169	-0.435
-422.530	-30.430	0.149	-0.083
-421.515	-109.737	-0.467	-0.097
-420.500	40.475	0.382	-0.340
-419.486	8.921	0.224	0.167
-418.471	-53.164	-0.098	0.045
-417.457	-0.202	0.066	0.046
-416.442	-200.000	-0.018	0.100
-415.428	800.000	0.076	0.225
-414.413	-94.220	-0.238	-0.064
-413.398	-27.409	-0.124	-0.072
-412.384	117.104	0.171	0.207
-411.369	-138.892	-0.192	-0.021
-410.355	485.326	0.091	0.206
-409.340	-200.000	0.120	0.000
-408.325	-2.396	-0.200	-0.138
-407.311	-200.000	0.071	-0.380
-406.296	800.000	-0.040	0.147
-405.282	523.788	-0.064	0.149
-404.267	-49.675	0.053	0.025
-403.252	92.081	-0.096	-0.107
-402.238	-200.000	0.015	0.191
-401.223	66.206	0.178	-0.178
-400.209	-200.000	-0.015	0.078
-399.194	-184.357	-0.120	0.002
-398.179	-65.304	-0.216	-0.086
-397.165	352.443	0.185	0.363
-396.150	-61.453	0.103	0.043
-395.136	-119.764	-0.177	-0.030
-394.121	22.641	0.226	0.182
-393.106	-200.000	0.007	0.120
-392.092	-88.568	-0.164	0.048
-391.077	29.968	0.114	-0.096
-390.063	8.609	-0.127	0.095
-389.048	32.349	0.146	-0.125
-388.033	-148.648	-0.257	0.021
-387.019	-200.000	-0.005	-0.034
-386.004	247.588	-0.081	-0.135
-384.990	-0.235	-0.183	-0.128
-383.975	18.756	0.334	0.264
-382.960	-200.000	0.009	-0.196
-381.946	659.245	0.100	0.254
-380.931	-128.057	0.136	-0.019
-379.917	8.458	-0.183	0.136
-378.902	778.050	0.015	0.041
-377.888	30.214	0.223	0.188
-376.873	800.000	-0.023	-0.085
-375.858	213.092	-0.041	-0.064
-374.844	387.176	-0.153	-0.311
-373.829	-81.213	-0.065	0.021
-372.815	-135.167	0.209	-0.025
-371.800	800.000	0.025	-0.096
-370.785	587.579	-0.091	0.221
-369.771	-69.310	-0.409	-0.155
-368.756	-170.997	0.353	-0.012
-367.742	-200.000	0.261	-0.001
-366.727	-200.000	0.018	-0.128
-365.712	34.138	0.299	0.257
-364.698	800.000	0.056	0.193
-363.683	-200.000	0.002	0.029
-362.669	800.000	-0.024	0.099
-361.654	353.902	-0.127	0.249
-360.639	-39.228	0.349	0.181
-359.625	36.014	-0.183	0.159
-358.610	38.221	0.147	-0.129
-357.596	-176.381	-0.343	0.009
-356.581	800.000	-0.030	0.092
-355.566	422.211	0.110	-0.232
-354.552	-102.832	0.145	-0.034
-353.537	800.000	0.037	-0.113
-352.523	-20.655	0.412	-0.250
-351.508	320.364	-0.120	0.225
-350.493	-200.000	0.002	0.016
-349.479	-200.000	-0.013	0.092
-348.464	-200.000	-0.035	0.344
-347.450	291.354	0.207	-0.371
-346.435	-19.367	-0.049	-0.030
-345.420	219.133	0.104	-0.164
-344.406	-57.634	0.116	0.050
-343.391	-3.300	0.205	-0.141
-342.377	800.000	0.036	-0.099
-341.362	-55.736	-0.405	-0.179
-340.348	-200.000	-0.019	-0.124
-339.333	6.849	0.103	-0.075
-338.318	-200.000	-0.001	-0.053
-337.304	351.059	-0.175	-0.341
-336.289	-200.000	0.026	-0.124
-335.275	-103.008	-0.498	-0.116
-334.260	15.084	0.163	-0.126
-333.245	-200.000	0.027	0.199
-332.231	-91.153	0.278	0.078
-331.216	132.548	-0.148	0.188
-330.202	-141.227	-0.053	0.005
-329.187	32.094	0.041	0.035
-328.172	35.821	-0.418	0.362
-327.158	412.968	0.116	0.243
-326.143	-88.156	-0.227	0.067
-325.129	-170.620	-0.164	-0.006
-324.114	63.239	-0.065	0.064
-323.099	210.684	0.112	0.174
-322.085	-138.013	0.220	0.024
-321.070	-200.000	0.079	-0.439
-320.056	553.063	0.170	-0.403
-319.041	693.257	0.024	-0.063
-318.026	-84.694	0.363	-0.113
-317.012	13.156	0.053	0.041
-315.997	21.252	-0.399	-0.319
-314.983	335.146	-0.112	-0.214
-313.968	334.502	0.075	0.144
-312.953	-109.078	-0.258	-0.054
-311.939	23.714	0.238	-0.193
-310.924	23.201	0.196	-0.158
-309.910	800.000	0.060	-0.254
-308.895	18.426	0.153	-0.121
-307.880	53.572	-0.252	0.238
-306.866	-166.159	0.278	0.012
-305.851	651.063	-0.098	-0.246
-304.837	-200.000	-0.003	0.018
-303.822	-83.737	0.081	0.025
-302.807	254.190	0.088	-0.148
-301.793	182.756	-0.172	0.250
-300.778	-93.679	0.123	-0.033
-299.764	-19.972	0.192	0.117
-298.749	161.275	-0.054	-0.075
-297.735	-200.000	-0.013	0.140
-296.720	-37.752	-0.146	-0.076
-295.705	-101.156	0.146	-0.035
-294.691	-33.761	-0.119	-0.064
-293.676	-200.000	-0.018	-0.095
-292.662	12.892	0.242	-0.184
-291.647	800.000	0.027	-0.075
-290.632	-68.057	-0.217	0.083
-289.618	-76.987	0.090	0.031
-288.603	43.761	-0.058	0.053
-287.589	-70.573	-0.178	-0.066
-286.574	143.065	0.236	-0.309
-285.559	-26.439	0.274	0.158
-284.545	482.434	-0.054	-0.121
-283.530	157.268	-0.088	0.119
-282.516	23.233	0.232	-0.187
-281.501	362.822	0.123	-0.244
-280.486	800.000	-0.030	0.119
-279.472	22.463	0.245	0.197
-278.457	-58.138	-0.261	-0.112
-277.443	-200.000	0.033	-0.522
-276.428	-5.673	-0.241	-0.162
-275.413	-28.509	-0.021	-0.012
-274.399	-148.796	-0.320	0.026
-273.384	-161.297	0.555	-0.028
-272.370	-7.676	-0.339	-0.225
-271.355	-19.182	-0.061	-0.037
-270.340	-200.000	-0.073	0.340
-269.326	438.837	0.056	-0.119
-268.311	-153.414	0.246	0.017
-267.297	-29.764	-0.260	0.146
-266.282	-200.000	0.002	0.155
-265.267	-200.000	0.065	-0.301
-264.253	91.056	0.068	0.075
-263.238	548.436	-0.120	0.282
-262.224	-200.000	0.043	0.266
-261.209	-200.000	-0.044	0.189
-260.195	-200.000	0.051	0.240
-259.180	-200.000	0.017	-0.439
-258.165	-108.949	0.030	-0.006
-257.151	-82.819	0.259	0.082
-256.136	81.620	0.138	-0.147
-255.122	800.000	-0.049	0.142
-254.107	52.874	0.224	0.210
-253.092	292.886	-0.115	0.207
-252.078	800.000	-0.045	-0.167
-251.063	-102.294	0.387	-0.091
-250.049	-158.552	0.041	-0.002
-249.034	-117.123	0.349	-0.062
-248.019	130.046	-0.187	0.235
-247.005	-79.089	-0.192	0.064
-245.990	-23.828	-0.412	0.243
-244.976	-79.760	0.341	0.113
-243.961	-112.432	0.102	0.020
-242.946	139.150	0.110	-0.143
-241.932	-200.000	0.015	0.516
-240.917	-200.000	-0.036	0.180
-239.903	-87.746	-0.429	0.127
-238.888	-28.776	-0.124	0.070
-237.873	44.058	-0.415	-0.373
-236.859	-174.685	0.346	0.010
-235.844	40.619	0.141	-0.125
-234.830	48.348	-0.205	0.188
-233.815	-200.000	-0.006	-0.170
-232.800	-3.139	0.215	0.147
-231.786	-52.890	0.239	-0.108
-230.771	-21.474	0.216	0.129
-229.757	-74.189	0.340	0.121
-228.742	-112.976	-0.311	-0.060
-227.727	-103.156	0.119	-0.028
-226.713	-98.223	-0.205	0.052
-225.698	110.906	-0.271	-0.321
-224.684	-156.386	0.280	-0.017
-223.669	-200.000	-0.012	0.335
-222.655	537.947	-0.089	0.207
-221.640	-55.851	-0.431	0.189
-220.625	-137.754	-0.039	-0.004
-219.611	19.269	-0.096	0.076
-218.596	-12.373	-0.156	0.100
-217.582	-200.000	0.308	-0.001
-216.567	-33.555	0.281	-0.152
-215.552	-200.000	0.036	-0.155
-214.538	-89.263	-0.089	-0.026
-213.523	-90.722	0.113	-0.032
-212.509	-200.000	0.066	-0.570
-211.494	800.000	-0.043	-0.141
-210.479	800.000	0.035	-0.105
-209.465	-158.739	0.251	0.014
-208.450	-197.374	0.388	0.002
-207.436	-36.048	0.361	0.191
-206.421	14.404	-0.051	0.039
-205.406	-26.790	0.287	-0.165
-204.392	-200.000	0.000	-0.014
-203.377	110.818	-0.134	0.158
-202.363	-200.000	-0.010	-0.126
-201.348	800.000	-0.098	-0.283
-200.333	18.062	-0.086	0.067
-199.319	280.300	0.138	0.242
-198.304	-122.181	0.166	0.027
-197.290	-200.000	-0.051	0.258
-196.275	-102.051	0.446	-0.105
-195.260	-122.620	0.302	-0.048
-194.246	-200.000	-0.029	0.267
-193.231	800.000	0.048	0.182
-192.217	61.106	0.159	0.155
-191.202	-76.243	0.231	-0.080
-190.187	797.990	0.091	0.246
-189.173	-104.020	-0.348	0.080
-188.158	800.000	0.124	0.406
-187.144	10.309	0.150	0.112
-186.129	-200.000	-0.020	-0.467
-185.114	-200.000	-0.096	-0.456
-184.100	427.112	0.048	0.101
-183.085	800.000	0.059	0.213
-182.071	-93.025	-0.049	0.014
-181.056	-171.265	-0.260	-0.009
-180.042	-95.190	-0.223	-0.059
-179.027	273.354	0.101	-0.175
-178.012	800.000	0.086	0.326
-176.998	112.010	-0.189	0.224
-175.983	-200.000	0.029	0.196
-174.969	-200.000	0.004	-0.142
-173.954	-33.426	0.345	-0.187
-172.939	-77.244	0.097	0.033
-171.925	-103.602	0.204	0.047
-170.910	-200.000	0.012	0.124
-169.896	185.354	0.125	-0.181
-168.881	-19.082	0.436	0.265
-167.866	-79.905	-0.140	-0.046
-166.852	-200.000	-0.004	-0.101
-165.837	-96.987	-0.270	-0.069
-164.823	-108.780	0.164	0.034
-163.808	-85.697	0.170	-0.052
-162.793	-126.712	-0.240	0.035
-161.779	-112.248	-0.273	0.054
-160.764	-147.284	-0.169	-0.014
-159.750	-170.312	0.259	0.009
-158.735	-126.603	0.403	-0.059
-157.720	40.922	0.275	-0.243
-156.706	286.703	-0.205	0.362
-155.691	198.887	-0.131	0.197
-154.677	-68.353	-0.148	0.056
-153.662	-200.000	0.032	0.191
-152.647	75.524	-0.073	-0.076
-151.633	-200.000	0.030	0.296
-150.618	-45.744	0.116	0.056
-149.604	-35.578	0.213	0.113
-148.589	307.450	-0.126	-0.229
-147.574	-74.710	0.352	0.124
-146.560	-40.794	0.095	0.048
-145.545	-77.300	-0.355	-0.121
-144.531	147.645	0.230	0.303
-143.516	-61.137	-0.381	-0.157
-142.502	12.120	-0.129	-0.097
-141.487	-200.000	0.016	-0.280
-140.472	-200.000	-0.035	-0.301
-139.458	220.300	-0.050	0.078
-138.443	307.064	0.087	-0.158
-137.429	222.851	-0.223	0.352
-136.414	-161.554	-0.309	-0.016
-135.399	-200.000	0.004	0.102
-134.385	-7.366	0.290	0.192
-133.370	800.000	-0.092	0.269
-132.356	-200.000	-0.038	-0.198
-131.341	-75.534	-0.148	0.052
-130.326	-200.000	0.027	-0.137
-129.312	-160.540	0.210	0.011
-128.297	-100.544	0.238	-0.058
-127.283	350.707	-0.076	0.148
-126.268	337.513	0.160	0.304
-125.253	-200.000	-0.003	-0.084
-124.239	181.754	0.198	0.285
-123.224	138.349	0.062	0.079
-122.210	211.192	0.022	-0.033
-121.195	71.013	-0.253	-0.256
-120.180	-69.617	0.220	-0.082
-119.166	-153.348	0.168	0.011
-118.151	-76.518	-0.395	0.136
-117.137	-110.011	-0.202	0.041
-116.122	136.774	0.296	0.377
-115.107	800.000	-0.153	0.469
-114.093	-200.000	0.008	0.322
-113.078	-184.499	0.177	-0.003
-112.064	738.704	-0.049	-0.128
-111.049	-200.000	0.001	-0.190
-110.034	-200.000	0.013	-0.122
-109.020	-62.657	-0.280	-0.114
-108.005	-113.780	0.199	-0.038
-106.991	-38.746	-0.142	0.073
-105.976	65.756	-0.173	-0.171
-104.962	149.717	-0.143	0.190
-103.947	-200.000	0.038	0.568
-102.932	800.000	0.083	0.232
-101.918	159.837	0.107	0.146
-100.903	-200.000	0.044	-0.212
-99.889	-89.303	-0.223	0.064
-98.874	800.000	-0.054	0.226
-97.859	-200.000	-0.047	-0.214
-96.845	301.232	-0.032	0.058
-95.830	-200.000	0.012	0.115
-94.816	89.865	0.107	-0.116
-93.801	517.990	0.055	-0.126
-92.786	282.993	0.050	0.088
-91.772	-48.041	-0.137	0.065
-90.757	-98.137	-0.037	-0.009
-89.743	107.291	0.005	-0.005
-88.728	-131.261	0.342	0.044
-87.713	154.488	0.281	-0.376
-86.699	-200.000	-0.019	-0.111
-85.684	59.889	-0.228	0.219
-84.670	-141.414	-0.201	-0.020
-83.655	-81.706	0.112	-0.036
-82.640	-160.575	-0.464	-0.024
-81.626	-61.930	-0.057	0.023
-80.611	146.025	0.076	0.100
-79.597	-92.954	-0.076	0.021
-78.582	88.144	0.178	0.192
-77.567	-184.985	-0.123	-0.002
-76.553	-6.941	-0.237	-0.157
-75.538	-200.000	0.065	0.401
-74.524	-200.000	-0.014	-0.232
-73.509	237.686	0.060	0.097
-72.494	45.537	0.179	0.161
-71.480	-163.454	-0.017	0.001
-70.465	800.000	-0.031	-0.090
-69.451	-12.740	0.088	0.056
-68.436	-83.669	-0.362	0.113
-67.422	-54.079	0.267	0.119
-66.407	-200.000	-0.058	0.250
-65.392	394.771	0.133	-0.271
-64.378	62.014	-0.165	-0.160
-63.363	-184.720	0.543	0.008
-62.349	-55.668	0.013	-0.005
-61.334	80.101	-0.997	-1.046
-60.319	58.133	0.851	0.813
-59.305	350.491	-0.616	-1.189
-58.290	325.511	0.852	1.589
-57.276	800.000	0.301	1.267
-56.261	-200.000	122.371	621.306
-55.246	399.399	1558.251	3183.785
-54.232	143.618	2719.982	3533.456
-53.217	93.970	2186.865	2418.293
-52.203	34.057	1703.327	1447.053
-51.188	26.749	1520.986	1242.223
-50.173	24.751	1497.336	1209.368
-49.159	47.744	1567.302	1426.295
-48.144	45.400	1580.199	1421.700
-47.130	26.915	1529.510	1250.129
-46.115	23.911	1513.614	1216.575
-45.100	23.893	1510.117	1213.596
-44.086	23.824	1508.991	1212.172
-43.071	23.702	1506.796	1209.528
-42.057	23.650	1505.604	1208.172
-41.042	23.702	1503.609	1206.873
-40.027	23.669	1502.453	1205.673
-39.013	23.705	1500.930	1204.650
-37.998	23.620	1499.157	1202.603
-36.984	23.617	1498.732	1202.195
-35.969	23.723	1496.959	1201.437
-34.954	23.708	1495.643	1200.234
-33.940	23.690	1494.000	1198.745
-32.925	23.695	1493.002	1197.931
-31.911	23.668	1491.904	1196.825
-30.896	23.751	1489.941	1195.761
-29.881	23.866	1488.921	1195.667
-28.867	23.739	1487.562	1193.673
-27.852	23.702	1487.031	1192.949
-26.838	23.749	1484.681	1191.336
-25.823	23.643	1483.317	1189.481
-24.809	23.776	1481.505	1188.870
-23.794	23.719	1480.379	1187.537
-22.779	23.745	1479.270	1186.779
-21.765	23.796	1477.913	1185.985
-20.750	23.700	1477.132	1184.670
-19.736	23.714	1475.676	1183.546
-18.721	23.683	1474.889	1182.660
-17.706	23.699	1473.986	1181.995
-16.692	23.631	1473.011	1180.718
-15.677	23.711	1471.683	1180.133
-14.663	23.744	1470.715	1179.534
-13.648	23.620	1470.016	1178.102
-12.633	23.610	1469.072	1177.231
-11.619	23.713	1468.181	1177.154
-10.604	23.672	1467.144	1176.002
-9.590	23.696	1466.258	1175.409
-8.575	23.579	1465.686	1174.128
-7.560	23.678	1464.671	1173.922
-6.546	23.573	1464.101	1172.721
-5.531	23.653	1462.661	1172.053
-4.517	23.699	1461.540	1171.414
-3.502	23.679	1460.877	1170.700
-2.487	23.699	1459.817	1169.936
-1.473	23.655	1458.806	1168.789
-0.458	23.669	1457.166	1167.523
0.556	21.951	1447.996	1157.623
1.571	19.389	1423.946	1121.655
2.586	16.320	1363.434	1054.753
3.600	14.888	1281.141	982.596
4.615	13.797	1237.982	943.207
5.629	12.051	1180.792	890.082
6.644	5.859	1098.338	796.501
7.659	0.901	1062.395	745.973
8.673	0.332	1057.122	739.416
9.688	0.223	1053.628	736.375
10.702	0.089	1052.390	734.785
11.717	0.146	1050.290	733.534
12.731	2.063	1051.970	743.992
13.746	8.515	1060.287	781.423
14.761	14.500	1067.562	816.089
15.775	16.590	1069.617	827.826
16.790	16.270	1068.453	825.287
17.804	15.378	1066.466	819.326
18.819	14.360	1065.069	813.212
19.834	14.053	1063.071	810.118
20.848	13.866	1062.093	808.391
21.863	13.552	1062.234	806.897
22.877	13.357	1060.609	804.644
23.892	13.187	1059.603	802.984
24.907	13.052	1059.017	801.811
25.921	13.043	1058.460	801.275
26.936	13.088	1057.803	800.923
27.950	13.107	1057.399	800.643
28.965	13.144	1056.661	800.188
29.980	13.185	1055.559	799.483
30.994	13.292	1054.186	798.889
32.009	13.317	1053.568	798.470
33.023	13.408	1053.142	798.516
34.038	13.349	1052.088	797.365
35.053	13.378	1051.170	796.737
36.067	13.275	1050.112	795.368
37.082	13.368	1049.128	795.002
38.096	13.270	1048.502	793.983
39.111	13.288	1047.969	793.598
40.126	13.219	1047.034	792.490
41.140	13.268	1045.833	791.746
42.155	13.196	1044.701	790.473
43.169	13.124	1044.047	789.562
44.184	13.139	1042.803	788.624
45.199	12.995	1042.330	787.511
46.213	13.045	1041.009	786.681
47.228	13.057	1039.988	785.894
48.242	13.130	1038.757	785.243
49.257	13.196	1038.225	785.085
50.271	13.248	1036.636	784.059
51.286	13.223	1036.070	783.448
52.301	13.183	1035.755	782.950
53.315	13.144	1034.996	782.120
54.330	13.355	1033.246	781.727
55.344	13.074	1032.657	779.885
56.359	13.205	1031.180	779.316
57.374	13.179	1030.744	778.796
58.388	13.184	1029.779	778.022
59.403	13.061	1029.265	776.988
60.417	13.056	1028.369	776.218
61.432	13.186	1027.289	775.944
62.447	13.099	1027.020	775.264
63.461	13.134	1026.033	774.615
64.476	13.008	1024.974	773.154
65.490	12.990	1024.401	772.571
66.505	12.943	1023.777	771.811
67.520	13.167	1022.269	771.651
68.534	13.127	1022.087	771.262
69.549	13.028	1021.385	770.202
70.563	13.050	1020.731	769.744
71.578	13.077	1019.749	769.061
72.593	13.120	1018.935	768.576
73.607	13.112	1017.754	767.580
74.622	12.958	1017.387	766.521
75.636	13.058	1016.351	766.137
76.651	12.941	1015.774	765.092
77.666	12.864	1015.322	764.325
78.680	13.018	1014.136	764.080
79.695	12.892	1013.867	763.226
80.709	13.023	1012.622	762.827
81.724	13.101	1011.777	762.484
82.739	13.065	1011.198	761.814
83.753	13.084	1010.382	761.219
84.768	13.105	1009.500	760.583
85.782	13.126	1008.667	759.984
86.797	13.328	1007.845	760.226
87.812	13.326	1006.810	759.371
88.826	13.073	1006.479	757.894
89.841	13.213	1005.345	757.614
90.855	13.303	1004.373	757.223
91.870	13.352	1003.938	757.057
92.884	13.275	1003.369	756.206
93.899	13.236	1002.718	755.469
94.914	13.190	1002.068	754.703
95.928	13.300	1000.960	754.304
96.943	13.337	1000.182	753.820
97.957	13.328	999.636	753.299
98.972	13.245	998.710	752.157
99.987	13.306	997.999	751.835
101.001	13.332	997.035	751.159
102.016	13.290	996.736	750.676
103.030	13.174	996.145	749.639
104.045	13.285	994.618	748.924
105.060	13.306	993.759	748.310
106.074	13.247	992.775	747.233
107.089	13.161	992.196	746.346
108.103	13.075	991.183	745.127
109.118	13.352	989.461	745.016
110.133	13.165	989.269	743.965
111.147	13.141	988.452	743.173
112.162	13.138	987.462	742.350
113.176	13.022	987.066	741.468
114.191	13.194	985.850	741.260
115.206	13.229	985.165	740.836
116.220	13.181	984.517	740.066
117.235	13.179	983.636	739.329
118.249	13.170	982.819	738.613
119.264	13.299	981.691	738.275
120.279	13.290	980.670	737.400
121.293	13.209	980.116	736.560
122.308	13.193	979.158	735.702
123.322	13.201	978.443	735.134
124.337	13.168	977.325	734.083
125.352	13.280	976.153	733.637
126.366	13.244	975.151	732.655
127.381	13.009	974.588	731.130
128.395	13.036	973.417	730.304
129.410	13.034	972.521	729.561
130.424	12.982	971.832	728.748
131.439	13.138	970.531	728.395
132.454	13.207	969.621	727.953
133.468	13.306	968.735	727.659
134.483	13.126	968.217	726.412
135.497	13.286	967.431	726.462
136.512	13.284	966.983	726.055
137.527	13.245	966.077	725.137
138.541	12.992	965.670	723.661
139.556	13.331	964.398	724.125
140.570	13.168	963.945	723.010
141.585	13.275	963.137	722.806
142.600	13.343	962.394	722.483
143.614	13.279	961.846	721.728
144.629	13.328	960.667	720.993
145.643	13.383	960.239	720.848
146.658	13.427	959.404	720.347
147.673	13.540	957.795	719.566
148.687	13.361	957.404	718.433
149.702	13.378	956.138	717.492
150.716	13.220	956.442	716.971
151.731	13.219	955.003	715.823
152.746	13.376	953.969	715.667
153.760	13.329	953.558	715.092
154.775	13.432	952.481	714.666
155.789	13.395	951.890	714.000
156.804	13.441	951.117	713.554
157.819	13.469	950.845	713.407
158.833	13.379	949.697	712.098
159.848	13.475	948.597	711.621
160.862	13.358	948.793	711.202
161.877	13.455	947.615	710.673
162.892	13.376	946.532	709.458
163.906	13.402	945.600	708.808
164.921	13.410	945.158	708.450
165.935	13.467	944.076	707.820
166.950	13.497	943.074	707.133
167.964	13.535	942.105	706.506
168.979	13.517	941.292	705.757
169.994	13.522	940.083	704.808
171.008	13.468	939.818	704.319
172.023	13.530	938.890	703.826
173.037	13.700	938.120	703.905
174.052	13.595	937.272	702.761
175.067	13.685	936.472	702.481
176.081	13.610	935.995	701.744
177.096	13.505	934.492	700.110
178.110	13.602	934.124	700.185
179.125	13.632	933.290	699.624
180.140	13.543	932.596	698.667
181.154	13.665	931.955	698.640
182.169	13.676	931.475	698.265
183.183	13.666	930.860	697.700
184.198	13.741	930.060	697.352
185.213	13.662	929.541	696.571
186.227	13.794	928.820	696.520
187.242	13.751	928.582	696.101
188.256	13.762	927.975	695.632
189.271	13.964	926.620	695.399
190.286	13.874	925.950	694.459
191.300	13.740	925.017	693.136
192.315	13.810	924.316	692.841
193.329	13.668	923.675	691.710
194.344	13.647	923.302	691.279
195.359	13.650	922.930	690.954
196.373	13.674	922.605	690.749
197.388	13.806	921.335	690.286
198.402	13.891	921.194	690.473
199.417	13.926	920.503	690.039
200.432	14.092	919.857	690.182
201.446	13.894	919.699	689.183
202.461	14.036	919.407	689.490
203.475	14.034	918.974	689.097
204.490	14.024	918.271	688.466
205.504	13.984	917.162	687.409
206.519	14.060	916.219	686.954
207.534	13.931	915.604	685.901
208.548	13.995	914.759	685.472
209.563	13.982	913.924	684.732
210.577	13.993	913.354	684.288
211.592	14.065	912.786	684.101
212.607	14.121	912.153	683.795
213.621	14.233	911.295	683.551
214.636	14.057	910.861	682.441
215.650	14.091	910.474	682.233
216.665	14.193	909.444	681.818
217.680	14.004	909.755	681.214
218.694	14.114	908.710	680.822
219.709	14.223	907.889	680.593
220.723	14.294	907.447	680.493
221.738	14.170	906.797	679.439
222.753	14.239	906.196	679.210
223.767	14.355	904.916	678.664
224.782	14.295	904.125	677.765
225.796	14.280	903.770	677.379
226.811	14.313	902.974	676.856
227.826	14.383	902.258	676.543
228.840	14.414	901.598	676.112
229.855	14.253	901.191	675.094
230.869	14.343	900.624	674.976
231.884	14.336	899.799	674.269
232.899	14.290	899.287	673.641
233.913	14.312	898.185	672.844
234.928	14.454	897.682	672.982
235.942	14.391	896.906	672.087
236.957	14.237	896.541	671.131
237.972	14.235	895.873	670.563
238.986	14.426	894.890	670.538
240.001	14.287	894.477	669.610
241.015	14.318	893.762	669.140
242.030	14.382	893.224	668.935
243.045	14.391	892.187	668.137
244.059	14.470	891.709	668.036
245.074	14.444	891.093	667.411
246.088	14.598	890.218	667.311
247.103	14.626	890.014	667.212
248.117	14.550	889.088	666.155
249.132	14.616	888.359	665.812
250.147	14.531	888.236	665.322
251.161	14.703	887.358	665.293
252.176	14.778	886.422	664.832
253.190	14.808	885.763	664.397
254.205	14.748	885.435	663.854
255.220	14.922	884.618	663.872
256.234	14.906	884.132	663.385
257.249	14.915	883.391	662.808
258.263	14.876	883.110	662.384
259.278	15.017	881.983	662.037
260.293	14.945	881.667	661.454
261.307	14.940	881.674	661.382
262.322	14.994	880.684	660.794
263.336	15.032	879.907	660.302
264.351	15.078	879.448	660.084
265.366	14.954	878.878	659.108
266.380	15.017	878.684	659.150
267.395	15.063	877.694	658.530
268.409	15.126	876.741	658.007
269.424	15.030	876.170	657.141
270.439	15.064	875.506	656.718
271.453	15.010	875.163	656.194
272.468	15.032	873.738	655.150
273.482	15.057	873.399	654.937
274.497	15.045	872.857	654.425
275.512	15.155	872.148	654.265
276.526	15.121	871.326	653.460
277.541	15.121	870.803	653.009
278.555	15.269	870.109	653.006
279.570	15.196	869.362	652.105
280.585	15.265	868.955	652.009
281.599	15.199	868.338	651.234
282.614	15.160	868.049	650.808
283.628	15.299	867.148	650.613
284.643	15.211	866.625	649.820
285.657	15.252	866.002	649.458
286.672	15.314	865.513	649.273
287.687	15.258	865.001	648.613
288.701	15.220	864.970	648.388
289.716	15.291	863.923	647.819
290.730	15.477	862.978	647.771
291.745	15.346	862.880	647.136
292.760	15.354	862.014	646.458
293.774	15.366	861.218	645.849
294.789	15.492	860.794	645.961
295.803	15.359	860.563	645.218
296.818	15.415	859.540	644.609
297.833	15.402	859.281	644.307
298.847	15.446	858.410	643.767
299.862	15.389	857.790	643.027
300.876	15.555	856.894	642.935
301.891	15.465	856.235	642.038
302.906	15.482	855.757	641.686
303.920	15.556	855.166	641.471
304.935	15.547	854.249	640.692
305.949	15.790	853.565	641.046
306.964	15.631	853.321	640.200
307.979	15.736	852.684	640.067
308.993	15.773	851.659	639.379
310.008	15.745	851.243	638.905
311.022	15.832	850.638	638.725
312.037	15.777	850.628	638.453
313.052	15.715	849.749	637.502
314.066	15.646	849.437	636.950
315.081	15.822	848.518	636.870
316.095	15.603	848.306	635.825
317.110	15.596	847.903	635.441
318.125	15.720	847.279	635.387
319.139	15.697	846.916	634.973
320.154	15.843	846.062	634.825
321.168	15.611	846.081	633.907
322.183	15.741	845.043	633.565
323.197	15.774	844.938	633.554
324.212	15.924	843.841	633.239
325.227	15.805	843.424	632.423
326.241	15.936	843.104	632.620
327.256	15.855	842.146	631.540
328.270	15.821	841.809	631.103
329.285	15.812	841.451	630.745
330.300	15.787	840.669	630.010
331.314	15.841	839.954	629.620
332.329	15.932	839.149	629.301
333.343	16.012	838.374	628.966
334.358	15.911	838.242	628.431
335.373	15.938	837.752	628.110
336.387	15.967	837.222	627.765
337.402	16.044	836.776	627.664
338.416	16.118	835.979	627.286
339.431	16.060	835.201	626.430
340.446	16.048	834.590	625.870
341.460	16.124	834.315	625.892
342.475	16.129	834.042	625.651
343.489	16.241	833.390	625.520
344.504	16.207	832.892	624.965
345.519	16.174	832.521	624.508
346.533	16.265	831.783	624.236
347.548	16.279	831.690	624.162
348.562	16.247	831.070	623.524
349.577	16.332	830.189	623.123
350.592	16.214	829.757	622.309
351.606	16.291	829.418	622.284
352.621	16.229	828.879	621.595
353.635	16.201	828.873	621.434
354.650	16.328	828.130	621.286
355.665	16.318	827.315	620.585
356.679	16.349	826.806	620.263
357.694	16.491	826.049	620.158
358.708	16.378	825.848	619.539
359.723	16.303	825.241	618.756
360.738	16.350	824.807	618.545
361.752	16.448	824.403	618.545
362.767	16.385	824.030	617.983
363.781	16.420	823.378	617.568
364.796	16.533	823.252	617.830
365.810	16.532	822.508	617.212
366.825	16.490	822.227	616.793
367.840	16.594	821.864	616.848
368.854	16.649	820.993	616.338
369.869	16.619	820.990	616.171
370.883	16.638	820.267	615.646
371.898	16.561	819.951	615.074
372.913	16.597	819.060	614.481
373.927	16.701	818.521	614.400
374.942	16.693	817.972	613.905
375.956	16.779	817.091	613.499
376.971	16.791	816.706	613.199
377.986	16.763	816.251	612.703
379.000	16.806	815.627	612.334
380.015	16.978	815.006	612.437
381.029	16.807	814.859	611.656
382.044	16.685	813.846	610.401
383.059	16.855	813.582	610.762
384.073	16.839	813.103	610.289
385.088	16.903	812.505	610.016
386.102	16.871	811.774	609.299
387.117	16.871	811.437	608.992
388.132	16.657	810.950	607.805
389.146	16.923	810.555	608.409
390.161	16.797	810.302	607.715
391.175	16.889	809.857	607.657
392.190	16.979	809.237	607.461
393.205	16.978	809.124	607.319
394.219	16.885	808.526	606.483
395.234	17.032	808.021	606.577
396.248	16.925	807.446	605.706
397.263	17.034	806.885	605.622
398.278	16.921	806.345	604.761
399.292	16.907	806.041	604.429
400.307	16.970	805.483	604.183
401.321	17.033	804.889	603.905
402.336	16.916	805.038	603.547
403.350	17.032	804.484	603.491
404.365	17.045	804.059	603.165
405.380	17.062	803.387	602.667
406.394	17.245	802.767	602.800
407.409	17.293	802.507	602.722
408.423	17.200	801.930	601.906
409.438	17.194	801.820	601.749
410.453	17.242	801.538	601.654
411.467	17.372	800.315	601.141
412.482	17.330	800.073	600.758
413.496	17.269	799.660	600.180
414.511	17.441	799.148	600.349
415.526	17.395	799.377	600.306
416.540	17.336	798.794	599.608
417.555	17.417	797.983	599.230
418.569	17.382	797.586	598.756
419.584	17.266	797.470	598.206
420.599	17.550	796.956	598.767
421.613	113.133	1297.070	1486.574
422.628	97.416	1369.899	1486.659
