DTS Sentinel unit serial number:	SN413079Multiplexer serial number:	ORYXHardware model number:	OX4-SRSoftware version number:	ORYX F/W v4.00 Oryx Data Collector v3.7.2.0data status	okinstallation	princeton_trtdifferential loss correction	single-endedforward channel	channel 3reverse channel	N/Adate	2019/09/18time	03:40:35forward acquisition time	60.00reverse acquisition time	0.00gamma	496.2192k internal	0.2343k external	0.2343temperature offset calibration	0.9944default loss term (dB/km)	0.3790temperature slope calibration	1.0000multiplexer offset coefficient	1.0000multiplexer slope coefficient	1.0000fibre end	0.00T internal ref (°C)	22.91T ext. ref 1 (°C)	0.17T ext. ref 2 (°C)	18.00length (m)	temperature (°C)	Stokes	anti-Stokes-747.200	-200.000	-0.008	-0.188
-746.185	-115.888	-0.398	-0.074
-745.171	-200.000	-0.031	-0.184
-744.156	141.679	0.059	0.078
-743.142	241.394	-0.157	0.262
-742.127	-17.596	-0.145	0.091
-741.112	-28.134	-0.414	0.239
-740.098	-58.437	-0.319	0.139
-739.083	800.000	0.084	0.258
-738.069	1.771	-0.166	0.120
-737.054	-137.345	-0.430	-0.049
-736.039	-174.293	-0.307	0.009
-735.025	399.256	-0.114	0.239
-734.010	99.158	-0.264	-0.305
-732.996	-200.000	0.035	-0.176
-731.981	77.751	0.122	0.130
-730.966	-68.730	-0.206	-0.080
-729.952	-52.640	-0.057	0.027
-728.937	-130.457	0.100	-0.013
-727.923	-97.352	-0.099	-0.026
-726.908	-129.593	-0.131	-0.018
-725.894	800.000	-0.047	-0.135
-724.879	-0.640	-0.073	-0.051
-723.864	310.350	0.154	-0.289
-722.850	47.266	-0.199	-0.186
-721.835	16.239	0.200	-0.157
-720.821	-200.000	-0.005	0.174
-719.806	138.181	0.104	-0.136
-718.791	-95.158	0.041	0.011
-717.777	-92.680	0.099	-0.028
-716.762	-79.210	-0.152	0.052
-715.748	226.682	-0.142	0.230
-714.733	115.762	-0.272	0.332
-713.718	-14.943	0.251	-0.161
-712.704	445.780	-0.140	0.308
-711.689	57.722	0.133	0.130
-710.675	-200.000	0.014	0.094
-709.660	-38.463	-0.209	-0.111
-708.645	160.475	0.105	-0.146
-707.631	117.793	-0.196	-0.241
-706.616	-22.433	-0.168	-0.102
-705.602	298.384	0.091	0.166
-704.587	-200.000	0.023	-0.261
-703.572	131.102	0.148	-0.190
-702.558	-43.064	0.223	-0.113
-701.543	-72.653	-0.398	-0.147
-700.529	64.560	-0.070	0.071
-699.514	800.000	-0.072	-0.221
-698.499	-80.148	0.033	-0.011
-697.485	800.000	-0.071	-0.272
-696.470	-129.120	-0.294	-0.041
-695.456	489.509	0.185	-0.422
-694.441	-78.615	0.024	-0.008
-693.426	5.000	0.219	0.161
-692.412	-200.000	-0.019	0.184
-691.397	250.229	0.144	-0.244
-690.383	800.000	-0.058	0.219
-689.368	-200.000	0.020	-0.095
-688.354	-13.747	0.041	0.026
-687.339	-0.615	-0.247	-0.175
-686.324	800.000	0.067	-0.209
-685.310	-24.635	-0.164	-0.097
-684.295	-145.551	0.172	-0.015
-683.281	-37.439	-0.190	0.101
-682.266	2.640	0.284	-0.205
-681.251	650.024	0.011	-0.028
-680.237	-135.700	0.215	-0.025
-679.222	-36.531	-0.204	0.110
-678.208	61.910	-0.190	0.189
-677.193	473.132	-0.221	0.496
-676.178	-6.074	-0.158	0.108
-675.164	800.000	-0.044	0.158
-674.149	472.188	0.135	-0.303
-673.135	-104.606	-0.105	0.024
-672.120	-100.094	0.283	-0.070
-671.105	-200.000	-0.026	0.307
-670.091	-200.000	-0.011	-0.302
-669.076	70.964	0.115	-0.119
-668.062	-22.129	0.134	-0.081
-667.047	596.423	0.141	0.349
-666.032	-200.000	0.000	-0.268
-665.018	-50.503	0.186	0.087
-664.003	-200.000	-0.011	0.402
-662.989	618.542	-0.025	-0.062
-661.974	72.406	0.070	0.073
-660.959	85.210	-0.191	-0.209
-659.945	385.120	-0.092	-0.188
-658.930	-200.000	-0.045	0.307
-657.916	-70.756	-0.104	0.039
-656.901	6.520	0.116	0.086
-655.886	-200.000	-0.035	0.274
-654.872	-151.378	0.132	0.010
-653.857	155.143	-0.090	-0.123
-652.843	800.000	-0.053	-0.198
-651.828	64.289	-0.155	0.155
-650.814	77.830	-0.042	0.044
-649.799	800.000	0.140	0.521
-648.784	-93.911	-0.140	-0.038
-647.770	-164.675	-0.225	0.010
-646.755	-92.613	-0.115	0.032
-645.741	26.722	0.203	0.169
-644.726	-9.273	-0.153	0.102
-643.711	800.000	-0.041	0.170
-642.697	-13.989	0.191	0.123
-641.682	-78.742	-0.096	-0.033
-640.668	94.225	-0.177	-0.200
-639.653	-155.500	-0.096	-0.006
-638.638	800.000	-0.055	-0.176
-637.624	-79.389	0.043	0.014
-636.609	800.000	0.023	0.067
-635.595	196.873	0.055	0.084
-634.580	-102.386	0.158	0.038
-633.565	463.773	-0.060	-0.133
-632.551	-6.190	0.208	-0.141
-631.536	-10.784	0.050	0.033
-630.522	-66.711	0.236	0.093
-629.507	800.000	-0.098	-0.350
-628.492	238.326	0.129	-0.214
-627.478	75.813	-0.034	-0.035
-626.463	7.003	-0.073	-0.054
-625.449	707.098	0.019	0.051
-624.434	53.005	0.152	-0.145
-623.419	48.719	-0.362	-0.338
-622.405	-85.423	0.200	0.062
-621.390	800.000	0.016	-0.056
-620.376	-87.489	0.154	0.046
-619.361	2.171	-0.344	0.247
-618.346	-24.838	0.175	0.103
-617.332	-8.436	0.061	-0.041
-616.317	-110.568	-0.533	-0.110
-615.303	319.973	0.162	-0.307
-614.288	-82.311	-0.288	-0.093
-613.273	-155.213	0.139	-0.009
-612.259	224.718	-0.136	-0.219
-611.244	169.102	-0.150	0.213
-610.230	-34.072	0.346	0.190
-609.215	-200.000	0.013	-0.073
-608.201	-43.135	-0.099	-0.050
-607.186	210.369	-0.163	-0.255
-606.171	-16.132	0.292	0.185
-605.157	89.858	0.129	0.143
-604.142	82.849	-0.081	-0.088
-603.128	83.990	-0.213	-0.232
-602.113	-7.643	-0.156	-0.105
-601.098	-22.483	-0.294	-0.177
-600.084	-200.000	-0.012	-0.292
-599.069	-200.000	-0.000	0.036
-598.055	52.691	0.149	0.141
-597.040	-111.925	-0.103	-0.021
-596.025	-200.000	0.030	-0.289
-595.011	403.050	-0.083	-0.174
-593.996	-60.328	0.257	-0.109
-592.982	-89.129	-0.307	-0.090
-591.967	15.229	0.086	-0.067
-590.952	800.000	0.074	-0.230
-589.938	-200.000	0.036	0.239
-588.923	-116.553	0.313	-0.057
-587.909	-200.000	-0.024	0.177
-586.894	800.000	0.040	-0.116
-585.879	-200.000	0.016	-0.189
-584.865	-35.402	-0.155	0.084
-583.850	-200.000	-0.010	0.177
-582.836	800.000	0.070	-0.195
-581.821	-26.237	-0.248	-0.145
-580.806	-200.000	0.002	0.193
-579.792	-116.843	-0.240	0.044
-578.777	-200.000	-0.006	-0.308
-577.763	800.000	0.038	-0.118
-576.748	614.197	0.117	0.290
-575.733	-164.140	0.126	0.006
-574.719	-200.000	0.016	0.104
-573.704	-103.738	0.103	0.024
-572.690	-78.225	0.246	0.084
-571.675	-111.921	-0.047	0.009
-570.661	-79.814	-0.122	0.041
-569.646	800.000	-0.027	-0.102
-568.631	-40.963	0.187	0.096
-567.617	-96.106	0.154	-0.041
-566.602	-39.412	0.241	-0.126
-565.588	600.410	-0.057	0.140
-564.573	-72.192	-0.236	-0.087
-563.558	800.000	0.196	0.571
-562.544	800.000	0.106	0.322
-561.529	800.000	0.084	-0.362
-560.515	-26.471	0.166	-0.096
-559.500	39.971	0.387	-0.346
-558.485	314.938	-0.117	0.219
-557.471	17.539	-0.039	-0.031
-556.456	-52.429	0.184	0.085
-555.442	-200.000	-0.032	0.209
-554.427	-132.753	-0.176	-0.022
-553.412	102.293	0.127	-0.147
-552.398	120.305	0.120	-0.148
-551.383	96.893	-0.172	-0.196
-550.369	-51.350	-0.230	0.107
-549.354	60.977	0.094	0.092
-548.339	501.040	0.099	0.226
-547.325	-54.798	-0.078	-0.035
-546.310	50.032	-0.225	-0.211
-545.296	38.468	0.019	-0.017
-544.281	800.000	0.056	0.199
-543.266	303.190	-0.144	0.265
-542.252	-186.636	-0.283	-0.004
-541.237	351.237	0.072	0.142
-540.223	627.463	0.110	-0.276
-539.208	331.065	0.072	-0.137
-538.193	49.322	0.320	-0.299
-537.179	-109.028	-0.128	0.027
-536.164	-200.000	0.085	0.448
-535.150	81.872	-0.258	-0.278
-534.135	-158.767	-0.431	-0.024
-533.121	-95.379	0.052	-0.014
-532.106	800.000	0.093	-0.308
-531.091	-97.087	0.217	-0.056
-530.077	-53.461	-0.261	-0.119
-529.062	-200.000	0.083	-0.529
-528.048	-158.691	-0.197	-0.011
-527.033	-93.591	-0.101	-0.028
-526.018	-146.439	-0.246	0.021
-525.004	382.302	-0.107	-0.218
-523.989	-55.882	-0.110	-0.049
-522.975	386.075	-0.090	0.184
-521.960	-200.000	-0.006	0.131
-520.945	-46.166	0.314	-0.153
-519.931	-169.789	-0.180	0.006
-518.916	-47.295	0.388	0.188
-517.902	-78.294	-0.119	-0.040
-516.887	800.000	-0.063	0.227
-515.872	134.652	0.093	0.120
-514.858	-5.294	-0.089	0.061
-513.843	238.467	0.157	-0.259
-512.829	223.902	-0.257	0.411
-511.814	-36.724	0.307	0.164
-510.799	34.228	0.030	-0.026
-509.785	-86.006	0.082	0.025
-508.770	598.035	0.089	-0.220
-507.756	541.765	-0.033	-0.077
-506.741	656.161	-0.068	-0.174
-505.726	33.786	-0.240	0.207
-504.712	800.000	0.133	0.373
-503.697	744.006	0.042	-0.112
-502.683	-174.413	-0.109	0.003
-501.668	-200.000	-0.009	0.040
-500.653	12.294	-0.206	0.158
-499.639	-110.206	-0.316	0.065
-498.624	25.723	-0.164	0.135
-497.610	-200.000	-0.030	0.350
-496.595	345.030	-0.085	0.166
-495.581	201.396	-0.012	-0.019
-494.566	118.118	0.023	-0.028
-493.551	-200.000	-0.047	-0.365
-492.537	77.559	0.106	-0.112
-491.522	-63.279	-0.184	-0.075
-490.508	-200.000	-0.010	-0.069
-489.493	51.914	0.245	0.231
-488.478	236.451	0.122	0.199
-487.464	-116.902	0.135	0.025
-486.449	-89.917	-0.252	0.073
-485.435	16.761	-0.119	0.093
-484.420	-85.047	-0.216	0.067
-483.405	760.499	-0.024	-0.064
-482.391	81.200	0.267	-0.286
-481.376	48.843	-0.233	0.217
-480.362	-58.839	-0.322	0.138
-479.347	-200.000	0.009	0.377
-478.332	33.255	-0.202	-0.174
-477.318	-43.601	-0.061	0.030
-476.303	1.303	0.158	0.113
-475.289	-83.650	0.119	0.038
-474.274	-119.411	0.107	0.018
-473.259	-45.926	0.064	0.032
-472.245	-200.000	-0.011	0.337
-471.230	66.881	-0.123	-0.124
-470.216	368.621	0.120	0.241
-469.201	-69.206	0.258	0.098
-468.186	-200.000	-0.004	-0.230
-467.172	248.951	0.105	-0.177
-466.157	-117.364	-0.191	0.034
-465.143	-200.000	0.008	0.295
-464.128	204.736	0.019	0.030
-463.113	94.557	-0.338	0.381
-462.099	167.596	-0.164	0.231
-461.084	311.254	0.040	-0.074
-460.070	82.119	0.075	0.081
-459.055	-122.784	0.110	-0.018
-458.040	715.503	0.088	-0.231
-457.026	20.522	0.242	-0.193
-456.011	-200.000	0.015	0.230
-454.997	267.499	-0.039	0.068
-453.982	-102.438	0.241	0.057
-452.968	-200.000	0.010	0.353
-451.953	370.893	-0.079	-0.159
-450.938	255.503	-0.103	-0.175
-449.924	56.654	-0.102	0.098
-448.909	800.000	-0.036	-0.134
-447.895	-51.932	-0.071	-0.033
-446.880	-60.787	0.336	0.141
-445.865	-154.130	-0.151	-0.010
-444.851	424.037	0.165	-0.352
-443.836	41.123	0.285	-0.255
-442.822	-93.527	-0.203	-0.055
-441.807	-200.000	-0.002	-0.048
-440.792	-52.043	0.174	-0.080
-439.778	-31.637	-0.278	0.154
-438.763	277.257	0.090	0.159
-437.749	-200.000	-0.049	-0.307
-436.734	-72.759	0.246	-0.090
-435.719	-3.686	-0.200	0.137
-434.705	51.720	-0.134	0.126
-433.690	-200.000	0.011	-0.219
-432.676	800.000	-0.113	-0.309
-431.661	174.224	-0.203	-0.290
-430.646	183.942	0.122	0.178
-429.632	577.162	-0.045	-0.108
-428.617	34.364	0.132	-0.114
-427.603	-86.236	0.228	-0.070
-426.588	-41.426	-0.114	-0.058
-425.573	-126.347	0.061	-0.009
-424.559	95.308	-0.074	0.084
-423.544	-72.205	-0.339	-0.124
-422.530	-200.000	0.067	-0.307
-421.515	-39.995	0.152	0.078
-420.500	-162.835	-0.250	0.012
-419.486	-92.649	-0.381	-0.106
-418.471	-21.638	0.060	0.036
-417.457	-103.454	0.265	-0.062
-416.442	21.425	0.229	-0.184
-415.428	800.000	0.023	0.072
-414.413	28.116	0.225	0.187
-413.398	-109.201	-0.268	-0.056
-412.384	-56.455	0.160	0.070
-411.369	-54.366	0.176	0.079
-410.355	-200.000	-0.027	0.121
-409.340	43.140	-0.268	0.242
-408.325	-104.327	-0.189	0.043
-407.311	248.749	-0.106	-0.178
-406.296	-76.144	0.407	0.142
-405.282	450.694	0.055	-0.121
-404.267	50.730	0.123	-0.115
-403.252	-200.000	0.011	-0.198
-402.238	-150.897	0.177	0.013
-401.223	800.000	-0.036	-0.107
-400.209	800.000	-0.129	0.376
-399.194	359.458	0.086	-0.169
-398.179	-200.000	-0.025	-0.182
-397.165	-27.048	-0.117	-0.067
-396.150	245.487	0.013	-0.022
-395.136	800.000	0.086	0.260
-394.121	-200.000	-0.077	-0.398
-393.106	107.371	0.061	0.071
-392.092	-8.802	0.094	0.063
-391.077	800.000	-0.027	0.075
-390.063	-42.884	-0.305	0.153
-389.048	-40.941	-0.029	-0.015
-388.033	65.112	0.219	-0.219
-387.019	800.000	-0.073	0.249
-386.004	-200.000	-0.001	0.178
-384.990	-13.279	-0.252	0.162
-383.975	-200.000	-0.054	0.348
-382.960	162.509	0.083	0.114
-381.946	105.193	-0.207	-0.241
-380.931	-200.000	0.020	0.244
-379.917	-20.031	0.167	-0.102
-378.902	-117.911	0.454	0.080
-377.888	-17.021	0.273	0.170
-376.873	150.608	-0.154	0.207
-375.858	0.836	0.244	-0.172
-374.844	113.281	0.066	0.079
-373.829	-200.000	-0.016	-0.249
-372.815	-176.565	0.229	-0.006
-371.800	85.415	-0.169	-0.183
-370.785	-168.429	-0.342	-0.013
-369.771	-88.838	0.097	0.028
-368.756	-200.000	-0.018	-0.129
-367.742	-9.953	0.482	0.316
-366.727	120.534	0.348	0.426
-365.712	201.306	0.058	-0.088
-364.698	-73.559	0.238	-0.086
-363.683	-42.852	-0.414	-0.207
-362.669	9.571	-0.054	0.040
-361.654	-200.000	-0.030	-0.131
-360.639	616.401	-0.075	-0.187
-359.625	-151.204	0.255	-0.019
-358.610	403.468	0.058	-0.121
-357.596	52.922	0.229	-0.216
-356.581	-61.910	-0.864	-0.356
-355.566	-110.021	0.130	-0.027
-354.552	-115.966	-0.134	0.025
-353.537	183.784	0.154	0.224
-352.523	-82.368	-0.145	0.047
-351.508	-170.591	-0.207	-0.007
-350.493	-86.080	0.330	0.100
-349.479	52.202	-0.271	-0.255
-348.464	-200.000	0.013	-0.221
-347.450	16.637	0.173	-0.134
-346.435	445.062	0.067	0.145
-345.420	-90.953	-0.172	-0.049
-344.406	-200.000	0.008	0.227
-343.391	-93.749	0.328	-0.089
-342.377	153.594	-0.317	-0.427
-341.362	-25.198	-0.046	-0.027
-340.348	800.000	-0.005	0.017
-339.333	800.000	-0.109	0.341
-338.318	-58.876	0.111	0.047
-337.304	-36.549	-0.372	0.197
-336.289	-200.000	0.017	0.179
-335.275	-74.492	0.103	0.037
-334.260	-52.000	0.048	-0.022
-333.245	-51.950	0.392	0.180
-332.231	66.624	-0.146	-0.146
-331.216	-200.000	-0.009	-0.337
-330.202	-73.598	-0.045	0.016
-329.187	-109.506	-0.198	0.041
-328.172	-69.936	0.482	0.181
-327.158	250.332	0.089	0.149
-326.143	800.000	0.056	0.163
-325.129	55.250	0.294	-0.280
-324.114	-63.152	-0.063	-0.026
-323.099	-37.551	-0.085	0.045
-322.085	800.000	0.048	-0.153
-321.070	-145.422	0.165	0.015
-320.056	-60.877	0.133	-0.055
-319.041	1.821	0.198	0.140
-318.026	274.144	-0.053	-0.092
-317.012	-200.000	0.025	0.121
-315.997	96.319	-0.053	0.059
-314.983	-200.000	0.001	0.120
-313.968	-44.446	-0.105	0.052
-312.953	-159.895	0.265	0.014
-311.939	126.234	-0.123	0.154
-310.924	-159.946	0.435	-0.023
-309.910	-60.079	0.123	0.051
-308.895	443.700	-0.118	0.255
-307.880	230.103	-0.094	0.152
-306.866	-12.118	-0.201	0.129
-305.851	-200.000	0.009	0.148
-304.837	163.309	0.079	0.109
-303.822	-200.000	0.022	0.300
-302.807	-162.598	-0.313	0.015
-301.793	71.667	-0.139	-0.142
-300.778	51.742	0.146	0.137
-299.764	800.000	0.051	0.142
-298.749	-181.604	-0.103	0.002
-297.735	37.723	-0.187	-0.163
-296.720	199.121	-0.117	-0.176
-295.705	289.735	-0.149	-0.265
-294.691	-90.966	-0.120	-0.034
-293.676	800.000	-0.052	0.195
-292.662	267.022	-0.107	-0.184
-291.647	16.407	0.108	-0.084
-290.632	105.616	0.082	0.096
-289.618	-1.190	-0.194	0.135
-288.603	-16.740	0.289	0.180
-287.589	800.000	0.065	0.255
-286.574	-78.794	-0.379	-0.127
-285.559	10.868	0.278	0.208
-284.545	-19.595	-0.294	-0.179
-283.530	52.705	-0.183	0.172
-282.516	358.821	-0.047	0.092
-281.501	-137.605	-0.408	-0.045
-280.486	51.108	-0.171	-0.160
-279.472	-4.415	-0.408	-0.277
-278.457	319.481	0.174	0.325
-277.443	-56.413	0.029	0.013
-276.428	-88.929	0.134	0.039
-275.413	-104.171	0.212	0.049
-274.399	61.384	-0.107	0.104
-273.384	-15.036	0.413	-0.260
-272.370	571.712	-0.015	0.035
-271.355	-200.000	0.016	-0.255
-270.340	143.208	0.196	0.257
-269.326	66.055	0.132	-0.132
-268.311	-200.000	0.004	-0.042
-267.297	-88.639	-0.131	0.038
-266.282	-200.000	0.015	-0.118
-265.267	183.693	-0.050	0.073
-264.253	71.917	-0.163	-0.166
-263.238	-77.911	-0.277	0.094
-262.224	-55.145	0.275	-0.121
-261.209	-88.896	0.025	0.007
-260.195	183.002	0.150	0.217
-259.180	-8.414	0.176	-0.116
-258.165	146.140	0.163	-0.215
-257.151	-200.000	-0.044	0.195
-256.136	454.482	0.125	0.273
-255.122	221.207	-0.036	0.056
-254.107	-200.000	0.005	-0.163
-253.092	-84.563	0.217	0.067
-252.078	315.236	-0.181	-0.336
-251.063	-92.748	0.296	0.081
-250.049	338.814	-0.043	-0.083
-249.034	-66.747	-0.471	-0.183
-248.019	309.959	0.105	-0.194
-247.005	-123.720	0.163	-0.025
-245.990	14.709	-0.184	-0.141
-244.976	-83.765	0.394	0.124
-243.961	-100.880	0.366	0.088
-242.946	-13.529	-0.099	-0.063
-241.932	161.177	0.059	-0.081
-240.917	123.982	0.186	-0.230
-239.903	-135.365	-0.193	-0.023
-238.888	-110.055	0.260	0.053
-237.873	41.370	-0.157	0.139
-236.859	205.983	0.200	0.305
-235.844	-10.454	-0.201	0.131
-234.830	99.109	0.083	-0.094
-233.815	-147.691	0.256	0.021
-232.800	216.659	-0.153	0.239
-231.786	-200.000	-0.025	-0.141
-230.771	587.644	-0.080	-0.193
-229.757	-200.000	-0.030	-0.238
-228.742	-130.326	0.168	-0.022
-227.727	-89.231	-0.297	0.086
-226.713	96.730	0.148	-0.166
-225.698	-120.214	-0.326	0.055
-224.684	33.588	0.081	-0.069
-223.669	-200.000	-0.003	-0.041
-222.655	-100.375	-0.440	0.107
-221.640	-165.036	-0.254	-0.011
-220.625	693.861	-0.184	0.473
-219.611	-109.691	0.177	-0.037
-218.596	-102.262	0.091	0.021
-217.582	-59.528	-0.323	0.136
-216.567	330.729	-0.117	0.222
-215.552	-5.418	-0.017	0.012
-214.538	-200.000	0.009	0.340
-213.523	-200.000	-0.005	0.089
-212.509	-200.000	-0.029	0.138
-211.494	-11.874	0.117	0.075
-210.479	-26.528	0.099	-0.057
-209.465	-200.000	0.039	0.294
-208.450	-117.003	0.350	0.063
-207.436	-63.634	-0.191	0.077
-206.421	71.360	0.268	0.272
-205.406	-176.543	-0.063	-0.002
-204.392	800.000	-0.050	-0.172
-203.377	800.000	0.099	-0.346
-202.363	-200.000	-0.012	0.149
-201.348	-200.000	0.020	0.095
-200.333	-200.000	0.001	-0.124
-199.319	607.684	-0.074	-0.180
-198.304	78.454	-0.120	-0.126
-197.290	-189.199	0.239	-0.003
-196.275	-65.851	-0.124	-0.049
-195.260	-154.430	-0.132	0.009
-194.246	512.069	0.126	-0.288
-193.231	800.000	-0.067	-0.198
-192.217	21.125	0.195	-0.155
-191.202	608.486	-0.054	0.132
-190.187	667.780	0.149	-0.377
-189.173	-5.924	0.023	-0.016
-188.158	14.067	0.089	-0.068
-187.144	-200.000	0.016	-0.115
-186.129	187.593	-0.087	0.128
-185.114	-200.000	-0.028	0.287
-184.100	-200.000	0.012	-0.197
-183.085	194.170	0.108	0.160
-182.071	655.271	0.080	-0.200
-181.056	-200.000	0.041	0.239
-180.042	-200.000	-0.044	-0.230
-179.027	-4.830	-0.365	-0.246
-178.012	-58.797	0.094	-0.040
-176.998	44.933	-0.182	-0.164
-175.983	-68.706	0.167	-0.063
-174.969	113.470	0.372	0.443
-173.954	158.679	0.145	0.197
-172.939	-200.000	-0.014	0.124
-171.925	-155.687	0.083	-0.005
-170.910	-200.000	-0.048	0.361
-169.896	-200.000	-0.012	0.159
-168.881	-106.053	0.154	-0.034
-167.866	-67.368	-0.263	-0.101
-166.852	5.007	-0.099	0.071
-165.837	249.316	-0.079	0.131
-164.823	-200.000	-0.004	-0.204
-163.808	241.497	0.060	0.098
-162.793	347.962	0.086	0.166
-161.779	800.000	0.021	0.060
-160.764	142.529	-0.145	-0.189
-159.750	-200.000	-0.008	-0.292
-158.735	236.171	0.092	-0.149
-157.720	107.008	-0.084	0.098
-156.706	258.194	0.249	-0.419
-155.691	705.703	-0.067	0.172
-154.677	29.901	-0.082	-0.068
-153.662	296.959	-0.129	0.231
-152.647	-200.000	0.006	-0.094
-151.633	769.789	-0.148	-0.394
-150.618	-110.315	0.153	0.031
-149.604	196.900	-0.168	0.250
-148.589	-200.000	0.005	-0.250
-147.574	-44.293	0.297	-0.146
-146.560	800.000	-0.104	-0.305
-145.545	739.600	-0.055	0.144
-144.531	800.000	0.110	0.405
-143.516	167.393	0.293	0.407
-142.502	-6.950	-0.358	0.238
-141.487	-200.000	0.013	0.062
-140.472	450.097	-0.191	-0.412
-139.458	392.492	-0.076	-0.154
-138.443	-200.000	0.054	0.243
-137.429	-45.902	0.243	-0.117
-136.414	-40.049	-0.337	0.172
-135.399	-200.000	0.009	0.061
-134.385	800.000	0.044	0.184
-133.370	554.975	-0.138	0.326
-132.356	-15.166	0.470	-0.294
-131.341	-41.570	-0.182	-0.092
-130.326	64.293	0.243	0.239
-129.312	-200.000	0.030	-0.249
-128.297	521.729	0.061	-0.139
-127.283	-200.000	0.018	0.222
-126.268	24.246	-0.319	-0.257
-125.253	371.081	-0.193	0.382
-124.239	36.534	0.235	-0.202
-123.224	-80.464	-0.278	0.091
-122.210	467.493	-0.057	-0.125
-121.195	-200.000	-0.015	0.238
-120.180	-109.932	0.305	-0.062
-119.166	-200.000	-0.061	-0.286
-118.151	-200.000	-0.048	0.262
-117.137	116.585	-0.089	-0.107
-116.122	-4.871	-0.120	-0.081
-115.107	-101.379	-0.171	-0.041
-114.093	-57.960	0.042	0.018
-113.078	25.885	-0.139	0.113
-112.064	800.000	0.092	0.362
-111.049	403.148	-0.007	-0.015
-110.034	381.287	-0.010	-0.021
-109.020	10.317	-0.093	-0.069
-108.005	-200.000	-0.019	-0.262
-106.991	-56.372	-0.139	-0.060
-105.976	-45.801	0.163	-0.079
-104.962	-121.865	-0.119	-0.019
-103.947	95.928	0.300	-0.334
-102.932	800.000	0.089	0.319
-101.918	-62.477	-0.250	-0.101
-100.903	800.000	0.051	0.205
-99.889	-200.000	-0.022	0.202
-98.874	-200.000	-0.012	0.155
-97.859	-200.000	0.040	-0.200
-96.845	-65.324	0.197	-0.077
-95.830	239.843	-0.063	-0.102
-94.816	-200.000	-0.012	0.182
-93.801	-200.000	0.016	-0.229
-92.786	227.709	0.165	-0.262
-91.772	166.530	0.102	0.141
-90.757	41.073	0.200	-0.176
-89.743	219.241	-0.186	-0.291
-88.728	-20.121	-0.032	0.019
-87.713	-12.167	0.170	0.109
-86.699	-85.094	-0.216	-0.066
-85.684	800.000	0.042	0.165
-84.670	-53.159	-0.074	0.033
-83.655	-200.000	0.010	-0.124
-82.640	-94.585	-0.277	0.073
-81.626	22.396	0.152	-0.121
-80.611	186.835	0.108	-0.157
-79.597	-200.000	0.007	0.173
-78.582	-81.287	0.138	0.044
-77.567	179.807	-0.140	-0.199
-76.553	-75.483	-0.083	-0.029
-75.538	-141.052	0.173	0.017
-74.524	-200.000	0.045	0.285
-73.509	800.000	0.049	0.155
-72.494	-50.158	0.333	0.153
-71.480	336.899	0.094	-0.178
-70.465	10.267	0.107	-0.080
-69.451	174.024	-0.060	-0.084
-68.436	472.129	0.074	0.163
-67.422	-200.000	0.023	0.175
-66.407	109.244	0.053	-0.062
-65.392	34.702	0.251	-0.214
-64.378	501.237	-0.140	-0.316
-63.363	-167.396	0.077	0.003
-62.349	-105.822	0.111	-0.024
-61.334	63.055	-1.225	-1.196
-60.319	33.647	0.657	0.557
-59.305	646.036	-0.490	-1.219
-58.290	246.374	0.703	1.154
-57.276	233.596	0.800	1.283
-56.261	-200.000	126.509	658.611
-55.246	410.690	1590.238	3286.371
-54.232	140.515	2748.395	3535.829
-53.217	94.919	2186.322	2424.217
-52.203	33.412	1702.262	1440.109
-51.188	25.883	1520.117	1234.607
-50.173	23.938	1496.647	1202.364
-49.159	48.395	1567.982	1430.256
-48.144	45.216	1580.700	1419.757
-47.130	26.078	1529.491	1243.370
-46.115	23.326	1512.578	1210.788
-45.100	22.965	1509.397	1205.728
-44.086	22.955	1507.615	1204.190
-43.071	22.927	1505.860	1202.553
-42.057	22.899	1504.163	1200.956
-41.042	22.780	1503.312	1199.418
-40.027	22.857	1501.671	1198.587
-39.013	22.907	1499.575	1197.203
-37.998	22.840	1499.010	1196.252
-36.984	22.881	1497.901	1195.601
-35.969	22.836	1496.508	1194.136
-34.954	22.897	1494.414	1192.826
-33.940	22.869	1493.301	1191.702
-32.925	22.895	1491.949	1190.756
-31.911	22.910	1490.827	1189.909
-30.896	22.940	1489.223	1188.786
-29.881	22.978	1487.873	1187.913
-28.867	22.998	1486.701	1187.068
-27.852	22.993	1485.266	1185.841
-26.838	23.023	1484.131	1185.090
-25.823	22.950	1482.855	1183.536
-24.809	22.990	1480.927	1182.216
-23.794	22.968	1479.528	1180.908
-22.779	22.926	1478.658	1179.883
-21.765	22.969	1477.262	1179.011
-20.750	22.985	1476.304	1178.304
-19.736	22.981	1475.116	1177.284
-18.721	22.841	1474.104	1175.497
-17.706	22.903	1472.967	1174.958
-16.692	22.906	1471.878	1174.062
-15.677	22.902	1470.595	1172.960
-14.663	22.860	1470.171	1172.300
-13.648	22.899	1469.395	1171.896
-12.633	22.902	1468.123	1170.850
-11.619	22.854	1467.334	1169.861
-10.604	22.787	1466.935	1169.050
-9.590	22.890	1465.878	1168.844
-8.575	22.951	1464.855	1168.385
-7.560	22.769	1464.259	1166.658
-6.546	22.924	1462.962	1166.602
-5.531	22.910	1462.017	1165.713
-4.517	22.874	1461.384	1164.923
-3.502	22.803	1460.497	1163.699
-2.487	22.890	1459.311	1163.282
-1.473	22.892	1458.322	1162.461
-0.458	22.873	1456.749	1161.035
0.556	21.180	1447.087	1150.453
1.571	18.358	1423.722	1113.456
2.586	15.528	1362.485	1047.835
3.600	14.148	1279.830	976.092
4.615	13.427	1235.912	938.426
5.629	11.593	1179.199	885.353
6.644	5.599	1097.883	793.913
7.659	0.852	1061.967	744.555
8.673	0.294	1056.289	737.777
9.688	0.217	1053.095	735.105
10.702	0.085	1051.795	733.490
11.717	0.094	1049.665	731.980
12.731	2.051	1050.771	742.209
13.746	8.348	1059.106	778.823
14.761	14.518	1066.889	814.703
15.775	16.588	1068.946	826.321
16.790	16.235	1068.196	823.948
17.804	15.371	1065.502	817.587
18.819	14.575	1064.079	812.548
19.834	14.065	1062.418	808.726
20.848	13.934	1061.139	807.047
21.863	13.571	1060.757	804.921
22.877	13.375	1059.791	803.165
23.892	13.248	1058.879	801.786
24.907	13.173	1058.344	800.948
25.921	13.057	1057.812	799.909
26.936	13.124	1057.160	799.672
27.950	13.213	1056.143	799.261
28.965	13.157	1055.834	798.688
29.980	13.220	1054.827	798.161
30.994	13.315	1053.744	797.724
32.009	13.377	1052.660	797.135
33.023	13.412	1051.942	796.687
34.038	13.328	1051.246	795.686
35.053	13.327	1050.503	795.047
36.067	13.311	1049.595	794.214
37.082	13.320	1048.791	793.581
38.096	13.325	1047.886	792.849
39.111	13.390	1046.882	792.329
40.126	13.237	1046.484	791.224
41.140	13.238	1045.348	790.302
42.155	13.156	1044.879	789.488
43.169	13.081	1043.621	788.106
44.184	13.112	1042.348	787.222
45.199	13.142	1041.500	786.655
46.213	13.148	1040.513	785.869
47.228	13.025	1039.700	784.600
48.242	13.223	1038.054	784.231
49.257	13.246	1037.283	783.685
50.271	13.236	1036.330	782.850
51.286	13.332	1035.500	782.607
52.301	13.209	1034.844	781.464
53.315	13.345	1033.460	780.992
54.330	13.130	1033.208	779.716
55.344	13.090	1032.322	778.789
56.359	13.098	1031.106	777.839
57.374	13.220	1030.172	777.639
58.388	13.115	1029.421	776.514
59.403	13.244	1028.380	776.263
60.417	13.194	1027.483	775.285
61.432	13.015	1027.212	774.170
62.447	13.160	1026.130	773.968
63.461	13.048	1025.692	773.041
64.476	12.974	1024.386	771.644
65.490	13.043	1023.312	771.087
66.505	13.199	1022.460	771.107
67.520	13.093	1021.481	769.805
68.534	13.134	1020.994	769.563
69.549	13.108	1020.070	768.678
70.563	13.057	1019.282	767.778
71.578	13.130	1018.567	767.509
72.593	13.080	1017.878	766.689
73.607	13.057	1016.628	765.573
74.622	12.983	1016.204	764.847
75.636	13.090	1014.913	764.301
76.651	12.950	1014.619	763.364
77.666	13.088	1013.429	763.037
78.680	12.998	1013.289	762.450
79.695	13.049	1012.571	762.078
80.709	13.063	1012.033	761.668
81.724	13.165	1011.035	761.322
82.739	12.945	1010.741	760.019
83.753	13.034	1009.781	759.641
84.768	13.261	1008.527	759.671
85.782	13.277	1007.805	759.134
86.797	13.314	1007.180	758.765
87.812	13.325	1006.293	758.082
88.826	13.252	1005.396	757.005
89.841	13.181	1004.428	755.886
90.855	13.313	1003.785	755.938
91.870	13.252	1003.319	755.240
92.884	13.390	1002.128	754.906
93.899	13.357	1001.384	754.131
94.914	13.304	1000.684	753.294
95.928	13.432	1000.499	753.673
96.943	13.444	999.491	752.899
97.957	13.442	998.604	752.154
98.972	13.356	997.999	751.245
99.987	13.388	997.156	750.688
101.001	13.347	996.596	750.013
102.016	13.422	996.004	749.841
103.030	13.319	994.809	748.408
104.045	13.459	993.643	748.096
105.060	13.427	992.943	747.360
106.074	13.426	992.016	746.590
107.089	13.304	990.824	745.078
108.103	13.290	990.167	744.457
109.118	13.294	988.886	743.447
110.133	13.159	988.310	742.339
111.147	13.167	987.849	741.963
112.162	13.235	986.612	741.274
113.176	13.327	985.548	740.822
114.191	13.142	985.301	739.740
115.206	13.274	984.070	739.342
116.220	13.241	983.107	738.404
117.235	13.189	982.662	737.774
118.249	13.230	981.498	737.017
119.264	13.224	980.908	736.484
120.279	13.241	979.788	735.655
121.293	13.301	978.927	735.208
122.308	13.277	978.270	734.541
123.322	13.258	977.316	733.679
124.337	13.242	976.050	732.591
125.352	13.099	975.317	731.343
126.366	13.133	974.191	730.585
127.381	13.236	973.044	730.112
128.395	13.201	972.216	729.275
129.410	13.204	971.135	728.411
130.424	13.136	970.766	727.769
131.439	13.111	969.778	726.854
132.454	13.260	968.276	726.320
133.468	13.209	967.936	725.778
134.483	13.228	967.329	725.341
135.497	13.371	966.413	725.219
136.512	13.257	965.653	724.085
137.527	13.253	964.773	723.341
138.541	13.302	963.847	722.800
139.556	13.256	963.343	722.155
140.570	13.298	962.597	721.716
141.585	13.349	961.633	721.151
142.600	13.309	961.405	720.743
143.614	13.403	960.294	720.254
144.629	13.477	959.358	719.811
145.643	13.382	958.679	718.824
146.658	13.475	957.736	718.456
147.673	13.414	957.193	717.723
148.687	13.469	956.003	717.007
149.702	13.346	955.772	716.234
150.716	13.298	954.512	715.022
151.731	13.334	953.931	714.678
152.746	13.292	952.997	713.731
153.760	13.439	952.256	713.750
154.775	13.350	951.646	712.847
155.789	13.382	950.589	712.129
156.804	13.492	949.771	711.926
157.819	13.433	949.532	711.428
158.833	13.541	948.518	711.070
159.848	13.502	947.952	710.415
160.862	13.628	947.122	710.272
161.877	13.553	946.477	709.403
162.892	13.527	945.672	708.628
163.906	13.469	945.086	707.878
164.921	13.334	944.366	706.698
165.935	13.504	943.044	706.372
166.950	13.485	942.103	705.524
167.964	13.426	941.009	704.389
168.979	13.687	940.139	704.785
169.994	13.624	939.117	703.691
171.008	13.662	938.080	703.013
172.023	13.703	937.422	702.632
173.037	13.726	936.840	702.227
174.052	13.701	936.072	701.484
175.067	13.744	935.357	701.067
176.081	13.638	934.970	700.270
177.096	13.502	934.110	698.989
178.110	13.511	933.634	698.608
179.125	13.562	932.421	697.853
180.140	13.651	931.292	697.324
181.154	13.582	931.083	696.813
182.169	13.633	930.511	696.538
183.183	13.733	929.797	696.363
184.198	13.722	929.111	695.740
185.213	13.615	928.808	695.003
186.227	13.690	928.115	694.736
187.242	13.832	927.331	694.684
188.256	13.882	926.809	694.440
189.271	13.866	925.672	693.461
190.286	13.874	924.818	692.794
191.300	13.768	924.555	692.091
192.315	13.808	923.264	691.232
193.329	13.578	922.999	690.012
194.344	13.616	922.495	689.733
195.359	13.773	921.736	689.759
196.373	13.754	921.285	689.280
197.388	13.904	920.083	688.944
198.402	13.956	919.809	688.893
199.417	14.041	919.320	688.815
200.432	14.029	919.211	688.623
201.446	14.091	918.687	688.428
202.461	14.030	918.090	687.669
203.475	14.149	917.653	687.770
204.490	14.163	917.194	687.423
205.504	13.997	916.441	686.115
206.519	14.056	915.480	685.577
207.534	14.069	914.817	685.074
208.548	14.136	914.001	684.676
209.563	14.015	913.234	683.546
210.577	14.134	912.144	683.155
211.592	14.123	912.072	682.998
212.607	14.294	911.365	683.109
213.621	14.030	911.016	681.706
214.636	14.203	910.461	681.939
215.650	14.246	909.653	681.447
216.665	14.164	909.178	680.695
217.680	14.271	908.607	680.645
218.694	14.316	907.869	680.219
219.709	14.374	907.160	679.863
220.723	14.331	906.644	679.239
221.738	14.314	906.128	678.725
222.753	14.246	905.499	677.916
223.767	14.283	904.274	677.091
224.782	14.328	903.590	676.701
225.796	14.261	903.339	676.182
226.811	14.424	902.501	676.155
227.826	14.525	901.304	675.606
228.840	14.421	901.108	674.978
229.855	14.277	900.821	674.122
230.869	14.249	900.105	673.413
231.884	14.403	899.210	673.304
232.899	14.407	898.890	673.025
233.913	14.386	897.873	672.117
234.928	14.465	896.932	671.671
235.942	14.419	896.471	671.083
236.957	14.504	895.477	670.620
237.972	14.448	895.149	670.091
238.986	14.354	894.511	669.176
240.001	14.377	894.082	668.890
241.015	14.445	893.371	668.572
242.030	14.552	892.433	668.235
243.045	14.531	891.903	667.696
244.059	14.587	891.323	667.428
245.074	14.550	890.451	666.567
246.088	14.538	889.833	665.998
247.103	14.725	889.161	666.181
248.117	14.657	888.646	665.468
249.132	14.736	888.391	665.532
250.147	14.735	888.056	665.220
251.161	14.742	886.765	664.221
252.176	14.898	886.341	664.465
253.190	14.776	885.822	663.532
254.205	14.986	884.874	663.596
255.220	14.928	884.105	662.731
256.234	15.025	883.823	662.843
257.249	14.945	882.864	661.748
258.263	14.938	882.586	661.456
259.278	14.881	881.922	660.674
260.293	14.917	881.944	660.773
261.307	15.039	880.726	660.283
262.322	15.020	880.266	659.805
263.336	15.016	879.385	659.070
264.351	15.143	878.899	659.150
265.366	15.218	878.076	658.767
266.380	15.191	877.950	658.510
267.395	15.217	877.050	657.876
268.409	15.067	876.568	656.869
269.424	15.042	875.541	655.944
270.439	15.225	875.224	656.364
271.453	15.111	874.355	655.209
272.468	14.982	873.639	654.113
273.482	15.082	873.383	654.251
274.497	15.166	872.637	653.962
275.512	15.220	871.762	653.460
276.526	15.087	871.113	652.397
277.541	15.121	870.445	651.972
278.555	15.223	869.677	651.738
279.570	15.263	869.376	651.608
280.585	15.348	868.502	651.227
281.599	15.344	868.260	650.971
282.614	15.366	867.640	650.532
283.628	15.322	867.015	649.838
284.643	15.373	866.542	649.623
285.657	15.300	865.980	648.863
286.672	15.443	865.346	648.881
287.687	15.291	865.110	648.062
288.701	15.492	863.957	647.914
289.716	15.367	863.812	647.268
290.730	15.439	863.086	646.942
291.745	15.408	862.748	646.511
292.760	15.323	862.218	645.732
293.774	15.406	861.367	645.356
294.789	15.506	860.576	645.088
295.803	15.463	859.916	644.375
296.818	15.537	859.443	644.244
297.833	15.560	858.238	643.375
298.847	15.530	857.711	642.806
299.862	15.445	857.278	642.102
300.876	15.622	856.664	642.260
301.891	15.624	855.758	641.531
302.906	15.629	855.157	641.044
303.920	15.591	854.677	640.483
304.935	15.841	853.718	640.660
305.949	15.702	853.550	639.945
306.964	15.718	853.242	639.720
307.979	15.551	853.277	639.055
308.993	15.707	852.047	638.669
310.008	15.752	851.529	638.396
311.022	15.872	850.658	638.141
312.037	15.720	850.220	637.179
313.052	15.912	849.448	637.269
314.066	15.808	848.896	636.407
315.081	15.710	848.550	635.720
316.095	15.698	848.167	635.332
317.110	15.827	847.538	635.291
318.125	15.791	847.062	634.744
319.139	15.770	846.471	634.166
320.154	15.847	845.883	633.958
321.168	15.761	845.265	633.117
322.183	15.824	844.726	632.894
323.197	15.878	844.237	632.673
324.212	15.807	843.850	632.063
325.227	15.944	842.934	631.832
326.241	15.931	842.656	631.522
327.256	15.975	841.981	631.123
328.270	15.951	841.523	630.634
329.285	15.954	841.330	630.446
330.300	15.917	840.455	629.595
331.314	15.881	839.857	628.959
332.329	15.828	839.361	628.331
333.343	16.052	838.479	628.452
334.358	16.094	837.888	628.111
335.373	16.002	837.528	627.442
336.387	16.029	836.802	626.940
337.402	15.970	836.558	626.485
338.416	16.082	836.467	626.776
339.431	16.084	835.493	625.998
340.446	16.287	834.605	626.030
341.460	16.341	834.143	625.830
342.475	16.186	833.650	624.831
343.489	16.218	833.393	624.702
344.504	16.344	832.419	624.381
345.519	16.337	832.064	624.036
346.533	16.353	831.302	623.468
347.548	16.388	831.137	623.416
348.562	16.425	830.274	622.852
349.577	16.337	829.915	622.202
350.592	16.298	829.715	621.852
351.606	16.401	828.918	621.581
352.621	16.260	828.449	620.656
353.635	16.321	828.377	620.770
354.650	16.306	827.694	620.150
355.665	16.296	827.270	619.740
356.679	16.370	826.548	619.416
357.694	16.370	826.100	619.024
358.708	16.472	825.494	618.889
359.723	16.558	824.575	618.460
360.738	16.562	824.448	618.323
361.752	16.468	823.903	617.517
362.767	16.286	824.156	616.987
363.781	16.499	823.214	617.005
364.796	16.508	823.178	616.955
365.810	16.703	822.248	616.916
366.825	16.629	821.696	616.178
367.840	16.696	821.575	616.274
368.854	16.737	821.341	616.193
369.869	16.766	820.854	615.880
370.883	16.518	820.437	614.611
371.898	16.666	819.260	614.213
372.913	16.773	818.963	614.324
373.927	16.751	818.222	613.635
374.942	16.712	817.785	613.109
375.956	16.846	816.944	612.909
376.971	16.924	816.363	612.701
377.986	16.965	815.730	612.321
379.000	16.941	815.338	611.884
380.015	16.848	814.992	611.237
381.029	17.024	814.391	611.367
382.044	16.933	813.814	610.552
383.059	16.925	813.671	610.362
384.073	17.208	812.486	610.436
385.088	16.996	812.093	609.325
386.102	16.922	811.962	608.906
387.117	16.893	811.277	608.233
388.132	16.939	810.669	607.891
389.146	17.002	810.236	607.739
390.161	16.873	809.824	606.913
391.175	17.045	809.232	607.030
392.190	17.050	809.576	607.251
393.205	16.966	808.716	606.254
394.219	17.100	808.063	606.189
395.234	17.119	807.595	605.853
396.248	16.947	807.234	604.916
397.263	17.008	806.696	604.675
398.278	16.889	806.714	604.209
399.292	17.065	805.922	604.189
400.307	16.984	805.576	603.588
401.321	17.068	805.138	603.505
402.336	17.025	804.855	603.087
403.350	17.084	804.453	602.942
404.365	17.209	803.688	602.762
405.380	17.218	803.122	602.313
406.394	17.046	802.916	601.499
407.409	17.209	802.630	601.806
408.423	17.240	802.096	601.462
409.438	17.230	801.394	600.847
410.453	17.562	800.811	601.530
411.467	17.338	800.644	600.561
412.482	17.229	800.564	600.064
413.496	17.568	799.372	600.312
414.511	17.528	799.015	599.848
415.526	17.572	798.461	599.535
416.540	17.409	798.494	598.935
417.555	17.344	798.228	598.450
418.569	17.526	797.697	598.641
419.584	17.467	796.962	597.827
420.599	17.497	796.597	597.606
421.613	113.774	1297.606	1488.602
422.628	97.988	1370.528	1488.656
