DTS Sentinel unit serial number:	SN413079Multiplexer serial number:	ORYXHardware model number:	OX4-SRSoftware version number:	ORYX F/W v4.00 Oryx Data Collector v3.7.2.0data status	okinstallation	princeton_trtdifferential loss correction	single-endedforward channel	channel 3reverse channel	N/Adate	2019/09/18time	19:00:35forward acquisition time	60.00reverse acquisition time	0.00gamma	496.2192k internal	0.2309k external	0.2309temperature offset calibration	0.9996default loss term (dB/km)	0.3790temperature slope calibration	1.0000multiplexer offset coefficient	1.0000multiplexer slope coefficient	1.0000fibre end	0.00T internal ref (°C)	36.03T ext. ref 1 (°C)	0.93T ext. ref 2 (°C)	25.17length (m)	temperature (°C)	Stokes	anti-Stokes-747.200	-200.000	0.004	-0.027
-746.185	59.058	-0.481	0.481
-745.171	196.566	0.065	0.100
-744.156	-103.470	-0.036	0.008
-743.142	315.520	0.074	0.141
-742.127	-20.156	-0.244	0.153
-741.112	188.050	0.189	-0.287
-740.098	714.387	0.136	0.365
-739.083	-200.000	0.025	0.323
-738.069	800.000	0.041	0.123
-737.054	-173.383	-0.052	-0.002
-736.039	-60.956	0.362	-0.155
-735.025	800.000	0.022	-0.071
-734.010	231.919	0.088	0.147
-732.996	-114.513	-0.559	-0.109
-731.981	185.994	-0.130	-0.197
-730.966	-57.558	0.160	0.071
-729.952	79.720	-0.121	0.132
-728.937	452.018	0.048	-0.108
-727.923	0.661	0.160	0.116
-726.908	-50.668	-0.232	-0.111
-725.894	-4.442	0.189	-0.133
-724.879	57.082	-0.235	0.233
-723.864	194.934	0.020	-0.030
-722.850	-78.010	-0.248	-0.087
-721.835	800.000	0.003	0.008
-720.821	13.966	-0.215	0.170
-719.806	-200.000	0.040	-0.224
-718.791	800.000	-0.062	-0.208
-717.777	-90.668	-0.202	0.059
-716.762	-126.670	0.146	0.022
-715.748	196.915	0.156	0.242
-714.733	353.588	-0.099	-0.199
-713.718	51.705	0.155	0.150
-712.704	-43.071	0.300	0.154
-711.689	93.230	-0.065	0.075
-710.675	-99.090	-0.162	-0.042
-709.660	-86.436	0.535	0.167
-708.645	11.943	-0.139	0.109
-707.631	-69.278	-0.157	-0.061
-706.616	-163.329	0.196	0.010
-705.602	81.534	-0.138	-0.151
-704.587	-200.000	-0.018	-0.189
-703.572	16.839	-0.338	-0.271
-702.558	-31.736	0.206	-0.117
-701.543	563.928	0.112	0.275
-700.529	711.416	0.048	-0.130
-699.514	-175.750	0.126	0.003
-698.499	-9.196	-0.209	-0.142
-697.485	-8.007	-0.173	0.118
-696.470	-200.000	-0.044	-0.251
-695.456	397.357	-0.102	0.217
-694.441	-71.810	0.139	0.053
-693.426	-200.000	-0.023	-0.271
-692.412	-13.244	0.108	-0.071
-691.397	-97.705	0.155	-0.041
-690.383	-128.062	0.339	0.049
-689.368	-115.274	-0.154	0.030
-688.354	-147.389	0.138	-0.012
-687.339	-24.962	0.299	-0.180
-686.324	274.749	0.075	0.135
-685.310	800.000	0.025	0.074
-684.295	13.308	0.281	0.221
-683.281	-44.842	-0.140	0.071
-682.266	572.929	0.083	0.204
-681.251	-88.273	-0.142	0.043
-680.237	145.160	-0.055	-0.074
-679.222	-58.942	-0.165	0.072
-678.208	-77.986	-0.107	-0.037
-677.193	-140.346	-0.101	0.011
-676.178	535.424	-0.077	-0.184
-675.164	-104.065	0.146	-0.035
-674.149	-2.331	0.165	-0.117
-673.135	-45.372	-0.120	-0.061
-672.120	-121.819	-0.145	-0.024
-671.105	-94.915	0.279	0.076
-670.091	6.420	-0.320	-0.241
-669.076	-55.135	0.094	-0.043
-668.062	-166.252	-0.149	-0.006
-667.047	140.915	-0.322	0.431
-666.032	-200.000	0.006	-0.082
-665.018	-200.000	-0.034	-0.192
-664.003	-200.000	-0.018	0.144
-662.989	348.195	-0.026	0.051
-661.974	-99.187	-0.064	0.016
-660.959	-147.599	-0.292	-0.025
-659.945	110.564	-0.163	0.199
-658.930	-77.193	-0.033	-0.012
-657.916	800.000	0.074	-0.298
-656.901	-200.000	-0.021	0.194
-655.886	-94.621	0.231	-0.063
-654.872	-200.000	-0.014	-0.194
-653.857	-39.067	-0.307	-0.163
-652.843	118.646	-0.182	-0.227
-651.828	434.447	-0.106	0.233
-650.814	116.040	-0.038	-0.047
-649.799	-94.382	-0.312	0.086
-648.784	800.000	-0.087	-0.327
-647.770	-200.000	-0.077	-0.353
-646.755	-86.145	-0.216	-0.067
-645.741	109.737	0.184	-0.224
-644.726	-200.000	0.015	-0.415
-643.711	-200.000	-0.004	0.180
-642.697	-47.615	0.187	0.092
-641.682	-144.264	-0.312	0.029
-640.668	-26.100	-0.118	-0.070
-639.653	-200.000	-0.035	0.164
-638.638	17.321	0.164	-0.132
-637.624	193.140	-0.195	-0.298
-636.609	-200.000	-0.011	0.102
-635.595	-34.547	-0.111	-0.061
-634.580	-5.554	0.166	0.115
-633.565	293.775	-0.141	-0.261
-632.551	-80.757	0.072	0.024
-631.536	103.754	-0.011	-0.013
-630.522	103.247	0.226	-0.268
-629.507	800.000	-0.192	-0.560
-628.492	292.542	-0.102	0.188
-627.478	800.000	0.120	-0.406
-626.463	375.227	-0.082	-0.170
-625.449	688.851	0.032	0.084
-624.434	15.645	-0.185	0.147
-623.419	-76.706	0.152	-0.054
-622.405	-54.688	-0.174	-0.080
-621.390	404.980	0.095	0.203
-620.376	-200.000	0.000	-0.043
-619.361	-117.571	0.282	-0.051
-618.346	232.237	-0.128	-0.212
-617.332	36.598	-0.072	-0.064
-616.317	-200.000	0.016	0.085
-615.303	-25.957	0.239	-0.142
-614.288	-200.000	-0.020	-0.106
-613.273	-78.734	0.105	-0.036
-612.259	414.297	0.112	0.240
-611.244	85.803	0.123	0.137
-610.230	154.643	-0.149	0.206
-609.215	-94.188	-0.092	-0.026
-608.201	800.000	-0.040	0.162
-607.186	-200.000	-0.030	-0.172
-606.171	-167.638	-0.322	0.013
-605.157	800.000	0.026	-0.099
-604.142	-200.000	-0.026	-0.142
-603.128	545.533	0.080	-0.193
-602.113	-173.844	-0.130	0.004
-601.098	-116.956	-0.196	0.036
-600.084	-200.000	-0.012	0.114
-599.069	39.586	-0.236	-0.214
-598.055	-200.000	0.005	-0.102
-597.040	-15.454	0.119	0.077
-596.025	34.245	-0.031	0.028
-595.011	-50.680	0.150	-0.071
-593.996	-82.585	-0.265	0.087
-592.982	107.595	-0.127	0.153
-591.967	-87.430	-0.225	0.069
-590.952	331.717	-0.050	-0.097
-589.938	-191.837	0.117	-0.001
-588.923	800.000	-0.063	0.212
-587.909	84.501	-0.068	-0.076
-586.894	-24.782	0.114	0.068
-585.879	-128.989	0.196	0.028
-584.865	800.000	-0.042	0.135
-583.850	-115.085	0.178	0.034
-582.836	-200.000	0.036	-0.200
-581.821	-93.339	-0.166	-0.047
-580.806	477.895	-0.194	-0.443
-579.792	-200.000	0.006	0.216
-578.777	540.126	-0.023	0.056
-577.763	40.080	-0.162	-0.147
-576.748	671.879	0.113	-0.297
-575.733	696.178	-0.063	0.167
-574.719	215.330	0.032	-0.051
-573.704	216.508	0.118	0.190
-572.690	-75.179	-0.075	-0.027
-571.675	-200.000	-0.007	-0.211
-570.661	64.770	0.180	-0.183
-569.646	-1.852	-0.195	0.139
-568.631	312.098	-0.086	-0.162
-567.617	77.364	-0.100	-0.107
-566.602	-85.009	0.085	0.027
-565.588	-200.000	-0.002	0.190
-564.573	-200.000	0.022	-0.144
-563.558	-123.940	0.271	-0.043
-562.544	-72.094	0.345	0.129
-561.529	525.649	0.176	-0.417
-560.515	-200.000	-0.051	-0.373
-559.500	-123.330	-0.079	0.013
-558.485	-200.000	-0.016	-0.140
-557.471	27.283	-0.170	-0.144
-556.456	-22.011	-0.195	-0.119
-555.442	-138.871	0.261	0.029
-554.427	37.817	-0.167	0.149
-553.412	800.000	-0.101	0.414
-552.398	-200.000	-0.033	-0.221
-551.383	44.215	0.133	0.123
-550.369	-55.739	-0.151	-0.068
-549.354	715.535	-0.058	-0.155
-548.339	-103.691	-0.115	-0.027
-547.325	216.368	0.101	-0.161
-546.310	18.350	0.117	0.094
-545.296	-58.877	-0.163	0.071
-544.281	-200.000	0.026	0.206
-543.266	165.566	-0.054	-0.077
-542.252	187.137	0.301	-0.452
-541.237	-39.919	0.259	-0.136
-540.223	-200.000	0.001	-0.521
-539.208	-112.247	0.214	0.043
-538.193	800.000	0.048	0.174
-537.179	-36.689	-0.340	0.184
-536.164	-69.564	0.149	0.058
-535.150	800.000	-0.061	-0.207
-534.135	-200.000	0.019	0.233
-533.121	-128.228	0.427	-0.061
-532.106	-22.589	-0.179	-0.109
-531.091	159.860	0.083	-0.117
-530.077	69.314	-0.057	0.059
-529.062	-110.431	-0.164	-0.034
-528.048	-42.485	0.175	-0.090
-527.033	-34.199	0.036	0.020
-526.018	-61.255	0.221	-0.094
-525.004	-200.000	-0.021	0.159
-523.989	-40.489	0.211	0.110
-522.975	-200.000	-0.062	0.279
-521.960	9.999	-0.234	0.179
-520.945	196.965	-0.046	0.071
-519.931	43.448	0.119	-0.110
-518.916	-200.000	-0.028	0.227
-517.902	-97.394	-0.310	0.081
-516.887	-133.649	0.212	-0.027
-515.872	23.800	-0.120	0.100
-514.858	-10.786	-0.146	0.097
-513.843	251.670	0.174	0.298
-512.829	740.886	-0.103	-0.277
-511.814	-107.716	0.357	-0.078
-510.799	85.993	-0.214	0.237
-509.785	-98.231	-0.345	-0.089
-508.770	800.000	0.059	0.257
-507.756	11.412	0.080	0.062
-506.741	116.062	0.243	-0.300
-505.726	81.466	-0.067	0.073
-504.712	-140.294	0.279	-0.029
-503.697	800.000	0.079	0.247
-502.683	123.361	-0.269	0.340
-501.668	710.934	0.105	-0.280
-500.653	106.746	0.107	-0.128
-499.639	-112.300	-0.318	0.064
-498.624	86.014	-0.085	0.095
-497.610	-21.251	0.109	-0.067
-496.595	-22.640	0.117	0.071
-495.581	68.514	0.184	0.190
-494.566	-66.828	-0.164	0.065
-493.551	800.000	-0.033	0.106
-492.537	348.632	-0.111	0.219
-491.522	-200.000	0.032	0.415
-490.508	-200.000	-0.006	-0.136
-489.493	126.733	0.046	-0.059
-488.478	-200.000	-0.006	-0.088
-487.464	97.811	-0.225	0.261
-486.449	-177.308	0.073	0.002
-485.435	103.923	0.018	-0.021
-484.420	-200.000	-0.033	-0.163
-483.405	-66.136	-0.174	0.070
-482.391	-200.000	-0.007	-0.127
-481.376	-57.683	-0.146	-0.064
-480.362	660.391	-0.029	-0.074
-479.347	800.000	-0.024	0.070
-478.332	-145.261	0.191	0.017
-477.318	-148.050	0.206	-0.017
-476.303	28.631	-0.094	0.080
-475.289	800.000	-0.034	-0.142
-474.274	-110.288	-0.255	0.053
-473.259	232.391	-0.135	0.224
-472.245	787.996	-0.081	0.225
-471.230	-43.577	-0.167	0.085
-470.216	-66.303	0.168	-0.067
-469.201	2.723	-0.163	-0.119
-468.186	-106.979	0.171	-0.038
-467.172	-95.622	-0.391	-0.105
-466.157	108.041	-0.095	-0.113
-465.143	-118.340	0.259	-0.046
-464.128	-83.484	0.172	-0.055
-463.113	-136.406	0.068	-0.008
-462.099	-131.687	-0.325	0.043
-461.084	-159.515	-0.116	-0.007
-460.070	800.000	-0.032	0.092
-459.055	-106.751	0.129	-0.029
-458.040	-98.143	0.224	-0.058
-457.026	128.013	0.063	-0.081
-456.011	800.000	-0.048	-0.200
-454.997	233.816	0.275	0.455
-453.982	-38.410	-0.228	0.121
-452.968	-200.000	-0.046	0.238
-451.953	-161.202	-0.074	0.004
-450.938	764.285	0.037	-0.101
-449.924	151.695	0.189	0.258
-448.909	20.531	0.194	0.158
-447.895	-85.809	-0.269	-0.084
-446.880	54.327	0.076	-0.074
-445.865	644.213	0.057	-0.147
-444.851	800.000	-0.055	-0.201
-443.836	44.422	0.115	0.106
-442.822	800.000	-0.031	-0.117
-441.807	-41.117	0.097	-0.050
-440.792	-97.366	-0.325	-0.085
-439.778	177.331	0.087	0.127
-438.763	76.859	0.317	0.338
-437.749	687.664	0.123	0.322
-436.734	-200.000	0.013	0.337
-435.719	65.914	0.110	-0.112
-434.705	-30.933	0.055	0.031
-433.690	294.847	-0.103	-0.189
-432.676	-37.944	0.381	-0.203
-431.661	178.644	-0.164	-0.240
-430.646	-130.292	0.348	0.047
-429.632	11.340	0.193	0.148
-428.617	798.493	0.058	0.160
-427.603	800.000	-0.022	-0.076
-426.588	-200.000	-0.006	0.042
-425.573	104.570	-0.288	0.340
-424.559	82.580	0.156	0.170
-423.544	-200.000	0.027	0.275
-422.530	-118.918	-0.075	0.013
-421.515	187.830	-0.184	0.275
-420.500	-111.494	0.293	0.060
-419.486	-86.474	-0.274	-0.084
-418.471	-77.943	-0.065	-0.022
-417.457	800.000	-0.048	-0.156
-416.442	800.000	-0.098	0.340
-415.428	-132.459	-0.322	0.042
-414.413	-8.051	-0.606	0.410
-413.398	-65.730	0.134	-0.054
-412.384	-200.000	0.012	-0.138
-411.369	361.146	0.056	-0.112
-410.355	800.000	0.101	0.339
-409.340	-200.000	0.028	-0.272
-408.325	9.389	0.205	0.155
-407.311	200.206	-0.030	-0.047
-406.296	-54.461	0.102	0.046
-405.282	-122.632	-0.065	-0.011
-404.267	138.924	-0.079	0.103
-403.252	-146.472	0.227	-0.020
-402.238	800.000	-0.111	0.409
-401.223	-134.859	-0.344	-0.042
-400.209	222.004	-0.122	-0.196
-399.194	-200.000	0.073	-0.410
-398.179	-142.428	-0.496	-0.049
-397.165	131.279	0.083	-0.107
-396.150	106.628	0.194	0.231
-395.136	-128.865	-0.162	0.023
-394.121	-146.138	-0.239	0.021
-393.106	131.061	-0.223	-0.287
-392.092	-62.175	0.144	0.060
-391.077	-8.531	-0.060	0.040
-390.063	-119.080	0.139	-0.024
-389.048	-134.700	-0.156	-0.019
-388.033	56.551	0.162	0.158
-387.019	-100.796	-0.313	-0.077
-386.004	-144.279	0.328	0.031
-384.990	54.290	0.124	-0.120
-383.975	117.446	0.240	0.296
-382.960	-200.000	-0.045	-0.282
-381.946	800.000	-0.125	-0.366
-380.931	-84.645	0.290	-0.092
-379.917	152.882	0.121	0.166
-378.902	-37.886	0.210	0.112
-377.888	-175.200	0.172	0.005
-376.873	334.990	-0.085	-0.165
-375.858	166.422	0.113	-0.160
-374.844	269.733	0.077	0.135
-373.829	-200.000	0.003	-0.159
-372.815	526.756	0.069	-0.162
-371.800	-36.749	-0.177	0.095
-370.785	376.649	0.072	-0.148
-369.771	265.629	-0.067	-0.117
-368.756	1.183	0.227	0.163
-367.742	-33.748	0.215	-0.119
-366.727	-69.686	-0.190	0.073
-365.712	491.568	-0.091	-0.208
-364.698	-56.432	0.144	-0.064
-363.683	-126.321	-0.204	0.030
-362.669	800.000	-0.079	-0.286
-361.654	371.714	0.062	-0.125
-360.639	100.104	-0.183	-0.213
-359.625	-86.584	-0.216	0.066
-358.610	-47.425	-0.044	0.022
-357.596	158.331	-0.192	-0.266
-356.581	202.399	0.046	0.071
-355.566	17.353	0.113	-0.090
-354.552	309.945	0.115	-0.216
-353.537	21.334	0.132	-0.108
-352.523	-61.845	-0.110	0.046
-351.508	-40.832	0.139	0.072
-350.493	0.309	0.163	-0.116
-349.479	-20.552	0.012	-0.007
-348.464	800.000	-0.014	-0.042
-347.450	3.263	0.068	-0.049
-346.435	253.167	0.029	0.049
-345.420	-149.008	0.054	0.004
-344.406	28.356	0.195	-0.165
-343.391	-95.324	0.052	0.014
-342.377	800.000	-0.087	-0.378
-341.362	-124.416	0.192	0.030
-340.348	-60.452	0.298	-0.127
-339.333	-169.938	-0.099	-0.004
-338.318	-200.000	0.061	0.298
-337.304	-88.854	-0.145	-0.043
-336.289	-9.054	0.222	0.149
-335.275	178.192	-0.143	0.209
-334.260	1.049	-0.175	0.126
-333.245	101.910	-0.085	0.100
-332.231	428.716	0.015	-0.033
-331.216	-200.000	0.003	0.019
-330.202	18.967	-0.130	-0.104
-329.187	-200.000	0.006	0.159
-328.172	-120.543	0.058	0.010
-327.158	-131.835	-0.326	-0.043
-326.143	257.441	0.103	-0.176
-325.129	-200.000	0.025	-0.135
-324.114	-64.550	0.185	0.075
-323.099	-200.000	-0.097	-0.430
-322.085	-129.103	0.217	-0.030
-321.070	-28.079	-0.242	0.140
-320.056	-200.000	0.020	0.091
-319.041	-200.000	-0.020	0.392
-318.026	-90.481	0.122	-0.035
-317.012	-120.789	0.244	0.041
-315.997	-32.070	-0.154	0.086
-314.983	-200.000	0.043	0.239
-313.968	-30.472	0.166	-0.094
-312.953	36.470	-0.158	-0.139
-311.939	121.361	0.175	0.217
-310.924	800.000	0.030	0.123
-309.910	-200.000	-0.009	-0.344
-308.895	577.511	-0.076	0.186
-307.880	377.400	0.031	-0.063
-306.866	294.907	0.133	0.244
-305.851	74.498	-0.126	-0.132
-304.837	-200.000	0.005	-0.074
-303.822	-33.377	0.265	-0.146
-302.807	359.518	-0.006	0.011
-301.793	221.037	0.042	-0.067
-300.778	120.410	-0.299	0.370
-299.764	341.165	0.114	0.222
-298.749	-47.071	-0.115	0.056
-297.735	692.347	0.070	-0.184
-296.720	-17.741	0.425	0.266
-295.705	-200.000	0.022	0.170
-294.691	-200.000	-0.008	0.146
-293.676	45.584	-0.189	0.174
-292.662	401.768	0.057	-0.119
-291.647	134.539	0.079	0.103
-290.632	-21.472	0.236	-0.144
-289.618	384.582	0.058	0.119
-288.603	318.860	-0.127	0.240
-287.589	-146.955	-0.052	-0.004
-286.574	1.288	0.327	-0.234
-285.559	516.767	0.059	0.138
-284.545	-59.404	-0.227	-0.097
-283.530	19.068	0.104	0.083
-282.516	375.406	-0.021	0.043
-281.501	-14.001	-0.208	0.134
-280.486	-200.000	0.009	0.271
-279.472	-155.927	-0.142	-0.009
-278.457	47.875	0.132	0.123
-277.443	-1.603	0.082	-0.058
-276.428	-65.768	-0.284	-0.113
-275.413	-14.579	-0.264	0.169
-274.399	189.235	0.084	0.125
-273.384	483.930	-0.047	0.107
-272.370	-200.000	0.026	-0.134
-271.355	-99.611	-0.155	-0.039
-270.340	36.103	-0.065	0.057
-269.326	-93.051	0.170	-0.047
-268.311	-59.999	0.169	0.072
-267.297	-113.114	0.166	0.033
-266.282	618.452	-0.046	0.115
-265.267	-103.801	0.231	-0.054
-264.253	-200.000	0.026	-0.288
-263.238	62.721	-0.109	0.108
-262.224	31.343	0.185	0.159
-261.209	-200.000	0.023	-0.144
-260.195	21.932	0.125	-0.102
-259.180	115.242	0.076	-0.092
-258.165	-72.974	-0.053	0.019
-257.151	-30.951	0.067	-0.038
-256.136	62.139	-0.185	-0.184
-255.122	430.389	0.094	-0.203
-254.107	232.892	0.153	-0.251
-253.092	800.000	-0.080	0.253
-252.078	531.108	-0.103	0.243
-251.063	195.068	-0.064	-0.097
-250.049	-200.000	-0.020	-0.221
-249.034	17.463	-0.124	-0.098
-248.019	-22.751	-0.100	-0.060
-247.005	-6.260	-0.296	-0.201
-245.990	116.950	-0.074	0.091
-244.976	-18.306	-0.340	0.212
-243.961	173.442	-0.163	-0.235
-242.946	274.300	-0.109	-0.192
-241.932	-98.330	0.203	-0.052
-240.917	-29.128	0.109	-0.062
-239.903	-27.932	-0.234	0.135
-238.888	800.000	0.084	-0.361
-237.873	-200.000	-0.013	-0.098
-236.859	800.000	0.110	0.432
-235.844	100.730	0.247	-0.286
-234.830	-200.000	0.027	0.245
-233.815	117.861	0.150	0.184
-232.800	8.600	0.157	0.118
-231.786	-116.849	0.112	-0.020
-230.771	313.783	-0.125	0.234
-229.757	73.373	-0.060	0.063
-228.742	0.066	-0.204	-0.144
-227.727	-92.607	-0.160	0.045
-226.713	-135.209	-0.095	-0.011
-225.698	-81.228	0.142	-0.047
-224.684	198.352	0.172	0.262
-223.669	29.583	-0.351	-0.297
-222.655	-60.871	0.104	0.044
-221.640	301.378	0.123	0.226
-220.625	-112.318	0.214	0.043
-219.611	-200.000	-0.041	-0.247
-218.596	29.853	0.420	-0.356
-217.582	185.384	0.127	0.188
-216.567	-200.000	0.021	0.165
-215.552	800.000	0.064	-0.261
-214.538	71.907	-0.202	0.210
-213.523	-200.000	0.003	0.097
-212.509	-33.372	-0.393	0.216
-211.494	-136.872	0.304	-0.035
-210.479	487.516	0.052	-0.118
-209.465	-94.132	0.212	0.058
-208.450	46.646	0.259	0.240
-207.436	-200.000	0.009	0.275
-206.421	-17.183	0.265	-0.166
-205.406	78.325	-0.228	-0.243
-204.392	800.000	0.054	0.184
-203.377	111.167	0.152	0.182
-202.363	-107.061	0.312	0.068
-201.348	254.167	-0.138	-0.235
-200.333	-98.149	-0.203	0.052
-199.319	496.100	-0.049	0.111
-198.304	143.453	-0.201	-0.266
-197.290	29.162	-0.334	-0.282
-196.275	195.697	-0.002	-0.003
-195.260	189.070	-0.155	-0.231
-194.246	-91.653	-0.331	-0.094
-193.231	114.997	-0.139	0.169
-192.217	230.772	-0.088	-0.143
-191.202	-70.424	0.202	-0.076
-190.187	-124.808	0.389	-0.060
-189.173	-200.000	-0.007	0.252
-188.158	-129.552	-0.324	0.045
-187.144	178.972	-0.102	0.148
-186.129	-128.778	-0.197	-0.028
-185.114	530.362	0.150	0.352
-184.100	-200.000	-0.013	0.154
-183.085	-28.601	0.360	0.206
-182.071	-32.985	-0.506	0.279
-181.056	444.473	-0.066	0.145
-180.042	430.435	0.101	0.218
-179.027	405.780	-0.046	-0.096
-178.012	800.000	-0.084	-0.256
-176.998	423.973	0.264	-0.564
-175.983	90.548	-0.161	-0.179
-174.969	-45.636	-0.207	-0.102
-173.954	120.664	0.361	0.446
-172.939	158.036	0.203	0.279
-171.925	-118.805	0.164	-0.029
-170.910	-200.000	0.033	-0.204
-169.896	-72.020	-0.029	-0.011
-168.881	-62.814	-0.189	-0.078
-167.866	-174.146	0.119	0.003
-166.852	541.813	-0.073	0.174
-165.837	-74.710	0.153	0.054
-164.823	36.899	-0.053	-0.046
-163.808	155.990	0.137	0.187
-162.793	-5.629	0.100	-0.068
-161.779	-189.574	0.320	-0.004
-160.764	-19.651	-0.378	-0.232
-159.750	-80.784	0.126	0.042
-158.735	19.664	-0.248	0.198
-157.720	332.904	0.024	-0.047
-156.706	800.000	-0.040	-0.115
-155.691	-155.578	0.150	-0.010
-154.677	-26.154	-0.218	0.127
-153.662	-200.000	-0.014	0.278
-152.647	-190.382	0.080	-0.001
-151.633	526.193	-0.063	0.146
-150.618	614.479	0.085	0.211
-149.604	-5.608	-0.129	-0.088
-148.589	-200.000	0.009	0.105
-147.574	97.443	0.208	0.237
-146.560	-17.009	-0.292	0.183
-145.545	-200.000	0.022	0.346
-144.531	-28.414	0.396	-0.227
-143.516	145.265	-0.031	-0.042
-142.502	122.127	-0.136	-0.168
-141.487	-200.000	-0.050	-0.256
-140.472	-142.019	0.407	0.040
-139.458	-97.191	-0.067	0.017
-138.443	534.552	-0.036	0.085
-137.429	-75.137	0.296	-0.105
-136.414	800.000	0.015	-0.065
-135.399	-79.256	0.370	0.125
-134.385	680.579	0.114	0.294
-133.370	-200.000	-0.014	-0.143
-132.356	800.000	-0.057	-0.174
-131.341	57.172	0.054	-0.052
-130.326	-200.000	0.032	-0.204
-129.312	-200.000	0.004	-0.171
-128.297	-39.425	0.202	0.105
-127.283	800.000	-0.014	0.041
-126.268	-172.626	-0.223	-0.007
-125.253	123.325	-0.188	-0.233
-124.239	184.966	-0.196	0.288
-123.224	134.365	-0.090	-0.115
-122.210	350.639	-0.241	-0.472
-121.195	32.827	0.211	-0.181
-120.180	32.251	0.167	0.143
-119.166	-76.940	0.173	-0.060
-118.151	-200.000	0.036	-0.198
-117.137	153.497	0.104	-0.142
-116.122	-0.540	0.092	0.065
-115.107	152.360	-0.034	-0.046
-114.093	-200.000	0.008	-0.053
-113.078	315.543	0.131	0.244
-112.064	-20.725	0.240	0.146
-111.049	413.123	0.080	-0.168
-110.034	395.274	-0.048	-0.099
-109.020	-53.883	0.160	-0.072
-108.005	230.746	0.032	0.052
-106.991	58.085	0.103	0.100
-105.976	529.050	-0.014	0.032
-104.962	800.000	0.061	0.188
-103.947	-138.584	0.251	-0.027
-102.932	800.000	0.076	0.244
-101.918	513.548	-0.237	0.547
-100.903	-200.000	-0.072	0.567
-99.889	-113.945	0.332	-0.064
-98.874	-127.428	0.100	-0.014
-97.859	127.271	-0.238	-0.300
-96.845	226.353	0.034	0.055
-95.830	-200.000	-0.001	-0.111
-94.816	441.966	-0.154	0.333
-93.801	-200.000	0.001	-0.143
-92.786	-79.290	0.156	0.052
-91.772	490.022	-0.029	0.065
-90.757	800.000	0.017	0.072
-89.743	-53.105	-0.082	0.037
-88.728	219.530	-0.076	-0.121
-87.713	800.000	0.012	-0.045
-86.699	135.689	0.074	0.096
-85.684	-200.000	-0.016	0.258
-84.670	-44.668	-0.104	-0.052
-83.655	381.226	-0.164	-0.334
-82.640	384.990	-0.065	-0.133
-81.626	-200.000	0.008	-0.151
-80.611	103.779	0.257	-0.299
-79.597	-200.000	0.007	0.199
-78.582	551.263	-0.118	-0.281
-77.567	92.821	-0.175	0.196
-76.553	-116.043	-0.114	-0.021
-75.538	-80.273	0.095	0.031
-74.524	-83.662	0.205	-0.065
-73.509	122.858	-0.137	-0.169
-72.494	508.419	-0.034	-0.079
-71.480	800.000	0.048	-0.207
-70.465	-7.495	0.185	-0.124
-69.451	-77.292	-0.185	-0.064
-68.436	-28.113	0.166	-0.095
-67.422	-200.000	-0.006	-0.166
-66.407	-200.000	0.005	-0.287
-65.392	-16.308	-0.129	-0.081
-64.378	380.992	0.141	-0.286
-63.363	42.058	0.221	0.198
-62.349	-200.000	-0.044	0.223
-61.334	7.356	-0.972	-0.718
-60.319	3.838	0.701	0.506
-59.305	800.000	-0.336	-1.222
-58.290	129.468	0.823	1.040
-57.276	-200.000	0.294	1.516
-56.261	-200.000	96.267	568.551
-55.246	539.290	1390.310	3270.822
-54.232	151.650	2588.982	3488.224
-53.217	113.346	2203.225	2643.861
-52.203	46.391	1735.934	1591.702
-51.188	39.069	1544.129	1365.150
-50.173	36.604	1516.784	1324.065
-49.159	55.039	1565.862	1495.551
-48.144	58.833	1584.743	1539.905
-47.130	39.510	1541.109	1365.318
-46.115	36.217	1525.867	1329.119
-45.100	36.105	1522.087	1325.003
-44.086	36.056	1519.898	1322.706
-43.071	35.976	1518.632	1321.000
-42.057	35.948	1517.319	1319.617
-41.042	35.948	1516.033	1318.448
-40.027	35.931	1513.833	1316.363
-39.013	35.916	1512.695	1315.223
-37.998	35.881	1511.344	1313.751
-36.984	35.983	1510.018	1313.246
-35.969	35.996	1508.803	1312.224
-34.954	35.991	1507.388	1310.909
-33.940	36.054	1505.480	1309.626
-32.925	36.045	1504.160	1308.366
-31.911	36.034	1502.900	1307.141
-30.896	36.172	1501.457	1306.772
-29.881	36.163	1500.463	1305.791
-28.867	36.104	1499.025	1304.092
-27.852	36.130	1497.553	1302.933
-26.838	36.165	1495.899	1301.675
-25.823	36.013	1494.929	1299.754
-24.809	36.049	1493.133	1298.385
-23.794	36.085	1491.248	1296.941
-22.779	36.092	1490.151	1295.982
-21.765	36.056	1489.600	1295.208
-20.750	36.097	1488.273	1294.276
-19.736	35.971	1487.465	1292.676
-18.721	36.019	1486.033	1291.702
-17.706	36.055	1484.821	1290.837
-16.692	36.058	1483.811	1289.929
-15.677	36.042	1482.612	1288.729
-14.663	36.081	1481.893	1288.315
-13.648	35.914	1481.095	1286.454
-12.633	35.880	1479.938	1285.170
-11.619	35.909	1479.133	1284.617
-10.604	36.003	1477.993	1284.203
-9.590	36.071	1477.318	1284.016
-8.575	36.042	1476.445	1283.013
-7.560	36.158	1475.634	1283.027
-6.546	36.004	1475.026	1281.423
-5.531	36.075	1473.295	1280.341
-4.517	35.960	1472.595	1278.917
-3.502	35.979	1471.795	1278.299
-2.487	35.953	1470.601	1277.038
-1.473	35.917	1469.718	1275.985
-0.458	35.948	1468.473	1275.058
0.556	34.576	1457.228	1258.638
1.571	29.578	1427.627	1200.569
2.586	23.678	1360.963	1107.723
3.600	20.354	1274.639	1017.917
4.615	18.403	1227.330	969.024
5.629	15.809	1172.486	911.604
6.644	8.514	1088.198	809.193
7.659	2.147	1046.380	746.961
8.673	1.044	1041.022	737.705
9.688	0.915	1038.178	734.996
10.702	0.898	1036.571	733.711
11.717	0.874	1034.901	732.349
12.731	3.045	1036.637	744.027
13.746	10.245	1046.219	785.905
14.761	16.323	1053.773	821.152
15.775	17.674	1054.427	828.158
16.790	17.240	1052.923	824.794
17.804	16.270	1051.052	818.557
18.819	15.298	1049.262	812.386
19.834	14.893	1047.651	809.103
20.848	14.598	1046.807	806.952
21.863	14.268	1046.388	804.967
22.877	14.086	1045.463	803.304
23.892	13.899	1044.392	801.507
24.907	13.739	1043.634	800.084
25.921	13.752	1043.129	799.689
26.936	13.770	1042.350	799.104
27.950	13.847	1041.417	798.690
28.965	13.870	1040.842	798.288
29.980	13.893	1040.049	797.719
30.994	13.987	1039.029	797.317
32.009	14.018	1038.163	796.731
33.023	13.929	1037.685	795.867
34.038	13.984	1036.919	795.475
35.053	14.076	1035.459	794.725
36.067	13.971	1035.268	794.006
37.082	13.926	1034.920	793.453
38.096	13.944	1033.635	792.482
39.111	13.947	1032.904	791.866
40.126	13.942	1032.032	791.103
41.140	13.874	1030.974	789.902
42.155	13.808	1029.953	788.735
43.169	13.780	1029.624	788.278
44.184	13.828	1028.320	787.440
45.199	13.791	1027.041	786.214
46.213	13.861	1025.678	785.434
47.228	13.853	1024.857	784.698
48.242	13.898	1023.912	784.118
49.257	13.843	1022.964	783.064
50.271	13.792	1022.302	782.247
51.286	13.847	1021.113	781.526
52.301	13.898	1020.499	781.225
53.315	13.792	1019.904	780.203
54.330	13.929	1019.086	780.152
55.344	13.894	1017.731	778.883
56.359	13.710	1017.196	777.539
57.374	13.844	1016.320	777.428
58.388	13.875	1014.868	776.394
59.403	13.690	1014.827	775.428
60.417	13.818	1013.853	775.215
61.432	13.816	1013.386	774.780
62.447	13.852	1012.403	774.127
63.461	13.746	1011.524	772.891
64.476	13.731	1010.410	771.902
65.490	13.789	1009.579	771.471
66.505	13.702	1008.853	770.444
67.520	13.814	1007.961	770.215
68.534	13.777	1007.609	769.707
69.549	13.709	1006.955	768.823
70.563	13.848	1005.510	768.292
71.578	13.812	1005.190	767.816
72.593	13.744	1004.473	766.886
73.607	13.667	1003.234	765.515
74.622	13.871	1002.441	765.784
75.636	13.616	1001.712	763.982
76.651	13.744	1000.559	763.627
77.666	13.726	999.938	763.001
78.680	13.694	999.097	762.148
79.695	13.737	998.756	762.015
80.709	13.779	998.086	761.630
81.724	13.715	997.427	760.767
82.739	13.902	996.098	760.543
83.753	13.830	995.519	759.704
84.768	13.778	995.087	759.067
85.782	14.031	993.954	759.293
86.797	14.010	993.313	758.638
87.812	13.917	992.129	757.245
88.826	13.812	991.858	756.494
89.841	13.907	990.675	755.956
90.855	13.940	989.943	755.480
91.870	13.971	988.676	754.588
92.884	13.942	988.576	754.311
93.899	14.022	987.847	754.054
94.914	14.120	987.009	753.789
95.928	14.094	986.355	753.107
96.943	14.119	985.581	752.561
97.957	14.016	984.960	751.556
98.972	13.999	983.822	750.542
99.987	14.064	982.664	749.889
101.001	14.035	982.420	749.502
102.016	13.998	981.482	748.555
103.030	14.076	980.452	748.053
104.045	14.061	979.927	747.520
105.060	13.982	978.675	746.143
106.074	14.044	977.679	745.596
107.089	13.931	977.031	744.529
108.103	13.941	976.125	743.818
109.118	13.864	975.449	742.894
110.133	13.910	974.042	741.960
111.147	13.894	973.344	741.292
112.162	13.839	973.068	740.771
113.176	13.947	971.875	740.279
114.191	13.986	971.150	739.833
115.206	13.960	970.510	739.168
116.220	13.991	969.525	738.490
117.235	13.992	968.522	737.663
118.249	14.013	967.716	737.076
119.264	13.889	967.272	736.126
120.279	13.992	966.110	735.631
121.293	13.922	965.662	734.917
122.308	13.874	965.001	734.136
123.322	14.012	964.204	734.071
124.337	13.903	962.757	732.426
125.352	13.879	961.828	731.550
126.366	13.954	960.651	730.917
127.381	13.888	959.635	729.793
128.395	13.796	958.934	728.789
129.410	13.862	957.862	728.198
130.424	13.944	957.044	727.874
131.439	14.062	955.867	727.431
132.454	13.950	955.416	726.531
133.468	14.123	953.978	726.130
134.483	14.038	953.873	725.615
135.497	14.006	953.414	725.063
136.512	13.965	952.324	723.990
137.527	13.937	951.952	723.523
138.541	13.849	951.287	722.567
139.556	13.945	950.381	722.232
140.570	14.012	949.609	721.876
141.585	14.111	948.355	721.285
142.600	14.060	948.112	720.818
143.614	14.097	947.109	720.150
144.629	14.147	946.621	719.933
145.643	14.124	945.912	719.230
146.658	14.241	944.647	718.708
147.673	14.166	943.927	717.776
148.687	14.123	942.935	716.773
149.702	13.956	941.986	715.268
150.716	14.050	941.131	714.958
151.731	14.053	940.390	714.347
152.746	13.919	940.102	713.491
153.760	14.070	938.834	713.111
154.775	14.104	938.221	712.727
155.789	14.117	937.466	712.148
156.804	14.146	936.770	711.679
157.819	14.211	936.103	711.385
158.833	14.261	935.402	711.007
159.848	14.224	935.002	710.481
160.862	14.251	934.377	710.059
161.877	14.256	933.431	709.299
162.892	14.192	932.553	708.294
163.906	14.141	931.957	707.564
164.921	14.295	930.821	707.294
165.935	14.144	929.984	705.954
166.950	14.131	929.304	705.320
167.964	14.303	928.086	705.061
168.979	14.238	926.943	703.854
169.994	14.244	926.152	703.216
171.008	14.228	925.698	702.741
172.023	14.265	924.797	702.153
173.037	14.367	924.172	702.047
174.052	14.402	923.488	701.611
175.067	14.343	922.482	700.537
176.081	14.388	921.833	700.171
177.096	14.380	921.067	699.493
178.110	14.324	920.112	698.474
179.125	14.314	919.485	697.891
180.140	14.393	918.649	697.526
181.154	14.255	918.298	696.622
182.169	14.352	917.490	696.351
183.183	14.453	916.939	696.295
184.198	14.285	916.369	695.096
185.213	14.482	915.142	694.928
186.227	14.647	914.907	695.376
187.242	14.417	914.508	694.054
188.256	14.494	914.014	693.936
189.271	14.460	913.068	693.016
190.286	14.560	912.455	692.904
191.300	14.487	911.780	692.028
192.315	14.348	910.681	690.558
193.329	14.358	910.455	690.366
194.344	14.367	909.363	689.513
195.359	14.286	909.188	688.985
196.373	14.532	908.490	689.412
197.388	14.571	908.151	689.254
198.402	14.649	907.177	688.778
199.417	14.720	906.728	688.668
200.432	14.629	906.878	688.344
201.446	14.739	906.022	688.087
202.461	14.729	906.002	687.969
203.475	14.674	905.338	687.180
204.490	14.754	904.224	686.601
205.504	14.831	903.292	686.149
206.519	14.752	902.684	685.302
207.534	14.696	901.718	684.279
208.548	14.742	901.576	684.299
209.563	14.632	901.035	683.375
210.577	14.706	900.085	682.901
211.592	14.770	899.503	682.657
212.607	14.751	899.031	682.164
213.621	14.835	898.414	681.976
214.636	14.819	897.830	681.407
215.650	14.897	897.096	681.109
216.665	14.911	896.445	680.612
217.680	14.835	895.882	679.814
218.694	14.956	895.706	680.114
219.709	15.112	894.702	679.924
220.723	15.032	893.814	678.862
221.738	14.944	893.985	678.575
222.753	14.941	892.820	677.619
223.767	15.017	891.981	677.229
224.782	14.998	891.463	676.700
225.796	15.061	890.706	676.321
226.811	15.044	889.891	675.573
227.826	15.055	889.332	675.134
228.840	15.084	888.705	674.714
229.855	15.091	887.804	673.997
230.869	15.122	886.983	673.442
231.884	15.040	886.638	672.790
232.899	15.021	886.086	672.235
233.913	15.073	885.055	671.603
234.928	15.038	884.465	670.955
235.942	14.945	884.041	670.201
236.957	15.001	883.062	669.622
237.972	15.067	882.440	669.357
238.986	15.121	882.034	669.205
240.001	15.095	881.196	668.405
241.015	15.058	880.767	667.873
242.030	15.146	880.011	667.592
243.045	15.214	879.202	667.192
244.059	15.219	878.536	666.647
245.074	15.250	877.991	666.298
246.088	15.406	876.884	666.015
247.103	15.334	876.649	665.492
248.117	15.274	876.034	664.728
249.132	15.319	875.788	664.664
250.147	15.366	875.150	664.304
251.161	15.367	874.245	663.563
252.176	15.397	873.788	663.275
253.190	15.430	873.126	662.847
254.205	15.608	872.505	663.021
255.220	15.555	871.769	662.191
256.234	15.475	871.429	661.561
257.249	15.685	870.375	661.528
258.263	15.588	869.940	660.758
259.278	15.643	869.145	660.311
260.293	15.676	869.098	660.345
261.307	15.749	868.182	659.876
262.322	15.775	867.469	659.378
263.336	15.675	867.000	658.572
264.351	15.690	866.485	658.182
265.366	15.747	865.727	657.773
266.380	15.732	865.145	657.213
267.395	15.719	864.448	656.574
268.409	15.825	864.038	656.619
269.424	15.693	863.185	655.396
270.439	15.822	862.526	655.341
271.453	15.770	861.623	654.395
272.468	15.826	860.864	653.978
273.482	15.886	859.858	653.388
274.497	15.856	859.679	653.080
275.512	15.813	859.015	652.352
276.526	15.823	858.603	652.019
277.541	15.868	857.737	651.478
278.555	15.725	857.144	650.418
279.570	15.880	856.898	650.773
280.585	15.858	856.297	650.173
281.599	15.983	855.501	649.994
282.614	15.975	854.685	649.286
283.628	15.977	854.527	649.112
284.643	16.041	853.719	648.690
285.657	15.953	853.558	648.171
286.672	16.012	852.931	647.865
287.687	16.158	852.063	647.709
288.701	16.019	851.869	646.970
289.716	16.119	850.875	646.540
290.730	16.045	850.891	646.213
291.745	16.097	850.060	645.723
292.760	16.090	849.085	644.900
293.774	16.139	848.387	644.498
294.789	16.261	848.388	644.908
295.803	16.347	847.154	644.241
296.818	16.130	847.254	643.434
297.833	16.258	845.971	642.888
298.847	16.192	845.313	642.081
299.862	16.157	844.871	641.557
300.876	16.200	844.431	641.328
301.891	16.273	843.424	640.783
302.906	16.286	842.780	640.286
303.920	16.301	842.261	639.894
304.935	16.480	841.660	640.059
305.949	16.477	841.237	639.667
306.964	16.404	840.329	638.645
307.979	16.458	839.748	638.350
308.993	16.356	839.533	637.744
310.008	16.357	839.432	637.614
311.022	16.530	838.670	637.633
312.037	16.493	837.922	636.869
313.052	16.471	837.511	636.418
314.066	16.358	836.830	635.419
315.081	16.312	836.066	634.609
316.095	16.487	835.459	634.750
317.110	16.423	834.919	634.045
318.125	16.439	834.715	633.893
319.139	16.390	834.276	633.319
320.154	16.438	833.807	633.087
321.168	16.503	833.146	632.772
322.183	16.481	832.543	632.176
323.197	16.521	831.867	631.754
324.212	16.452	831.486	631.154
325.227	16.509	830.984	630.928
326.241	16.519	830.370	630.446
327.256	16.540	830.109	630.269
328.270	16.552	829.390	629.710
329.285	16.558	828.794	629.227
330.300	16.545	828.103	628.598
331.314	16.577	827.629	628.300
332.329	16.528	826.972	627.564
333.343	16.671	825.947	627.261
334.358	16.691	825.599	627.013
335.373	16.818	824.947	626.935
336.387	16.796	824.917	626.773
337.402	16.640	824.535	625.854
338.416	16.672	823.826	625.376
339.431	16.756	823.029	625.026
340.446	16.832	822.097	624.544
341.460	16.837	821.900	624.358
342.475	16.888	821.245	623.990
343.489	16.973	820.576	623.741
344.504	16.999	819.905	623.271
345.519	17.104	819.336	623.169
346.533	16.986	819.338	622.681
347.548	17.155	818.631	622.710
348.562	17.025	818.218	621.863
349.577	17.027	817.706	621.428
350.592	16.859	817.591	620.668
351.606	16.981	816.538	620.260
352.621	16.928	816.284	619.820
353.635	16.952	816.053	619.678
354.650	17.045	815.382	619.452
355.665	17.050	815.310	619.361
356.679	17.040	814.843	618.913
357.694	17.135	813.938	618.520
358.708	17.048	813.281	617.649
359.723	17.039	813.003	617.350
360.738	17.073	812.417	616.975
361.752	17.111	812.363	617.017
362.767	17.186	811.813	616.814
363.781	17.109	811.322	616.108
364.796	17.283	810.406	615.988
365.810	17.239	810.057	615.512
366.825	17.204	809.691	615.050
367.840	17.252	809.543	615.056
368.854	17.338	808.967	614.877
369.869	17.261	808.685	614.331
370.883	17.409	807.758	614.106
371.898	17.393	807.301	613.647
372.913	17.371	807.040	613.312
373.927	17.386	806.404	612.828
374.942	17.486	805.462	612.421
375.956	17.442	805.053	611.897
376.971	17.583	804.497	611.926
377.986	17.452	804.393	611.321
379.000	17.514	803.768	611.018
380.015	17.523	803.362	610.688
381.029	17.450	802.536	609.741
382.044	17.652	801.554	609.664
383.059	17.708	801.091	609.459
384.073	17.605	801.059	609.012
385.088	17.556	800.341	608.239
386.102	17.568	799.922	607.909
387.117	17.592	799.351	607.507
388.132	17.562	798.978	607.063
389.146	17.594	798.398	606.680
390.161	17.779	798.250	607.174
391.175	17.758	797.815	606.715
392.190	17.689	797.353	606.065
393.205	17.688	797.226	605.912
394.219	17.795	796.413	605.620
395.234	17.624	795.648	604.377
396.248	17.623	795.457	604.177
397.263	17.564	795.142	603.672
398.278	17.610	794.535	603.321
399.292	17.690	794.077	603.206
400.307	17.659	793.727	602.776
401.321	17.687	793.248	602.456
402.336	17.826	792.653	602.445
403.350	17.803	792.325	602.060
404.365	17.929	791.784	602.039
405.380	17.781	791.496	601.245
406.394	17.866	791.367	601.393
407.409	17.875	790.700	600.865
408.423	17.931	790.097	600.551
409.438	18.005	789.317	600.163
410.453	18.026	788.853	599.833
411.467	17.977	789.006	599.723
412.482	17.939	788.534	599.180
413.496	18.084	787.680	598.985
414.511	18.081	787.166	598.530
415.526	18.036	787.383	598.484
416.540	18.085	786.965	598.287
417.555	18.024	786.378	597.574
418.569	18.094	785.668	597.226
419.584	18.263	785.036	597.282
420.599	18.303	784.722	597.130
421.613	104.987	1281.168	1440.203
422.628	89.835	1353.515	1440.301
