DTS Sentinel unit serial number:	SN413079Multiplexer serial number:	ORYXHardware model number:	OX4-SRSoftware version number:	ORYX F/W v4.00 Oryx Data Collector v3.7.2.0data status	okinstallation	princeton_trtdifferential loss correction	single-endedforward channel	channel 3reverse channel	N/Adate	2019/09/13time	14:48:35forward acquisition time	60.00reverse acquisition time	0.00gamma	496.2192k internal	0.2299k external	0.2299temperature offset calibration	1.0143default loss term (dB/km)	0.3790temperature slope calibration	1.0000multiplexer offset coefficient	1.0000multiplexer slope coefficient	1.0000fibre end	0.00T internal ref (°C)	35.56T ext. ref 1 (°C)	4.70T ext. ref 2 (°C)	32.58length (m)	temperature (°C)	Stokes	anti-Stokes-747.200	-87.590	0.513	-0.158
-746.185	-200.000	-0.002	0.306
-745.171	-65.294	0.181	-0.075
-744.156	138.753	-0.164	-0.220
-743.142	-200.000	0.032	0.234
-742.127	-126.045	-0.424	0.065
-741.112	-200.000	0.011	0.345
-740.098	353.486	0.078	-0.158
-739.083	30.481	0.056	-0.049
-738.069	-200.000	0.097	0.648
-737.054	-200.000	0.025	0.149
-736.039	-66.263	-0.430	-0.175
-735.025	-140.899	0.074	0.008
-734.010	-128.810	0.078	-0.011
-732.996	800.000	-0.019	-0.053
-731.981	-72.394	-0.086	0.032
-730.966	-130.687	0.269	0.037
-729.952	29.918	-0.173	-0.150
-728.937	358.847	-0.132	0.268
-727.923	-188.497	0.301	-0.004
-726.908	-49.300	-0.259	0.126
-725.894	13.644	-0.221	-0.175
-724.879	-18.944	0.036	-0.023
-723.864	-103.852	-0.244	-0.058
-722.850	-200.000	-0.018	-0.099
-721.835	-13.621	-0.190	0.126
-720.821	49.166	-0.257	-0.246
-719.806	316.978	-0.094	-0.182
-718.791	-200.000	-0.003	-0.086
-717.777	243.897	-0.192	-0.329
-716.762	-149.527	0.115	-0.009
-715.748	-89.712	-0.225	0.067
-714.733	49.039	0.300	0.288
-713.718	-120.347	0.244	0.042
-712.704	800.000	-0.028	-0.087
-711.689	216.148	-0.262	0.424
-710.675	-134.255	0.297	0.037
-709.660	-61.140	0.117	-0.050
-708.645	47.305	-0.281	-0.267
-707.631	-65.561	-0.032	0.013
-706.616	115.933	-0.105	-0.131
-705.602	800.000	-0.012	-0.051
-704.587	81.975	0.046	-0.051
-703.572	-184.652	-0.074	0.001
-702.558	10.283	0.102	0.079
-701.543	42.301	0.222	-0.206
-700.529	407.183	-0.059	-0.127
-699.514	-200.000	-0.003	-0.082
-698.499	5.905	-0.361	0.273
-697.485	560.150	0.179	0.441
-696.470	-106.733	0.316	-0.072
-695.456	24.462	0.057	-0.048
-694.441	800.000	-0.080	0.280
-693.426	-200.000	-0.019	-0.218
-692.412	-3.124	-0.127	-0.090
-691.397	11.309	-0.256	0.199
-690.383	197.114	-0.348	-0.540
-689.368	-200.000	0.023	0.103
-688.354	-200.000	0.013	0.111
-687.339	-37.283	0.199	-0.108
-686.324	79.364	-0.203	-0.221
-685.310	295.204	0.096	-0.179
-684.295	278.498	0.084	-0.152
-683.281	2.111	-0.166	-0.122
-682.266	35.482	-0.146	-0.130
-681.251	6.881	0.065	0.050
-680.237	800.000	0.063	0.264
-679.222	-200.000	0.007	0.199
-678.208	10.580	-0.168	-0.130
-677.193	-200.000	-0.013	-0.196
-676.178	-200.000	-0.020	-0.152
-675.164	800.000	-0.078	-0.304
-674.149	13.814	0.363	0.287
-673.135	-44.554	-0.222	0.113
-672.120	179.685	-0.091	0.136
-671.105	50.752	-0.037	0.035
-670.091	-128.432	0.161	0.023
-669.076	-122.941	-0.276	-0.045
-668.062	-89.378	-0.239	0.072
-667.047	-124.150	0.314	-0.050
-666.032	-135.626	-0.112	-0.014
-665.018	533.399	-0.074	0.179
-664.003	-27.020	0.046	-0.027
-662.989	-54.665	-0.092	-0.042
-661.974	800.000	-0.078	-0.335
-660.959	-200.000	0.036	0.164
-659.945	-52.265	-0.243	0.115
-658.930	800.000	-0.019	0.057
-657.916	87.451	-0.219	0.247
-656.901	-46.139	0.060	0.030
-655.886	61.959	-0.071	-0.072
-654.872	309.389	-0.149	-0.284
-653.857	-140.053	0.148	0.016
-652.843	-72.030	-0.262	-0.099
-651.828	-145.251	-0.192	-0.018
-650.814	38.396	-0.174	0.157
-649.799	-200.000	0.013	-0.062
-648.784	-64.552	0.308	-0.127
-647.770	562.007	-0.005	-0.013
-646.755	59.026	0.160	-0.160
-645.741	800.000	0.024	0.091
-644.726	18.342	-0.096	0.078
-643.711	215.466	0.130	0.209
-642.697	122.977	0.168	-0.214
-641.682	645.566	0.030	-0.079
-640.668	-200.000	-0.019	-0.265
-639.653	-200.000	-0.061	-0.354
-638.638	-166.092	-0.143	-0.006
-637.624	163.427	0.105	0.150
-636.609	-200.000	-0.012	-0.069
-635.595	78.450	-0.103	-0.112
-634.580	116.343	0.171	-0.213
-633.565	-93.763	-0.381	0.107
-632.551	-94.827	0.315	-0.087
-631.536	108.338	0.178	-0.216
-630.522	52.768	-0.136	-0.132
-629.507	314.939	0.044	0.085
-628.492	-200.000	0.005	-0.083
-627.478	12.265	0.126	-0.098
-626.463	-200.000	0.002	-0.484
-625.449	40.028	-0.131	0.120
-624.434	-84.703	-0.283	-0.091
-623.419	306.389	0.089	0.167
-622.405	-125.299	0.278	0.043
-621.390	-11.772	-0.143	0.095
-620.376	-68.337	-0.303	0.120
-619.361	-200.000	0.028	-0.150
-618.346	-132.128	0.199	-0.026
-617.332	-200.000	0.044	-0.279
-616.317	281.776	0.074	-0.134
-615.303	-124.499	0.052	-0.008
-614.288	800.000	-0.011	0.039
-613.273	-200.000	-0.035	0.320
-612.259	31.330	-0.191	-0.167
-611.244	800.000	-0.041	0.124
-610.230	800.000	-0.059	-0.191
-609.215	-62.222	0.036	0.015
-608.201	80.159	0.094	-0.102
-607.186	-15.325	0.265	-0.172
-606.171	-200.000	-0.026	-0.148
-605.157	-23.665	0.258	-0.157
-604.142	-200.000	-0.012	0.217
-603.128	-97.570	0.400	-0.105
-602.113	122.870	0.179	0.227
-601.098	114.014	0.150	0.185
-600.084	800.000	-0.028	-0.096
-599.069	198.017	0.076	0.118
-598.055	-200.000	0.012	0.255
-597.040	800.000	-0.061	0.183
-596.025	25.597	0.040	-0.034
-595.011	-33.549	-0.419	0.235
-593.996	-200.000	-0.006	0.172
-592.982	161.269	-0.028	-0.040
-591.967	-200.000	-0.019	-0.105
-590.952	-44.982	0.233	-0.118
-589.938	-200.000	-0.049	0.300
-588.923	-136.800	-0.023	-0.003
-587.909	800.000	0.041	-0.127
-586.894	282.829	0.058	-0.106
-585.879	-119.823	-0.296	0.052
-584.865	-20.881	-0.109	0.068
-583.850	-117.412	-0.221	0.041
-582.836	-134.006	-0.113	0.014
-581.821	292.161	-0.001	-0.001
-580.806	-136.607	0.069	0.008
-579.792	136.523	0.134	-0.177
-578.777	800.000	-0.025	0.100
-577.763	-200.000	0.003	-0.152
-576.748	800.000	-0.030	-0.097
-575.733	114.103	-0.058	-0.071
-574.719	-18.132	-0.106	-0.067
-573.704	62.463	-0.082	0.084
-572.690	-200.000	-0.052	0.333
-571.675	203.326	-0.125	0.196
-570.661	38.468	-0.081	0.073
-569.646	800.000	-0.102	-0.291
-568.631	18.794	-0.086	-0.070
-567.617	616.149	-0.115	0.291
-566.602	-108.561	0.183	0.040
-565.588	-90.659	0.091	-0.027
-564.573	-124.231	0.176	0.028
-563.558	-41.812	-0.023	0.012
-562.544	-153.032	0.126	0.009
-561.529	-46.128	-0.186	-0.093
-560.515	-144.534	-0.378	0.035
-559.500	-70.649	-0.209	0.080
-558.485	-200.000	-0.002	-0.422
-557.471	-78.787	-0.391	0.135
-556.456	272.569	-0.090	0.162
-555.442	-150.617	-0.223	0.017
-554.427	101.649	-0.371	-0.438
-553.412	-65.821	0.064	-0.026
-552.398	-42.268	-0.072	-0.037
-551.383	-200.000	0.052	0.423
-550.369	308.805	-0.162	0.306
-549.354	10.742	-0.113	0.087
-548.339	-45.659	-0.402	0.201
-547.325	-200.000	0.033	0.183
-546.310	-33.659	-0.165	0.092
-545.296	-200.000	-0.042	0.373
-544.281	28.394	0.347	0.297
-543.266	-10.682	0.347	0.233
-542.252	-109.145	0.173	-0.037
-541.237	219.583	0.071	-0.115
-540.223	30.799	-0.105	-0.091
-539.208	800.000	0.083	-0.305
-538.193	77.761	0.092	-0.099
-537.179	84.302	0.088	-0.097
-536.164	-89.189	-0.222	-0.066
-535.150	-80.435	0.363	-0.123
-534.135	214.085	0.046	0.074
-533.121	-78.228	-0.434	0.151
-532.106	-106.620	0.387	0.087
-531.091	662.031	0.063	-0.165
-530.077	364.832	0.074	0.151
-529.062	-32.458	0.353	0.199
-528.048	-141.056	-0.035	-0.004
-527.033	-26.884	0.058	-0.034
-526.018	-200.000	-0.065	0.419
-525.004	-110.742	-0.420	-0.088
-523.989	-130.912	-0.119	-0.016
-522.975	-200.000	0.048	-0.407
-521.960	160.581	-0.199	-0.280
-520.945	-200.000	-0.031	0.206
-519.931	3.383	-0.081	-0.060
-518.916	-173.928	-0.225	0.007
-517.902	-27.258	0.158	0.093
-516.887	-26.724	0.125	0.074
-515.872	328.051	-0.294	-0.571
-514.858	726.162	0.164	0.441
-513.843	-29.822	0.184	0.106
-512.829	68.511	0.233	-0.242
-511.814	12.894	0.123	0.096
-510.799	-35.031	0.150	0.082
-509.785	-19.580	0.250	0.156
-508.770	260.663	-0.081	0.142
-507.756	-84.600	0.101	-0.032
-506.741	183.227	0.192	0.286
-505.726	667.182	0.129	0.338
-504.712	-172.086	-0.449	-0.015
-503.697	-200.000	0.011	0.305
-502.683	-21.387	-0.212	-0.131
-501.668	-200.000	-0.022	-0.358
-500.653	-116.676	0.025	-0.005
-499.639	244.566	0.052	0.089
-498.624	-200.000	-0.017	-0.114
-497.610	-81.333	0.177	0.059
-496.595	20.034	-0.219	-0.179
-495.581	528.661	0.028	0.068
-494.566	-200.000	0.019	0.177
-493.551	-86.266	-0.408	-0.127
-492.537	5.245	-0.221	0.165
-491.522	-187.168	-0.328	0.005
-490.508	41.507	-0.119	-0.109
-489.493	207.983	0.079	0.124
-488.478	-86.593	0.163	0.051
-487.464	-110.151	0.285	-0.060
-486.449	-175.421	0.388	0.011
-485.435	-200.000	-0.006	-0.129
-484.420	-31.736	0.243	-0.138
-483.405	-32.253	0.059	0.033
-482.391	-6.338	-0.176	-0.121
-481.376	-137.029	-0.360	-0.042
-480.362	765.915	-0.169	0.464
-479.347	-42.858	0.074	0.038
-478.332	290.189	-0.158	-0.289
-477.318	-4.181	0.164	0.115
-476.303	-195.598	0.145	0.001
-475.289	13.055	-0.132	-0.103
-474.274	-200.000	-0.013	-0.371
-473.259	-200.000	0.018	0.089
-472.245	-98.673	0.324	0.084
-471.230	-200.000	0.000	-0.223
-470.216	444.425	0.130	0.288
-469.201	-88.346	0.208	-0.063
-468.186	-102.778	-0.063	0.015
-467.172	-141.636	-0.266	-0.027
-466.157	-26.740	0.337	0.199
-465.143	-40.772	-0.154	0.080
-464.128	800.000	0.052	-0.177
-463.113	142.377	0.174	0.232
-462.099	-200.000	-0.008	-0.110
-461.084	-89.749	0.127	0.038
-460.070	-50.026	0.207	0.099
-459.055	-31.838	0.147	0.083
-458.040	-34.007	-0.137	0.076
-457.026	-200.000	-0.095	-0.497
-456.011	185.882	-0.045	-0.067
-454.997	-200.000	-0.009	0.271
-453.982	113.488	0.080	0.098
-452.968	-200.000	-0.361	-0.001
-451.953	31.119	0.031	-0.027
-450.938	-123.073	-0.051	0.008
-449.924	800.000	-0.039	0.148
-448.909	24.912	0.078	-0.065
-447.895	800.000	-0.125	-0.443
-446.880	-200.000	0.030	-0.406
-445.865	-68.130	0.396	-0.156
-444.851	-171.299	-0.168	-0.006
-443.836	18.430	0.346	0.279
-442.822	-107.359	0.315	0.070
-441.807	82.917	0.112	-0.123
-440.792	-98.175	0.233	-0.060
-439.778	265.300	-0.054	-0.094
-438.763	-173.708	0.160	-0.005
-437.749	-72.663	0.213	0.079
-436.734	125.096	-0.079	0.101
-435.719	-31.237	0.184	0.104
-434.705	-19.972	-0.314	0.196
-433.690	43.163	0.136	-0.125
-432.676	209.403	0.018	-0.028
-431.661	729.852	-0.035	-0.094
-430.646	22.155	-0.174	0.143
-429.632	-200.000	0.012	-0.119
-428.617	-200.000	0.004	0.023
-427.603	-92.727	0.097	-0.027
-426.588	-200.000	0.025	0.219
-425.573	-21.942	-0.183	-0.112
-424.559	-75.007	-0.049	-0.018
-423.544	-81.688	-0.146	-0.048
-422.530	91.346	0.167	-0.189
-421.515	-42.505	-0.105	0.054
-420.500	-65.066	-0.205	-0.083
-419.486	-53.155	-0.205	0.095
-418.471	-7.872	0.134	-0.091
-417.457	-96.585	-0.285	0.076
-416.442	-27.883	-0.207	-0.121
-415.428	-64.177	-0.115	0.047
-414.413	-200.000	0.020	0.130
-413.398	42.474	-0.216	0.198
-412.384	182.495	0.082	-0.122
-411.369	105.018	0.201	0.239
-410.355	-200.000	-0.013	0.304
-409.340	18.366	-0.108	-0.087
-408.325	-35.925	0.205	0.112
-407.311	800.000	0.059	0.242
-406.296	380.767	0.039	0.081
-405.282	314.608	-0.190	0.360
-404.267	252.621	0.060	-0.103
-403.252	-139.510	0.308	-0.033
-402.238	-113.714	-0.497	-0.097
-401.223	-135.421	0.198	-0.024
-400.209	319.900	0.159	0.303
-399.194	78.103	-0.151	-0.163
-398.179	-11.620	-0.063	-0.042
-397.165	-12.104	0.210	0.139
-396.150	-200.000	0.044	-0.197
-395.136	45.749	0.080	0.075
-394.121	93.278	0.159	-0.181
-393.106	1.388	0.375	-0.271
-392.092	-129.412	-0.186	-0.026
-391.077	800.000	0.034	0.102
-390.063	-63.258	-0.339	-0.141
-389.048	450.740	-0.145	-0.323
-388.033	54.956	-0.045	-0.044
-387.019	190.613	-0.159	0.241
-386.004	-102.790	-0.121	-0.029
-384.990	-151.238	-0.254	-0.019
-383.975	-31.469	0.108	-0.061
-382.960	-135.056	0.121	-0.015
-381.946	-34.805	0.057	-0.031
-380.931	84.309	0.209	-0.230
-379.917	260.502	0.112	0.196
-378.902	-66.819	0.162	0.065
-377.888	-176.623	0.400	0.010
-376.873	39.626	0.198	-0.179
-375.858	18.820	-0.239	-0.193
-374.844	-42.895	-0.402	-0.206
-373.829	-196.536	-0.187	0.001
-372.815	800.000	-0.080	-0.309
-371.800	-200.000	0.062	0.313
-370.785	-105.583	-0.172	-0.039
-369.771	-200.000	-0.040	0.269
-368.756	-50.413	-0.338	0.160
-367.742	-91.501	-0.392	0.112
-366.727	-90.037	-0.327	-0.096
-365.712	24.776	-0.166	-0.138
-364.698	-200.000	0.021	0.258
-363.683	-76.743	0.371	-0.131
-362.669	-74.298	0.274	0.100
-361.654	-194.762	0.254	-0.002
-360.639	129.796	-0.053	-0.068
-359.625	800.000	-0.044	0.151
-358.610	800.000	0.055	0.174
-357.596	-92.541	-0.129	0.036
-356.581	291.913	-0.065	-0.119
-355.566	235.198	0.039	-0.064
-354.552	199.000	-0.088	-0.136
-353.537	39.768	0.093	-0.084
-352.523	-28.950	0.120	0.069
-351.508	-16.871	-0.108	-0.068
-350.493	527.742	0.130	-0.307
-349.479	-200.000	-0.044	0.244
-348.464	-163.491	0.189	-0.009
-347.450	-154.226	-0.239	-0.016
-346.435	-75.367	0.209	0.075
-345.420	29.105	0.199	-0.169
-344.406	800.000	-0.024	0.096
-343.391	-167.232	-0.462	0.019
-342.377	-42.866	0.091	0.047
-341.362	117.816	-0.169	-0.209
-340.348	265.524	0.086	0.151
-339.333	-189.064	0.192	0.002
-338.318	-169.363	0.101	0.004
-337.304	-43.701	-0.288	-0.146
-336.289	12.071	0.177	-0.137
-335.275	-30.891	0.133	-0.075
-334.260	-70.132	0.170	0.065
-333.245	546.182	-0.207	0.497
-332.231	94.868	-0.134	0.153
-331.216	-200.000	-0.014	0.381
-330.202	-132.711	-0.506	0.065
-329.187	800.000	-0.017	-0.064
-328.172	-200.000	0.000	0.263
-327.158	-102.701	0.269	-0.064
-326.143	109.099	0.039	0.047
-325.129	-108.935	-0.153	0.033
-324.114	48.030	-0.235	0.221
-323.099	-83.383	-0.087	0.028
-322.085	8.332	0.054	0.040
-321.070	-200.000	0.049	-0.279
-320.056	382.919	0.131	0.270
-319.041	800.000	-0.114	0.465
-318.026	22.044	-0.029	0.023
-317.012	13.497	-0.114	-0.088
-315.997	-89.470	0.193	0.057
-314.983	-154.085	-0.060	-0.004
-313.968	-99.439	-0.195	-0.049
-312.953	800.000	-0.065	0.271
-311.939	-72.245	0.338	0.126
-310.924	24.132	0.202	0.168
-309.910	-200.000	0.015	-0.144
-308.895	93.439	0.126	-0.143
-307.880	-26.769	-0.046	-0.027
-306.866	-140.072	-0.256	0.027
-305.851	10.990	0.112	-0.086
-304.837	272.470	0.074	0.131
-303.822	1.604	-0.147	0.106
-302.807	313.911	-0.222	-0.418
-301.793	-5.795	-0.101	0.069
-300.778	16.479	0.132	-0.105
-299.764	-200.000	-0.035	0.248
-298.749	288.744	0.120	0.219
-297.735	-200.000	-0.016	-0.135
-296.720	-27.671	0.108	0.063
-295.705	-200.000	0.010	-0.046
-294.691	-200.000	-0.054	-0.293
-293.676	-200.000	0.040	0.201
-292.662	-57.235	0.353	-0.156
-291.647	208.446	0.119	-0.186
-290.632	73.671	0.154	-0.162
-289.618	-96.632	0.094	0.025
-288.603	196.013	0.161	0.246
-287.589	-7.808	0.102	0.069
-286.574	800.000	-0.090	-0.294
-285.559	280.247	-0.195	-0.350
-284.545	-2.038	0.154	-0.109
-283.530	172.506	-0.090	0.130
-282.516	-101.537	-0.227	0.055
-281.501	189.256	0.154	0.232
-280.486	-200.000	-0.008	0.121
-279.472	381.842	-0.132	0.271
-278.457	-200.000	0.042	-0.338
-277.443	-166.831	0.237	-0.010
-276.428	250.862	0.102	-0.174
-275.413	-114.829	-0.314	-0.060
-274.399	-200.000	0.039	-0.531
-273.384	66.186	0.125	0.127
-272.370	13.482	-0.149	0.116
-271.355	-25.045	0.264	0.157
-270.340	570.123	-0.091	0.222
-269.326	379.314	0.146	0.299
-268.311	-53.948	-0.081	0.037
-267.297	-42.872	0.143	-0.073
-266.282	52.166	-0.260	-0.248
-265.267	-115.746	-0.535	-0.100
-264.253	-200.000	-0.013	0.182
-263.238	138.782	0.079	0.104
-262.224	-116.515	0.183	-0.034
-261.209	49.222	-0.205	0.193
-260.195	-200.000	-0.047	0.480
-259.180	194.764	-0.065	-0.099
-258.165	800.000	0.088	-0.261
-257.151	800.000	0.070	-0.235
-256.136	-200.000	-0.001	0.074
-255.122	-135.681	0.056	0.007
-254.107	421.117	0.009	0.018
-253.092	556.790	-0.098	-0.235
-252.078	212.259	-0.198	0.312
-251.063	-141.784	-0.114	0.011
-250.049	9.734	0.203	0.154
-249.034	800.000	-0.028	-0.083
-248.019	191.980	0.147	-0.222
-247.005	101.984	0.220	-0.257
-245.990	-124.783	0.376	-0.058
-244.976	117.629	0.057	0.070
-243.961	-200.000	0.032	0.278
-242.946	-44.014	0.259	-0.130
-241.932	-72.794	-0.057	-0.021
-240.917	604.747	-0.071	-0.178
-239.903	-57.265	-0.250	0.110
-238.888	17.770	0.105	-0.083
-237.873	-32.535	-0.160	0.089
-236.859	70.069	0.180	0.185
-235.844	-44.887	0.258	-0.129
-234.830	-200.000	0.013	0.096
-233.815	31.412	0.105	-0.090
-232.800	-200.000	-0.020	0.158
-231.786	800.000	0.061	-0.194
-230.771	-200.000	-0.003	-0.262
-229.757	-200.000	0.023	0.145
-228.742	-200.000	-0.035	-0.282
-227.727	-195.555	0.437	0.003
-226.713	40.980	0.263	0.238
-225.698	-145.578	-0.309	0.028
-224.684	372.834	-0.068	0.138
-223.669	337.467	0.054	0.105
-222.655	205.979	-0.150	0.233
-221.640	169.181	-0.088	-0.126
-220.625	-101.782	-0.286	-0.069
-219.611	-132.517	-0.221	0.028
-218.596	-76.275	-0.116	0.041
-217.582	127.096	-0.133	-0.169
-216.567	344.126	0.136	0.267
-215.552	-200.000	-0.001	-0.119
-214.538	-106.821	-0.039	-0.009
-213.523	-0.287	0.311	0.221
-212.509	-200.000	-0.028	-0.154
-211.494	-200.000	-0.001	-0.206
-210.479	345.723	-0.158	0.309
-209.465	159.012	0.063	0.087
-208.450	-39.717	-0.007	0.004
-207.436	46.617	0.040	0.037
-206.421	-38.895	-0.456	-0.240
-205.406	18.287	0.126	-0.100
-204.392	-165.383	-0.260	-0.011
-203.377	285.953	0.081	-0.147
-202.363	-200.000	0.043	-0.318
-201.348	116.878	0.106	-0.130
-200.333	800.000	-0.043	-0.171
-199.319	242.155	0.144	0.241
-198.304	-90.874	-0.076	0.022
-197.290	-44.804	-0.196	0.098
-196.275	-161.275	-0.206	0.011
-195.260	800.000	0.037	0.160
-194.246	-200.000	-0.003	0.213
-193.231	-32.265	0.256	0.143
-192.217	-200.000	-0.003	0.244
-191.202	563.215	-0.039	0.095
-190.187	-41.804	0.090	-0.046
-189.173	296.016	0.065	-0.119
-188.158	-143.847	-0.189	0.018
-187.144	28.116	-0.135	-0.114
-186.129	-51.570	-0.381	-0.177
-185.114	-43.173	0.326	-0.165
-184.100	-200.000	-0.018	-0.203
-183.085	4.883	0.192	0.141
-182.071	3.525	0.149	0.108
-181.056	-138.260	-0.101	-0.011
-180.042	-111.975	0.359	0.072
-179.027	-200.000	-0.005	-0.062
-178.012	444.624	-0.071	-0.156
-176.998	-71.366	-0.286	0.107
-175.983	127.216	-0.156	-0.197
-174.969	800.000	0.039	-0.128
-173.954	97.202	0.274	0.314
-172.939	-200.000	-0.066	-0.299
-171.925	-200.000	0.046	-0.307
-170.910	-200.000	-0.048	-0.286
-169.896	371.714	0.095	-0.193
-168.881	-200.000	-0.047	-0.251
-167.866	-200.000	0.016	-0.110
-166.852	-200.000	-0.001	0.211
-165.837	-200.000	-0.045	-0.245
-164.823	83.953	-0.116	-0.126
-163.808	-146.476	0.261	0.023
-162.793	800.000	-0.033	-0.133
-161.779	-8.740	-0.162	-0.108
-160.764	63.934	-0.032	0.032
-159.750	800.000	-0.073	0.276
-158.735	-90.122	0.179	0.052
-157.720	288.614	0.050	0.090
-156.706	310.325	0.052	-0.097
-155.691	656.236	0.056	-0.144
-154.677	-68.093	0.259	-0.101
-153.662	-0.260	-0.140	-0.099
-152.647	-30.807	-0.044	0.025
-151.633	800.000	-0.049	0.143
-150.618	-8.597	0.221	0.148
-149.604	-5.447	0.128	-0.087
-148.589	-105.224	-0.269	-0.061
-147.574	-123.844	0.334	0.053
-146.560	-80.686	0.242	-0.080
-145.545	-200.000	-0.005	0.095
-144.531	90.927	0.215	0.240
-143.516	-87.252	-0.291	-0.088
-142.502	-200.000	0.034	-0.353
-141.487	-59.303	-0.466	-0.200
-140.472	66.099	-0.097	-0.098
-139.458	-127.144	-0.154	-0.023
-138.443	-182.656	0.257	-0.005
-137.429	-59.504	-0.045	0.019
-136.414	-145.665	0.234	-0.021
-135.399	-81.439	0.161	0.053
-134.385	-92.138	0.101	-0.028
-133.370	569.635	0.142	-0.343
-132.356	126.364	0.205	0.258
-131.341	94.031	0.097	-0.110
-130.326	87.795	-0.052	-0.057
-129.312	-27.945	-0.181	-0.104
-128.297	-200.000	-0.027	0.147
-127.283	800.000	-0.063	-0.230
-126.268	-200.000	-0.040	0.277
-125.253	66.045	0.113	-0.114
-124.239	4.773	-0.300	-0.220
-123.224	-0.460	-0.244	0.172
-122.210	41.255	-0.074	0.066
-121.195	800.000	0.046	-0.144
-120.180	52.715	-0.271	0.258
-119.166	-128.431	0.156	-0.022
-118.151	317.573	-0.048	0.090
-117.137	43.165	-0.148	0.135
-116.122	651.283	0.055	-0.141
-115.107	-200.000	0.031	-0.159
-114.093	800.000	-0.101	0.323
-113.078	-114.741	-0.389	0.074
-112.064	77.798	0.272	0.289
-111.049	-38.514	-0.165	-0.087
-110.034	549.109	0.039	-0.093
-109.020	495.917	0.070	0.161
-108.005	-64.891	-0.305	-0.123
-106.991	800.000	0.087	0.312
-105.976	32.771	-0.211	0.182
-104.962	-142.302	0.208	-0.020
-103.947	-200.000	-0.005	-0.058
-102.932	551.196	0.014	0.033
-101.918	16.058	-0.116	0.091
-100.903	-1.358	-0.076	0.054
-99.889	12.204	-0.303	0.232
-98.874	514.445	0.142	0.329
-97.859	-200.000	-0.045	0.350
-96.845	253.346	0.103	0.175
-95.830	-6.664	-0.046	0.031
-94.816	-47.757	-0.141	0.068
-93.801	-42.276	0.237	-0.120
-92.786	126.778	-0.117	0.147
-91.772	-138.841	-0.184	0.020
-90.757	-114.144	-0.132	0.025
-89.743	-200.000	-0.183	-0.000
-88.728	223.137	0.161	0.259
-87.713	-162.146	-0.236	-0.012
-86.699	-200.000	-0.011	0.096
-85.684	-19.681	-0.434	-0.267
-84.670	800.000	-0.022	0.086
-83.655	-200.000	-0.054	0.247
-82.640	721.647	0.092	-0.243
-81.626	-95.409	-0.120	0.032
-80.611	-200.000	0.019	0.119
-79.597	-130.151	-0.435	0.059
-78.582	-200.000	-0.004	0.066
-77.567	-200.000	0.006	0.078
-76.553	-148.407	0.252	-0.021
-75.538	-87.437	0.302	0.091
-74.524	-137.505	0.302	-0.034
-73.509	565.676	-0.052	-0.126
-72.494	-73.211	-0.271	0.099
-71.480	-57.821	-0.170	-0.074
-70.465	21.105	0.136	-0.110
-69.451	-103.404	0.303	0.071
-68.436	223.546	0.159	0.255
-67.422	-160.939	0.260	0.014
-66.407	45.936	-0.230	0.212
-65.392	54.432	0.071	0.068
-64.378	1.583	-0.138	0.098
-63.363	62.290	0.135	0.133
-62.349	-68.184	-0.061	0.024
-61.334	96.132	-0.682	-0.774
-60.319	-85.161	0.373	0.116
-59.305	622.138	-0.278	-0.696
-58.290	66.748	0.748	0.756
-57.276	800.000	0.450	1.452
-56.261	-200.000	92.022	540.534
-55.246	591.157	1384.910	3394.731
-54.232	184.890	2602.666	3833.796
-53.217	119.640	2220.984	2732.632
-52.203	45.823	1750.363	1607.593
-51.188	38.579	1557.927	1380.001
-50.173	36.147	1530.019	1338.365
-49.159	53.760	1578.326	1505.212
-48.144	57.512	1597.972	1550.361
-47.130	39.099	1554.701	1380.574
-46.115	35.820	1539.065	1343.782
-45.100	35.546	1536.321	1339.420
-44.086	35.675	1533.713	1337.991
-43.071	35.511	1531.932	1335.248
-42.057	35.514	1530.405	1333.882
-41.042	35.438	1528.995	1332.077
-40.027	35.539	1527.622	1331.522
-39.013	35.617	1525.796	1330.422
-37.998	35.607	1524.239	1328.938
-36.984	35.633	1523.375	1328.317
-35.969	35.456	1522.519	1326.291
-34.954	35.513	1520.680	1325.029
-33.940	35.539	1519.402	1324.042
-32.925	35.577	1517.804	1322.858
-31.911	35.553	1516.867	1321.825
-30.896	35.657	1515.077	1320.932
-29.881	35.628	1514.377	1320.066
-28.867	35.589	1512.906	1318.463
-27.852	35.654	1511.046	1317.238
-26.838	35.588	1509.731	1315.585
-25.823	35.623	1508.086	1314.340
-24.809	35.626	1506.269	1312.725
-23.794	35.611	1505.131	1311.582
-22.779	35.704	1503.431	1310.680
-21.765	35.558	1502.981	1309.242
-20.750	35.564	1501.647	1308.064
-19.736	35.558	1500.542	1307.009
-18.721	35.509	1499.796	1305.978
-17.706	35.530	1498.392	1304.844
-16.692	35.581	1497.294	1304.183
-15.677	35.566	1496.546	1303.382
-14.663	35.533	1495.282	1302.001
-13.648	35.670	1493.904	1301.680
-12.633	35.488	1493.347	1299.910
-11.619	35.523	1492.973	1299.768
-10.604	35.476	1491.899	1298.466
-9.590	35.486	1491.057	1297.751
-8.575	35.530	1489.869	1296.957
-7.560	35.517	1489.100	1296.152
-6.546	35.572	1488.358	1295.827
-5.531	35.522	1487.258	1294.477
-4.517	35.487	1486.057	1293.143
-3.502	35.560	1484.996	1292.663
-2.487	35.471	1484.292	1291.397
-1.473	35.557	1482.706	1290.549
-0.458	35.572	1480.960	1289.075
0.556	37.707	1472.608	1279.650
1.571	34.861	1446.242	1238.233
2.586	30.931	1382.344	1159.035
3.600	28.705	1297.190	1074.527
4.615	26.176	1249.095	1020.329
5.629	21.950	1190.999	949.962
6.644	13.060	1104.226	835.857
7.659	6.031	1061.650	769.233
8.673	4.869	1055.883	759.324
9.688	4.648	1052.745	755.931
10.702	4.468	1051.045	753.766
11.717	4.806	1049.455	754.198
12.731	7.871	1053.619	772.012
13.746	16.495	1065.062	822.448
14.761	22.185	1072.099	855.591
15.775	22.290	1071.030	855.170
16.790	21.385	1069.156	849.206
17.804	20.205	1067.194	841.848
18.819	19.537	1065.043	836.837
19.834	19.048	1063.588	833.253
20.848	18.820	1063.125	831.713
21.863	18.809	1062.401	831.021
22.877	18.486	1061.544	828.715
23.892	18.404	1060.724	827.608
24.907	18.339	1059.358	826.155
25.921	18.323	1059.026	825.743
26.936	18.249	1058.252	824.710
27.950	18.279	1056.801	823.653
28.965	18.292	1056.099	823.095
29.980	18.348	1054.943	822.388
30.994	18.527	1053.999	822.437
32.009	18.597	1053.122	822.016
33.023	18.582	1052.997	821.777
34.038	18.711	1051.772	821.366
35.053	18.584	1050.441	819.643
36.067	18.420	1049.694	818.205
37.082	18.352	1049.088	817.336
38.096	18.487	1048.129	817.161
39.111	18.484	1047.548	816.624
40.126	18.590	1046.521	816.255
41.140	18.545	1045.435	815.122
42.155	18.271	1044.043	812.661
43.169	18.128	1043.253	811.295
44.184	17.917	1042.261	809.453
45.199	17.947	1041.174	808.679
46.213	18.006	1040.408	808.293
47.228	18.116	1039.519	808.052
48.242	18.395	1038.596	808.579
49.257	18.444	1037.274	807.710
50.271	18.427	1036.717	807.125
51.286	18.302	1036.254	806.100
52.301	18.606	1035.109	806.572
53.315	18.418	1034.726	805.316
54.330	18.303	1033.757	803.952
55.344	18.163	1032.330	802.115
56.359	18.252	1031.218	801.597
57.374	18.288	1030.310	800.988
58.388	18.138	1029.831	799.845
59.403	18.143	1028.865	799.045
60.417	18.050	1028.151	797.988
61.432	17.990	1027.542	797.163
62.447	18.057	1026.806	796.831
63.461	17.985	1025.783	795.635
64.476	17.809	1024.883	794.047
65.490	17.847	1023.896	793.389
66.505	17.813	1023.372	792.752
67.520	17.997	1022.110	792.559
68.534	17.889	1021.575	791.575
69.549	17.824	1021.277	790.972
70.563	17.926	1019.993	790.379
71.578	17.847	1019.283	789.391
72.593	17.686	1018.451	787.937
73.607	17.564	1017.536	786.595
74.622	17.635	1016.241	785.851
75.636	17.711	1015.322	785.421
76.651	17.619	1015.330	784.934
77.666	17.731	1013.774	784.177
78.680	17.808	1013.315	784.104
79.695	17.727	1012.753	783.230
80.709	17.891	1011.861	783.224
81.724	17.927	1011.648	783.152
82.739	18.076	1010.618	782.972
83.753	18.093	1010.084	782.565
84.768	18.308	1009.434	782.975
85.782	18.400	1009.194	783.139
86.797	18.704	1008.106	783.614
87.812	18.718	1007.498	783.138
88.826	18.535	1006.244	781.258
89.841	18.443	1005.582	780.257
90.855	18.509	1004.430	779.595
91.870	18.593	1004.327	779.827
92.884	18.522	1003.857	779.069
93.899	18.626	1002.827	778.675
94.914	18.494	1002.035	777.392
95.928	18.572	1001.239	777.061
96.943	18.738	1000.411	777.100
97.957	18.539	999.367	775.322
98.972	18.566	998.371	774.599
99.987	18.503	997.649	773.688
101.001	18.558	997.090	773.433
102.016	18.623	996.138	772.922
103.030	18.522	995.267	771.721
104.045	18.635	994.440	771.519
105.060	18.523	993.704	770.375
106.074	18.547	991.870	768.997
107.089	18.332	991.279	767.507
108.103	17.994	990.422	765.259
109.118	17.880	989.549	764.009
110.133	17.886	988.577	763.215
111.147	17.919	987.555	762.507
112.162	17.940	986.662	761.843
113.176	17.879	985.832	760.861
114.191	18.072	985.001	761.014
115.206	18.116	984.222	760.540
116.220	18.160	983.494	760.107
117.235	18.111	982.292	758.891
118.249	17.937	982.174	757.963
119.264	18.061	980.887	757.453
120.279	18.017	979.908	756.435
121.293	17.899	979.032	755.168
122.308	17.903	978.523	754.729
123.322	17.756	977.421	753.163
124.337	17.763	976.383	752.325
125.352	17.693	975.073	750.939
126.366	17.646	974.304	750.074
127.381	17.677	973.140	749.249
128.395	17.598	972.298	748.187
129.410	17.668	971.664	747.939
130.424	17.658	970.912	747.251
131.439	17.873	969.622	747.133
132.454	18.027	969.034	747.287
133.468	18.045	968.557	746.934
134.483	18.065	968.191	746.673
135.497	18.185	967.195	746.363
136.512	18.151	966.253	745.420
137.527	18.086	965.965	744.851
138.541	17.962	964.835	743.373
139.556	18.083	964.710	743.737
140.570	18.132	963.534	742.976
141.585	18.309	962.634	742.985
142.600	18.358	962.484	743.019
143.614	18.480	961.668	742.852
144.629	18.611	960.723	742.621
145.643	18.601	959.975	741.934
146.658	18.670	958.869	741.310
147.673	18.323	958.200	739.231
148.687	18.359	957.000	738.396
149.702	18.224	955.844	736.858
150.716	18.163	955.077	735.939
151.731	18.051	954.037	734.588
152.746	18.161	953.592	734.657
153.760	18.129	952.944	733.955
154.775	18.047	952.546	733.231
155.789	18.355	951.469	733.656
156.804	18.256	950.637	732.525
157.819	18.367	949.749	732.253
158.833	18.414	949.223	731.981
159.848	18.479	948.794	731.864
160.862	18.536	948.233	731.610
161.877	18.640	947.389	731.339
162.892	18.282	946.329	728.930
163.906	18.129	945.158	727.311
164.921	18.128	944.046	726.387
165.935	18.196	943.051	725.845
166.950	18.183	942.193	725.068
167.964	18.206	941.681	724.707
168.979	18.327	940.165	723.986
169.994	18.251	939.546	723.127
171.008	18.102	938.652	721.745
172.023	18.229	937.664	721.455
173.037	18.438	937.262	721.965
174.052	18.590	936.700	722.107
175.067	18.472	935.979	720.993
176.081	18.312	935.003	719.503
177.096	18.243	933.747	718.185
178.110	18.146	932.869	717.038
179.125	18.223	932.090	716.700
180.140	18.311	931.541	716.581
181.154	18.238	931.163	715.922
182.169	18.400	930.452	715.989
183.183	18.523	930.079	716.151
184.198	18.582	929.822	716.135
185.213	18.669	928.647	715.532
186.227	18.476	928.209	714.325
187.242	18.588	927.724	714.355
188.256	18.753	927.191	714.569
189.271	18.768	926.190	713.796
190.286	18.695	925.709	713.060
191.300	18.655	924.511	711.907
192.315	18.192	924.118	709.621
193.329	17.872	923.115	707.462
194.344	17.997	922.026	707.083
195.359	18.244	921.308	707.494
196.373	18.305	921.251	707.637
197.388	18.360	920.948	707.568
198.402	18.598	920.485	708.134
199.417	18.735	920.176	708.397
200.432	18.962	919.426	708.693
201.446	18.889	919.589	708.455
202.461	19.146	918.984	708.985
203.475	19.065	918.340	708.092
204.490	19.140	917.454	707.657
205.504	18.917	916.509	705.950
206.519	18.888	915.380	704.900
207.534	18.713	914.773	703.649
208.548	18.623	914.318	702.869
209.563	18.915	913.328	703.239
210.577	18.805	912.598	702.168
211.592	18.705	912.250	701.428
212.607	18.841	912.429	702.060
213.621	19.083	911.564	702.320
214.636	18.953	910.733	701.089
215.650	18.885	910.299	700.412
216.665	18.832	909.758	699.719
217.680	19.025	909.263	700.064
218.694	19.100	908.696	699.868
219.709	19.141	908.330	699.693
220.723	19.058	907.679	698.790
221.738	19.061	906.979	698.204
222.753	19.038	905.834	697.166
223.767	18.994	904.996	696.284
224.782	19.050	904.236	695.864
225.796	19.209	903.853	696.149
226.811	19.230	903.170	695.644
227.826	19.243	902.481	695.107
228.840	19.124	901.784	694.029
229.855	19.009	901.117	692.989
230.869	18.961	900.450	692.221
231.884	18.883	899.957	691.467
232.899	18.893	899.013	690.722
233.913	18.774	898.130	689.503
234.928	18.889	897.373	689.323
235.942	18.785	896.615	688.264
236.957	18.723	896.037	687.512
237.972	18.811	895.432	687.338
238.986	18.715	894.876	686.467
240.001	18.820	894.067	686.204
241.015	18.869	893.409	685.833
242.030	18.927	892.645	685.418
243.045	19.009	892.206	685.349
244.059	19.091	891.810	685.309
245.074	19.031	891.057	684.433
246.088	19.087	890.322	684.028
247.103	19.095	890.290	683.975
248.117	19.275	889.542	684.054
249.132	19.377	889.203	684.137
250.147	19.653	888.728	684.806
251.161	19.821	888.099	684.925
252.176	19.766	887.582	684.250
253.190	19.918	886.924	684.281
254.205	19.968	886.623	684.189
255.220	20.086	886.268	684.319
256.234	19.942	885.432	683.045
257.249	19.907	884.459	682.095
258.263	19.839	884.107	681.498
259.278	19.891	883.525	681.194
260.293	19.853	883.032	680.604
261.307	19.917	882.576	680.443
262.322	19.969	881.636	679.863
263.336	19.990	881.614	679.867
264.351	19.989	880.962	679.301
265.366	20.074	880.031	678.854
266.380	20.079	879.152	678.138
267.395	20.036	878.787	677.625
268.409	20.011	877.823	676.727
269.424	19.967	876.852	675.745
270.439	19.877	876.691	675.209
271.453	19.933	875.665	674.579
272.468	19.834	874.669	673.368
273.482	19.883	873.962	672.952
274.497	19.710	873.657	671.985
275.512	19.743	872.811	671.405
276.526	19.708	872.151	670.703
277.541	19.821	871.385	670.493
278.555	19.875	870.945	670.302
279.570	19.932	870.819	670.367
280.585	20.305	870.116	671.208
281.599	20.312	869.412	670.634
282.614	19.952	869.111	668.951
283.628	19.917	868.363	668.183
284.643	19.958	867.633	667.720
285.657	19.992	866.987	667.292
286.672	19.976	866.562	666.845
287.687	20.013	865.951	666.458
288.701	20.017	865.439	666.020
289.716	19.961	864.998	665.408
290.730	20.004	864.459	665.101
291.745	19.923	863.953	664.340
292.760	20.073	863.454	664.474
293.774	20.237	862.831	664.561
294.789	20.324	861.934	664.147
295.803	20.392	861.511	664.021
296.818	20.112	861.003	662.502
297.833	20.002	860.240	661.435
298.847	19.960	859.882	660.940
299.862	20.008	859.210	660.548
300.876	20.115	858.219	660.135
301.891	20.212	857.439	659.846
302.906	20.319	857.017	659.869
303.920	20.325	856.288	659.275
304.935	20.512	856.123	659.800
305.949	20.647	855.461	659.742
306.964	20.679	854.409	658.996
307.979	20.471	853.817	657.690
308.993	20.460	853.892	657.649
310.008	20.469	853.125	657.033
311.022	20.523	852.698	656.854
312.037	20.574	852.509	656.841
313.052	20.380	851.531	655.297
314.066	20.435	850.559	654.700
315.081	20.269	849.635	653.304
316.095	20.215	849.128	652.655
317.110	20.065	849.169	652.061
318.125	20.110	848.706	651.820
319.139	20.270	847.766	651.639
320.154	20.299	847.222	651.272
321.168	20.277	846.742	650.763
322.183	20.194	846.304	650.059
323.197	20.182	845.937	649.675
324.212	20.352	845.170	649.666
325.227	20.493	844.668	649.748
326.241	20.273	844.273	648.563
327.256	20.218	843.975	648.073
328.270	20.291	842.924	647.482
329.285	20.237	842.465	646.870
330.300	20.301	841.828	646.563
331.314	20.282	840.949	645.758
332.329	20.289	840.566	645.431
333.343	20.323	840.411	645.385
334.358	20.428	840.142	645.511
335.373	20.574	839.375	645.404
336.387	20.469	838.894	644.591
337.402	20.619	838.247	644.592
338.416	20.718	837.553	644.367
339.431	20.705	837.070	643.890
340.446	20.957	836.714	644.491
341.460	20.950	836.614	644.330
342.475	20.947	835.851	643.675
343.489	21.027	835.199	643.411
344.504	21.258	834.625	643.763
345.519	21.158	834.225	643.028
346.533	21.281	833.727	643.042
347.548	21.184	833.489	642.445
348.562	20.934	832.769	640.915
349.577	20.820	831.870	639.748
350.592	20.692	831.375	638.839
351.606	20.771	830.588	638.466
352.621	20.624	830.134	637.523
353.635	20.736	829.686	637.533
354.650	20.740	829.261	637.163
355.665	20.676	829.134	636.777
356.679	20.809	829.012	637.115
357.694	20.953	828.443	637.145
358.708	20.933	827.537	636.320
359.723	20.849	827.175	635.679
360.738	21.010	825.984	635.292
361.752	20.843	826.425	634.966
362.767	20.912	825.856	634.727
363.781	21.118	825.359	635.038
364.796	21.230	825.126	635.210
365.810	21.184	824.921	634.829
366.825	21.361	824.334	634.963
367.840	21.591	823.863	635.378
368.854	21.366	823.747	634.418
369.869	21.313	823.002	633.594
370.883	21.245	821.890	632.436
371.898	21.373	821.430	632.490
372.913	21.395	821.056	632.226
373.927	21.413	820.791	632.031
374.942	21.467	819.773	631.386
375.956	21.293	819.247	630.295
376.971	21.413	818.893	630.402
377.986	21.538	818.342	630.372
379.000	21.532	817.842	629.908
380.015	21.659	817.896	630.350
381.029	21.642	816.952	629.508
382.044	21.555	816.209	628.566
383.059	21.487	815.544	627.754
384.073	21.665	815.316	628.162
385.088	21.589	814.522	627.223
386.102	21.369	813.672	625.727
387.117	21.358	812.925	625.057
388.132	21.220	812.478	624.163
389.146	21.314	812.308	624.315
390.161	21.327	812.010	624.075
391.175	21.503	811.503	624.260
392.190	21.604	811.338	624.439
393.205	21.579	810.819	623.895
394.219	21.280	810.379	622.437
395.234	21.403	809.828	622.393
396.248	21.279	809.054	621.304
397.263	21.178	808.228	620.255
398.278	21.115	807.663	619.544
399.292	21.004	807.941	619.309
400.307	21.054	807.407	619.022
401.321	21.137	806.775	618.774
402.336	21.249	806.114	618.611
403.350	21.378	805.865	618.820
404.365	21.252	805.761	618.242
405.380	21.423	805.470	618.568
406.394	21.735	804.804	619.104
407.409	21.689	804.608	618.738
408.423	21.862	803.787	618.662
409.438	21.816	803.830	618.475
410.453	21.897	803.518	618.466
411.467	21.934	802.668	617.889
412.482	21.976	802.053	617.508
413.496	22.151	801.890	617.944
414.511	22.242	801.530	617.933
415.526	22.111	801.360	617.285
416.540	22.048	800.951	616.693
417.555	22.196	799.909	616.357
418.569	22.128	799.660	615.872
419.584	21.983	799.481	615.172
420.599	21.987	798.933	614.708
421.613	157.597	1367.561	1786.278
422.628	136.722	1450.417	1786.386
