DTS Sentinel unit serial number:	SN413079Multiplexer serial number:	ORYXHardware model number:	OX4-SRSoftware version number:	ORYX F/W v4.00 Oryx Data Collector v3.7.2.0data status	okinstallation	princeton_trtdifferential loss correction	single-endedforward channel	channel 3reverse channel	N/Adate	2019/09/18time	04:12:34forward acquisition time	60.00reverse acquisition time	0.00gamma	496.2192k internal	0.2342k external	0.2342temperature offset calibration	0.9948default loss term (dB/km)	0.3790temperature slope calibration	1.0000multiplexer offset coefficient	1.0000multiplexer slope coefficient	1.0000fibre end	0.00T internal ref (°C)	23.30T ext. ref 1 (°C)	0.17T ext. ref 2 (°C)	17.71length (m)	temperature (°C)	Stokes	anti-Stokes-747.200	27.537	0.060	0.050
-746.185	31.500	-0.379	0.326
-745.171	-72.198	0.053	-0.020
-744.156	-200.000	-0.000	0.417
-743.142	-90.807	-0.240	0.069
-742.127	-123.423	-0.555	0.089
-741.112	19.115	-0.316	-0.254
-740.098	140.958	0.215	0.284
-739.083	-200.000	0.044	0.198
-738.069	-51.074	-0.417	0.196
-737.054	365.704	0.074	0.150
-736.039	-142.110	-0.386	-0.038
-735.025	7.649	-0.137	0.103
-734.010	-60.766	0.063	0.027
-732.996	74.916	-0.225	-0.237
-731.981	0.268	-0.223	-0.160
-730.966	65.459	0.088	0.089
-729.952	-41.967	-0.056	-0.029
-728.937	402.824	0.108	-0.228
-727.923	26.214	0.332	-0.277
-726.908	-28.523	-0.110	-0.063
-725.894	122.051	-0.267	-0.333
-724.879	-166.937	0.111	0.005
-723.864	800.000	-0.031	0.089
-722.850	103.239	0.142	0.166
-721.835	374.480	-0.031	-0.063
-720.821	-80.726	-0.285	-0.095
-719.806	-77.292	-0.043	0.015
-718.791	-109.227	0.183	-0.039
-717.777	-52.386	0.194	-0.090
-716.762	-43.463	-0.258	-0.131
-715.748	27.688	0.141	-0.119
-714.733	-19.781	0.293	0.181
-713.718	-200.000	-0.006	0.281
-712.704	43.906	-0.111	-0.102
-711.689	-200.000	-0.005	-0.031
-710.675	-155.645	0.114	-0.007
-709.660	25.428	0.099	0.083
-708.645	-127.613	-0.262	0.038
-707.631	-95.704	-0.196	0.052
-706.616	19.508	-0.265	-0.213
-705.602	-200.000	0.072	0.324
-704.587	-47.076	-0.238	0.116
-703.572	-85.113	-0.291	-0.091
-702.558	323.813	-0.130	0.248
-701.543	-33.873	0.109	0.060
-700.529	-52.092	-0.402	-0.187
-699.514	800.000	-0.037	0.119
-698.499	-106.795	-0.136	0.030
-697.485	-43.574	-0.076	0.038
-696.470	-200.000	-0.026	-0.431
-695.456	-91.439	0.062	-0.018
-694.441	514.798	-0.197	-0.459
-693.426	-200.000	0.012	-0.297
-692.412	-69.650	0.017	-0.007
-691.397	-14.789	0.102	-0.066
-690.383	-177.441	0.101	0.002
-689.368	140.432	-0.194	-0.255
-688.354	402.046	0.087	-0.182
-687.339	-139.418	-0.157	-0.017
-686.324	0.672	-0.259	0.185
-685.310	-200.000	-0.004	-0.238
-684.295	-200.000	0.029	-0.168
-683.281	375.360	0.176	-0.358
-682.266	-200.000	0.020	-0.159
-681.251	-5.941	0.186	-0.127
-680.237	150.978	-0.209	0.283
-679.222	313.489	-0.014	0.027
-678.208	-12.958	0.196	-0.127
-677.193	78.595	0.175	0.187
-676.178	-200.000	0.035	0.198
-675.164	239.160	-0.173	-0.288
-674.149	480.963	0.097	-0.220
-673.135	332.416	-0.131	-0.253
-672.120	-14.641	0.300	0.193
-671.105	116.471	0.024	-0.029
-670.091	48.813	-0.183	-0.171
-669.076	-200.000	-0.005	-0.207
-668.062	48.400	-0.140	0.131
-667.047	-106.250	0.331	-0.074
-666.032	-158.153	-0.113	0.007
-665.018	-54.258	-0.061	-0.028
-664.003	-71.489	0.236	-0.088
-662.989	23.137	-0.077	-0.063
-661.974	-46.648	0.194	-0.095
-660.959	365.482	-0.085	0.171
-659.945	-22.347	0.177	0.107
-658.930	-79.814	-0.171	0.057
-657.916	288.306	0.200	-0.361
-656.901	255.528	-0.052	0.088
-655.886	-120.269	0.199	0.034
-654.872	-123.745	-0.196	0.031
-653.857	-200.000	-0.004	0.048
-652.843	-200.000	-0.004	0.138
-651.828	-200.000	0.045	-0.199
-650.814	-168.932	-0.443	-0.017
-649.799	800.000	0.059	-0.214
-648.784	-130.378	0.135	0.018
-647.770	-23.705	-0.205	-0.122
-646.755	6.770	0.217	0.161
-645.741	133.233	0.039	0.050
-644.726	-60.830	-0.280	0.118
-643.711	800.000	0.041	0.162
-642.697	378.404	0.075	-0.153
-641.682	5.590	-0.122	-0.090
-640.668	437.586	-0.052	0.113
-639.653	-37.059	0.184	-0.098
-638.638	800.000	-0.075	0.258
-637.624	-59.962	-0.116	-0.049
-636.609	32.332	0.281	0.242
-635.595	800.000	-0.076	-0.313
-634.580	405.040	-0.093	-0.195
-633.565	800.000	0.099	-0.311
-632.551	-25.917	-0.249	-0.146
-631.536	309.290	-0.091	-0.170
-630.522	58.730	0.299	-0.293
-629.507	171.929	-0.260	-0.372
-628.492	-200.000	0.015	0.468
-627.478	-200.000	0.004	0.140
-626.463	279.638	-0.142	0.253
-625.449	135.623	0.283	0.367
-624.434	469.392	-0.075	0.169
-623.419	108.134	0.190	-0.226
-622.405	33.932	-0.209	-0.181
-621.390	91.035	0.018	-0.020
-620.376	-200.000	0.038	-0.257
-619.361	-133.366	-0.268	-0.034
-618.346	632.839	0.015	-0.039
-617.332	-59.601	0.197	-0.084
-616.317	-80.978	-0.096	0.032
-615.303	-70.774	0.334	0.125
-614.288	154.778	-0.034	-0.046
-613.273	800.000	-0.052	-0.172
-612.259	349.460	-0.179	-0.352
-611.244	40.085	-0.237	0.213
-610.230	-51.531	0.284	-0.132
-609.215	-14.597	0.217	0.139
-608.201	196.083	-0.123	0.187
-607.186	-5.067	-0.169	0.116
-606.171	-11.980	0.221	-0.144
-605.157	-11.322	-0.198	0.130
-604.142	107.915	-0.149	0.177
-603.128	-107.393	0.065	-0.014
-602.113	-58.232	0.206	0.089
-601.098	547.358	0.078	-0.187
-600.084	-136.084	-0.179	0.021
-599.069	-200.000	-0.032	0.279
-598.055	-200.000	-0.020	-0.168
-597.040	-121.197	0.227	-0.038
-596.025	-200.000	-0.100	-0.440
-595.011	-200.000	-0.001	0.162
-593.996	-11.484	0.020	-0.013
-592.982	72.540	0.164	-0.170
-591.967	-46.442	0.116	-0.057
-590.952	-187.937	-0.371	-0.005
-589.938	800.000	0.022	-0.074
-588.923	374.814	-0.193	0.392
-587.909	331.778	0.092	-0.177
-586.894	-10.484	-0.158	-0.104
-585.879	-200.000	-0.017	0.379
-584.865	61.144	0.238	-0.235
-583.850	800.000	0.065	-0.277
-582.836	-200.000	0.216	-0.000
-581.821	-29.393	-0.255	0.145
-580.806	-137.572	-0.107	0.012
-579.792	-39.961	0.160	0.083
-578.777	103.132	-0.180	-0.210
-577.763	-118.391	-0.186	0.033
-576.748	-127.695	-0.156	-0.022
-575.733	-155.710	-0.262	-0.017
-574.719	397.265	-0.049	-0.101
-573.704	800.000	0.035	-0.138
-572.690	322.024	0.095	0.180
-571.675	-200.000	0.022	0.144
-570.661	-200.000	-0.007	0.521
-569.646	-75.994	-0.160	0.056
-568.631	800.000	0.031	-0.132
-567.617	-135.561	-0.111	0.013
-566.602	404.945	-0.022	-0.046
-565.588	800.000	-0.007	-0.026
-564.573	-126.404	0.101	-0.015
-563.558	800.000	0.049	0.159
-562.544	800.000	-0.109	0.406
-561.529	72.127	-0.184	-0.191
-560.515	424.534	0.025	0.054
-559.500	698.521	-0.085	-0.223
-558.485	-139.126	0.022	0.002
-557.471	91.306	0.175	-0.196
-556.456	-200.000	-0.004	0.131
-555.442	554.503	-0.025	0.061
-554.427	-200.000	-0.035	0.186
-553.412	800.000	0.066	0.233
-552.398	-2.636	0.200	0.139
-551.383	-66.326	0.219	0.086
-550.369	-200.000	0.036	0.215
-549.354	-83.985	-0.063	0.020
-548.339	-11.696	0.070	0.046
-547.325	1.417	-0.104	-0.074
-546.310	74.223	0.127	-0.133
-545.296	-85.798	0.258	-0.079
-544.281	146.113	-0.087	0.115
-543.266	222.625	0.083	0.133
-542.252	800.000	-0.071	0.263
-541.237	495.161	0.116	0.264
-540.223	607.802	0.036	0.088
-539.208	-21.490	0.112	-0.068
-538.193	-15.193	0.242	-0.154
-537.179	-114.870	0.120	-0.023
-536.164	-22.445	-0.114	-0.068
-535.150	125.082	0.203	-0.255
-534.135	46.334	0.061	-0.056
-533.121	301.225	-0.197	0.361
-532.106	333.878	0.113	-0.217
-531.091	-162.211	-0.202	-0.010
-530.077	225.522	-0.124	0.200
-529.062	7.031	0.229	0.170
-528.048	-160.352	-0.384	-0.021
-527.033	46.266	-0.156	0.143
-526.018	189.805	0.023	-0.034
-525.004	116.899	0.175	0.213
-523.989	115.934	0.136	0.165
-522.975	-138.181	-0.250	-0.028
-521.960	800.000	-0.084	-0.242
-520.945	-200.000	0.036	-0.247
-519.931	202.244	0.075	-0.114
-518.916	278.845	0.092	0.163
-517.902	-53.095	-0.192	-0.088
-516.887	93.404	0.363	0.408
-515.872	-105.532	0.350	-0.079
-514.858	619.841	-0.048	0.120
-513.843	33.356	0.054	0.046
-512.829	-200.000	-0.061	0.378
-511.814	-75.493	-0.186	-0.066
-510.799	-70.481	0.663	0.249
-509.785	86.734	-0.200	-0.219
-508.770	-161.286	0.109	-0.006
-507.756	-93.305	-0.497	0.137
-506.741	180.813	0.051	-0.075
-505.726	-79.701	0.287	-0.096
-504.712	800.000	-0.078	0.258
-503.697	-1.222	-0.248	0.174
-502.683	-117.939	-0.301	-0.053
-501.668	800.000	-0.034	-0.131
-500.653	-200.000	0.093	-0.545
-499.639	-200.000	0.077	0.483
-498.624	11.161	-0.161	-0.122
-497.610	800.000	-0.004	-0.012
-496.595	50.083	0.199	0.187
-495.581	-147.408	-0.305	0.026
-494.566	204.480	-0.129	-0.199
-493.551	53.599	0.039	-0.037
-492.537	-103.393	0.252	0.059
-491.522	377.274	-0.182	-0.370
-490.508	4.014	-0.112	-0.081
-489.493	127.501	-0.119	0.150
-488.478	-120.507	-0.098	0.016
-487.464	-109.101	-0.144	0.030
-486.449	-53.445	0.202	0.092
-485.435	144.212	0.123	-0.162
-484.420	110.148	-0.181	0.216
-483.405	358.490	-0.145	0.287
-482.391	228.997	0.175	0.283
-481.376	21.428	-0.088	-0.071
-480.362	-121.755	0.048	0.008
-479.347	70.624	-0.170	-0.175
-478.332	88.304	0.171	-0.188
-477.318	32.284	0.141	-0.121
-476.303	800.000	0.061	0.263
-475.289	-141.887	-0.116	0.012
-474.274	-137.026	-0.132	0.015
-473.259	-200.000	-0.034	-0.266
-472.245	-129.272	0.175	0.024
-471.230	387.130	0.145	0.298
-470.216	637.871	-0.150	-0.378
-469.201	-162.156	-0.365	-0.018
-468.186	-32.760	0.325	-0.179
-467.172	-200.000	0.032	0.173
-466.157	-26.570	-0.201	-0.117
-465.143	-30.297	-0.035	0.020
-464.128	-200.000	-0.035	0.442
-463.113	-200.000	-0.008	0.170
-462.099	704.350	-0.013	-0.034
-461.084	342.889	0.190	-0.368
-460.070	40.597	0.142	0.127
-459.055	-149.878	0.307	-0.024
-458.040	-92.364	-0.150	-0.042
-457.026	-69.583	-0.146	-0.055
-456.011	-102.232	-0.228	-0.054
-454.997	-6.284	-0.026	-0.018
-453.982	125.580	0.137	-0.171
-452.968	-80.983	-0.326	0.107
-451.953	759.570	0.031	0.083
-450.938	-145.700	0.174	0.015
-449.924	-20.809	-0.031	0.019
-448.909	-54.535	0.158	0.071
-447.895	-200.000	0.062	-0.420
-446.880	-58.031	0.215	-0.093
-445.865	-48.769	0.475	0.226
-444.851	-142.824	0.179	-0.017
-443.836	365.819	-0.091	-0.183
-442.822	127.040	0.125	0.157
-441.807	358.686	-0.250	-0.493
-440.792	-54.101	-0.264	0.119
-439.778	46.350	-0.124	0.113
-438.763	-113.778	-0.014	-0.003
-437.749	-120.986	-0.278	0.046
-436.734	180.203	-0.138	0.200
-435.719	-86.289	0.171	0.052
-434.705	-18.476	0.108	-0.067
-433.690	26.278	-0.041	-0.034
-432.676	56.044	0.211	-0.202
-431.661	-38.343	-0.151	-0.079
-430.646	-163.350	-0.189	-0.009
-429.632	800.000	0.071	-0.197
-428.617	-200.000	0.022	-0.296
-427.603	391.176	0.045	0.092
-426.588	-200.000	-0.032	-0.159
-425.573	39.692	0.332	0.295
-424.559	282.552	0.103	-0.183
-423.544	-34.615	-0.238	-0.129
-422.530	-25.185	-0.179	-0.105
-421.515	-88.302	0.276	-0.082
-420.500	-23.491	-0.074	-0.044
-419.486	-200.000	-0.022	-0.198
-418.471	164.180	-0.065	0.091
-417.457	504.075	0.067	-0.153
-416.442	280.397	0.031	-0.055
-415.428	172.891	0.071	0.101
-414.413	36.685	-0.065	0.057
-413.398	-57.617	-0.469	0.203
-412.384	624.651	0.101	0.251
-411.369	-75.763	0.372	-0.130
-410.355	-115.883	-0.404	-0.075
-409.340	-99.442	-0.164	0.041
-408.325	-12.308	-0.175	0.113
-407.311	-111.445	0.185	0.037
-406.296	-200.000	0.004	0.152
-405.282	800.000	0.066	-0.250
-404.267	-200.000	-0.026	0.134
-403.252	-200.000	0.005	0.160
-402.238	-18.235	0.192	0.119
-401.223	800.000	-0.020	0.088
-400.209	-119.776	-0.322	0.055
-399.194	-200.000	-0.003	-0.099
-398.179	72.800	-0.185	-0.190
-397.165	-114.355	-0.157	0.030
-396.150	-78.851	-0.235	0.079
-395.136	-200.000	0.003	0.186
-394.121	-148.926	-0.191	0.015
-393.106	-200.000	-0.003	-0.276
-392.092	10.890	0.148	-0.111
-391.077	338.336	-0.108	0.208
-390.063	70.670	0.070	-0.071
-389.048	-200.000	-0.033	0.363
-388.033	291.511	-0.032	-0.058
-387.019	-77.605	0.184	0.063
-386.004	13.535	0.126	0.096
-384.990	800.000	-0.028	0.113
-383.975	-50.335	-0.126	0.059
-382.960	96.600	-0.058	-0.065
-381.946	-200.000	0.009	-0.312
-380.931	-97.748	0.160	0.041
-379.917	16.678	0.165	-0.129
-378.902	-68.220	-0.165	-0.063
-377.888	95.002	-0.192	-0.216
-376.873	800.000	0.078	-0.245
-375.858	46.336	0.116	0.106
-374.844	800.000	-0.073	-0.245
-373.829	-200.000	-0.069	-0.513
-372.815	-49.055	0.268	0.126
-371.800	-31.520	0.397	-0.220
-370.785	-200.000	-0.042	0.331
-369.771	-134.181	0.075	0.009
-368.756	-7.748	0.445	-0.297
-367.742	-78.590	0.133	0.045
-366.727	178.272	-0.058	0.083
-365.712	-200.000	-0.004	0.158
-364.698	-86.079	-0.319	-0.097
-363.683	800.000	-0.024	-0.076
-362.669	356.008	-0.089	-0.174
-361.654	800.000	0.026	0.079
-360.639	432.576	0.074	0.159
-359.625	800.000	0.057	-0.197
-358.610	88.572	-0.234	0.257
-357.596	-131.906	-0.095	-0.012
-356.581	-121.679	-0.069	0.011
-355.566	113.294	0.186	-0.223
-354.552	800.000	-0.090	0.288
-353.537	-113.932	0.277	0.053
-352.523	-200.000	-0.008	0.416
-351.508	-99.624	-0.134	-0.033
-350.493	-105.960	0.169	0.038
-349.479	-27.267	-0.214	-0.123
-348.464	453.060	-0.021	0.047
-347.450	-73.484	0.318	0.114
-346.435	-128.812	0.346	-0.048
-345.420	139.783	-0.256	0.332
-344.406	2.615	0.215	0.154
-343.391	102.011	-0.149	-0.171
-342.377	82.988	-0.248	-0.265
-341.362	800.000	-0.062	0.193
-340.348	-70.134	0.213	0.080
-339.333	-10.885	-0.147	0.096
-338.318	-23.454	0.274	0.162
-337.304	-200.000	-0.024	-0.299
-336.289	-200.000	-0.067	0.302
-335.275	-200.000	0.002	-0.163
-334.260	2.365	-0.167	-0.119
-333.245	-2.990	-0.340	0.234
-332.231	-200.000	0.041	0.263
-331.216	-119.404	0.039	0.007
-330.202	-49.069	-0.228	-0.107
-329.187	10.267	0.114	0.085
-328.172	272.814	-0.188	0.327
-327.158	800.000	0.087	-0.241
-326.143	299.341	-0.072	-0.131
-325.129	245.412	-0.151	0.250
-324.114	126.197	0.169	-0.210
-323.099	19.524	-0.343	0.272
-322.085	-73.116	-0.274	0.099
-321.070	-136.932	0.151	0.017
-320.056	-200.000	-0.008	0.099
-319.041	-200.000	-0.001	-0.036
-318.026	273.848	0.067	-0.118
-317.012	800.000	-0.041	-0.150
-315.997	364.370	0.103	0.204
-314.983	-44.382	-0.127	0.063
-313.968	-27.563	-0.219	0.125
-312.953	-95.979	0.237	0.062
-311.939	11.742	0.241	0.182
-310.924	-148.899	0.473	0.038
-309.910	-200.000	0.008	0.239
-308.895	76.910	0.127	0.132
-307.880	-79.386	0.099	0.033
-306.866	-46.722	0.100	-0.048
-305.851	-200.000	0.002	-0.024
-304.837	800.000	-0.044	-0.153
-303.822	-200.000	-0.034	-0.148
-302.807	14.799	0.078	-0.060
-301.793	231.869	-0.132	0.213
-300.778	269.928	-0.118	0.203
-299.764	-177.405	-0.139	-0.003
-298.749	-200.000	0.039	-0.259
-297.735	-200.000	0.008	-0.206
-296.720	-200.000	-0.018	0.227
-295.705	365.380	0.112	-0.222
-294.691	58.826	0.138	-0.134
-293.676	-200.000	-0.049	0.359
-292.662	800.000	-0.089	0.296
-291.647	-156.474	0.134	0.008
-290.632	60.495	-0.129	0.126
-289.618	-133.729	-0.193	-0.024
-288.603	-200.000	-0.032	-0.157
-287.589	800.000	0.030	0.125
-286.574	-10.848	-0.173	-0.112
-285.559	-86.457	-0.278	-0.084
-284.545	585.722	-0.108	0.260
-283.530	616.722	0.080	-0.197
-282.516	-154.576	0.438	0.029
-281.501	331.754	-0.096	-0.181
-280.486	800.000	-0.079	0.309
-279.472	800.000	0.042	-0.152
-278.457	92.042	0.277	0.307
-277.443	-102.391	-0.181	-0.043
-276.428	468.546	0.185	0.408
-275.413	-160.021	-0.194	0.010
-274.399	96.965	0.113	0.127
-273.384	-161.920	0.330	-0.016
-272.370	-26.583	0.190	0.110
-271.355	-111.499	-0.228	0.046
-270.340	-200.000	-0.016	0.078
-269.326	795.304	0.053	-0.145
-268.311	35.133	0.393	0.338
-267.297	800.000	0.059	-0.210
-266.282	-93.391	0.276	-0.075
-265.267	-74.275	0.105	0.037
-264.253	423.083	0.052	0.109
-263.238	138.922	-0.092	-0.119
-262.224	-96.877	0.232	0.060
-261.209	-69.363	-0.387	-0.146
-260.195	346.709	0.077	0.148
-259.180	169.739	-0.224	0.315
-258.165	-191.676	-0.497	0.005
-257.151	-200.000	0.008	-0.121
-256.136	98.091	-0.130	-0.147
-255.122	715.311	-0.167	-0.436
-254.107	-112.531	0.167	0.033
-253.092	-167.300	0.300	0.012
-252.078	-97.303	-0.174	0.045
-251.063	-48.700	0.309	-0.146
-250.049	-36.904	-0.205	0.108
-249.034	-200.000	0.045	0.215
-248.019	125.449	-0.158	-0.195
-247.005	-140.581	-0.237	-0.024
-245.990	-124.432	-0.156	0.024
-244.976	-4.449	-0.054	-0.037
-243.961	-61.214	0.362	0.150
-242.946	37.350	0.090	0.078
-241.932	772.677	-0.048	-0.129
-240.917	164.075	0.255	-0.353
-239.903	-111.970	-0.233	0.046
-238.888	-200.000	-0.001	0.170
-237.873	800.000	-0.069	0.189
-236.859	-200.000	-0.001	0.037
-235.844	-200.000	0.006	-0.204
-234.830	-133.587	0.395	0.049
-233.815	-147.014	0.029	-0.002
-232.800	-132.025	-0.344	0.044
-231.786	343.465	0.155	0.299
-230.771	-105.199	-0.320	0.072
-229.757	120.889	0.130	-0.159
-228.742	440.171	-0.141	-0.302
-227.727	-21.908	-0.096	-0.057
-226.713	85.386	-0.178	-0.191
-225.698	53.461	0.175	-0.165
-224.684	141.721	-0.083	-0.108
-223.669	-43.520	-0.201	-0.099
-222.655	800.000	-0.062	0.207
-221.640	-138.701	0.345	-0.037
-220.625	800.000	-0.053	0.222
-219.611	-152.738	-0.080	0.006
-218.596	-158.027	-0.150	0.009
-217.582	99.920	0.116	-0.132
-216.567	-53.935	-0.105	-0.047
-215.552	-200.000	-0.027	-0.326
-214.538	-200.000	-0.032	-0.148
-213.523	-200.000	-0.036	-0.226
-212.509	335.772	0.225	0.428
-211.494	-72.053	0.239	0.087
-210.479	-139.740	-0.313	-0.033
-209.465	52.244	-0.225	0.211
-208.450	800.000	0.020	-0.076
-207.436	41.794	-0.172	-0.153
-206.421	-200.000	-0.073	-0.434
-205.406	-172.966	-0.155	0.005
-204.392	-36.368	-0.103	-0.055
-203.377	-14.683	0.380	-0.239
-202.363	-75.883	-0.236	-0.082
-201.348	-200.000	0.013	-0.091
-200.333	-200.000	0.028	-0.193
-199.319	-2.706	0.150	-0.103
-198.304	106.346	-0.211	-0.245
-197.290	221.185	-0.119	-0.188
-196.275	-138.422	-0.149	-0.016
-195.260	-107.799	0.213	-0.045
-194.246	800.000	0.047	-0.145
-193.231	-8.646	-0.108	0.071
-192.217	65.517	0.233	-0.231
-191.202	-38.750	0.339	-0.175
-190.187	174.286	-0.247	-0.350
-189.173	198.497	0.165	-0.247
-188.158	41.033	0.185	0.164
-187.144	-67.493	0.223	-0.086
-186.129	103.364	0.178	0.205
-185.114	277.294	-0.114	0.200
-184.100	-93.510	-0.183	0.050
-183.085	-38.521	0.086	-0.044
-182.071	105.601	0.214	-0.247
-181.056	-132.636	0.137	0.017
-180.042	-37.232	0.352	0.185
-179.027	-9.023	-0.123	0.081
-178.012	-22.620	-0.151	0.089
-176.998	250.662	0.120	-0.200
-175.983	13.721	0.137	0.104
-174.969	800.000	0.073	-0.244
-173.954	-200.000	0.050	-0.229
-172.939	319.189	-0.044	-0.082
-171.925	-47.365	-0.216	0.103
-170.910	-64.629	-0.081	-0.032
-169.896	348.633	-0.178	-0.345
-168.881	-128.687	-0.341	-0.047
-167.866	-61.962	0.211	0.086
-166.852	-200.000	0.012	0.272
-165.837	176.577	0.055	0.078
-164.823	-180.730	0.321	-0.006
-163.808	-100.704	-0.323	-0.078
-162.793	315.878	-0.071	-0.131
-161.779	-106.428	0.264	0.058
-160.764	-92.470	-0.526	0.145
-159.750	-128.096	0.287	0.040
-158.735	-35.034	0.116	-0.062
-157.720	800.000	-0.029	0.088
-156.706	-85.112	0.291	0.089
-155.691	-200.000	-0.030	-0.249
-154.677	-116.381	-0.105	-0.019
-153.662	-94.153	0.141	0.038
-152.647	800.000	0.147	0.441
-151.633	109.341	0.115	-0.134
-150.618	-113.543	-0.116	-0.022
-149.604	102.188	-0.036	0.041
-148.589	-200.000	-0.023	-0.139
-147.574	46.942	0.295	0.269
-146.560	-200.000	0.004	-0.034
-145.545	-17.855	-0.157	-0.097
-144.531	-188.640	-0.303	0.004
-143.516	800.000	-0.086	-0.286
-142.502	9.550	0.334	0.248
-141.487	800.000	0.161	-0.472
-140.472	-130.908	-0.205	-0.027
-139.458	86.208	0.148	0.160
-138.443	395.343	0.080	-0.162
-137.429	517.524	0.189	0.432
-136.414	101.999	-0.183	0.209
-135.399	-113.425	-0.346	-0.066
-134.385	-66.356	0.387	-0.151
-133.370	158.601	0.082	-0.111
-132.356	-200.000	-0.008	0.199
-131.341	-200.000	0.040	0.222
-130.326	800.000	0.036	0.152
-129.312	-72.541	0.076	0.027
-128.297	30.469	0.256	-0.214
-127.283	-200.000	-0.001	0.108
-126.268	-100.636	-0.264	-0.064
-125.253	-200.000	0.010	0.229
-124.239	232.378	-0.172	0.277
-123.224	-200.000	0.012	-0.164
-122.210	-64.477	0.402	-0.160
-121.195	-131.964	0.546	0.070
-120.180	-25.882	-0.289	0.167
-119.166	-200.000	0.075	0.324
-118.151	18.599	0.046	0.036
-117.137	32.136	-0.125	-0.105
-116.122	-200.000	-0.003	-0.229
-115.107	24.215	-0.072	-0.058
-114.093	-200.000	-0.016	-0.085
-113.078	66.167	0.069	0.069
-112.064	179.985	0.115	-0.164
-111.049	-37.447	0.126	-0.066
-110.034	-82.780	0.169	0.053
-109.020	-173.595	-0.209	0.006
-108.005	10.123	-0.243	-0.180
-106.991	-200.000	-0.048	-0.362
-105.976	-200.000	0.016	-0.291
-104.962	-11.797	-0.194	-0.124
-103.947	319.705	0.094	-0.175
-102.932	-70.296	-0.263	0.097
-101.918	112.348	-0.158	-0.187
-100.903	800.000	-0.042	-0.171
-99.889	-143.408	-0.046	0.004
-98.874	113.502	-0.229	0.271
-97.859	-200.000	0.016	-0.179
-96.845	106.695	0.215	-0.249
-95.830	-200.000	-0.047	0.219
-94.816	-200.000	-0.028	0.163
-93.801	-151.456	-0.349	0.025
-92.786	-200.000	-0.033	-0.310
-91.772	-200.000	-0.016	0.174
-90.757	-159.004	0.149	-0.008
-89.743	-70.943	0.161	-0.059
-88.728	-60.676	-0.074	-0.031
-87.713	-10.546	0.165	-0.107
-86.699	171.808	-0.091	0.128
-85.684	-36.400	-0.093	0.049
-84.670	-150.218	-0.261	-0.020
-83.655	-200.000	0.180	0.001
-82.640	800.000	0.034	-0.114
-81.626	25.005	-0.191	-0.154
-80.611	602.897	-0.101	-0.246
-79.597	51.558	-0.044	0.041
-78.582	-200.000	-0.019	-0.085
-77.567	-200.000	-0.003	-0.077
-76.553	-188.769	-0.469	-0.006
-75.538	569.003	0.108	-0.256
-74.524	213.453	0.114	-0.176
-73.509	-200.000	0.060	-0.271
-72.494	800.000	-0.008	0.033
-71.480	-62.865	0.030	-0.012
-70.465	249.824	-0.048	-0.080
-69.451	-200.000	0.024	-0.152
-68.436	-200.000	-0.043	-0.301
-67.422	-50.030	0.309	-0.143
-66.407	32.767	-0.276	0.233
-65.392	268.470	-0.049	0.084
-64.378	216.618	0.091	-0.142
-63.363	-200.000	0.058	-0.286
-62.349	800.000	0.031	0.105
-61.334	115.154	-0.835	-0.994
-60.319	63.376	0.710	0.694
-59.305	341.756	-0.552	-1.052
-58.290	195.612	0.865	1.282
-57.276	800.000	0.502	1.488
-56.261	-200.000	124.227	640.696
-55.246	408.936	1562.919	3225.319
-54.232	143.544	2722.055	3534.167
-53.217	94.354	2183.862	2417.549
-52.203	33.664	1702.958	1443.252
-51.188	26.261	1520.273	1237.870
-50.173	24.342	1497.047	1205.948
-49.159	47.967	1568.237	1428.180
-48.144	45.740	1580.977	1424.270
-47.130	26.453	1529.392	1246.420
-46.115	23.577	1513.512	1213.787
-45.100	23.382	1510.108	1209.675
-44.086	23.341	1508.484	1208.052
-43.071	23.324	1506.353	1206.182
-42.057	23.285	1504.682	1204.526
-41.042	23.371	1502.973	1203.700
-40.027	23.278	1501.696	1201.997
-39.013	23.282	1499.767	1200.432
-37.998	23.187	1499.799	1199.768
-36.984	23.266	1497.766	1198.626
-35.969	23.210	1496.818	1197.443
-34.954	23.241	1494.972	1196.124
-33.940	23.293	1493.327	1195.110
-32.925	23.237	1492.707	1194.192
-31.911	23.397	1490.902	1193.780
-30.896	23.296	1489.712	1192.102
-29.881	23.398	1488.424	1191.709
-28.867	23.469	1486.924	1190.936
-27.852	23.357	1485.770	1189.211
-26.838	23.341	1484.523	1188.060
-25.823	23.323	1482.631	1186.375
-24.809	23.290	1480.742	1184.597
-23.794	23.361	1479.501	1184.036
-22.779	23.434	1478.353	1183.554
-21.765	23.392	1477.129	1182.250
-20.750	23.308	1476.452	1181.098
-19.736	23.349	1475.171	1180.301
-18.721	23.350	1474.052	1179.362
-17.706	23.288	1472.884	1177.972
-16.692	23.245	1472.085	1176.997
-15.677	23.370	1470.631	1176.620
-14.663	23.379	1470.117	1176.224
-13.648	23.212	1469.165	1174.307
-12.633	23.193	1468.493	1173.598
-11.619	23.354	1467.132	1173.528
-10.604	23.186	1467.042	1172.295
-9.590	23.286	1465.544	1171.715
-8.575	23.215	1465.096	1170.839
-7.560	23.234	1463.926	1169.982
-6.546	23.318	1462.806	1169.596
-5.531	23.251	1462.333	1168.733
-4.517	23.288	1461.405	1168.186
-3.502	23.287	1460.083	1167.075
-2.487	23.328	1459.498	1166.835
-1.473	23.256	1458.273	1165.334
-0.458	23.229	1456.843	1163.966
0.556	21.590	1447.178	1153.247
1.571	18.788	1423.164	1115.834
2.586	15.520	1363.069	1048.259
3.600	14.080	1279.625	975.556
4.615	13.222	1235.791	937.190
5.629	11.628	1179.251	885.598
6.644	5.663	1097.783	794.181
7.659	0.961	1061.399	744.705
8.673	0.278	1056.507	737.864
9.688	0.221	1053.247	735.242
10.702	0.133	1051.831	733.760
11.717	0.058	1049.511	731.715
12.731	2.020	1050.776	742.078
13.746	8.533	1059.010	779.668
14.761	14.678	1066.886	815.495
15.775	16.635	1069.296	826.836
16.790	16.535	1067.694	825.038
17.804	15.398	1065.825	817.981
18.819	14.561	1064.176	812.566
19.834	14.135	1062.538	809.174
20.848	13.819	1061.979	807.138
21.863	13.672	1060.947	805.570
22.877	13.462	1060.153	803.874
23.892	13.260	1059.232	802.125
24.907	13.205	1058.273	801.064
25.921	13.121	1057.766	800.198
26.936	13.208	1057.158	800.090
27.950	13.246	1056.213	799.487
28.965	13.253	1055.738	799.093
29.980	13.360	1054.975	798.959
30.994	13.295	1053.500	797.459
32.009	13.406	1052.900	797.471
33.023	13.431	1052.384	797.130
34.038	13.319	1051.586	795.914
35.053	13.254	1051.354	795.355
36.067	13.309	1050.187	794.665
37.082	13.195	1049.392	793.449
38.096	13.353	1048.299	793.312
39.111	13.267	1048.004	792.603
40.126	13.301	1046.778	791.772
41.140	13.343	1045.614	791.017
42.155	13.248	1044.910	789.961
43.169	13.094	1044.023	788.488
44.184	13.150	1042.676	787.665
45.199	13.023	1041.781	786.316
46.213	13.169	1040.677	786.107
47.228	13.273	1039.688	785.784
48.242	13.286	1038.424	784.825
49.257	13.414	1037.472	784.643
50.271	13.289	1036.703	783.395
51.286	13.309	1035.756	782.706
52.301	13.336	1034.754	782.008
53.315	13.135	1034.442	780.753
54.330	13.338	1033.403	780.860
55.344	13.291	1032.192	779.652
56.359	13.256	1031.141	778.624
57.374	13.228	1030.286	777.777
58.388	13.275	1029.419	777.276
59.403	13.112	1029.169	776.252
60.417	13.210	1027.616	775.472
61.432	13.292	1026.988	775.316
62.447	13.122	1026.203	773.857
63.461	13.116	1025.469	773.208
64.476	12.986	1024.729	771.973
65.490	12.993	1023.932	771.334
66.505	13.054	1023.218	771.017
67.520	13.114	1022.373	770.591
68.534	13.142	1020.956	769.584
69.549	13.183	1020.878	769.650
70.563	13.287	1019.815	769.264
71.578	13.180	1019.463	768.432
72.593	13.165	1018.767	767.771
73.607	13.112	1017.788	766.717
74.622	13.047	1016.505	765.385
75.636	13.043	1015.665	764.662
76.651	13.043	1014.789	763.938
77.666	12.981	1014.369	763.265
78.680	13.097	1013.366	762.981
79.695	13.111	1012.945	762.661
80.709	13.168	1012.562	762.565
81.724	13.148	1011.613	761.692
82.739	13.292	1009.984	761.060
83.753	13.164	1010.243	760.599
84.768	13.219	1009.294	760.072
85.782	13.286	1008.069	759.388
86.797	13.307	1007.667	759.116
87.812	13.353	1006.941	758.713
88.826	13.241	1005.961	757.393
89.841	13.176	1005.186	756.445
90.855	13.257	1004.003	755.861
91.870	13.357	1003.452	755.835
92.884	13.348	1002.967	755.362
93.899	13.410	1001.627	754.569
94.914	13.388	1001.119	754.018
95.928	13.482	1000.256	753.730
96.943	13.417	999.716	752.959
97.957	13.433	999.009	752.433
98.972	13.245	998.396	751.050
99.987	13.323	997.614	750.749
101.001	13.416	996.731	750.441
102.016	13.334	996.187	749.593
103.030	13.285	995.349	748.674
104.045	13.379	993.774	747.847
105.060	13.442	992.809	747.341
106.074	13.227	992.307	745.927
107.089	13.295	990.924	745.127
108.103	13.241	990.329	744.373
109.118	13.294	989.287	743.762
110.133	13.170	988.842	742.803
111.147	13.261	987.783	742.348
112.162	13.211	986.997	741.469
113.176	13.250	986.215	740.992
114.191	13.175	985.602	740.127
115.206	13.416	983.894	739.857
116.220	13.358	983.409	739.168
117.235	13.277	982.644	738.167
118.249	13.294	981.571	737.372
119.264	13.225	980.792	736.415
120.279	13.248	980.386	736.145
121.293	13.309	979.433	735.635
122.308	13.245	978.718	734.749
123.322	13.299	977.188	733.777
124.337	13.143	976.769	732.704
125.352	13.229	975.376	731.975
126.366	13.149	974.662	731.020
127.381	13.146	973.201	729.848
128.395	13.136	972.456	729.179
129.410	13.189	971.165	728.380
130.424	13.135	970.632	727.680
131.439	13.228	969.448	727.135
132.454	13.249	968.799	726.676
133.468	13.234	968.033	725.971
134.483	13.270	967.189	725.432
135.497	13.302	966.753	725.181
136.512	13.247	966.089	724.380
137.527	13.238	965.267	723.660
138.541	13.266	964.316	723.004
139.556	13.217	964.030	722.514
140.570	13.345	962.689	722.002
141.585	13.405	962.072	721.736
142.600	13.452	961.064	721.124
143.614	13.458	960.637	720.765
144.629	13.439	959.931	720.089
145.643	13.450	959.252	719.561
146.658	13.497	958.234	718.940
147.673	13.503	957.220	718.142
148.687	13.427	956.829	717.457
149.702	13.471	955.519	716.601
150.716	13.386	955.226	715.950
151.731	13.510	954.050	715.541
152.746	13.479	953.533	714.955
153.760	13.325	952.698	713.600
154.775	13.304	951.974	712.906
155.789	13.547	950.847	713.043
156.804	13.436	950.577	712.300
157.819	13.463	949.458	711.516
158.833	13.490	948.942	711.183
159.848	13.555	948.406	710.996
160.862	13.545	947.635	710.313
161.877	13.600	946.836	709.886
162.892	13.506	946.040	708.824
163.906	13.450	945.334	707.993
164.921	13.454	944.406	707.253
165.935	13.468	943.328	706.443
166.950	13.515	942.033	705.613
167.964	13.588	941.288	705.302
168.979	13.679	940.556	705.078
169.994	13.644	939.507	704.079
171.008	13.534	938.967	703.147
172.023	13.674	938.118	703.043
173.037	13.623	937.307	702.156
174.052	13.765	936.483	702.078
175.067	13.672	935.745	701.067
176.081	13.761	934.715	700.612
177.096	13.664	934.006	699.608
178.110	13.618	933.386	698.888
179.125	13.606	932.500	698.113
180.140	13.638	931.826	697.678
181.154	13.841	930.915	697.790
182.169	13.653	930.742	696.807
183.183	13.793	929.869	696.679
184.198	13.797	929.132	696.083
185.213	13.800	928.675	695.694
186.227	13.871	927.602	695.123
187.242	13.832	927.024	694.468
188.256	13.881	926.208	694.000
189.271	13.955	925.921	694.031
190.286	13.986	924.489	693.028
191.300	13.813	924.125	691.970
192.315	13.716	923.819	691.277
193.329	13.542	923.558	690.292
194.344	13.784	922.111	690.157
195.359	13.790	921.947	689.997
196.373	13.771	921.537	689.552
197.388	13.842	920.779	689.218
198.402	14.019	919.842	689.189
199.417	14.024	919.750	689.080
200.432	14.071	919.496	689.026
201.446	14.064	918.789	688.404
202.461	14.003	918.558	687.919
203.475	14.086	917.931	687.731
204.490	14.210	917.200	687.637
205.504	14.180	916.285	686.764
206.519	14.212	915.065	685.923
207.534	14.004	915.168	685.081
208.548	14.083	914.044	684.503
209.563	14.065	913.280	683.799
210.577	14.084	912.821	683.470
211.592	14.308	911.658	683.462
212.607	14.098	911.874	682.701
213.621	14.265	911.089	682.734
214.636	14.276	910.098	681.978
215.650	14.254	909.746	681.562
216.665	14.115	909.324	680.619
217.680	14.438	908.188	681.026
218.694	14.243	908.287	680.244
219.709	14.332	907.473	679.938
220.723	14.464	906.512	679.695
221.738	14.349	905.836	678.660
222.753	14.289	905.204	677.884
223.767	14.367	904.299	677.463
224.782	14.431	903.400	676.990
225.796	14.396	903.127	676.581
226.811	14.295	902.384	675.557
227.826	14.411	901.823	675.546
228.840	14.559	900.931	675.416
229.855	14.564	900.073	674.734
230.869	14.366	899.897	673.742
231.884	14.414	898.993	673.201
232.899	14.346	898.814	672.733
233.913	14.457	897.410	672.068
234.928	14.409	897.268	671.711
235.942	14.486	896.674	671.518
236.957	14.282	895.588	669.824
237.972	14.462	895.078	670.105
238.986	14.452	894.547	669.608
240.001	14.246	894.501	668.689
241.015	14.395	893.329	668.351
242.030	14.347	892.707	667.635
243.045	14.426	891.808	667.217
244.059	14.576	891.308	667.385
245.074	14.618	890.526	666.908
246.088	14.546	890.215	666.328
247.103	14.575	889.637	665.955
248.117	14.739	888.453	665.661
249.132	14.686	888.561	665.473
250.147	14.749	887.558	664.915
251.161	14.796	887.195	664.771
252.176	14.990	886.270	664.789
253.190	14.901	885.486	663.787
254.205	14.937	885.328	663.753
255.220	14.934	884.870	663.341
256.234	14.885	883.919	662.375
257.249	14.894	883.418	661.977
258.263	14.942	882.419	661.357
259.278	15.017	882.038	661.312
260.293	15.004	881.603	660.876
261.307	15.010	880.848	660.273
262.322	15.001	880.060	659.589
263.336	15.066	879.809	659.600
264.351	15.153	878.941	659.232
265.366	15.061	878.516	658.493
266.380	15.133	878.024	658.349
267.395	15.138	877.240	657.723
268.409	15.159	876.265	657.015
269.424	15.205	875.643	656.671
270.439	15.047	875.145	655.620
271.453	15.189	874.391	655.552
272.468	15.128	873.577	654.645
273.482	15.071	873.118	654.021
274.497	15.180	872.335	653.804
275.512	15.155	871.916	653.333
276.526	15.197	870.794	652.601
277.541	15.129	870.419	651.997
278.555	15.215	869.653	651.697
279.570	15.247	869.468	651.625
280.585	15.351	868.421	651.189
281.599	15.417	867.742	650.879
282.614	15.414	867.268	650.453
283.628	15.457	866.758	650.180
284.643	15.382	866.309	649.494
285.657	15.365	865.897	649.062
286.672	15.423	864.970	648.533
287.687	15.285	865.009	647.975
288.701	15.487	863.924	647.883
289.716	15.470	863.499	647.439
290.730	15.491	862.960	647.061
291.745	15.561	862.545	646.962
292.760	15.505	861.559	645.951
293.774	15.667	860.995	646.094
294.789	15.499	860.609	645.099
295.803	15.548	860.016	644.788
296.818	15.445	859.607	644.027
297.833	15.466	858.441	643.178
298.847	15.662	857.779	643.373
299.862	15.533	857.169	642.367
300.876	15.644	856.549	642.270
301.891	15.714	855.478	641.676
302.906	15.754	855.072	641.470
303.920	15.702	854.771	640.987
304.935	15.830	853.646	640.574
305.949	15.660	853.283	639.597
306.964	15.746	852.830	639.530
307.979	15.669	852.285	638.771
308.993	15.750	851.652	638.548
310.008	15.968	850.837	638.708
311.022	15.740	850.719	637.698
312.037	15.833	850.193	637.600
313.052	15.843	849.511	637.069
314.066	15.835	848.868	636.500
315.081	15.783	848.506	635.976
316.095	15.864	847.870	635.749
317.110	15.861	847.067	635.081
318.125	15.813	846.878	634.701
319.139	15.838	846.225	634.249
320.154	15.780	845.370	633.332
321.168	15.734	845.213	632.988
322.183	15.971	844.263	633.110
323.197	16.047	843.929	633.088
324.212	15.814	843.830	632.083
325.227	15.951	842.956	631.888
326.241	15.992	842.440	631.598
327.256	15.882	841.676	630.558
328.270	15.937	841.181	630.338
329.285	15.884	840.500	629.574
330.300	16.063	839.764	629.633
331.314	15.932	839.951	629.230
332.329	15.973	838.991	628.606
333.343	16.025	838.236	628.181
334.358	16.066	837.958	628.070
335.373	16.053	837.229	627.416
336.387	16.089	837.051	627.365
337.402	16.166	836.251	626.994
338.416	16.056	835.839	626.223
339.431	16.138	835.228	626.012
340.446	16.320	834.387	626.003
341.460	16.152	834.161	625.152
342.475	16.271	833.400	624.968
343.489	16.225	833.159	624.562
344.504	16.240	832.424	624.011
345.519	16.235	831.916	623.559
346.533	16.213	831.302	622.963
347.548	16.333	830.998	623.122
348.562	16.358	830.503	622.788
349.577	16.373	829.526	622.052
350.592	16.378	828.767	621.448
351.606	16.373	828.487	621.165
352.621	16.284	828.046	620.451
353.635	16.292	827.982	620.377
354.650	16.325	827.518	620.098
355.665	16.299	827.165	619.682
356.679	16.432	826.478	619.601
357.694	16.563	826.023	619.686
358.708	16.381	825.393	618.491
359.723	16.466	825.101	618.528
360.738	16.424	824.293	617.715
361.752	16.524	823.907	617.735
362.767	16.552	823.082	617.164
363.781	16.625	822.921	617.255
364.796	16.633	822.469	616.892
365.810	16.641	821.889	616.433
366.825	16.646	821.739	616.281
367.840	16.763	821.427	616.419
368.854	16.679	821.188	615.882
369.869	16.676	820.588	615.365
370.883	16.554	820.152	614.539
371.898	16.739	819.272	614.498
372.913	16.854	818.733	614.457
373.927	16.826	818.221	613.915
374.942	16.774	817.454	613.097
375.956	16.761	816.755	612.471
376.971	16.893	816.172	612.460
377.986	16.776	815.720	611.643
379.000	16.937	815.595	612.074
380.015	16.978	814.701	611.497
381.029	16.945	814.421	611.116
382.044	16.988	813.641	610.630
383.059	17.012	813.057	610.226
384.073	16.977	812.837	609.880
385.088	16.941	812.025	609.089
386.102	17.111	811.464	609.222
387.117	16.888	811.218	608.183
388.132	16.945	810.580	607.855
389.146	17.038	810.415	608.012
390.161	16.960	809.864	607.264
391.175	17.079	809.442	607.321
392.190	16.905	809.273	606.518
393.205	17.116	808.297	606.488
394.219	17.080	807.965	606.054
395.234	16.967	807.465	605.223
396.248	17.042	807.190	605.230
397.263	16.993	806.837	604.737
398.278	17.053	806.264	604.468
399.292	17.067	805.433	603.840
400.307	17.246	805.116	604.187
401.321	16.923	805.569	603.324
402.336	17.157	804.710	603.458
403.350	17.179	803.857	602.846
404.365	17.185	803.695	602.689
405.380	17.275	803.249	602.624
406.394	17.295	802.768	602.281
407.409	17.186	802.368	601.539
408.423	17.290	801.692	601.349
409.438	17.262	801.401	600.976
410.453	17.405	800.998	601.128
411.467	17.336	800.579	600.515
412.482	17.473	800.194	600.658
413.496	17.424	799.757	600.103
414.511	17.437	799.317	599.766
415.526	17.616	798.618	599.818
416.540	17.571	798.263	599.340
417.555	17.335	798.071	598.315
418.569	17.339	797.233	597.646
419.584	17.435	797.388	598.048
420.599	17.609	796.557	597.982
421.613	113.420	1297.885	1487.202
422.628	97.653	1370.907	1487.299
