DTS Sentinel unit serial number:	SN413079Multiplexer serial number:	ORYXHardware model number:	OX4-SRSoftware version number:	ORYX F/W v4.00 Oryx Data Collector v3.7.2.0data status	okinstallation	princeton_trtdifferential loss correction	single-endedforward channel	channel 3reverse channel	N/Adate	2019/09/18time	16:44:35forward acquisition time	60.00reverse acquisition time	0.00gamma	496.2192k internal	0.2292k external	0.2292temperature offset calibration	0.9985default loss term (dB/km)	0.3790temperature slope calibration	1.0000multiplexer offset coefficient	1.0000multiplexer slope coefficient	1.0000fibre end	0.00T internal ref (°C)	39.87T ext. ref 1 (°C)	0.84T ext. ref 2 (°C)	36.27length (m)	temperature (°C)	Stokes	anti-Stokes-747.200	178.324	-0.140	0.209
-746.185	9.586	-0.175	0.136
-745.171	206.018	0.006	0.009
-744.156	7.220	0.195	0.149
-743.142	-200.000	-0.030	0.451
-742.127	89.742	-0.184	0.210
-741.112	800.000	-0.032	0.119
-740.098	27.534	-0.213	0.183
-739.083	-6.849	0.083	-0.058
-738.069	709.237	0.028	0.075
-737.054	-200.000	-0.002	-0.186
-736.039	100.486	-0.042	0.050
-735.025	-139.102	0.216	0.024
-734.010	800.000	0.035	0.120
-732.996	82.548	0.091	0.101
-731.981	800.000	-0.038	0.114
-730.966	-200.000	0.003	-0.071
-729.952	258.372	0.049	-0.086
-728.937	-200.000	-0.020	0.147
-727.923	-68.515	-0.163	0.065
-726.908	-2.325	0.205	0.147
-725.894	-88.681	-0.539	-0.164
-724.879	-77.263	-0.172	-0.061
-723.864	-24.684	-0.178	-0.108
-722.850	-108.324	-0.351	0.077
-721.835	800.000	-0.133	-0.492
-720.821	162.795	0.134	0.193
-719.806	-95.260	0.238	-0.066
-718.791	800.000	-0.064	-0.215
-717.777	446.443	0.103	-0.231
-716.762	422.658	-0.083	-0.181
-715.748	189.850	0.249	0.382
-714.733	-200.000	-0.377	0.001
-713.718	-28.819	-0.268	-0.158
-712.704	-200.000	-0.006	-0.069
-711.689	94.447	-0.357	-0.415
-710.675	-200.000	-0.055	0.356
-709.660	92.778	-0.109	-0.125
-708.645	14.125	-0.342	-0.272
-707.631	-102.723	-0.119	-0.029
-706.616	-162.602	-0.098	-0.005
-705.602	-200.000	0.009	0.126
-704.587	533.648	-0.132	-0.320
-703.572	-200.000	0.018	-0.336
-702.558	-81.831	-0.264	-0.089
-701.543	800.000	0.026	-0.085
-700.529	30.467	0.142	-0.124
-699.514	674.600	0.119	-0.316
-698.499	69.738	-0.195	-0.205
-697.485	-61.822	0.163	-0.070
-696.470	54.043	-0.193	0.190
-695.456	37.287	0.254	0.230
-694.441	-124.852	0.363	0.057
-693.426	374.955	0.025	0.052
-692.412	800.000	-0.079	-0.322
-691.397	800.000	0.046	-0.174
-690.383	17.957	0.091	0.074
-689.368	-68.793	-0.284	-0.112
-688.354	-191.222	-0.088	-0.001
-687.339	-2.742	0.187	-0.133
-686.324	-200.000	-0.015	0.295
-685.310	-200.000	0.006	0.237
-684.295	-130.945	0.206	-0.028
-683.281	800.000	0.119	0.377
-682.266	-8.463	0.140	-0.096
-681.251	-62.298	0.321	0.137
-680.237	-112.683	-0.169	-0.034
-679.222	-21.388	0.203	0.127
-678.208	396.162	0.016	0.035
-677.193	183.578	-0.172	-0.260
-676.178	-200.000	-0.018	-0.158
-675.164	-31.009	-0.270	-0.156
-674.149	7.446	0.082	-0.063
-673.135	24.095	-0.155	-0.130
-672.120	-135.695	0.083	0.010
-671.105	-200.000	0.036	-0.190
-670.091	-200.000	-0.031	-0.197
-669.076	78.950	-0.158	-0.173
-668.062	-200.000	0.019	-0.100
-667.047	28.841	-0.242	-0.209
-666.032	-200.000	0.029	0.301
-665.018	-200.000	-0.061	0.425
-664.003	-18.137	-0.256	-0.163
-662.989	-200.000	-0.018	-0.312
-661.974	-64.472	-0.204	0.085
-660.959	238.686	0.102	0.172
-659.945	399.852	0.071	-0.151
-658.930	-66.461	0.170	0.069
-657.916	-200.000	0.023	-0.238
-656.901	111.786	-0.125	-0.154
-655.886	-200.000	-0.020	0.097
-654.872	800.000	-0.019	0.071
-653.857	-135.599	-0.183	0.022
-652.843	800.000	0.068	-0.279
-651.828	-142.701	-0.217	-0.022
-650.814	-200.000	-0.039	0.306
-649.799	156.588	0.106	0.150
-648.784	-18.249	-0.205	0.131
-647.770	112.059	0.041	0.050
-646.755	33.764	-0.092	-0.082
-645.741	-73.114	-0.198	0.074
-644.726	-2.608	-0.211	-0.150
-643.711	-178.544	-0.043	0.001
-642.697	50.941	0.190	-0.183
-641.682	112.385	-0.070	-0.087
-640.668	-73.610	-0.166	-0.062
-639.653	-40.968	-0.176	-0.093
-638.638	-200.000	-0.006	-0.078
-637.624	-94.150	-0.233	0.065
-636.609	5.578	0.369	0.278
-635.595	-200.000	-0.093	-0.630
-634.580	-47.212	0.089	0.044
-633.565	-118.667	-0.080	-0.014
-632.551	-200.000	0.017	-0.213
-631.536	-143.675	-0.189	-0.018
-630.522	-105.519	-0.205	0.047
-629.507	800.000	-0.023	0.101
-628.492	66.143	0.138	-0.142
-627.478	-56.947	0.483	0.217
-626.463	-200.000	-0.022	0.106
-625.449	-2.717	-0.176	0.125
-624.434	107.871	-0.280	0.340
-623.419	-33.262	-0.133	-0.075
-622.405	365.805	-0.162	-0.332
-621.390	330.570	0.035	-0.069
-620.376	-193.022	-0.481	-0.004
-619.361	57.772	0.093	0.093
-618.346	-116.258	0.307	-0.058
-617.332	-63.776	-0.135	-0.056
-616.317	800.000	0.049	0.147
-615.303	-117.197	-0.130	0.024
-614.288	243.907	0.151	0.258
-613.273	-113.342	0.253	0.051
-612.259	800.000	-0.080	0.308
-611.244	800.000	0.078	0.261
-610.230	-1.507	0.084	-0.060
-609.215	800.000	0.086	-0.348
-608.201	-200.000	0.063	0.381
-607.186	800.000	0.056	0.216
-606.171	645.809	-0.066	-0.171
-605.157	-43.010	-0.080	0.042
-604.142	-200.000	-0.006	-0.085
-603.128	-21.837	-0.026	-0.016
-602.113	102.357	0.083	0.099
-601.098	-144.930	0.209	-0.019
-600.084	-38.821	0.087	0.047
-599.069	-59.926	0.098	0.043
-598.055	-16.334	-0.281	0.181
-597.040	-200.000	0.047	-0.210
-596.025	-103.458	-0.294	-0.070
-595.011	-200.000	-0.090	0.430
-593.996	800.000	-0.058	-0.209
-592.982	-200.000	0.007	-0.128
-591.967	-200.000	0.004	-0.034
-590.952	22.023	-0.222	0.185
-589.938	-54.106	-0.098	0.045
-588.923	151.350	-0.083	-0.115
-587.909	-146.132	0.430	0.039
-586.894	800.000	-0.118	0.353
-585.879	571.052	0.106	-0.262
-584.865	-41.042	0.261	-0.137
-583.850	-68.703	-0.290	-0.114
-582.836	-31.104	-0.128	0.073
-581.821	311.448	0.153	0.293
-580.806	101.881	0.141	0.168
-579.792	-132.805	-0.306	-0.040
-578.777	43.076	0.145	-0.135
-577.763	800.000	-0.122	-0.407
-576.748	-128.252	0.265	-0.038
-575.733	330.803	0.171	-0.334
-574.719	-85.202	-0.117	0.037
-573.704	-55.743	0.292	0.133
-572.690	800.000	-0.055	0.202
-571.675	52.763	-0.144	-0.140
-570.661	-200.000	-0.002	0.090
-569.646	800.000	-0.029	-0.117
-568.631	-128.573	0.131	-0.019
-567.617	-109.407	0.221	0.048
-566.602	198.096	0.044	-0.069
-565.588	-22.872	-0.171	-0.105
-564.573	6.383	-0.315	0.237
-563.558	-83.020	0.406	-0.133
-562.544	52.362	-0.132	0.128
-561.529	465.743	0.085	0.192
-560.515	-117.758	0.248	0.045
-559.500	-78.646	-0.084	-0.029
-558.485	-113.416	-0.471	0.094
-557.471	800.000	-0.070	0.236
-556.456	179.041	0.109	-0.161
-555.442	35.783	-0.123	0.110
-554.427	1.403	0.246	0.180
-553.412	703.389	-0.022	0.058
-552.398	-8.162	-0.084	0.057
-551.383	-35.239	0.114	0.063
-550.369	126.512	-0.203	0.261
-549.354	0.241	0.040	0.029
-548.339	-2.454	0.159	-0.113
-547.325	541.845	0.108	0.262
-546.310	-35.076	-0.059	0.033
-545.296	-200.000	-0.014	0.063
-544.281	-70.658	-0.273	0.105
-543.266	-49.143	0.072	0.035
-542.252	-124.533	0.097	-0.015
-541.237	154.069	0.205	-0.285
-540.223	800.000	0.052	-0.232
-539.208	362.137	0.054	0.111
-538.193	-82.251	0.359	0.119
-537.179	103.112	0.104	0.124
-536.164	-44.060	-0.163	0.083
-535.150	-166.278	-0.130	0.006
-534.135	-2.854	0.159	0.113
-533.121	167.203	-0.247	-0.356
-532.106	-43.920	-0.111	-0.057
-531.091	99.714	0.134	0.158
-530.077	800.000	0.041	0.135
-529.062	138.897	-0.099	-0.131
-528.048	1.773	-0.246	0.180
-527.033	527.476	0.101	0.242
-526.018	-62.813	0.256	-0.108
-525.004	-145.331	0.161	-0.015
-523.989	-115.244	-0.653	0.125
-522.975	-3.366	0.133	-0.094
-521.960	800.000	0.080	-0.331
-520.945	142.033	0.130	0.175
-519.931	-144.060	-0.255	0.024
-518.916	800.000	0.064	-0.230
-517.902	-200.000	0.024	0.155
-516.887	6.622	0.147	0.111
-515.872	800.000	-0.077	-0.237
-514.858	-171.918	0.178	-0.006
-513.843	-200.000	0.006	0.059
-512.829	0.482	-0.081	-0.058
-511.814	-200.000	-0.009	-0.074
-510.799	-200.000	0.004	-0.278
-509.785	91.778	0.393	-0.448
-508.770	-200.000	-0.023	0.223
-507.756	78.317	0.078	0.085
-506.741	-6.738	0.192	-0.132
-505.726	-130.707	-0.195	0.027
-504.712	-200.000	0.040	0.244
-503.697	-99.079	-0.318	0.082
-502.683	-179.711	0.072	-0.002
-501.668	-200.000	-0.000	0.117
-500.653	71.530	-0.266	0.280
-499.639	221.352	0.079	-0.128
-498.624	472.937	0.146	0.334
-497.610	-150.609	-0.138	0.011
-496.595	420.669	-0.017	-0.036
-495.581	659.657	-0.066	-0.171
-494.566	-38.171	0.012	-0.007
-493.551	143.956	-0.206	0.279
-492.537	-200.000	0.016	0.286
-491.522	200.250	-0.142	-0.221
-490.508	800.000	-0.054	-0.151
-489.493	-33.042	0.103	0.058
-488.478	96.406	0.108	-0.125
-487.464	-133.208	-0.086	-0.011
-486.449	-200.000	0.019	-0.212
-485.435	-200.000	0.001	-0.156
-484.420	115.235	0.099	-0.122
-483.405	800.000	0.058	-0.202
-482.391	98.892	0.044	0.052
-481.376	-200.000	0.006	-0.141
-480.362	-83.685	0.068	0.022
-479.347	-200.000	-0.031	-0.144
-478.332	-89.103	0.320	-0.096
-477.318	-8.847	-0.207	-0.141
-476.303	-200.000	-0.038	0.257
-475.289	123.211	0.125	0.158
-474.274	265.517	0.037	0.066
-473.259	800.000	-0.137	-0.417
-472.245	-81.822	-0.129	-0.043
-471.230	-107.403	-0.355	-0.079
-470.216	800.000	0.020	-0.077
-469.201	-58.382	0.158	-0.070
-468.186	-114.483	-0.335	0.065
-467.172	7.700	-0.133	-0.101
-466.157	800.000	-0.045	0.164
-465.143	653.075	0.108	0.281
-464.128	-123.179	-0.206	-0.033
-463.113	-200.000	0.016	-0.309
-462.099	-200.000	0.007	-0.096
-461.084	625.205	0.064	-0.165
-460.070	-195.201	-0.225	-0.002
-459.055	-200.000	-0.013	0.183
-458.040	-162.837	-0.336	-0.017
-457.026	-200.000	-0.023	-0.230
-456.011	-200.000	-0.019	-0.137
-454.997	161.053	0.119	-0.168
-453.982	-21.206	0.118	-0.073
-452.968	800.000	-0.028	-0.100
-451.953	246.661	0.133	0.227
-450.938	13.730	0.096	0.076
-449.924	35.463	0.218	0.193
-448.909	-51.107	-0.114	0.054
-447.895	-79.059	-0.291	-0.100
-446.880	800.000	0.129	0.434
-445.865	172.300	0.072	0.105
-444.851	800.000	-0.115	-0.338
-443.836	-200.000	-0.029	-0.189
-442.822	-132.660	0.092	-0.012
-441.807	-33.756	-0.125	0.070
-440.792	-92.890	-0.151	-0.043
-439.778	-200.000	0.005	-0.258
-438.763	-58.153	-0.292	0.129
-437.749	-200.000	-0.015	0.329
-436.734	-37.827	-0.115	0.062
-435.719	424.176	-0.107	0.233
-434.705	800.000	0.073	0.242
-433.690	-200.000	0.039	-0.204
-432.676	367.086	0.151	0.308
-431.661	453.693	0.072	-0.161
-430.646	8.424	-0.171	-0.130
-429.632	-106.947	0.143	0.032
-428.617	-36.097	-0.320	-0.175
-427.603	146.798	-0.099	0.135
-426.588	8.206	0.107	0.082
-425.573	-180.324	-0.243	-0.005
-424.559	-5.776	0.211	0.146
-423.544	800.000	-0.049	0.143
-422.530	-200.000	0.010	0.107
-421.515	-51.961	0.127	-0.060
-420.500	-200.000	0.032	-0.336
-419.486	-78.346	0.211	-0.073
-418.471	-38.994	-0.027	-0.014
-417.457	800.000	0.008	-0.033
-416.442	74.056	-0.182	0.193
-415.428	-16.851	0.253	-0.161
-414.413	-114.746	0.310	-0.060
-413.398	-68.140	0.080	0.032
-412.384	-90.283	0.225	-0.066
-411.369	-93.356	-0.123	0.034
-410.355	-34.283	-0.118	0.066
-409.340	-200.000	0.016	0.293
-408.325	-90.405	0.035	0.010
-407.311	151.534	-0.248	0.341
-406.296	-88.812	0.255	-0.076
-405.282	215.411	-0.145	0.233
-404.267	-200.000	-0.023	-0.117
-403.252	800.000	0.058	-0.187
-402.238	-87.743	0.140	-0.042
-401.223	800.000	0.082	0.351
-400.209	-184.673	0.332	-0.005
-399.194	201.361	0.080	-0.125
-398.179	164.985	0.053	-0.075
-397.165	-119.619	-0.116	-0.020
-396.150	82.234	0.096	0.106
-395.136	-58.035	0.169	-0.075
-394.121	223.136	-0.077	-0.126
-393.106	183.435	0.033	-0.050
-392.092	-32.821	0.079	-0.045
-391.077	-167.271	0.355	0.014
-390.063	-153.191	0.270	0.019
-389.048	-200.000	0.041	0.210
-388.033	402.127	-0.027	0.058
-387.019	76.298	0.135	-0.144
-386.004	-200.000	0.013	-0.068
-384.990	-103.038	0.177	-0.042
-383.975	-181.155	0.231	-0.005
-382.960	-200.000	0.018	0.142
-381.946	-91.579	0.297	0.085
-380.931	800.000	-0.080	-0.278
-379.917	-4.041	-0.164	-0.114
-378.902	-106.122	-0.177	0.040
-377.888	-200.000	-0.007	0.095
-376.873	-20.080	-0.148	0.092
-375.858	800.000	0.046	-0.181
-374.844	-200.000	-0.055	-0.271
-373.829	800.000	0.024	-0.100
-372.815	-150.244	-0.319	-0.025
-371.800	320.114	0.098	0.188
-370.785	-200.000	0.007	-0.037
-369.771	-65.484	-0.143	-0.058
-368.756	-64.264	-0.314	0.129
-367.742	222.244	-0.169	-0.274
-366.727	13.354	0.151	-0.118
-365.712	314.820	-0.043	0.081
-364.698	-78.898	-0.327	-0.112
-363.683	-118.872	0.208	0.037
-362.669	800.000	0.039	-0.123
-361.654	-78.461	-0.035	0.012
-360.639	-54.825	-0.266	0.121
-359.625	-200.000	-0.046	-0.322
-358.610	125.837	0.178	-0.226
-357.596	296.441	0.154	-0.284
-356.581	273.720	0.116	-0.207
-355.566	273.426	-0.161	-0.287
-354.552	28.828	-0.160	-0.137
-353.537	-128.701	-0.129	0.018
-352.523	377.354	-0.033	0.068
-351.508	800.000	0.028	0.123
-350.493	268.600	0.115	0.203
-349.479	-41.392	-0.105	0.054
-348.464	-200.000	-0.071	0.390
-347.450	-200.000	0.004	0.255
-346.435	-59.191	0.136	-0.059
-345.420	443.100	-0.039	0.085
-344.406	-54.726	-0.199	0.091
-343.391	-163.342	0.269	-0.013
-342.377	73.482	0.175	-0.185
-341.362	-7.472	-0.225	-0.154
-340.348	-200.000	-0.043	-0.194
-339.333	-200.000	-0.017	0.121
-338.318	-117.580	0.161	-0.029
-337.304	48.270	0.086	0.081
-336.289	144.314	-0.244	-0.328
-335.275	1.347	0.160	-0.116
-334.260	346.160	-0.261	-0.517
-333.245	-37.946	-0.048	0.026
-332.231	-200.000	0.039	0.329
-331.216	490.597	-0.023	0.053
-330.202	-200.000	-0.001	0.202
-329.187	-70.339	-0.201	0.077
-328.172	26.696	0.161	0.136
-327.158	800.000	-0.081	-0.290
-326.143	580.484	-0.054	-0.133
-325.129	179.445	0.147	-0.216
-324.114	10.564	0.081	0.062
-323.099	54.591	0.128	0.124
-322.085	800.000	-0.123	-0.377
-321.070	-82.050	0.318	0.105
-320.056	-71.937	-0.351	-0.131
-319.041	-145.839	0.272	0.024
-318.026	800.000	0.041	-0.154
-317.012	-200.000	0.008	0.106
-315.997	-200.000	0.018	-0.128
-314.983	477.610	0.173	0.395
-313.968	-81.185	0.151	0.050
-312.953	-43.990	0.198	-0.100
-311.939	-129.968	0.088	0.012
-310.924	-200.000	-0.015	-0.109
-309.910	-4.070	-0.039	0.027
-308.895	800.000	-0.016	0.060
-307.880	18.976	-0.250	0.201
-306.866	800.000	0.124	-0.515
-305.851	61.214	-0.141	0.141
-304.837	-190.537	-0.133	0.001
-303.822	-14.359	0.283	0.183
-302.807	-200.000	0.083	0.547
-301.793	-108.379	0.090	0.020
-300.778	-113.137	-0.124	0.025
-299.764	225.729	0.100	0.163
-298.749	176.847	0.120	-0.175
-297.735	47.458	0.181	0.170
-296.720	-52.077	0.152	0.071
-295.705	-63.430	0.155	0.064
-294.691	112.814	0.088	0.107
-293.676	151.559	-0.149	-0.204
-292.662	130.959	-0.388	0.501
-291.647	42.658	0.023	-0.021
-290.632	-93.662	0.106	0.030
-289.618	-104.384	-0.091	0.021
-288.603	800.000	0.044	-0.136
-287.589	-100.876	0.095	0.023
-286.574	496.127	0.066	0.152
-285.559	366.369	-0.101	-0.204
-284.545	134.425	0.317	-0.413
-283.530	76.712	-0.097	0.104
-282.516	-87.710	0.126	0.038
-281.501	-200.000	0.045	-0.204
-280.486	56.214	0.114	0.112
-279.472	-18.439	0.274	-0.172
-278.457	-63.007	-0.329	-0.137
-277.443	-49.216	-0.034	0.017
-276.428	340.258	0.114	-0.223
-275.413	-115.031	-0.252	-0.048
-274.399	-200.000	0.021	0.532
-273.384	-165.484	-0.171	-0.008
-272.370	22.873	-0.220	0.182
-271.355	-100.103	-0.303	0.076
-270.340	-82.254	-0.156	0.051
-269.326	-41.874	0.372	-0.192
-268.311	135.218	0.119	0.156
-267.297	-143.498	-0.373	-0.036
-266.282	-121.526	0.224	0.037
-265.267	534.796	0.088	-0.209
-264.253	10.819	0.114	-0.088
-263.238	-200.000	0.003	-0.023
-262.224	-181.592	0.162	-0.003
-261.209	-122.885	-0.102	-0.017
-260.195	-156.095	0.213	-0.014
-259.180	-44.525	0.240	0.120
-258.165	184.866	0.027	0.040
-257.151	-41.322	0.342	-0.177
-256.136	207.405	0.171	0.267
-255.122	-200.000	0.037	0.178
-254.107	800.000	0.015	0.049
-253.092	-131.172	0.229	-0.031
-252.078	337.847	-0.056	0.110
-251.063	14.794	0.080	0.063
-250.049	33.333	0.079	-0.069
-249.034	-200.000	0.015	0.110
-248.019	183.614	-0.153	0.228
-247.005	290.990	-0.178	-0.326
-245.990	-1.967	-0.448	-0.316
-244.976	60.699	-0.069	-0.069
-243.961	800.000	-0.051	-0.214
-242.946	800.000	0.055	0.237
-241.932	-200.000	-0.009	0.078
-240.917	6.063	-0.198	0.147
-239.903	-18.560	-0.169	0.106
-238.888	403.021	0.052	0.109
-237.873	751.080	-0.049	-0.133
-236.859	-57.155	-0.171	0.076
-235.844	-43.233	0.060	0.031
-234.830	-51.336	0.157	-0.074
-233.815	-8.572	-0.323	-0.218
-232.800	-200.000	0.030	-0.378
-231.786	54.995	0.278	0.269
-230.771	-178.218	-0.185	0.004
-229.757	-200.000	0.044	-0.420
-228.742	219.602	0.203	0.326
-227.727	800.000	-0.018	0.078
-226.713	800.000	-0.062	0.219
-225.698	-149.800	0.099	-0.008
-224.684	-102.417	-0.052	-0.013
-223.669	-2.945	0.283	0.198
-222.655	-128.563	-0.152	-0.022
-221.640	-200.000	0.012	0.078
-220.625	-147.913	0.214	-0.018
-219.611	5.907	0.258	-0.192
-218.596	-5.042	-0.377	0.260
-217.582	-135.754	-0.142	0.017
-216.567	-93.539	0.115	-0.032
-215.552	-7.385	-0.218	-0.148
-214.538	-30.911	0.222	-0.126
-213.523	84.734	-0.109	0.120
-212.509	-200.000	-0.014	-0.183
-211.494	-96.094	-0.161	0.043
-210.479	-148.017	0.163	-0.014
-209.465	601.108	0.051	0.127
-208.450	-200.000	-0.019	-0.115
-207.436	202.881	-0.026	-0.040
-206.421	158.610	-0.131	-0.182
-205.406	-200.000	-0.005	0.247
-204.392	-100.251	-0.361	0.090
-203.377	-27.755	0.081	-0.047
-202.363	800.000	-0.044	-0.147
-201.348	-20.640	-0.049	0.030
-200.333	-6.756	-0.155	-0.106
-199.319	-200.000	-0.034	-0.356
-198.304	800.000	0.107	0.328
-197.290	-200.000	0.006	-0.090
-196.275	72.964	0.164	0.172
-195.260	-131.919	-0.323	0.042
-194.246	113.558	0.166	-0.202
-193.231	310.113	-0.068	-0.127
-192.217	-200.000	-0.037	0.189
-191.202	-109.860	0.128	0.027
-190.187	15.946	-0.106	0.084
-189.173	-47.484	-0.281	0.137
-188.158	-127.521	0.307	-0.045
-187.144	-144.438	-0.136	-0.013
-186.129	800.000	-0.022	-0.080
-185.114	-129.769	0.408	0.056
-184.100	800.000	-0.064	-0.275
-183.085	-5.669	-0.291	-0.200
-182.071	-200.000	0.070	0.348
-181.056	60.531	0.215	0.213
-180.042	-139.721	0.193	0.021
-179.027	-22.039	-0.098	0.060
-178.012	-200.000	-0.057	-0.302
-176.998	12.333	-0.179	-0.138
-175.983	-104.361	-0.374	-0.087
-174.969	-116.937	0.114	0.021
-173.954	69.691	0.225	0.232
-172.939	-7.691	0.299	-0.203
-171.925	175.234	-0.128	0.185
-170.910	-81.766	0.153	-0.050
-169.896	-128.025	0.190	-0.027
-168.881	12.632	-0.266	-0.206
-167.866	-143.331	-0.094	0.009
-166.852	-200.000	-0.006	0.039
-165.837	-52.916	0.209	-0.096
-164.823	-36.722	0.145	-0.078
-163.808	800.000	0.065	0.252
-162.793	80.391	-0.181	0.195
-161.779	105.550	0.180	-0.213
-160.764	-95.914	-0.090	-0.024
-159.750	202.553	0.117	0.181
-158.735	800.000	0.076	0.316
-157.720	-200.000	-0.048	-0.295
-156.706	147.038	-0.080	-0.108
-155.691	-10.537	-0.129	-0.086
-154.677	-200.000	0.027	-0.190
-153.662	226.952	0.106	0.172
-152.647	74.751	-0.119	0.125
-151.633	-42.926	-0.225	-0.114
-150.618	546.711	-0.018	-0.042
-149.604	334.188	-0.086	-0.167
-148.589	0.764	-0.244	-0.174
-147.574	11.559	0.142	0.109
-146.560	-46.644	-0.068	0.034
-145.545	5.140	0.094	-0.069
-144.531	116.602	0.174	0.214
-143.516	-123.698	0.081	0.013
-142.502	-130.951	0.332	-0.044
-141.487	-50.804	0.134	0.063
-140.472	259.478	-0.113	-0.195
-139.458	-162.306	-0.166	-0.008
-138.443	-0.178	0.159	-0.113
-137.429	-115.224	0.388	-0.073
-136.414	-200.000	0.022	-0.125
-135.399	-56.720	0.372	0.165
-134.385	-200.000	-0.068	0.310
-133.370	-200.000	0.020	0.224
-132.356	29.379	-0.240	-0.203
-131.341	181.087	-0.054	-0.079
-130.326	400.669	0.031	-0.064
-129.312	-200.000	0.027	-0.599
-128.297	-71.144	-0.147	-0.055
-127.283	800.000	-0.063	0.178
-126.268	-12.518	0.109	0.071
-125.253	-200.000	0.025	-0.295
-124.239	800.000	0.115	-0.389
-123.224	381.471	-0.121	-0.248
-122.210	-151.899	0.434	0.032
-121.195	-200.000	-0.026	0.282
-120.180	-4.620	0.394	0.272
-119.166	-25.323	0.198	-0.117
-118.151	203.757	-0.185	0.285
-117.137	-28.343	0.151	0.087
-116.122	5.277	0.044	-0.033
-115.107	-146.392	-0.166	-0.014
-114.093	-200.000	-0.001	-0.255
-113.078	-140.921	0.341	-0.035
-112.064	800.000	-0.083	-0.237
-111.049	-12.616	-0.134	0.087
-110.034	-101.296	0.013	-0.003
-109.020	284.610	0.125	0.225
-108.005	94.318	0.188	0.213
-106.991	49.490	0.205	0.193
-105.976	46.410	-0.264	0.244
-104.962	800.000	-0.080	0.233
-103.947	49.689	-0.233	-0.219
-102.932	-200.000	-0.084	0.405
-101.918	404.059	-0.057	0.120
-100.903	21.992	-0.132	0.108
-99.889	800.000	0.015	0.064
-98.874	-96.407	-0.148	-0.039
-97.859	-11.421	-0.315	-0.207
-96.845	679.807	0.092	0.238
-95.830	-117.266	0.179	0.032
-94.816	-71.016	-0.204	-0.077
-93.801	-60.548	-0.249	0.106
-92.786	-155.059	-0.457	0.030
-91.772	-160.248	-0.214	0.012
-90.757	-25.695	0.156	-0.092
-89.743	-62.330	0.159	-0.066
-88.728	92.945	-0.273	0.308
-87.713	800.000	-0.110	0.342
-86.699	288.182	0.031	0.056
-85.684	-29.211	0.118	0.067
-84.670	-61.128	-0.155	-0.065
-83.655	-110.216	-0.271	0.056
-82.640	-7.037	-0.132	-0.089
-81.626	47.512	0.186	-0.173
-80.611	276.772	0.125	0.222
-79.597	800.000	0.015	0.051
-78.582	144.735	-0.090	-0.119
-77.567	-91.502	0.469	-0.133
-76.553	-27.432	-0.164	-0.095
-75.538	-197.851	0.278	-0.002
-74.524	-45.236	-0.202	0.100
-73.509	63.942	0.071	-0.071
-72.494	345.790	0.085	0.167
-71.480	462.092	0.091	-0.202
-70.465	-200.000	-0.002	-0.165
-69.451	372.286	-0.122	0.246
-68.436	-115.119	-0.195	-0.037
-67.422	89.575	-0.207	0.230
-66.407	-200.000	-0.016	0.233
-65.392	-200.000	-0.290	0.000
-64.378	-70.293	0.182	-0.069
-63.363	133.280	0.131	-0.168
-62.349	-82.975	0.321	-0.103
-61.334	134.907	-0.667	-0.863
-60.319	97.667	0.334	0.382
-59.305	-200.000	-0.075	-0.824
-58.290	162.082	0.511	0.713
-57.276	334.031	0.730	1.407
-56.261	-200.000	76.699	523.335
-55.246	508.506	1349.847	3122.866
-54.232	140.669	2609.159	3433.079
-53.217	113.381	2286.387	2764.080
-52.203	50.244	1803.796	1697.161
-51.188	43.180	1599.090	1453.817
-50.173	40.598	1568.360	1407.530
-49.159	56.692	1605.810	1556.696
-48.144	61.748	1625.967	1612.383
-47.130	43.771	1588.892	1448.549
-46.115	40.268	1574.061	1410.073
-45.100	40.077	1570.839	1405.771
-44.086	40.053	1568.354	1403.327
-43.071	39.890	1566.656	1400.594
-42.057	39.852	1564.740	1398.556
-41.042	39.898	1563.175	1397.423
-40.027	39.885	1561.469	1395.754
-39.013	39.845	1559.770	1393.900
-37.998	39.827	1558.771	1392.823
-36.984	39.809	1557.381	1391.397
-35.969	39.884	1555.882	1390.535
-34.954	39.909	1554.318	1389.251
-33.940	39.840	1553.090	1387.619
-32.925	39.767	1551.867	1385.957
-31.911	39.923	1549.865	1385.211
-30.896	40.020	1548.493	1384.606
-29.881	39.932	1547.532	1383.074
-28.867	40.017	1545.618	1381.902
-27.852	40.052	1544.164	1380.797
-26.838	39.930	1542.566	1378.462
-25.823	39.962	1541.228	1377.433
-24.809	39.907	1539.625	1375.563
-23.794	39.834	1538.698	1374.173
-22.779	39.901	1537.310	1373.340
-21.765	39.903	1536.309	1372.406
-20.750	40.010	1534.847	1371.791
-19.736	39.923	1533.783	1370.184
-18.721	39.939	1532.321	1368.932
-17.706	39.860	1531.401	1367.505
-16.692	39.901	1530.308	1366.760
-15.677	39.906	1529.222	1365.774
-14.663	39.857	1528.116	1364.392
-13.648	39.784	1526.981	1362.819
-12.633	39.871	1525.984	1362.480
-11.619	39.745	1525.362	1360.999
-10.604	39.848	1524.252	1360.664
-9.590	39.804	1523.275	1359.435
-8.575	39.857	1522.372	1358.937
-7.560	39.892	1521.251	1358.129
-6.546	39.815	1521.091	1357.400
-5.531	39.731	1519.858	1355.671
-4.517	39.812	1518.716	1355.152
-3.502	39.819	1517.674	1354.217
-2.487	39.912	1516.279	1353.556
-1.473	39.778	1515.744	1352.109
-0.458	39.787	1514.303	1350.827
0.556	39.171	1505.766	1343.083
1.571	36.551	1478.010	1300.610
2.586	31.925	1410.719	1211.489
3.600	28.356	1319.526	1111.468
4.615	25.155	1268.587	1049.762
5.629	20.656	1208.872	975.100
6.644	10.629	1116.828	848.595
7.659	2.440	1070.251	771.960
8.673	1.098	1064.000	760.656
9.688	0.709	1061.406	756.785
10.702	0.834	1059.715	756.135
11.717	0.709	1058.308	754.443
12.731	3.189	1060.894	768.618
13.746	11.644	1072.390	819.415
14.761	17.562	1079.703	854.714
15.775	17.757	1078.957	855.026
16.790	17.106	1076.953	850.103
17.804	16.065	1074.815	843.137
18.819	15.258	1072.754	837.417
19.834	14.577	1071.750	833.159
20.848	14.359	1070.735	831.210
21.863	14.151	1069.576	829.200
22.877	13.810	1068.937	826.933
23.892	13.771	1067.808	825.789
24.907	13.630	1067.316	824.632
25.921	13.507	1066.598	823.395
26.936	13.471	1066.099	822.758
27.950	13.572	1065.342	822.601
28.965	13.619	1064.392	822.029
29.980	13.680	1063.265	821.391
30.994	13.729	1062.666	821.096
32.009	13.784	1061.603	820.472
33.023	13.740	1060.775	819.546
34.038	13.932	1059.923	819.760
35.053	13.679	1059.260	817.930
36.067	13.709	1058.375	817.319
37.082	13.563	1057.998	816.237
38.096	13.719	1056.813	816.018
39.111	13.725	1055.987	815.338
40.126	13.803	1054.775	814.715
41.140	13.658	1053.845	813.214
42.155	13.622	1052.718	812.095
43.169	13.560	1052.107	811.247
44.184	13.556	1050.742	810.101
45.199	13.559	1049.531	809.112
46.213	13.421	1049.282	808.176
47.228	13.586	1047.892	807.839
48.242	13.639	1046.684	807.092
49.257	13.689	1045.795	806.578
50.271	13.601	1044.885	805.376
51.286	13.635	1043.731	804.584
52.301	13.600	1042.914	803.711
53.315	13.616	1042.089	803.084
54.330	13.678	1041.637	802.962
55.344	13.578	1040.880	801.827
56.359	13.598	1039.871	801.074
57.374	13.640	1038.791	800.373
58.388	13.681	1037.766	799.713
59.403	13.585	1037.194	798.737
60.417	13.448	1036.766	797.675
61.432	13.454	1035.947	797.003
62.447	13.423	1034.972	796.033
63.461	13.403	1034.465	795.478
64.476	13.428	1033.666	794.914
65.490	13.525	1032.111	794.114
66.505	13.497	1031.596	793.511
67.520	13.554	1030.855	793.144
68.534	13.472	1029.944	791.983
69.549	13.499	1029.318	791.559
70.563	13.546	1028.514	791.095
71.578	13.535	1027.930	790.525
72.593	13.498	1027.276	789.774
73.607	13.523	1025.755	788.655
74.622	13.403	1025.324	787.683
75.636	13.370	1024.501	786.820
76.651	13.430	1023.402	786.191
77.666	13.387	1022.720	785.396
78.680	13.416	1022.328	785.163
79.695	13.473	1021.033	784.370
80.709	13.374	1020.997	783.805
81.724	13.528	1019.889	783.611
82.739	13.485	1019.217	782.824
83.753	13.543	1018.517	782.489
84.768	13.651	1017.599	782.226
85.782	13.677	1016.679	781.571
86.797	13.796	1015.892	781.458
87.812	13.700	1015.044	780.283
88.826	13.614	1014.616	779.483
89.841	13.558	1013.582	778.353
90.855	13.682	1012.642	778.145
91.870	13.597	1011.973	777.164
92.884	13.687	1011.342	777.035
93.899	13.625	1010.649	776.140
94.914	13.700	1009.828	775.794
95.928	13.802	1009.303	775.800
96.943	13.800	1008.000	774.717
97.957	13.689	1007.671	773.879
98.972	13.783	1006.677	773.484
99.987	13.752	1005.824	772.619
101.001	13.699	1005.006	771.676
102.016	13.624	1004.291	770.709
103.030	13.722	1003.393	770.409
104.045	13.696	1002.292	769.371
105.060	13.652	1001.484	768.479
106.074	13.625	1000.268	767.355
107.089	13.620	999.602	766.752
108.103	13.573	998.817	765.864
109.118	13.664	997.580	765.267
110.133	13.607	996.847	764.378
111.147	13.473	996.876	763.711
112.162	13.564	995.353	762.897
113.176	13.597	994.426	762.270
114.191	13.679	993.430	761.816
115.206	13.557	992.742	760.661
116.220	13.576	992.203	760.271
117.235	13.688	991.091	759.861
118.249	13.550	990.279	758.541
119.264	13.541	989.462	757.808
120.279	13.799	987.906	757.725
121.293	13.768	987.156	756.945
122.308	13.733	986.382	756.124
123.322	13.714	985.923	755.618
124.337	13.552	985.506	754.494
125.352	13.575	984.253	753.572
126.366	13.521	983.082	752.365
127.381	13.612	981.573	751.554
128.395	13.664	980.660	751.023
129.410	13.728	979.410	750.291
130.424	13.603	979.484	749.714
131.439	13.712	978.239	749.189
132.454	13.718	977.194	748.348
133.468	13.758	976.915	748.249
134.483	13.812	975.844	747.606
135.497	13.731	975.217	746.694
136.512	13.637	974.916	745.974
137.527	13.752	973.487	745.334
138.541	13.742	972.671	744.596
139.556	13.772	971.952	744.114
140.570	13.721	971.514	743.484
141.585	13.750	970.737	742.955
142.600	13.712	970.075	742.212
143.614	13.760	969.264	741.742
144.629	13.797	968.189	741.020
145.643	13.952	967.301	740.965
146.658	13.811	966.644	739.765
147.673	13.674	965.953	738.564
148.687	13.803	965.097	738.417
149.702	13.707	964.046	737.120
150.716	13.688	963.181	736.308
151.731	13.755	962.298	735.867
152.746	13.733	961.504	735.098
153.760	13.623	960.902	734.083
154.775	13.923	959.512	734.285
155.789	13.860	959.220	733.717
156.804	13.724	958.644	732.612
157.819	13.817	957.637	732.188
158.833	13.822	957.150	731.771
159.848	13.960	956.006	731.441
160.862	13.940	955.723	731.072
161.877	13.914	955.013	730.347
162.892	13.929	954.266	729.777
163.906	13.912	953.383	728.964
164.921	13.775	952.678	727.762
165.935	13.753	951.784	726.918
166.950	13.899	950.669	726.640
167.964	13.912	949.962	726.090
168.979	13.882	948.972	725.137
169.994	13.854	947.670	723.958
171.008	13.959	946.893	723.756
172.023	13.972	946.175	723.200
173.037	13.999	945.094	722.428
174.052	14.077	944.440	722.203
175.067	14.004	944.037	721.514
176.081	13.933	943.328	720.602
177.096	13.962	942.172	719.780
178.110	13.900	941.534	718.961
179.125	13.881	940.713	718.189
180.140	13.956	939.762	717.721
181.154	14.069	938.919	717.503
182.169	13.978	938.616	716.814
183.183	14.025	937.968	716.458
184.198	14.178	936.927	716.258
185.213	14.173	936.143	715.577
186.227	14.237	935.644	715.408
187.242	14.140	935.073	714.490
188.256	14.208	934.617	714.370
189.271	14.299	933.902	714.150
190.286	14.197	933.172	713.090
191.300	14.182	932.603	712.528
192.315	14.130	931.161	711.142
193.329	13.991	931.227	710.536
194.344	14.066	930.348	710.122
195.359	14.072	929.749	709.627
196.373	14.150	929.050	709.366
197.388	14.217	928.780	709.380
198.402	14.269	927.909	708.876
199.417	14.261	927.605	708.545
200.432	14.197	927.293	707.973
201.446	14.351	926.799	708.186
202.461	14.463	926.246	708.176
203.475	14.497	925.558	707.732
204.490	14.546	925.052	707.489
205.504	14.447	923.977	706.189
206.519	14.470	922.938	705.427
207.534	14.357	922.786	704.772
208.548	14.383	921.833	704.091
209.563	14.373	921.059	703.397
210.577	14.298	920.473	702.571
211.592	14.558	919.491	702.851
212.607	14.485	919.265	702.311
213.621	14.538	918.753	702.081
214.636	14.526	917.971	701.369
215.650	14.495	917.353	700.706
216.665	14.457	917.039	700.246
217.680	14.503	916.320	699.826
218.694	14.654	915.596	699.846
219.709	14.745	915.217	699.873
220.723	14.598	914.499	698.649
221.738	14.550	914.022	698.020
222.753	14.613	913.087	697.510
223.767	14.521	912.678	696.752
224.782	14.542	911.665	696.002
225.796	14.568	910.812	695.397
226.811	14.624	910.387	695.246
227.826	14.738	909.520	694.995
228.840	14.876	908.360	694.622
229.855	14.743	908.141	693.838
230.869	14.886	907.225	693.673
231.884	14.742	906.696	692.611
232.899	14.652	905.852	691.532
233.913	14.608	905.563	691.067
234.928	14.684	904.620	690.599
235.942	14.684	904.110	690.148
236.957	14.696	903.299	689.520
237.972	14.731	902.535	689.020
238.986	14.707	901.543	688.104
240.001	14.721	901.396	687.987
241.015	14.696	900.436	687.089
242.030	14.732	899.908	686.776
243.045	14.788	899.200	686.403
244.059	14.861	898.463	686.079
245.074	14.880	897.494	685.356
246.088	14.883	897.068	684.983
247.103	14.881	896.997	684.860
248.117	14.853	896.239	684.107
249.132	14.901	895.777	683.889
250.147	14.982	895.087	683.634
251.161	15.038	894.384	683.265
252.176	15.139	893.580	683.000
253.190	15.132	892.571	682.141
254.205	15.043	892.738	681.848
255.220	15.232	891.582	681.670
256.234	15.161	891.082	680.943
257.249	15.279	890.191	680.680
258.263	15.278	889.588	680.155
259.278	15.155	889.399	679.449
260.293	15.195	888.716	679.030
261.307	15.291	888.096	678.886
262.322	15.468	887.448	679.044
263.336	15.414	886.663	678.167
264.351	15.247	886.588	677.373
265.366	15.327	885.722	676.977
266.380	15.425	884.817	676.618
267.395	15.497	884.091	676.295
268.409	15.466	883.806	675.891
269.424	15.534	882.846	675.370
270.439	15.409	882.391	674.462
271.453	15.416	881.551	673.789
272.468	15.485	880.831	673.454
273.482	15.373	880.355	672.583
274.497	15.441	879.859	672.416
275.512	15.501	878.780	671.772
276.526	15.423	878.446	671.145
277.541	15.497	877.719	670.824
278.555	15.555	877.179	670.586
279.570	15.584	876.411	670.055
280.585	15.636	876.099	669.964
281.599	15.518	875.680	669.115
282.614	15.669	874.788	668.973
283.628	15.561	874.209	668.044
284.643	15.586	873.390	667.457
285.657	15.596	873.046	667.176
286.672	15.728	872.036	666.867
287.687	15.739	871.869	666.725
288.701	15.637	871.105	665.677
289.716	15.698	870.334	665.269
290.730	15.688	870.123	665.011
291.745	15.774	869.012	664.442
292.760	15.680	868.359	663.512
293.774	15.881	867.892	663.892
294.789	15.749	867.877	663.298
295.803	15.807	866.925	662.742
296.818	15.815	866.528	662.412
297.833	15.767	865.578	661.440
298.847	15.772	865.271	661.163
299.862	15.677	864.498	660.144
300.876	15.811	863.441	659.802
301.891	15.928	862.849	659.751
302.906	15.940	862.733	659.648
303.920	15.963	861.637	658.845
304.935	15.938	861.441	658.536
305.949	16.037	860.520	658.163
306.964	15.926	860.014	657.283
307.979	16.011	859.243	656.969
308.993	16.061	858.778	656.749
310.008	16.029	858.164	656.098
311.022	16.054	858.014	656.021
312.037	16.154	857.296	655.802
313.052	16.091	856.974	655.256
314.066	16.179	855.879	654.700
315.081	16.056	855.268	653.698
316.095	16.082	855.231	653.713
317.110	16.070	854.453	653.012
318.125	16.026	853.912	652.374
319.139	16.021	853.533	652.003
320.154	16.065	853.043	651.742
321.168	16.074	852.442	651.263
322.183	16.153	852.014	651.180
323.197	16.083	851.898	650.764
324.212	16.258	850.802	650.543
325.227	16.215	849.965	649.681
326.241	16.203	849.952	649.566
327.256	16.204	849.024	648.806
328.270	16.113	849.191	648.524
329.285	16.165	848.063	647.806
330.300	16.237	847.395	647.516
331.314	16.187	847.289	647.186
332.329	16.276	846.214	646.649
333.343	16.497	845.509	646.897
334.358	16.259	844.718	645.326
335.373	16.267	844.374	645.036
336.387	16.279	844.098	644.813
337.402	16.446	843.084	644.619
338.416	16.565	842.469	644.546
339.431	16.473	842.044	643.812
340.446	16.508	841.706	643.631
341.460	16.523	840.924	643.033
342.475	16.578	840.549	642.898
343.489	16.527	839.839	642.105
344.504	16.652	839.282	642.097
345.519	16.699	838.662	641.742
346.533	16.588	838.378	641.049
347.548	16.617	837.805	640.665
348.562	16.641	837.262	640.284
349.577	16.454	836.886	639.231
350.592	16.732	836.308	639.783
351.606	16.631	836.007	639.115
352.621	16.479	835.468	638.073
353.635	16.569	834.854	637.888
354.650	16.558	834.673	637.650
355.665	16.599	833.631	636.951
356.679	16.732	833.383	637.209
357.694	16.596	833.320	636.592
358.708	16.667	832.571	636.230
359.723	16.611	832.226	635.698
360.738	16.559	831.629	634.991
361.752	16.691	830.974	634.931
362.767	16.741	830.276	634.526
363.781	16.697	830.224	634.266
364.796	16.890	829.609	634.465
365.810	16.800	829.140	633.712
366.825	16.944	828.418	633.641
367.840	17.069	828.126	633.829
368.854	16.968	828.019	633.315
369.869	17.033	826.987	632.713
370.883	16.984	826.756	632.296
371.898	16.951	826.305	631.772
372.913	17.174	825.296	631.774
373.927	16.960	824.798	630.541
374.942	17.064	824.170	630.390
375.956	17.058	823.555	629.843
376.971	17.211	822.998	629.931
377.986	17.150	822.424	629.210
379.000	17.161	822.282	629.087
380.015	17.130	821.891	628.615
381.029	17.258	821.113	628.438
382.044	17.208	820.610	627.814
383.059	17.299	819.485	627.232
384.073	17.152	819.456	626.613
385.088	17.190	819.016	626.362
386.102	17.158	818.502	625.793
387.117	17.172	818.224	625.578
388.132	17.334	817.363	625.459
389.146	17.292	816.749	624.781
390.161	17.167	816.634	624.178
391.175	17.324	816.163	624.339
392.190	17.205	816.256	623.919
393.205	17.311	815.352	623.558
394.219	17.385	814.851	623.391
395.234	17.323	814.347	622.725
396.248	17.338	813.529	622.101
397.263	17.341	813.414	621.966
398.278	17.342	812.799	621.446
399.292	17.295	812.557	621.035
400.307	17.289	811.987	620.520
401.321	17.407	811.596	620.598
402.336	17.316	811.446	620.096
403.350	17.400	811.083	620.071
404.365	17.388	810.669	619.657
405.380	17.336	810.183	619.042
406.394	17.388	809.716	618.817
407.409	17.434	809.047	618.420
408.423	17.501	808.512	618.200
409.438	17.522	808.168	617.959
410.453	17.630	807.704	617.939
411.467	17.562	807.595	617.553
412.482	17.660	806.616	617.106
413.496	17.657	806.121	616.664
414.511	17.725	806.055	616.803
415.526	17.631	805.565	616.034
416.540	17.668	804.973	615.659
417.555	17.605	804.955	615.366
418.569	17.765	804.152	615.274
419.584	17.646	803.760	614.490
420.599	17.758	803.282	614.474
421.613	94.707	1267.326	1384.993
422.628	81.100	1334.973	1385.131
