DTS Sentinel unit serial number:	SN413079Multiplexer serial number:	ORYXHardware model number:	OX4-SRSoftware version number:	ORYX F/W v4.00 Oryx Data Collector v3.7.2.0data status	okinstallation	princeton_trtdifferential loss correction	single-endedforward channel	channel 3reverse channel	N/Adate	2019/09/14time	03:52:35forward acquisition time	60.00reverse acquisition time	0.00gamma	496.2192k internal	0.2339k external	0.2339temperature offset calibration	1.0055default loss term (dB/km)	0.3790temperature slope calibration	1.0000multiplexer offset coefficient	1.0000multiplexer slope coefficient	1.0000fibre end	0.00T internal ref (°C)	26.67T ext. ref 1 (°C)	3.31T ext. ref 2 (°C)	21.69length (m)	temperature (°C)	Stokes	anti-Stokes-747.200	-200.000	-0.056	-0.345
-746.185	-61.511	-0.315	0.133
-745.171	-151.956	-0.232	-0.017
-744.156	-68.773	-0.241	-0.093
-743.142	800.000	0.062	-0.208
-742.127	-128.283	0.092	0.013
-741.112	-21.245	0.189	-0.116
-740.098	19.226	0.264	0.212
-739.083	278.950	0.076	0.137
-738.069	55.361	-0.112	-0.109
-737.054	14.192	-0.148	-0.116
-736.039	-102.072	0.128	0.031
-735.025	337.345	0.329	0.640
-734.010	44.243	0.140	0.129
-732.996	175.850	-0.060	-0.088
-731.981	64.011	-0.241	-0.243
-730.966	-184.123	-0.113	-0.002
-729.952	-13.175	0.139	-0.091
-728.937	800.000	0.052	-0.182
-727.923	800.000	-0.029	0.128
-726.908	208.290	0.130	0.204
-725.894	800.000	0.097	-0.315
-724.879	643.323	-0.081	-0.206
-723.864	7.116	-0.262	0.196
-722.850	800.000	0.050	-0.164
-721.835	-200.000	0.039	-0.307
-720.821	-200.000	0.016	-0.262
-719.806	-1.634	0.154	0.109
-718.791	-51.672	0.028	-0.013
-717.777	-87.489	-0.442	-0.134
-716.762	135.119	-0.061	-0.079
-715.748	25.715	0.243	-0.203
-714.733	-200.000	0.021	-0.215
-713.718	800.000	0.051	0.158
-712.704	-102.942	0.120	0.029
-711.689	57.869	-0.180	0.176
-710.675	-63.509	-0.249	0.102
-709.660	-125.917	-0.148	0.022
-708.645	331.487	-0.079	0.153
-707.631	-200.000	-0.010	-0.182
-706.616	-92.353	-0.183	0.052
-705.602	-177.784	-0.062	-0.002
-704.587	74.657	0.146	0.154
-703.572	-200.000	-0.027	0.184
-702.558	38.998	-0.045	0.041
-701.543	143.881	-0.143	0.191
-700.529	524.757	0.094	-0.220
-699.514	-129.072	0.226	-0.032
-698.499	360.384	-0.126	-0.252
-697.485	566.850	0.085	0.206
-696.470	63.803	-0.106	-0.107
-695.456	14.338	-0.217	-0.170
-694.441	193.411	0.168	-0.254
-693.426	-114.569	-0.310	0.060
-692.412	41.216	0.373	0.337
-691.397	-179.498	0.168	0.004
-690.383	-200.000	0.024	-0.440
-689.368	800.000	-0.022	-0.080
-688.354	126.681	-0.298	-0.378
-687.339	-166.494	-0.192	-0.008
-686.324	-200.000	0.041	-0.248
-685.310	-56.025	-0.156	-0.070
-684.295	-73.831	-0.154	-0.056
-683.281	-55.498	0.082	0.037
-682.266	169.746	-0.116	-0.166
-681.251	-89.675	-0.161	0.047
-680.237	59.656	-0.092	0.091
-679.222	126.345	-0.149	-0.189
-678.208	27.384	-0.085	-0.071
-677.193	-125.225	-0.328	-0.050
-676.178	-200.000	0.015	-0.211
-675.164	-200.000	0.036	-0.200
-674.149	800.000	-0.088	-0.357
-673.135	-68.425	-0.480	0.186
-672.120	-90.713	-0.041	-0.012
-671.105	-152.144	-0.254	-0.018
-670.091	260.495	-0.063	0.109
-669.076	-14.193	0.130	-0.084
-668.062	-116.730	0.156	-0.029
-667.047	99.401	0.105	-0.121
-666.032	23.502	-0.299	-0.246
-665.018	147.039	-0.130	0.175
-664.003	213.902	0.189	0.299
-662.989	-54.762	0.095	0.043
-661.974	78.097	-0.014	-0.015
-660.959	-76.710	-0.154	0.054
-659.945	-120.714	-0.243	-0.041
-658.930	800.000	0.025	0.106
-657.916	-128.235	-0.345	-0.049
-656.901	235.179	0.160	-0.264
-655.886	-200.000	0.015	-0.119
-654.872	23.348	0.184	-0.151
-653.857	38.545	0.067	-0.060
-652.843	-48.145	0.124	-0.060
-651.828	-200.000	-0.036	-0.184
-650.814	303.092	0.101	-0.187
-649.799	345.938	0.050	0.098
-648.784	-60.911	0.385	-0.163
-647.770	800.000	-0.050	-0.190
-646.755	-54.145	-0.077	-0.035
-645.741	-16.884	0.235	-0.148
-644.726	58.929	0.207	0.204
-643.711	-75.393	0.262	-0.093
-642.697	-200.000	0.001	-0.023
-641.682	-88.357	0.119	0.035
-640.668	138.234	0.032	-0.042
-639.653	-116.377	0.152	-0.028
-638.638	533.225	-0.051	0.120
-637.624	484.554	-0.118	-0.267
-636.609	395.035	-0.129	-0.268
-635.595	349.327	-0.096	-0.189
-634.580	800.000	-0.110	-0.409
-633.565	349.550	-0.061	0.121
-632.551	36.587	0.060	0.052
-631.536	756.973	0.060	0.161
-630.522	-200.000	0.006	0.109
-629.507	38.041	-0.143	-0.127
-628.492	248.681	-0.187	-0.315
-627.478	-200.000	-0.051	-0.248
-626.463	293.379	0.187	0.340
-625.449	-59.983	-0.121	-0.052
-624.434	136.326	-0.070	0.091
-623.419	-8.056	-0.301	0.203
-622.405	-200.000	-0.025	-0.134
-621.390	-75.532	0.332	0.118
-620.376	-200.000	-0.008	0.445
-619.361	50.020	-0.124	-0.117
-618.346	-7.244	0.024	0.016
-617.332	13.877	-0.309	-0.240
-616.317	-200.000	-0.014	-0.427
-615.303	800.000	-0.189	-0.546
-614.288	-62.675	0.084	-0.035
-613.273	126.600	-0.024	-0.030
-612.259	-200.000	-0.073	-0.398
-611.244	26.564	-0.226	-0.189
-610.230	448.283	0.046	0.101
-609.215	-39.465	0.032	0.017
-608.201	57.501	0.083	-0.081
-607.186	-77.032	-0.435	-0.152
-606.171	-130.145	-0.241	-0.033
-605.157	289.906	-0.082	-0.149
-604.142	-29.570	-0.038	-0.022
-603.128	-130.926	-0.358	0.048
-602.113	327.731	0.029	0.055
-601.098	-200.000	-0.033	-0.242
-600.084	-75.066	0.135	0.048
-599.069	-145.833	-0.149	0.013
-598.055	800.000	-0.099	0.348
-597.040	71.699	-0.077	0.080
-596.025	-73.354	-0.317	-0.116
-595.011	-20.598	0.239	0.146
-593.996	164.115	0.164	0.231
-592.982	217.461	0.116	-0.184
-591.967	31.467	0.166	-0.142
-590.952	-112.681	0.391	0.078
-589.938	29.646	0.105	0.089
-588.923	286.945	-0.119	-0.215
-587.909	41.432	0.325	-0.293
-586.894	31.626	-0.099	-0.084
-585.879	-5.561	0.173	0.118
-584.865	800.000	0.082	-0.280
-583.850	800.000	0.028	-0.113
-582.836	596.940	0.066	0.163
-581.821	-35.068	0.159	-0.086
-580.806	-200.000	-0.031	-0.188
-579.792	-200.000	-0.050	0.268
-578.777	78.327	-0.040	-0.043
-577.763	31.124	0.285	-0.244
-576.748	-64.650	0.266	-0.107
-575.733	707.492	-0.026	-0.068
-574.719	182.255	0.166	-0.244
-573.704	-119.956	-0.489	0.084
-572.690	116.062	0.118	0.144
-571.675	-91.361	0.205	-0.058
-570.661	275.129	0.075	-0.133
-569.646	518.329	-0.044	-0.102
-568.631	-200.000	-0.022	-0.197
-567.617	98.837	-0.154	-0.177
-566.602	231.444	0.167	-0.273
-565.588	-71.206	-0.245	0.091
-564.573	-103.303	0.468	0.110
-563.558	-141.817	-0.266	-0.027
-562.544	-68.744	0.143	0.055
-561.529	-200.000	-0.002	0.218
-560.515	788.920	-0.055	-0.151
-559.500	27.090	0.230	-0.193
-558.485	75.733	0.206	0.217
-557.471	20.363	-0.101	0.081
-556.456	150.168	0.185	-0.249
-555.442	-148.765	0.368	-0.030
-554.427	361.455	0.034	0.068
-553.412	-65.791	-0.102	0.040
-552.398	-28.036	0.090	0.052
-551.383	-76.324	0.173	0.060
-550.369	-125.211	-0.395	0.060
-549.354	100.678	0.158	0.182
-548.339	688.439	0.045	-0.118
-547.325	-200.000	-0.050	-0.390
-546.310	275.155	0.208	-0.367
-545.296	170.589	-0.131	0.187
-544.281	105.029	-0.110	-0.129
-543.266	-24.112	0.242	-0.144
-542.252	-190.928	-0.246	0.003
-541.237	-48.862	-0.322	0.153
-540.223	639.829	-0.118	0.298
-539.208	9.725	-0.325	0.246
-538.193	-57.402	0.044	-0.019
-537.179	-173.075	0.237	0.007
-536.164	800.000	-0.032	-0.137
-535.150	800.000	-0.073	0.281
-534.135	369.145	0.117	-0.236
-533.121	195.095	-0.075	0.113
-532.106	800.000	0.100	0.412
-531.091	800.000	-0.056	-0.217
-530.077	-200.000	-0.039	0.578
-529.062	-13.504	-0.202	-0.130
-528.048	209.573	-0.088	-0.137
-527.033	800.000	0.034	-0.137
-526.018	-36.335	-0.093	0.050
-525.004	767.758	-0.058	-0.156
-523.989	438.004	0.096	0.208
-522.975	15.575	0.047	-0.037
-521.960	184.921	-0.161	-0.238
-520.945	689.649	0.071	-0.184
-519.931	-138.640	0.086	0.009
-518.916	82.007	0.220	-0.237
-517.902	-93.978	-0.265	0.072
-516.887	-111.887	0.183	0.037
-515.872	-200.000	0.006	0.237
-514.858	67.063	-0.150	0.152
-513.843	-28.744	0.178	0.102
-512.829	46.524	0.224	0.207
-511.814	800.000	0.247	0.783
-510.799	483.340	-0.130	0.293
-509.785	-131.489	0.123	-0.016
-508.770	-200.000	0.004	-0.374
-507.756	800.000	0.122	-0.475
-506.741	66.705	0.130	-0.132
-505.726	45.156	0.338	0.309
-504.712	45.916	0.196	0.180
-503.697	45.833	-0.429	-0.395
-502.683	133.443	-0.022	-0.028
-501.668	800.000	-0.068	0.237
-500.653	170.596	-0.059	0.084
-499.639	-46.146	0.082	0.040
-498.624	800.000	0.056	-0.167
-497.610	-55.071	-0.246	-0.110
-496.595	390.807	-0.156	0.321
-495.581	-200.000	0.039	0.305
-494.566	150.207	0.213	0.287
-493.551	-200.000	-0.012	-0.074
-492.537	-200.000	0.011	-0.076
-491.522	800.000	-0.062	-0.203
-490.508	-200.000	-0.007	0.102
-489.493	-76.369	-0.261	-0.091
-488.478	9.719	0.245	-0.185
-487.464	117.901	0.129	0.157
-486.449	133.268	0.019	0.024
-485.435	-50.457	0.083	0.039
-484.420	51.081	-0.177	0.167
-483.405	-39.130	-0.229	-0.120
-482.391	38.551	-0.310	0.275
-481.376	-200.000	0.014	-0.092
-480.362	-200.000	-0.035	0.188
-479.347	-150.576	0.262	0.020
-478.332	-37.839	0.217	-0.115
-477.318	-200.000	0.052	0.238
-476.303	-16.126	-0.090	0.056
-475.289	48.816	-0.166	0.155
-474.274	472.674	0.061	-0.137
-473.259	-58.138	-0.117	0.051
-472.245	561.835	-0.034	0.081
-471.230	800.000	-0.032	-0.128
-470.216	-200.000	-0.012	-0.157
-469.201	-122.629	-0.178	-0.029
-468.186	-13.306	0.143	-0.092
-467.172	201.026	0.117	-0.179
-466.157	97.860	-0.230	-0.263
-465.143	377.189	-0.142	-0.288
-464.128	-159.720	0.168	-0.009
-463.113	248.810	0.014	-0.024
-462.099	-46.691	-0.339	-0.164
-461.084	778.320	0.118	0.320
-460.070	563.266	0.061	0.146
-459.055	13.074	0.279	0.214
-458.040	66.298	-0.227	-0.229
-457.026	-200.000	0.043	0.374
-456.011	-200.000	0.037	0.268
-454.997	19.627	0.187	0.150
-453.982	401.396	-0.057	0.118
-452.968	51.060	-0.149	0.140
-451.953	-38.474	0.180	0.094
-450.938	-35.713	0.348	0.187
-449.924	-200.000	-0.037	0.180
-448.909	-19.700	0.166	-0.102
-447.895	800.000	0.049	-0.182
-446.880	-75.192	0.183	0.065
-445.865	-200.000	-0.009	-0.143
-444.851	214.737	-0.168	-0.265
-443.836	-200.000	-0.005	0.208
-442.822	800.000	0.090	0.251
-441.807	-130.084	0.278	0.038
-440.792	-127.962	-0.276	0.039
-439.778	-200.000	0.015	-0.170
-438.763	-28.062	-0.287	-0.164
-437.749	-45.473	-0.302	0.148
-436.734	281.156	-0.260	0.462
-435.719	-82.646	0.300	-0.096
-434.705	-48.096	-0.112	-0.054
-433.690	-200.000	-0.017	-0.151
-432.676	465.056	-0.035	-0.079
-431.661	78.317	0.229	-0.243
-430.646	800.000	-0.066	-0.195
-429.632	-92.872	-0.137	-0.038
-428.617	-163.332	-0.265	-0.013
-427.603	-200.000	0.030	0.143
-426.588	118.844	-0.159	0.195
-425.573	46.407	-0.109	0.100
-424.559	-100.219	0.219	0.054
-423.544	-65.929	0.247	0.098
-422.530	5.908	-0.233	-0.171
-421.515	-200.000	-0.040	-0.286
-420.500	22.579	-0.158	-0.128
-419.486	129.184	-0.029	-0.037
-418.471	628.465	0.032	-0.079
-417.457	793.990	0.089	-0.241
-416.442	-200.000	-0.006	-0.067
-415.428	-108.640	0.299	-0.064
-414.413	136.507	-0.232	-0.300
-413.398	-200.000	-0.049	0.234
-412.384	45.637	-0.080	-0.073
-411.369	-108.578	-0.231	-0.049
-410.355	123.652	0.126	-0.157
-409.340	800.000	-0.085	-0.298
-408.325	-139.026	-0.092	0.010
-407.311	135.143	-0.226	0.291
-406.296	-200.000	0.334	-0.001
-405.282	-49.070	-0.080	-0.038
-404.267	216.632	0.074	0.117
-403.252	220.576	0.211	0.335
-402.238	-93.205	0.181	-0.050
-401.223	70.269	-0.365	0.374
-400.209	311.562	0.102	0.189
-399.194	-139.954	-0.098	-0.010
-398.179	800.000	0.077	0.323
-397.165	-200.000	-0.009	-0.307
-396.150	-200.000	-0.028	-0.227
-395.136	-25.052	0.209	0.123
-394.121	8.152	-0.185	-0.137
-393.106	-200.000	0.006	-0.083
-392.092	-159.966	-0.168	0.009
-391.077	95.348	0.130	-0.147
-390.063	-0.737	0.157	0.110
-389.048	-7.585	0.037	-0.025
-388.033	-200.000	0.054	-0.242
-387.019	-200.000	0.093	-0.440
-386.004	800.000	0.088	-0.366
-384.990	-116.631	-0.377	-0.069
-383.975	223.662	0.157	0.251
-382.960	800.000	-0.066	0.273
-381.946	800.000	-0.071	0.231
-380.931	224.680	-0.021	-0.034
-379.917	-128.082	0.159	-0.022
-378.902	-58.868	0.224	0.096
-377.888	743.494	0.135	-0.359
-376.873	-101.050	-0.191	0.046
-375.858	-121.413	-0.401	0.066
-374.844	-75.015	0.149	0.053
-373.829	80.922	-0.213	0.228
-372.815	-126.184	0.254	-0.038
-371.800	-39.445	-0.058	0.030
-370.785	75.324	0.083	-0.086
-369.771	38.194	0.139	-0.123
-368.756	524.419	-0.035	0.082
-367.742	800.000	-0.051	0.179
-366.727	-19.002	-0.290	-0.178
-365.712	-200.000	0.047	0.239
-364.698	-9.633	0.189	-0.124
-363.683	41.649	-0.232	0.208
-362.669	37.655	0.265	-0.232
-361.654	0.181	0.206	0.145
-360.639	800.000	-0.045	-0.178
-359.625	-145.310	-0.436	-0.039
-358.610	480.907	-0.029	-0.066
-357.596	-153.635	0.153	0.010
-356.581	-39.850	-0.051	0.026
-355.566	472.672	0.165	0.368
-354.552	-45.707	-0.161	0.078
-353.537	-40.388	-0.068	0.035
-352.523	506.827	-0.090	0.206
-351.508	-82.883	0.235	0.075
-350.493	800.000	0.093	-0.275
-349.479	-154.932	-0.033	0.002
-348.464	800.000	0.035	0.120
-347.450	386.655	0.039	-0.079
-346.435	800.000	0.011	0.043
-345.420	175.726	0.163	-0.234
-344.406	30.024	0.125	-0.105
-343.391	45.991	0.182	-0.167
-342.377	-4.094	-0.308	-0.211
-341.362	152.718	0.169	0.228
-340.348	-0.363	0.167	0.117
-339.333	800.000	0.095	-0.397
-338.318	800.000	-0.064	-0.199
-337.304	-200.000	-0.021	-0.165
-336.289	-58.674	0.221	0.095
-335.275	278.582	-0.099	0.174
-334.260	800.000	-0.070	0.202
-333.245	-200.000	-0.006	-0.164
-332.231	-52.570	0.110	-0.050
-331.216	-200.000	-0.016	0.242
-330.202	20.964	0.322	-0.257
-329.187	800.000	0.009	0.026
-328.172	-200.000	-0.039	0.278
-327.158	-128.541	0.212	0.030
-326.143	512.122	-0.084	0.192
-325.129	121.713	-0.147	0.181
-324.114	-151.622	-0.320	-0.023
-323.099	-72.271	0.232	-0.085
-322.085	-24.238	0.073	-0.043
-321.070	164.792	-0.164	-0.229
-320.056	-200.000	-0.057	-0.324
-319.041	-12.199	0.136	0.088
-318.026	27.179	-0.246	-0.203
-317.012	-113.225	0.300	0.058
-315.997	-104.634	0.424	0.096
-314.983	-11.185	-0.230	-0.150
-313.968	128.535	0.078	0.098
-312.953	-200.000	-0.004	-0.236
-311.939	20.997	0.239	-0.191
-310.924	208.008	0.106	-0.164
-309.910	-200.000	-0.027	-0.406
-308.895	-46.618	-0.217	0.105
-307.880	-63.211	-0.329	0.134
-306.866	-132.928	0.076	0.010
-305.851	-61.530	-0.094	0.039
-304.837	-200.000	0.044	0.194
-303.822	800.000	0.064	0.252
-302.807	800.000	0.069	0.218
-301.793	24.838	0.261	0.213
-300.778	-80.119	-0.190	-0.063
-299.764	166.853	-0.205	-0.287
-298.749	-200.000	-0.048	0.443
-297.735	389.793	0.225	-0.459
-296.720	257.140	-0.120	-0.204
-295.705	161.895	-0.152	-0.210
-294.691	-44.863	-0.357	-0.176
-293.676	-24.347	0.303	0.178
-292.662	1.687	0.114	0.081
-291.647	-76.047	-0.307	-0.107
-290.632	-119.830	-0.373	0.063
-289.618	-137.515	-0.204	0.023
-288.603	165.087	-0.073	0.101
-287.589	-17.914	0.182	-0.113
-286.574	-200.000	-0.031	-0.137
-285.559	73.347	-0.222	0.228
-284.545	59.712	0.103	0.100
-283.530	60.241	-0.130	-0.127
-282.516	-65.571	0.130	0.052
-281.501	60.436	-0.087	-0.085
-280.486	-53.530	-0.225	0.101
-279.472	-129.244	-0.214	-0.029
-278.457	147.376	-0.251	-0.333
-277.443	-91.781	-0.248	-0.069
-276.428	800.000	0.078	0.232
-275.413	-69.192	0.285	-0.108
-274.399	-200.000	0.042	0.322
-273.384	188.930	-0.240	0.355
-272.370	-200.000	-0.022	0.210
-271.355	248.716	0.081	0.134
-270.340	0.634	-0.044	0.031
-269.326	401.045	-0.106	0.219
-268.311	-82.419	0.344	0.110
-267.297	717.458	0.057	0.148
-266.282	-23.634	0.228	-0.134
-265.267	270.933	0.127	0.220
-264.253	100.521	0.185	0.212
-263.238	-200.000	-0.041	0.341
-262.224	698.862	0.043	0.112
-261.209	275.764	0.092	-0.161
-260.195	248.218	0.005	-0.008
-259.180	-72.116	0.209	0.076
-258.165	-109.258	-0.253	0.053
-257.151	-24.559	-0.096	0.056
-256.136	800.000	0.125	0.443
-255.122	-53.958	-0.318	-0.143
-254.107	-200.000	0.006	-0.045
-253.092	151.217	-0.060	0.080
-252.078	-129.577	-0.266	0.036
-251.063	31.978	-0.052	0.044
-250.049	-125.876	-0.347	0.052
-249.034	-83.977	0.048	0.015
-248.019	345.520	-0.036	0.070
-247.005	-165.104	0.353	0.015
-245.990	7.936	-0.137	0.101
-244.976	112.242	-0.252	0.300
-243.961	56.198	0.040	-0.038
-242.946	523.245	0.069	-0.160
-241.932	339.813	-0.301	-0.576
-240.917	11.109	0.010	-0.008
-239.903	-34.313	0.071	-0.038
-238.888	-200.000	-0.002	0.070
-237.873	800.000	0.156	0.479
-236.859	800.000	0.075	0.212
-235.844	15.652	-0.192	-0.148
-234.830	123.649	-0.041	0.050
-233.815	178.527	0.189	0.272
-232.800	-19.265	0.319	0.194
-231.786	-200.000	-0.032	-0.213
-230.771	-200.000	-0.015	0.096
-229.757	625.117	-0.051	0.126
-228.742	222.727	-0.161	-0.255
-227.727	-90.088	-0.152	-0.044
-226.713	-100.776	-0.056	-0.014
-225.698	30.691	0.311	0.262
-224.684	89.647	0.224	0.246
-223.669	-30.068	-0.050	0.028
-222.655	-200.000	0.045	-0.260
-221.640	-200.000	0.034	0.276
-220.625	2.650	0.335	-0.239
-219.611	-146.143	0.182	0.016
-218.596	-200.000	-0.056	0.283
-217.582	-48.946	0.256	0.121
-216.567	-55.115	-0.367	-0.162
-215.552	23.119	0.155	-0.125
-214.538	136.868	-0.278	0.357
-213.523	-138.833	-0.219	0.023
-212.509	50.287	-0.105	0.097
-211.494	39.593	0.145	-0.128
-210.479	128.138	0.091	0.113
-209.465	-17.952	-0.245	0.151
-208.450	-68.697	-0.123	-0.047
-207.436	147.899	0.269	-0.356
-206.421	-200.000	-0.141	0.001
-205.406	-99.238	0.202	0.050
-204.392	-149.785	0.198	-0.015
-203.377	226.093	0.200	-0.319
-202.363	-110.230	-0.090	-0.018
-201.348	23.233	-0.112	-0.091
-200.333	191.244	-0.122	0.181
-199.319	428.166	0.124	-0.262
-198.304	800.000	-0.017	0.062
-197.290	800.000	-0.067	-0.208
-196.275	-122.385	-0.323	0.052
-195.260	-157.283	0.156	0.009
-194.246	27.088	0.213	0.175
-193.231	648.528	-0.038	-0.095
-192.217	307.079	-0.051	0.093
-191.202	800.000	-0.039	0.137
-190.187	55.097	0.036	0.034
-189.173	142.584	0.078	0.101
-188.158	-200.000	-0.012	-0.120
-187.144	-136.790	-0.293	0.033
-186.129	-117.488	-0.203	0.036
-185.114	111.039	0.165	0.194
-184.100	-169.377	-0.075	-0.003
-183.085	-200.000	0.013	-0.139
-182.071	205.742	0.025	0.039
-181.056	56.589	-0.130	-0.124
-180.042	-161.490	0.359	-0.018
-179.027	800.000	-0.111	-0.304
-178.012	121.082	-0.153	0.187
-176.998	-37.983	0.365	0.190
-175.983	-200.000	-0.000	-0.083
-174.969	54.422	0.116	-0.109
-173.954	-200.000	-0.024	0.140
-172.939	-199.626	-0.422	0.002
-171.925	800.000	-0.027	-0.093
-170.910	-10.854	-0.058	0.037
-169.896	-29.942	0.312	0.174
-168.881	-183.695	0.289	-0.005
-167.866	84.594	-0.401	-0.430
-166.852	-22.258	-0.117	0.070
-165.837	800.000	0.067	-0.212
-164.823	37.675	0.132	0.115
-163.808	477.208	0.165	0.366
-162.793	-200.000	-0.010	-0.132
-161.779	686.138	0.047	0.121
-160.764	793.781	-0.079	0.212
-159.750	-124.284	-0.310	0.048
-158.735	297.998	0.050	0.090
-157.720	28.103	-0.225	0.186
-156.706	77.857	0.090	-0.094
-155.691	-109.666	0.364	0.075
-154.677	77.224	-0.215	0.224
-153.662	517.203	-0.072	-0.166
-152.647	245.254	0.104	-0.171
-151.633	563.614	0.113	-0.267
-150.618	-200.000	0.009	0.206
-149.604	22.215	0.354	-0.284
-148.589	-101.550	-0.170	0.041
-147.574	-88.954	0.181	0.053
-146.560	327.373	-0.167	0.314
-145.545	-8.573	0.295	-0.194
-144.531	97.435	-0.210	-0.236
-143.516	288.320	0.017	-0.031
-142.502	800.000	-0.015	-0.052
-141.487	-127.140	0.435	0.062
-140.472	-200.000	0.095	-0.564
-139.458	-135.607	-0.109	-0.013
-138.443	78.392	-0.138	0.144
-137.429	-31.125	-0.055	0.031
-136.414	-200.000	-0.009	-0.053
-135.399	-80.635	0.032	0.011
-134.385	14.180	-0.202	0.154
-133.370	30.437	0.232	0.194
-132.356	87.952	0.174	-0.189
-131.341	-101.380	-0.103	0.025
-130.326	434.824	-0.097	-0.206
-129.312	-200.000	0.046	0.252
-128.297	-200.000	-0.034	-0.348
-127.283	-44.064	0.123	0.060
-126.268	-200.000	0.063	0.303
-125.253	100.926	-0.154	0.176
-124.239	-98.443	-0.197	0.049
-123.224	-30.542	-0.188	0.104
-122.210	40.526	0.098	-0.086
-121.195	-44.218	-0.204	0.100
-120.180	51.832	0.195	-0.182
-119.166	319.267	0.045	0.084
-118.151	-82.016	-0.213	0.068
-117.137	-68.576	0.388	-0.147
-116.122	-105.337	-0.204	0.045
-115.107	-142.601	0.120	0.012
-114.093	-200.000	0.061	-0.328
-113.078	-63.060	-0.156	-0.063
-112.064	-43.491	-0.089	-0.044
-111.049	-91.393	0.245	-0.068
-110.034	-144.526	0.204	0.018
-109.020	-200.000	-0.004	0.047
-108.005	-54.653	-0.128	-0.056
-106.991	800.000	-0.082	0.328
-105.976	-151.033	-0.307	0.023
-104.962	177.326	-0.188	0.268
-103.947	21.554	-0.349	0.278
-102.932	509.028	-0.030	-0.069
-101.918	800.000	0.099	-0.336
-100.903	115.723	-0.075	-0.090
-99.889	-200.000	0.010	0.049
-98.874	800.000	-0.021	-0.068
-97.859	169.524	-0.079	-0.110
-96.845	800.000	0.070	0.260
-95.830	800.000	0.041	-0.168
-94.816	-52.548	-0.102	0.046
-93.801	-50.762	0.035	0.016
-92.786	332.275	0.117	0.222
-91.772	36.161	-0.175	-0.151
-90.757	220.801	-0.183	0.287
-89.743	-140.937	0.129	0.013
-88.728	-155.034	-0.205	0.013
-87.713	-128.413	0.239	-0.033
-86.699	800.000	0.084	0.262
-85.684	-200.000	0.024	0.118
-84.670	-111.786	-0.283	-0.056
-83.655	-171.436	-0.411	0.013
-82.640	29.067	-0.181	-0.150
-81.626	47.712	-0.113	-0.103
-80.611	-200.000	0.015	-0.205
-79.597	800.000	0.114	0.436
-78.582	-72.078	0.102	0.037
-77.567	-87.471	-0.190	0.056
-76.553	264.737	0.042	-0.071
-75.538	-126.702	0.298	-0.043
-74.524	7.663	-0.128	-0.094
-73.509	-200.000	-0.005	0.324
-72.494	-13.066	-0.345	-0.219
-71.480	-81.060	0.245	0.079
-70.465	409.799	0.050	-0.103
-69.451	-9.724	0.324	-0.211
-68.436	19.448	-0.145	0.114
-67.422	-58.255	-0.221	0.094
-66.407	401.520	0.024	0.048
-65.392	-46.657	0.212	-0.102
-64.378	216.852	-0.112	0.175
-63.363	-200.000	-0.008	-0.102
-62.349	-27.873	0.237	0.134
-61.334	117.502	-0.911	-1.095
-60.319	129.584	0.470	0.587
-59.305	-200.000	-0.319	-1.392
-58.290	58.283	0.729	0.698
-57.276	699.184	0.572	1.469
-56.261	-200.000	116.112	649.470
-55.246	517.373	1537.659	3511.664
-54.232	176.096	2711.344	3843.499
-53.217	106.731	2180.850	2526.726
-52.203	37.463	1697.383	1469.553
-51.188	29.810	1512.366	1257.531
-50.173	27.538	1487.734	1221.788
-49.159	50.988	1546.765	1431.289
-48.144	49.251	1562.737	1434.137
-47.130	30.040	1517.886	1263.488
-46.115	26.835	1502.787	1229.193
-45.100	26.783	1499.005	1225.694
-44.086	26.706	1496.679	1223.226
-43.071	26.572	1495.621	1221.412
-42.057	26.647	1493.644	1220.252
-41.042	26.684	1492.311	1219.365
-40.027	26.688	1490.298	1217.695
-39.013	26.611	1488.968	1216.047
-37.998	26.569	1488.216	1215.102
-36.984	26.674	1487.304	1215.010
-35.969	26.603	1485.617	1213.110
-34.954	26.644	1484.070	1212.073
-33.940	26.708	1482.608	1211.257
-32.925	26.752	1480.772	1210.007
-31.911	26.679	1480.206	1209.008
-30.896	26.667	1479.232	1208.082
-29.881	26.755	1477.364	1207.095
-28.867	26.651	1476.321	1205.502
-27.852	26.760	1475.045	1205.139
-26.838	26.749	1474.310	1204.414
-25.823	26.759	1472.001	1202.549
-24.809	26.738	1470.236	1200.920
-23.794	26.735	1469.071	1199.905
-22.779	26.639	1468.516	1198.765
-21.765	26.649	1467.066	1197.602
-20.750	26.793	1466.122	1197.731
-19.736	26.694	1464.770	1195.930
-18.721	26.680	1463.839	1195.029
-17.706	26.687	1462.968	1194.318
-16.692	26.681	1461.195	1192.782
-15.677	26.694	1460.520	1192.270
-14.663	26.668	1459.686	1191.370
-13.648	26.704	1458.786	1190.824
-12.633	26.607	1458.074	1189.557
-11.619	26.643	1457.111	1188.965
-10.604	26.600	1455.985	1187.712
-9.590	26.616	1455.232	1187.159
-8.575	26.672	1454.144	1186.590
-7.560	26.597	1453.486	1185.516
-6.546	26.745	1452.208	1185.390
-5.531	26.645	1451.729	1184.299
-4.517	26.665	1450.452	1183.340
-3.502	26.701	1449.749	1182.959
-2.487	26.609	1448.966	1181.669
-1.473	26.671	1448.057	1181.290
-0.458	26.620	1446.515	1179.653
0.556	26.830	1436.926	1168.496
1.571	24.029	1411.636	1130.072
2.586	20.598	1350.627	1060.251
3.600	18.906	1268.240	985.799
4.615	17.854	1223.587	945.182
5.629	15.519	1167.337	889.297
6.644	8.921	1085.974	794.639
7.659	3.987	1049.660	744.319
8.673	3.289	1044.280	737.098
9.688	3.300	1040.820	734.643
10.702	3.299	1039.392	733.566
11.717	3.351	1037.380	732.330
12.731	5.122	1038.820	741.701
13.746	11.714	1047.867	779.612
14.761	17.819	1055.742	814.638
15.775	19.571	1056.913	823.836
16.790	19.255	1055.579	821.218
17.804	18.231	1053.273	814.480
18.819	17.249	1052.148	808.865
19.834	16.973	1050.046	805.868
20.848	16.589	1049.889	803.851
21.863	16.581	1048.832	802.932
22.877	16.426	1048.323	801.735
23.892	16.245	1047.276	800.008
24.907	16.177	1046.640	799.126
25.921	16.175	1045.758	798.376
26.936	16.107	1045.006	797.406
27.950	16.205	1043.746	796.839
28.965	16.159	1042.900	795.904
29.980	16.286	1041.645	795.476
30.994	16.274	1040.800	794.704
32.009	16.506	1039.512	794.741
33.023	16.588	1038.996	794.658
34.038	16.537	1037.822	793.455
35.053	16.391	1037.702	792.603
36.067	16.369	1036.481	791.502
37.082	16.316	1035.326	790.301
38.096	16.304	1034.623	789.639
39.111	16.509	1034.166	790.178
40.126	16.423	1033.414	789.129
41.140	16.390	1032.080	787.888
42.155	16.029	1031.019	785.328
43.169	16.004	1029.773	784.193
44.184	15.920	1029.097	783.219
45.199	15.962	1027.320	781.990
46.213	16.050	1026.508	781.709
47.228	16.148	1025.667	781.454
48.242	16.310	1024.547	781.283
49.257	16.321	1023.732	780.644
50.271	16.227	1023.226	779.754
51.286	16.375	1021.976	779.413
52.301	16.300	1021.548	778.675
53.315	16.267	1021.059	778.081
54.330	16.123	1020.035	776.568
55.344	16.109	1018.671	775.395
56.359	16.115	1017.553	774.502
57.374	16.130	1016.778	773.916
58.388	16.054	1016.205	773.061
59.403	15.931	1015.248	771.700
60.417	15.909	1013.979	770.567
61.432	15.882	1014.136	770.494
62.447	15.884	1012.873	769.478
63.461	15.951	1011.817	768.915
64.476	15.812	1011.086	767.655
65.490	15.733	1010.322	766.649
66.505	15.907	1008.974	766.347
67.520	15.830	1008.997	765.949
68.534	15.914	1007.639	765.230
69.549	15.956	1007.235	765.046
70.563	15.827	1006.448	763.797
71.578	15.861	1005.713	763.325
72.593	15.692	1004.876	761.858
73.607	15.792	1003.846	761.462
74.622	15.683	1002.877	760.167
75.636	15.666	1001.841	759.236
76.651	15.677	1001.187	758.725
77.666	15.731	1000.784	758.595
78.680	15.712	999.606	757.548
79.695	15.748	999.441	757.519
80.709	15.839	998.542	757.182
81.724	15.783	998.195	756.598
82.739	15.965	996.920	756.382
83.753	16.061	996.413	756.359
84.768	16.048	996.103	756.001
85.782	16.391	994.992	756.627
86.797	16.384	994.864	756.429
87.812	16.546	993.553	756.090
88.826	16.309	992.530	754.186
89.841	16.406	991.435	753.721
90.855	16.274	990.849	752.623
91.870	16.327	990.008	752.151
92.884	16.501	989.566	752.524
93.899	16.379	988.655	751.221
94.914	16.500	987.634	750.918
95.928	16.594	987.137	750.890
96.943	16.484	986.913	750.163
97.957	16.310	986.198	748.784
98.972	16.280	985.255	747.867
99.987	16.438	984.209	747.707
101.001	16.333	984.012	747.028
102.016	16.377	982.761	746.206
103.030	16.448	982.030	745.899
104.045	16.510	980.922	745.263
105.060	16.561	979.496	744.341
106.074	16.375	978.749	742.890
107.089	16.205	978.149	741.617
108.103	15.886	977.873	739.944
109.118	15.842	976.148	738.380
110.133	15.903	975.436	738.043
111.147	15.905	974.527	737.299
112.162	15.905	973.809	736.690
113.176	16.013	972.872	736.385
114.191	16.077	971.888	735.856
115.206	16.107	971.049	735.287
116.220	16.076	970.153	734.407
117.235	16.020	969.511	733.612
118.249	16.102	968.730	733.314
119.264	15.978	967.557	731.823
120.279	15.951	966.993	731.214
121.293	15.916	966.055	730.287
122.308	15.730	965.662	729.121
123.322	15.931	964.212	728.830
124.337	15.916	963.224	727.955
125.352	15.817	962.175	726.669
126.366	15.794	961.578	726.057
127.381	15.677	960.598	724.748
128.395	15.786	959.409	724.255
129.410	15.840	958.354	723.626
130.424	15.866	957.397	722.951
131.439	15.841	956.910	722.415
132.454	15.904	955.809	721.789
133.468	16.084	955.331	722.134
134.483	15.996	954.960	721.412
135.497	16.055	953.976	720.860
136.512	16.053	953.352	720.313
137.527	16.084	952.637	719.845
138.541	16.107	951.373	718.924
139.556	16.100	950.928	718.494
140.570	16.099	950.236	717.904
141.585	16.155	949.871	717.800
142.600	16.282	949.109	717.703
143.614	16.405	948.101	717.400
144.629	16.431	947.485	716.979
145.643	16.576	946.948	717.125
146.658	16.445	946.217	715.952
147.673	16.395	944.870	714.658
148.687	16.338	943.854	713.586
149.702	16.234	942.924	712.381
150.716	16.064	942.545	711.315
151.731	16.084	941.223	710.339
152.746	16.110	940.582	709.900
153.760	16.193	939.905	709.675
154.775	16.231	938.884	709.001
155.789	16.238	938.496	708.674
156.804	16.363	937.578	708.444
157.819	16.273	937.287	707.785
158.833	16.278	936.918	707.463
159.848	16.524	935.691	707.502
160.862	16.457	935.371	706.919
161.877	16.488	934.587	706.396
162.892	16.429	933.156	705.003
163.906	16.206	932.098	703.214
164.921	16.190	932.044	703.041
165.935	16.139	930.991	701.973
166.950	16.204	930.056	701.478
167.964	16.256	929.039	700.863
168.979	16.262	928.053	700.084
169.994	16.227	926.820	698.948
171.008	16.181	926.465	698.427
172.023	16.406	925.361	698.462
173.037	16.616	924.591	698.685
174.052	16.519	924.550	698.191
175.067	16.481	923.696	697.331
176.081	16.474	922.585	696.402
177.096	16.320	921.769	695.090
178.110	16.234	920.582	693.780
179.125	16.356	920.037	693.811
180.140	16.173	919.618	692.678
181.154	16.296	919.119	692.746
182.169	16.585	917.884	692.937
183.183	16.507	917.791	692.487
184.198	16.581	917.259	692.327
185.213	16.641	916.216	691.727
186.227	16.655	915.723	691.348
187.242	16.537	915.852	690.903
188.256	16.749	914.597	690.759
189.271	16.830	914.031	690.599
190.286	16.959	913.174	690.420
191.300	16.610	912.582	688.489
192.315	16.305	911.550	686.412
193.329	16.221	910.563	685.266
194.344	16.231	910.254	685.013
195.359	16.287	909.469	684.587
196.373	16.399	909.099	684.704
197.388	16.689	908.337	685.243
198.402	16.713	908.032	685.048
199.417	16.842	907.895	685.407
200.432	16.838	907.730	685.204
201.446	17.066	906.673	685.268
202.461	17.159	906.618	685.542
203.475	17.134	906.312	685.146
204.490	16.983	905.458	683.832
205.504	16.883	904.456	682.614
206.519	16.816	903.461	681.533
207.534	16.865	902.476	680.924
208.548	16.903	901.725	680.450
209.563	16.804	901.663	679.946
210.577	16.682	900.910	678.831
211.592	16.846	900.468	679.095
212.607	16.785	900.309	678.670
213.621	17.135	899.306	679.255
214.636	17.037	898.704	678.346
215.650	17.103	897.742	677.824
216.665	17.010	897.195	676.981
217.680	16.952	897.046	676.578
218.694	17.188	896.223	676.838
219.709	17.057	895.996	676.084
220.723	17.130	895.260	675.758
221.738	17.095	894.910	675.294
222.753	17.164	893.768	674.648
223.767	17.131	893.014	673.888
224.782	17.228	892.354	673.716
225.796	17.278	891.854	673.476
226.811	17.166	890.863	672.223
227.826	17.167	890.571	671.948
228.840	17.179	889.551	671.168
229.855	17.149	889.083	670.638
230.869	17.032	888.699	669.826
231.884	17.140	887.757	669.484
232.899	17.190	886.965	669.022
233.913	17.086	885.882	667.739
234.928	16.936	885.737	666.980
235.942	16.859	884.793	665.909
236.957	16.892	884.192	665.527
237.972	16.911	883.434	664.971
238.986	17.029	882.853	664.938
240.001	17.095	882.222	664.663
241.015	17.016	881.444	663.706
242.030	17.067	881.133	663.613
243.045	17.320	879.848	663.574
244.059	17.113	879.856	662.716
245.074	17.270	878.850	662.508
246.088	17.209	878.290	661.790
247.103	17.313	877.749	661.732
248.117	17.346	877.649	661.725
249.132	17.365	876.965	661.223
250.147	17.669	876.310	661.854
251.161	17.697	875.955	661.635
252.176	17.853	874.983	661.446
253.190	17.830	874.462	660.906
254.205	17.853	874.109	660.670
255.220	18.114	872.838	660.658
256.234	17.973	872.641	659.908
257.249	17.782	872.127	658.721
258.263	17.895	871.622	658.719
259.278	17.706	871.219	657.628
260.293	17.825	870.522	657.500
261.307	17.907	869.969	657.340
262.322	18.013	869.491	657.328
263.336	17.941	869.070	656.677
264.351	18.011	868.474	656.437
265.366	18.081	867.565	655.959
266.380	18.041	867.005	655.324
267.395	18.078	866.278	654.860
268.409	18.148	865.055	654.145
269.424	17.968	864.267	652.803
270.439	18.025	863.904	652.689
271.453	17.940	863.201	651.775
272.468	17.783	862.585	650.654
273.482	17.907	862.122	650.721
274.497	17.743	861.429	649.512
275.512	17.900	861.059	649.776
276.526	17.895	860.125	648.993
277.541	17.980	859.643	648.894
278.555	17.945	859.034	648.246
279.570	18.108	858.427	648.350
280.585	18.205	858.183	648.473
281.599	18.194	857.494	647.856
282.614	18.185	856.727	647.183
283.628	17.993	856.268	646.055
284.643	18.131	855.730	646.114
285.657	18.035	855.034	645.168
286.672	18.063	854.630	644.910
287.687	18.031	854.168	644.386
288.701	17.940	854.044	643.891
289.716	18.024	853.188	643.505
290.730	18.130	852.584	643.393
291.745	18.228	851.435	642.837
292.760	18.073	851.455	642.212
293.774	18.242	850.991	642.440
294.789	18.303	850.488	642.232
295.803	18.188	849.738	641.178
296.818	18.298	848.514	640.610
297.833	18.254	847.879	639.910
298.847	18.070	847.639	638.982
299.862	18.286	846.927	639.195
300.876	18.121	846.170	637.954
301.891	18.321	845.411	638.068
302.906	18.392	845.153	638.081
303.920	18.358	844.308	637.263
304.935	18.676	843.686	637.918
305.949	18.626	843.000	637.156
306.964	18.720	842.305	636.923
307.979	18.515	841.817	635.738
308.993	18.483	841.460	635.296
310.008	18.701	840.590	635.387
311.022	18.614	840.827	635.190
312.037	18.511	840.358	634.399
313.052	18.536	839.684	633.924
314.066	18.427	838.819	632.812
315.081	18.319	837.945	631.698
316.095	18.298	837.371	631.133
317.110	18.325	837.100	630.973
318.125	18.224	836.459	630.062
319.139	18.262	835.973	629.779
320.154	18.299	835.461	629.474
321.168	18.249	835.288	629.106
322.183	18.414	834.236	628.860
323.197	18.486	833.970	628.870
324.212	18.468	833.251	628.208
325.227	18.561	832.891	628.222
326.241	18.519	832.261	627.536
327.256	18.435	831.550	626.636
328.270	18.479	831.334	626.580
329.285	18.493	830.858	626.216
330.300	18.444	830.012	625.346
331.314	18.423	829.487	624.815
332.329	18.646	828.615	624.916
333.343	18.600	828.037	624.259
334.358	18.702	827.556	624.212
335.373	18.617	827.411	623.738
336.387	18.794	826.947	623.974
337.402	18.752	826.407	623.362
338.416	18.747	825.736	622.783
339.431	18.963	825.071	623.010
340.446	19.048	824.628	622.926
341.460	19.076	824.130	622.596
342.475	19.136	823.559	622.326
343.489	19.272	823.106	622.420
344.504	19.141	822.802	621.661
345.519	19.168	822.214	621.259
346.533	19.258	821.766	621.192
347.548	19.164	821.523	620.614
348.562	19.083	820.550	619.533
349.577	18.991	819.701	618.505
350.592	18.861	819.171	617.584
351.606	18.662	819.032	616.709
352.621	18.772	818.571	616.703
353.635	18.919	818.024	616.765
354.650	18.915	817.648	616.410
355.665	19.011	817.267	616.415
356.679	19.020	817.021	616.206
357.694	19.184	816.301	616.193
358.708	18.990	816.074	615.274
359.723	19.106	815.146	614.937
360.738	19.164	814.585	614.664
361.752	19.071	814.430	614.161
362.767	19.165	813.942	614.072
363.781	19.261	813.409	613.960
364.796	19.422	812.814	614.030
365.810	19.388	812.651	613.733
366.825	19.409	812.459	613.608
367.840	19.390	812.049	613.177
368.854	19.429	811.511	612.855
369.869	19.418	810.478	611.979
370.883	19.303	810.272	611.362
371.898	19.410	809.473	611.085
372.913	19.378	809.168	610.686
373.927	19.490	808.520	610.540
374.942	19.495	807.863	610.006
375.956	19.473	807.528	609.623
376.971	19.640	806.621	609.472
377.986	19.715	805.936	609.165
379.000	19.581	805.942	608.646
380.015	19.750	805.296	608.698
381.029	19.746	804.746	608.213
382.044	19.820	804.066	607.907
383.059	19.762	803.632	607.320
384.073	19.661	803.235	606.613
385.088	19.709	802.553	606.214
386.102	19.577	801.887	605.192
387.117	19.429	801.786	604.546
388.132	19.541	800.864	604.188
389.146	19.528	800.512	603.822
390.161	19.533	800.129	603.499
391.175	19.568	799.837	603.348
392.190	19.749	799.741	603.854
393.205	19.650	799.069	602.946
394.219	19.531	798.585	602.114
395.234	19.558	797.896	601.633
396.248	19.542	797.349	601.112
397.263	19.448	796.860	600.363
398.278	19.410	796.456	599.875
399.292	19.511	795.784	599.666
400.307	19.487	795.656	599.433
401.321	19.407	795.354	598.875
402.336	19.508	794.896	598.829
403.350	19.594	794.290	598.617
404.365	19.706	794.005	598.736
405.380	19.836	793.599	598.828
406.394	19.758	793.435	598.382
407.409	20.005	792.875	598.760
408.423	19.845	792.675	598.001
409.438	19.804	792.553	597.717
410.453	19.963	792.057	597.837
411.467	19.965	791.490	597.364
412.482	20.076	790.806	597.178
413.496	20.066	790.542	596.891
414.511	20.178	790.108	596.897
415.526	20.137	789.930	596.568
416.540	20.063	789.487	595.927
417.555	20.116	788.838	595.564
418.569	20.006	788.085	594.566
419.584	20.045	787.962	594.555
420.599	20.224	786.913	594.324
421.613	162.617	1369.910	1797.974
422.628	140.804	1454.853	1798.094
