DTS Sentinel unit serial number:	SN413079Multiplexer serial number:	ORYXHardware model number:	OX4-SRSoftware version number:	ORYX F/W v4.00 Oryx Data Collector v3.7.2.0data status	okinstallation	princeton_trtdifferential loss correction	single-endedforward channel	channel 3reverse channel	N/Adate	2019/09/11time	05:06:11forward acquisition time	60.00reverse acquisition time	0.00gamma	496.2192k internal	0.2330k external	0.2330temperature offset calibration	0.9906default loss term (dB/km)	0.3790temperature slope calibration	1.0000multiplexer offset coefficient	1.0000multiplexer slope coefficient	1.0000fibre end	0.00T internal ref (°C)	29.45T ext. ref 1 (°C)	-0.27T ext. ref 2 (°C)	23.33length (m)	temperature (°C)	Stokes	anti-Stokes-747.200	-200.000	0.038	0.184
-746.185	71.765	0.220	0.230
-745.171	239.514	0.139	-0.232
-744.156	-34.932	-0.167	0.092
-743.142	450.395	0.044	0.097
-742.127	-200.000	-0.019	-0.112
-741.112	212.741	-0.145	0.231
-740.098	-3.275	0.351	-0.247
-739.083	-200.000	0.029	0.240
-738.069	182.311	-0.206	0.306
-737.054	241.253	0.108	-0.181
-736.039	-96.791	0.116	0.031
-735.025	133.207	0.167	-0.217
-734.010	-200.000	-0.010	-0.188
-732.996	-62.316	-0.560	-0.235
-731.981	-164.672	0.370	0.017
-730.966	82.200	-0.168	-0.183
-729.952	38.430	-0.091	-0.082
-728.937	2.892	0.088	-0.064
-727.923	-4.961	-0.259	-0.179
-726.908	381.306	0.148	-0.307
-725.894	23.628	-0.157	-0.130
-724.879	-65.710	0.237	0.095
-723.864	-200.000	0.000	0.104
-722.850	-12.164	0.181	0.119
-721.835	800.000	-0.067	-0.265
-720.821	-200.000	-0.012	0.178
-719.806	-49.618	0.162	0.077
-718.791	-121.196	-0.211	-0.035
-717.777	610.165	-0.070	0.176
-716.762	800.000	-0.040	0.154
-715.748	-97.042	0.114	-0.030
-714.733	-62.305	-0.149	-0.062
-713.718	-200.000	0.011	-0.159
-712.704	-83.963	-0.174	-0.056
-711.689	139.896	0.096	0.127
-710.675	800.000	0.058	0.178
-709.660	-62.302	0.114	-0.048
-708.645	71.081	-0.163	-0.169
-707.631	-200.000	0.017	-0.100
-706.616	292.092	-0.128	-0.234
-705.602	362.917	-0.219	-0.442
-704.587	162.482	-0.035	0.049
-703.572	730.456	-0.134	-0.360
-702.558	758.339	-0.087	0.236
-701.543	-200.000	0.006	0.090
-700.529	216.248	-0.068	-0.108
-699.514	-42.414	-0.066	-0.034
-698.499	-200.000	-0.074	-0.327
-697.485	-48.443	0.066	-0.032
-696.470	165.005	-0.063	0.089
-695.456	-70.538	0.243	-0.092
-694.441	-87.849	-0.243	0.074
-693.426	-200.000	-0.031	0.399
-692.412	-155.401	-0.302	0.020
-691.397	-62.422	-0.113	0.047
-690.383	-50.092	0.324	0.154
-689.368	-200.000	0.006	-0.038
-688.354	-89.927	-0.209	0.061
-687.339	-69.053	0.174	0.067
-686.324	722.545	-0.070	-0.188
-685.310	800.000	-0.014	0.046
-684.295	-8.383	0.156	0.105
-683.281	-200.000	-0.339	0.001
-682.266	-40.501	-0.179	-0.093
-681.251	9.732	0.110	-0.084
-680.237	-64.277	0.206	0.084
-679.222	62.758	-0.256	0.257
-678.208	800.000	0.036	-0.145
-677.193	-45.079	0.208	0.104
-676.178	-64.566	-0.389	0.158
-675.164	505.539	-0.076	-0.176
-674.149	781.544	-0.050	0.138
-673.135	-105.057	-0.075	-0.017
-672.120	-97.862	-0.293	0.076
-671.105	-200.000	-0.042	0.203
-670.091	411.533	0.144	-0.308
-669.076	101.734	0.199	0.233
-668.062	353.534	0.071	-0.142
-667.047	16.643	-0.238	0.189
-666.032	800.000	-0.075	0.266
-665.018	97.760	-0.077	-0.089
-664.003	14.548	0.218	0.171
-662.989	-200.000	-0.010	0.162
-661.974	-200.000	-0.009	0.105
-660.959	122.333	-0.107	-0.135
-659.945	-171.665	-0.217	0.007
-658.930	-43.726	-0.466	-0.236
-657.916	800.000	0.032	-0.094
-656.901	0.006	0.186	-0.133
-655.886	228.784	0.043	-0.071
-654.872	-200.000	-0.018	-0.195
-653.857	-15.961	0.153	-0.098
-652.843	800.000	-0.069	0.241
-651.828	43.701	-0.058	0.053
-650.814	248.247	0.114	0.194
-649.799	800.000	0.033	0.133
-648.784	42.211	-0.097	-0.089
-647.770	-173.205	-0.089	0.003
-646.755	-96.911	0.232	-0.061
-645.741	247.686	-0.182	0.308
-644.726	-46.054	0.211	0.104
-643.711	-68.985	-0.068	-0.026
-642.697	-37.853	-0.148	-0.079
-641.682	139.087	-0.230	-0.303
-640.668	90.472	0.178	-0.200
-639.653	-200.000	-0.020	-0.185
-638.638	-183.730	-0.343	-0.006
-637.624	-42.960	0.123	-0.063
-636.609	-200.000	0.006	0.371
-635.595	28.124	0.251	-0.212
-634.580	211.848	0.018	0.028
-633.565	-24.868	-0.095	-0.057
-632.551	-9.514	0.143	-0.096
-631.536	-191.020	-0.365	-0.004
-630.522	138.363	-0.173	-0.227
-629.507	-65.520	-0.174	-0.070
-628.492	-153.099	0.193	-0.014
-627.478	-118.040	0.169	0.030
-626.463	-104.789	-0.258	0.059
-625.449	251.898	0.162	-0.277
-624.434	-200.000	-0.074	0.336
-623.419	-131.604	0.324	0.043
-622.405	-79.744	0.455	-0.154
-621.390	-181.572	-0.318	-0.006
-620.376	8.389	-0.107	-0.080
-619.361	-200.000	-0.081	0.402
-618.346	4.368	0.059	0.043
-617.332	375.973	-0.057	-0.116
-616.317	77.898	-0.229	0.244
-615.303	-75.541	-0.197	0.070
-614.288	-69.376	0.091	-0.035
-613.273	-37.216	0.269	-0.144
-612.259	386.341	-0.065	0.135
-611.244	223.526	0.283	0.458
-610.230	-148.024	-0.194	-0.016
-609.215	98.311	-0.122	-0.141
-608.201	-41.597	-0.319	-0.164
-607.186	-200.000	-0.016	0.113
-606.171	-97.754	-0.276	0.071
-605.157	291.183	-0.113	0.206
-604.142	35.078	0.203	0.178
-603.128	-80.946	-0.084	-0.028
-602.113	178.571	0.214	0.313
-601.098	-128.712	0.165	-0.023
-600.084	-99.069	-0.175	0.044
-599.069	58.759	-0.143	-0.141
-598.055	-200.000	-0.097	-0.605
-597.040	37.482	-0.151	-0.134
-596.025	43.658	-0.191	-0.175
-595.011	367.112	-0.092	-0.187
-593.996	-63.585	-0.021	0.009
-592.982	115.625	0.148	-0.181
-591.967	166.453	-0.094	0.133
-590.952	-63.125	-0.402	-0.166
-589.938	133.001	0.057	0.074
-588.923	-147.949	-0.083	0.007
-587.909	-200.000	0.020	-0.185
-586.894	-200.000	0.032	-0.169
-585.879	-125.676	0.112	0.017
-584.865	25.124	0.209	-0.173
-583.850	502.301	0.015	0.034
-582.836	-114.476	-0.211	0.041
-581.821	99.951	0.048	0.055
-580.806	-151.899	-0.490	-0.036
-579.792	11.741	0.293	0.225
-578.777	-131.382	-0.193	0.026
-577.763	61.715	0.101	0.101
-576.748	70.575	0.193	-0.200
-575.733	183.200	-0.149	-0.219
-574.719	136.276	0.065	-0.085
-573.704	800.000	0.044	-0.161
-572.690	-32.477	-0.141	-0.078
-571.675	103.095	0.228	-0.267
-570.661	-200.000	0.010	-0.220
-569.646	165.470	-0.113	-0.159
-568.631	-116.828	-0.115	0.021
-567.617	155.374	-0.220	-0.302
-566.602	134.882	0.030	0.039
-565.588	800.000	0.093	-0.293
-564.573	-130.035	0.454	0.062
-563.558	-12.929	-0.418	0.272
-562.544	-131.984	0.204	0.027
-561.529	82.238	-0.139	-0.151
-560.515	-200.000	0.011	-0.149
-559.500	44.621	0.108	0.099
-558.485	106.980	0.299	0.355
-557.471	-94.729	-0.205	-0.056
-556.456	-194.756	0.406	0.003
-555.442	-200.000	-0.043	-0.221
-554.427	0.521	-0.124	-0.088
-553.412	125.668	0.131	-0.165
-552.398	51.607	-0.027	0.026
-551.383	-200.000	-0.018	0.294
-550.369	57.476	0.149	-0.145
-549.354	-200.000	0.001	-0.028
-548.339	38.936	-0.309	0.276
-547.325	327.828	-0.097	-0.185
-546.310	713.855	0.099	0.263
-545.296	304.973	-0.146	0.271
-544.281	-92.252	0.418	-0.118
-543.266	-53.050	0.103	0.047
-542.252	800.000	0.035	-0.140
-541.237	57.132	0.344	-0.335
-540.223	14.861	0.026	-0.020
-539.208	582.325	-0.091	0.222
-538.193	-158.354	0.108	0.006
-537.179	289.293	0.146	-0.265
-536.164	-200.000	0.045	-0.230
-535.150	362.256	-0.186	0.373
-534.135	176.153	-0.105	0.152
-533.121	-136.338	-0.352	-0.041
-532.106	69.227	-0.238	-0.244
-531.091	251.392	0.111	-0.189
-530.077	-56.073	0.117	0.052
-529.062	-200.000	-0.088	-0.534
-528.048	28.533	-0.218	0.184
-527.033	682.880	0.060	-0.155
-526.018	-105.680	-0.195	0.044
-525.004	800.000	0.061	-0.203
-523.989	-138.791	-0.454	-0.049
-522.975	800.000	0.078	-0.270
-521.960	-145.291	-0.188	0.017
-520.945	272.774	-0.082	-0.144
-519.931	-134.360	-0.244	-0.030
-518.916	-200.000	-0.031	-0.288
-517.902	15.151	-0.157	-0.122
-516.887	-49.601	-0.216	-0.103
-515.872	177.233	0.239	-0.347
-514.858	-56.247	0.311	0.138
-513.843	-200.000	-0.016	-0.297
-512.829	-68.329	-0.152	-0.059
-511.814	800.000	-0.086	0.305
-510.799	159.979	-0.135	-0.188
-509.785	-200.000	0.002	0.088
-508.770	188.835	0.108	0.161
-507.756	22.239	-0.289	-0.236
-506.741	-94.549	-0.234	-0.064
-505.726	-108.090	0.387	-0.084
-504.712	-4.811	0.178	0.123
-503.697	-63.387	0.111	0.045
-502.683	215.775	-0.026	-0.042
-501.668	-200.000	-0.051	0.272
-500.653	-95.415	0.056	-0.015
-499.639	281.526	-0.039	0.069
-498.624	-200.000	0.047	-0.300
-497.610	415.579	-0.095	0.202
-496.595	-118.340	0.430	-0.076
-495.581	-142.836	-0.044	-0.004
-494.566	-1.345	0.170	-0.120
-493.551	671.975	-0.120	0.309
-492.537	-118.093	0.237	-0.042
-491.522	800.000	0.032	-0.092
-490.508	82.451	-0.043	-0.047
-489.493	-200.000	0.075	-0.384
-488.478	-123.580	-0.197	0.031
-487.464	-140.352	0.260	-0.027
-486.449	-200.000	0.017	0.284
-485.435	126.148	0.106	-0.134
-484.420	62.519	0.240	0.239
-483.405	-75.595	0.110	-0.039
-482.391	-17.051	-0.134	0.084
-481.376	361.172	0.246	0.492
-480.362	-200.000	-0.007	-0.190
-479.347	-108.615	0.379	0.081
-478.332	470.378	0.071	-0.159
-477.318	-200.000	-0.024	-0.338
-476.303	-100.265	0.314	0.078
-475.289	26.081	0.317	-0.264
-474.274	553.723	0.009	-0.022
-473.259	-200.000	-0.008	-0.060
-472.245	800.000	-0.062	-0.242
-471.230	219.497	0.093	-0.149
-470.216	-27.785	0.158	0.092
-469.201	-200.000	-0.134	0.000
-468.186	-146.389	-0.209	0.018
-467.172	501.737	-0.049	-0.114
-466.157	6.901	0.168	-0.125
-465.143	798.269	0.049	0.134
-464.128	91.866	0.107	0.120
-463.113	800.000	0.183	0.559
-462.099	-200.000	-0.018	-0.096
-461.084	800.000	-0.055	-0.218
-460.070	-23.057	0.118	0.071
-459.055	800.000	0.048	0.149
-458.040	-3.658	-0.245	-0.169
-457.026	639.291	-0.188	-0.476
-456.011	364.506	-0.092	-0.185
-454.997	278.727	-0.099	-0.176
-453.982	342.564	0.069	-0.134
-452.968	-109.433	0.294	0.062
-451.953	800.000	0.067	0.227
-450.938	800.000	-0.044	0.124
-449.924	54.552	-0.074	0.071
-448.909	19.769	-0.136	-0.109
-447.895	73.537	-0.126	-0.131
-446.880	-78.160	-0.225	-0.077
-445.865	-200.000	0.056	0.419
-444.851	318.985	0.109	-0.205
-443.836	292.357	0.176	-0.318
-442.822	800.000	-0.091	0.302
-441.807	-117.502	0.326	-0.059
-440.792	-31.386	-0.181	0.102
-439.778	65.420	0.182	-0.184
-438.763	149.752	0.071	-0.095
-437.749	392.065	0.051	-0.105
-436.734	-81.621	0.131	0.043
-435.719	-80.311	0.102	-0.034
-434.705	227.820	-0.071	-0.115
-433.690	-200.000	-0.047	0.409
-432.676	-200.000	0.009	0.197
-431.661	24.476	0.174	-0.143
-430.646	-60.681	0.112	0.047
-429.632	116.502	-0.085	0.104
-428.617	-10.711	0.107	-0.070
-427.603	9.451	0.289	-0.217
-426.588	-200.000	0.056	0.319
-425.573	800.000	-0.036	0.124
-424.559	374.077	-0.067	-0.136
-423.544	166.099	-0.208	-0.293
-422.530	800.000	0.102	-0.338
-421.515	800.000	0.023	-0.069
-420.500	48.858	-0.456	0.426
-419.486	-41.023	-0.105	-0.054
-418.471	-50.634	0.300	0.140
-417.457	53.800	0.157	0.150
-416.442	-200.000	0.025	0.130
-415.428	20.619	0.155	-0.125
-414.413	233.759	-0.065	-0.107
-413.398	29.559	0.206	0.174
-412.384	13.316	0.122	0.094
-411.369	-112.620	-0.287	-0.057
-410.355	21.724	0.262	-0.212
-409.340	-40.681	0.235	-0.121
-408.325	-97.060	-0.185	0.048
-407.311	283.540	0.041	0.073
-406.296	410.132	0.052	0.110
-405.282	142.385	-0.259	-0.342
-404.267	-181.391	-0.279	-0.005
-403.252	-96.950	-0.213	0.056
-402.238	-59.008	0.357	0.153
-401.223	721.580	0.060	-0.159
-400.209	-161.806	-0.202	-0.010
-399.194	-64.819	-0.031	-0.012
-398.179	-103.589	0.195	0.045
-397.165	476.130	0.095	0.213
-396.150	-115.675	0.307	0.057
-395.136	-74.042	-0.040	0.014
-394.121	-30.639	-0.089	-0.050
-393.106	190.877	-0.061	0.091
-392.092	34.857	-0.256	-0.222
-391.077	-28.081	-0.158	0.091
-390.063	-48.596	0.267	-0.127
-389.048	-182.640	0.258	0.005
-388.033	800.000	0.097	0.374
-387.019	-31.508	0.052	0.029
-386.004	-200.000	-0.010	-0.096
-384.990	568.871	-0.190	0.459
-383.975	-2.589	-0.054	-0.038
-382.960	90.215	0.299	0.332
-381.946	-124.614	-0.232	-0.036
-380.931	-200.000	-0.066	0.333
-379.917	-200.000	0.036	-0.461
-378.902	22.787	0.139	-0.113
-377.888	-33.374	0.096	0.052
-376.873	147.286	-0.065	0.087
-375.858	-129.409	-0.249	-0.034
-374.844	164.469	0.016	0.022
-373.829	-1.666	-0.146	0.102
-372.815	249.324	-0.122	-0.206
-371.800	800.000	-0.065	-0.183
-370.785	-51.351	-0.192	-0.089
-369.771	-182.274	-0.107	0.002
-368.756	90.870	-0.104	-0.116
-367.742	-14.746	0.178	-0.113
-366.727	138.553	-0.447	0.582
-365.712	180.356	0.109	-0.158
-364.698	-64.857	0.215	0.086
-363.683	617.951	0.025	0.063
-362.669	800.000	-0.086	0.325
-361.654	145.565	-0.039	-0.052
-360.639	133.991	-0.046	0.059
-359.625	-55.301	-0.098	-0.044
-358.610	-45.837	0.364	-0.179
-357.596	207.777	-0.113	-0.175
-356.581	800.000	-0.058	0.196
-355.566	-88.730	0.337	0.099
-354.552	-200.000	-0.009	-0.127
-353.537	800.000	-0.035	0.104
-352.523	-79.093	-0.009	0.003
-351.508	-24.753	-0.056	-0.033
-350.493	-200.000	-0.018	0.239
-349.479	-24.619	0.221	0.130
-348.464	-65.242	-0.306	-0.122
-347.450	-172.256	-0.072	0.002
-346.435	240.066	-0.186	0.308
-345.420	-145.658	-0.102	-0.009
-344.406	-200.000	0.036	-0.314
-343.391	-118.766	0.243	-0.042
-342.377	30.498	0.331	0.281
-341.362	800.000	-0.035	-0.128
-340.348	-9.501	-0.146	0.097
-339.333	-164.499	-0.110	0.005
-338.318	-104.342	-0.209	-0.048
-337.304	-200.000	-0.028	0.456
-336.289	-67.074	0.531	0.207
-335.275	-110.143	-0.313	-0.065
-334.260	800.000	0.065	-0.217
-333.245	-102.514	-0.060	0.014
-332.231	-169.089	0.082	0.003
-331.216	293.147	0.182	-0.329
-330.202	-1.406	-0.121	0.084
-329.187	-96.489	0.392	0.103
-328.172	295.578	-0.087	0.158
-327.158	-67.406	0.230	0.090
-326.143	800.000	0.022	-0.095
-325.129	220.956	0.064	0.101
-324.114	-142.779	-0.468	0.045
-323.099	-63.404	0.288	0.117
-322.085	-154.690	0.127	0.008
-321.070	1.775	-0.100	-0.071
-320.056	19.567	0.348	-0.278
-319.041	-43.272	0.118	-0.059
-318.026	592.467	0.095	-0.231
-317.012	161.530	0.148	-0.205
-315.997	245.236	-0.279	0.465
-314.983	-200.000	-0.022	0.147
-313.968	-118.433	-0.088	-0.015
-312.953	468.022	-0.075	-0.167
-311.939	-109.539	0.150	-0.031
-310.924	-40.531	0.194	0.100
-309.910	-125.245	-0.238	-0.036
-308.895	273.608	0.148	0.260
-307.880	-200.000	-0.021	0.096
-306.866	-200.000	0.004	-0.239
-305.851	159.182	0.045	0.063
-304.837	-180.493	0.119	0.002
-303.822	-200.000	-0.013	0.151
-302.807	-92.127	-0.183	-0.051
-301.793	799.830	0.127	-0.346
-300.778	230.163	-0.039	-0.062
-299.764	-56.600	-0.227	-0.100
-298.749	421.100	-0.092	-0.194
-297.735	3.871	0.185	0.134
-296.720	28.993	0.198	0.166
-295.705	6.466	0.098	-0.072
-294.691	382.334	0.038	-0.077
-293.676	13.123	0.141	0.108
-292.662	-200.000	0.058	-0.418
-291.647	800.000	0.076	0.256
-290.632	-115.893	-0.169	-0.031
-289.618	-12.125	-0.233	-0.151
-288.603	5.684	0.128	-0.094
-287.589	-200.000	-0.062	-0.354
-286.574	-200.000	-0.025	0.193
-285.559	-120.251	-0.098	-0.017
-284.545	-12.987	-0.135	0.087
-283.530	-97.048	0.208	0.054
-282.516	-34.424	0.148	-0.080
-281.501	33.480	0.108	0.093
-280.486	-79.030	-0.290	0.098
-279.472	-36.084	-0.270	-0.144
-278.457	800.000	-0.032	0.111
-277.443	-200.000	-0.017	-0.106
-276.428	36.471	0.276	0.240
-275.413	186.733	0.075	0.110
-274.399	800.000	0.034	0.110
-273.384	800.000	0.049	-0.163
-272.370	-127.171	0.058	0.008
-271.355	800.000	-0.048	0.181
-270.340	-200.000	0.018	-0.184
-269.326	299.863	-0.076	-0.138
-268.311	-177.890	0.096	0.002
-267.297	-200.000	0.005	0.087
-266.282	-25.416	0.141	0.082
-265.267	40.619	-0.110	-0.098
-264.253	140.787	0.186	0.243
-263.238	-200.000	-0.005	-0.089
-262.224	800.000	-0.042	-0.118
-261.209	66.228	-0.172	0.172
-260.195	106.700	0.075	0.088
-259.180	128.349	-0.083	-0.104
-258.165	-200.000	-0.038	0.226
-257.151	-93.380	-0.165	0.045
-256.136	-46.680	-0.367	0.177
-255.122	800.000	0.050	0.166
-254.107	-55.977	-0.288	-0.127
-253.092	4.238	-0.145	-0.105
-252.078	39.220	-0.129	0.114
-251.063	-65.991	-0.105	-0.041
-250.049	239.650	-0.044	-0.073
-249.034	-104.844	-0.165	-0.037
-248.019	341.541	-0.090	-0.173
-247.005	75.857	-0.057	0.059
-245.990	383.555	0.039	-0.079
-244.976	-200.000	0.069	0.363
-243.961	8.310	0.142	0.105
-242.946	122.480	0.273	0.337
-241.932	-26.629	-0.371	0.214
-240.917	-200.000	-0.069	-0.462
-239.903	42.219	0.180	-0.161
-238.888	-33.797	0.227	0.123
-237.873	-200.000	-0.003	-0.049
-236.859	-111.835	-0.468	-0.093
-235.844	-144.057	0.179	0.017
-234.830	95.741	0.138	0.155
-233.815	800.000	0.025	-0.104
-232.800	-200.000	-0.004	0.158
-231.786	392.460	0.118	0.242
-230.771	153.421	0.088	0.118
-229.757	-45.601	-0.238	-0.116
-228.742	122.105	-0.177	0.218
-227.727	-193.556	0.274	-0.002
-226.713	550.376	0.160	-0.380
-225.698	800.000	-0.103	0.332
-224.684	655.969	0.054	0.136
-223.669	-200.000	-0.009	-0.431
-222.655	300.043	0.042	-0.076
-221.640	93.457	0.058	0.065
-220.625	-129.304	0.104	-0.014
-219.611	250.961	-0.068	0.114
-218.596	264.995	-0.099	-0.170
-217.582	407.673	-0.190	-0.396
-216.567	-149.365	-0.260	-0.020
-215.552	124.893	0.242	0.301
-214.538	-96.504	-0.129	0.034
-213.523	-117.128	-0.275	0.049
-212.509	-200.000	0.011	0.057
-211.494	170.633	-0.107	-0.151
-210.479	800.000	-0.061	0.188
-209.465	-200.000	-0.032	0.232
-208.450	30.766	-0.349	0.294
-207.436	-200.000	0.007	-0.134
-206.421	35.017	0.314	0.271
-205.406	-85.777	-0.167	0.051
-204.392	80.200	-0.073	-0.077
-203.377	-200.000	-0.007	0.208
-202.363	18.679	0.062	0.049
-201.348	-48.308	-0.276	-0.131
-200.333	213.407	-0.036	-0.056
-199.319	9.472	0.369	0.275
-198.304	-98.205	-0.140	0.036
-197.290	-160.934	-0.078	0.004
-196.275	-83.508	0.342	-0.108
-195.260	-95.568	-0.053	-0.014
-194.246	800.000	0.155	0.428
-193.231	-200.000	-0.007	0.125
-192.217	195.248	0.176	0.263
-191.202	-133.052	0.298	0.037
-190.187	-53.172	0.248	-0.112
-189.173	-200.000	-0.028	-0.241
-188.158	-89.241	0.141	0.041
-187.144	216.515	0.153	0.240
-186.129	-84.078	0.366	-0.115
-185.114	58.402	0.116	0.112
-184.100	-119.645	-0.171	0.029
-183.085	-44.836	-0.176	-0.086
-182.071	-24.177	0.218	-0.128
-181.056	-23.477	0.193	0.114
-180.042	264.656	-0.033	0.057
-179.027	-200.000	-0.033	-0.200
-178.012	15.854	0.140	0.108
-176.998	800.000	0.073	0.260
-175.983	800.000	0.057	-0.168
-174.969	121.828	0.126	0.155
-173.954	-200.000	0.051	0.261
-172.939	524.955	0.078	-0.181
-171.925	-22.396	-0.310	0.185
-170.910	-93.816	-0.093	-0.025
-169.896	65.433	0.109	0.109
-168.881	128.134	-0.123	0.154
-167.866	264.840	0.058	-0.099
-166.852	-200.000	0.000	0.037
-165.837	-83.561	-0.290	0.091
-164.823	-108.896	-0.334	0.070
-163.808	689.322	0.077	-0.197
-162.793	-43.775	-0.269	0.133
-161.779	346.106	0.059	-0.115
-160.764	-97.873	-0.088	0.022
-159.750	800.000	0.031	0.093
-158.735	-51.513	-0.273	0.125
-157.720	2.860	-0.235	0.168
-156.706	166.970	-0.025	0.034
-155.691	10.830	0.043	-0.033
-154.677	534.818	-0.074	-0.173
-153.662	-200.000	-0.036	-0.269
-152.647	-200.000	0.010	0.606
-151.633	123.297	-0.180	0.222
-150.618	276.727	-0.094	0.164
-149.604	114.888	0.181	-0.217
-148.589	-200.000	-0.007	-0.359
-147.574	39.903	-0.140	-0.124
-146.560	-41.472	0.086	0.044
-145.545	-200.000	0.007	0.039
-144.531	800.000	0.047	0.153
-143.516	-90.880	-0.160	0.045
-142.502	-200.000	0.013	0.378
-141.487	800.000	-0.146	-0.404
-140.472	89.780	0.188	-0.207
-139.458	11.023	0.121	0.091
-138.443	-129.242	0.226	0.031
-137.429	25.539	-0.178	0.146
-136.414	-147.992	0.204	0.017
-135.399	509.864	-0.154	0.351
-134.385	-55.676	-0.272	-0.119
-133.370	-200.000	-0.055	-0.285
-132.356	715.208	-0.023	0.059
-131.341	-63.384	-0.344	-0.139
-130.326	138.425	-0.075	-0.097
-129.312	103.606	0.284	0.328
-128.297	10.536	-0.434	0.325
-127.283	-200.000	-0.005	0.054
-126.268	-200.000	0.005	0.213
-125.253	223.795	-0.132	-0.210
-124.239	188.912	0.192	-0.282
-123.224	342.804	-0.103	-0.199
-122.210	-3.539	-0.027	0.019
-121.195	146.337	-0.078	0.104
-120.180	-200.000	0.007	-0.068
-119.166	70.307	-0.390	0.396
-118.151	-84.049	0.207	0.064
-117.137	-200.000	0.003	0.058
-116.122	800.000	-0.086	0.367
-115.107	9.955	0.397	-0.296
-114.093	-193.921	0.151	0.001
-113.078	-110.037	-0.305	-0.063
-112.064	-200.000	0.012	-0.182
-111.049	196.927	-0.067	-0.101
-110.034	-123.937	-0.193	0.030
-109.020	-14.765	0.089	-0.056
-108.005	550.470	0.121	0.285
-106.991	-35.963	-0.192	-0.102
-105.976	-76.841	0.196	0.067
-104.962	-13.615	0.047	0.030
-103.947	-42.273	0.034	-0.017
-102.932	234.554	-0.170	-0.276
-101.918	66.852	0.104	0.104
-100.903	-111.222	0.305	-0.061
-99.889	286.664	-0.179	0.317
-98.874	85.876	0.112	-0.121
-97.859	-55.184	0.234	0.104
-96.845	-187.704	-0.109	0.001
-95.830	800.000	0.118	0.456
-94.816	-125.179	0.313	0.047
-93.801	129.362	-0.172	-0.215
-92.786	30.256	0.231	0.193
-91.772	-117.920	-0.300	0.053
-90.757	-88.954	-0.201	0.059
-89.743	531.850	0.156	-0.362
-88.728	-200.000	-0.025	-0.179
-87.713	-47.417	0.236	-0.113
-86.699	451.639	0.227	-0.492
-85.684	36.234	-0.124	0.107
-84.670	800.000	-0.086	0.284
-83.655	449.280	0.162	0.351
-82.640	800.000	0.124	-0.377
-81.626	-168.349	-0.183	-0.007
-80.611	-95.494	-0.066	-0.017
-79.597	800.000	-0.082	-0.224
-78.582	-200.000	-0.084	-0.385
-77.567	332.529	-0.067	0.126
-76.553	115.696	-0.312	0.374
-75.538	-62.007	0.183	0.075
-74.524	-28.247	-0.029	0.017
-73.509	28.227	-0.141	-0.116
-72.494	-130.574	0.391	0.052
-71.480	122.685	0.190	0.234
-70.465	-17.615	0.280	-0.173
-69.451	-170.304	0.089	-0.003
-68.436	-200.000	0.006	0.310
-67.422	-200.000	-0.033	0.202
-66.407	0.379	-0.040	0.028
-65.392	-5.865	0.254	-0.170
-64.378	-117.367	-0.290	-0.052
-63.363	-200.000	0.022	-0.150
-62.349	-112.444	-0.119	0.023
-61.334	150.109	-0.775	-1.031
-60.319	-48.871	0.389	0.183
-59.305	800.000	-0.261	-0.812
-58.290	476.709	0.494	1.094
-57.276	573.495	0.636	1.521
-56.261	-200.000	105.859	614.135
-55.246	508.974	1507.879	3433.387
-54.232	176.027	2701.956	3843.954
-53.217	110.905	2186.578	2579.251
-52.203	40.140	1705.692	1502.674
-51.188	32.567	1515.534	1283.729
-50.173	30.234	1488.803	1245.397
-49.159	51.416	1544.438	1437.417
-48.144	51.587	1561.491	1454.396
-47.130	32.797	1517.456	1286.725
-46.115	29.785	1502.022	1253.213
-45.100	29.601	1498.754	1249.195
-44.086	29.501	1496.567	1246.646
-43.071	29.449	1494.398	1244.440
-42.057	29.422	1492.917	1242.974
-41.042	29.372	1491.819	1241.672
-40.027	29.359	1490.820	1240.704
-39.013	29.398	1488.896	1239.318
-37.998	29.408	1487.306	1238.014
-36.984	29.397	1486.120	1236.905
-35.969	29.441	1484.506	1235.806
-34.954	29.427	1483.335	1234.688
-33.940	29.453	1481.695	1233.444
-32.925	29.432	1480.365	1232.146
-31.911	29.570	1478.929	1231.827
-30.896	29.558	1477.628	1230.613
-29.881	29.487	1476.945	1229.519
-28.867	29.526	1475.268	1228.336
-27.852	29.546	1473.796	1227.197
-26.838	29.445	1472.937	1225.763
-25.823	29.462	1471.311	1224.472
-24.809	29.551	1469.561	1223.558
-23.794	29.498	1468.336	1222.136
-22.779	29.410	1467.262	1220.614
-21.765	29.474	1465.794	1219.768
-20.750	29.538	1464.933	1219.423
-19.736	29.494	1463.867	1218.201
-18.721	29.386	1462.336	1216.166
-17.706	29.486	1461.568	1216.133
-16.692	29.536	1460.323	1215.381
-15.677	29.400	1459.526	1213.773
-14.663	29.418	1458.277	1212.808
-13.648	29.482	1457.392	1212.441
-12.633	29.462	1456.437	1211.467
-11.619	29.414	1455.832	1210.604
-10.604	29.460	1454.648	1209.871
-9.590	29.448	1453.587	1208.864
-8.575	29.444	1453.293	1208.544
-7.560	29.344	1452.539	1207.210
-6.546	29.445	1451.353	1206.838
-5.531	29.392	1450.444	1205.691
-4.517	29.379	1449.941	1205.138
-3.502	29.423	1448.789	1204.421
-2.487	29.450	1447.373	1203.370
-1.473	29.430	1446.287	1202.293
-0.458	29.341	1445.864	1201.311
0.556	26.929	1436.389	1190.755
1.571	23.982	1410.787	1150.406
2.586	20.760	1352.529	1082.794
3.600	19.278	1272.146	1009.675
4.615	18.277	1227.110	968.185
5.629	16.048	1172.628	913.058
6.644	8.177	1088.827	807.996
7.659	1.009	1048.622	743.025
8.673	-0.197	1043.423	733.385
9.688	-0.285	1040.254	730.664
10.702	-0.393	1038.288	728.697
11.717	-0.215	1036.183	728.018
12.731	2.915	1039.915	745.790
13.746	11.719	1052.313	797.720
14.761	18.636	1061.103	838.220
15.775	20.494	1063.075	848.791
16.790	20.806	1062.883	850.085
17.804	20.472	1062.175	847.811
18.819	20.369	1061.132	846.402
19.834	20.442	1060.842	846.452
20.848	20.634	1059.914	846.570
21.863	20.791	1059.333	846.795
22.877	20.656	1059.609	846.288
23.892	20.703	1058.535	845.580
24.907	20.532	1058.097	844.327
25.921	20.674	1056.968	844.038
26.936	20.473	1056.496	842.612
27.950	20.653	1054.932	842.164
28.965	20.494	1054.211	840.742
29.980	20.514	1052.220	839.175
30.994	20.480	1050.481	837.555
32.009	20.740	1049.479	837.933
33.023	20.699	1049.039	837.310
34.038	20.578	1047.811	835.674
35.053	20.530	1047.058	834.767
36.067	20.642	1046.869	835.083
37.082	20.679	1045.732	834.277
38.096	20.759	1045.057	834.052
39.111	20.883	1044.386	834.031
40.126	20.933	1043.145	833.205
41.140	20.790	1041.870	831.431
42.155	20.534	1040.682	829.189
43.169	20.214	1039.071	826.309
44.184	20.224	1038.097	825.509
45.199	20.218	1037.260	824.740
46.213	20.389	1035.621	824.179
47.228	20.266	1034.646	822.744
48.242	20.375	1034.073	822.732
49.257	20.511	1033.403	822.771
50.271	20.591	1032.322	822.216
51.286	20.647	1031.828	822.015
52.301	20.782	1031.225	822.100
53.315	20.518	1030.820	820.458
54.330	20.726	1029.646	820.433
55.344	20.537	1029.018	818.970
56.359	20.654	1027.868	818.531
57.374	20.660	1027.243	817.987
58.388	20.449	1026.407	816.259
59.403	20.445	1025.556	815.493
60.417	20.404	1024.749	814.584
61.432	20.316	1023.953	813.468
62.447	20.318	1023.075	812.709
63.461	20.378	1022.876	812.758
64.476	20.452	1022.013	812.348
65.490	20.431	1020.847	811.252
66.505	20.537	1019.804	810.843
67.520	20.302	1019.470	809.412
68.534	20.401	1018.630	809.134
69.549	20.343	1017.033	807.524
70.563	20.110	1016.020	805.566
71.578	19.999	1015.727	804.747
72.593	20.060	1014.897	804.298
73.607	19.838	1013.681	802.237
74.622	19.898	1012.361	801.398
75.636	20.108	1012.110	802.100
76.651	20.303	1011.032	802.075
77.666	20.214	1010.033	800.802
78.680	20.188	1009.179	799.932
79.695	20.134	1008.542	799.108
80.709	20.249	1007.920	799.077
81.724	20.337	1007.117	798.773
82.739	20.252	1005.912	797.355
83.753	20.252	1005.444	796.913
84.768	20.461	1005.002	797.453
85.782	20.659	1004.467	797.867
86.797	20.895	1003.596	798.185
87.812	20.900	1002.128	796.971
88.826	20.716	1001.741	795.753
89.841	20.764	1000.947	795.270
90.855	20.918	999.711	794.920
91.870	20.897	999.394	794.502
92.884	20.935	997.857	793.383
93.899	20.793	997.405	792.307
94.914	20.713	995.936	790.704
95.928	20.702	995.709	790.405
96.943	20.879	994.627	790.278
97.957	20.581	993.581	788.031
98.972	20.288	992.655	785.897
99.987	20.136	991.724	784.403
101.001	20.281	991.070	784.473
102.016	20.664	989.851	785.168
103.030	20.649	989.236	784.543
104.045	20.635	987.881	783.336
105.060	20.394	986.604	781.171
106.074	20.156	985.874	779.452
107.089	20.169	985.112	778.837
108.103	20.523	984.783	780.100
109.118	20.697	983.790	780.022
110.133	20.437	982.633	777.872
111.147	20.523	981.281	777.119
112.162	20.354	980.528	775.699
113.176	20.177	979.191	773.783
114.191	20.160	978.679	773.232
115.206	20.388	977.801	773.487
116.220	20.056	976.326	770.773
117.235	19.840	975.609	769.181
118.249	20.106	975.064	769.864
119.264	20.194	973.862	769.237
120.279	20.145	972.646	767.990
121.293	20.132	972.054	767.397
122.308	20.139	971.884	767.230
123.322	20.129	970.869	766.317
124.337	20.181	969.687	765.543
125.352	20.040	968.412	763.847
126.366	19.645	966.311	760.385
127.381	19.379	965.345	758.387
128.395	19.943	964.728	760.315
129.410	20.421	964.353	762.048
130.424	20.677	963.329	762.292
131.439	20.629	962.612	761.447
132.454	20.532	961.726	760.258
133.468	20.475	960.527	758.993
134.483	20.469	959.939	758.436
135.497	20.580	959.012	758.118
136.512	20.682	958.859	758.377
137.527	20.684	957.895	757.556
138.541	20.859	956.725	757.324
139.556	20.781	956.153	756.465
140.570	20.869	955.017	755.881
141.585	20.743	954.579	754.923
142.600	20.864	953.609	754.609
143.614	20.698	952.288	752.781
144.629	20.821	951.966	752.992
145.643	20.947	951.551	753.143
146.658	21.057	949.782	752.147
147.673	20.827	948.467	750.050
148.687	20.649	947.513	748.464
149.702	20.657	946.960	747.997
150.716	20.597	945.618	746.611
151.731	20.609	944.935	746.060
152.746	20.663	944.161	745.611
153.760	20.831	943.585	745.812
154.775	20.985	942.718	745.716
155.789	21.125	941.390	745.200
156.804	21.002	941.009	744.305
157.819	20.912	939.782	742.886
158.833	20.878	939.103	742.141
159.848	20.940	938.520	741.877
160.862	20.902	938.032	741.266
161.877	20.953	936.701	740.362
162.892	20.933	935.453	739.227
163.906	21.030	934.889	739.125
164.921	20.942	934.169	738.121
165.935	20.860	932.933	736.730
166.950	20.918	931.808	736.023
167.964	21.123	930.952	736.146
168.979	20.870	930.123	734.359
169.994	20.983	928.551	733.527
171.008	20.730	928.345	732.235
172.023	20.857	927.767	732.248
173.037	21.017	926.873	732.149
174.052	20.773	925.621	730.074
175.067	20.628	924.374	728.418
176.081	20.609	923.764	727.795
177.096	20.883	922.574	727.937
178.110	20.763	921.903	726.843
179.125	20.596	920.951	725.332
180.140	20.333	920.031	723.448
181.154	20.392	919.535	723.237
182.169	20.474	919.133	723.198
183.183	20.509	918.560	722.830
184.198	20.937	918.129	724.204
185.213	21.061	917.008	723.772
186.227	21.051	915.994	722.868
187.242	20.970	916.329	722.729
188.256	21.033	915.327	722.137
189.271	21.102	914.213	721.480
190.286	21.106	913.769	721.082
191.300	20.833	913.163	719.412
192.315	20.494	911.291	716.478
193.329	19.765	910.376	712.692
194.344	19.361	909.339	710.152
195.359	19.995	909.214	712.602
196.373	20.698	909.625	715.752
197.388	20.835	909.035	715.789
198.402	20.837	908.308	715.162
199.417	20.751	907.353	713.995
200.432	20.878	907.322	714.426
201.446	20.604	906.676	712.732
202.461	20.347	905.728	710.869
203.475	20.502	905.337	711.135
204.490	20.052	903.336	707.664
205.504	18.910	901.427	701.449
206.519	19.350	901.731	703.418
207.534	20.251	902.011	707.249
208.548	20.539	901.093	707.641
209.563	20.828	900.913	708.613
210.577	20.754	900.715	708.092
211.592	20.459	899.810	706.117
212.607	20.926	899.215	707.487
213.621	21.034	898.752	707.495
214.636	20.939	897.934	706.407
215.650	21.014	897.882	706.607
216.665	21.006	897.011	705.825
217.680	21.022	896.428	705.367
218.694	21.089	895.709	705.011
219.709	20.683	894.826	702.616
220.723	20.469	893.668	700.778
221.738	20.648	893.513	701.319
222.753	20.751	893.051	701.308
223.767	20.836	892.089	700.836
224.782	20.809	891.429	700.144
225.796	20.981	890.869	700.335
226.811	20.993	890.917	700.356
227.826	20.743	889.343	698.054
228.840	19.918	888.127	693.734
229.855	19.845	887.233	692.682
230.869	20.182	886.686	693.542
231.884	19.717	886.377	691.378
232.899	19.953	885.353	691.463
233.913	20.664	885.466	694.331
234.928	20.932	884.669	694.712
235.942	20.793	884.169	693.704
236.957	20.892	883.383	693.419
237.972	20.572	882.516	691.405
238.986	20.422	882.186	690.490
240.001	20.529	881.771	690.529
241.015	20.513	880.865	689.695
242.030	20.540	880.681	689.595
243.045	20.883	879.622	690.064
244.059	20.860	879.330	689.682
245.074	21.000	878.798	689.760
246.088	20.847	878.212	688.631
247.103	20.587	877.095	686.671
248.117	20.634	876.803	686.567
249.132	21.095	876.453	688.048
250.147	21.367	876.009	688.711
251.161	21.529	875.545	688.923
252.176	21.737	874.989	689.244
253.190	21.542	874.453	687.995
254.205	21.660	874.096	688.114
255.220	21.884	873.516	688.477
256.234	21.902	872.532	687.712
257.249	21.816	872.018	686.909
258.263	21.479	871.464	685.092
259.278	21.658	871.230	685.548
260.293	21.723	870.358	685.053
261.307	21.742	870.222	684.963
262.322	21.610	869.185	683.571
263.336	21.540	868.619	682.789
264.351	21.063	866.976	679.582
265.366	19.921	865.323	673.781
266.380	19.449	864.364	671.140
267.395	20.538	864.697	675.575
268.409	21.305	864.692	678.489
269.424	21.315	863.998	677.925
270.439	21.248	863.708	677.378
271.453	21.493	862.918	677.648
272.468	21.464	861.993	676.749
273.482	21.674	861.656	677.234
274.497	21.817	861.572	677.664
275.512	21.626	860.075	675.688
276.526	20.908	859.291	672.243
277.541	21.247	858.867	673.159
278.555	21.557	858.460	673.973
279.570	21.327	858.118	672.760
280.585	21.115	856.981	670.997
281.599	21.176	856.502	670.794
282.614	21.461	855.810	671.289
283.628	21.097	854.511	668.815
284.643	20.644	854.040	666.652
285.657	20.987	854.570	668.320
286.672	20.885	853.494	667.030
287.687	20.504	852.122	664.441
288.701	20.861	852.230	665.833
289.716	21.334	851.855	667.287
290.730	20.965	850.883	665.058
291.745	20.797	850.522	664.076
292.760	20.602	849.181	662.230
293.774	20.544	848.674	661.554
294.789	21.356	849.730	665.411
295.803	21.969	848.812	666.962
296.818	22.049	848.940	667.308
297.833	22.326	847.908	667.489
298.847	21.878	846.913	664.948
299.862	21.613	845.890	663.084
300.876	21.829	845.682	663.680
301.891	21.922	845.771	664.044
302.906	22.001	844.887	663.589
303.920	21.743	843.488	661.458
304.935	21.500	842.941	660.055
305.949	21.812	842.891	661.133
306.964	22.028	842.087	661.260
307.979	21.730	841.333	659.485
308.993	21.650	841.078	658.925
310.008	22.080	840.979	660.406
311.022	22.152	840.505	660.247
312.037	22.073	839.728	659.283
313.052	21.744	839.150	657.534
314.066	21.658	838.141	656.366
315.081	21.108	836.586	653.031
316.095	20.323	835.791	649.417
317.110	20.671	836.227	651.002
318.125	21.633	836.002	654.363
319.139	21.129	835.231	651.821
320.154	20.214	833.329	646.867
321.168	19.798	832.383	644.527
322.183	20.440	832.579	647.014
323.197	21.255	833.378	650.615
324.212	21.541	832.664	651.063
325.227	21.721	832.162	651.283
326.241	21.925	831.504	651.467
327.256	21.835	831.099	650.758
328.270	21.716	830.307	649.639
329.285	21.685	829.847	649.107
330.300	21.490	829.527	648.076
331.314	21.258	828.134	646.074
332.329	21.361	827.898	646.213
333.343	21.695	827.740	647.267
334.358	21.930	827.355	647.774
335.373	21.846	826.952	647.094
336.387	22.048	825.817	646.893
337.402	22.083	826.030	647.129
338.416	22.453	825.163	647.754
339.431	22.189	824.649	646.325
340.446	22.227	824.459	646.258
341.460	22.509	823.841	646.750
342.475	22.466	823.149	645.993
343.489	22.225	822.578	644.603
344.504	22.407	821.718	644.541
345.519	22.427	821.914	644.710
346.533	22.641	821.201	644.876
347.548	22.774	820.792	644.983
348.562	22.835	820.379	644.825
349.577	22.685	820.038	643.952
350.592	22.759	819.287	643.576
351.606	22.585	819.102	642.740
352.621	22.692	818.552	642.640
353.635	22.512	818.168	641.627
354.650	22.474	817.236	640.701
355.665	22.266	816.104	639.002
356.679	21.264	814.596	634.128
357.694	21.041	814.355	633.076
358.708	21.599	814.154	634.887
359.723	21.585	813.753	634.467
360.738	21.803	813.526	635.025
361.752	22.326	813.318	636.700
362.767	22.304	812.944	636.271
363.781	22.735	812.460	637.392
364.796	22.925	812.669	638.185
365.810	22.866	812.454	637.748
366.825	22.912	811.999	637.501
367.840	23.136	811.058	637.514
368.854	23.009	810.564	636.611
369.869	22.359	810.008	633.779
370.883	22.209	809.441	632.738
371.898	22.515	808.759	633.249
372.913	22.277	808.235	631.927
373.927	22.371	807.350	631.518
374.942	22.451	807.287	631.700
375.956	22.583	806.426	631.442
376.971	22.713	805.935	631.468
377.986	22.807	805.493	631.402
379.000	22.892	805.347	631.534
380.015	22.964	804.434	631.021
381.029	22.826	803.344	629.617
382.044	22.883	802.893	629.411
383.059	22.955	802.414	629.237
384.073	22.956	802.149	628.977
385.088	22.923	801.983	628.675
386.102	22.870	801.318	627.906
387.117	22.878	800.596	627.315
388.132	22.694	800.141	626.250
389.146	22.534	799.463	625.098
390.161	21.918	798.624	622.201
391.175	22.151	798.328	622.743
392.190	22.598	798.420	624.341
393.205	22.773	797.480	624.171
394.219	21.736	795.915	619.228
395.234	20.111	793.645	611.679
396.248	19.359	792.614	608.178
397.263	20.694	793.449	613.474
398.278	22.395	794.720	620.404
399.292	22.624	794.860	621.266
400.307	22.407	794.071	619.828
401.321	22.322	793.582	619.094
402.336	22.297	793.394	618.805
403.350	22.586	793.356	619.736
404.365	22.999	793.393	621.161
405.380	23.260	793.280	621.935
406.394	23.678	792.295	622.573
407.409	23.717	792.143	622.537
408.423	23.668	791.942	622.153
409.438	23.721	790.820	621.401
410.453	23.763	790.503	621.244
411.467	23.721	790.197	620.801
412.482	23.515	789.784	619.700
413.496	23.489	789.307	619.180
414.511	23.693	788.901	619.518
415.526	23.663	788.509	619.053
416.540	23.782	787.739	618.807
417.555	23.750	787.211	618.228
418.569	23.226	786.709	615.957
419.584	23.328	786.370	615.990
420.599	23.289	786.091	615.581
421.613	156.975	1364.599	1797.752
422.628	135.774	1448.881	1797.804
