DTS Sentinel unit serial number:	SN413079Multiplexer serial number:	ORYXHardware model number:	OX4-SRSoftware version number:	ORYX F/W v4.00 Oryx Data Collector v3.7.2.0data status	okinstallation	princeton_trtdifferential loss correction	single-endedforward channel	channel 3reverse channel	N/Adate	2019/09/13time	05:00:34forward acquisition time	60.00reverse acquisition time	0.00gamma	496.2192k internal	0.2338k external	0.2338temperature offset calibration	1.0135default loss term (dB/km)	0.3790temperature slope calibration	1.0000multiplexer offset coefficient	1.0000multiplexer slope coefficient	1.0000fibre end	0.00T internal ref (°C)	26.48T ext. ref 1 (°C)	4.05T ext. ref 2 (°C)	20.95length (m)	temperature (°C)	Stokes	anti-Stokes-747.200	-49.802	-0.128	0.061
-746.185	-136.186	0.153	0.018
-745.171	-71.065	0.066	-0.025
-744.156	-119.786	0.022	0.004
-743.142	-2.296	-0.178	-0.125
-742.127	147.332	0.228	0.308
-741.112	770.517	0.041	0.112
-740.098	90.814	0.224	0.252
-739.083	-3.103	0.409	0.286
-738.069	50.699	-0.102	-0.097
-737.054	-61.491	0.113	-0.048
-736.039	631.090	0.104	-0.265
-735.025	425.121	-0.011	-0.023
-734.010	-108.980	-0.099	0.021
-732.996	-83.905	-0.265	-0.085
-731.981	-200.000	0.023	0.162
-730.966	3.139	0.236	0.172
-729.952	-143.320	-0.227	0.022
-728.937	154.217	-0.122	-0.168
-727.923	-65.660	0.198	-0.080
-726.908	-19.186	-0.199	-0.124
-725.894	-39.961	0.025	-0.013
-724.879	-11.125	0.293	0.194
-723.864	-200.000	-0.026	-0.130
-722.850	-200.000	-0.010	-0.210
-721.835	-12.513	-0.230	0.151
-720.821	20.410	-0.105	-0.085
-719.806	89.108	0.201	0.225
-718.791	131.077	-0.114	-0.147
-717.777	800.000	-0.094	0.260
-716.762	289.833	0.103	0.187
-715.748	15.003	-0.187	0.147
-714.733	320.114	-0.214	-0.407
-713.718	167.494	0.139	-0.198
-712.704	-82.456	-0.088	0.029
-711.689	-81.522	0.033	0.011
-710.675	-62.560	0.358	-0.149
-709.660	-99.055	0.313	0.079
-708.645	429.959	-0.115	0.250
-707.631	800.000	-0.083	0.267
-706.616	167.131	0.135	-0.192
-705.602	228.044	0.093	-0.151
-704.587	-45.843	0.112	-0.055
-703.572	-12.411	-0.178	-0.117
-702.558	27.171	-0.174	0.147
-701.543	-40.246	-0.289	-0.150
-700.529	800.000	-0.041	-0.145
-699.514	-200.000	-0.003	0.036
-698.499	278.915	0.145	0.260
-697.485	800.000	0.079	-0.296
-696.470	129.079	-0.265	0.338
-695.456	224.948	-0.142	-0.231
-694.441	-80.073	0.243	-0.081
-693.426	-200.000	0.017	-0.239
-692.412	-200.000	-0.038	0.306
-691.397	40.321	0.099	-0.089
-690.383	-70.857	0.251	-0.095
-689.368	800.000	-0.070	-0.279
-688.354	81.130	0.165	-0.178
-687.339	33.453	-0.180	-0.157
-686.324	256.656	0.100	-0.172
-685.310	157.131	-0.115	0.159
-684.295	-40.464	-0.242	0.126
-683.281	342.529	0.081	-0.159
-682.266	263.436	0.063	-0.109
-681.251	-9.655	0.112	-0.075
-680.237	55.679	-0.107	0.104
-679.222	-104.563	-0.090	0.021
-678.208	-69.025	0.041	0.016
-677.193	19.005	0.242	0.194
-676.178	-200.000	-0.001	-0.004
-675.164	-45.128	0.146	0.073
-674.149	-143.957	0.183	-0.017
-673.135	-93.650	0.113	-0.031
-672.120	231.677	0.175	-0.287
-671.105	-99.571	0.131	0.033
-670.091	-44.750	-0.060	-0.030
-669.076	205.969	-0.250	-0.389
-668.062	-7.115	0.204	-0.138
-667.047	-12.463	0.126	-0.082
-666.032	-105.513	-0.075	-0.017
-665.018	79.848	-0.211	-0.227
-664.003	-89.812	0.200	0.058
-662.989	-200.000	0.017	0.247
-661.974	-200.000	-0.033	-0.216
-660.959	-71.062	-0.373	-0.140
-659.945	-118.226	0.280	0.050
-658.930	-68.751	0.432	0.167
-657.916	18.865	-0.094	-0.075
-656.901	30.477	-0.038	0.032
-655.886	-99.773	0.137	0.034
-654.872	671.996	-0.108	-0.279
-653.857	-139.212	0.268	0.029
-652.843	-200.000	-0.019	0.144
-651.828	-60.937	-0.424	-0.179
-650.814	245.404	0.158	-0.266
-649.799	163.619	-0.027	0.038
-648.784	-119.734	0.286	-0.049
-647.770	34.105	0.054	-0.047
-646.755	179.365	-0.147	0.215
-645.741	284.742	0.109	-0.196
-644.726	-200.000	0.002	0.037
-643.711	14.164	-0.101	-0.079
-642.697	340.654	0.086	-0.168
-641.682	-101.740	-0.125	-0.030
-640.668	21.358	-0.156	-0.127
-639.653	800.000	-0.089	0.336
-638.638	-200.000	0.008	-0.355
-637.624	-85.009	0.270	-0.085
-636.609	24.650	-0.090	-0.074
-635.595	41.523	0.101	-0.091
-634.580	339.083	0.131	-0.256
-633.565	353.021	0.116	-0.230
-632.551	334.844	0.112	0.216
-631.536	105.673	0.226	0.267
-630.522	91.834	-0.225	-0.253
-629.507	-20.019	0.229	0.141
-628.492	295.583	-0.181	0.331
-627.478	800.000	0.035	-0.143
-626.463	12.854	0.155	0.120
-625.449	-200.000	-0.053	0.282
-624.434	-32.596	0.087	-0.048
-623.419	-146.060	-0.379	-0.033
-622.405	98.210	0.065	-0.075
-621.390	-200.000	0.015	0.167
-620.376	-69.126	0.306	0.118
-619.361	112.186	0.188	0.227
-618.346	38.892	-0.122	0.109
-617.332	-36.956	-0.382	-0.204
-616.317	140.117	-0.233	0.306
-615.303	-50.498	0.218	0.103
-614.288	-200.000	0.005	-0.120
-613.273	55.102	-0.158	-0.152
-612.259	44.119	0.240	0.220
-611.244	183.522	-0.155	-0.229
-610.230	-200.000	0.015	-0.117
-609.215	47.437	-0.102	0.095
-608.201	68.117	0.108	0.111
-607.186	378.919	-0.090	0.185
-606.171	58.374	0.160	-0.157
-605.157	146.710	-0.149	0.200
-604.142	69.565	0.031	0.032
-603.128	58.761	-0.248	-0.243
-602.113	-173.568	-0.157	-0.005
-601.098	-149.934	0.222	0.017
-600.084	66.530	0.214	0.217
-599.069	-200.000	0.020	-0.346
-598.055	382.346	0.089	0.182
-597.040	800.000	0.021	-0.079
-596.025	-34.047	0.313	0.172
-595.011	685.942	0.063	0.163
-593.996	-135.334	-0.201	-0.024
-592.982	-122.989	-0.428	0.069
-591.967	-125.852	-0.248	-0.037
-590.952	83.964	-0.055	-0.060
-589.938	-200.000	-0.027	-0.147
-588.923	-30.559	-0.346	-0.195
-587.909	-100.055	-0.105	0.026
-586.894	646.909	-0.016	-0.040
-585.879	415.297	0.083	0.177
-584.865	-200.000	-0.002	0.008
-583.850	-86.814	0.343	-0.104
-582.836	-130.869	0.048	0.006
-581.821	-200.000	0.024	-0.159
-580.806	690.981	-0.105	-0.274
-579.792	93.709	-0.142	-0.161
-578.777	589.389	0.121	-0.296
-577.763	400.416	-0.018	-0.037
-576.748	56.611	0.194	0.188
-575.733	-76.699	-0.036	0.013
-574.719	800.000	-0.134	0.560
-573.704	12.611	0.117	0.090
-572.690	800.000	0.071	0.239
-571.675	48.559	0.099	0.093
-570.661	180.386	-0.078	0.114
-569.646	97.008	-0.133	-0.152
-568.631	230.892	-0.155	0.253
-567.617	184.080	-0.101	-0.148
-566.602	-200.000	-0.056	0.607
-565.588	-59.146	0.061	-0.026
-564.573	2.624	-0.178	-0.129
-563.558	800.000	-0.059	0.198
-562.544	60.245	0.013	0.013
-561.529	787.236	-0.090	0.247
-560.515	20.235	0.397	-0.319
-559.500	51.001	-0.223	-0.211
-558.485	104.183	-0.122	-0.143
-557.471	-200.000	0.015	0.160
-556.456	-200.000	0.026	-0.357
-555.442	800.000	0.083	0.243
-554.427	-51.173	0.160	-0.075
-553.412	74.591	-0.281	0.294
-552.398	-45.536	-0.149	-0.073
-551.383	-200.000	-0.001	0.172
-550.369	-162.766	-0.329	0.016
-549.354	-53.971	-0.013	-0.006
-548.339	-159.715	-0.348	0.019
-547.325	-200.000	0.021	-0.318
-546.310	-94.749	-0.208	-0.056
-545.296	533.038	-0.047	-0.111
-544.281	-118.258	-0.419	-0.074
-543.266	-83.479	0.134	0.043
-542.252	-68.811	0.270	0.104
-541.237	-79.258	-0.212	-0.071
-540.223	55.791	0.039	0.038
-539.208	-113.010	-0.333	0.066
-538.193	-9.639	-0.217	-0.144
-537.179	447.825	-0.129	-0.284
-536.164	-67.014	0.048	-0.019
-535.150	43.392	0.085	-0.077
-534.135	115.850	-0.290	0.353
-533.121	-39.806	-0.163	-0.085
-532.106	-12.621	-0.155	0.100
-531.091	-19.877	-0.147	0.090
-530.077	-76.985	0.223	0.077
-529.062	-200.000	0.018	-0.172
-528.048	143.433	-0.123	0.163
-527.033	-134.379	-0.176	-0.021
-526.018	78.812	-0.081	0.086
-525.004	239.127	0.102	-0.168
-523.989	-200.000	0.000	0.044
-522.975	-200.000	0.034	-0.156
-521.960	-60.355	0.160	0.068
-520.945	-6.423	-0.267	-0.181
-519.931	2.277	-0.238	0.171
-518.916	-200.000	0.115	0.617
-517.902	221.139	0.130	-0.208
-516.887	-47.896	0.109	-0.052
-515.872	58.215	0.030	-0.029
-514.858	-102.805	0.406	0.096
-513.843	-50.723	0.180	0.084
-512.829	-1.371	-0.248	0.174
-511.814	510.809	0.084	-0.195
-510.799	-200.000	0.011	0.427
-509.785	-175.452	-0.389	-0.011
-508.770	-200.000	0.032	-0.212
-507.756	68.983	0.373	0.381
-506.741	-45.076	0.173	0.086
-505.726	524.339	0.045	-0.105
-504.712	11.982	-0.071	0.054
-503.697	-200.000	0.089	0.425
-502.683	-117.456	0.316	-0.057
-501.668	-40.761	0.139	0.071
-500.653	85.813	0.201	-0.220
-499.639	800.000	0.067	-0.228
-498.624	800.000	-0.052	-0.149
-497.610	463.689	-0.224	-0.498
-496.595	-48.466	0.226	0.108
-495.581	-92.963	-0.124	0.034
-494.566	7.026	0.201	-0.149
-493.551	-200.000	-0.044	-0.194
-492.537	7.700	0.079	-0.059
-491.522	-22.789	0.171	0.102
-490.508	11.672	-0.232	-0.177
-489.493	-14.439	0.417	-0.267
-488.478	-68.157	0.051	-0.020
-487.464	29.174	-0.328	0.277
-486.449	-200.000	0.035	-0.171
-485.435	-200.000	-0.045	-0.334
-484.420	800.000	-0.121	-0.357
-483.405	-64.085	0.111	-0.045
-482.391	14.093	0.168	0.130
-481.376	163.120	0.111	0.155
-480.362	307.418	-0.196	0.362
-479.347	-102.741	-0.205	0.048
-478.332	-21.299	-0.209	0.127
-477.318	186.272	0.163	0.240
-476.303	-141.591	0.139	-0.014
-475.289	-50.625	-0.273	-0.128
-474.274	-49.284	0.358	-0.170
-473.259	650.491	0.041	-0.105
-472.245	-200.000	-0.022	-0.157
-471.230	-153.242	0.246	0.017
-470.216	-63.485	-0.287	0.117
-469.201	147.296	-0.052	-0.070
-468.186	-200.000	-0.344	0.000
-467.172	48.474	-0.141	0.131
-466.157	47.077	0.097	0.090
-465.143	37.130	-0.120	0.105
-464.128	11.477	-0.192	0.146
-463.113	66.045	0.037	0.038
-462.099	-24.265	0.062	-0.037
-461.084	73.573	-0.167	-0.174
-460.070	113.857	-0.252	-0.304
-459.055	311.732	-0.261	-0.486
-458.040	800.000	0.113	-0.403
-457.026	747.763	0.055	-0.148
-456.011	-200.000	-0.022	-0.320
-454.997	-190.010	-0.185	0.002
-453.982	-200.000	-0.003	-0.093
-452.968	-98.178	0.152	0.039
-451.953	-35.917	-0.229	0.123
-450.938	800.000	0.094	0.278
-449.924	-46.429	-0.247	-0.120
-448.909	-10.322	-0.151	0.100
-447.895	-121.943	-0.408	-0.067
-446.880	-107.299	-0.075	-0.016
-445.865	-200.000	0.010	0.046
-444.851	165.320	-0.302	-0.423
-443.836	-79.403	-0.105	0.035
-442.822	23.833	-0.100	-0.082
-441.807	-192.365	-0.090	-0.001
-440.792	711.513	-0.096	-0.251
-439.778	241.152	0.109	-0.180
-438.763	-103.202	0.186	0.044
-437.749	-200.000	-0.012	0.132
-436.734	46.240	-0.109	-0.100
-435.719	-56.032	0.422	-0.187
-434.705	-186.815	-0.365	-0.005
-433.690	-110.866	0.265	-0.054
-432.676	719.338	0.079	0.208
-431.661	-137.668	-0.303	-0.034
-430.646	-95.457	0.165	-0.044
-429.632	-86.996	0.331	0.100
-428.617	65.775	-0.146	-0.146
-427.603	-57.216	0.443	0.193
-426.588	383.975	-0.067	0.136
-425.573	-83.155	0.219	-0.070
-424.559	-68.710	0.144	-0.055
-423.544	-200.000	0.070	0.315
-422.530	259.604	0.160	0.274
-421.515	-104.287	-0.167	-0.038
-420.500	293.728	0.082	-0.149
-419.486	298.583	0.296	0.540
-418.471	-7.210	0.146	-0.098
-417.457	29.436	-0.181	0.153
-416.442	-200.000	-0.016	-0.070
-415.428	135.312	0.276	0.355
-414.413	-67.088	-0.085	-0.033
-413.398	563.331	-0.111	0.266
-412.384	-83.959	0.262	-0.082
-411.369	570.700	0.050	0.120
-410.355	-137.592	0.302	0.034
-409.340	249.711	-0.097	-0.164
-408.325	159.392	0.205	-0.282
-407.311	-68.975	-0.221	0.084
-406.296	-44.749	-0.126	0.062
-405.282	-200.000	0.008	0.162
-404.267	434.141	0.053	-0.114
-403.252	-200.000	0.341	-0.002
-402.238	-99.277	0.397	0.099
-401.223	788.806	-0.085	-0.232
-400.209	800.000	-0.117	0.383
-399.194	800.000	-0.060	0.248
-398.179	800.000	0.041	-0.129
-397.165	301.148	0.046	-0.084
-396.150	-52.287	-0.485	-0.222
-395.136	-105.372	0.206	0.046
-394.121	302.487	0.267	0.489
-393.106	572.591	-0.128	0.309
-392.092	-82.599	0.241	0.077
-391.077	324.224	-0.065	-0.122
-390.063	-87.342	0.080	0.024
-389.048	587.149	-0.103	0.250
-388.033	-200.000	0.012	0.113
-387.019	-76.562	0.177	-0.062
-386.004	211.541	0.152	-0.237
-384.990	800.000	0.019	-0.075
-383.975	-117.919	-0.339	0.060
-382.960	-146.206	-0.149	0.013
-381.946	-189.569	-0.154	0.002
-380.931	256.448	0.041	-0.070
-379.917	-30.647	0.297	0.166
-378.902	492.822	-0.120	-0.273
-377.888	-35.283	-0.105	0.056
-376.873	23.616	-0.202	0.164
-375.858	800.000	-0.058	-0.228
-374.844	-103.462	-0.130	-0.030
-373.829	430.383	-0.099	-0.211
-372.815	-49.577	0.273	-0.128
-371.800	-200.000	-0.043	0.309
-370.785	-56.484	-0.223	0.098
-369.771	-127.465	0.253	0.036
-368.756	-118.872	-0.195	0.034
-367.742	59.209	0.246	-0.239
-366.727	800.000	0.025	-0.079
-365.712	-97.473	0.160	-0.041
-364.698	32.316	0.152	0.130
-363.683	-93.515	0.240	-0.066
-362.669	320.599	-0.053	0.099
-361.654	195.082	0.145	-0.218
-360.639	125.360	0.121	0.150
-359.625	-200.000	0.004	0.285
-358.610	-169.804	0.118	0.004
-357.596	255.907	-0.133	-0.225
-356.581	-123.378	0.521	0.082
-355.566	-4.582	-0.273	0.186
-354.552	255.236	-0.077	0.130
-353.537	59.911	-0.035	-0.034
-352.523	59.944	0.148	-0.144
-351.508	-200.000	-0.047	-0.207
-350.493	25.389	-0.143	0.117
-349.479	104.613	0.201	-0.234
-348.464	-131.956	0.165	0.021
-347.450	-45.801	-0.184	-0.090
-346.435	-35.766	-0.274	-0.146
-345.420	-36.984	-0.203	-0.107
-344.406	-200.000	0.045	0.266
-343.391	228.831	-0.087	0.140
-342.377	-200.000	-0.113	0.000
-341.362	-200.000	-0.054	-0.394
-340.348	406.455	0.065	0.135
-339.333	42.183	0.052	0.047
-338.318	-60.128	-0.269	-0.113
-337.304	269.358	-0.079	0.138
-336.289	404.925	0.130	-0.272
-335.275	726.292	0.086	-0.227
-334.260	410.477	0.088	-0.184
-333.245	-95.209	-0.064	-0.017
-332.231	382.904	0.114	-0.232
-331.216	71.562	-0.194	-0.199
-330.202	361.657	-0.142	0.281
-329.187	239.271	0.105	-0.172
-328.172	706.441	-0.133	-0.347
-327.158	-27.747	-0.275	0.157
-326.143	800.000	0.095	-0.282
-325.129	800.000	-0.044	-0.146
-324.114	363.305	-0.090	-0.179
-323.099	-79.118	-0.372	0.125
-322.085	800.000	-0.052	0.205
-321.070	257.914	0.109	0.186
-320.056	73.597	0.048	0.049
-319.041	-88.804	-0.276	0.081
-318.026	313.401	-0.091	0.169
-317.012	-200.000	-0.076	-0.347
-315.997	-83.498	-0.293	-0.092
-314.983	-84.529	0.233	0.073
-313.968	-83.853	0.009	0.003
-312.953	-200.000	0.044	0.229
-311.939	-17.674	-0.241	0.149
-310.924	-82.846	0.140	0.044
-309.910	-177.965	-0.343	0.008
-308.895	240.360	0.096	0.158
-307.880	-117.387	0.298	-0.053
-306.866	-181.496	0.261	0.005
-305.851	18.011	0.151	0.118
-304.837	-128.663	-0.118	0.016
-303.822	378.681	0.042	0.085
-302.807	453.963	-0.091	-0.198
-301.793	800.000	0.025	-0.103
-300.778	726.083	0.061	-0.162
-299.764	92.639	-0.157	-0.175
-298.749	-176.696	-0.218	-0.006
-297.735	-200.000	-0.006	-0.304
-296.720	-200.000	0.075	0.435
-295.705	-105.299	-0.189	0.042
-294.691	-200.000	0.056	0.317
-293.676	-100.055	0.285	-0.070
-292.662	166.301	0.073	-0.101
-291.647	-182.933	-0.451	-0.008
-290.632	-83.064	0.232	0.074
-289.618	-70.617	0.198	0.074
-288.603	73.439	0.191	-0.197
-287.589	-18.168	-0.119	0.073
-286.574	-64.864	0.272	-0.109
-285.559	800.000	-0.083	0.295
-284.545	39.412	0.179	0.158
-283.530	159.064	-0.158	0.216
-282.516	-112.325	-0.105	-0.021
-281.501	-200.000	0.025	0.268
-280.486	246.208	-0.183	0.305
-279.472	57.456	0.035	-0.034
-278.457	450.664	0.147	0.320
-277.443	-102.092	0.254	-0.060
-276.428	252.268	0.112	-0.189
-275.413	22.441	0.098	-0.079
-274.399	800.000	-0.008	-0.026
-273.384	-200.000	0.019	-0.234
-272.370	214.599	-0.073	0.114
-271.355	347.287	-0.139	0.269
-270.340	213.526	-0.203	-0.317
-269.326	800.000	0.102	0.328
-268.311	-48.371	0.105	-0.050
-267.297	232.654	0.037	0.060
-266.282	367.555	0.180	0.358
-265.267	800.000	-0.050	-0.187
-264.253	-200.000	0.008	0.215
-263.238	-200.000	-0.081	-0.421
-262.224	-200.000	-0.011	-0.069
-261.209	-95.357	-0.237	-0.063
-260.195	135.908	-0.182	0.234
-259.180	-30.602	0.144	-0.080
-258.165	800.000	0.035	0.096
-257.151	22.367	0.243	0.196
-256.136	9.773	0.163	0.122
-255.122	32.459	-0.029	-0.024
-254.107	-200.000	-0.030	-0.186
-253.092	-184.324	0.199	-0.003
-252.078	5.285	0.121	-0.088
-251.063	4.673	0.079	-0.057
-250.049	-200.000	0.005	0.145
-249.034	287.071	0.196	-0.349
-248.019	-130.403	0.231	0.031
-247.005	39.872	-0.201	0.178
-245.990	204.277	0.224	0.342
-244.976	51.091	-0.136	0.127
-243.961	360.894	0.027	-0.053
-242.946	800.000	0.108	0.351
-241.932	-105.554	-0.125	0.028
-240.917	-121.434	-0.239	-0.039
-239.903	141.119	-0.069	-0.090
-238.888	-106.338	0.270	0.060
-237.873	-200.000	-0.004	-0.256
-236.859	25.681	0.183	0.150
-235.844	207.623	-0.012	-0.018
-234.830	-200.000	-0.029	-0.231
-233.815	-67.330	0.200	-0.077
-232.800	-58.264	-0.126	0.054
-231.786	184.267	0.187	-0.273
-230.771	750.246	-0.032	0.084
-229.757	-200.000	0.031	0.160
-228.742	116.348	-0.061	-0.073
-227.727	-200.000	-0.055	-0.405
-226.713	-200.000	-0.015	0.090
-225.698	-200.000	-0.011	-0.296
-224.684	241.220	0.156	0.256
-223.669	-110.613	0.134	-0.027
-222.655	-200.000	-0.036	-0.257
-221.640	800.000	-0.082	0.342
-220.625	-93.434	0.206	-0.056
-219.611	-51.418	-0.175	-0.080
-218.596	-200.000	0.008	0.167
-217.582	-137.823	0.194	-0.021
-216.567	-200.000	0.014	-0.087
-215.552	295.199	-0.147	0.265
-214.538	-200.000	-0.003	0.012
-213.523	91.786	-0.100	0.110
-212.509	550.465	-0.051	-0.121
-211.494	-121.361	0.178	0.029
-210.479	170.542	0.136	-0.191
-209.465	170.035	-0.050	-0.070
-208.450	-200.000	-0.024	-0.125
-207.436	-117.853	-0.012	0.002
-206.421	-200.000	-0.005	0.043
-205.406	406.253	-0.153	0.318
-204.392	32.800	0.359	0.305
-203.377	-200.000	-0.119	0.576
-202.363	-10.494	-0.115	-0.075
-201.348	-55.620	0.303	-0.133
-200.333	26.783	-0.084	-0.069
-199.319	800.000	-0.053	0.152
-198.304	-200.000	-0.017	0.079
-197.290	-98.353	0.117	0.029
-196.275	688.732	-0.078	-0.199
-195.260	156.101	0.287	-0.388
-194.246	800.000	-0.076	-0.219
-193.231	-200.000	0.023	0.234
-192.217	-64.653	-0.274	-0.109
-191.202	131.600	-0.187	-0.236
-190.187	-173.262	0.284	0.009
-189.173	120.052	-0.166	-0.202
-188.158	28.531	-0.206	-0.171
-187.144	64.538	0.257	-0.254
-186.129	-28.672	0.313	-0.177
-185.114	-196.772	-0.322	-0.002
-184.100	489.069	0.061	-0.136
-183.085	-200.000	-0.014	-0.254
-182.071	24.907	-0.295	0.240
-181.056	-56.185	0.441	0.193
-180.042	235.720	-0.327	-0.530
-179.027	38.835	-0.038	-0.033
-178.012	-18.510	0.207	-0.127
-176.998	800.000	-0.052	0.144
-175.983	-141.125	0.222	0.022
-174.969	-194.663	-0.290	-0.002
-173.954	-59.730	-0.242	-0.102
-172.939	37.899	0.291	0.254
-171.925	139.507	-0.163	0.211
-170.910	31.605	-0.060	-0.051
-169.896	-148.242	-0.003	-0.000
-168.881	-76.702	0.378	-0.130
-167.866	-49.034	-0.234	0.110
-166.852	-104.834	0.139	0.031
-165.837	53.900	-0.194	0.183
-164.823	-200.000	0.098	0.000
-163.808	-200.000	-0.005	0.318
-162.793	-54.163	-0.196	0.087
-161.779	10.697	0.158	-0.118
-160.764	-86.778	-0.122	-0.036
-159.750	219.063	0.168	-0.263
-158.735	-43.187	0.161	0.080
-157.720	-200.000	-0.011	-0.107
-156.706	-153.833	0.155	-0.010
-155.691	-157.772	-0.065	-0.004
-154.677	27.225	0.171	0.141
-153.662	14.776	0.140	-0.108
-152.647	127.416	-0.164	-0.204
-151.633	-42.525	0.309	0.155
-150.618	4.506	0.278	0.200
-149.604	435.109	0.021	0.044
-148.589	-200.000	-0.065	-0.361
-147.574	450.030	-0.046	0.100
-146.560	-200.000	-0.065	-0.415
-145.545	-95.719	0.043	-0.011
-144.531	-65.123	-0.236	0.093
-143.516	6.311	0.151	-0.110
-142.502	-40.859	-0.166	0.084
-141.487	225.355	0.183	0.290
-140.472	9.618	-0.050	-0.037
-139.458	-56.500	0.431	-0.187
-138.443	110.005	-0.144	0.170
-137.429	-104.111	-0.461	0.105
-136.414	-200.000	0.011	0.128
-135.399	93.521	-0.109	-0.121
-134.385	-16.332	0.193	-0.120
-133.370	15.119	0.084	0.064
-132.356	-200.000	0.031	0.167
-131.341	-92.789	-0.275	-0.075
-130.326	67.456	0.359	0.359
-129.312	-200.000	0.059	0.265
-128.297	-80.474	0.316	0.103
-127.283	800.000	-0.059	-0.243
-126.268	-200.000	-0.025	-0.117
-125.253	146.291	0.067	-0.087
-124.239	-135.310	-0.218	-0.026
-123.224	-5.110	0.318	0.214
-122.210	-99.253	-0.158	-0.039
-121.195	392.298	-0.079	-0.160
-120.180	-3.843	0.069	-0.047
-119.166	107.173	0.156	0.181
-118.151	-200.000	-0.002	0.016
-117.137	800.000	0.049	0.134
-116.122	27.475	-0.154	-0.127
-115.107	715.487	0.044	-0.115
-114.093	-69.348	-0.445	-0.167
-113.078	-22.397	-0.160	0.095
-112.064	600.795	0.096	0.232
-111.049	-200.000	-0.006	0.394
-110.034	-200.000	0.003	0.224
-109.020	37.705	0.360	0.313
-108.005	509.472	0.053	0.120
-106.991	276.803	-0.024	0.041
-105.976	290.748	-0.137	0.244
-104.962	105.571	-0.318	-0.368
-103.947	-200.000	0.010	-0.067
-102.932	-200.000	0.028	0.152
-101.918	-200.000	0.024	-0.224
-100.903	65.645	0.262	-0.259
-99.889	-200.000	-0.028	0.123
-98.874	-200.000	-0.010	0.174
-97.859	-200.000	0.060	0.346
-96.845	308.557	0.163	0.298
-95.830	122.064	0.078	0.095
-94.816	-168.561	0.134	-0.005
-93.801	-200.000	-0.027	-0.377
-92.786	-165.340	0.232	0.010
-91.772	-151.587	0.255	-0.018
-90.757	-98.217	0.123	-0.031
-89.743	375.579	-0.020	0.039
-88.728	-200.000	-0.032	0.152
-87.713	-39.827	0.362	-0.185
-86.699	-87.272	0.269	0.080
-85.684	-63.603	0.049	0.020
-84.670	-200.000	0.029	-0.188
-83.655	-63.931	0.114	-0.046
-82.640	-149.883	0.209	-0.016
-81.626	-128.375	-0.282	-0.039
-80.611	-119.443	0.261	-0.044
-79.597	-88.466	0.135	0.039
-78.582	-68.874	-0.099	-0.037
-77.567	-200.000	-0.068	0.415
-76.553	-119.926	0.478	0.080
-75.538	-200.000	-0.018	0.302
-74.524	-32.424	0.447	0.244
-73.509	-200.000	-0.000	-0.077
-72.494	-50.379	0.267	-0.123
-71.480	-94.666	-0.204	0.054
-70.465	45.727	-0.124	0.112
-69.451	-40.127	0.209	0.106
-68.436	-19.588	0.124	-0.075
-67.422	-76.497	0.109	-0.038
-66.407	800.000	-0.072	0.289
-65.392	31.557	-0.263	-0.221
-64.378	-200.000	0.029	-0.254
-63.363	387.693	0.057	-0.115
-62.349	-31.751	-0.325	0.178
-61.334	86.622	-1.116	-1.202
-60.319	264.936	0.518	0.881
-59.305	264.901	-0.452	-0.770
-58.290	139.930	1.097	1.413
-57.276	322.235	0.717	1.333
-56.261	-200.000	116.696	653.598
-55.246	509.176	1544.312	3504.719
-54.232	176.116	2710.805	3844.001
-53.217	105.784	2170.811	2507.605
-52.203	37.137	1688.517	1459.840
-51.188	29.671	1504.290	1250.227
-50.173	27.425	1480.049	1215.062
-49.159	50.211	1540.516	1420.673
-48.144	48.699	1554.443	1423.165
-47.130	29.754	1510.192	1255.495
-46.115	26.806	1494.878	1222.872
-45.100	26.578	1491.470	1218.501
-44.086	26.609	1489.752	1217.258
-43.071	26.444	1487.792	1214.496
-42.057	26.328	1486.600	1212.697
-41.042	26.525	1484.598	1212.333
-40.027	26.443	1483.176	1210.578
-39.013	26.342	1482.033	1208.923
-37.998	26.350	1480.681	1207.825
-36.984	26.463	1479.962	1207.947
-35.969	26.489	1478.498	1206.873
-34.954	26.455	1477.025	1205.400
-33.940	26.473	1475.329	1204.085
-32.925	26.483	1474.240	1203.215
-31.911	26.468	1472.909	1201.982
-30.896	26.521	1471.673	1201.275
-29.881	26.480	1470.716	1200.179
-28.867	26.436	1469.665	1198.978
-27.852	26.480	1468.050	1197.904
-26.838	26.517	1466.809	1197.094
-25.823	26.519	1464.862	1195.465
-24.809	26.609	1463.199	1194.659
-23.794	26.591	1462.055	1193.559
-22.779	26.521	1461.289	1192.422
-21.765	26.541	1459.795	1191.287
-20.750	26.494	1458.631	1189.984
-19.736	26.567	1457.741	1189.687
-18.721	26.483	1456.881	1188.387
-17.706	26.570	1455.464	1187.753
-16.692	26.552	1454.641	1186.919
-15.677	26.428	1453.106	1184.804
-14.663	26.386	1452.633	1184.100
-13.648	26.463	1451.397	1183.550
-12.633	26.570	1449.873	1182.960
-11.619	26.499	1449.834	1182.416
-10.604	26.546	1448.694	1181.744
-9.590	26.514	1447.471	1180.493
-8.575	26.435	1447.235	1179.738
-7.560	26.581	1445.949	1179.593
-6.546	26.469	1445.646	1178.568
-5.531	26.412	1444.740	1177.414
-4.517	26.471	1443.336	1176.607
-3.502	26.468	1442.225	1175.632
-2.487	26.420	1441.579	1174.750
-1.473	26.420	1440.061	1173.467
-0.458	26.537	1439.012	1173.323
0.556	28.133	1429.125	1161.660
1.571	24.862	1404.360	1120.981
2.586	21.352	1346.122	1053.284
3.600	19.649	1265.101	980.149
4.615	18.515	1220.552	939.342
5.629	16.408	1164.418	885.037
6.644	9.966	1083.965	792.307
7.659	5.004	1047.097	741.736
8.673	4.305	1041.860	734.651
9.688	4.035	1038.759	731.123
10.702	3.898	1036.882	729.094
11.717	3.962	1035.054	728.046
12.731	6.194	1037.174	739.984
13.746	13.375	1046.587	780.626
14.761	19.989	1054.849	818.067
15.775	22.360	1056.924	830.812
16.790	21.987	1055.509	827.868
17.804	21.050	1054.116	822.284
18.819	20.300	1052.169	817.162
19.834	19.788	1051.430	814.105
20.848	19.926	1050.456	813.928
21.863	19.831	1049.905	812.987
22.877	19.700	1049.136	811.701
23.892	19.443	1048.665	810.058
24.907	19.438	1047.790	809.288
25.921	19.382	1046.532	807.983
26.936	19.440	1045.705	807.542
27.950	19.391	1044.951	806.663
28.965	19.347	1043.889	805.566
29.980	19.387	1043.048	805.030
30.994	19.616	1041.979	805.204
32.009	19.759	1041.013	805.052
33.023	19.906	1040.406	805.193
34.038	19.816	1039.921	804.331
35.053	19.653	1038.838	802.661
36.067	19.616	1037.494	801.384
37.082	19.556	1036.619	800.358
38.096	19.600	1035.719	799.793
39.111	19.634	1035.216	799.491
40.126	19.738	1034.499	799.349
41.140	19.335	1033.797	796.876
42.155	19.215	1032.408	795.181
43.169	19.151	1030.682	793.483
44.184	18.981	1029.841	791.985
45.199	18.831	1028.798	790.421
46.213	18.884	1028.306	790.216
47.228	18.951	1027.411	789.766
48.242	19.268	1027.154	790.957
49.257	19.538	1026.324	791.486
50.271	19.375	1025.215	789.814
51.286	19.414	1024.261	789.186
52.301	19.675	1023.399	789.644
53.315	19.563	1022.721	788.538
54.330	19.425	1022.119	787.376
55.344	19.328	1021.187	786.149
56.359	19.176	1020.022	784.490
57.374	19.164	1019.392	783.879
58.388	19.148	1018.455	783.019
59.403	19.046	1017.433	781.697
60.417	19.097	1016.649	781.257
61.432	18.832	1016.496	779.872
62.447	18.830	1015.566	779.075
63.461	18.900	1014.230	778.302
64.476	18.909	1013.622	777.807
65.490	18.738	1012.700	776.256
66.505	18.818	1011.475	775.608
67.520	18.737	1011.592	775.268
68.534	18.941	1010.154	775.014
69.549	18.803	1009.628	773.922
70.563	18.768	1008.736	773.013
71.578	18.749	1007.915	772.230
72.593	18.623	1006.743	770.696
73.607	18.445	1006.073	769.314
74.622	18.408	1005.255	768.455
75.636	18.429	1004.353	767.793
76.651	18.440	1003.678	767.259
77.666	18.520	1002.940	766.984
78.680	18.728	1001.594	766.813
79.695	18.644	1001.887	766.599
80.709	18.712	1001.081	766.217
81.724	18.834	1000.246	766.055
82.739	19.117	999.779	766.890
83.753	19.269	998.422	766.455
84.768	19.378	997.916	766.484
85.782	19.511	998.140	767.178
86.797	19.925	997.244	768.260
87.812	20.009	996.665	768.120
88.826	19.844	995.197	766.191
89.841	19.629	994.835	764.889
90.855	19.760	994.010	764.767
91.870	19.772	993.604	764.443
92.884	19.913	992.199	763.914
93.899	19.887	991.736	763.378
94.914	19.834	990.949	762.471
95.928	19.844	989.930	761.664
96.943	19.805	989.590	761.161
97.957	19.720	988.476	759.863
98.972	19.637	987.525	758.702
99.987	19.572	987.006	757.951
101.001	19.713	986.330	757.981
102.016	19.704	985.451	757.198
103.030	19.653	984.380	756.087
104.045	19.631	983.750	755.439
105.060	19.752	982.492	754.935
106.074	19.621	981.572	753.592
107.089	19.333	980.275	751.271
108.103	18.975	979.643	749.165
109.118	18.888	978.359	747.737
110.133	18.912	977.347	747.000
111.147	18.876	976.444	746.086
112.162	18.821	975.700	745.215
113.176	18.804	974.885	744.453
114.191	18.866	974.403	744.287
115.206	19.080	973.377	744.362
116.220	19.060	972.985	743.911
117.235	18.930	972.125	742.629
118.249	18.945	971.108	741.851
119.264	19.031	969.596	740.997
120.279	18.834	969.111	739.716
121.293	18.776	968.506	738.940
122.308	18.677	967.750	737.871
123.322	18.622	966.696	736.766
124.337	18.474	965.382	735.063
125.352	18.509	964.044	734.131
126.366	18.436	963.005	732.962
127.381	18.472	962.142	732.392
128.395	18.576	961.521	732.298
129.410	18.548	960.778	731.549
130.424	18.618	959.675	730.945
131.439	18.726	958.709	730.603
132.454	18.837	958.318	730.714
133.468	18.992	958.058	731.110
134.483	18.950	956.978	730.040
135.497	18.981	956.397	729.665
136.512	18.922	955.814	728.907
137.527	19.109	954.857	728.904
138.541	19.036	954.030	727.900
139.556	19.025	953.440	727.339
140.570	19.138	952.813	727.273
141.585	19.272	952.313	727.393
142.600	19.389	952.195	727.732
143.614	19.524	951.044	727.357
144.629	19.651	950.472	727.391
145.643	19.726	949.895	727.200
146.658	19.678	948.961	726.218
147.673	19.438	947.596	724.102
148.687	19.237	946.796	722.581
149.702	19.174	945.634	721.370
150.716	19.188	944.285	720.335
151.731	19.090	943.768	719.467
152.746	19.140	943.117	719.116
153.760	19.139	942.269	718.402
154.775	19.161	941.577	717.900
155.789	19.277	940.917	717.816
156.804	19.466	939.902	717.767
157.819	19.257	939.262	716.347
158.833	19.432	939.037	716.836
159.848	19.544	938.469	716.806
160.862	19.770	937.853	717.209
161.877	19.792	936.962	716.554
162.892	19.366	935.707	713.767
163.906	19.085	934.391	711.540
164.921	19.100	933.986	711.233
165.935	19.129	932.750	710.348
166.950	19.282	931.616	710.053
167.964	19.286	930.839	709.414
168.979	19.259	930.111	708.683
169.994	19.106	928.858	707.038
171.008	19.124	928.298	706.625
172.023	19.251	927.480	706.458
173.037	19.434	926.829	706.650
174.052	19.497	926.873	706.878
175.067	19.549	925.756	706.177
176.081	19.307	924.616	704.258
177.096	19.131	923.270	702.453
178.110	19.015	922.566	701.381
179.125	19.182	921.801	701.416
180.140	19.183	921.115	700.837
181.154	19.219	920.449	700.415
182.169	19.415	920.264	701.009
183.183	19.562	919.783	701.177
184.198	19.601	919.591	701.129
185.213	19.648	918.536	700.452
186.227	19.562	918.148	699.743
187.242	19.577	918.188	699.773
188.256	19.616	917.257	699.161
189.271	19.862	916.436	699.467
190.286	19.934	915.881	699.273
191.300	19.734	914.849	697.616
192.315	19.113	913.701	694.177
193.329	18.750	912.772	691.946
194.344	19.027	911.968	692.391
195.359	19.227	911.396	692.697
196.373	19.359	911.304	693.096
197.388	19.378	910.764	692.702
198.402	19.601	910.563	693.384
199.417	19.852	910.196	694.049
200.432	20.026	910.153	694.654
201.446	20.143	909.623	694.658
202.461	20.093	909.766	694.502
203.475	20.212	909.014	694.345
204.490	20.195	908.061	693.488
205.504	19.948	907.166	691.756
206.519	19.614	906.074	689.529
207.534	19.718	905.294	689.290
208.548	19.611	904.539	688.228
209.563	19.666	903.911	687.907
210.577	19.634	903.682	687.543
211.592	19.858	902.423	687.417
212.607	19.901	902.630	687.683
213.621	20.075	902.157	687.953
214.636	20.130	900.883	687.139
215.650	19.954	900.206	685.864
216.665	19.865	900.311	685.530
217.680	20.017	899.546	685.490
218.694	20.200	899.126	685.832
219.709	20.170	898.727	685.350
220.723	20.265	897.752	684.918
221.738	20.064	896.968	683.470
222.753	20.086	896.517	683.151
223.767	20.090	895.671	682.463
224.782	20.154	894.955	682.107
225.796	20.329	894.445	682.345
226.811	20.363	893.918	682.020
227.826	20.265	893.106	680.954
228.840	19.965	892.188	679.016
229.855	19.875	891.647	678.191
230.869	19.964	891.031	678.014
231.884	19.916	890.131	677.080
232.899	19.901	889.657	676.601
233.913	19.808	888.686	675.439
234.928	19.670	887.668	674.066
235.942	19.671	886.946	673.463
236.957	19.479	886.421	672.257
237.972	19.591	885.695	672.082
238.986	19.743	884.917	672.024
240.001	19.536	884.696	670.992
241.015	19.665	883.975	670.889
242.030	19.629	883.818	670.569
243.045	19.960	882.624	670.886
244.059	20.010	882.460	670.897
245.074	20.009	881.745	670.288
246.088	20.016	881.234	669.867
247.103	20.024	881.100	669.740
248.117	20.202	880.334	669.786
249.132	20.477	879.824	670.398
250.147	20.623	879.591	670.726
251.161	21.004	879.206	671.839
252.176	21.188	878.354	671.837
253.190	21.030	878.350	671.168
254.205	21.170	877.881	671.286
255.220	21.298	876.890	670.964
256.234	21.074	876.483	669.731
257.249	20.989	875.847	668.860
258.263	20.852	875.504	668.013
259.278	21.075	874.568	668.096
260.293	21.069	874.052	667.619
261.307	21.160	873.863	667.765
262.322	21.211	873.095	667.314
263.336	21.164	872.818	666.862
264.351	21.269	871.915	666.513
265.366	21.414	871.020	666.321
266.380	21.294	870.935	665.742
267.395	21.197	870.410	664.911
268.409	21.063	869.435	663.599
269.424	20.972	868.508	662.487
270.439	21.002	867.818	662.014
271.453	21.075	867.044	661.641
272.468	20.772	866.704	660.177
273.482	20.689	865.698	659.037
274.497	20.678	865.336	658.662
275.512	20.816	864.669	658.619
276.526	20.844	863.735	657.953
277.541	20.798	863.335	657.417
278.555	20.835	862.848	657.130
279.570	21.071	862.466	657.669
280.585	21.293	862.354	658.362
281.599	21.203	861.576	657.370
282.614	21.112	860.457	656.119
283.628	20.880	859.741	654.640
284.643	20.903	859.458	654.453
285.657	20.943	858.703	653.973
286.672	20.851	858.434	653.364
287.687	20.881	857.800	652.935
288.701	20.810	857.434	652.333
289.716	20.942	856.668	652.185
290.730	21.070	855.734	651.897
291.745	20.982	855.677	651.466
292.760	21.091	854.954	651.264
293.774	21.129	854.407	650.933
294.789	21.331	853.969	651.296
295.803	21.506	853.180	651.288
296.818	21.065	852.593	649.139
297.833	20.912	851.922	648.004
298.847	20.834	851.708	647.494
299.862	20.910	850.889	647.094
300.876	21.038	850.337	647.092
301.891	21.140	849.524	646.793
302.906	21.321	849.398	647.314
303.920	21.446	848.794	647.258
304.935	21.636	848.014	647.307
305.949	21.798	847.733	647.633
306.964	21.603	847.189	646.442
307.979	21.395	846.069	644.762
308.993	21.345	845.111	643.792
310.008	21.443	845.104	644.089
311.022	21.647	844.559	644.368
312.037	21.633	844.188	643.977
313.052	21.400	843.651	642.654
314.066	21.197	842.586	641.040
315.081	21.021	841.742	639.695
316.095	21.037	841.231	639.311
317.110	21.083	840.676	638.999
318.125	20.943	840.332	638.169
319.139	20.915	839.863	637.653
320.154	20.973	839.203	637.308
321.168	20.945	838.723	636.784
322.183	21.200	838.100	637.186
323.197	21.239	837.617	636.907
324.212	21.244	837.345	636.662
325.227	21.238	836.856	636.211
326.241	21.136	836.258	635.329
327.256	20.982	836.123	634.608
328.270	21.082	834.904	633.992
329.285	20.969	834.530	633.243
330.300	21.073	833.860	633.054
331.314	21.037	833.062	632.264
332.329	21.182	832.494	632.298
333.343	21.291	832.138	632.366
334.358	21.434	831.770	632.551
335.373	21.476	831.074	632.115
336.387	21.379	830.625	631.370
337.402	21.513	830.547	631.739
338.416	21.534	829.889	631.256
339.431	21.616	829.351	631.086
340.446	22.034	828.680	632.025
341.460	22.069	828.331	631.831
342.475	22.088	827.902	631.516
343.489	22.084	827.643	631.246
344.504	22.124	827.024	630.860
345.519	22.298	826.492	631.026
346.533	22.382	826.146	631.008
347.548	22.276	825.569	630.128
348.562	22.011	824.944	628.647
349.577	21.881	823.644	627.138
350.592	21.670	823.086	625.904
351.606	21.449	822.434	624.561
352.621	21.575	821.854	624.516
353.635	21.574	821.403	624.114
354.650	21.628	820.840	623.824
355.665	21.621	821.108	623.948
356.679	21.736	820.674	623.972
357.694	21.646	820.506	623.469
358.708	21.985	819.639	623.960
359.723	21.747	819.221	622.742
360.738	21.714	818.725	622.192
361.752	21.885	818.179	622.328
362.767	21.793	817.667	621.557
363.781	22.069	817.456	622.320
364.796	22.208	816.909	622.340
365.810	22.312	816.583	622.405
366.825	22.392	816.379	622.479
367.840	22.621	815.862	622.839
368.854	22.335	816.038	621.907
369.869	22.267	815.213	620.982
370.883	22.268	814.324	620.252
371.898	22.237	813.750	619.651
372.913	22.444	813.116	619.842
373.927	22.431	812.556	619.316
374.942	22.416	811.721	618.574
375.956	22.410	811.275	618.158
376.971	22.513	810.737	618.052
377.986	22.499	810.526	617.788
379.000	22.718	809.929	618.047
380.015	22.837	809.335	617.956
381.029	22.577	809.321	616.981
382.044	22.536	808.322	616.021
383.059	22.664	807.590	615.854
384.073	22.713	807.109	615.605
385.088	22.525	806.882	614.722
386.102	22.261	806.051	613.115
387.117	22.110	805.322	611.978
388.132	22.237	804.535	611.770
389.146	21.981	804.421	610.735
390.161	22.260	803.749	611.140
391.175	22.302	803.555	611.086
392.190	22.631	803.387	612.046
393.205	22.512	802.773	611.111
394.219	22.232	802.403	609.805
395.234	22.342	801.477	609.427
396.248	22.292	800.831	608.712
397.263	22.132	800.316	607.712
398.278	21.966	800.263	607.043
399.292	21.912	799.507	606.229
400.307	21.892	799.068	605.776
401.321	21.968	798.686	605.695
402.336	22.022	798.338	605.564
403.350	22.116	798.161	605.700
404.365	22.296	797.409	605.694
405.380	22.375	797.756	606.177
406.394	22.519	796.975	606.023
407.409	22.756	796.671	606.555
408.423	22.773	796.353	606.316
409.438	22.925	795.889	606.433
410.453	22.987	795.226	606.087
411.467	22.996	794.999	605.888
412.482	23.054	794.684	605.796
413.496	23.268	793.870	605.852
414.511	23.214	793.770	605.538
415.526	23.265	793.690	605.599
416.540	23.009	793.017	604.156
417.555	22.930	792.627	603.535
418.569	22.973	792.001	603.151
419.584	23.014	791.589	602.927
420.599	23.042	791.209	602.679
421.613	165.495	1370.656	1798.761
422.628	143.529	1455.065	1798.826
