DTS Sentinel unit serial number:	SN413079Multiplexer serial number:	ORYXHardware model number:	OX4-SRSoftware version number:	ORYX F/W v4.00 Oryx Data Collector v3.7.2.0data status	okinstallation	princeton_trtdifferential loss correction	single-endedforward channel	channel 3reverse channel	N/Adate	2019/09/14time	08:08:35forward acquisition time	60.00reverse acquisition time	0.00gamma	496.2192k internal	0.2334k external	0.2334temperature offset calibration	1.0052default loss term (dB/km)	0.3790temperature slope calibration	1.0000multiplexer offset coefficient	1.0000multiplexer slope coefficient	1.0000fibre end	0.00T internal ref (°C)	27.25T ext. ref 1 (°C)	3.57T ext. ref 2 (°C)	25.87length (m)	temperature (°C)	Stokes	anti-Stokes-747.200	-103.970	0.280	-0.066
-746.185	222.150	-0.092	0.149
-745.171	-200.000	-0.079	0.482
-744.156	-128.117	0.391	-0.056
-743.142	800.000	-0.031	0.120
-742.127	-200.000	-0.059	0.293
-741.112	77.494	-0.076	-0.081
-740.098	-200.000	0.006	0.240
-739.083	-59.559	0.205	0.088
-738.069	800.000	0.118	0.384
-737.054	-80.507	-0.197	0.066
-736.039	-174.153	-0.345	0.010
-735.025	-200.000	0.040	0.285
-734.010	14.024	0.283	-0.221
-732.996	-51.454	-0.444	-0.208
-731.981	-26.627	0.014	-0.008
-730.966	-25.371	0.048	-0.028
-729.952	-200.000	-0.024	-0.232
-728.937	-200.000	-0.007	-0.099
-727.923	230.969	-0.046	-0.075
-726.908	-200.000	0.006	-0.192
-725.894	-47.183	-0.078	-0.038
-724.879	-128.047	0.313	0.045
-723.864	-133.909	-0.283	0.035
-722.850	-47.390	0.100	0.049
-721.835	-36.782	0.195	-0.105
-720.821	508.382	-0.059	0.139
-719.806	-200.000	0.019	-0.450
-718.791	-47.444	0.054	-0.026
-717.777	214.115	-0.047	-0.074
-716.762	-200.000	-0.010	0.096
-715.748	800.000	-0.083	0.284
-714.733	416.151	0.156	-0.333
-713.718	800.000	0.090	-0.257
-712.704	-133.458	-0.235	-0.030
-711.689	480.134	-0.056	-0.127
-710.675	-53.005	-0.396	0.183
-709.660	-29.389	0.180	0.104
-708.645	-148.298	-0.083	0.007
-707.631	-38.118	-0.235	0.125
-706.616	85.378	0.239	0.263
-705.602	-168.187	-0.197	-0.008
-704.587	203.260	0.087	0.134
-703.572	17.220	-0.101	0.080
-702.558	308.653	-0.066	0.123
-701.543	-116.992	0.124	-0.023
-700.529	-24.501	0.169	-0.101
-699.514	-112.078	-0.267	-0.054
-698.499	-85.848	-0.313	0.097
-697.485	311.874	-0.091	-0.172
-696.470	-200.000	-0.025	-0.238
-695.456	-98.238	0.046	-0.012
-694.441	-200.000	0.010	0.051
-693.426	-200.000	0.030	-0.263
-692.412	284.994	0.095	-0.172
-691.397	-7.207	0.209	-0.142
-690.383	800.000	-0.014	-0.042
-689.368	800.000	0.075	0.230
-688.354	94.242	-0.171	-0.195
-687.339	-29.055	-0.355	-0.204
-686.324	-200.000	0.024	0.217
-685.310	237.557	0.074	-0.123
-684.295	138.064	-0.148	-0.195
-683.281	-200.000	0.019	-0.368
-682.266	-123.504	0.115	0.018
-681.251	314.400	-0.173	-0.326
-680.237	-200.000	-0.019	-0.201
-679.222	800.000	-0.031	0.113
-678.208	115.857	0.110	0.135
-677.193	-124.647	-0.214	0.033
-676.178	417.256	0.016	0.035
-675.164	-200.000	-0.026	0.305
-674.149	-200.000	-0.064	0.343
-673.135	-46.896	-0.282	0.138
-672.120	26.696	-0.201	-0.168
-671.105	405.399	-0.048	-0.101
-670.091	-116.110	-0.297	0.055
-669.076	800.000	-0.031	0.096
-668.062	-200.000	0.010	-0.216
-667.047	244.715	-0.122	-0.206
-666.032	-58.287	-0.118	-0.051
-665.018	92.631	0.112	0.127
-664.003	-69.950	-0.316	0.121
-662.989	131.926	-0.209	-0.270
-661.974	-200.000	0.042	0.332
-660.959	-42.979	-0.239	-0.121
-659.945	5.398	-0.290	0.214
-658.930	216.198	0.114	0.181
-657.916	450.861	-0.070	-0.154
-656.901	-111.212	-0.501	-0.103
-655.886	-8.471	0.209	0.141
-654.872	-200.000	-0.007	0.051
-653.857	800.000	0.086	0.266
-652.843	-200.000	0.018	-0.137
-651.828	-107.331	-0.203	-0.045
-650.814	-200.000	0.013	0.118
-649.799	27.296	-0.171	-0.144
-648.784	-131.971	-0.119	-0.016
-647.770	587.359	-0.059	-0.145
-646.755	-200.000	-0.025	0.225
-645.741	106.438	-0.126	0.150
-644.726	557.352	0.072	-0.173
-643.711	-200.000	0.009	-0.247
-642.697	48.848	-0.099	0.093
-641.682	-200.000	0.032	0.143
-640.668	-45.434	0.223	0.111
-639.653	-58.746	-0.146	-0.063
-638.638	-103.619	-0.230	-0.054
-637.624	-137.661	0.127	-0.014
-636.609	-73.112	-0.340	-0.125
-635.595	-147.405	-0.332	-0.028
-634.580	44.607	-0.168	0.154
-633.565	800.000	0.107	0.384
-632.551	497.664	-0.061	0.141
-631.536	-13.926	-0.146	0.094
-630.522	-148.668	-0.070	0.006
-629.507	-72.227	0.226	0.084
-628.492	-122.418	-0.154	-0.025
-627.478	-63.211	0.066	-0.027
-626.463	-178.607	-0.179	-0.004
-625.449	260.527	0.093	-0.161
-624.434	7.956	0.315	-0.236
-623.419	-134.308	-0.228	-0.028
-622.405	-200.000	0.002	0.233
-621.390	-42.838	0.129	-0.066
-620.376	585.472	0.018	-0.045
-619.361	-48.787	-0.125	-0.060
-618.346	800.000	-0.118	-0.435
-617.332	-1.759	-0.145	0.102
-616.317	393.201	0.180	-0.375
-615.303	315.746	-0.113	-0.214
-614.288	148.309	-0.285	0.385
-613.273	71.665	-0.124	-0.129
-612.259	-15.853	0.262	0.167
-611.244	-29.946	-0.171	-0.097
-610.230	63.773	-0.106	-0.106
-609.215	-88.714	0.180	0.053
-608.201	-118.367	-0.118	0.021
-607.186	-32.251	0.106	-0.059
-606.171	13.638	-0.154	-0.119
-605.157	800.000	0.065	0.189
-604.142	-47.209	0.139	0.068
-603.128	-200.000	-0.038	0.248
-602.113	101.797	0.053	0.062
-601.098	-115.563	0.263	-0.049
-600.084	121.420	-0.257	0.320
-599.069	-3.774	-0.287	-0.199
-598.055	-107.407	-0.122	-0.027
-597.040	-52.824	-0.197	-0.091
-596.025	31.873	0.127	0.109
-595.011	-195.617	-0.137	-0.001
-593.996	413.453	-0.147	0.312
-592.982	-40.559	0.130	-0.067
-591.967	307.153	-0.060	0.111
-590.952	11.828	-0.133	-0.102
-589.938	-114.456	-0.190	0.037
-588.923	-136.337	-0.035	-0.004
-587.909	-150.979	-0.159	-0.012
-586.894	-33.669	0.254	-0.140
-585.879	60.215	0.214	0.211
-584.865	-200.000	-0.265	0.000
-583.850	101.323	-0.212	0.247
-582.836	-135.610	0.154	0.018
-581.821	-95.290	0.257	0.069
-580.806	121.811	-0.121	-0.151
-579.792	20.390	-0.041	-0.033
-578.777	419.308	0.113	-0.242
-577.763	-200.000	0.049	-0.219
-576.748	-89.116	-0.258	0.076
-575.733	316.317	0.044	-0.084
-574.719	-65.045	0.110	-0.044
-573.704	-120.132	-0.253	0.043
-572.690	83.174	0.066	-0.072
-571.675	10.774	0.079	-0.060
-570.661	-200.000	0.012	-0.102
-569.646	41.689	0.101	-0.091
-568.631	63.710	-0.092	-0.092
-567.617	-121.795	-0.191	0.031
-566.602	-109.718	-0.395	-0.083
-565.588	283.090	-0.092	-0.164
-564.573	454.183	-0.053	-0.116
-563.558	6.289	-0.061	-0.045
-562.544	-33.426	-0.155	0.086
-561.529	34.877	-0.335	0.293
-560.515	12.566	-0.181	-0.139
-559.500	-61.109	0.459	0.193
-558.485	-41.984	0.264	-0.135
-557.471	-200.000	0.014	0.104
-556.456	-57.847	0.124	0.054
-555.442	-200.000	-0.018	0.168
-554.427	-200.000	-0.001	-0.054
-553.412	800.000	-0.037	-0.148
-552.398	800.000	0.048	0.192
-551.383	351.422	0.043	-0.085
-550.369	371.255	0.061	-0.123
-549.354	396.952	-0.174	0.363
-548.339	-72.483	0.378	-0.139
-547.325	88.496	0.236	-0.261
-546.310	513.068	0.051	-0.120
-545.296	-25.069	-0.187	-0.110
-544.281	-111.054	0.246	-0.050
-543.266	159.552	0.047	-0.065
-542.252	800.000	-0.119	-0.350
-541.237	-200.000	0.011	-0.203
-540.223	-34.766	0.182	-0.099
-539.208	342.623	0.086	0.167
-538.193	166.262	0.291	0.411
-537.179	8.553	0.092	0.069
-536.164	-200.000	0.007	0.127
-535.150	-7.386	-0.106	-0.071
-534.135	-200.000	0.072	-0.436
-533.121	64.004	0.186	-0.186
-532.106	100.829	0.311	-0.360
-531.091	158.980	-0.092	-0.128
-530.077	454.533	-0.084	-0.185
-529.062	256.444	0.195	0.334
-528.048	789.798	-0.129	-0.353
-527.033	-20.666	-0.166	-0.101
-526.018	-73.597	0.078	-0.028
-525.004	-148.550	0.164	0.013
-523.989	153.427	-0.070	-0.095
-522.975	6.881	0.180	-0.134
-521.960	-69.961	0.177	0.067
-520.945	-200.000	0.021	-0.245
-519.931	-170.016	-0.308	-0.011
-518.916	57.385	-0.226	0.220
-517.902	-86.386	0.261	-0.080
-516.887	130.973	0.028	0.035
-515.872	154.470	0.286	0.391
-514.858	-200.000	-0.008	0.200
-513.843	800.000	0.010	0.040
-512.829	-112.025	-0.342	0.069
-511.814	-69.979	-0.091	0.034
-510.799	77.448	-0.120	-0.127
-509.785	800.000	-0.080	0.269
-508.770	39.231	-0.070	0.062
-507.756	158.656	-0.109	0.151
-506.741	235.994	-0.012	0.019
-505.726	193.101	-0.074	-0.111
-504.712	-84.989	0.047	-0.015
-503.697	-3.261	-0.140	-0.097
-502.683	84.070	0.109	-0.118
-501.668	406.963	0.153	0.321
-500.653	573.764	0.118	-0.286
-499.639	-200.000	0.040	0.227
-498.624	3.148	-0.296	0.214
-497.610	-3.081	-0.207	-0.144
-496.595	80.699	-0.132	-0.142
-495.581	-146.336	-0.238	-0.021
-494.566	415.249	-0.192	-0.407
-493.551	-67.872	-0.303	0.118
-492.537	17.876	0.103	-0.082
-491.522	308.344	-0.048	0.089
-490.508	222.124	-0.076	0.122
-489.493	415.676	-0.132	0.279
-488.478	800.000	-0.051	-0.212
-487.464	-46.069	-0.204	0.100
-486.449	518.113	-0.091	-0.213
-485.435	-26.636	-0.291	-0.169
-484.420	277.046	-0.164	0.291
-483.405	-193.167	0.214	-0.002
-482.391	800.000	-0.036	0.099
-481.376	-200.000	0.041	0.304
-480.362	-51.124	-0.082	0.038
-479.347	-23.860	0.250	0.149
-478.332	-17.285	0.430	-0.269
-477.318	-133.499	0.203	-0.025
-476.303	-95.660	0.214	0.057
-475.289	-200.000	-0.021	-0.155
-474.274	800.000	0.059	-0.228
-473.259	-42.516	0.070	-0.035
-472.245	59.685	-0.145	0.142
-471.230	-200.000	0.071	0.357
-470.216	-70.670	-0.381	-0.143
-469.201	101.069	0.042	-0.049
-468.186	-54.690	-0.283	0.127
-467.172	-72.563	-0.416	-0.153
-466.157	19.850	-0.166	-0.133
-465.143	-37.781	0.075	-0.040
-464.128	14.671	0.072	0.056
-463.113	152.695	-0.096	0.130
-462.099	-190.478	0.410	-0.004
-461.084	23.512	-0.277	-0.227
-460.070	-111.924	-0.204	-0.041
-459.055	14.205	-0.208	0.161
-458.040	-108.972	0.112	-0.024
-457.026	54.424	0.330	0.316
-456.011	-139.447	0.172	0.018
-454.997	205.191	0.123	0.189
-453.982	38.257	0.093	0.082
-452.968	766.964	0.182	-0.491
-451.953	-8.709	-0.143	-0.095
-450.938	18.538	0.261	-0.207
-449.924	381.476	-0.041	0.085
-448.909	98.100	-0.113	0.129
-447.895	500.178	0.104	0.238
-446.880	-29.899	0.071	0.040
-445.865	4.940	0.295	0.216
-444.851	-141.482	0.058	0.006
-443.836	800.000	-0.014	0.043
-442.822	-127.569	-0.377	0.054
-441.807	179.058	-0.124	-0.180
-440.792	-35.899	0.165	-0.089
-439.778	800.000	0.050	-0.201
-438.763	-25.147	-0.208	0.123
-437.749	99.622	0.104	0.119
-436.734	47.521	-0.350	0.325
-435.719	33.584	0.214	0.185
-434.705	800.000	0.060	0.214
-433.690	24.048	-0.233	0.191
-432.676	-156.737	0.233	0.014
-431.661	-134.607	-0.186	-0.023
-430.646	-113.928	0.113	0.022
-429.632	800.000	-0.035	-0.114
-428.617	-19.838	-0.345	-0.211
-427.603	4.354	0.247	-0.179
-426.588	-69.915	0.182	-0.069
-425.573	800.000	0.038	-0.160
-424.559	-60.151	0.243	0.103
-423.544	-7.598	-0.242	0.163
-422.530	-153.158	-0.069	0.005
-421.515	-105.006	-0.170	0.039
-420.500	-101.896	0.521	-0.125
-419.486	-200.000	-0.031	-0.191
-418.471	-200.000	0.004	-0.030
-417.457	65.785	0.069	0.069
-416.442	-142.764	-0.286	0.028
-415.428	-200.000	0.008	0.133
-414.413	-86.056	-0.114	-0.035
-413.398	-67.896	0.184	-0.071
-412.384	-171.928	0.132	-0.004
-411.369	-200.000	0.028	0.210
-410.355	734.670	-0.089	0.238
-409.340	-59.954	0.190	0.081
-408.325	251.437	0.194	0.328
-407.311	-158.334	-0.159	-0.009
-406.296	14.335	0.077	-0.059
-405.282	-200.000	-0.005	-0.156
-404.267	97.159	-0.160	0.182
-403.252	-200.000	-0.023	0.260
-402.238	46.872	-0.272	-0.251
-401.223	-49.068	0.225	-0.107
-400.209	271.172	0.204	-0.357
-399.194	800.000	0.098	-0.391
-398.179	-151.443	-0.273	-0.020
-397.165	-200.000	0.009	0.296
-396.150	524.661	0.075	0.174
-395.136	178.767	-0.179	-0.259
-394.121	800.000	-0.153	-0.446
-393.106	-45.017	0.171	-0.084
-392.092	800.000	-0.157	-0.452
-391.077	55.008	0.209	-0.200
-390.063	68.216	0.159	0.161
-389.048	-165.914	-0.242	0.010
-388.033	800.000	-0.055	0.228
-387.019	79.887	-0.135	-0.144
-386.004	-200.000	-0.049	0.273
-384.990	438.905	0.131	-0.284
-383.975	-200.000	0.049	0.230
-382.960	800.000	0.033	-0.102
-381.946	-92.686	0.071	0.020
-380.931	-109.565	-0.319	0.067
-379.917	-52.967	0.392	-0.179
-378.902	-59.831	-0.307	-0.130
-377.888	-200.000	-0.009	0.225
-376.873	30.317	0.110	0.093
-375.858	-200.000	0.031	-0.371
-374.844	-108.656	-0.208	-0.044
-373.829	55.882	0.203	0.195
-372.815	-87.967	0.364	0.108
-371.800	30.240	-0.062	-0.052
-370.785	-152.167	0.384	-0.028
-369.771	800.000	-0.091	-0.335
-368.756	-73.445	0.033	-0.012
-367.742	800.000	-0.035	0.141
-366.727	220.559	0.037	-0.059
-365.712	155.873	-0.012	-0.017
-364.698	-200.000	0.038	-0.245
-363.683	496.133	-0.172	0.392
-362.669	800.000	0.043	-0.167
-361.654	-129.366	-0.245	-0.034
-360.639	-108.932	0.257	0.054
-359.625	-110.830	0.174	-0.035
-358.610	-151.590	0.094	0.007
-357.596	-200.000	0.018	0.105
-356.581	800.000	0.070	0.210
-355.566	-123.431	-0.298	-0.047
-354.552	116.419	-0.154	-0.187
-353.537	800.000	-0.095	0.299
-352.523	113.047	0.239	0.287
-351.508	202.637	0.054	0.082
-350.493	8.266	0.069	0.051
-349.479	-101.235	-0.436	-0.105
-348.464	-20.009	0.106	-0.065
-347.450	134.436	0.245	-0.315
-346.435	-88.642	-0.155	0.046
-345.420	228.883	0.085	0.137
-344.406	-114.118	-0.099	-0.019
-343.391	800.000	0.026	0.109
-342.377	-200.000	-0.023	0.228
-341.362	94.091	-0.036	-0.040
-340.348	-200.000	-0.003	-0.230
-339.333	133.583	-0.202	-0.258
-338.318	-200.000	-0.018	0.248
-337.304	-25.817	-0.258	0.150
-336.289	-200.000	0.018	-0.255
-335.275	-28.795	-0.217	0.123
-334.260	-75.314	0.131	-0.046
-333.245	-200.000	-0.024	0.117
-332.231	129.134	0.135	0.171
-331.216	-39.830	-0.215	-0.111
-330.202	164.943	-0.215	-0.300
-329.187	-114.456	0.144	-0.027
-328.172	800.000	-0.097	0.302
-327.158	-93.320	0.144	0.040
-326.143	45.433	0.219	-0.200
-325.129	-72.891	-0.255	-0.093
-324.114	112.538	-0.053	0.063
-323.099	-152.354	0.108	-0.008
-322.085	152.273	0.077	-0.104
-321.070	32.724	0.249	0.213
-320.056	-8.344	0.073	0.049
-319.041	37.650	0.057	-0.050
-318.026	-200.000	0.063	0.276
-317.012	42.944	0.109	-0.098
-315.997	-200.000	0.034	0.275
-314.983	-58.964	0.258	-0.110
-313.968	112.663	0.184	0.221
-312.953	-192.378	-0.387	0.004
-311.939	-53.718	0.166	-0.075
-310.924	293.748	-0.021	-0.037
-309.910	176.430	-0.093	0.133
-308.895	-85.169	0.044	-0.014
-307.880	-113.412	-0.223	-0.043
-306.866	197.392	0.157	-0.238
-305.851	-147.451	0.205	-0.017
-304.837	-177.896	-0.117	-0.003
-303.822	169.958	0.152	0.215
-302.807	-158.881	-0.110	-0.006
-301.793	-200.000	0.010	-0.186
-300.778	-22.613	0.080	-0.048
-299.764	-29.106	-0.288	-0.163
-298.749	800.000	0.066	-0.205
-297.735	-50.469	0.355	-0.165
-296.720	43.129	-0.100	0.091
-295.705	-96.150	0.177	0.046
-294.691	10.572	0.121	0.091
-293.676	122.970	-0.111	0.138
-292.662	-200.000	-0.024	0.182
-291.647	-112.028	0.286	0.057
-290.632	-200.000	0.005	-0.149
-289.618	479.419	0.117	-0.262
-288.603	-200.000	-0.023	0.183
-287.589	800.000	0.057	-0.169
-286.574	800.000	0.064	0.197
-285.559	-89.344	-0.043	-0.013
-284.545	87.605	0.171	0.187
-283.530	-82.587	-0.204	0.065
-282.516	-42.677	0.241	0.121
-281.501	183.191	-0.094	-0.137
-280.486	-200.000	0.082	-0.373
-279.472	-7.830	-0.138	-0.092
-278.457	-42.606	-0.044	0.022
-277.443	22.859	-0.192	-0.155
-276.428	800.000	-0.059	-0.198
-275.413	800.000	0.085	0.235
-274.399	-44.565	-0.183	0.090
-273.384	-124.443	0.336	-0.052
-272.370	-37.880	-0.062	0.032
-271.355	-99.102	-0.337	-0.084
-270.340	-110.047	0.181	-0.037
-269.326	-200.000	-0.046	-0.249
-268.311	-98.709	0.101	-0.025
-267.297	-200.000	-0.006	0.052
-266.282	-156.471	0.197	-0.012
-265.267	97.605	0.226	0.256
-264.253	798.416	-0.098	0.267
-263.238	-14.103	0.159	-0.101
-262.224	-138.372	-0.185	-0.020
-261.209	644.336	-0.085	0.215
-260.195	64.113	-0.152	0.150
-259.180	-67.798	-0.234	-0.090
-258.165	-18.890	0.335	0.206
-257.151	18.270	0.363	0.286
-256.136	-2.881	-0.445	-0.306
-255.122	-175.694	0.155	-0.004
-254.107	83.046	-0.105	-0.113
-253.092	800.000	0.134	-0.385
-252.078	240.936	0.166	-0.274
-251.063	24.148	-0.061	-0.050
-250.049	163.829	0.115	0.160
-249.034	-77.732	0.161	-0.055
-248.019	-46.939	0.156	-0.075
-247.005	75.573	0.044	-0.046
-245.990	-194.907	-0.053	-0.000
-244.976	-200.000	0.002	0.294
-243.961	95.571	-0.118	-0.132
-242.946	-33.802	0.077	0.042
-241.932	-30.770	0.371	0.207
-240.917	45.344	-0.231	0.210
-239.903	-24.722	-0.181	0.106
-238.888	-200.000	0.034	0.456
-237.873	258.835	-0.073	0.124
-236.859	-200.000	-0.009	0.139
-235.844	63.586	-0.161	0.159
-234.830	206.905	-0.151	0.232
-233.815	-33.355	0.121	0.066
-232.800	-200.000	0.008	-0.043
-231.786	-200.000	-0.003	0.139
-230.771	163.037	-0.224	0.309
-229.757	339.801	-0.040	-0.077
-228.742	-69.184	-0.364	0.138
-227.727	411.591	-0.187	0.392
-226.713	-83.337	0.188	0.060
-225.698	522.472	0.071	0.165
-224.684	509.697	0.117	0.267
-223.669	800.000	0.025	-0.083
-222.655	800.000	0.048	-0.162
-221.640	-4.388	0.111	-0.075
-220.625	22.110	0.214	0.172
-219.611	-74.321	0.066	0.023
-218.596	282.818	0.077	0.136
-217.582	398.089	-0.152	-0.313
-216.567	194.672	-0.224	-0.335
-215.552	-107.738	0.199	0.043
-214.538	-134.346	-0.084	0.010
-213.523	131.622	-0.097	0.122
-212.509	-17.509	0.280	0.173
-211.494	247.654	-0.038	0.063
-210.479	-130.621	0.116	0.015
-209.465	137.022	0.169	0.217
-208.450	416.184	-0.048	0.101
-207.436	-14.532	0.268	0.170
-206.421	-200.000	0.021	-0.151
-205.406	-64.782	-0.404	0.161
-204.392	-200.000	-0.018	0.132
-203.377	-121.597	0.615	0.100
-202.363	-200.000	0.005	-0.040
-201.348	-10.668	0.066	-0.043
-200.333	174.889	-0.122	-0.173
-199.319	-11.640	-0.192	0.124
-198.304	-6.866	-0.130	0.087
-197.290	-102.627	0.183	0.043
-196.275	48.355	0.086	-0.079
-195.260	23.833	0.314	0.255
-194.246	800.000	-0.057	0.182
-193.231	-78.636	0.312	-0.105
-192.217	800.000	-0.072	-0.210
-191.202	17.320	0.216	-0.169
-190.187	-200.000	0.021	0.142
-189.173	-82.253	0.257	-0.082
-188.158	158.847	-0.126	-0.172
-187.144	-21.429	-0.202	-0.121
-186.129	41.705	0.158	-0.141
-185.114	-200.000	0.015	-0.088
-184.100	568.810	-0.068	0.163
-183.085	-200.000	-0.033	0.354
-182.071	-33.555	0.084	-0.046
-181.056	-200.000	-0.044	-0.193
-180.042	32.495	0.208	-0.177
-179.027	37.724	0.207	-0.181
-178.012	-90.053	-0.058	-0.017
-176.998	-93.136	-0.184	-0.050
-175.983	-23.537	0.390	-0.230
-174.969	-80.764	-0.223	0.073
-173.954	-200.000	0.026	-0.196
-172.939	-190.654	0.334	-0.004
-171.925	50.996	0.281	0.262
-170.910	-118.207	-0.121	-0.021
-169.896	15.768	-0.051	-0.039
-168.881	-200.000	-0.019	-0.126
-167.866	-200.000	0.014	0.066
-166.852	8.196	-0.237	0.175
-165.837	-94.413	-0.441	-0.118
-164.823	-47.724	0.099	0.047
-163.808	-200.000	0.006	-0.168
-162.793	201.436	-0.113	-0.171
-161.779	784.029	0.047	0.126
-160.764	296.278	0.026	-0.046
-159.750	-119.993	-0.294	-0.050
-158.735	207.898	0.113	0.174
-157.720	51.764	-0.233	-0.218
-156.706	264.906	0.066	-0.114
-155.691	-63.407	-0.131	-0.053
-154.677	800.000	0.098	-0.347
-153.662	-173.147	0.149	0.004
-152.647	-95.939	-0.067	0.018
-151.633	178.178	0.238	-0.341
-150.618	167.695	0.130	0.181
-149.604	151.610	-0.062	0.083
-148.589	489.902	-0.149	0.334
-147.574	705.582	-0.071	0.185
-146.560	-95.711	-0.151	0.040
-145.545	-118.676	-0.106	-0.018
-144.531	-117.793	0.182	0.032
-143.516	800.000	0.032	0.105
-142.502	-141.093	0.215	0.022
-141.487	-200.000	-0.032	-0.145
-140.472	-200.000	-0.067	0.358
-139.458	-200.000	0.024	-0.375
-138.443	44.387	-0.131	0.118
-137.429	-169.681	0.216	-0.008
-136.414	265.385	-0.161	0.276
-135.399	-126.394	0.137	-0.020
-134.385	-57.932	0.252	-0.108
-133.370	-200.000	-0.033	-0.246
-132.356	-142.991	0.124	-0.012
-131.341	-24.280	0.262	-0.153
-130.326	-48.687	0.136	-0.064
-129.312	-132.741	0.176	-0.022
-128.297	91.538	-0.113	0.124
-127.283	108.118	0.028	0.032
-126.268	124.136	0.185	-0.228
-125.253	35.765	-0.239	-0.206
-124.239	800.000	0.126	-0.363
-123.224	212.964	0.167	0.258
-122.210	-112.168	0.087	0.017
-121.195	-35.799	0.062	-0.033
-120.180	70.927	0.209	-0.212
-119.166	45.561	0.119	0.108
-118.151	800.000	0.082	0.224
-117.137	117.585	-0.294	0.354
-116.122	-200.000	0.045	0.289
-115.107	800.000	-0.078	-0.328
-114.093	-200.000	0.004	0.187
-113.078	171.573	0.109	-0.153
-112.064	54.744	-0.115	0.109
-111.049	-159.250	-0.223	-0.012
-110.034	44.874	-0.051	-0.046
-109.020	-69.571	0.244	-0.092
-108.005	-36.531	0.316	0.167
-106.991	-89.871	-0.261	0.075
-105.976	-87.861	-0.164	0.049
-104.962	-33.011	0.280	-0.152
-103.947	-0.611	0.192	-0.134
-102.932	-200.000	-0.017	-0.370
-101.918	8.131	0.060	0.044
-100.903	-101.587	0.168	0.040
-99.889	-200.000	0.014	-0.086
-98.874	-106.715	-0.289	-0.063
-97.859	58.745	0.083	0.080
-96.845	-23.133	0.295	0.174
-95.830	-116.813	-0.473	-0.085
-94.816	-200.000	-0.041	0.245
-93.801	800.000	0.149	0.473
-92.786	-66.363	0.167	-0.065
-91.772	-200.000	0.007	-0.420
-90.757	-85.109	0.154	0.047
-89.743	50.254	-0.225	0.208
-88.728	800.000	0.114	0.375
-87.713	-73.570	-0.341	0.122
-86.699	179.802	0.073	0.105
-85.684	-183.441	-0.059	-0.001
-84.670	68.605	0.160	-0.161
-83.655	223.753	0.142	0.225
-82.640	-85.749	0.114	0.035
-81.626	-200.000	0.030	-0.146
-80.611	333.667	-0.053	0.100
-79.597	8.970	0.085	0.062
-78.582	-3.820	0.132	-0.090
-77.567	-200.000	0.020	0.148
-76.553	52.800	0.068	0.064
-75.538	197.303	-0.060	0.089
-74.524	127.641	-0.082	-0.102
-73.509	-78.549	-0.266	-0.089
-72.494	-30.120	0.158	0.088
-71.480	59.506	-0.061	-0.059
-70.465	17.913	-0.036	-0.028
-69.451	-93.906	-0.120	0.032
-68.436	-44.809	0.252	0.123
-67.422	-200.000	-0.015	-0.145
-66.407	-112.705	0.048	-0.009
-65.392	112.698	-0.228	-0.270
-64.378	800.000	-0.084	0.258
-63.363	134.610	-0.057	0.073
-62.349	-49.955	0.388	0.180
-61.334	130.032	-0.922	-1.155
-60.319	96.504	0.469	0.525
-59.305	754.367	-0.378	-1.001
-58.290	750.762	0.398	1.051
-57.276	326.577	0.839	1.572
-56.261	-200.000	112.707	643.725
-55.246	529.747	1529.086	3533.578
-54.232	176.404	2701.658	3840.867
-53.217	110.456	2188.356	2573.287
-52.203	38.456	1709.498	1490.783
-51.188	30.448	1526.723	1276.574
-50.173	28.119	1501.587	1239.745
-49.159	51.944	1560.864	1453.957
-48.144	51.402	1576.820	1465.027
-47.130	30.549	1532.067	1281.534
-46.115	27.576	1516.308	1247.979
-45.100	27.333	1513.421	1243.891
-44.086	27.324	1511.217	1241.969
-43.071	27.177	1509.672	1239.650
-42.057	27.238	1507.578	1238.298
-41.042	27.209	1506.224	1236.936
-40.027	27.254	1505.316	1236.451
-39.013	27.215	1503.415	1234.575
-37.998	27.203	1501.614	1232.963
-36.984	27.223	1500.446	1232.091
-35.969	27.180	1499.643	1231.092
-34.954	27.169	1498.400	1229.948
-33.940	27.184	1496.707	1228.613
-32.925	27.200	1495.248	1227.476
-31.911	27.271	1493.574	1226.529
-30.896	27.290	1492.563	1225.778
-29.881	27.243	1491.645	1224.662
-28.867	27.291	1490.120	1223.680
-27.852	27.249	1489.170	1222.571
-26.838	27.340	1487.339	1221.633
-25.823	27.251	1486.339	1220.166
-24.809	27.361	1484.166	1219.065
-23.794	27.307	1483.069	1217.754
-22.779	27.230	1482.065	1216.370
-21.765	27.339	1480.738	1215.957
-20.750	27.402	1479.401	1215.232
-19.736	27.342	1478.410	1213.975
-18.721	27.231	1477.534	1212.464
-17.706	27.284	1476.490	1211.915
-16.692	27.331	1475.203	1211.122
-15.677	27.216	1474.377	1209.628
-14.663	27.243	1473.250	1208.838
-13.648	27.250	1472.528	1208.241
-12.633	27.184	1471.629	1207.016
-11.619	27.228	1470.773	1206.563
-10.604	27.308	1469.559	1206.050
-9.590	27.190	1468.704	1204.516
-8.575	27.231	1467.826	1204.023
-7.560	27.275	1466.998	1203.587
-6.546	27.303	1465.870	1202.794
-5.531	27.178	1465.509	1201.625
-4.517	27.250	1464.517	1201.243
-3.502	27.278	1463.020	1200.153
-2.487	27.069	1462.390	1198.210
-1.473	27.223	1461.306	1198.289
-0.458	27.294	1459.771	1197.444
0.556	27.781	1450.777	1188.917
1.571	25.760	1427.498	1156.766
2.586	23.265	1367.406	1092.597
3.600	22.106	1285.559	1020.383
4.615	20.796	1239.757	976.599
5.629	17.735	1182.179	914.765
6.644	10.119	1098.255	811.656
7.659	4.326	1060.547	755.572
8.673	3.557	1055.086	747.891
9.688	3.651	1051.652	745.844
10.702	3.460	1050.456	744.008
11.717	3.592	1048.222	742.996
12.731	5.963	1050.069	755.664
13.746	13.345	1060.623	798.966
14.761	18.894	1067.923	831.305
15.775	19.712	1067.370	834.751
16.790	19.020	1065.931	830.213
17.804	18.133	1063.759	824.178
18.819	17.162	1062.171	818.196
19.834	16.803	1060.194	814.877
20.848	16.596	1059.584	813.341
21.863	16.397	1059.233	812.043
22.877	16.084	1058.674	810.037
23.892	15.996	1057.702	808.799
24.907	15.944	1056.890	807.861
25.921	15.907	1056.234	807.107
26.936	15.940	1055.165	806.377
27.950	16.060	1053.822	805.855
28.965	16.040	1052.986	805.047
29.980	16.053	1051.770	804.111
30.994	16.126	1051.243	803.981
32.009	16.239	1050.236	803.679
33.023	16.209	1049.575	802.959
34.038	16.256	1048.412	802.225
35.053	16.148	1047.568	800.993
36.067	16.111	1046.231	799.727
37.082	16.088	1045.719	799.155
38.096	16.064	1045.064	798.471
39.111	16.027	1044.397	797.712
40.126	16.274	1043.201	797.897
41.140	16.105	1041.884	796.023
42.155	16.063	1040.267	794.515
43.169	15.703	1039.998	792.546
44.184	15.824	1038.601	791.981
45.199	15.710	1037.747	790.724
46.213	15.771	1036.558	790.033
47.228	15.763	1035.765	789.320
48.242	15.907	1034.910	789.273
49.257	16.033	1033.965	789.075
50.271	15.940	1033.226	788.004
51.286	15.963	1032.269	787.316
52.301	16.081	1031.541	787.239
53.315	16.099	1030.476	786.440
54.330	15.935	1029.673	784.993
55.344	15.863	1028.750	783.887
56.359	15.851	1027.396	782.730
57.374	15.895	1026.814	782.420
58.388	15.821	1025.964	781.362
59.403	15.758	1025.286	780.481
60.417	15.835	1024.662	780.297
61.432	15.795	1023.395	779.077
62.447	15.705	1023.022	778.307
63.461	15.578	1022.428	777.198
64.476	15.591	1021.717	776.648
65.490	15.607	1020.703	775.884
66.505	15.621	1019.536	774.991
67.520	15.673	1018.806	774.609
68.534	15.572	1018.333	773.717
69.549	15.738	1017.282	773.614
70.563	15.672	1016.702	772.797
71.578	15.736	1015.732	772.289
72.593	15.548	1015.102	770.877
73.607	15.528	1014.056	769.922
74.622	15.429	1013.414	768.913
75.636	15.465	1012.094	768.011
76.651	15.615	1011.071	767.850
77.666	15.470	1010.678	766.823
78.680	15.631	1009.661	766.716
79.695	15.552	1009.445	766.123
80.709	15.677	1008.528	765.931
81.724	15.890	1007.232	765.849
82.739	15.869	1007.081	765.570
83.753	15.775	1006.379	764.542
84.768	15.917	1005.446	764.407
85.782	16.069	1004.922	764.633
86.797	16.208	1004.062	764.539
87.812	16.324	1002.753	764.000
88.826	16.164	1002.150	762.751
89.841	16.048	1001.958	762.011
90.855	16.144	1000.745	761.457
91.870	16.106	1000.393	760.949
92.884	16.178	999.522	760.542
93.899	16.039	999.681	759.973
94.914	16.179	998.458	759.603
95.928	16.210	997.619	759.040
96.943	16.204	996.900	758.399
97.957	16.131	995.883	757.226
98.972	15.999	995.304	756.128
99.987	16.096	994.240	755.690
101.001	16.092	993.535	755.068
102.016	16.068	993.116	754.574
103.030	16.135	991.450	753.542
104.045	16.249	990.728	753.436
105.060	16.268	989.534	752.545
106.074	16.024	988.975	750.969
107.089	15.815	988.180	749.367
108.103	15.905	986.494	748.420
109.118	15.852	985.609	747.447
110.133	15.719	985.426	746.653
111.147	15.682	984.568	745.773
112.162	15.681	983.792	745.115
113.176	15.751	982.505	744.385
114.191	15.688	982.548	744.070
115.206	15.907	981.207	743.958
116.220	15.818	980.319	742.827
117.235	15.742	979.921	742.121
118.249	15.755	978.492	741.034
119.264	15.753	977.889	740.503
120.279	15.791	976.810	739.787
121.293	15.682	976.163	738.752
122.308	15.615	975.097	737.585
123.322	15.550	974.455	736.749
124.337	15.472	973.201	735.395
125.352	15.540	972.316	734.958
126.366	15.498	971.334	733.967
127.381	15.638	970.060	733.551
128.395	15.565	969.222	732.532
129.410	15.660	968.014	731.969
130.424	15.629	967.515	731.391
131.439	15.622	966.368	730.431
132.454	15.611	966.025	730.060
133.468	15.706	965.210	729.791
134.483	15.794	964.419	729.509
135.497	15.768	963.788	728.856
136.512	15.710	962.823	727.810
137.527	15.858	962.272	727.969
138.541	15.799	961.469	727.041
139.556	15.794	960.859	726.496
140.570	15.846	959.812	725.864
141.585	16.001	958.915	725.790
142.600	15.967	958.782	725.479
143.614	16.129	957.673	725.270
144.629	16.185	957.414	725.249
145.643	16.293	956.449	724.920
146.658	16.136	955.656	723.582
147.673	16.186	954.096	722.552
148.687	15.929	953.868	721.215
149.702	16.019	952.711	720.661
150.716	15.714	951.881	718.663
151.731	15.997	950.553	718.805
152.746	16.014	949.960	718.364
153.760	15.827	949.948	717.495
154.775	15.952	948.828	717.120
155.789	16.051	947.796	716.696
156.804	16.162	946.950	716.466
157.819	16.117	946.568	715.923
158.833	16.172	945.639	715.388
159.848	16.172	945.241	715.025
160.862	16.330	944.229	714.867
161.877	16.292	943.795	714.314
162.892	16.028	942.773	712.359
163.906	16.050	941.804	711.658
164.921	15.898	941.150	710.459
165.935	15.945	940.182	709.864
166.950	16.007	938.934	709.118
167.964	16.040	938.214	708.651
168.979	16.089	936.778	707.711
169.994	16.058	936.208	707.087
171.008	16.037	935.194	706.172
172.023	16.059	934.596	705.749
173.037	16.111	934.345	705.716
174.052	16.182	933.354	705.199
175.067	16.249	932.561	704.820
176.081	16.205	931.524	703.789
177.096	16.110	930.518	702.570
178.110	16.008	930.121	701.785
179.125	15.945	929.190	700.757
180.140	16.073	928.562	700.754
181.154	16.101	927.828	700.254
182.169	16.188	927.384	700.219
183.183	16.310	927.154	700.491
184.198	16.387	926.061	699.919
185.213	16.341	925.682	699.382
186.227	16.231	925.071	698.404
187.242	16.348	924.711	698.552
188.256	16.283	924.158	697.804
189.271	16.496	923.113	697.832
190.286	16.499	922.296	697.165
191.300	16.313	921.618	695.824
192.315	16.049	920.441	693.788
193.329	16.029	919.539	692.963
194.344	15.954	919.243	692.372
195.359	16.118	918.540	692.456
196.373	16.194	918.183	692.438
197.388	16.238	917.610	692.125
198.402	16.262	917.363	691.976
199.417	16.508	916.805	692.501
200.432	16.611	916.353	692.520
201.446	16.631	916.054	692.313
202.461	16.793	915.511	692.502
203.475	16.795	914.920	692.004
204.490	16.793	914.442	691.572
205.504	16.605	913.223	689.824
206.519	16.453	912.294	688.441
207.534	16.385	911.768	687.706
208.548	16.535	910.882	687.589
209.563	16.550	910.211	687.081
210.577	16.488	909.397	686.156
211.592	16.426	909.078	685.601
212.607	16.742	908.514	686.397
213.621	16.765	907.806	685.894
214.636	16.755	907.331	685.433
215.650	16.791	906.258	684.710
216.665	16.682	905.822	683.878
217.680	16.627	905.631	683.451
218.694	16.913	905.061	684.115
219.709	16.881	904.603	683.577
220.723	16.834	904.025	682.892
221.738	16.931	902.993	682.444
222.753	16.983	902.144	681.949
223.767	16.920	901.064	680.822
224.782	17.052	900.507	680.870
225.796	17.004	900.135	680.337
226.811	17.067	899.660	680.168
227.826	16.992	899.217	679.472
228.840	16.979	897.939	678.396
229.855	16.736	897.959	677.376
230.869	16.817	897.143	677.026
231.884	16.812	896.499	676.459
232.899	16.739	895.822	675.597
233.913	16.853	894.680	675.130
234.928	16.842	893.811	674.373
235.942	16.702	893.567	673.573
236.957	16.626	892.884	672.695
237.972	16.690	892.253	672.413
238.986	16.811	891.490	672.262
240.001	16.752	890.714	671.382
241.015	16.856	889.766	671.021
242.030	16.776	889.730	670.615
243.045	16.931	888.710	670.401
244.059	17.014	888.186	670.275
245.074	16.940	887.725	669.574
246.088	17.016	887.028	669.288
247.103	16.879	887.147	668.778
248.117	17.117	886.149	668.904
249.132	17.240	885.309	668.696
250.147	17.353	885.240	669.031
251.161	17.376	884.827	668.749
252.176	17.538	883.689	668.467
253.190	17.465	882.833	667.472
254.205	17.679	882.503	668.004
255.220	17.662	882.132	667.595
256.234	17.591	880.979	666.388
257.249	17.604	880.499	666.016
258.263	17.674	879.748	665.661
259.278	17.517	879.545	664.836
260.293	17.528	879.087	664.476
261.307	17.780	878.264	664.774
262.322	17.726	877.633	664.029
263.336	17.799	877.288	663.993
264.351	17.840	876.542	663.530
265.366	17.891	875.742	663.063
266.380	17.935	874.861	662.506
267.395	17.731	874.616	661.475
268.409	17.710	873.987	660.857
269.424	17.613	873.264	659.874
270.439	17.726	872.432	659.629
271.453	17.660	871.736	658.787
272.468	17.551	870.996	657.747
273.482	17.500	870.307	656.974
274.497	17.488	869.655	656.376
275.512	17.516	869.097	656.007
276.526	17.518	868.569	655.556
277.541	17.577	867.841	655.175
278.555	17.596	867.302	654.785
279.570	17.741	866.539	654.705
280.585	17.921	866.372	655.216
281.599	17.955	865.086	654.314
282.614	17.864	864.610	653.548
283.628	17.907	863.605	652.893
284.643	17.706	864.011	652.375
285.657	17.831	863.121	652.123
286.672	17.742	862.641	651.361
287.687	17.862	862.249	651.466
288.701	17.855	861.775	651.022
289.716	17.767	861.222	650.214
290.730	17.788	860.598	649.763
291.745	17.812	859.912	649.279
292.760	17.819	859.253	648.752
293.774	17.718	858.852	648.008
294.789	18.158	857.919	648.917
295.803	18.013	857.580	648.054
296.818	17.901	856.835	647.007
297.833	17.861	856.124	646.264
298.847	18.005	855.102	645.977
299.862	17.879	855.072	645.420
300.876	17.924	853.993	644.721
301.891	18.287	853.350	645.547
302.906	18.211	852.658	644.681
303.920	18.163	852.354	644.212
304.935	18.229	851.911	644.069
305.949	18.428	851.336	644.327
306.964	18.285	850.576	643.157
307.979	18.227	849.759	642.266
308.993	18.269	849.285	642.005
310.008	18.280	848.963	641.748
311.022	18.330	848.338	641.405
312.037	18.277	847.925	640.839
313.052	18.268	847.131	640.146
314.066	18.147	846.238	638.964
315.081	18.039	845.758	638.140
316.095	18.023	845.097	637.527
317.110	18.074	844.679	637.345
318.125	18.216	844.024	637.324
319.139	18.167	843.241	636.496
320.154	18.098	843.146	636.109
321.168	18.115	842.535	635.657
322.183	18.070	842.666	635.531
323.197	18.362	841.664	635.802
324.212	18.298	841.115	635.093
325.227	18.253	840.367	634.308
326.241	18.189	839.892	633.655
327.256	18.225	839.502	633.439
328.270	18.285	838.758	633.040
329.285	18.237	838.130	632.334
330.300	18.239	837.501	631.813
331.314	18.201	836.903	631.163
332.329	18.378	836.315	631.317
333.343	18.196	836.045	630.386
334.358	18.324	835.464	630.364
335.373	18.475	834.829	630.385
336.387	18.432	834.499	629.921
337.402	18.572	833.764	629.824
338.416	18.603	833.555	629.725
339.431	18.611	832.983	629.269
340.446	18.592	832.210	628.557
341.460	18.603	831.891	628.303
342.475	18.897	830.986	628.639
343.489	18.763	830.617	627.814
344.504	18.991	830.013	628.136
345.519	18.978	829.361	627.537
346.533	19.072	828.975	627.534
347.548	19.045	828.573	627.076
348.562	18.771	828.271	625.793
349.577	18.692	827.692	625.011
350.592	18.613	827.106	624.227
351.606	18.561	826.510	623.531
352.621	18.443	826.013	622.675
353.635	18.565	825.505	622.680
354.650	18.841	824.634	622.966
355.665	18.687	824.723	622.421
356.679	18.783	824.100	622.243
357.694	18.788	823.681	621.890
358.708	18.661	823.565	621.288
359.723	18.797	822.495	620.919
360.738	18.679	822.106	620.142
361.752	18.936	821.205	620.334
362.767	18.963	820.972	620.201
363.781	18.972	820.721	619.990
364.796	19.031	820.457	619.948
365.810	19.083	819.955	619.702
366.825	19.231	819.562	619.881
367.840	19.271	819.121	619.639
368.854	19.257	818.990	619.434
369.869	19.198	818.103	618.497
370.883	19.131	817.457	617.713
371.898	19.163	817.051	617.464
372.913	19.384	815.942	617.364
373.927	19.335	815.960	617.147
374.942	19.200	815.557	616.304
375.956	19.170	814.793	615.567
376.971	19.265	814.406	615.559
377.986	19.267	813.472	614.804
379.000	19.283	812.973	614.431
380.015	19.454	812.515	614.641
381.029	19.489	812.037	614.348
382.044	19.290	811.831	613.429
383.059	19.465	810.682	613.130
384.073	19.399	810.432	612.652
385.088	19.403	810.167	612.410
386.102	19.310	809.601	611.598
387.117	19.208	808.693	610.498
388.132	19.222	808.377	610.256
389.146	19.173	807.893	609.663
390.161	19.230	807.641	609.621
391.175	19.268	807.276	609.424
392.190	19.379	806.756	609.371
393.205	19.372	806.185	608.861
394.219	19.179	806.085	608.050
395.234	19.408	805.228	608.156
396.248	19.293	804.465	607.123
397.263	19.133	803.884	606.065
398.278	19.408	803.121	606.405
399.292	19.276	802.747	605.604
400.307	19.260	802.541	605.338
401.321	19.219	802.452	605.073
402.336	19.244	802.101	604.844
403.350	19.264	801.548	604.443
404.365	19.375	801.349	604.629
405.380	19.479	800.707	604.456
406.394	19.574	800.024	604.217
407.409	19.613	799.943	604.240
408.423	19.633	799.547	603.956
409.438	19.635	799.030	603.519
410.453	19.708	798.643	603.430
411.467	19.785	798.356	603.428
412.482	19.789	797.862	603.015
413.496	20.048	797.108	603.293
414.511	19.986	796.990	602.937
415.526	19.864	796.772	602.294
416.540	19.871	796.372	601.962
417.555	19.884	795.794	601.515
418.569	19.933	795.222	601.200
419.584	19.940	794.731	600.803
420.599	19.909	794.301	600.315
421.613	160.406	1371.542	1794.177
422.628	139.021	1455.640	1794.246
