DTS Sentinel unit serial number:	SN413079Multiplexer serial number:	ORYXHardware model number:	OX4-SRSoftware version number:	ORYX F/W v4.00 Oryx Data Collector v3.7.2.0data status	okinstallation	princeton_trtdifferential loss correction	single-endedforward channel	channel 3reverse channel	N/Adate	2019/09/14time	08:36:35forward acquisition time	60.00reverse acquisition time	0.00gamma	496.2192k internal	0.2327k external	0.2327temperature offset calibration	1.0053default loss term (dB/km)	0.3790temperature slope calibration	1.0000multiplexer offset coefficient	1.0000multiplexer slope coefficient	1.0000fibre end	0.00T internal ref (°C)	28.70T ext. ref 1 (°C)	3.65T ext. ref 2 (°C)	26.17length (m)	temperature (°C)	Stokes	anti-Stokes-747.200	-87.528	-0.258	0.079
-746.185	-85.383	0.110	0.035
-745.171	-200.000	0.000	-0.232
-744.156	-58.168	0.201	0.088
-743.142	-34.112	-0.109	0.060
-742.127	-167.490	0.298	0.012
-741.112	530.947	-0.083	-0.197
-740.098	63.071	-0.246	0.249
-739.083	-120.899	-0.176	-0.030
-738.069	-112.526	-0.513	-0.103
-737.054	-22.659	-0.196	-0.119
-736.039	-165.529	-0.111	-0.005
-735.025	85.828	0.049	0.054
-734.010	-72.445	-0.391	-0.146
-732.996	-148.501	-0.256	0.021
-731.981	-200.000	0.062	0.357
-730.966	-200.000	-0.053	0.384
-729.952	307.984	0.087	0.164
-728.937	21.239	-0.320	0.262
-727.923	7.148	0.268	0.202
-726.908	240.657	-0.082	0.138
-725.894	367.403	0.047	-0.096
-724.879	109.439	-0.145	-0.174
-723.864	34.230	-0.154	-0.135
-722.850	-77.999	-0.048	-0.017
-721.835	-200.000	0.017	0.126
-720.821	123.422	-0.029	-0.037
-719.806	-142.911	-0.234	0.023
-718.791	249.537	-0.092	-0.158
-717.777	648.677	0.166	-0.427
-716.762	-103.703	-0.235	-0.055
-715.748	-58.756	0.089	-0.039
-714.733	-31.307	-0.301	0.170
-713.718	133.384	-0.092	-0.119
-712.704	36.841	0.505	-0.450
-711.689	-46.944	-0.122	0.060
-710.675	3.405	-0.226	0.166
-709.660	-7.547	0.182	-0.124
-708.645	800.000	-0.046	0.196
-707.631	253.102	-0.039	-0.068
-706.616	252.915	-0.191	0.327
-705.602	-200.000	0.015	-0.331
-704.587	800.000	-0.147	-0.450
-703.572	-200.000	-0.034	-0.241
-702.558	71.358	0.076	0.080
-701.543	55.739	-0.200	0.195
-700.529	133.060	-0.182	-0.237
-699.514	460.781	0.016	-0.037
-698.499	-138.463	0.224	0.025
-697.485	-104.796	0.181	0.042
-696.470	128.198	-0.143	-0.183
-695.456	60.758	-0.256	-0.255
-694.441	800.000	0.076	-0.213
-693.426	182.933	0.082	0.122
-692.412	-0.583	-0.216	-0.154
-691.397	250.303	-0.063	-0.108
-690.383	-200.000	-0.032	-0.180
-689.368	25.564	0.080	-0.067
-688.354	-29.447	-0.235	-0.135
-687.339	696.101	0.061	-0.162
-686.324	-200.000	0.064	-0.286
-685.310	-34.798	0.077	-0.042
-684.295	-20.070	0.025	0.016
-683.281	-143.408	0.167	0.016
-682.266	-200.000	-0.026	-0.211
-681.251	23.578	0.212	-0.175
-680.237	-161.632	-0.172	-0.009
-679.222	-100.598	-0.455	0.113
-678.208	-142.481	-0.445	-0.044
-677.193	-58.824	-0.223	-0.097
-676.178	101.517	0.054	0.064
-675.164	-192.592	-0.143	-0.001
-674.149	800.000	-0.120	0.337
-673.135	-200.000	0.042	0.302
-672.120	-83.123	-0.508	-0.164
-671.105	-125.058	-0.092	-0.014
-670.091	99.635	-0.055	0.064
-669.076	-31.294	-0.259	-0.147
-668.062	-173.870	-0.157	0.005
-667.047	-200.000	-0.062	-0.287
-666.032	-200.000	0.091	-0.420
-665.018	-119.733	-0.308	0.053
-664.003	800.000	-0.073	0.274
-662.989	-200.000	-0.018	0.104
-661.974	36.741	0.209	0.185
-660.959	111.760	-0.193	0.235
-659.945	800.000	-0.055	0.195
-658.930	217.643	0.021	-0.034
-657.916	-200.000	-0.026	-0.126
-656.901	315.630	-0.099	-0.187
-655.886	-200.000	0.012	-0.217
-654.872	800.000	0.062	0.258
-653.857	-200.000	0.036	-0.180
-652.843	35.420	-0.116	-0.102
-651.828	370.095	-0.087	0.177
-650.814	800.000	0.081	-0.233
-649.799	-138.093	0.066	-0.007
-648.784	-32.911	-0.304	0.170
-647.770	-97.161	0.174	0.046
-646.755	-14.631	0.138	-0.089
-645.741	-81.591	-0.140	-0.046
-644.726	2.328	0.141	-0.102
-643.711	185.890	-0.037	0.055
-642.697	-118.623	-0.396	0.070
-641.682	2.765	0.038	-0.027
-640.668	-200.000	-0.045	0.254
-639.653	-21.073	0.347	-0.213
-638.638	210.617	0.009	-0.014
-637.624	-120.227	-0.592	0.101
-636.609	800.000	-0.064	0.224
-635.595	25.666	-0.273	-0.228
-634.580	-164.929	-0.185	0.008
-633.565	378.961	-0.166	0.342
-632.551	-200.000	-0.027	0.193
-631.536	-66.572	0.477	-0.190
-630.522	197.477	-0.189	-0.290
-629.507	1.957	0.345	-0.250
-628.492	-22.551	0.170	-0.103
-627.478	-147.312	0.065	-0.006
-626.463	145.342	0.088	-0.118
-625.449	-139.504	0.173	0.019
-624.434	497.986	-0.101	0.233
-623.419	-94.976	0.231	-0.063
-622.405	33.355	-0.343	-0.298
-621.390	28.548	-0.137	0.116
-620.376	800.000	0.072	-0.273
-619.361	351.864	-0.038	-0.076
-618.346	373.771	0.025	0.051
-617.332	8.929	0.181	-0.137
-616.317	23.188	0.209	0.172
-615.303	251.369	0.059	0.101
-614.288	-200.000	-0.041	-0.404
-613.273	64.011	-0.297	-0.300
-612.259	210.883	0.079	0.125
-611.244	-79.230	0.194	-0.066
-610.230	230.492	0.236	0.387
-609.215	179.280	-0.056	0.082
-608.201	68.860	-0.188	0.194
-607.186	5.420	0.172	0.127
-606.171	-118.171	0.344	0.061
-605.157	-200.000	0.014	0.105
-604.142	93.939	-0.041	-0.046
-603.128	800.000	-0.033	-0.100
-602.113	-200.000	-0.038	-0.305
-601.098	800.000	-0.064	-0.231
-600.084	-12.163	-0.260	-0.171
-599.069	-64.046	-0.243	0.099
-598.055	800.000	-0.031	0.116
-597.040	-200.000	-0.013	0.459
-596.025	-81.429	0.200	0.066
-595.011	332.347	0.024	-0.046
-593.996	106.594	-0.113	0.134
-592.982	-86.901	0.048	-0.015
-591.967	800.000	-0.052	-0.169
-590.952	-200.000	-0.022	-0.128
-589.938	-159.657	-0.385	0.021
-588.923	-122.725	0.175	0.028
-587.909	800.000	0.044	-0.158
-586.894	-200.000	-0.015	-0.169
-585.879	282.386	0.045	0.080
-584.865	-200.000	0.043	0.289
-583.850	-82.276	0.296	0.097
-582.836	-60.519	-0.080	0.034
-581.821	-200.000	0.016	-0.125
-580.806	2.449	-0.055	-0.040
-579.792	719.609	0.114	0.302
-578.777	84.279	0.089	0.097
-577.763	235.171	0.059	-0.097
-576.748	-113.805	-0.300	0.058
-575.733	-89.260	0.296	-0.087
-574.719	800.000	0.141	-0.416
-573.704	107.632	-0.216	-0.257
-572.690	473.788	-0.130	0.294
-571.675	-144.050	0.213	0.020
-570.661	-124.927	0.194	0.030
-569.646	91.188	0.077	-0.087
-568.631	-23.807	0.091	-0.055
-567.617	-200.000	0.047	-0.269
-566.602	716.268	-0.072	-0.190
-565.588	-164.514	0.456	-0.021
-564.573	311.024	-0.111	-0.209
-563.558	153.912	-0.146	0.200
-562.544	800.000	-0.072	-0.247
-561.529	800.000	-0.103	-0.291
-560.515	356.244	0.075	-0.150
-559.500	3.170	0.110	-0.080
-558.485	54.126	-0.179	0.172
-557.471	24.317	0.191	0.158
-556.456	-54.829	0.389	0.176
-555.442	-14.394	-0.169	0.109
-554.427	-77.500	0.045	0.016
-553.412	149.714	0.044	0.059
-552.398	800.000	-0.131	-0.365
-551.383	-76.554	-0.275	0.097
-550.369	-58.947	-0.255	0.110
-549.354	-80.225	-0.301	0.101
-548.339	-110.807	-0.274	0.057
-547.325	114.672	0.108	0.132
-546.310	594.932	-0.159	0.393
-545.296	-113.215	-0.145	0.029
-544.281	67.170	0.180	0.183
-543.266	800.000	-0.156	0.526
-542.252	-61.739	-0.123	-0.052
-541.237	800.000	-0.088	-0.340
-540.223	-200.000	0.049	0.301
-539.208	35.541	-0.139	0.122
-538.193	151.193	0.125	-0.170
-537.179	343.481	0.052	-0.101
-536.164	-144.710	0.159	0.015
-535.150	-200.000	0.021	-0.323
-534.135	303.137	-0.109	-0.203
-533.121	-109.333	0.166	-0.035
-532.106	800.000	0.172	0.505
-531.091	-143.481	-0.103	0.010
-530.077	800.000	0.056	0.245
-529.062	-200.000	0.020	-0.097
-528.048	126.239	-0.148	-0.187
-527.033	800.000	-0.069	0.223
-526.018	-39.557	0.096	0.050
-525.004	-165.192	0.450	0.020
-523.989	43.559	0.162	0.148
-522.975	-156.069	-0.298	0.019
-521.960	-71.671	0.125	0.047
-520.945	-60.028	0.151	0.065
-519.931	800.000	0.028	0.109
-518.916	800.000	0.045	0.195
-517.902	79.456	0.138	0.148
-516.887	166.582	0.070	0.099
-515.872	800.000	-0.065	-0.199
-514.858	-200.000	-0.055	0.457
-513.843	-151.782	0.426	-0.031
-512.829	-68.497	0.175	-0.068
-511.814	-200.000	-0.050	-0.325
-510.799	-159.156	0.253	0.014
-509.785	-15.022	-0.121	-0.078
-508.770	-6.591	-0.267	-0.182
-507.756	3.669	-0.045	-0.033
-506.741	800.000	-0.044	0.159
-505.726	-39.311	-0.286	0.150
-504.712	359.340	-0.040	-0.080
-503.697	-37.099	0.293	-0.157
-502.683	-5.590	-0.145	-0.099
-501.668	-62.734	-0.155	-0.064
-500.653	209.380	-0.051	-0.080
-499.639	387.804	-0.027	-0.055
-498.624	800.000	0.024	-0.074
-497.610	-110.476	-0.229	-0.047
-496.595	-50.462	0.276	0.130
-495.581	-28.818	-0.173	-0.099
-494.566	-115.871	-0.132	0.025
-493.551	-91.607	0.170	0.048
-492.537	-6.963	0.357	-0.242
-491.522	349.106	-0.150	-0.296
-490.508	-200.000	-0.007	0.180
-489.493	-90.819	0.151	0.043
-488.478	-200.000	0.009	-0.281
-487.464	36.500	-0.231	-0.203
-486.449	-200.000	-0.002	0.014
-485.435	800.000	-0.067	-0.243
-484.420	-87.250	0.346	0.105
-483.405	-200.000	0.022	-0.100
-482.391	-189.195	-0.387	-0.005
-481.376	-26.829	-0.201	-0.117
-480.362	800.000	-0.092	0.371
-479.347	-107.650	0.126	-0.028
-478.332	-200.000	-0.011	-0.118
-477.318	389.950	-0.106	-0.219
-476.303	149.028	0.101	-0.137
-475.289	800.000	-0.026	0.107
-474.274	341.375	0.114	-0.222
-473.259	-100.043	0.300	0.075
-472.245	37.411	0.095	0.084
-471.230	800.000	0.079	-0.333
-470.216	74.550	0.117	0.123
-469.201	-3.749	0.295	-0.204
-468.186	612.684	-0.067	-0.168
-467.172	-200.000	0.016	-0.110
-466.157	-35.253	-0.186	0.101
-465.143	42.649	0.058	0.053
-464.128	266.074	-0.091	-0.158
-463.113	-200.000	0.007	-0.182
-462.099	-9.003	0.060	0.040
-461.084	800.000	0.075	-0.233
-460.070	86.221	0.102	-0.112
-459.055	61.226	0.425	-0.421
-458.040	38.913	0.109	-0.097
-457.026	-57.337	0.061	-0.027
-456.011	139.393	0.163	-0.214
-454.997	-200.000	-0.061	-0.409
-453.982	185.111	0.086	0.127
-452.968	366.826	0.059	0.118
-451.953	235.625	-0.196	0.322
-450.938	-44.592	-0.249	0.124
-449.924	23.284	-0.184	-0.151
-448.909	415.410	-0.137	-0.292
-447.895	271.184	0.113	-0.198
-446.880	43.569	-0.140	-0.128
-445.865	537.426	0.062	-0.146
-444.851	-200.000	-0.008	-0.155
-443.836	200.228	-0.032	0.048
-442.822	761.198	-0.058	0.157
-441.807	-88.181	0.193	0.058
-440.792	441.573	-0.193	0.421
-439.778	64.501	-0.097	-0.097
-438.763	129.405	-0.162	-0.206
-437.749	-8.353	0.256	0.172
-436.734	250.165	0.137	0.232
-435.719	-98.810	0.300	-0.076
-434.705	60.549	0.249	-0.245
-433.690	66.596	-0.123	0.125
-432.676	-71.830	0.145	0.054
-431.661	-200.000	0.010	0.151
-430.646	-11.141	-0.220	-0.145
-429.632	29.486	-0.324	-0.274
-428.617	-40.251	-0.411	0.213
-427.603	-200.000	0.028	-0.494
-426.588	-87.533	-0.176	-0.053
-425.573	608.842	0.075	-0.185
-424.559	-200.000	-0.047	-0.307
-423.544	56.277	0.174	0.168
-422.530	418.723	-0.065	-0.139
-421.515	732.000	-0.035	0.093
-420.500	39.746	0.138	-0.124
-419.486	-60.731	-0.198	0.084
-418.471	800.000	0.117	0.489
-417.457	-96.301	0.192	0.051
-416.442	322.242	-0.102	0.194
-415.428	-200.000	0.014	-0.141
-414.413	32.299	-0.135	-0.116
-413.398	800.000	-0.076	-0.285
-412.384	211.710	-0.107	0.168
-411.369	78.193	0.071	0.075
-410.355	90.699	-0.255	0.284
-409.340	692.572	-0.123	0.320
-408.325	317.377	0.211	0.396
-407.311	-67.979	-0.034	0.013
-406.296	782.670	-0.105	0.286
-405.282	55.963	0.219	-0.211
-404.267	34.613	-0.125	0.108
-403.252	-200.000	0.019	0.148
-402.238	-25.000	-0.128	-0.076
-401.223	564.583	0.063	0.152
-400.209	291.866	0.079	-0.144
-399.194	-73.134	0.173	-0.063
-398.179	120.302	0.077	-0.095
-397.165	-200.000	-0.013	0.357
-396.150	3.841	-0.223	0.162
-395.136	654.677	0.056	0.143
-394.121	95.982	0.202	0.229
-393.106	-4.715	-0.121	0.083
-392.092	-108.787	-0.193	0.041
-391.077	124.500	0.049	-0.062
-390.063	-200.000	-0.037	0.229
-389.048	-97.948	0.239	0.061
-388.033	-87.030	-0.091	0.028
-387.019	19.773	0.067	0.054
-386.004	116.343	-0.282	0.344
-384.990	105.234	-0.056	0.066
-383.975	132.105	0.126	-0.161
-382.960	-165.529	-0.133	-0.006
-381.946	-200.000	-0.017	-0.127
-380.931	162.156	0.168	-0.234
-379.917	91.080	-0.303	-0.338
-378.902	-200.000	0.041	0.258
-377.888	-104.817	0.216	-0.049
-376.873	-79.845	-0.308	-0.103
-375.858	-38.865	-0.273	-0.143
-374.844	84.388	-0.046	0.050
-373.829	-200.000	0.053	0.255
-372.815	-200.000	-0.011	0.165
-371.800	-200.000	-0.005	0.093
-370.785	16.768	-0.322	-0.253
-369.771	566.571	0.034	-0.082
-368.756	-168.718	0.217	-0.008
-367.742	408.191	0.010	-0.020
-366.727	354.738	-0.220	0.434
-365.712	-57.645	0.054	-0.024
-364.698	800.000	-0.100	-0.290
-363.683	-104.071	0.188	-0.043
-362.669	347.143	0.044	-0.085
-361.654	-79.565	0.010	-0.003
-360.639	-39.797	0.281	0.146
-359.625	1.624	0.192	-0.138
-358.610	47.853	-0.178	-0.165
-357.596	409.904	-0.032	0.067
-356.581	-94.933	-0.342	-0.092
-355.566	-49.787	0.539	0.254
-354.552	-95.316	-0.097	0.026
-353.537	341.424	-0.073	0.142
-352.523	663.961	0.086	-0.220
-351.508	551.022	0.070	0.166
-350.493	-153.901	-0.348	-0.024
-349.479	800.000	0.037	-0.155
-348.464	800.000	0.024	-0.084
-347.450	-85.132	0.195	-0.060
-346.435	-200.000	-0.010	0.083
-345.420	-32.665	0.287	0.158
-344.406	-62.018	-0.056	0.023
-343.391	-45.924	-0.284	0.139
-342.377	305.870	-0.065	0.120
-341.362	-86.217	-0.185	0.057
-340.348	-200.000	-0.046	0.292
-339.333	-78.906	-0.018	0.006
-338.318	-142.275	0.247	0.024
-337.304	-145.924	-0.318	0.028
-336.289	530.788	0.073	-0.170
-335.275	-154.368	-0.117	-0.008
-334.260	-140.416	0.270	0.028
-333.245	-200.000	0.019	-0.188
-332.231	119.738	0.161	-0.198
-331.216	59.867	-0.265	-0.260
-330.202	-200.000	0.003	0.120
-329.187	-125.331	0.037	-0.006
-328.172	-35.523	-0.086	0.046
-327.158	-200.000	-0.016	0.155
-326.143	603.106	0.107	0.265
-325.129	-200.000	-0.021	-0.217
-324.114	-42.303	-0.217	-0.110
-323.099	-109.705	0.300	-0.063
-322.085	8.081	0.085	0.063
-321.070	134.093	-0.138	-0.177
-320.056	170.232	0.116	-0.165
-319.041	-127.801	0.243	0.035
-318.026	29.300	0.210	-0.177
-317.012	-54.474	0.066	-0.030
-315.997	-109.427	0.094	0.020
-314.983	214.746	0.120	0.188
-313.968	-56.119	0.225	-0.099
-312.953	-200.000	0.033	-0.207
-311.939	169.518	0.091	-0.129
-310.924	13.461	0.091	0.070
-309.910	-58.573	0.026	0.011
-308.895	14.360	0.037	-0.029
-307.880	-105.579	0.082	-0.018
-306.866	13.686	0.173	0.133
-305.851	-155.245	0.370	-0.024
-304.837	146.215	0.094	0.124
-303.822	96.636	0.064	0.073
-302.807	-200.000	0.066	0.318
-301.793	-11.119	-0.052	-0.034
-300.778	-200.000	-0.043	0.258
-299.764	-200.000	0.013	-0.207
-298.749	21.004	-0.188	-0.151
-297.735	-9.375	-0.149	0.099
-296.720	51.459	-0.438	0.412
-295.705	-43.551	-0.186	0.093
-294.691	104.540	0.038	0.045
-293.676	-104.260	0.165	-0.038
-292.662	-101.806	0.317	-0.076
-291.647	106.244	0.138	-0.162
-290.632	31.871	0.361	0.308
-289.618	184.812	0.177	0.259
-288.603	-37.726	0.162	0.085
-287.589	-168.495	-0.055	-0.002
-286.574	-200.000	0.002	0.078
-285.559	-200.000	0.003	0.115
-284.545	-149.611	0.316	-0.025
-283.530	328.880	0.120	-0.229
-282.516	52.413	0.311	-0.294
-281.501	368.440	-0.021	0.041
-280.486	-103.497	0.155	0.036
-279.472	-17.494	0.050	-0.031
-278.457	-37.311	-0.161	-0.085
-277.443	800.000	0.096	-0.264
-276.428	-116.544	-0.299	0.055
-275.413	-82.408	-0.309	0.099
-274.399	800.000	-0.037	0.111
-273.384	204.358	0.114	-0.175
-272.370	-10.355	0.127	0.083
-271.355	-178.524	-0.123	0.003
-270.340	202.135	-0.114	0.174
-269.326	800.000	0.132	-0.460
-268.311	20.797	0.162	0.130
-267.297	-151.266	-0.299	-0.022
-266.282	-132.033	0.253	0.033
-265.267	-114.011	-0.215	-0.041
-264.253	416.041	-0.164	-0.347
-263.238	-23.418	-0.041	0.025
-262.224	-0.182	-0.067	-0.047
-261.209	-76.416	-0.235	-0.082
-260.195	-200.000	-0.027	0.155
-259.180	-157.175	-0.227	0.014
-258.165	-17.036	-0.172	-0.107
-257.151	-130.653	0.134	-0.018
-256.136	4.231	0.315	-0.228
-255.122	-200.000	-0.059	0.286
-254.107	-200.000	-0.002	-0.060
-253.092	215.292	0.122	-0.192
-252.078	-200.000	-0.006	0.124
-251.063	800.000	0.028	-0.114
-250.049	-180.423	-0.133	0.003
-249.034	800.000	0.060	-0.212
-248.019	-200.000	-0.005	-0.164
-247.005	416.134	0.089	0.187
-245.990	-200.000	0.002	-0.047
-244.976	-42.988	-0.227	0.114
-243.961	-200.000	-0.009	0.049
-242.946	-200.000	-0.005	0.380
-241.932	-115.936	0.209	0.038
-240.917	-137.829	-0.399	-0.044
-239.903	-75.210	-0.180	0.064
-238.888	595.283	-0.119	-0.290
-237.873	-200.000	0.053	-0.285
-236.859	-62.688	0.165	0.067
-235.844	139.302	-0.101	0.131
-234.830	21.748	0.256	0.206
-233.815	800.000	0.085	0.313
-232.800	-122.065	-0.070	-0.011
-231.786	-104.872	-0.251	-0.057
-230.771	16.157	-0.083	-0.065
-229.757	88.164	-0.174	-0.191
-228.742	-98.785	0.069	0.017
-227.727	-12.218	0.058	0.037
-226.713	24.427	0.151	-0.123
-225.698	68.445	-0.200	0.202
-224.684	-200.000	-0.015	-0.146
-223.669	27.223	-0.215	-0.178
-222.655	116.257	-0.137	0.166
-221.640	78.165	0.118	0.124
-220.625	-200.000	-0.028	0.169
-219.611	181.116	-0.271	0.393
-218.596	-200.000	0.008	0.632
-217.582	320.243	0.098	0.184
-216.567	-200.000	-0.003	-0.201
-215.552	-57.117	-0.283	-0.123
-214.538	-140.160	-0.336	0.035
-213.523	-132.162	0.075	-0.010
-212.509	175.158	0.208	0.298
-211.494	-66.111	-0.211	-0.083
-210.479	-85.666	-0.052	0.016
-209.465	155.080	0.137	0.186
-208.450	16.976	-0.127	0.100
-207.436	-171.996	0.349	0.011
-206.421	-200.000	-0.001	-0.147
-205.406	-69.801	-0.096	-0.036
-204.392	70.522	-0.220	-0.224
-203.377	-53.743	-0.242	-0.109
-202.363	69.180	-0.236	-0.240
-201.348	67.684	0.123	0.124
-200.333	-200.000	0.029	0.155
-199.319	-186.580	-0.311	0.004
-198.304	-200.000	-0.000	-0.083
-197.290	-139.207	-0.146	-0.016
-196.275	-200.000	0.033	-0.305
-195.260	164.282	-0.105	-0.146
-194.246	-128.319	0.120	0.017
-193.231	-200.000	-0.024	-0.202
-192.217	800.000	0.108	0.386
-191.202	-36.641	0.238	0.126
-190.187	-44.906	0.197	-0.097
-189.173	-97.250	0.136	-0.035
-188.158	33.092	-0.134	-0.115
-187.144	278.933	0.057	0.100
-186.129	239.453	0.136	0.223
-185.114	174.444	0.196	-0.279
-184.100	-103.853	0.292	-0.067
-183.085	-87.803	0.337	0.100
-182.071	176.024	-0.100	-0.143
-181.056	365.116	-0.047	0.094
-180.042	800.000	-0.032	0.121
-179.027	146.125	0.098	0.130
-178.012	266.975	0.148	0.256
-176.998	497.704	-0.060	0.135
-175.983	50.021	-0.284	-0.264
-174.969	800.000	0.116	-0.367
-173.954	-78.948	-0.145	-0.049
-172.939	53.707	-0.149	-0.141
-171.925	-200.000	0.031	0.325
-170.910	-200.000	-0.080	-0.365
-169.896	644.179	0.110	0.278
-168.881	-200.000	0.009	0.359
-167.866	-92.401	-0.360	0.100
-166.852	106.604	-0.090	-0.105
-165.837	-200.000	-0.007	-0.241
-164.823	800.000	0.029	0.115
-163.808	800.000	-0.064	0.229
-162.793	-42.742	0.156	0.078
-161.779	-32.450	-0.426	-0.234
-160.764	77.745	-0.164	0.172
-159.750	-181.126	0.295	0.006
-158.735	-51.922	-0.155	-0.071
-157.720	162.688	0.188	0.260
-156.706	-112.137	0.158	0.031
-155.691	-135.962	-0.468	-0.054
-154.677	19.716	-0.097	0.077
-153.662	-51.814	0.169	-0.078
-152.647	147.150	-0.152	0.202
-151.633	-200.000	0.039	-0.200
-150.618	-145.231	0.538	-0.048
-149.604	259.297	-0.109	-0.185
-148.589	-200.000	0.009	-0.119
-147.574	-200.000	-0.035	0.289
-146.560	96.327	0.145	-0.163
-145.545	-64.043	0.243	0.098
-144.531	-200.000	-0.044	0.224
-143.516	800.000	-0.095	0.382
-142.502	40.939	0.055	0.049
-141.487	28.080	-0.101	0.084
-140.472	-148.648	0.225	-0.018
-139.458	-2.994	-0.068	0.047
-138.443	-158.076	-0.163	-0.009
-137.429	-70.953	0.384	-0.143
-136.414	136.357	-0.191	0.245
-135.399	-106.007	0.318	0.070
-134.385	570.401	0.175	-0.419
-133.370	-18.291	0.129	-0.080
-132.356	112.629	0.067	0.079
-131.341	-46.498	0.540	0.261
-130.326	-200.000	-0.007	0.101
-129.312	-200.000	-0.007	0.326
-128.297	-109.464	0.173	-0.036
-127.283	347.124	-0.174	0.338
-126.268	-141.554	0.091	-0.009
-125.253	1.119	-0.104	-0.074
-124.239	-43.770	0.211	0.104
-123.224	-102.523	-0.296	-0.070
-122.210	378.027	-0.106	0.213
-121.195	-128.803	-0.186	0.026
-120.180	-200.000	-0.032	0.315
-119.166	-200.000	0.033	-0.285
-118.151	-200.000	-0.032	-0.349
-117.137	-88.738	-0.236	0.069
-116.122	-168.838	0.223	-0.008
-115.107	-19.511	0.186	0.113
-114.093	255.997	0.091	-0.153
-113.078	-105.690	0.157	0.035
-112.064	-139.170	-0.142	-0.015
-111.049	-33.359	-0.189	-0.103
-110.034	135.898	0.077	0.099
-109.020	-46.565	-0.126	0.061
-108.005	800.000	0.030	0.120
-106.991	800.000	0.060	-0.221
-105.976	-200.000	-0.022	0.136
-104.962	-200.000	-0.001	0.005
-103.947	-79.762	0.141	-0.047
-102.932	-157.415	0.088	-0.005
-101.918	-200.000	0.024	-0.283
-100.903	-99.398	-0.169	-0.042
-99.889	21.680	-0.281	0.225
-98.874	-157.752	0.170	0.010
-97.859	-144.832	-0.088	0.008
-96.845	-124.318	-0.338	0.052
-95.830	-200.000	-0.034	0.155
-94.816	-156.126	0.187	0.012
-93.801	-195.161	0.287	0.002
-92.786	-61.283	-0.104	0.043
-91.772	800.000	-0.103	0.285
-90.757	238.128	0.136	0.222
-89.743	800.000	-0.031	0.105
-88.728	800.000	-0.158	0.563
-87.713	800.000	-0.077	0.284
-86.699	800.000	0.101	0.288
-85.684	291.302	0.208	-0.371
-84.670	113.439	0.071	0.085
-83.655	163.902	-0.223	0.308
-82.640	-139.509	-0.189	0.020
-81.626	98.556	-0.139	0.157
-80.611	238.587	-0.067	0.109
-79.597	-133.822	0.294	0.036
-78.582	470.466	-0.083	-0.183
-77.567	-25.842	-0.049	0.029
-76.553	-101.177	0.139	-0.034
-75.538	800.000	0.069	0.281
-74.524	147.282	-0.164	0.217
-73.509	179.231	-0.207	0.297
-72.494	-147.677	0.169	-0.014
-71.480	74.069	0.166	-0.172
-70.465	-200.000	0.006	-0.244
-69.451	-7.845	-0.240	-0.159
-68.436	-25.029	0.115	-0.067
-67.422	-123.189	0.226	0.035
-66.407	171.332	-0.094	-0.133
-65.392	-127.157	0.360	0.052
-64.378	-200.000	0.042	0.295
-63.363	-200.000	-0.027	0.350
-62.349	-16.814	-0.095	0.059
-61.334	126.255	-0.840	-1.043
-60.319	51.112	0.661	0.616
-59.305	-200.000	-0.169	-1.567
-58.290	154.502	0.731	0.985
-57.276	314.325	0.863	1.595
-56.261	-200.000	107.267	596.716
-55.246	497.779	1502.848	3394.406
-54.232	175.202	2701.714	3840.161
-53.217	108.841	2197.052	2576.510
-52.203	39.048	1719.560	1508.237
-51.188	31.701	1532.536	1293.629
-50.173	29.530	1505.188	1255.748
-49.159	50.138	1562.186	1446.817
-48.144	50.011	1578.611	1461.084
-47.130	32.065	1533.997	1297.174
-46.115	28.980	1519.739	1263.905
-45.100	28.855	1516.217	1260.076
-44.086	28.760	1513.952	1257.487
-43.071	28.840	1511.441	1255.901
-42.057	28.640	1510.138	1253.405
-41.042	28.744	1508.648	1252.824
-40.027	28.680	1507.071	1251.027
-39.013	28.687	1506.165	1250.275
-37.998	28.635	1504.318	1248.339
-36.984	28.664	1502.796	1247.228
-35.969	28.719	1501.573	1246.531
-34.954	28.590	1500.707	1244.891
-33.940	28.699	1499.307	1244.415
-32.925	28.702	1497.751	1243.099
-31.911	28.633	1496.591	1241.620
-30.896	28.769	1494.869	1241.060
-29.881	28.754	1494.053	1240.228
-28.867	28.769	1492.807	1239.249
-27.852	28.787	1491.629	1238.343
-26.838	28.718	1490.204	1236.644
-25.823	28.776	1488.307	1235.416
-24.809	28.865	1486.139	1234.163
-23.794	28.643	1485.270	1231.901
-22.779	28.764	1484.197	1231.776
-21.765	28.772	1482.912	1230.715
-20.750	28.815	1481.824	1230.047
-19.736	28.786	1480.796	1228.949
-18.721	28.701	1479.707	1227.429
-17.706	28.763	1478.790	1227.039
-16.692	28.624	1477.844	1225.272
-15.677	28.729	1476.595	1224.895
-14.663	28.722	1475.301	1223.721
-13.648	28.567	1475.262	1222.606
-12.633	28.705	1473.499	1222.021
-11.619	28.729	1472.923	1221.648
-10.604	28.697	1471.900	1220.538
-9.590	28.657	1470.711	1219.241
-8.575	28.765	1469.864	1219.205
-7.560	28.666	1469.472	1218.177
-6.546	28.654	1468.447	1217.201
-5.531	28.611	1467.353	1215.961
-4.517	28.651	1466.402	1215.390
-3.502	28.729	1465.709	1215.278
-2.487	28.770	1464.259	1214.300
-1.473	28.687	1463.243	1212.861
-0.458	28.711	1461.930	1211.883
0.556	29.206	1452.753	1202.982
1.571	26.975	1427.978	1168.020
2.586	24.246	1366.796	1101.051
3.600	22.894	1283.231	1025.791
4.615	21.422	1237.753	981.096
5.629	18.162	1179.363	917.275
6.644	10.151	1096.051	812.317
7.659	4.406	1057.353	755.670
8.673	3.683	1051.590	747.985
9.688	3.678	1048.524	745.715
10.702	3.653	1046.979	744.428
11.717	3.605	1044.974	742.707
12.731	5.881	1046.967	755.020
13.746	13.441	1057.014	798.806
14.761	18.961	1064.490	831.135
15.775	19.722	1064.156	834.479
16.790	18.997	1062.837	829.872
17.804	17.932	1060.843	823.110
18.819	17.121	1059.093	817.774
19.834	16.750	1057.149	814.418
20.848	16.482	1056.675	812.694
21.863	16.295	1056.078	811.263
22.877	16.185	1054.796	809.679
23.892	16.026	1053.741	808.035
24.907	15.817	1053.815	807.021
25.921	15.806	1052.844	806.152
26.936	15.861	1051.438	805.269
27.950	15.838	1051.088	804.818
28.965	15.955	1049.769	804.295
29.980	16.131	1048.572	804.144
30.994	16.020	1048.042	803.137
32.009	16.245	1046.754	803.153
33.023	16.263	1046.535	802.996
34.038	16.179	1045.643	801.845
35.053	16.059	1044.764	800.530
36.067	15.988	1043.739	799.336
37.082	15.950	1042.788	798.354
38.096	16.070	1041.722	798.039
39.111	16.064	1041.322	797.631
40.126	16.117	1040.515	797.196
41.140	16.074	1039.031	795.782
42.155	15.864	1037.888	793.845
43.169	15.716	1036.970	792.380
44.184	15.752	1035.689	791.497
45.199	15.612	1034.983	790.231
46.213	15.694	1033.952	789.759
47.228	15.802	1032.881	789.378
48.242	15.936	1032.317	789.505
49.257	15.923	1031.428	788.696
50.271	16.040	1030.412	788.395
51.286	16.015	1029.414	787.447
52.301	16.106	1028.792	787.323
53.315	15.945	1028.321	786.144
54.330	15.919	1026.943	784.899
55.344	15.844	1026.408	784.072
56.359	15.774	1025.212	782.763
57.374	15.823	1024.658	782.497
58.388	15.736	1023.538	781.171
59.403	15.906	1022.140	780.822
60.417	15.747	1021.791	779.750
61.432	15.684	1021.254	778.977
62.447	15.696	1020.633	778.490
63.461	15.723	1019.558	777.726
64.476	15.709	1018.224	776.575
65.490	15.522	1017.553	775.132
66.505	15.639	1016.541	774.831
67.520	15.585	1016.118	774.192
68.534	15.594	1015.459	773.664
69.549	15.722	1014.429	773.399
70.563	15.526	1014.357	772.372
71.578	15.557	1013.108	771.498
72.593	15.460	1011.978	770.123
73.607	15.502	1010.974	769.486
74.622	15.376	1010.373	768.380
75.636	15.445	1009.563	768.014
76.651	15.552	1008.335	767.500
77.666	15.542	1007.427	766.695
78.680	15.590	1006.311	765.996
79.695	15.638	1006.221	766.081
80.709	15.623	1006.001	765.776
81.724	15.679	1005.149	765.314
82.739	15.648	1004.413	764.547
83.753	15.674	1003.653	764.018
84.768	16.035	1002.113	764.414
85.782	16.057	1002.007	764.368
86.797	16.183	1001.785	764.702
87.812	16.013	1000.840	763.142
88.826	15.899	999.816	761.776
89.841	15.936	998.861	761.148
90.855	16.067	998.016	761.029
91.870	16.105	997.372	760.644
92.884	16.276	996.378	760.587
93.899	16.082	996.326	759.608
94.914	16.178	995.423	759.282
95.928	16.173	994.656	758.611
96.943	16.203	993.850	758.064
97.957	16.133	992.802	756.882
98.972	16.070	992.238	756.104
99.987	16.097	991.469	755.569
101.001	16.124	990.930	755.213
102.016	16.172	990.203	754.807
103.030	16.070	988.857	753.258
104.045	16.060	988.003	752.499
105.060	16.109	987.104	751.963
106.074	16.097	985.890	750.920
107.089	15.897	984.933	749.233
108.103	15.832	983.833	748.044
109.118	15.734	982.794	746.749
110.133	15.651	982.264	745.915
111.147	15.600	981.188	744.802
112.162	15.617	980.592	744.360
113.176	15.610	979.547	743.473
114.191	15.702	979.028	743.420
115.206	15.914	978.156	743.629
116.220	15.827	977.136	742.401
117.235	15.557	976.771	740.867
118.249	15.734	975.798	740.844
119.264	15.749	974.869	740.138
120.279	15.695	973.669	738.928
121.293	15.697	972.879	738.269
122.308	15.618	972.618	737.659
123.322	15.676	971.160	736.741
124.337	15.506	970.538	735.460
125.352	15.440	969.582	734.385
126.366	15.585	968.003	733.757
127.381	15.498	967.355	732.818
128.395	15.417	966.646	731.863
129.410	15.652	965.333	731.829
130.424	15.639	964.404	731.002
131.439	15.736	963.388	730.588
132.454	15.588	963.533	729.992
133.468	15.892	961.782	729.920
134.483	15.759	961.806	729.295
135.497	15.680	961.399	728.581
136.512	15.797	960.261	728.162
137.527	15.888	959.337	727.789
138.541	15.786	959.107	727.111
139.556	16.046	957.733	727.125
140.570	15.770	957.699	725.845
141.585	15.890	956.248	725.198
142.600	15.974	956.234	725.485
143.614	16.158	955.163	725.400
144.629	16.229	954.362	725.031
145.643	16.314	953.980	725.041
146.658	16.104	952.783	723.168
147.673	16.089	952.140	722.549
148.687	15.949	951.072	721.077
149.702	15.840	950.052	719.774
150.716	15.832	949.260	719.075
151.731	15.894	948.304	718.553
152.746	15.753	947.939	717.610
153.760	15.823	947.289	717.352
154.775	16.081	945.759	717.231
155.789	16.098	945.306	716.895
156.804	16.027	944.617	716.007
157.819	16.032	943.893	715.416
158.833	16.026	943.692	715.176
159.848	16.186	943.041	715.299
160.862	16.309	942.119	715.056
161.877	16.321	941.196	714.341
162.892	16.108	940.219	712.638
163.906	15.881	939.348	710.956
164.921	15.874	938.873	710.503
165.935	15.903	937.547	709.562
166.950	16.020	936.309	709.051
167.964	16.011	935.749	708.529
168.979	16.051	934.916	708.001
169.994	16.033	933.691	706.936
171.008	15.994	933.298	706.413
172.023	16.090	932.355	706.038
173.037	16.157	931.712	705.769
174.052	16.323	930.828	705.732
175.067	16.193	930.451	704.840
176.081	16.191	929.021	703.687
177.096	15.942	928.545	702.224
178.110	15.875	927.442	701.049
179.125	16.092	927.271	701.764
180.140	15.979	926.282	700.483
181.154	16.007	925.956	700.289
182.169	16.090	925.250	700.037
183.183	16.213	924.067	699.593
184.198	16.301	923.937	699.795
185.213	16.215	922.979	698.653
186.227	16.304	922.392	698.515
187.242	16.437	921.804	698.557
188.256	16.485	921.069	698.137
189.271	16.455	920.718	697.686
190.286	16.578	919.631	697.306
191.300	16.280	919.075	695.594
192.315	16.080	918.043	693.931
193.329	15.934	917.653	692.972
194.344	15.930	916.970	692.380
195.359	15.966	916.317	691.975
196.373	16.223	915.965	692.702
197.388	16.494	914.989	693.011
198.402	16.508	914.800	692.864
199.417	16.603	914.832	693.218
200.432	16.558	914.597	692.795
201.446	16.547	913.603	691.934
202.461	16.747	913.003	692.238
203.475	16.710	912.706	691.800
204.490	16.845	911.924	691.697
205.504	16.645	910.665	689.865
206.519	16.429	910.311	688.657
207.534	16.494	909.430	688.191
208.548	16.581	908.420	687.723
209.563	16.559	907.563	686.920
210.577	16.512	907.077	686.301
211.592	16.558	906.769	686.197
212.607	16.604	906.517	686.130
213.621	16.677	906.106	686.053
214.636	16.616	905.197	685.061
215.650	16.790	904.110	684.877
216.665	16.718	903.993	684.438
217.680	16.647	903.714	683.879
218.694	16.882	902.715	684.013
219.709	16.822	902.536	683.575
220.723	16.729	901.732	682.530
221.738	16.887	900.817	682.411
222.753	16.808	900.375	681.701
223.767	16.863	899.224	680.988
224.782	16.827	898.720	680.404
225.796	17.042	897.812	680.518
226.811	17.065	897.482	680.301
227.826	16.999	897.231	679.786
228.840	16.908	895.672	678.179
229.855	16.839	894.950	677.297
230.869	16.891	894.507	677.109
231.884	16.838	893.723	676.245
232.899	16.684	893.158	675.143
233.913	16.710	892.150	674.423
234.928	16.644	891.477	673.594
235.942	16.770	891.168	673.800
236.957	16.830	889.933	673.046
237.972	16.694	889.429	672.066
238.986	16.753	889.362	672.190
240.001	16.703	888.592	671.349
241.015	16.853	887.985	671.427
242.030	16.785	887.026	670.372
243.045	16.855	886.577	670.253
244.059	16.768	886.172	669.541
245.074	16.907	885.361	669.418
246.088	16.849	884.833	668.731
247.103	17.064	884.305	669.121
248.117	17.063	883.867	668.727
249.132	17.273	883.190	668.982
250.147	17.232	883.143	668.725
251.161	17.402	882.363	668.745
252.176	17.425	881.780	668.334
253.190	17.537	880.645	667.853
254.205	17.495	880.540	667.551
255.220	17.579	879.717	667.194
256.234	17.534	878.951	666.381
257.249	17.575	878.307	665.993
258.263	17.540	877.957	665.531
259.278	17.582	877.042	664.943
260.293	17.494	876.660	664.250
261.307	17.643	876.220	664.439
262.322	17.706	875.580	664.140
263.336	17.700	874.817	663.481
264.351	17.750	874.366	663.273
265.366	17.774	874.069	663.084
266.380	17.581	873.719	662.009
267.395	17.706	872.513	661.521
268.409	17.692	871.445	660.599
269.424	17.694	870.889	660.129
270.439	17.527	870.424	659.070
271.453	17.601	869.608	658.682
272.468	17.613	868.547	657.865
273.482	17.603	867.820	657.217
274.497	17.581	867.435	656.782
275.512	17.613	866.981	656.505
276.526	17.479	866.453	655.529
277.541	17.681	865.256	655.344
278.555	17.690	864.900	655.050
279.570	17.741	864.331	654.757
280.585	17.892	863.989	655.018
281.599	17.989	862.905	654.513
282.614	17.928	862.561	653.960
283.628	17.650	862.367	652.688
284.643	17.620	861.610	651.943
285.657	17.743	861.123	651.987
286.672	17.723	860.595	651.454
287.687	17.798	859.822	651.100
288.701	17.712	859.712	650.630
289.716	17.833	858.637	650.220
290.730	17.767	858.446	649.764
291.745	17.806	858.136	649.619
292.760	17.912	857.073	649.163
293.774	17.976	856.609	648.996
294.789	17.957	855.872	648.308
295.803	17.949	855.617	648.027
296.818	17.900	854.947	647.276
297.833	17.803	854.419	646.454
298.847	17.694	853.765	645.490
299.862	17.780	853.066	645.227
300.876	17.921	852.166	645.023
301.891	17.935	851.649	644.627
302.906	18.138	850.836	644.722
303.920	18.138	850.181	644.167
304.935	18.230	849.882	644.230
305.949	18.330	849.107	643.960
306.964	18.268	848.302	643.061
307.979	18.273	847.534	642.442
308.993	18.165	847.558	641.995
310.008	18.261	846.896	641.799
311.022	18.286	846.380	641.444
312.037	18.188	846.068	640.784
313.052	18.326	845.056	640.475
314.066	18.179	844.526	639.469
315.081	18.056	844.044	638.590
316.095	17.951	843.412	637.661
317.110	17.944	843.195	637.415
318.125	18.099	842.369	637.311
319.139	17.973	842.157	636.625
320.154	18.150	841.152	636.467
321.168	18.024	841.279	636.039
322.183	18.036	840.441	635.396
323.197	18.186	839.767	635.387
324.212	18.162	839.381	634.946
325.227	18.137	838.813	634.370
326.241	18.384	837.780	634.448
327.256	18.290	837.709	633.990
328.270	18.124	836.901	632.706
329.285	18.175	836.331	632.408
330.300	18.269	835.504	632.075
331.314	18.079	835.303	631.166
332.329	18.211	834.688	631.131
333.343	18.169	834.276	630.611
334.358	18.417	833.602	630.956
335.373	18.478	832.971	630.648
336.387	18.259	832.702	629.585
337.402	18.445	831.887	629.594
338.416	18.516	831.398	629.429
339.431	18.597	830.962	629.341
340.446	18.605	830.733	629.140
341.460	18.785	830.012	629.200
342.475	18.936	829.113	629.016
343.489	18.771	829.028	628.291
344.504	18.661	828.674	627.564
345.519	18.883	828.024	627.827
346.533	18.986	827.480	627.737
347.548	18.831	827.044	626.784
348.562	18.856	826.004	626.032
349.577	18.501	826.026	624.698
350.592	18.653	824.914	624.355
351.606	18.543	824.414	623.522
352.621	18.451	823.959	622.790
353.635	18.483	824.017	622.895
354.650	18.620	823.300	622.793
355.665	18.679	822.669	622.476
356.679	18.704	822.527	622.406
357.694	18.735	822.150	622.175
358.708	18.845	821.147	621.758
359.723	18.789	820.509	621.020
360.738	18.678	820.426	620.501
361.752	18.785	819.296	619.976
362.767	18.854	819.152	620.061
363.781	18.845	818.896	619.782
364.796	19.020	818.798	620.284
365.810	19.175	818.018	620.195
366.825	19.141	817.528	619.648
367.840	19.110	817.717	619.622
368.854	19.179	816.961	619.243
369.869	19.035	816.945	618.660
370.883	19.057	815.890	617.885
371.898	18.962	815.633	617.295
372.913	19.206	814.559	617.302
373.927	19.198	814.261	616.991
374.942	19.183	813.296	616.153
375.956	19.170	812.752	615.641
376.971	19.221	812.803	615.806
377.986	19.241	812.197	615.363
379.000	19.262	811.390	614.775
380.015	19.485	811.010	615.226
381.029	19.333	810.756	614.436
382.044	19.375	809.626	613.675
383.059	19.301	809.041	612.915
384.073	19.338	808.851	612.847
385.088	19.271	808.548	612.327
386.102	19.206	807.584	611.310
387.117	19.313	806.841	611.073
388.132	19.227	806.320	610.321
389.146	19.330	805.868	610.289
390.161	19.303	805.767	610.065
391.175	19.293	805.834	610.024
392.190	19.416	805.151	609.890
393.205	19.332	804.544	609.078
394.219	19.229	804.010	608.257
395.234	19.225	803.615	607.890
396.248	19.150	803.176	607.238
397.263	19.227	802.417	606.883
398.278	19.029	802.147	605.928
399.292	19.179	801.271	605.741
400.307	19.170	800.652	605.186
401.321	19.083	800.762	604.911
402.336	19.192	800.294	604.887
403.350	19.186	800.227	604.760
404.365	19.367	799.419	604.733
405.380	19.529	798.995	604.925
406.394	19.446	798.630	604.303
407.409	19.657	798.029	604.535
408.423	19.632	797.784	604.209
409.438	19.563	797.550	603.736
410.453	19.750	796.839	603.797
411.467	19.877	796.259	603.748
412.482	19.770	795.747	602.935
413.496	19.842	795.787	603.161
414.511	19.784	795.524	602.707
415.526	19.972	795.054	602.951
416.540	19.834	794.761	602.196
417.555	19.808	794.219	601.640
418.569	19.816	793.789	601.292
419.584	19.781	793.294	600.740
420.599	19.877	792.845	600.682
421.613	159.756	1370.060	1793.872
422.628	138.413	1454.172	1793.959
