DTS Sentinel unit serial number:	SN413079Multiplexer serial number:	ORYXHardware model number:	OX4-SRSoftware version number:	ORYX F/W v4.00 Oryx Data Collector v3.7.2.0data status	okinstallation	princeton_trtdifferential loss correction	single-endedforward channel	channel 3reverse channel	N/Adate	2019/09/11time	08:26:10forward acquisition time	60.00reverse acquisition time	0.00gamma	496.2192k internal	0.2315k external	0.2315temperature offset calibration	0.9942default loss term (dB/km)	0.3790temperature slope calibration	1.0000multiplexer offset coefficient	1.0000multiplexer slope coefficient	1.0000fibre end	0.00T internal ref (°C)	32.94T ext. ref 1 (°C)	0.09T ext. ref 2 (°C)	30.58length (m)	temperature (°C)	Stokes	anti-Stokes-747.200	188.626	-0.081	0.122
-746.185	-31.764	0.346	0.196
-745.171	-5.697	-0.247	-0.172
-744.156	800.000	-0.043	0.124
-743.142	-181.578	0.399	-0.008
-742.127	96.030	-0.198	0.229
-741.112	-52.260	-0.045	0.021
-740.098	-4.357	-0.534	0.374
-739.083	68.049	0.124	0.128
-738.069	353.518	0.054	-0.108
-737.054	-200.000	-0.247	0.001
-736.039	-0.730	-0.134	0.096
-735.025	689.400	-0.077	0.203
-734.010	-200.000	-0.011	-0.111
-732.996	-76.705	-0.262	-0.093
-731.981	-77.175	-0.544	-0.192
-730.966	-109.618	-0.215	0.046
-729.952	-200.000	0.062	-0.373
-728.937	-60.844	0.138	0.059
-727.923	-133.653	0.086	0.011
-726.908	554.886	-0.123	0.299
-725.894	59.087	-0.211	0.211
-724.879	-200.000	0.038	-0.243
-723.864	-81.712	-0.203	-0.067
-722.850	800.000	-0.082	0.242
-721.835	-97.213	-0.258	-0.068
-720.821	53.774	-0.212	-0.206
-719.806	-200.000	-0.023	0.394
-718.791	374.762	0.122	-0.251
-717.777	39.903	-0.103	-0.093
-716.762	45.174	0.047	0.044
-715.748	-101.274	0.291	-0.072
-714.733	-117.916	-0.075	0.014
-713.718	-45.839	-0.272	0.136
-712.704	61.321	-0.240	-0.242
-711.689	-160.523	0.314	0.017
-710.675	145.273	-0.110	0.149
-709.660	-24.203	-0.281	-0.170
-708.645	-92.071	0.167	-0.048
-707.631	-68.594	0.072	0.028
-706.616	-200.000	0.037	-0.210
-705.602	11.661	-0.180	0.140
-704.587	-123.462	-0.080	0.013
-703.572	-42.016	-0.233	-0.121
-702.558	800.000	0.070	-0.218
-701.543	117.762	0.140	0.174
-700.529	100.651	-0.072	-0.085
-699.514	-89.879	-0.072	-0.021
-698.499	-177.420	-0.155	0.004
-697.485	285.838	-0.045	-0.083
-696.470	800.000	-0.072	0.313
-695.456	156.202	0.105	-0.147
-694.441	3.933	-0.164	-0.121
-693.426	155.510	0.107	-0.149
-692.412	-134.439	-0.128	-0.016
-691.397	800.000	0.061	-0.217
-690.383	-200.000	0.018	-0.332
-689.368	-35.263	-0.114	-0.063
-688.354	2.453	0.381	-0.279
-687.339	110.629	-0.116	-0.141
-686.324	-118.888	-0.423	0.075
-685.310	286.449	-0.139	-0.253
-684.295	800.000	0.120	0.388
-683.281	-7.609	-0.041	0.028
-682.266	-1.618	-0.222	-0.158
-681.251	487.575	-0.081	0.186
-680.237	-54.761	-0.284	0.130
-679.222	-140.000	0.232	0.025
-678.208	520.695	-0.011	-0.025
-677.193	-200.000	-0.067	-0.572
-676.178	152.062	0.111	-0.153
-675.164	19.965	-0.161	0.131
-674.149	61.037	-0.370	0.371
-673.135	-129.705	-0.286	-0.040
-672.120	321.329	0.036	-0.069
-671.105	-136.967	0.197	-0.023
-670.091	-169.384	-0.288	-0.011
-669.076	71.719	-0.184	-0.193
-668.062	105.795	-0.154	0.184
-667.047	-140.087	-0.136	0.014
-666.032	133.755	-0.243	-0.317
-665.018	36.482	0.147	0.131
-664.003	539.644	0.052	-0.125
-662.989	278.886	-0.017	-0.031
-661.974	168.496	0.124	-0.179
-660.959	-96.993	0.284	-0.075
-659.945	-128.220	0.157	0.023
-658.930	89.066	-0.057	0.064
-657.916	204.538	-0.161	-0.253
-656.901	-200.000	0.072	0.478
-655.886	-200.000	0.089	0.474
-654.872	92.158	-0.114	0.130
-653.857	0.582	0.264	-0.191
-652.843	165.528	-0.159	-0.227
-651.828	-128.833	0.294	-0.042
-650.814	-200.000	-0.091	-0.442
-649.799	800.000	-0.084	0.269
-648.784	373.919	0.144	-0.296
-647.770	149.017	0.132	0.180
-646.755	-200.000	-0.014	-0.103
-645.741	100.949	-0.188	-0.221
-644.726	-40.488	-0.114	0.060
-643.711	800.000	-0.068	-0.294
-642.697	800.000	0.055	-0.214
-641.682	-200.000	-0.049	-0.276
-640.668	-200.000	0.003	-0.179
-639.653	-127.449	-0.060	0.009
-638.638	66.101	-0.208	0.213
-637.624	-200.000	-0.037	0.212
-636.609	60.723	0.258	-0.258
-635.595	-173.191	-0.374	-0.012
-634.580	-18.908	-0.248	-0.156
-633.565	75.041	-0.182	0.194
-632.551	800.000	-0.031	-0.135
-631.536	256.325	-0.302	0.523
-630.522	-16.061	-0.230	0.147
-629.507	-200.000	0.033	-0.175
-628.492	39.013	0.315	-0.284
-627.478	-200.000	0.010	-0.162
-626.463	113.741	0.184	-0.226
-625.449	335.809	0.207	-0.405
-624.434	62.526	-0.111	0.112
-623.419	83.620	-0.062	0.068
-622.405	-163.255	0.174	-0.008
-621.390	-153.084	0.266	-0.019
-620.376	178.370	-0.253	-0.373
-619.361	-23.056	-0.182	-0.111
-618.346	570.605	-0.081	0.198
-617.332	479.057	-0.106	0.242
-616.317	-141.178	0.194	-0.020
-615.303	-92.126	0.246	0.070
-614.288	800.000	0.010	0.042
-613.273	244.148	-0.041	0.069
-612.259	-200.000	0.040	0.329
-611.244	800.000	0.083	0.273
-610.230	-133.266	-0.201	-0.026
-609.215	800.000	0.128	0.436
-608.201	7.874	0.272	0.205
-607.186	31.181	0.213	-0.184
-606.171	-94.572	-0.105	-0.029
-605.157	6.680	-0.097	-0.073
-604.142	800.000	0.053	0.165
-603.128	800.000	0.042	-0.125
-602.113	-89.477	0.085	0.025
-601.098	114.582	-0.103	0.126
-600.084	291.986	0.171	-0.315
-599.069	62.102	0.046	-0.046
-598.055	800.000	-0.071	0.233
-597.040	-200.000	0.012	0.103
-596.025	-153.348	-0.278	-0.020
-595.011	333.285	-0.099	-0.193
-593.996	-119.476	0.300	0.052
-592.982	-200.000	-0.021	-0.191
-591.967	-111.229	-0.026	-0.005
-590.952	7.456	0.239	0.180
-589.938	-86.924	-0.323	0.099
-588.923	-25.018	-0.181	0.108
-587.909	-2.944	-0.090	-0.063
-586.894	620.261	0.101	-0.256
-585.879	124.901	-0.166	0.210
-584.865	800.000	0.046	0.201
-583.850	145.212	-0.140	-0.189
-582.836	-25.634	0.173	-0.103
-581.821	800.000	0.034	0.128
-580.806	-11.173	0.095	0.063
-579.792	-48.549	0.252	0.122
-578.777	800.000	0.025	0.092
-577.763	175.609	0.098	0.143
-576.748	-200.000	0.032	-0.224
-575.733	108.007	0.235	0.282
-574.719	233.243	-0.293	0.485
-573.704	-200.000	0.040	0.400
-572.690	-121.957	-0.184	-0.031
-571.675	-12.784	-0.161	-0.106
-570.661	-37.649	-0.068	-0.037
-569.646	16.258	0.239	-0.190
-568.631	95.022	-0.170	0.194
-567.617	211.341	0.216	-0.341
-566.602	3.724	-0.025	0.018
-565.588	-200.000	0.006	0.256
-564.573	-200.000	0.018	-0.158
-563.558	-65.094	-0.243	0.099
-562.544	-118.978	0.039	-0.007
-561.529	239.150	-0.142	-0.238
-560.515	-200.000	0.033	0.239
-559.500	12.391	0.407	-0.316
-558.485	-200.000	0.035	-0.174
-557.471	225.875	-0.016	-0.026
-556.456	-200.000	-0.028	0.161
-555.442	-45.063	-0.222	0.111
-554.427	-52.091	-0.077	0.036
-553.412	-63.210	0.147	-0.061
-552.398	-200.000	-0.003	-0.115
-551.383	-200.000	0.003	0.079
-550.369	-25.045	-0.267	0.159
-549.354	222.054	0.206	-0.334
-548.339	-58.298	-0.147	-0.064
-547.325	-200.000	0.043	0.221
-546.310	96.756	0.136	-0.157
-545.296	283.585	-0.186	0.335
-544.281	229.083	0.056	0.092
-543.266	-200.000	0.001	0.073
-542.252	-44.100	0.132	-0.067
-541.237	-200.000	-0.024	-0.114
-540.223	464.039	-0.042	0.094
-539.208	257.339	-0.030	-0.052
-538.193	-34.752	0.262	-0.144
-537.179	-200.000	-0.001	0.109
-536.164	86.709	-0.179	-0.198
-535.150	92.990	0.092	-0.105
-534.135	-200.000	0.001	0.011
-533.121	-89.650	0.525	-0.155
-532.106	357.674	-0.028	0.057
-531.091	94.038	-0.107	-0.122
-530.077	-48.450	-0.253	0.123
-529.062	417.669	-0.045	-0.096
-528.048	-31.053	-0.247	-0.140
-527.033	-200.000	0.000	0.184
-526.018	11.907	-0.056	-0.043
-525.004	-118.443	0.217	0.039
-523.989	-34.153	0.256	-0.141
-522.975	-200.000	0.014	-0.064
-521.960	-60.572	-0.205	-0.087
-520.945	195.233	0.196	0.299
-519.931	-1.093	-0.165	0.117
-518.916	-52.186	-0.110	-0.051
-517.902	384.838	0.083	0.171
-516.887	210.606	-0.206	0.325
-515.872	-83.330	0.308	0.099
-514.858	-116.898	0.481	0.088
-513.843	19.775	0.277	0.224
-512.829	-81.759	0.126	-0.042
-511.814	230.076	-0.079	-0.130
-510.799	-32.212	0.110	0.062
-509.785	-72.055	0.092	0.034
-508.770	711.525	-0.075	-0.200
-507.756	-11.042	0.188	-0.124
-506.741	-82.684	-0.121	0.039
-505.726	174.196	0.158	0.229
-504.712	36.590	0.292	0.259
-503.697	-70.638	-0.235	0.089
-502.683	-148.997	-0.234	-0.019
-501.668	378.336	0.089	0.184
-500.653	146.311	0.117	0.158
-499.639	230.672	0.068	-0.112
-498.624	-67.622	0.050	0.020
-497.610	152.145	-0.169	-0.232
-496.595	-200.000	-0.011	-0.342
-495.581	-126.558	0.191	0.028
-494.566	-200.000	0.017	0.102
-493.551	187.174	-0.122	0.182
-492.537	18.305	0.237	-0.190
-491.522	82.588	-0.277	0.302
-490.508	-94.584	0.061	-0.017
-489.493	-119.702	-0.271	0.047
-488.478	209.440	0.089	-0.139
-487.464	800.000	-0.077	-0.243
-486.449	524.346	-0.052	-0.122
-485.435	-109.534	0.147	-0.031
-484.420	-102.371	-0.124	0.030
-483.405	517.576	-0.042	-0.098
-482.391	-141.033	-0.033	-0.003
-481.376	-200.000	0.028	0.133
-480.362	312.188	-0.087	-0.163
-479.347	-16.099	-0.112	-0.072
-478.332	-59.017	-0.111	-0.048
-477.318	-109.519	0.485	0.103
-476.303	-134.740	-0.265	-0.032
-475.289	-119.808	0.101	0.018
-474.274	-94.911	-0.394	0.107
-473.259	-200.000	-0.024	0.169
-472.245	174.166	0.066	-0.096
-471.230	119.362	-0.110	0.136
-470.216	-40.796	-0.479	0.249
-469.201	-51.080	0.259	0.122
-468.186	-19.304	0.269	0.167
-467.172	-117.241	-0.067	0.012
-466.157	-200.000	0.015	-0.117
-465.143	-81.970	0.239	-0.078
-464.128	90.046	0.066	0.073
-463.113	-120.464	0.061	0.010
-462.099	-131.199	-0.347	-0.046
-461.084	56.728	0.070	-0.068
-460.070	360.462	0.088	0.177
-459.055	323.657	0.136	0.260
-458.040	256.510	-0.076	0.131
-457.026	-79.106	0.088	-0.030
-456.011	-58.473	0.152	-0.066
-454.997	173.308	0.188	0.271
-453.982	-131.315	-0.267	0.036
-452.968	-200.000	-0.021	-0.338
-451.953	-200.000	-0.120	-0.571
-450.938	-4.030	-0.027	0.019
-449.924	-200.000	0.070	-0.436
-448.909	-87.074	-0.247	-0.075
-447.895	-176.892	-0.220	-0.006
-446.880	800.000	-0.045	-0.185
-445.865	-55.316	-0.261	0.117
-444.851	-120.720	0.096	0.016
-443.836	-200.000	-0.003	0.296
-442.822	-116.127	0.083	-0.015
-441.807	-60.626	-0.130	-0.055
-440.792	-200.000	0.046	0.365
-439.778	-21.836	0.445	0.271
-438.763	68.895	0.039	-0.040
-437.749	-42.586	0.269	-0.137
-436.734	378.048	-0.165	-0.339
-435.719	-120.590	0.142	-0.024
-434.705	473.395	-0.045	-0.102
-433.690	-159.244	0.159	0.009
-432.676	46.522	-0.276	0.256
-431.661	266.712	0.157	-0.274
-430.646	-89.337	-0.228	0.067
-429.632	69.452	0.098	0.101
-428.617	-131.827	-0.174	0.023
-427.603	268.870	0.160	0.281
-426.588	800.000	-0.055	0.218
-425.573	-200.000	0.034	0.282
-424.559	229.078	-0.056	-0.092
-423.544	-200.000	0.031	-0.252
-422.530	800.000	0.022	-0.081
-421.515	-123.623	0.267	0.042
-420.500	-200.000	-0.023	0.151
-419.486	800.000	-0.088	-0.320
-418.471	420.568	0.087	0.186
-417.457	800.000	0.059	0.221
-416.442	18.128	0.229	0.183
-415.428	-200.000	-0.039	-0.202
-414.413	384.450	0.149	-0.307
-413.398	-117.928	0.201	0.036
-412.384	78.092	-0.127	-0.136
-411.369	776.898	-0.029	-0.079
-410.355	-85.561	-0.344	-0.107
-409.340	225.519	0.183	0.297
-408.325	-19.300	-0.188	0.117
-407.311	-27.069	-0.249	-0.145
-406.296	-184.151	0.224	0.004
-405.282	-153.212	-0.406	0.028
-404.267	-200.000	-0.075	-0.359
-403.252	46.054	-0.146	0.135
-402.238	192.308	0.100	-0.151
-401.223	201.098	-0.102	-0.157
-400.209	536.908	0.057	-0.135
-399.194	-46.800	-0.203	0.099
-398.179	77.413	0.160	-0.170
-397.165	-28.993	0.136	-0.078
-396.150	-58.253	-0.190	-0.083
-395.136	800.000	0.069	-0.200
-394.121	-88.057	-0.256	-0.077
-393.106	121.914	0.106	-0.133
-392.092	-84.905	0.329	0.103
-391.077	140.091	-0.057	-0.076
-390.063	-66.173	0.205	-0.082
-389.048	478.450	0.097	0.220
-388.033	-112.540	0.203	-0.040
-387.019	-200.000	-0.075	0.335
-386.004	263.101	0.136	-0.235
-384.990	-60.222	-0.135	-0.058
-383.975	-62.612	0.042	-0.017
-382.960	-131.986	0.211	-0.028
-381.946	-200.000	-0.030	-0.390
-380.931	800.000	0.045	-0.180
-379.917	-48.220	-0.114	-0.055
-378.902	-42.651	-0.249	0.127
-377.888	-101.544	0.188	0.046
-376.873	219.388	0.140	0.224
-375.858	-84.205	-0.366	-0.116
-374.844	-19.751	-0.197	0.122
-373.829	-108.131	0.211	-0.046
-372.815	51.499	-0.073	-0.069
-371.800	-177.831	-0.303	0.007
-370.785	-60.102	0.169	0.072
-369.771	-74.219	-0.096	-0.035
-368.756	410.031	-0.127	-0.268
-367.742	-200.000	0.011	-0.065
-366.727	-200.000	-0.002	-0.378
-365.712	-200.000	0.021	-0.184
-364.698	-180.615	-0.445	-0.009
-363.683	-26.627	-0.028	-0.017
-362.669	-100.038	0.119	0.030
-361.654	-193.435	0.187	-0.002
-360.639	112.024	-0.045	0.054
-359.625	-200.000	0.041	0.234
-358.610	-200.000	0.037	-0.235
-357.596	800.000	0.035	0.117
-356.581	800.000	0.027	-0.076
-355.566	-101.417	-0.378	-0.092
-354.552	157.949	-0.159	-0.220
-353.537	-179.797	-0.435	0.009
-352.523	-9.513	-0.205	0.136
-351.508	5.719	0.312	0.230
-350.493	-107.797	0.238	0.052
-349.479	800.000	-0.070	-0.239
-348.464	-200.000	-0.045	-0.291
-347.450	-174.137	0.066	-0.002
-346.435	800.000	-0.135	0.372
-345.420	-20.478	-0.162	0.099
-344.406	-85.749	0.214	-0.066
-343.391	-200.000	-0.043	0.316
-342.377	714.036	-0.079	-0.210
-341.362	4.208	0.263	-0.192
-340.348	-19.677	-0.199	0.123
-339.333	718.338	-0.129	-0.342
-338.318	17.098	-0.227	-0.180
-337.304	-200.000	-0.062	-0.313
-336.289	-154.816	0.276	-0.018
-335.275	-47.087	-0.217	0.106
-334.260	-156.393	-0.503	0.031
-333.245	800.000	0.142	-0.437
-332.231	-200.000	-0.008	0.058
-331.216	800.000	-0.019	0.054
-330.202	-200.000	0.002	-0.235
-329.187	-80.031	-0.182	-0.061
-328.172	-200.000	0.006	0.098
-327.158	-118.438	0.319	0.056
-326.143	-200.000	0.051	-0.360
-325.129	-34.291	0.168	-0.092
-324.114	-19.748	-0.129	-0.080
-323.099	249.293	-0.187	0.315
-322.085	-56.326	-0.196	0.087
-321.070	74.753	-0.144	-0.151
-320.056	270.129	-0.084	0.147
-319.041	78.408	0.185	-0.197
-318.026	65.312	-0.184	0.186
-317.012	33.204	0.243	0.210
-315.997	-200.000	-0.052	-0.275
-314.983	79.571	-0.176	-0.189
-313.968	114.596	-0.090	-0.109
-312.953	-200.000	-0.023	0.160
-311.939	244.749	-0.102	-0.172
-310.924	-200.000	0.013	-0.337
-309.910	800.000	0.048	0.197
-308.895	800.000	0.087	0.252
-307.880	28.434	0.127	0.107
-306.866	204.883	0.138	0.213
-305.851	800.000	0.062	0.211
-304.837	-128.327	-0.063	-0.009
-303.822	46.103	0.332	0.306
-302.807	252.729	0.137	0.232
-301.793	29.792	-0.099	0.084
-300.778	-200.000	-0.007	-0.057
-299.764	800.000	0.029	-0.094
-298.749	50.136	0.174	0.164
-297.735	-109.469	0.160	-0.034
-296.720	-200.000	-0.005	-0.032
-295.705	-80.631	0.194	-0.064
-294.691	-200.000	0.022	0.330
-293.676	-111.055	0.219	-0.045
-292.662	-133.512	0.115	0.014
-291.647	228.224	0.101	-0.164
-290.632	286.954	-0.116	-0.209
-289.618	-24.567	0.039	0.023
-288.603	-21.894	-0.300	0.182
-287.589	27.362	0.061	-0.051
-286.574	72.917	0.212	0.221
-285.559	106.773	0.201	-0.237
-284.545	1.208	0.289	0.207
-283.530	-76.595	-0.246	-0.086
-282.516	-134.285	0.301	0.037
-281.501	167.043	-0.134	0.189
-280.486	103.903	0.079	-0.093
-279.472	59.210	0.101	0.099
-278.457	-21.390	0.169	0.103
-277.443	381.725	0.133	-0.272
-276.428	-75.128	0.161	0.057
-275.413	-200.000	-0.009	0.079
-274.399	-93.447	0.184	-0.051
-273.384	155.164	-0.084	0.115
-272.370	-5.476	-0.062	0.042
-271.355	212.570	-0.094	-0.147
-270.340	107.378	-0.050	-0.059
-269.326	-86.789	0.086	0.026
-268.311	-200.000	-0.011	-0.287
-267.297	69.614	-0.234	0.240
-266.282	-200.000	0.005	-0.169
-265.267	-74.432	0.192	-0.069
-264.253	-72.924	-0.213	0.078
-263.238	800.000	-0.144	0.457
-262.224	169.677	0.097	0.139
-261.209	-77.942	-0.179	0.061
-260.195	65.710	-0.254	0.256
-259.180	76.972	-0.196	0.207
-258.165	-200.000	0.002	-0.116
-257.151	-137.586	0.222	0.025
-256.136	65.355	-0.196	-0.197
-255.122	91.107	-0.199	-0.222
-254.107	-124.376	-0.076	-0.012
-253.092	-75.946	-0.300	0.106
-252.078	631.189	-0.071	-0.178
-251.063	800.000	-0.044	-0.132
-250.049	-54.395	-0.110	0.050
-249.034	-200.000	-0.022	0.282
-248.019	-150.986	0.202	0.015
-247.005	283.307	0.170	-0.303
-245.990	-57.741	-0.225	0.098
-244.976	45.340	-0.159	-0.145
-243.961	201.245	0.135	0.206
-242.946	50.535	0.143	0.134
-241.932	135.890	0.019	-0.024
-240.917	172.227	-0.261	0.373
-239.903	38.893	0.260	-0.231
-238.888	-200.000	-0.018	-0.297
-237.873	538.998	-0.025	-0.060
-236.859	-59.529	-0.174	-0.074
-235.844	227.464	-0.130	0.210
-234.830	-76.700	-0.228	-0.079
-233.815	180.032	0.125	-0.183
-232.800	-17.207	-0.346	0.217
-231.786	192.327	0.115	0.172
-230.771	-200.000	0.022	-0.268
-229.757	83.744	0.097	-0.105
-228.742	94.621	0.081	-0.091
-227.727	-113.219	-0.310	0.061
-226.713	30.381	-0.294	0.249
-225.698	800.000	0.035	-0.122
-224.684	65.556	0.092	-0.092
-223.669	-126.263	0.254	-0.038
-222.655	-200.000	-0.013	-0.246
-221.640	2.476	-0.158	0.114
-220.625	-200.000	0.032	-0.288
-219.611	148.735	-0.155	0.208
-218.596	-144.418	0.110	-0.010
-217.582	-8.076	0.234	-0.157
-216.567	800.000	-0.089	0.257
-215.552	119.523	0.079	-0.097
-214.538	113.687	-0.037	0.044
-213.523	800.000	0.030	0.097
-212.509	498.111	0.108	0.246
-211.494	-94.068	0.266	-0.072
-210.479	-49.270	0.149	0.071
-209.465	-71.004	-0.362	0.135
-208.450	40.698	0.246	0.220
-207.436	-182.504	-0.155	0.003
-206.421	800.000	-0.070	-0.195
-205.406	91.569	0.189	-0.210
-204.392	75.018	-0.154	-0.161
-203.377	189.998	0.203	-0.303
-202.363	776.364	-0.080	-0.216
-201.348	-35.888	-0.237	0.127
-200.333	-186.743	0.123	-0.002
-199.319	800.000	-0.062	0.191
-198.304	800.000	0.086	0.317
-197.290	63.086	0.237	-0.235
-196.275	269.400	-0.210	0.365
-195.260	15.286	0.148	0.115
-194.246	-181.126	0.132	-0.003
-193.231	166.197	0.211	0.296
-192.217	22.117	0.207	0.167
-191.202	62.844	-0.049	-0.049
-190.187	61.403	-0.076	0.075
-189.173	-101.479	-0.046	-0.011
-188.158	-137.656	0.150	-0.017
-187.144	-114.063	-0.144	-0.028
-186.129	84.239	0.085	0.092
-185.114	-200.000	0.021	0.195
-184.100	800.000	0.032	-0.138
-183.085	800.000	0.051	-0.211
-182.071	125.683	0.281	0.351
-181.056	800.000	-0.012	-0.040
-180.042	-88.437	0.222	-0.066
-179.027	-119.503	-0.009	0.001
-178.012	150.860	-0.025	-0.033
-176.998	-33.176	-0.114	-0.062
-175.983	-14.588	0.124	-0.079
-174.969	341.459	-0.232	-0.449
-173.954	800.000	0.075	0.245
-172.939	-73.722	0.229	-0.083
-171.925	136.248	-0.228	0.295
-170.910	800.000	0.048	0.207
-169.896	-140.524	0.437	-0.045
-168.881	21.362	-0.318	-0.256
-167.866	754.056	-0.147	0.394
-166.852	28.153	-0.248	0.208
-165.837	32.961	0.024	-0.020
-164.823	-130.420	-0.224	0.030
-163.808	87.021	-0.028	-0.031
-162.793	212.363	-0.104	0.162
-161.779	-30.156	0.387	0.218
-160.764	-150.436	0.443	0.034
-159.750	193.737	-0.102	0.153
-158.735	-99.232	-0.225	-0.056
-157.720	25.708	-0.166	-0.137
-156.706	126.610	0.219	-0.275
-155.691	800.000	-0.129	-0.461
-154.677	-200.000	0.048	0.222
-153.662	-200.000	-0.016	-0.392
-152.647	56.017	0.013	0.012
-151.633	-41.684	0.180	0.092
-150.618	-200.000	-0.005	0.057
-149.604	-200.000	-0.022	0.168
-148.589	7.232	-0.215	-0.159
-147.574	-200.000	0.057	-0.369
-146.560	800.000	0.119	-0.414
-145.545	-101.770	0.188	-0.045
-144.531	-86.870	0.434	-0.131
-143.516	-88.297	-0.137	0.041
-142.502	800.000	-0.073	0.230
-141.487	-112.743	0.215	-0.042
-140.472	128.213	-0.225	-0.283
-139.458	800.000	-0.071	-0.251
-138.443	-200.000	0.023	-0.166
-137.429	252.054	0.021	-0.036
-136.414	-7.665	-0.212	0.142
-135.399	-157.234	-0.182	0.011
-134.385	160.056	-0.055	-0.076
-133.370	113.115	0.009	-0.011
-132.356	-200.000	0.015	-0.068
-131.341	-171.040	-0.077	0.003
-130.326	239.866	-0.045	0.075
-129.312	-155.150	-0.070	0.005
-128.297	-4.314	0.316	-0.216
-127.283	52.329	-0.174	-0.164
-126.268	800.000	-0.131	-0.397
-125.253	800.000	-0.082	0.269
-124.239	316.367	0.028	-0.052
-123.224	-200.000	-0.018	0.117
-122.210	-200.000	0.025	-0.237
-121.195	-131.449	-0.360	0.047
-120.180	25.101	-0.376	-0.309
-119.166	45.200	-0.141	0.129
-118.151	459.062	-0.159	0.349
-117.137	-200.000	0.023	-0.106
-116.122	-104.391	0.174	-0.040
-115.107	-108.186	-0.122	0.026
-114.093	218.787	-0.029	0.046
-113.078	276.974	0.136	0.239
-112.064	373.785	-0.104	0.209
-111.049	170.635	0.146	-0.207
-110.034	210.002	-0.103	0.160
-109.020	-200.000	-0.046	0.251
-108.005	800.000	0.062	0.204
-106.991	-200.000	0.006	0.199
-105.976	246.253	0.161	0.269
-104.962	97.094	-0.153	0.173
-103.947	-130.024	-0.126	-0.017
-102.932	-54.209	-0.267	0.120
-101.918	693.313	-0.052	0.134
-100.903	62.267	0.148	0.146
-99.889	499.064	-0.101	-0.229
-98.874	-39.233	-0.099	0.051
-97.859	292.508	-0.108	-0.194
-96.845	-193.053	-0.194	-0.002
-95.830	-96.281	-0.294	-0.077
-94.816	-49.235	0.156	-0.074
-93.801	-200.000	-0.051	0.240
-92.786	-167.779	0.375	-0.015
-91.772	-200.000	0.021	-0.168
-90.757	351.608	-0.037	0.072
-89.743	112.275	-0.072	0.086
-88.728	134.705	0.071	-0.091
-87.713	-200.000	-0.033	-0.244
-86.699	-117.173	-0.394	-0.071
-85.684	-109.424	-0.121	-0.025
-84.670	76.862	-0.335	-0.351
-83.655	49.892	0.156	0.145
-82.640	-119.725	-0.310	0.053
-81.626	-164.689	0.186	0.008
-80.611	19.880	-0.221	0.176
-79.597	6.485	-0.377	-0.277
-78.582	22.049	-0.134	0.108
-77.567	-200.000	0.013	-0.082
-76.553	-82.972	0.362	0.115
-75.538	33.519	0.240	0.206
-74.524	-76.345	-0.286	-0.099
-73.509	800.000	0.036	0.134
-72.494	-68.761	-0.525	-0.200
-71.480	-3.727	0.134	0.092
-70.465	-31.766	-0.140	0.078
-69.451	-200.000	-0.083	-0.387
-68.436	-97.854	-0.261	0.067
-67.422	-93.852	0.298	-0.081
-66.407	-156.285	-0.123	0.008
-65.392	421.186	0.155	-0.328
-64.378	41.357	-0.211	-0.188
-63.363	-200.000	-0.016	0.152
-62.349	-79.320	-0.158	0.053
-61.334	-60.654	-1.268	-0.531
-60.319	365.186	0.248	0.492
-59.305	-200.000	-0.074	-0.680
-58.290	501.766	0.545	1.241
-57.276	337.156	0.672	1.287
-56.261	-200.000	102.241	641.701
-55.246	640.413	1445.996	3630.116
-54.232	178.347	2668.548	3842.321
-53.217	120.694	2216.676	2717.267
-52.203	44.106	1741.694	1575.034
-51.188	36.143	1553.514	1349.359
-50.173	33.750	1526.407	1309.277
-49.159	54.349	1580.067	1500.334
-48.144	57.143	1598.110	1536.981
-47.130	36.538	1552.014	1350.600
-46.115	33.240	1536.236	1313.957
-45.100	33.072	1532.477	1309.532
-44.086	33.126	1530.869	1308.476
-43.071	32.927	1529.198	1305.617
-42.057	32.962	1527.321	1304.208
-41.042	32.935	1526.215	1303.028
-40.027	32.987	1525.177	1302.444
-39.013	33.002	1523.017	1300.655
-37.998	32.968	1522.552	1299.969
-36.984	32.928	1521.236	1298.520
-35.969	32.963	1519.926	1297.594
-34.954	32.899	1518.477	1295.867
-33.940	32.954	1516.887	1294.834
-32.925	33.041	1515.278	1294.000
-31.911	33.005	1513.778	1292.425
-30.896	33.015	1512.899	1291.692
-29.881	33.095	1511.325	1290.840
-28.867	32.929	1510.597	1289.033
-27.852	33.021	1508.813	1288.089
-26.838	33.043	1507.641	1287.186
-25.823	32.983	1505.999	1285.329
-24.809	32.889	1504.524	1283.376
-23.794	32.915	1503.188	1282.367
-22.779	32.938	1502.173	1281.602
-21.765	32.933	1500.639	1280.206
-20.750	32.980	1499.456	1279.471
-19.736	32.894	1498.932	1278.390
-18.721	32.890	1497.659	1277.224
-17.706	32.990	1495.781	1276.250
-16.692	32.942	1494.734	1274.976
-15.677	32.880	1494.290	1274.129
-14.663	32.881	1492.991	1272.978
-13.648	32.938	1492.217	1272.655
-12.633	32.952	1491.039	1271.693
-11.619	32.912	1490.148	1270.614
-10.604	32.907	1489.161	1269.689
-9.590	32.915	1488.471	1269.104
-8.575	32.793	1487.740	1267.612
-7.560	32.914	1487.117	1267.840
-6.546	32.933	1486.482	1267.376
-5.531	32.859	1485.269	1265.793
-4.517	32.815	1484.124	1264.473
-3.502	32.835	1483.529	1264.051
-2.487	32.832	1481.933	1262.623
-1.473	32.817	1480.839	1261.536
-0.458	32.914	1479.536	1261.027
0.556	31.373	1470.882	1252.491
1.571	28.991	1444.937	1214.582
2.586	26.124	1384.840	1145.797
3.600	24.708	1304.034	1070.374
4.615	23.220	1258.474	1024.281
5.629	18.968	1199.522	952.710
6.644	8.676	1109.815	828.365
7.659	1.295	1067.476	759.848
8.673	0.249	1061.677	750.445
9.688	0.099	1059.158	747.852
10.702	0.010	1056.926	745.767
11.717	0.002	1055.296	744.512
12.731	3.585	1059.315	765.065
13.746	13.295	1073.985	824.198
14.761	20.456	1082.681	866.650
15.775	21.761	1084.261	874.354
16.790	22.015	1083.406	874.854
17.804	21.773	1082.849	873.120
18.819	21.576	1082.070	871.436
19.834	21.755	1080.856	871.271
20.848	21.845	1080.417	871.289
21.863	21.854	1080.232	871.105
22.877	21.844	1079.867	870.682
23.892	21.782	1079.307	869.849
24.907	21.621	1078.717	868.497
25.921	21.798	1077.737	868.507
26.936	21.833	1077.085	868.079
27.950	21.674	1075.753	866.144
28.965	21.732	1075.048	865.788
29.980	21.625	1073.126	863.635
30.994	21.637	1071.827	862.572
32.009	21.748	1071.105	862.459
33.023	21.895	1070.351	862.501
34.038	21.733	1069.126	860.639
35.053	21.589	1068.643	859.469
36.067	21.811	1067.746	859.760
37.082	21.840	1066.906	859.147
38.096	21.804	1066.143	858.284
39.111	21.981	1065.740	858.750
40.126	22.055	1064.584	858.103
41.140	22.070	1063.039	856.854
42.155	21.690	1061.777	853.910
43.169	21.404	1060.613	851.506
44.184	21.525	1059.412	851.055
45.199	21.653	1057.914	850.400
46.213	21.436	1057.248	848.734
47.228	21.423	1056.827	848.259
48.242	21.490	1056.205	848.006
49.257	21.787	1054.550	848.042
50.271	21.661	1054.456	847.279
51.286	21.684	1053.880	846.854
52.301	21.867	1052.751	846.758
53.315	21.968	1051.569	846.217
54.330	21.955	1051.094	845.697
55.344	21.758	1050.254	843.999
56.359	21.814	1049.254	843.391
57.374	21.815	1048.502	842.713
58.388	21.580	1047.830	840.974
59.403	21.595	1047.292	840.538
60.417	21.749	1045.692	839.918
61.432	21.493	1045.201	838.222
62.447	21.529	1044.604	837.841
63.461	21.638	1043.927	837.747
64.476	21.611	1043.106	836.885
65.490	21.631	1042.113	836.107
66.505	21.544	1041.237	834.918
67.520	21.591	1040.523	834.493
68.534	21.668	1039.688	834.117
69.549	21.397	1039.034	832.228
70.563	21.142	1037.468	829.691
71.578	21.101	1036.708	828.814
72.593	21.164	1035.797	828.310
73.607	20.998	1034.509	826.422
74.622	21.032	1033.417	825.635
75.636	21.280	1033.103	826.484
76.651	21.451	1032.324	826.598
77.666	21.390	1031.177	825.316
78.680	21.141	1030.638	823.639
79.695	21.273	1030.241	823.869
80.709	21.403	1029.292	823.650
81.724	21.499	1028.560	823.445
82.739	21.422	1027.434	822.111
83.753	21.405	1026.816	821.462
84.768	21.658	1025.931	821.871
85.782	21.888	1025.587	822.599
86.797	22.101	1024.650	822.773
87.812	22.082	1023.818	821.942
88.826	21.898	1023.068	820.408
89.841	21.822	1022.457	819.490
90.855	22.077	1021.307	819.684
91.870	21.928	1020.700	818.429
92.884	21.973	1019.847	817.884
93.899	21.922	1018.801	816.733
94.914	21.815	1018.323	815.782
95.928	22.032	1017.310	815.909
96.943	22.055	1016.362	815.180
97.957	21.810	1014.897	812.800
98.972	21.622	1013.552	810.780
99.987	21.346	1013.335	809.256
101.001	21.425	1012.500	808.883
102.016	21.678	1011.838	809.452
103.030	21.755	1010.782	808.893
104.045	21.664	1009.509	807.379
105.060	21.689	1007.874	806.119
106.074	21.381	1007.057	803.975
107.089	21.453	1006.220	803.568
108.103	21.826	1005.958	804.999
109.118	21.748	1005.486	804.193
110.133	21.531	1004.341	802.213
111.147	21.485	1003.181	801.004
112.162	21.463	1001.932	799.836
113.176	21.193	1000.718	797.560
114.191	21.339	999.483	797.175
115.206	21.453	999.096	797.313
116.220	21.241	997.716	795.174
117.235	21.119	996.661	793.710
118.249	21.309	995.906	793.903
119.264	21.281	995.392	793.294
120.279	21.167	994.456	791.962
121.293	21.238	993.118	791.150
122.308	21.154	993.317	790.858
123.322	21.339	992.007	790.580
124.337	21.282	990.923	789.389
125.352	21.045	990.153	787.634
126.366	20.823	987.994	784.848
127.381	20.489	986.878	782.390
128.395	21.015	986.418	784.320
129.410	21.633	985.787	786.528
130.424	21.694	985.548	786.541
131.439	21.803	984.229	785.908
132.454	21.632	983.285	784.317
133.468	21.717	982.446	783.960
134.483	21.694	981.338	782.901
135.497	21.807	980.421	782.604
136.512	21.899	980.200	782.770
137.527	21.942	979.482	782.322
138.541	21.958	978.391	781.450
139.556	21.934	977.548	780.600
140.570	21.982	976.944	780.265
141.585	21.991	976.106	779.565
142.600	22.052	975.403	779.204
143.614	21.860	974.283	777.390
144.629	22.183	973.087	777.796
145.643	22.297	972.988	778.156
146.658	22.035	972.054	776.180
147.673	22.069	970.720	775.195
148.687	21.800	969.645	773.084
149.702	21.833	968.360	772.134
150.716	21.593	967.663	770.453
151.731	21.657	966.169	769.480
152.746	21.818	965.852	769.864
153.760	21.939	965.222	769.826
154.775	21.976	964.329	769.209
155.789	22.102	963.579	769.093
156.804	22.118	962.427	768.176
157.819	22.048	961.155	766.788
158.833	22.112	960.443	766.431
159.848	22.162	960.331	766.493
160.862	22.341	958.923	766.081
161.877	22.108	957.877	764.164
162.892	22.042	957.189	763.260
163.906	22.111	956.603	763.022
164.921	22.151	955.319	762.104
165.935	22.026	954.282	760.668
166.950	22.065	953.220	759.925
167.964	22.074	952.275	759.143
168.979	21.988	951.709	758.255
169.994	22.086	949.894	757.162
171.008	21.909	949.088	755.689
172.023	21.970	948.542	755.452
173.037	22.304	947.643	756.102
174.052	21.965	946.428	753.614
175.067	21.796	945.596	752.158
176.081	21.812	944.966	751.662
177.096	21.842	944.187	751.102
178.110	21.902	943.325	750.606
179.125	21.628	942.467	748.685
180.140	21.433	941.203	746.784
181.154	21.477	940.472	746.326
182.169	21.470	940.217	746.026
183.183	21.755	939.979	746.985
184.198	22.173	939.319	748.176
185.213	21.935	938.837	746.712
186.227	21.935	937.835	745.850
187.242	22.019	937.877	746.176
188.256	22.220	936.281	745.693
189.271	22.168	935.590	744.856
190.286	22.143	934.707	743.977
191.300	22.015	933.979	742.795
192.315	21.577	932.728	739.883
193.329	20.806	931.250	735.388
194.344	20.460	929.783	732.706
195.359	21.072	930.372	735.688
196.373	21.813	930.660	738.976
197.388	22.157	930.302	740.072
198.402	21.910	929.745	738.523
199.417	21.861	929.210	737.828
200.432	21.950	928.584	737.642
201.446	21.843	927.479	736.247
202.461	21.579	926.896	734.615
203.475	21.577	926.237	734.018
204.490	21.167	925.174	731.392
205.504	20.113	923.060	725.251
206.519	20.393	923.028	726.331
207.534	21.289	923.251	730.187
208.548	21.499	922.957	730.768
209.563	21.837	922.423	731.693
210.577	22.034	921.448	731.674
211.592	21.657	920.775	729.504
212.607	22.039	920.604	730.894
213.621	22.184	920.030	730.979
214.636	22.102	919.539	730.182
215.650	22.056	918.960	729.468
216.665	22.051	918.204	728.781
217.680	22.185	917.584	728.780
218.694	22.172	917.432	728.541
219.709	21.815	916.446	726.214
220.723	21.407	915.717	723.884
221.738	21.703	915.045	724.516
222.753	22.005	913.972	724.849
223.767	21.868	913.639	723.956
224.782	21.883	912.834	723.313
225.796	21.984	912.078	723.069
226.811	22.144	911.831	723.468
227.826	21.937	909.848	720.977
228.840	21.137	908.658	716.689
229.855	20.942	908.241	715.496
230.869	21.250	907.708	716.277
231.884	21.016	906.287	714.131
232.899	21.050	906.382	714.283
233.913	21.708	906.772	717.220
234.928	22.043	906.226	718.099
235.942	21.837	905.517	716.629
236.957	21.892	904.602	716.067
237.972	21.565	903.758	714.002
238.986	21.592	903.000	713.450
240.001	21.519	902.699	712.851
241.015	21.627	902.254	712.878
242.030	21.662	901.061	712.011
243.045	21.909	900.749	712.705
244.059	21.948	899.865	712.102
245.074	22.031	899.650	712.205
246.088	22.076	898.473	711.394
247.103	21.778	897.535	709.381
248.117	21.734	897.371	709.012
249.132	22.320	896.855	710.908
250.147	22.508	896.841	711.595
251.161	22.677	896.242	711.740
252.176	22.628	895.720	711.065
253.190	22.730	895.179	710.985
254.205	22.811	894.716	710.879
255.220	22.972	894.500	711.291
256.234	22.899	893.905	710.460
257.249	22.870	893.005	709.569
258.263	22.692	892.384	708.297
259.278	22.762	891.707	707.978
260.293	22.699	891.259	707.306
261.307	23.102	890.601	708.335
262.322	22.846	890.098	706.847
263.336	22.654	889.284	705.371
264.351	22.183	887.561	702.063
265.366	21.124	885.544	696.181
266.380	20.642	884.988	693.763
267.395	21.597	885.309	697.759
268.409	22.414	885.164	700.836
269.424	22.296	884.769	699.994
270.439	22.434	884.314	700.122
271.453	22.596	883.469	700.032
272.468	22.685	882.746	699.750
273.482	22.755	882.723	699.947
274.497	22.936	882.092	700.103
275.512	22.770	881.039	698.550
276.526	22.260	879.525	695.271
277.541	22.344	879.408	695.450
278.555	22.685	879.103	696.494
279.570	22.434	878.223	694.743
280.585	22.427	877.157	693.811
281.599	22.385	876.966	693.433
282.614	22.548	876.128	693.352
283.628	22.089	875.578	691.050
284.643	21.822	874.566	689.141
285.657	22.120	874.646	690.315
286.672	22.008	874.087	689.371
287.687	21.529	872.836	686.444
288.701	21.888	872.724	687.703
289.716	22.384	872.490	689.401
290.730	22.102	871.218	687.232
291.745	22.015	870.729	686.448
292.760	21.834	869.646	684.826
293.774	21.586	869.186	683.435
294.789	22.526	869.562	687.338
295.803	23.161	869.910	690.032
296.818	23.318	868.768	689.675
297.833	23.330	868.540	689.479
298.847	22.941	867.856	687.361
299.862	22.507	866.620	684.635
300.876	22.800	866.504	685.623
301.891	23.125	865.764	686.238
302.906	23.226	864.989	685.953
303.920	22.773	863.819	683.212
304.935	22.529	863.485	681.942
305.949	23.015	863.164	683.509
306.964	23.152	862.607	683.538
307.979	22.788	862.254	681.791
308.993	22.885	861.378	681.411
310.008	23.110	861.251	682.117
311.022	23.313	860.550	682.284
312.037	23.029	860.350	680.973
313.052	22.815	859.763	679.625
314.066	22.732	858.718	678.417
315.081	22.160	857.243	674.996
316.095	21.546	855.971	671.582
317.110	22.079	856.178	673.727
318.125	22.908	856.355	676.985
319.139	22.472	855.335	674.452
320.154	21.307	853.637	668.598
321.168	20.921	852.608	666.257
322.183	21.451	852.765	668.347
323.197	22.225	853.511	671.832
324.212	22.566	853.109	672.757
325.227	22.834	852.566	673.292
326.241	23.041	852.042	673.606
327.256	23.019	851.453	672.998
328.270	22.657	850.918	671.138
329.285	22.662	850.320	670.627
330.300	22.591	849.332	669.517
331.314	22.318	848.458	667.735
332.329	22.383	848.052	667.602
333.343	22.814	847.887	669.048
334.358	22.964	847.382	669.158
335.373	23.068	846.680	668.938
336.387	23.052	846.444	668.631
337.402	23.291	846.025	669.143
338.416	23.351	845.724	669.075
339.431	23.382	845.089	668.629
340.446	23.409	844.405	668.130
341.460	23.531	844.171	668.346
342.475	23.677	843.499	668.304
343.489	23.528	842.276	666.715
344.504	23.329	842.075	665.750
345.519	23.578	841.792	666.400
346.533	23.735	841.713	666.869
347.548	23.762	841.151	666.467
348.562	23.918	840.465	666.450
349.577	23.987	839.420	665.821
350.592	23.666	839.373	664.521
351.606	23.797	838.585	664.329
352.621	23.628	838.530	663.595
353.635	23.636	837.831	663.014
354.650	23.521	837.271	662.084
355.665	23.183	836.440	660.106
356.679	22.160	834.671	654.843
357.694	22.057	834.385	654.177
358.708	22.864	833.846	656.699
359.723	22.772	833.383	655.933
360.738	23.050	832.843	656.484
361.752	23.375	833.292	657.986
362.767	23.503	832.816	658.025
363.781	23.765	832.826	658.948
364.796	24.037	832.277	659.463
365.810	24.032	831.971	659.143
366.825	23.983	831.743	658.722
367.840	24.189	831.044	658.872
368.854	24.049	830.226	657.651
369.869	23.778	829.211	655.788
370.883	23.336	829.210	654.097
371.898	23.519	828.888	654.462
372.913	23.475	827.669	653.279
373.927	23.467	827.306	652.904
374.942	23.501	826.738	652.524
375.956	23.782	826.110	653.002
376.971	23.909	825.360	652.819
377.986	23.851	825.269	652.474
379.000	24.057	824.674	652.703
380.015	24.044	824.209	652.229
381.029	23.870	823.635	651.079
382.044	23.849	823.099	650.521
383.059	23.896	822.750	650.362
384.073	24.150	822.030	650.662
385.088	24.064	821.485	649.859
386.102	24.062	820.880	649.314
387.117	24.102	819.987	648.696
388.132	23.771	819.694	647.203
389.146	23.606	819.079	646.059
390.161	23.139	818.275	643.669
391.175	23.296	817.198	643.336
392.190	23.748	817.623	645.257
393.205	23.755	817.474	645.105
394.219	22.939	815.040	640.174
395.234	21.183	813.206	632.323
396.248	20.530	812.009	628.973
397.263	21.567	812.948	633.401
398.278	23.312	814.346	640.751
399.292	23.838	814.042	642.358
400.307	23.333	813.947	640.400
401.321	23.475	813.099	640.190
402.336	23.526	812.885	640.149
403.350	23.885	812.300	640.924
404.365	24.212	812.382	642.113
405.380	24.528	812.399	643.208
406.394	24.650	811.983	643.257
407.409	25.050	811.431	644.202
408.423	24.927	810.940	643.315
409.438	24.710	810.434	642.076
410.453	24.819	809.756	641.874
411.467	25.020	809.343	642.211
412.482	24.822	808.603	640.859
413.496	24.790	808.190	640.360
414.511	24.816	807.912	640.175
415.526	24.907	807.754	640.320
416.540	24.825	807.541	639.801
417.555	24.696	806.974	638.832
418.569	24.536	806.074	637.491
419.584	24.589	805.164	636.907
420.599	24.563	804.675	636.369
421.613	155.184	1365.391	1794.950
422.628	134.778	1447.075	1795.064
