DTS Sentinel unit serial number:	SN413079Multiplexer serial number:	ORYXHardware model number:	OX4-SRSoftware version number:	ORYX F/W v4.00 Oryx Data Collector v3.7.2.0data status	okinstallation	princeton_trtdifferential loss correction	single-endedforward channel	channel 3reverse channel	N/Adate	2019/09/15time	23:48:35forward acquisition time	60.00reverse acquisition time	0.00gamma	496.2192k internal	0.2336k external	0.2336temperature offset calibration	0.9949default loss term (dB/km)	0.3790temperature slope calibration	1.0000multiplexer offset coefficient	1.0000multiplexer slope coefficient	1.0000fibre end	0.00T internal ref (°C)	27.98T ext. ref 1 (°C)	9.29T ext. ref 2 (°C)	21.62length (m)	temperature (°C)	Stokes	anti-Stokes-747.200	-107.940	-0.098	0.021
-746.185	427.863	-0.226	0.491
-745.171	-171.514	0.175	0.006
-744.156	471.779	-0.243	0.549
-743.142	97.960	-0.197	-0.228
-742.127	-8.291	0.126	-0.085
-741.112	-200.000	0.002	0.213
-740.098	3.683	0.217	-0.159
-739.083	-40.290	-0.220	0.115
-738.069	-96.110	-0.172	-0.046
-737.054	-137.915	-0.056	0.006
-736.039	-105.033	0.080	-0.018
-735.025	423.393	0.090	-0.195
-734.010	-59.643	-0.082	-0.035
-732.996	276.873	-0.108	-0.193
-731.981	-134.038	0.231	-0.029
-730.966	-117.603	-0.270	0.049
-729.952	4.350	-0.076	0.056
-728.937	-78.536	-0.198	0.068
-727.923	-0.570	0.171	-0.121
-726.908	383.299	0.132	-0.272
-725.894	-200.000	-0.007	-0.130
-724.879	281.024	0.107	-0.192
-723.864	-20.491	-0.381	-0.235
-722.850	513.951	-0.131	0.307
-721.835	-42.124	0.121	0.062
-720.821	-24.070	-0.151	0.091
-719.806	-62.766	0.133	-0.055
-718.791	227.154	-0.060	0.098
-717.777	72.653	-0.085	0.089
-716.762	-200.000	0.034	-0.295
-715.748	-118.113	-0.152	-0.027
-714.733	190.561	0.148	-0.223
-713.718	800.000	-0.064	-0.195
-712.704	-200.000	0.060	-0.464
-711.689	125.185	0.137	-0.174
-710.675	-200.000	-0.025	-0.184
-709.660	75.271	0.138	0.146
-708.645	-168.623	0.111	-0.004
-707.631	-16.719	0.183	-0.116
-706.616	-200.000	0.019	0.198
-705.602	-155.530	0.255	-0.016
-704.587	800.000	-0.066	0.274
-703.572	-148.395	-0.225	0.019
-702.558	683.032	0.073	0.190
-701.543	-200.000	0.045	-0.405
-700.529	800.000	0.074	-0.325
-699.514	310.290	0.210	0.394
-698.499	-200.000	-0.010	0.357
-697.485	14.737	0.303	0.237
-696.470	103.534	0.102	0.120
-695.456	263.943	0.157	-0.274
-694.441	-2.453	-0.268	-0.188
-693.426	497.587	-0.022	-0.051
-692.412	291.940	-0.076	0.139
-691.397	-21.303	-0.287	0.176
-690.383	125.575	0.163	0.206
-689.368	-23.566	-0.289	-0.174
-688.354	132.752	0.248	-0.321
-687.339	-80.380	-0.320	-0.107
-686.324	800.000	0.065	0.254
-685.310	-44.366	0.185	0.093
-684.295	185.218	-0.121	-0.179
-683.281	800.000	-0.028	-0.084
-682.266	-25.733	0.175	-0.104
-681.251	-40.553	-0.171	0.089
-680.237	161.703	-0.140	-0.196
-679.222	-191.349	-0.362	0.004
-678.208	-135.169	0.113	-0.014
-677.193	224.926	-0.091	-0.148
-676.178	17.349	-0.203	0.161
-675.164	100.697	0.182	0.211
-674.149	-78.125	0.177	-0.061
-673.135	502.292	-0.087	0.201
-672.120	378.571	-0.048	0.099
-671.105	67.707	0.057	-0.059
-670.091	800.000	-0.066	-0.196
-669.076	86.766	0.126	0.140
-668.062	-93.055	-0.365	-0.102
-667.047	-44.376	-0.301	0.151
-666.032	98.618	0.178	0.206
-665.018	-43.879	0.308	0.155
-664.003	43.139	-0.327	0.299
-662.989	-123.913	0.187	0.029
-661.974	-35.909	-0.349	0.189
-660.959	-200.000	0.032	-0.232
-659.945	-34.961	-0.156	0.085
-658.930	-83.764	0.234	-0.075
-657.916	36.831	0.062	0.054
-656.901	-200.000	-0.002	-0.094
-655.886	-170.311	0.310	-0.011
-654.872	22.790	0.077	0.063
-653.857	-51.698	-0.411	0.192
-652.843	-200.000	-0.031	0.260
-651.828	-116.834	-0.095	0.017
-650.814	-137.446	0.412	-0.047
-649.799	234.419	-0.123	0.203
-648.784	-171.227	0.263	0.009
-647.770	505.259	0.074	-0.172
-646.755	1.943	-0.236	-0.170
-645.741	262.772	0.101	0.176
-644.726	800.000	0.103	-0.415
-643.711	-8.031	0.208	0.140
-642.697	800.000	-0.063	0.185
-641.682	34.428	0.193	0.168
-640.668	-154.160	-0.110	-0.007
-639.653	-129.344	-0.200	-0.028
-638.638	800.000	-0.109	0.327
-637.624	526.329	0.020	-0.048
-636.609	800.000	0.114	-0.349
-635.595	604.022	0.137	0.341
-634.580	-200.000	0.103	0.456
-633.565	-200.000	-0.018	0.197
-632.551	-77.353	-0.278	0.097
-631.536	65.329	-0.233	-0.235
-630.522	736.045	0.095	0.255
-629.507	226.504	0.034	-0.055
-628.492	-200.000	0.045	-0.241
-627.478	-84.792	-0.151	-0.048
-626.463	-200.000	-0.002	-0.063
-625.449	-5.095	-0.222	-0.152
-624.434	800.000	-0.019	0.064
-623.419	786.236	-0.028	-0.078
-622.405	-88.935	0.151	-0.045
-621.390	487.736	0.064	0.145
-620.376	80.882	0.119	0.128
-619.361	-200.000	-0.020	-0.440
-618.346	-200.000	0.034	0.159
-617.332	-200.000	-0.403	0.000
-616.317	-135.399	0.256	-0.031
-615.303	-102.717	0.270	-0.064
-614.288	-71.036	0.104	-0.039
-613.273	133.372	-0.080	-0.103
-612.259	-97.424	0.240	-0.062
-611.244	201.009	0.350	-0.538
-610.230	201.061	-0.139	0.213
-609.215	182.147	-0.148	-0.218
-608.201	800.000	0.096	0.360
-607.186	339.984	-0.048	-0.094
-606.171	-200.000	0.006	-0.153
-605.157	-74.702	0.060	0.021
-604.142	6.205	-0.181	-0.134
-603.128	800.000	-0.039	-0.107
-602.113	-113.867	0.346	-0.067
-601.098	-104.992	0.223	0.051
-600.084	-49.943	0.154	0.073
-599.069	279.344	0.090	0.161
-598.055	-116.879	-0.192	-0.035
-597.040	2.868	0.069	0.050
-596.025	182.668	-0.067	-0.098
-595.011	-70.280	0.125	-0.047
-593.996	-90.209	-0.187	0.054
-592.982	241.666	0.103	-0.172
-591.967	-136.397	-0.244	0.028
-590.952	130.757	-0.050	-0.064
-589.938	-3.168	-0.322	-0.224
-588.923	-17.049	0.479	0.302
-587.909	-200.000	0.010	-0.382
-586.894	47.903	-0.119	0.111
-585.879	104.827	-0.231	0.272
-584.865	-95.618	0.251	0.067
-583.850	-98.276	0.130	-0.033
-582.836	47.112	-0.059	-0.054
-581.821	-20.446	-0.436	0.268
-580.806	31.866	-0.133	0.114
-579.792	91.552	-0.132	-0.148
-578.777	120.868	-0.252	-0.312
-577.763	96.925	-0.105	0.120
-576.748	800.000	-0.030	0.125
-575.733	12.094	0.163	-0.125
-574.719	26.278	-0.336	0.280
-573.704	-165.678	0.154	0.007
-572.690	49.246	0.176	-0.165
-571.675	-200.000	0.017	-0.127
-570.661	-13.904	0.077	0.049
-569.646	-87.401	-0.482	-0.146
-568.631	168.634	0.085	-0.121
-567.617	-187.088	0.338	-0.005
-566.602	226.239	-0.063	0.102
-565.588	453.574	-0.027	-0.061
-564.573	-155.982	-0.203	-0.013
-563.558	-200.000	0.011	0.075
-562.544	120.666	0.237	0.293
-561.529	-200.000	0.040	-0.193
-560.515	110.649	-0.199	-0.238
-559.500	800.000	0.022	0.090
-558.485	800.000	-0.061	-0.230
-557.471	30.832	-0.022	0.019
-556.456	-121.031	-0.269	-0.045
-555.442	-200.000	-0.007	-0.119
-554.427	-59.281	-0.183	0.079
-553.412	-200.000	-0.023	0.373
-552.398	21.772	-0.334	0.271
-551.383	8.543	-0.151	-0.113
-550.369	700.142	-0.069	0.181
-549.354	-80.815	0.177	0.059
-548.339	-112.987	-0.143	-0.028
-547.325	167.576	0.151	0.213
-546.310	21.737	0.259	-0.210
-545.296	-193.736	-0.143	-0.001
-544.281	-34.044	-0.141	0.077
-543.266	459.860	0.084	0.186
-542.252	377.093	0.054	0.109
-541.237	-70.823	-0.453	0.170
-540.223	43.246	0.092	-0.083
-539.208	120.868	0.142	-0.176
-538.193	-122.873	-0.202	0.032
-537.179	-93.542	0.082	0.023
-536.164	-135.773	-0.173	0.020
-535.150	-48.443	-0.208	0.100
-534.135	800.000	-0.039	-0.115
-533.121	-15.692	-0.234	0.149
-532.106	800.000	-0.022	0.063
-531.091	30.115	0.088	0.075
-530.077	800.000	-0.126	-0.388
-529.062	-132.690	-0.204	0.026
-528.048	-3.803	-0.282	0.195
-527.033	-200.000	-0.003	-0.144
-526.018	122.932	-0.165	-0.205
-525.004	-139.708	0.276	-0.029
-523.989	-78.301	-0.222	-0.076
-522.975	-26.097	0.049	0.029
-521.960	-123.259	-0.201	-0.032
-520.945	800.000	-0.111	-0.356
-519.931	800.000	0.033	0.134
-518.916	800.000	0.075	0.221
-517.902	-192.743	0.204	-0.002
-516.887	62.031	-0.093	-0.092
-515.872	-156.798	0.207	0.013
-514.858	184.810	-0.163	0.240
-513.843	570.270	-0.051	0.124
-512.829	-124.222	0.332	0.052
-511.814	39.112	0.071	-0.063
-510.799	-135.372	0.110	-0.013
-509.785	241.453	-0.056	-0.093
-508.770	554.718	0.076	0.181
-507.756	-72.165	-0.216	-0.080
-506.741	-200.000	-0.004	0.085
-505.726	439.251	-0.153	0.333
-504.712	32.920	-0.101	0.087
-503.697	-122.150	-0.413	0.067
-502.683	-200.000	0.049	-0.280
-501.668	800.000	0.048	0.133
-500.653	200.270	0.058	-0.088
-499.639	800.000	0.075	-0.284
-498.624	35.772	-0.291	0.254
-497.610	-109.377	0.312	-0.066
-496.595	228.547	-0.127	-0.206
-495.581	-90.124	-0.119	0.034
-494.566	-77.376	-0.007	-0.002
-493.551	-100.626	0.170	0.042
-492.537	-146.383	-0.445	-0.039
-491.522	800.000	0.124	0.399
-490.508	-121.081	-0.351	-0.058
-489.493	42.743	-0.087	-0.079
-488.478	-109.202	-0.154	0.033
-487.464	6.947	0.093	-0.069
-486.449	324.710	0.168	0.318
-485.435	350.131	0.043	-0.084
-484.420	121.330	-0.035	0.043
-483.405	-200.000	-0.021	0.168
-482.391	-200.000	-0.029	-0.230
-481.376	85.931	-0.098	0.107
-480.362	229.345	0.135	0.219
-479.347	-12.793	0.195	0.126
-478.332	-200.000	0.006	0.150
-477.318	800.000	-0.012	0.042
-476.303	-27.454	0.068	-0.039
-475.289	-102.382	0.313	0.075
-474.274	97.964	-0.373	-0.427
-473.259	-8.944	-0.085	-0.056
-472.245	20.926	0.056	-0.045
-471.230	-95.414	0.429	0.114
-470.216	800.000	-0.006	-0.022
-469.201	-7.506	-0.394	-0.265
-468.186	196.361	0.048	0.072
-467.172	-102.543	0.134	-0.032
-466.157	800.000	-0.066	-0.181
-465.143	-91.747	-0.220	0.062
-464.128	113.990	-0.135	0.164
-463.113	-111.410	0.303	0.061
-462.099	42.274	-0.037	0.033
-461.084	-200.000	0.032	0.147
-460.070	-51.106	-0.114	-0.053
-459.055	23.242	0.184	0.150
-458.040	-188.854	0.563	0.007
-457.026	800.000	0.031	0.117
-456.011	36.272	-0.146	-0.128
-454.997	800.000	-0.046	-0.200
-453.982	116.086	0.247	-0.301
-452.968	-119.829	0.239	-0.041
-451.953	-112.363	-0.048	-0.010
-450.938	800.000	0.098	0.291
-449.924	800.000	0.070	-0.228
-448.909	-58.096	-0.291	-0.126
-447.895	11.934	-0.046	-0.035
-446.880	800.000	-0.140	0.439
-445.865	800.000	-0.003	0.014
-444.851	254.227	0.077	-0.131
-443.836	-172.020	0.111	-0.004
-442.822	-200.000	-0.010	-0.225
-441.807	191.527	-0.120	-0.180
-440.792	-10.465	0.263	0.173
-439.778	-129.505	-0.226	0.031
-438.763	139.595	0.046	-0.060
-437.749	-200.000	0.023	-0.168
-436.734	452.372	-0.119	-0.262
-435.719	626.108	0.058	0.145
-434.705	-62.468	0.112	-0.046
-433.690	37.728	-0.251	0.221
-432.676	161.424	0.050	-0.070
-431.661	366.740	0.159	-0.318
-430.646	-35.437	-0.090	0.048
-429.632	591.330	-0.129	-0.317
-428.617	-96.060	0.220	0.058
-427.603	-200.000	-0.030	0.190
-426.588	-161.857	-0.087	0.004
-425.573	-100.094	-0.562	0.139
-424.559	286.562	0.160	-0.286
-423.544	-161.814	-0.062	-0.003
-422.530	-15.311	0.060	-0.038
-421.515	-200.000	-0.017	0.105
-420.500	437.732	0.029	0.063
-419.486	286.914	-0.133	-0.238
-418.471	-200.000	0.025	0.231
-417.457	-113.976	0.315	-0.061
-416.442	-19.649	0.109	-0.067
-415.428	-200.000	0.017	0.256
-414.413	-111.369	0.294	0.059
-413.398	145.365	0.204	-0.271
-412.384	800.000	-0.016	0.066
-411.369	-200.000	0.000	0.082
-410.355	-70.340	0.393	-0.148
-409.340	329.371	-0.120	0.229
-408.325	248.720	0.064	-0.107
-407.311	-200.000	0.030	-0.318
-406.296	-34.189	-0.271	0.147
-405.282	-38.378	0.382	0.200
-404.267	-68.946	0.097	-0.037
-403.252	-200.000	0.023	0.170
-402.238	-80.974	-0.259	0.085
-401.223	-59.141	-0.073	-0.031
-400.209	212.581	0.176	-0.275
-399.194	-4.139	-0.050	-0.034
-398.179	-200.000	0.042	-0.286
-397.165	-170.324	-0.067	0.002
-396.150	-200.000	-0.040	0.243
-395.136	-200.000	0.043	-0.216
-394.121	525.004	0.060	-0.141
-393.106	96.043	-0.154	0.174
-392.092	-61.334	0.040	0.017
-391.077	435.064	-0.067	0.143
-390.063	149.272	-0.120	-0.161
-389.048	-35.261	-0.279	0.151
-388.033	-200.000	-0.060	0.322
-387.019	800.000	0.067	0.192
-386.004	-200.000	-0.047	0.220
-384.990	-200.000	0.027	0.380
-383.975	123.308	0.073	-0.091
-382.960	800.000	0.046	0.127
-381.946	-200.000	0.014	-0.091
-380.931	-86.224	0.160	-0.049
-379.917	-92.584	-0.014	0.004
-378.902	-115.948	-0.362	-0.067
-377.888	800.000	0.051	0.152
-376.873	800.000	-0.030	0.111
-375.858	62.863	0.266	0.263
-374.844	-133.509	0.171	-0.021
-373.829	236.315	-0.018	-0.030
-372.815	75.877	0.159	-0.167
-371.800	-153.955	0.153	-0.010
-370.785	-13.389	0.172	-0.110
-369.771	-195.156	-0.228	-0.002
-368.756	-72.233	-0.209	-0.077
-367.742	-11.540	0.439	0.286
-366.727	365.469	-0.185	0.368
-365.712	45.825	-0.179	0.163
-364.698	-51.031	0.257	-0.120
-363.683	194.873	0.127	0.190
-362.669	-127.257	0.270	-0.039
-361.654	713.265	-0.038	0.100
-360.639	-63.814	0.269	0.109
-359.625	-133.442	-0.102	0.013
-358.610	800.000	0.070	-0.281
-357.596	218.533	-0.108	-0.170
-356.581	-97.377	0.124	0.032
-355.566	-39.607	0.316	-0.164
-354.552	800.000	-0.010	0.034
-353.537	80.488	-0.043	-0.046
-352.523	-69.814	0.397	0.150
-351.508	800.000	0.093	0.298
-350.493	94.875	0.089	-0.100
-349.479	151.655	-0.255	0.344
-348.464	152.002	-0.232	0.313
-347.450	188.131	0.183	-0.270
-346.435	-13.339	-0.014	-0.009
-345.420	-113.118	0.012	0.002
-344.406	71.481	-0.089	0.091
-343.391	753.015	-0.080	-0.214
-342.377	-59.502	-0.390	0.165
-341.362	-14.774	0.153	-0.097
-340.348	-166.543	-0.165	0.007
-339.333	106.177	0.252	-0.295
-338.318	-27.702	-0.172	-0.098
-337.304	-200.000	-0.012	-0.062
-336.289	-69.749	-0.202	-0.076
-335.275	82.358	-0.180	-0.193
-334.260	137.432	0.260	-0.336
-333.245	111.206	0.104	-0.124
-332.231	232.907	0.126	0.205
-331.216	-200.000	0.003	-0.014
-330.202	-64.799	-0.165	0.066
-329.187	82.824	-0.254	-0.273
-328.172	-32.290	0.095	-0.052
-327.158	-200.000	0.048	0.290
-326.143	11.975	0.255	0.194
-325.129	-61.607	-0.156	0.065
-324.114	800.000	0.065	-0.252
-323.099	-36.096	-0.261	-0.139
-322.085	176.618	0.028	-0.040
-321.070	-200.000	0.001	0.084
-320.056	0.799	0.140	0.099
-319.041	49.590	-0.287	0.267
-318.026	-73.446	0.279	-0.101
-317.012	137.190	-0.012	0.016
-315.997	233.265	0.235	0.382
-314.983	-51.612	0.140	0.065
-313.968	-121.912	-0.129	-0.021
-312.953	-200.000	-0.032	0.227
-311.939	-122.782	0.206	0.033
-310.924	-143.276	0.384	0.036
-309.910	0.613	-0.366	-0.258
-308.895	800.000	0.044	0.155
-307.880	-37.291	0.330	-0.174
-306.866	-20.703	0.038	-0.023
-305.851	-200.000	0.009	-0.086
-304.837	510.008	-0.056	-0.129
-303.822	-200.000	0.041	0.363
-302.807	-98.653	-0.198	-0.050
-301.793	-167.317	0.306	-0.012
-300.778	235.823	-0.039	-0.064
-299.764	-200.000	0.011	0.120
-298.749	-173.493	-0.277	0.008
-297.735	-58.583	0.207	0.089
-296.720	-85.689	0.165	-0.051
-295.705	-88.013	-0.136	-0.040
-294.691	329.730	0.056	0.106
-293.676	-70.918	0.208	0.077
-292.662	58.782	-0.308	-0.299
-291.647	601.790	-0.131	-0.322
-290.632	706.631	0.086	-0.225
-289.618	-103.713	0.283	0.065
-288.603	618.352	-0.068	0.168
-287.589	-47.735	0.051	-0.024
-286.574	-200.000	0.027	-0.271
-285.559	-125.568	-0.190	-0.028
-284.545	-200.000	0.062	-0.382
-283.530	-200.000	-0.012	-0.112
-282.516	646.701	0.072	0.181
-281.501	-47.918	0.191	0.091
-280.486	-200.000	-0.007	-0.195
-279.472	-200.000	0.018	-0.175
-278.457	-37.369	-0.372	0.196
-277.443	77.010	-0.078	0.082
-276.428	362.033	0.110	-0.218
-275.413	464.487	0.088	-0.193
-274.399	-169.291	0.214	0.008
-273.384	-138.133	0.190	-0.021
-272.370	199.052	0.107	-0.161
-271.355	229.662	0.094	0.151
-270.340	-23.616	-0.170	0.100
-269.326	287.053	0.118	0.210
-268.311	-144.495	-0.275	0.025
-267.297	-139.124	0.319	-0.034
-266.282	-52.181	-0.221	0.101
-265.267	126.669	-0.090	-0.112
-264.253	538.792	0.067	-0.157
-263.238	52.711	0.255	-0.240
-262.224	547.271	0.102	0.241
-261.209	437.151	-0.168	-0.362
-260.195	20.686	-0.278	-0.222
-259.180	-200.000	-0.038	0.336
-258.165	386.922	0.111	-0.226
-257.151	594.421	-0.155	0.377
-256.136	-117.424	0.096	0.017
-255.122	-36.437	0.229	0.121
-254.107	800.000	-0.038	0.104
-253.092	751.460	-0.061	-0.163
-252.078	142.406	0.093	-0.121
-251.063	-200.000	-0.011	-0.070
-250.049	56.732	-0.095	0.091
-249.034	-9.822	0.125	0.082
-248.019	-200.000	0.024	-0.318
-247.005	20.704	-0.124	-0.098
-245.990	-200.000	-0.001	-0.056
-244.976	525.101	-0.037	0.086
-243.961	800.000	0.095	-0.322
-242.946	-10.295	-0.264	-0.173
-241.932	43.450	0.105	0.095
-240.917	166.083	-0.250	0.349
-239.903	800.000	-0.072	-0.298
-238.888	-145.231	0.178	0.016
-237.873	-101.320	0.368	0.088
-236.859	-28.663	0.182	0.103
-235.844	3.254	-0.158	-0.113
-234.830	123.942	0.240	0.297
-233.815	-15.672	0.222	0.139
-232.800	-75.707	-0.165	-0.058
-231.786	46.026	0.063	0.058
-230.771	272.966	-0.047	-0.081
-229.757	800.000	-0.135	0.409
-228.742	800.000	0.028	0.105
-227.727	-77.867	0.117	-0.040
-226.713	-183.914	-0.231	0.004
-225.698	24.217	-0.171	0.139
-224.684	40.624	0.193	0.171
-223.669	-152.801	-0.167	-0.012
-222.655	-150.017	-0.408	0.031
-221.640	110.299	-0.156	-0.184
-220.625	-200.000	0.036	-0.232
-219.611	689.191	0.145	-0.374
-218.596	-63.280	-0.169	-0.069
-217.582	-170.950	-0.236	-0.008
-216.567	203.253	-0.154	0.234
-215.552	32.787	0.263	0.224
-214.538	-200.000	0.003	0.104
-213.523	149.815	0.033	0.044
-212.509	-42.085	-0.176	0.088
-211.494	-200.000	-0.039	0.216
-210.479	-200.000	-0.007	0.135
-209.465	138.029	0.161	0.208
-208.450	174.271	-0.087	0.124
-207.436	-200.000	0.051	-0.335
-206.421	800.000	0.117	-0.459
-205.406	133.331	0.199	-0.253
-204.392	182.915	0.080	-0.115
-203.377	336.371	-0.058	-0.111
-202.363	-106.585	0.256	0.056
-201.348	125.760	-0.102	0.126
-200.333	-12.084	0.049	0.032
-199.319	290.730	-0.107	0.191
-198.304	-200.000	0.025	-0.228
-197.290	51.958	0.299	0.280
-196.275	189.946	-0.091	-0.134
-195.260	-200.000	0.002	-0.045
-194.246	-200.000	0.056	-0.294
-193.231	-200.000	-0.038	-0.334
-192.217	-200.000	0.025	-0.112
-191.202	239.392	0.097	-0.158
-190.187	-200.000	-0.015	-0.076
-189.173	125.177	0.207	0.257
-188.158	-126.262	-0.318	-0.047
-187.144	-136.958	-0.422	-0.048
-186.129	626.881	0.043	-0.108
-185.114	729.180	-0.073	-0.192
-184.100	52.794	-0.087	-0.082
-183.085	-200.000	-0.069	0.313
-182.071	265.862	0.061	-0.104
-181.056	10.941	0.133	0.100
-180.042	618.307	0.122	-0.302
-179.027	467.446	0.032	0.071
-178.012	-71.945	0.110	0.040
-176.998	141.493	-0.203	0.264
-175.983	-132.982	0.171	0.021
-174.969	-104.840	-0.187	0.042
-173.954	137.937	0.097	-0.125
-172.939	-200.000	0.008	0.052
-171.925	-141.847	-0.108	0.011
-170.910	-61.976	-0.290	-0.119
-169.896	43.034	-0.143	-0.128
-168.881	344.430	0.039	0.075
-167.866	-200.000	0.055	-0.248
-166.852	15.582	0.162	0.125
-165.837	102.126	-0.083	0.095
-164.823	105.787	-0.338	0.393
-163.808	-200.000	-0.008	-0.189
-162.793	-50.671	-0.252	0.116
-161.779	6.744	0.146	-0.107
-160.764	-109.797	0.187	-0.039
-159.750	333.402	-0.177	0.336
-158.735	-85.951	0.283	-0.086
-157.720	800.000	0.109	-0.303
-156.706	-24.402	-0.203	-0.119
-155.691	-200.000	0.002	0.387
-154.677	208.841	0.118	-0.181
-153.662	-200.000	-0.009	0.103
-152.647	32.035	0.286	0.242
-151.633	-130.440	0.176	0.023
-150.618	-65.438	-0.162	-0.064
-149.604	-89.066	-0.311	0.090
-148.589	204.487	0.112	-0.170
-147.574	-78.100	0.152	-0.051
-146.560	800.000	-0.097	-0.383
-145.545	-200.000	0.008	-0.040
-144.531	39.583	0.072	0.064
-143.516	-200.000	0.023	0.167
-142.502	382.302	0.100	-0.203
-141.487	34.233	0.191	-0.163
-140.472	-116.583	-0.299	0.054
-139.458	-78.976	-0.336	0.112
-138.443	232.393	0.048	0.077
-137.429	-70.567	0.150	-0.056
-136.414	-200.000	0.004	0.038
-135.399	499.862	0.077	-0.173
-134.385	-127.536	-0.238	0.034
-133.370	-35.595	0.149	0.079
-132.356	139.717	-0.169	0.218
-131.341	-191.827	-0.105	0.001
-130.326	-33.559	0.353	-0.191
-129.312	800.000	0.052	0.199
-128.297	-200.000	0.080	-0.441
-127.283	37.754	0.244	-0.213
-126.268	224.324	0.141	-0.223
-125.253	50.939	0.372	-0.346
-124.239	-200.000	-0.049	0.274
-123.224	-121.804	0.102	0.017
-122.210	-119.665	0.226	-0.038
-121.195	-12.063	0.051	0.033
-120.180	-16.288	0.193	-0.120
-119.166	-200.000	-0.055	-0.289
-118.151	507.770	0.042	0.096
-117.137	97.843	-0.260	0.293
-116.122	-23.411	0.223	0.131
-115.107	276.567	0.138	0.240
-114.093	-193.508	0.360	-0.003
-113.078	-94.578	0.290	-0.077
-112.064	106.874	0.126	-0.146
-111.049	-200.000	0.002	0.167
-110.034	722.369	0.097	-0.254
-109.020	150.176	-0.162	0.215
-108.005	-200.000	-0.023	-0.154
-106.991	800.000	-0.093	-0.264
-105.976	-19.252	-0.120	0.073
-104.962	-136.606	0.151	-0.017
-103.947	-20.456	0.005	0.003
-102.932	-44.999	0.220	-0.107
-101.918	-200.000	-0.018	0.238
-100.903	-107.490	0.151	-0.033
-99.889	94.795	-0.058	-0.065
-98.874	378.938	0.112	0.225
-97.859	800.000	0.115	0.357
-96.845	180.593	0.133	-0.191
-95.830	800.000	-0.073	-0.240
-94.816	-59.185	0.136	0.058
-93.801	-113.094	-0.136	-0.026
-92.786	-200.000	0.482	-0.001
-91.772	-99.596	-0.357	0.088
-90.757	-160.721	0.023	-0.001
-89.743	519.532	-0.165	0.378
-88.728	-200.000	-0.068	-0.295
-87.713	-200.000	-0.054	-0.286
-86.699	162.609	0.178	0.244
-85.684	-38.649	-0.098	0.051
-84.670	-200.000	0.017	0.171
-83.655	-98.718	0.257	0.064
-82.640	25.256	-0.307	-0.249
-81.626	192.256	-0.324	0.478
-80.611	-200.000	-0.014	-0.298
-79.597	126.539	0.092	-0.114
-78.582	-61.006	-0.054	0.022
-77.567	143.577	0.168	0.219
-76.553	-200.000	-0.049	0.333
-75.538	27.977	-0.208	0.172
-74.524	-24.696	-0.009	0.005
-73.509	-100.868	0.182	-0.044
-72.494	800.000	0.116	0.333
-71.480	301.261	0.143	-0.258
-70.465	-200.000	0.007	-0.344
-69.451	800.000	-0.074	0.241
-68.436	-106.860	-0.272	-0.059
-67.422	50.998	0.036	0.034
-66.407	800.000	0.106	0.449
-65.392	274.888	0.139	0.241
-64.378	-200.000	-0.019	0.173
-63.363	-200.000	0.023	0.204
-62.349	360.668	0.026	0.052
-61.334	81.865	-0.900	-0.953
-60.319	578.025	0.387	0.925
-59.305	-200.000	-0.069	-1.471
-58.290	438.112	0.583	1.244
-57.276	800.000	0.517	1.801
-56.261	-200.000	112.076	644.607
-55.246	488.107	1486.810	3318.719
-54.232	151.692	2646.229	3524.981
-53.217	104.858	2157.855	2487.056
-52.203	38.322	1694.512	1475.388
-51.188	31.102	1514.688	1269.838
-50.173	28.812	1490.938	1234.512
-49.159	53.341	1548.208	1450.333
-48.144	52.148	1563.733	1456.673
-47.130	31.293	1520.457	1275.777
-46.115	28.173	1505.858	1242.334
-45.100	27.999	1503.171	1238.886
-44.086	28.022	1501.037	1237.233
-43.071	27.975	1498.786	1235.017
-42.057	28.052	1497.181	1234.161
-41.042	27.974	1495.720	1232.379
-40.027	27.920	1493.565	1230.196
-39.013	28.029	1492.642	1230.116
-37.998	27.947	1491.478	1228.559
-36.984	27.878	1490.693	1227.399
-35.969	27.828	1489.479	1226.015
-34.954	27.971	1487.506	1225.305
-33.940	27.963	1486.004	1223.961
-32.925	28.035	1484.482	1223.143
-31.911	28.019	1483.313	1222.021
-30.896	28.041	1481.892	1220.954
-29.881	28.080	1480.759	1220.233
-28.867	28.039	1479.385	1218.778
-27.852	27.961	1478.483	1217.466
-26.838	28.073	1476.727	1216.718
-25.823	27.962	1476.123	1215.430
-24.809	28.049	1474.232	1214.405
-23.794	27.922	1473.203	1212.667
-22.779	27.982	1471.884	1211.932
-21.765	28.103	1470.388	1211.451
-20.750	28.084	1469.464	1210.518
-19.736	28.058	1468.414	1209.430
-18.721	28.000	1467.256	1208.043
-17.706	27.966	1466.153	1206.863
-16.692	28.074	1464.959	1206.549
-15.677	27.954	1463.898	1204.833
-14.663	27.919	1463.269	1204.036
-13.648	27.926	1462.361	1203.288
-12.633	28.003	1461.559	1203.085
-11.619	28.046	1460.172	1202.182
-10.604	27.949	1459.562	1200.992
-9.590	27.974	1458.858	1200.531
-8.575	28.069	1457.681	1200.137
-7.560	27.919	1457.099	1198.627
-6.546	27.906	1456.140	1197.708
-5.531	27.976	1455.268	1197.403
-4.517	27.924	1454.677	1196.525
-3.502	27.924	1453.735	1195.701
-2.487	28.022	1452.001	1194.871
-1.473	27.970	1451.035	1193.689
-0.458	28.025	1449.738	1192.935
0.556	26.249	1439.986	1181.179
1.571	23.056	1414.789	1139.863
2.586	19.543	1354.104	1069.154
3.600	17.938	1270.820	993.974
4.615	16.951	1225.992	953.279
5.629	16.110	1172.815	907.329
6.644	12.784	1096.784	831.672
7.659	9.788	1062.207	790.715
8.673	9.477	1057.272	785.454
9.688	9.275	1054.336	782.223
10.702	9.217	1052.477	780.492
11.717	9.202	1050.474	778.863
12.731	10.460	1050.406	784.840
13.746	13.964	1054.785	805.051
14.761	16.949	1058.212	822.085
15.775	17.562	1058.819	825.454
16.790	16.951	1056.400	820.543
17.804	15.799	1054.594	813.500
18.819	14.896	1052.603	807.530
19.834	14.442	1050.793	803.883
20.848	14.148	1049.558	801.449
21.863	13.810	1049.169	799.456
22.877	13.704	1048.453	798.326
23.892	13.538	1047.441	796.687
24.907	13.377	1047.029	795.533
25.921	13.454	1045.999	795.048
26.936	13.542	1045.399	794.946
27.950	13.588	1044.014	794.042
28.965	13.465	1043.140	792.716
29.980	13.521	1041.837	791.925
30.994	13.729	1040.953	792.176
32.009	13.851	1039.911	791.895
33.023	13.789	1039.261	791.037
34.038	13.739	1038.573	790.202
35.053	13.670	1037.229	788.780
36.067	13.700	1036.248	788.109
37.082	13.590	1035.855	787.220
38.096	13.697	1034.362	786.521
39.111	13.754	1033.803	786.294
40.126	13.708	1033.001	785.400
41.140	13.610	1031.699	783.875
42.155	13.491	1030.771	782.540
43.169	13.471	1029.562	781.456
44.184	13.400	1028.784	780.462
45.199	13.450	1027.472	779.633
46.213	13.436	1026.520	778.776
47.228	13.518	1025.627	778.419
48.242	13.583	1024.685	777.939
49.257	13.624	1023.817	777.401
50.271	13.683	1022.795	776.834
51.286	13.706	1021.534	775.913
52.301	13.486	1021.394	774.708
53.315	13.581	1020.729	774.581
54.330	13.583	1020.032	773.994
55.344	13.590	1018.646	772.905
56.359	13.474	1017.730	771.604
57.374	13.377	1017.048	770.567
58.388	13.455	1016.113	770.151
59.403	13.461	1015.592	769.716
60.417	13.430	1014.557	768.720
61.432	13.414	1014.271	768.361
62.447	13.437	1013.004	767.438
63.461	13.353	1012.436	766.551
64.476	13.300	1011.640	765.635
65.490	13.262	1010.413	764.465
66.505	13.265	1009.796	763.944
67.520	13.422	1008.730	763.796
68.534	13.481	1007.992	763.442
69.549	13.493	1006.924	762.617
70.563	13.387	1006.613	761.829
71.578	13.362	1006.045	761.216
72.593	13.279	1005.148	760.090
73.607	13.280	1004.021	759.174
74.622	13.160	1003.316	758.021
75.636	13.273	1002.358	757.750
76.651	13.301	1001.432	757.110
77.666	13.309	1000.513	756.384
78.680	13.337	1000.245	756.244
79.695	13.290	999.659	755.520
80.709	13.368	999.236	755.490
81.724	13.400	998.101	754.709
82.739	13.298	997.390	753.641
83.753	13.581	996.331	754.061
84.768	13.503	996.374	753.670
85.782	13.756	995.083	753.781
86.797	13.834	994.294	753.469
87.812	13.751	993.714	752.584
88.826	13.551	992.668	750.823
89.841	13.644	992.296	750.893
90.855	13.640	991.134	749.933
91.870	13.503	991.135	749.247
92.884	13.770	989.671	749.280
93.899	13.689	989.355	748.608
94.914	13.763	988.340	748.105
95.928	13.729	987.757	747.445
96.943	13.795	986.949	747.067
97.957	13.738	985.998	746.022
98.972	13.691	985.074	745.046
99.987	13.685	984.328	744.390
101.001	13.757	983.411	743.955
102.016	13.675	982.738	743.009
103.030	13.721	981.720	742.382
104.045	13.564	981.218	741.234
105.060	13.632	980.151	740.665
106.074	13.599	979.177	739.716
107.089	13.596	978.070	738.804
108.103	13.440	977.593	737.680
109.118	13.409	976.335	736.527
110.133	13.438	975.821	736.206
111.147	13.492	974.957	735.727
112.162	13.681	973.545	735.437
113.176	13.467	973.090	734.080
114.191	13.632	971.963	733.894
115.206	13.529	971.411	732.957
116.220	13.560	970.666	732.467
117.235	13.525	969.537	731.393
118.249	13.487	969.162	730.878
119.264	13.485	968.062	729.978
120.279	13.500	967.252	729.365
121.293	13.468	966.258	728.413
122.308	13.424	965.533	727.609
123.322	13.494	964.596	727.145
124.337	13.300	963.722	725.568
125.352	13.363	962.649	724.975
126.366	13.438	961.607	724.453
127.381	13.261	960.521	722.798
128.395	13.536	959.415	723.105
129.410	13.456	958.312	721.857
130.424	13.441	957.461	721.088
131.439	13.376	956.912	720.328
132.454	13.451	956.217	720.069
133.468	13.466	955.428	719.474
134.483	13.512	954.778	719.120
135.497	13.546	954.075	718.677
136.512	13.543	952.824	717.655
137.527	13.500	952.869	717.440
138.541	13.506	951.468	716.350
139.556	13.484	950.990	715.828
140.570	13.650	950.254	715.931
141.585	13.539	949.897	715.119
142.600	13.695	948.528	714.695
143.614	13.668	948.242	714.301
144.629	13.779	947.494	714.152
145.643	13.703	946.728	713.184
146.658	13.912	945.252	712.906
147.673	13.715	944.796	711.657
148.687	13.655	943.820	710.599
149.702	13.703	943.048	710.161
150.716	13.524	942.092	708.614
151.731	13.678	941.264	708.584
152.746	13.613	940.593	707.740
153.760	13.654	939.637	707.132
154.775	13.640	939.333	706.781
155.789	13.756	938.150	706.323
156.804	13.969	936.960	706.270
157.819	13.910	936.502	705.613
158.833	13.811	936.594	705.198
159.848	13.821	936.059	704.775
160.862	13.815	935.033	703.916
161.877	13.964	934.604	704.163
162.892	13.801	933.488	702.570
163.906	13.811	932.469	701.784
164.921	13.589	931.947	700.388
165.935	13.643	930.615	699.554
166.950	13.653	929.808	698.925
167.964	13.857	928.781	698.952
168.979	13.835	927.978	698.192
169.994	13.820	926.859	697.226
171.008	13.683	926.224	696.113
172.023	13.853	925.739	696.400
173.037	13.874	924.741	695.678
174.052	13.933	923.946	695.262
175.067	13.963	923.331	694.866
176.081	13.806	922.680	693.655
177.096	13.864	921.679	693.086
178.110	13.859	921.099	692.568
179.125	13.867	920.106	691.792
180.140	13.883	919.493	691.336
181.154	13.876	918.966	690.848
182.169	13.781	918.883	690.330
183.183	13.968	918.099	690.457
184.198	13.966	917.180	689.696
185.213	14.038	916.121	689.140
186.227	13.907	916.167	688.569
187.242	13.976	915.787	688.508
188.256	14.152	914.365	688.109
189.271	14.134	914.068	687.748
190.286	14.219	913.010	687.240
191.300	14.080	912.454	686.190
192.315	13.858	911.709	684.651
193.329	13.831	910.953	683.912
194.344	13.933	910.066	683.608
195.359	13.871	909.694	683.010
196.373	13.853	909.332	682.607
197.388	14.062	908.840	683.034
198.402	14.070	908.294	682.596
199.417	14.214	907.656	682.649
200.432	14.364	906.983	682.697
201.446	14.345	906.782	682.407
202.461	14.391	906.076	682.001
203.475	14.470	905.606	681.913
204.490	14.288	905.073	680.707
205.504	14.359	904.120	680.218
206.519	14.374	903.209	679.533
207.534	14.422	902.398	679.062
208.548	14.358	901.468	678.040
209.563	14.331	901.121	677.606
210.577	14.269	900.731	677.003
211.592	14.260	899.805	676.210
212.607	14.321	899.405	676.098
213.621	14.509	898.802	676.346
214.636	14.502	898.031	675.677
215.650	14.409	897.375	674.750
216.665	14.589	896.978	675.117
217.680	14.423	896.653	674.145
218.694	14.493	895.820	673.743
219.709	14.598	895.216	673.652
220.723	14.598	894.505	673.058
221.738	14.550	894.471	672.778
222.753	14.557	893.431	671.963
223.767	14.617	892.462	671.419
224.782	14.626	892.131	671.144
225.796	14.646	891.165	670.440
226.811	14.688	890.334	669.922
227.826	14.653	889.902	669.399
228.840	14.452	889.200	668.007
229.855	14.537	888.306	667.614
230.869	14.673	887.724	667.663
231.884	14.629	887.010	666.892
232.899	14.565	886.542	666.225
233.913	14.484	885.829	665.307
234.928	14.609	884.796	664.970
235.942	14.607	883.978	664.289
236.957	14.614	883.681	664.036
237.972	14.511	883.025	663.071
238.986	14.728	882.113	663.192
240.001	14.672	881.448	662.412
241.015	14.602	881.349	661.998
242.030	14.582	880.785	661.437
243.045	14.666	879.899	661.047
244.059	14.756	878.952	660.633
245.074	14.832	878.301	660.385
246.088	14.949	877.787	660.404
247.103	14.643	877.618	659.007
248.117	14.833	876.613	658.946
249.132	14.875	876.629	659.064
250.147	14.977	875.707	658.713
251.161	15.139	874.795	658.607
252.176	15.003	874.505	657.795
253.190	15.128	873.813	657.707
254.205	15.166	872.823	657.053
255.220	15.236	872.359	656.923
256.234	15.193	872.080	656.485
257.249	15.132	871.172	655.506
258.263	15.314	870.624	655.744
259.278	15.176	870.210	654.836
260.293	15.451	869.339	655.195
261.307	15.350	868.772	654.316
262.322	15.427	868.593	654.426
263.336	15.278	868.221	653.507
264.351	15.390	867.643	653.448
265.366	15.367	866.776	652.650
266.380	15.509	865.953	652.523
267.395	15.538	865.070	651.911
268.409	15.395	864.368	650.773
269.424	15.439	863.566	650.282
270.439	15.422	863.252	649.920
271.453	15.380	862.633	649.233
272.468	15.351	861.910	648.523
273.482	15.373	861.389	648.155
274.497	15.387	860.841	647.742
275.512	15.556	859.799	647.553
276.526	15.389	859.249	646.437
277.541	15.474	858.432	646.091
278.555	15.434	858.010	645.563
279.570	15.339	857.497	644.754
280.585	15.607	857.105	645.434
281.599	15.595	856.324	644.743
282.614	15.561	855.780	644.145
283.628	15.645	854.504	643.446
284.643	15.440	854.628	642.701
285.657	15.529	854.028	642.531
286.672	15.659	853.775	642.783
287.687	15.600	853.267	642.118
288.701	15.623	852.289	641.411
289.716	15.665	851.519	640.936
290.730	15.620	851.322	640.560
291.745	15.701	850.709	640.351
292.760	15.783	849.996	640.068
293.774	15.771	848.985	639.204
294.789	15.721	848.685	638.732
295.803	15.856	848.320	638.916
296.818	15.776	847.727	638.106
297.833	15.581	847.319	637.003
298.847	15.618	846.438	636.426
299.862	15.856	845.519	636.579
300.876	15.696	845.158	635.648
301.891	15.726	844.670	635.338
302.906	16.044	843.590	635.669
303.920	15.911	843.021	634.679
304.935	15.930	842.761	634.501
305.949	16.152	841.696	634.477
306.964	16.192	841.382	634.337
307.979	16.063	840.573	633.186
308.993	15.963	840.367	632.599
310.008	16.170	839.882	632.954
311.022	16.079	839.535	632.297
312.037	16.123	838.712	631.785
313.052	16.039	838.189	631.022
314.066	16.066	837.379	630.457
315.081	16.018	836.921	629.874
316.095	15.900	836.447	629.022
317.110	15.941	835.941	628.740
318.125	15.907	835.641	628.332
319.139	15.934	834.943	627.851
320.154	15.979	834.196	627.401
321.168	15.946	833.659	626.819
322.183	16.023	833.210	626.714
323.197	16.001	832.814	626.279
324.212	16.129	832.039	626.115
325.227	16.082	831.686	625.620
326.241	16.086	831.057	625.105
327.256	16.066	830.688	624.700
328.270	16.040	830.095	624.100
329.285	15.951	829.888	623.562
330.300	15.909	828.791	622.525
331.314	16.093	828.455	622.898
332.329	16.181	827.619	622.539
333.343	16.163	827.068	622.003
334.358	16.218	826.641	621.831
335.373	16.202	826.067	621.283
336.387	16.256	825.564	621.051
337.402	16.203	825.102	620.454
338.416	16.285	824.405	620.174
339.431	16.367	823.762	619.935
340.446	16.421	823.673	620.013
341.460	16.454	822.882	619.483
342.475	16.641	822.104	619.529
343.489	16.572	821.715	618.927
344.504	16.519	821.258	618.333
345.519	16.677	820.628	618.383
346.533	16.646	820.351	618.005
347.548	16.496	820.071	617.192
348.562	16.626	818.906	616.734
349.577	16.692	818.494	616.612
350.592	16.486	818.116	615.522
351.606	16.557	817.338	615.140
352.621	16.386	817.260	614.407
353.635	16.486	816.842	614.399
354.650	16.590	816.356	614.357
355.665	16.531	816.041	613.850
356.679	16.725	815.118	613.808
357.694	16.451	815.373	612.952
358.708	16.539	814.931	612.882
359.723	16.616	813.873	612.312
360.738	16.571	813.141	611.544
361.752	16.708	812.785	611.716
362.767	16.665	812.389	611.212
363.781	16.665	812.301	611.090
364.796	16.818	811.845	611.245
365.810	16.867	811.073	610.784
366.825	16.887	810.830	610.622
367.840	17.076	810.544	611.033
368.854	17.001	810.040	610.329
369.869	17.025	809.281	609.788
370.883	16.884	808.931	608.966
371.898	16.919	808.625	608.806
372.913	16.848	808.015	608.037
373.927	17.011	807.395	608.103
374.942	16.954	806.807	607.403
375.956	16.937	806.299	606.904
376.971	16.975	805.212	606.169
377.986	17.078	805.096	606.397
379.000	17.175	804.526	606.259
380.015	17.141	803.795	605.532
381.029	17.277	803.550	605.778
382.044	17.278	802.901	605.241
383.059	17.146	802.196	604.186
384.073	17.336	801.451	604.246
385.088	17.232	801.246	603.667
386.102	17.233	800.304	602.908
387.117	17.123	800.199	602.387
388.132	17.135	799.895	602.146
389.146	17.109	799.153	601.443
390.161	17.137	798.864	601.272
391.175	17.293	798.531	601.520
392.190	17.188	798.160	600.814
393.205	17.247	798.039	600.880
394.219	17.215	797.374	600.213
395.234	17.221	796.598	599.596
396.248	17.229	796.227	599.291
397.263	17.247	795.550	598.792
398.278	17.190	795.025	598.144
399.292	16.995	795.067	597.436
400.307	17.081	794.809	597.493
401.321	17.129	794.328	597.245
402.336	17.144	793.883	596.913
403.350	17.208	793.115	596.505
404.365	17.290	792.808	596.510
405.380	17.247	792.663	596.199
406.394	17.344	792.169	596.113
407.409	17.421	791.701	595.979
408.423	17.432	791.259	595.633
409.438	17.455	790.778	595.298
410.453	17.577	790.035	595.112
411.467	17.674	789.794	595.215
412.482	17.623	789.264	594.585
413.496	17.582	789.299	594.415
414.511	17.583	788.790	593.985
415.526	17.680	788.208	593.832
416.540	17.617	787.758	593.220
417.555	17.697	787.149	592.988
418.569	17.739	786.788	592.810
419.584	17.719	786.137	592.199
420.599	17.789	785.863	592.182
421.613	111.789	1292.725	1477.257
422.628	95.928	1366.561	1477.340
