DTS Sentinel unit serial number:	SN413079Multiplexer serial number:	ORYXHardware model number:	OX4-SRSoftware version number:	ORYX F/W v4.00 Oryx Data Collector v3.7.2.0data status	okinstallation	princeton_trtdifferential loss correction	single-endedforward channel	channel 3reverse channel	N/Adate	2019/09/13time	09:16:35forward acquisition time	60.00reverse acquisition time	0.00gamma	496.2192k internal	0.2326k external	0.2326temperature offset calibration	1.0137default loss term (dB/km)	0.3790temperature slope calibration	1.0000multiplexer offset coefficient	1.0000multiplexer slope coefficient	1.0000fibre end	0.00T internal ref (°C)	29.05T ext. ref 1 (°C)	4.39T ext. ref 2 (°C)	26.36length (m)	temperature (°C)	Stokes	anti-Stokes-747.200	800.000	0.077	0.270
-746.185	-83.657	-0.202	0.065
-745.171	32.513	0.113	0.099
-744.156	446.664	0.132	0.294
-743.142	-200.000	0.042	0.393
-742.127	74.738	-0.124	0.132
-741.112	204.484	-0.053	-0.084
-740.098	800.000	-0.046	0.140
-739.083	-71.433	-0.145	-0.055
-738.069	800.000	-0.059	-0.234
-737.054	222.316	0.131	0.212
-736.039	-142.315	-0.168	0.017
-735.025	-129.721	0.151	0.021
-734.010	310.628	-0.090	0.170
-732.996	316.059	0.089	0.169
-731.981	650.888	-0.105	0.272
-730.966	166.565	-0.107	0.152
-729.952	800.000	-0.061	-0.183
-728.937	249.781	-0.054	-0.093
-727.923	800.000	-0.063	0.185
-726.908	-200.000	0.021	0.148
-725.894	759.972	-0.108	-0.294
-724.879	295.678	0.158	-0.291
-723.864	370.428	-0.097	-0.198
-722.850	-108.140	-0.095	-0.021
-721.835	111.783	0.059	-0.072
-720.821	-72.432	-0.250	-0.093
-719.806	-200.000	0.002	-0.089
-718.791	-63.620	-0.061	-0.025
-717.777	-200.000	0.000	0.005
-716.762	800.000	-0.048	0.190
-715.748	4.211	-0.068	0.050
-714.733	-200.000	-0.074	-0.342
-713.718	12.191	0.259	-0.201
-712.704	-139.523	-0.171	-0.018
-711.689	-143.675	0.144	0.014
-710.675	-54.838	0.311	0.142
-709.660	-200.000	0.006	0.317
-708.645	-152.055	-0.131	0.010
-707.631	-11.711	-0.140	0.093
-706.616	150.542	-0.027	0.037
-705.602	106.978	0.321	-0.384
-704.587	800.000	-0.017	-0.062
-703.572	69.131	0.040	0.041
-702.558	226.268	0.086	0.140
-701.543	-48.802	0.418	-0.202
-700.529	-200.000	0.007	-0.161
-699.514	-200.000	-0.007	-0.222
-698.499	9.956	-0.274	0.209
-697.485	666.848	0.104	-0.270
-696.470	35.803	-0.127	0.113
-695.456	-200.000	0.043	0.000
-694.441	-89.349	0.217	0.064
-693.426	-162.319	-0.213	0.011
-692.412	-49.853	-0.090	-0.043
-691.397	-123.278	0.453	0.073
-690.383	42.817	-0.172	-0.158
-689.368	800.000	0.051	-0.217
-688.354	326.589	-0.090	0.173
-687.339	-106.827	0.119	-0.027
-686.324	22.506	0.085	0.070
-685.310	-200.000	-0.053	-0.246
-684.295	800.000	-0.061	-0.184
-683.281	-200.000	0.018	-0.157
-682.266	800.000	-0.117	0.345
-681.251	-79.932	0.200	-0.068
-680.237	170.505	0.036	0.052
-679.222	108.924	-0.188	0.226
-678.208	-200.000	0.002	-0.216
-677.193	-86.079	0.247	0.077
-676.178	-200.000	-0.041	-0.281
-675.164	-13.638	-0.243	-0.158
-674.149	-114.697	0.198	0.038
-673.135	800.000	-0.024	0.086
-672.120	-160.065	-0.192	0.011
-671.105	-30.994	-0.127	-0.072
-670.091	-200.000	0.046	-0.206
-669.076	-200.000	-0.025	-0.143
-668.062	-14.228	-0.156	-0.101
-667.047	-131.532	-0.177	-0.023
-666.032	800.000	0.026	0.083
-665.018	-176.578	-0.161	0.004
-664.003	161.659	0.213	-0.299
-662.989	667.232	-0.103	0.267
-661.974	-89.226	-0.226	0.067
-660.959	34.798	-0.305	-0.268
-659.945	-200.000	0.062	0.320
-658.930	10.978	0.137	0.105
-657.916	-31.741	0.049	-0.028
-656.901	37.273	-0.173	0.154
-655.886	-34.594	-0.088	0.048
-654.872	99.838	-0.133	-0.155
-653.857	172.897	0.294	0.425
-652.843	77.606	0.172	-0.184
-651.828	-200.000	-0.007	-0.103
-650.814	230.631	0.103	-0.170
-649.799	-32.713	-0.127	0.071
-648.784	355.516	0.072	0.143
-647.770	-72.627	0.192	0.071
-646.755	-141.639	0.026	0.003
-645.741	-200.000	0.021	-0.158
-644.726	34.450	0.207	0.182
-643.711	-200.000	0.013	0.096
-642.697	-124.463	0.136	0.021
-641.682	-200.000	0.005	0.136
-640.668	-91.462	0.304	0.087
-639.653	-200.000	0.083	-0.578
-638.638	63.947	-0.154	-0.156
-637.624	-117.956	-0.415	0.075
-636.609	-200.000	-0.042	0.186
-635.595	-200.000	0.094	-0.481
-634.580	4.619	-0.247	-0.182
-633.565	169.054	-0.196	-0.280
-632.551	4.914	-0.199	0.147
-631.536	-50.638	-0.098	0.046
-630.522	345.838	0.114	0.226
-629.507	149.593	-0.113	0.153
-628.492	-151.018	-0.243	0.018
-627.478	-114.663	0.117	-0.023
-626.463	186.370	-0.139	-0.207
-625.449	534.256	0.115	-0.273
-624.434	78.499	-0.322	-0.346
-623.419	31.034	0.350	-0.302
-622.405	-147.070	-0.171	-0.015
-621.390	18.761	-0.069	0.055
-620.376	-10.815	-0.190	-0.126
-619.361	800.000	0.041	-0.140
-618.346	-19.438	-0.408	0.254
-617.332	527.296	0.095	0.225
-616.317	-22.216	0.165	0.100
-615.303	-90.010	0.242	-0.071
-614.288	111.130	0.171	0.207
-613.273	-141.249	-0.283	-0.029
-612.259	-200.000	-0.033	-0.271
-611.244	-2.925	-0.347	-0.243
-610.230	284.975	-0.087	-0.157
-609.215	22.245	-0.037	-0.030
-608.201	90.553	-0.047	-0.053
-607.186	77.670	0.074	-0.079
-606.171	-62.999	-0.203	-0.084
-605.157	-106.921	-0.360	-0.080
-604.142	378.371	-0.085	-0.174
-603.128	-145.012	-0.170	0.016
-602.113	-38.089	-0.350	0.186
-601.098	800.000	0.071	-0.259
-600.084	585.174	0.090	0.221
-599.069	14.526	0.121	-0.095
-598.055	-187.554	0.310	-0.004
-597.040	800.000	-0.073	-0.202
-596.025	119.815	0.083	0.104
-595.011	-149.107	0.348	0.028
-593.996	113.006	-0.217	0.264
-592.982	-57.928	-0.163	0.072
-591.967	-200.000	0.029	0.215
-590.952	-31.354	0.217	-0.123
-589.938	254.704	-0.240	-0.412
-588.923	800.000	0.106	0.327
-587.909	-69.915	0.022	-0.009
-586.894	67.986	0.069	0.071
-585.879	-200.000	0.013	0.134
-584.865	-187.926	-0.386	0.005
-583.850	-74.917	0.123	0.044
-582.836	-73.160	0.117	0.043
-581.821	-200.000	-0.051	0.268
-580.806	-164.337	-0.165	-0.008
-579.792	339.078	-0.185	0.361
-578.777	-114.800	-0.180	0.035
-577.763	25.962	-0.131	-0.109
-576.748	-180.882	-0.291	0.006
-575.733	-107.064	0.305	-0.067
-574.719	126.255	-0.081	0.103
-573.704	-124.189	-0.369	-0.058
-572.690	73.712	0.179	-0.187
-571.675	-200.000	-0.012	-0.167
-570.661	-57.473	-0.314	-0.138
-569.646	-55.788	-0.104	0.047
-568.631	-31.592	0.085	0.048
-567.617	-42.415	0.098	0.050
-566.602	-200.000	0.008	-0.170
-565.588	-200.000	-0.068	-0.373
-564.573	146.770	0.185	-0.249
-563.558	194.386	-0.050	-0.076
-562.544	-200.000	0.009	-0.044
-561.529	-200.000	-0.027	0.574
-560.515	475.478	0.218	0.493
-559.500	-187.002	0.074	-0.001
-558.485	-51.737	0.187	0.087
-557.471	-64.446	-0.240	0.098
-556.456	-132.660	-0.343	0.044
-555.442	195.683	-0.035	0.054
-554.427	27.517	0.231	-0.195
-553.412	800.000	-0.070	-0.234
-552.398	-104.574	0.267	-0.062
-551.383	56.920	-0.161	-0.157
-550.369	-200.000	0.016	-0.088
-549.354	272.809	0.070	0.124
-548.339	216.779	0.164	-0.261
-547.325	-17.888	0.156	-0.098
-546.310	800.000	0.070	-0.233
-545.296	449.538	0.054	0.120
-544.281	261.196	0.060	0.104
-543.266	-125.266	0.031	0.005
-542.252	-200.000	-0.069	0.432
-541.237	-95.514	0.140	0.038
-540.223	-82.964	0.520	0.168
-539.208	-69.496	0.438	0.168
-538.193	-91.004	0.045	0.013
-537.179	63.134	-0.096	0.096
-536.164	377.236	-0.045	0.093
-535.150	-65.824	0.192	0.077
-534.135	800.000	-0.061	-0.179
-533.121	-20.220	0.317	0.195
-532.106	-128.095	-0.186	0.027
-531.091	-44.135	0.011	-0.006
-530.077	410.686	0.090	-0.190
-529.062	-96.418	0.177	-0.047
-528.048	-122.850	-0.114	0.018
-527.033	331.262	0.031	-0.060
-526.018	473.312	0.087	0.197
-525.004	92.856	-0.115	-0.130
-523.989	17.742	-0.279	-0.222
-522.975	-76.799	0.134	-0.047
-521.960	312.547	0.055	-0.104
-520.945	-118.392	0.215	0.038
-519.931	281.597	0.118	0.211
-518.916	-34.532	0.113	-0.062
-517.902	63.261	0.214	-0.214
-516.887	-200.000	0.019	-0.387
-515.872	149.851	0.071	0.097
-514.858	30.022	-0.111	-0.095
-513.843	17.831	0.345	-0.275
-512.829	-73.402	0.017	-0.006
-511.814	108.746	-0.275	-0.328
-510.799	-200.000	-0.032	-0.284
-509.785	80.001	0.304	0.327
-508.770	-72.896	-0.116	-0.043
-507.756	9.338	0.105	-0.079
-506.741	-115.007	0.174	-0.033
-505.726	-24.045	-0.154	-0.092
-504.712	253.589	-0.172	-0.294
-503.697	-27.258	-0.306	-0.178
-502.683	-43.963	0.143	0.072
-501.668	327.958	0.107	-0.206
-500.653	484.429	-0.118	0.268
-499.639	-126.254	-0.207	0.031
-498.624	-200.000	0.054	0.357
-497.610	232.830	-0.172	0.282
-496.595	-200.000	0.073	-0.330
-495.581	-41.764	-0.095	-0.049
-494.566	-162.966	-0.128	-0.006
-493.551	800.000	-0.013	-0.058
-492.537	-51.556	0.221	-0.103
-491.522	-200.000	0.023	0.158
-490.508	-200.000	-0.082	-0.582
-489.493	427.985	-0.196	0.422
-488.478	-177.467	0.315	-0.008
-487.464	-57.846	-0.184	0.080
-486.449	19.262	0.101	0.081
-485.435	618.953	-0.051	0.127
-484.420	96.813	0.216	-0.247
-483.405	245.894	-0.181	-0.304
-482.391	312.708	0.041	-0.076
-481.376	-200.000	-0.006	0.033
-480.362	53.317	0.129	-0.124
-479.347	10.080	0.046	0.035
-478.332	64.047	0.156	-0.156
-477.318	34.362	0.139	-0.121
-476.303	800.000	-0.098	-0.273
-475.289	-181.928	-0.244	-0.005
-474.274	-140.958	-0.223	0.023
-473.259	-200.000	-0.001	-0.049
-472.245	-92.536	-0.143	0.040
-471.230	-200.000	0.009	0.087
-470.216	-200.000	0.045	0.204
-469.201	800.000	0.023	0.066
-468.186	-155.585	0.099	-0.006
-467.172	-169.924	0.046	-0.002
-466.157	800.000	0.139	-0.499
-465.143	-82.772	-0.294	0.095
-464.128	3.098	0.282	0.205
-463.113	-90.409	-0.112	-0.032
-462.099	220.814	0.044	-0.070
-461.084	-200.000	0.005	0.302
-460.070	-105.801	-0.430	-0.097
-459.055	259.395	-0.171	-0.294
-458.040	-22.006	-0.135	-0.082
-457.026	-0.332	0.089	-0.063
-456.011	-76.376	0.211	0.074
-454.997	42.322	0.074	-0.067
-453.982	800.000	-0.076	-0.285
-452.968	672.376	0.121	0.312
-451.953	-200.000	0.032	0.448
-450.938	-150.952	-0.233	-0.018
-449.924	-200.000	0.011	0.173
-448.909	-86.112	-0.125	-0.038
-447.895	380.645	0.166	-0.340
-446.880	-106.731	-0.205	-0.045
-445.865	-89.255	-0.330	0.097
-444.851	-106.296	-0.573	-0.128
-443.836	-34.852	-0.201	-0.109
-442.822	-200.000	-0.005	0.248
-441.807	465.100	-0.139	-0.310
-440.792	294.368	0.156	-0.285
-439.778	-200.000	-0.031	0.204
-438.763	238.229	0.132	0.219
-437.749	-50.257	0.162	0.076
-436.734	73.827	0.080	-0.084
-435.719	340.763	-0.099	-0.193
-434.705	288.438	-0.123	0.221
-433.690	-156.030	0.157	-0.010
-432.676	83.222	-0.017	0.018
-431.661	361.188	-0.196	0.392
-430.646	-128.600	-0.274	-0.039
-429.632	-110.600	-0.087	-0.018
-428.617	-200.000	-0.004	0.248
-427.603	800.000	0.051	0.166
-426.588	-200.000	-0.042	0.266
-425.573	181.607	0.147	0.216
-424.559	25.743	-0.202	-0.168
-423.544	-80.382	-0.281	-0.094
-422.530	-200.000	-0.020	0.139
-421.515	28.272	-0.099	0.083
-420.500	-200.000	0.058	0.257
-419.486	245.575	-0.115	-0.193
-418.471	332.680	0.087	-0.167
-417.457	698.529	0.149	0.390
-416.442	23.814	-0.069	-0.057
-415.428	-162.641	0.436	-0.021
-414.413	151.086	0.141	-0.191
-413.398	-148.979	0.015	0.001
-412.384	-28.929	0.239	0.137
-411.369	800.000	0.089	-0.274
-410.355	-44.425	-0.435	0.217
-409.340	208.299	0.112	0.175
-408.325	390.864	0.117	0.241
-407.311	-64.940	-0.152	0.061
-406.296	69.735	-0.239	-0.245
-405.282	-42.186	-0.530	-0.270
-404.267	466.792	0.106	0.237
-403.252	14.974	-0.345	-0.269
-402.238	-50.408	-0.093	0.044
-401.223	800.000	0.037	0.134
-400.209	174.896	-0.163	-0.235
-399.194	-74.715	0.278	-0.099
-398.179	532.157	0.065	-0.154
-397.165	-155.650	0.316	0.020
-396.150	-70.300	-0.159	-0.060
-395.136	-92.660	0.377	-0.105
-394.121	800.000	-0.015	0.051
-393.106	183.947	-0.181	-0.266
-392.092	-200.000	-0.004	-0.195
-391.077	-142.637	-0.267	-0.026
-390.063	-73.827	0.017	-0.006
-389.048	-43.980	0.352	-0.176
-388.033	182.961	0.109	-0.160
-387.019	-200.000	-0.047	-0.249
-386.004	-3.805	0.259	0.179
-384.990	14.130	0.139	0.107
-383.975	-109.669	0.292	-0.061
-382.960	334.831	0.016	0.031
-381.946	227.936	0.259	-0.420
-380.931	-0.151	-0.126	0.089
-379.917	686.215	-0.104	0.270
-378.902	17.131	-0.268	0.211
-377.888	-19.384	-0.157	-0.097
-376.873	58.190	-0.258	0.252
-375.858	44.884	-0.164	-0.151
-374.844	-154.440	-0.223	0.015
-373.829	521.913	0.031	-0.073
-372.815	26.868	-0.594	0.495
-371.800	800.000	0.053	0.225
-370.785	-200.000	0.006	0.138
-369.771	31.808	0.092	0.078
-368.756	176.961	-0.220	0.318
-367.742	50.500	0.091	-0.085
-366.727	-200.000	-0.021	0.233
-365.712	-150.223	-0.313	-0.024
-364.698	18.559	0.121	-0.096
-363.683	106.752	0.056	-0.066
-362.669	-200.000	-0.007	-0.256
-361.654	-200.000	0.025	-0.195
-360.639	121.089	-0.198	-0.244
-359.625	-8.431	-0.115	0.076
-358.610	-200.000	-0.013	0.239
-357.596	-135.910	0.320	0.037
-356.581	-93.427	-0.256	0.071
-355.566	-200.000	0.018	0.085
-354.552	-200.000	-0.029	0.351
-353.537	-0.345	0.120	0.085
-352.523	77.117	0.286	-0.302
-351.508	800.000	-0.098	0.313
-350.493	214.554	0.086	0.136
-349.479	-200.000	0.011	-0.200
-348.464	300.275	0.094	0.171
-347.450	-122.375	0.256	-0.041
-346.435	63.228	-0.078	0.078
-345.420	-23.170	-0.197	-0.118
-344.406	-111.216	-0.328	0.067
-343.391	-18.090	-0.197	-0.123
-342.377	157.680	-0.085	-0.117
-341.362	-200.000	-0.013	0.122
-340.348	290.639	-0.058	-0.104
-339.333	-200.000	-0.011	0.094
-338.318	440.650	0.068	-0.149
-337.304	800.000	0.049	-0.184
-336.289	136.333	0.201	-0.260
-335.275	-200.000	-0.022	-0.201
-334.260	-200.000	0.011	-0.102
-333.245	90.334	0.251	0.278
-332.231	797.809	-0.055	0.150
-331.216	800.000	0.042	0.177
-330.202	43.986	-0.190	-0.172
-329.187	-200.000	-0.035	0.182
-328.172	20.771	0.283	-0.228
-327.158	800.000	0.138	0.468
-326.143	-29.974	0.083	0.047
-325.129	-92.496	0.056	0.016
-324.114	-200.000	0.020	-0.126
-323.099	800.000	0.086	0.287
-322.085	145.370	-0.142	-0.189
-321.070	-125.900	-0.015	0.002
-320.056	338.976	-0.104	-0.200
-319.041	-37.693	-0.137	0.072
-318.026	-79.694	-0.112	-0.038
-317.012	-131.342	-0.324	-0.043
-315.997	800.000	-0.081	0.284
-314.983	199.608	0.258	0.392
-313.968	-90.354	-0.174	-0.050
-312.953	209.002	0.006	0.009
-311.939	-134.367	0.455	0.055
-310.924	152.355	-0.096	-0.130
-309.910	-55.798	0.161	0.071
-308.895	-50.652	-0.365	0.170
-307.880	252.826	0.143	-0.242
-306.866	-74.646	0.371	-0.132
-305.851	-21.772	0.099	0.059
-304.837	-68.225	0.277	0.107
-303.822	800.000	0.067	0.187
-302.807	-21.108	0.146	0.089
-301.793	-97.204	0.199	0.052
-300.778	209.640	0.025	0.038
-299.764	82.843	0.035	-0.038
-298.749	-126.391	0.189	-0.028
-297.735	800.000	-0.090	-0.286
-296.720	-96.926	0.384	0.100
-295.705	66.891	0.135	0.136
-294.691	29.670	0.194	-0.164
-293.676	-9.499	-0.200	0.132
-292.662	-200.000	-0.018	0.172
-291.647	12.011	-0.215	-0.164
-290.632	-94.690	0.087	0.024
-289.618	-200.000	0.016	-0.380
-288.603	-27.722	0.292	0.168
-287.589	-105.921	-0.213	0.048
-286.574	-200.000	-0.050	0.225
-285.559	148.890	-0.150	0.200
-284.545	68.462	0.094	0.095
-283.530	-57.664	-0.078	-0.034
-282.516	213.359	-0.080	0.125
-281.501	-131.786	-0.187	-0.024
-280.486	-133.980	-0.204	-0.025
-279.472	175.558	0.068	0.098
-278.457	208.803	0.106	0.165
-277.443	-132.655	-0.087	0.011
-276.428	-174.578	-0.156	0.004
-275.413	-114.282	0.121	-0.023
-274.399	-108.164	0.401	-0.086
-273.384	800.000	0.106	0.330
-272.370	800.000	0.075	0.320
-271.355	2.547	0.143	0.103
-270.340	-200.000	-0.056	0.365
-269.326	1.595	0.367	0.262
-268.311	-115.629	-0.135	-0.025
-267.297	132.368	-0.174	0.222
-266.282	-11.193	0.275	-0.179
-265.267	264.126	0.048	0.083
-264.253	-200.000	-0.020	-0.137
-263.238	-61.283	0.174	0.072
-262.224	-48.281	-0.359	0.172
-261.209	-200.000	-0.014	0.121
-260.195	9.175	-0.288	-0.215
-259.180	-200.000	-0.008	0.257
-258.165	-72.934	0.274	0.100
-257.151	-69.884	0.322	0.121
-256.136	-85.843	0.104	0.032
-255.122	-116.903	0.463	0.084
-254.107	246.504	-0.160	0.266
-253.092	34.808	-0.054	0.047
-252.078	-88.649	-0.059	0.017
-251.063	264.942	-0.201	-0.347
-250.049	271.816	-0.074	0.129
-249.034	800.000	0.035	-0.112
-248.019	376.582	0.040	-0.082
-247.005	-23.999	-0.159	0.094
-245.990	-200.000	0.026	-0.148
-244.976	367.388	-0.053	0.106
-243.961	-43.525	-0.091	-0.045
-242.946	-14.049	0.246	-0.157
-241.932	800.000	0.082	-0.312
-240.917	388.584	0.044	0.089
-239.903	402.042	-0.143	0.298
-238.888	-85.652	0.327	-0.101
-237.873	505.007	0.140	-0.320
-236.859	619.695	0.082	-0.204
-235.844	-200.000	-0.024	0.125
-234.830	72.173	0.072	-0.074
-233.815	50.097	0.234	0.218
-232.800	-200.000	0.014	0.236
-231.786	800.000	0.075	-0.282
-230.771	189.099	0.204	-0.302
-229.757	55.615	0.289	-0.277
-228.742	-200.000	-0.052	0.493
-227.727	-200.000	0.003	-0.213
-226.713	800.000	-0.031	0.124
-225.698	23.166	-0.277	-0.225
-224.684	-93.610	-0.051	0.014
-223.669	800.000	0.030	-0.122
-222.655	-103.831	0.225	-0.052
-221.640	-149.236	-0.261	0.021
-220.625	71.033	-0.016	0.016
-219.611	143.325	0.213	0.280
-218.596	175.544	0.103	0.148
-217.582	426.822	0.044	0.094
-216.567	-200.000	-0.012	-0.241
-215.552	-184.024	-0.016	0.000
-214.538	103.815	-0.100	0.116
-213.523	220.768	0.137	-0.217
-212.509	-15.431	-0.102	0.064
-211.494	-200.000	0.036	0.239
-210.479	110.839	0.072	0.085
-209.465	81.612	0.039	0.041
-208.450	48.534	-0.049	-0.045
-207.436	-164.135	0.175	0.008
-206.421	259.214	0.270	0.460
-205.406	342.521	-0.047	0.092
-204.392	-96.670	-0.302	-0.079
-203.377	-7.565	0.097	0.064
-202.363	-200.000	0.034	0.189
-201.348	-103.494	0.274	-0.064
-200.333	-200.000	0.028	-0.274
-199.319	255.599	-0.062	-0.105
-198.304	-80.575	0.243	-0.080
-197.290	800.000	0.030	0.104
-196.275	164.867	0.126	0.176
-195.260	62.300	0.134	0.132
-194.246	-90.497	0.156	-0.045
-193.231	142.950	0.124	-0.163
-192.217	-125.111	0.288	-0.044
-191.202	61.196	0.107	0.105
-190.187	-117.888	0.100	-0.018
-189.173	800.000	-0.060	-0.185
-188.158	-72.433	-0.210	-0.077
-187.144	232.373	0.117	0.189
-186.129	216.382	0.025	-0.039
-185.114	-106.260	0.365	0.081
-184.100	23.083	-0.089	-0.072
-183.085	-119.114	-0.312	-0.054
-182.071	-102.854	0.095	0.022
-181.056	176.950	-0.067	0.096
-180.042	-200.000	-0.000	0.162
-179.027	-200.000	-0.039	-0.269
-178.012	-82.247	-0.067	0.022
-176.998	-200.000	-0.015	-0.537
-175.983	-102.372	-0.291	-0.069
-174.969	-200.000	0.027	0.183
-173.954	8.708	-0.100	0.074
-172.939	224.195	0.081	-0.129
-171.925	-200.000	0.024	0.171
-170.910	20.447	-0.075	-0.060
-169.896	91.455	-0.136	-0.151
-168.881	-13.421	-0.120	-0.077
-167.866	57.657	-0.040	-0.038
-166.852	96.230	-0.248	0.280
-165.837	272.388	0.045	-0.079
-164.823	-58.923	-0.491	0.209
-163.808	-200.000	-0.040	-0.315
-162.793	800.000	0.161	-0.439
-161.779	800.000	0.049	-0.171
-160.764	-200.000	-0.008	0.035
-159.750	164.679	-0.034	-0.048
-158.735	544.506	0.112	0.264
-157.720	159.712	0.105	0.144
-156.706	82.718	-0.068	0.073
-155.691	-94.086	-0.341	-0.092
-154.677	800.000	0.059	-0.163
-153.662	363.938	0.101	-0.200
-152.647	-144.837	-0.354	0.032
-151.633	-42.867	0.179	0.089
-150.618	-200.000	0.031	0.189
-149.604	-176.015	0.205	0.005
-148.589	-200.000	-0.012	-0.115
-147.574	-134.572	-0.349	0.042
-146.560	-51.862	-0.336	0.154
-145.545	-159.347	0.591	-0.033
-144.531	227.295	-0.115	0.183
-143.516	-1.508	-0.270	-0.188
-142.502	-200.000	0.008	-0.193
-141.487	-134.360	-0.222	-0.027
-140.472	-200.000	-0.015	0.329
-139.458	10.304	0.104	-0.078
-138.443	298.759	-0.072	0.131
-137.429	800.000	-0.073	0.205
-136.414	-121.360	-0.120	-0.020
-135.399	358.417	-0.203	0.400
-134.385	-88.903	0.210	-0.061
-133.370	93.053	0.120	0.133
-132.356	-72.125	-0.292	0.107
-131.341	-200.000	0.037	0.216
-130.326	-58.393	0.295	0.126
-129.312	-200.000	-0.037	-0.286
-128.297	-125.822	0.173	-0.026
-127.283	72.716	0.120	-0.123
-126.268	775.665	0.054	-0.145
-125.253	-85.799	-0.413	-0.126
-124.239	-84.379	-0.267	0.083
-123.224	-0.174	0.131	-0.092
-122.210	227.573	0.024	0.039
-121.195	185.150	-0.162	0.236
-120.180	148.446	-0.127	0.169
-119.166	-1.158	0.348	0.242
-118.151	17.089	-0.197	-0.154
-117.137	74.233	-0.200	0.207
-116.122	-200.000	0.021	-0.116
-115.107	-200.000	0.079	0.435
-114.093	174.805	0.087	0.124
-113.078	-36.834	-0.270	-0.142
-112.064	800.000	0.080	0.275
-111.049	111.345	-0.295	0.350
-110.034	235.940	0.082	0.133
-109.020	-107.302	-0.159	0.034
-108.005	-1.235	0.142	-0.099
-106.991	184.493	-0.094	-0.137
-105.976	178.787	0.122	0.175
-104.962	-111.345	0.223	0.045
-103.947	-158.741	-0.177	-0.010
-102.932	-145.768	-0.071	-0.006
-101.918	-143.121	0.157	-0.015
-100.903	-43.193	0.256	0.127
-99.889	-200.000	0.022	-0.216
-98.874	800.000	-0.047	0.185
-97.859	-1.215	0.200	0.139
-96.845	5.104	0.210	0.152
-95.830	-76.384	-0.063	0.022
-94.816	-6.067	0.317	-0.213
-93.801	-200.000	-0.031	0.274
-92.786	-45.037	0.423	-0.207
-91.772	47.496	-0.346	0.317
-90.757	73.162	-0.156	0.160
-89.743	34.278	0.159	-0.136
-88.728	-200.000	-0.003	-0.221
-87.713	800.000	0.093	-0.383
-86.699	800.000	0.112	-0.331
-85.684	167.794	0.034	-0.047
-84.670	19.884	0.172	-0.136
-83.655	39.151	0.070	0.062
-82.640	-40.229	-0.232	-0.119
-81.626	-200.000	0.006	-0.109
-80.611	-42.131	0.208	0.105
-79.597	-200.000	0.033	0.200
-78.582	398.738	-0.232	0.477
-77.567	46.293	0.053	0.049
-76.553	-200.000	-0.012	-0.212
-75.538	84.225	0.202	0.217
-74.524	752.755	-0.055	0.146
-73.509	530.080	0.081	-0.188
-72.494	-16.491	-0.203	-0.126
-71.480	16.104	-0.358	-0.277
-70.465	-5.035	-0.240	0.162
-69.451	125.772	-0.042	0.052
-68.436	28.059	0.179	0.148
-67.422	-154.014	0.197	0.013
-66.407	-75.624	0.189	-0.066
-65.392	356.702	-0.121	0.236
-64.378	-200.000	0.038	0.235
-63.363	-200.000	-0.014	0.071
-62.349	-77.838	0.216	0.073
-61.334	19.159	-1.158	-0.913
-60.319	90.100	0.639	0.701
-59.305	-200.000	-0.186	-1.167
-58.290	97.346	0.985	1.110
-57.276	321.557	0.831	1.552
-56.261	-200.000	105.128	586.036
-55.246	504.832	1489.254	3386.051
-54.232	176.296	2693.344	3841.614
-53.217	109.958	2195.417	2586.390
-52.203	39.591	1716.690	1511.073
-51.188	32.079	1529.153	1294.399
-50.173	29.809	1502.232	1256.165
-49.159	50.311	1557.565	1444.859
-48.144	50.509	1574.412	1461.796
-47.130	32.310	1530.568	1296.980
-46.115	29.374	1515.264	1263.877
-45.100	29.245	1511.227	1259.583
-44.086	29.186	1509.800	1257.940
-43.071	29.120	1507.853	1255.816
-42.057	29.061	1505.994	1253.813
-41.042	29.035	1504.898	1252.677
-40.027	29.095	1503.274	1251.686
-39.013	29.046	1501.654	1249.953
-37.998	29.035	1500.525	1248.890
-36.984	28.999	1499.460	1247.707
-35.969	29.012	1497.810	1246.375
-34.954	29.051	1496.732	1245.690
-33.940	29.047	1494.659	1243.889
-32.925	29.041	1493.715	1243.014
-31.911	29.060	1492.066	1241.718
-30.896	29.059	1491.230	1240.971
-29.881	29.080	1490.166	1240.172
-28.867	29.080	1488.604	1238.828
-27.852	29.041	1487.207	1237.352
-26.838	29.139	1485.708	1236.712
-25.823	29.170	1484.392	1235.775
-24.809	29.111	1482.747	1233.965
-23.794	29.134	1481.741	1233.228
-22.779	29.077	1480.319	1231.617
-21.765	29.123	1479.220	1230.959
-20.750	29.148	1478.249	1230.272
-19.736	29.082	1477.451	1229.121
-18.721	28.945	1476.454	1227.326
-17.706	29.086	1474.560	1226.641
-16.692	29.040	1473.990	1225.812
-15.677	29.096	1472.724	1225.081
-14.663	29.046	1471.359	1223.566
-13.648	28.964	1470.992	1222.669
-12.633	29.082	1469.644	1222.284
-11.619	28.986	1468.420	1220.582
-10.604	29.024	1468.053	1220.476
-9.590	29.083	1466.963	1219.913
-8.575	29.021	1466.092	1218.733
-7.560	28.992	1465.308	1217.839
-6.546	28.948	1464.536	1216.856
-5.531	28.975	1463.967	1216.514
-4.517	28.981	1462.417	1215.220
-3.502	28.978	1461.734	1214.583
-2.487	29.006	1460.384	1213.602
-1.473	28.960	1459.590	1212.588
-0.458	29.086	1458.364	1212.351
0.556	30.981	1449.319	1202.607
1.571	28.286	1423.846	1164.261
2.586	25.001	1362.182	1093.720
3.600	23.352	1279.052	1017.420
4.615	21.727	1232.962	971.670
5.629	18.603	1176.043	910.183
6.644	11.221	1093.201	809.455
7.659	5.332	1054.815	752.670
8.673	4.548	1049.212	744.846
9.688	4.433	1045.712	741.749
10.702	4.247	1044.404	739.866
11.717	4.353	1042.399	738.884
12.731	7.094	1045.037	753.757
13.746	14.794	1055.829	798.397
14.761	20.676	1063.155	832.083
15.775	22.141	1063.645	839.394
16.790	21.719	1062.438	836.354
17.804	20.616	1060.540	829.530
18.819	19.907	1058.600	824.562
19.834	19.420	1057.334	821.184
20.848	19.213	1056.988	819.858
21.863	19.293	1056.235	819.581
22.877	19.067	1055.661	817.992
23.892	18.866	1054.791	816.288
24.907	18.722	1054.367	815.204
25.921	18.801	1053.075	814.510
26.936	18.838	1052.642	814.278
27.950	18.836	1051.304	813.162
28.965	18.795	1050.279	812.102
29.980	18.763	1049.432	811.224
30.994	19.100	1047.828	811.502
32.009	19.125	1047.618	811.387
33.023	19.169	1046.830	810.913
34.038	19.212	1045.915	810.333
35.053	19.080	1044.978	808.914
36.067	18.904	1043.831	807.130
37.082	18.746	1043.308	805.910
38.096	18.945	1042.132	805.866
39.111	18.974	1041.989	805.817
40.126	19.013	1040.542	804.811
41.140	19.100	1039.520	804.357
42.155	18.808	1037.886	801.657
43.169	18.576	1037.273	800.030
44.184	18.454	1036.201	798.566
45.199	18.396	1035.036	797.325
46.213	18.526	1033.867	796.962
47.228	18.553	1033.429	796.675
48.242	18.888	1032.142	797.166
49.257	19.050	1031.785	797.572
50.271	18.858	1031.135	796.109
51.286	18.889	1030.026	795.326
52.301	18.968	1029.193	794.978
53.315	18.977	1028.452	794.376
54.330	19.063	1027.185	793.724
55.344	18.667	1026.685	791.442
56.359	18.536	1025.397	789.776
57.374	18.688	1024.629	789.813
58.388	18.741	1023.891	789.419
59.403	18.508	1023.294	787.820
60.417	18.473	1022.525	786.996
61.432	18.450	1021.340	785.911
62.447	18.477	1020.782	785.532
63.461	18.343	1020.365	784.531
64.476	18.314	1018.914	783.212
65.490	18.290	1017.620	782.039
66.505	18.199	1017.344	781.344
67.520	18.234	1016.864	781.065
68.534	18.426	1015.779	781.036
69.549	18.412	1015.045	780.340
70.563	18.281	1014.648	779.367
71.578	18.178	1013.903	778.257
72.593	18.034	1013.177	776.976
73.607	17.982	1011.545	775.419
74.622	18.071	1010.595	775.028
75.636	18.044	1009.838	774.259
76.651	18.037	1009.111	773.601
77.666	18.093	1008.367	773.215
78.680	18.273	1007.556	773.337
79.695	18.102	1007.487	772.444
80.709	18.197	1006.585	772.112
81.724	18.479	1005.304	772.332
82.739	18.432	1005.018	771.832
83.753	18.482	1004.859	771.868
84.768	18.732	1004.072	772.321
85.782	19.034	1003.638	773.275
86.797	19.326	1002.888	773.939
87.812	19.328	1002.325	773.446
88.826	18.976	1001.495	771.159
89.841	18.888	1000.265	769.750
90.855	19.036	999.374	769.656
91.870	19.138	998.971	769.734
92.884	19.373	997.792	769.806
93.899	19.122	997.746	768.584
94.914	19.182	996.534	767.849
95.928	19.305	995.596	767.609
96.943	19.303	994.941	767.023
97.957	19.154	994.357	765.843
98.972	19.027	993.451	764.512
99.987	19.102	992.588	764.113
101.001	19.164	991.648	763.601
102.016	19.117	990.906	762.753
103.030	19.058	989.841	761.603
104.045	19.105	988.929	761.042
105.060	18.935	988.530	759.915
106.074	19.029	987.130	759.189
107.089	18.739	985.957	756.942
108.103	18.504	984.734	754.900
109.118	18.370	983.960	753.650
110.133	18.225	983.245	752.398
111.147	18.273	982.578	752.031
112.162	18.270	981.652	751.242
113.176	18.357	980.570	750.729
114.191	18.482	979.666	750.519
115.206	18.452	979.290	750.035
116.220	18.418	978.240	749.015
117.235	18.502	977.020	748.381
118.249	18.397	976.390	747.375
119.264	18.418	975.295	746.559
120.279	18.372	974.546	745.722
121.293	18.295	973.740	744.704
122.308	18.172	973.033	743.564
123.322	17.997	972.559	742.376
124.337	18.056	971.025	741.393
125.352	18.003	970.125	740.413
126.366	18.000	969.189	739.616
127.381	18.086	967.847	738.902
128.395	17.965	966.919	737.606
129.410	18.122	966.180	737.654
130.424	18.155	965.479	737.193
131.439	18.322	964.323	736.964
132.454	18.379	963.995	736.896
133.468	18.405	962.919	736.120
134.483	18.404	962.439	735.682
135.497	18.433	961.928	735.353
136.512	18.454	960.840	734.544
137.527	18.438	960.448	734.111
138.541	18.464	959.596	733.507
139.556	18.543	958.596	733.013
140.570	18.555	958.381	732.837
141.585	18.699	957.824	732.961
142.600	18.942	957.172	733.435
143.614	18.828	957.004	732.755
144.629	19.028	955.601	732.468
145.643	19.235	954.853	732.710
146.658	19.101	953.968	731.394
147.673	18.819	953.180	729.528
148.687	18.734	952.095	728.274
149.702	18.616	951.047	726.906
150.716	18.489	949.848	725.389
151.731	18.599	949.243	725.329
152.746	18.546	948.686	724.615
153.760	18.615	947.806	724.169
154.775	18.743	947.079	724.088
155.789	18.693	946.641	723.482
156.804	18.635	945.847	722.565
157.819	18.909	944.842	722.887
158.833	18.837	944.285	722.093
159.848	18.921	944.083	722.227
160.862	19.120	943.430	722.500
161.877	19.077	942.526	721.564
162.892	18.778	941.534	719.489
163.906	18.640	940.428	718.002
164.921	18.608	939.193	716.859
165.935	18.471	938.251	715.505
166.950	18.505	937.895	715.314
167.964	18.733	936.790	715.359
168.979	18.755	936.167	714.911
169.994	18.734	934.502	713.491
171.008	18.476	934.076	712.030
172.023	18.661	933.451	712.257
173.037	18.843	932.455	712.189
174.052	19.150	931.994	713.043
175.067	19.003	930.994	711.607
176.081	18.614	930.254	709.372
177.096	18.618	929.005	708.372
178.110	18.628	928.035	707.613
179.125	18.553	928.059	707.260
180.140	18.718	926.539	706.715
181.154	18.570	926.610	706.099
182.169	18.901	926.366	707.211
183.183	18.980	925.335	706.686
184.198	19.083	924.739	706.592
185.213	19.055	924.221	706.021
186.227	19.021	923.720	705.435
187.242	18.981	923.588	705.109
188.256	18.974	922.607	704.267
189.271	19.254	921.672	704.636
190.286	19.217	921.432	704.240
191.300	19.143	920.222	702.952
192.315	18.521	918.922	699.358
193.329	18.342	918.559	698.293
194.344	18.287	917.916	697.518
195.359	18.743	917.123	698.710
196.373	18.847	916.523	698.611
197.388	18.816	916.351	698.294
198.402	18.875	916.308	698.439
199.417	19.273	915.473	699.357
200.432	19.304	915.257	699.252
201.446	19.498	915.005	699.786
202.461	19.496	914.903	699.640
203.475	19.668	914.010	699.593
204.490	19.663	913.728	699.293
205.504	19.510	911.978	697.275
206.519	19.159	911.392	695.347
207.534	19.111	910.548	694.446
208.548	19.223	909.238	693.839
209.563	19.136	908.712	693.026
210.577	19.118	908.917	693.046
211.592	19.163	907.898	692.389
212.607	19.295	907.528	692.577
213.621	19.460	906.844	692.657
214.636	19.537	906.125	692.356
215.650	19.382	905.712	691.356
216.665	19.485	905.182	691.301
217.680	19.545	904.766	691.164
218.694	19.467	904.496	690.586
219.709	19.571	904.240	690.744
220.723	19.550	903.391	689.953
221.738	19.464	902.825	689.115
222.753	19.513	901.645	688.347
223.767	19.425	901.044	687.479
224.782	19.600	900.363	687.593
225.796	19.727	899.602	687.456
226.811	19.764	899.225	687.255
227.826	19.653	898.309	686.053
228.840	19.542	897.491	684.929
229.855	19.397	897.048	683.954
230.869	19.521	895.853	683.474
231.884	19.414	895.495	682.718
232.899	19.449	894.481	682.021
233.913	19.286	893.834	680.823
234.928	19.288	893.046	680.170
235.942	19.191	892.546	679.348
236.957	19.165	891.843	678.650
237.972	19.203	891.200	678.249
238.986	19.215	890.476	677.688
240.001	19.238	889.932	677.303
241.015	19.172	889.215	676.436
242.030	19.289	888.709	676.452
243.045	19.345	888.033	676.097
244.059	19.494	887.773	676.423
245.074	19.454	887.118	675.707
246.088	19.542	886.215	675.303
247.103	19.651	885.783	675.341
248.117	19.835	885.306	675.637
249.132	19.877	885.136	675.611
250.147	20.067	884.875	676.094
251.161	20.295	884.270	676.460
252.176	20.527	883.557	676.761
253.190	20.469	882.952	676.009
254.205	20.382	882.682	675.405
255.220	20.539	881.912	675.369
256.234	20.537	881.153	674.716
257.249	20.407	881.001	674.036
258.263	20.424	880.025	673.299
259.278	20.450	879.217	672.718
260.293	20.306	879.046	671.970
261.307	20.482	878.605	672.258
262.322	20.646	877.838	672.242
263.336	20.472	877.530	671.278
264.351	20.534	877.272	671.260
265.366	20.534	876.300	670.456
266.380	20.534	875.587	669.852
267.395	20.469	875.074	669.147
268.409	20.394	874.454	668.326
269.424	20.441	873.267	667.543
270.439	20.396	872.693	666.873
271.453	20.440	871.861	666.343
272.468	20.223	871.063	664.843
273.482	20.205	870.482	664.272
274.497	20.268	869.923	664.030
275.512	20.196	869.606	663.454
276.526	20.205	868.779	662.798
277.541	20.177	867.980	662.023
278.555	20.334	867.461	662.166
279.570	20.424	866.986	662.091
280.585	20.610	866.870	662.652
281.599	20.598	866.257	662.077
282.614	20.494	865.596	661.119
283.628	20.434	864.758	660.193
284.643	20.276	864.214	659.116
285.657	20.387	863.310	658.791
286.672	20.460	862.913	658.708
287.687	20.351	862.625	658.014
288.701	20.398	862.287	657.875
289.716	20.461	861.438	657.411
290.730	20.361	861.102	656.719
291.745	20.518	860.067	656.462
292.760	20.531	859.612	656.107
293.774	20.485	859.260	655.606
294.789	20.647	858.852	655.849
295.803	20.892	857.777	655.893
296.818	20.503	857.427	654.100
297.833	20.368	856.505	652.833
298.847	20.430	856.007	652.629
299.862	20.499	855.508	652.449
300.876	20.537	854.723	651.937
301.891	20.540	854.139	651.443
302.906	20.785	853.607	651.896
303.920	20.894	852.666	651.530
304.935	20.956	852.811	651.814
305.949	20.960	852.345	651.415
306.964	21.014	851.091	650.602
307.979	20.839	850.507	649.446
308.993	20.912	850.035	649.298
310.008	20.947	849.499	648.960
311.022	21.049	848.719	648.687
312.037	21.072	848.654	648.668
313.052	20.731	848.241	647.026
314.066	20.686	847.262	646.053
315.081	20.492	846.548	644.731
316.095	20.483	845.682	643.984
317.110	20.398	845.607	643.554
318.125	20.600	844.487	643.393
319.139	20.550	844.433	643.110
320.154	20.523	844.006	642.627
321.168	20.551	843.264	642.109
322.183	20.567	842.769	641.736
323.197	20.651	842.583	641.844
324.212	20.709	841.623	641.271
325.227	20.766	841.288	641.169
326.241	20.734	840.631	640.493
327.256	20.566	840.048	639.374
328.270	20.689	839.155	639.091
329.285	20.484	838.800	638.011
330.300	20.644	838.455	638.281
331.314	20.604	837.574	637.407
332.329	20.714	837.113	637.403
333.343	20.708	836.924	637.180
334.358	20.894	836.339	637.359
335.373	21.007	835.804	637.307
336.387	20.922	835.063	636.375
337.402	20.847	834.844	635.880
338.416	21.260	833.963	636.655
339.431	21.260	833.746	636.434
340.446	21.333	832.857	635.965
341.460	21.414	832.870	636.213
342.475	21.511	832.156	635.964
343.489	21.593	831.606	635.786
344.504	21.566	831.030	635.190
345.519	21.749	830.648	635.508
346.533	21.627	830.335	634.769
347.548	21.696	829.873	634.611
348.562	21.521	828.859	633.144
349.577	21.213	828.259	631.517
350.592	21.227	827.411	630.867
351.606	20.987	827.233	629.808
352.621	21.026	826.506	629.337
353.635	20.944	826.195	628.751
354.650	21.026	826.148	628.953
355.665	21.101	825.647	628.788
356.679	21.158	825.051	628.484
357.694	21.201	824.748	628.352
358.708	21.374	823.946	628.307
359.723	21.277	823.148	627.292
360.738	21.395	822.725	627.340
361.752	21.245	822.302	626.425
362.767	21.430	821.996	626.797
363.781	21.630	821.643	627.191
364.796	21.471	821.771	626.662
365.810	21.709	821.021	626.887
366.825	21.985	820.687	627.563
367.840	21.961	820.852	627.546
368.854	21.835	820.200	626.545
369.869	21.705	819.277	625.319
370.883	21.672	818.484	624.543
371.898	21.546	818.367	623.949
372.913	21.824	817.421	624.162
373.927	21.877	817.022	623.991
374.942	21.860	816.174	623.228
375.956	21.835	815.255	622.382
376.971	21.840	815.239	622.330
377.986	22.058	814.705	622.642
379.000	22.115	814.195	622.396
380.015	22.138	813.907	622.206
381.029	22.112	813.155	621.483
382.044	22.043	812.570	620.736
383.059	21.947	812.012	619.915
384.073	22.101	811.668	620.141
385.088	21.976	811.124	619.232
386.102	21.813	810.113	617.828
387.117	21.628	809.621	616.750
388.132	21.720	809.077	616.602
389.146	21.721	808.492	616.107
390.161	21.840	808.093	616.167
391.175	21.937	808.053	616.421
392.190	21.907	807.898	616.145
393.205	21.977	806.719	615.434
394.219	21.750	806.827	614.668
395.234	21.674	805.891	613.632
396.248	21.612	805.417	613.003
397.263	21.504	804.707	612.029
398.278	21.447	804.095	611.310
399.292	21.506	803.756	611.204
400.307	21.584	803.022	610.866
401.321	21.427	803.095	610.318
402.336	21.558	802.622	610.362
403.350	21.727	802.406	610.731
404.365	21.720	801.980	610.329
405.380	21.970	801.751	610.972
406.394	22.219	801.360	611.485
407.409	22.183	800.787	610.868
408.423	22.279	800.811	611.168
409.438	22.512	799.588	610.988
410.453	22.487	799.423	610.722
411.467	22.421	799.235	610.295
412.482	22.501	798.578	610.016
413.496	22.601	797.800	609.714
414.511	22.582	798.040	609.779
415.526	22.648	797.851	609.806
416.540	22.541	797.068	608.785
417.555	22.486	796.208	607.884
418.569	22.452	796.320	607.799
419.584	22.296	796.027	606.984
420.599	22.449	795.372	606.956
421.613	163.327	1368.536	1795.205
422.628	141.759	1452.056	1795.298
