DTS Sentinel unit serial number:	SN413079Multiplexer serial number:	ORYXHardware model number:	OX4-SRSoftware version number:	ORYX F/W v4.00 Oryx Data Collector v3.7.2.0data status	okinstallation	princeton_trtdifferential loss correction	single-endedforward channel	channel 3reverse channel	N/Adate	2019/09/15time	11:08:35forward acquisition time	60.00reverse acquisition time	0.00gamma	496.2192k internal	0.2307k external	0.2307temperature offset calibration	0.9976default loss term (dB/km)	0.3790temperature slope calibration	1.0000multiplexer offset coefficient	1.0000multiplexer slope coefficient	1.0000fibre end	0.00T internal ref (°C)	34.27T ext. ref 1 (°C)	5.05T ext. ref 2 (°C)	29.71length (m)	temperature (°C)	Stokes	anti-Stokes-747.200	121.009	0.102	0.129
-746.185	502.796	-0.104	0.244
-745.171	93.562	-0.099	-0.114
-744.156	335.935	-0.186	0.367
-743.142	162.758	0.068	0.097
-742.127	-200.000	0.017	0.195
-741.112	379.835	-0.047	0.098
-740.098	7.711	-0.301	-0.229
-739.083	260.919	0.087	-0.153
-738.069	329.273	-0.085	0.166
-737.054	48.749	-0.018	0.017
-736.039	-21.523	-0.041	0.026
-735.025	-129.467	-0.086	-0.012
-734.010	200.176	-0.057	-0.088
-732.996	-59.166	-0.112	0.049
-731.981	158.166	-0.045	-0.064
-730.966	286.367	0.153	-0.281
-729.952	-35.817	-0.143	-0.078
-728.937	800.000	-0.034	-0.149
-727.923	515.144	-0.006	0.015
-726.908	-30.922	-0.169	0.097
-725.894	197.852	0.162	-0.251
-724.879	24.176	-0.142	-0.119
-723.864	-123.758	-0.153	0.025
-722.850	118.424	-0.188	0.235
-721.835	800.000	-0.019	-0.067
-720.821	-49.440	-0.275	0.133
-719.806	208.781	-0.197	-0.313
-718.791	-200.000	0.033	0.187
-717.777	125.012	-0.056	0.072
-716.762	-200.000	0.012	0.167
-715.748	190.661	0.138	0.211
-714.733	378.170	0.087	-0.180
-713.718	-132.174	-0.192	0.025
-712.704	302.392	-0.175	0.329
-711.689	23.727	-0.055	0.046
-710.675	-151.769	-0.115	-0.009
-709.660	19.773	0.225	-0.184
-708.645	167.300	-0.148	-0.214
-707.631	228.146	0.101	0.166
-706.616	91.356	-0.100	-0.114
-705.602	-6.894	-0.285	0.196
-704.587	340.103	0.098	-0.194
-703.572	-73.038	0.296	-0.110
-702.558	-100.905	0.414	-0.103
-701.543	-200.000	-0.008	-0.202
-700.529	147.116	0.235	-0.321
-699.514	-3.336	0.054	0.038
-698.499	323.248	0.110	-0.213
-697.485	-56.859	0.265	0.119
-696.470	-170.987	0.258	0.009
-695.456	-139.906	-0.023	-0.002
-694.441	758.995	-0.065	-0.178
-693.426	-123.140	-0.059	-0.010
-692.412	-74.613	0.224	0.082
-691.397	208.626	0.041	-0.066
-690.383	26.719	-0.328	-0.279
-689.368	-149.908	-0.188	0.015
-688.354	-165.361	0.173	0.008
-687.339	-108.262	0.142	0.031
-686.324	-130.938	0.221	-0.030
-685.310	15.075	0.025	-0.020
-684.295	-43.260	-0.294	0.151
-683.281	7.069	-0.085	-0.065
-682.266	800.000	-0.050	-0.160
-681.251	31.171	-0.192	-0.167
-680.237	36.129	0.020	-0.018
-679.222	-200.000	0.075	-0.352
-678.208	151.608	0.041	0.056
-677.193	138.408	0.172	0.229
-676.178	800.000	-0.021	0.077
-675.164	-200.000	-0.016	0.106
-674.149	281.161	0.132	0.239
-673.135	45.984	-0.042	0.039
-672.120	-200.000	-0.019	0.090
-671.105	-200.000	0.011	0.211
-670.091	146.374	-0.146	-0.199
-669.076	138.640	-0.061	0.081
-668.062	125.723	0.079	0.101
-667.047	517.555	-0.180	-0.426
-666.032	-85.386	-0.241	-0.076
-665.018	-89.437	0.172	-0.051
-664.003	-138.921	-0.265	-0.029
-662.989	-175.413	-0.034	0.001
-661.974	126.781	0.276	-0.355
-660.959	-96.794	0.493	-0.131
-659.945	-97.715	-0.155	0.041
-658.930	800.000	-0.073	0.295
-657.916	-200.000	-0.043	-0.227
-656.901	41.977	0.134	-0.124
-655.886	340.146	0.056	-0.111
-654.872	-108.077	-0.132	-0.029
-653.857	98.304	0.289	-0.337
-652.843	-200.000	0.006	0.460
-651.828	-30.414	0.047	-0.027
-650.814	523.161	-0.017	-0.040
-649.799	-200.000	-0.005	0.131
-648.784	-102.615	-0.141	-0.034
-647.770	39.537	0.160	-0.146
-646.755	-89.373	-0.268	0.080
-645.741	-200.000	-0.004	0.231
-644.726	800.000	0.066	0.240
-643.711	-200.000	-0.003	0.147
-642.697	-98.234	-0.123	0.032
-641.682	458.881	-0.159	-0.358
-640.668	-90.869	-0.361	-0.105
-639.653	-61.493	-0.336	0.143
-638.638	259.824	-0.239	0.419
-637.624	48.604	-0.292	-0.277
-636.609	103.328	-0.260	-0.309
-635.595	-82.655	-0.044	-0.015
-634.580	-54.024	0.108	0.050
-633.565	-158.472	0.337	0.020
-632.551	88.387	-0.225	-0.253
-631.536	68.249	0.167	0.173
-630.522	-72.367	-0.413	0.155
-629.507	-141.799	-0.111	-0.011
-628.492	-200.000	-0.000	-0.268
-627.478	94.318	-0.098	-0.113
-626.463	88.706	0.177	-0.200
-625.449	-133.868	-0.335	0.042
-624.434	-200.000	0.005	0.231
-623.419	-69.818	0.197	0.076
-622.405	-8.213	0.227	0.154
-621.390	-177.946	0.270	-0.007
-620.376	21.765	-0.335	-0.276
-619.361	787.850	0.070	-0.195
-618.346	800.000	-0.086	0.278
-617.332	-112.442	-0.272	0.055
-616.317	202.171	-0.064	0.101
-615.303	195.792	-0.324	-0.498
-614.288	-193.346	0.223	0.002
-613.273	17.304	0.105	0.084
-612.259	37.823	0.058	-0.052
-611.244	28.182	-0.411	0.351
-610.230	-186.386	0.129	-0.002
-609.215	80.448	0.172	-0.187
-608.201	58.879	0.209	-0.208
-607.186	-76.960	0.086	-0.030
-606.171	-200.000	0.005	0.170
-605.157	25.884	-0.300	0.253
-604.142	117.113	0.215	0.267
-603.128	-200.000	0.028	-0.232
-602.113	120.243	0.154	0.193
-601.098	405.382	-0.104	0.221
-600.084	-25.746	0.175	-0.104
-599.069	55.086	-0.232	-0.226
-598.055	417.952	-0.225	-0.487
-597.040	-58.126	-0.323	0.142
-596.025	480.479	-0.091	-0.209
-595.011	86.996	0.194	-0.216
-593.996	103.832	-0.285	-0.338
-592.982	-63.345	-0.137	-0.057
-591.967	20.712	-0.119	-0.098
-590.952	-8.831	-0.101	-0.068
-589.938	4.646	0.292	-0.217
-588.923	-0.567	0.253	-0.182
-587.909	94.865	-0.226	0.260
-586.894	157.195	0.057	0.080
-585.879	-18.127	0.141	0.090
-584.865	800.000	-0.042	0.180
-583.850	121.518	-0.153	-0.192
-582.836	-127.981	-0.264	-0.038
-581.821	129.389	0.088	0.114
-580.806	-200.000	-0.046	0.212
-579.792	143.131	-0.181	-0.243
-578.777	441.862	-0.061	0.134
-577.763	800.000	-0.076	-0.238
-576.748	-3.106	0.304	-0.214
-575.733	98.197	0.105	0.122
-574.719	-103.608	0.173	0.041
-573.704	54.357	0.075	-0.073
-572.690	-39.747	0.250	0.132
-571.675	-138.657	-0.288	-0.032
-570.661	-19.335	0.065	-0.041
-569.646	-200.000	-0.002	0.032
-568.631	262.818	0.045	0.079
-567.617	21.085	-0.165	-0.135
-566.602	273.472	0.142	-0.254
-565.588	83.238	-0.180	0.198
-564.573	50.888	-0.216	-0.207
-563.558	-41.626	-0.105	-0.055
-562.544	-16.069	0.096	-0.062
-561.529	126.472	0.186	-0.238
-560.515	-200.000	-0.017	-0.268
-559.500	554.155	-0.045	-0.109
-558.485	-200.000	-0.004	-0.149
-557.471	28.460	-0.250	-0.214
-556.456	800.000	0.099	-0.316
-555.442	61.619	-0.069	-0.069
-554.427	6.243	-0.264	0.198
-553.412	-23.197	-0.206	0.125
-552.398	-200.000	-0.005	0.105
-551.383	-151.404	0.034	0.003
-550.369	326.056	0.104	-0.201
-549.354	313.624	-0.119	0.227
-548.339	-90.719	0.195	-0.057
-547.325	800.000	0.088	-0.283
-546.310	800.000	0.056	0.207
-545.296	-112.368	0.183	-0.037
-544.281	-85.234	-0.230	-0.073
-543.266	-21.777	0.407	0.250
-542.252	-124.292	-0.101	0.016
-541.237	-36.020	-0.186	0.102
-540.223	-110.759	-0.150	0.031
-539.208	18.229	0.148	0.119
-538.193	224.347	0.064	0.105
-537.179	-104.718	0.158	-0.037
-536.164	-17.129	0.092	-0.059
-535.150	162.367	-0.197	0.278
-534.135	237.263	0.121	-0.203
-533.121	376.746	0.087	-0.178
-532.106	-200.000	0.019	0.159
-531.091	38.302	-0.263	0.236
-530.077	117.994	-0.090	-0.112
-529.062	-96.135	-0.129	-0.035
-528.048	-93.302	0.433	0.121
-527.033	-122.715	0.133	0.022
-526.018	315.508	-0.075	-0.142
-525.004	-59.520	0.273	0.118
-523.989	-16.138	0.246	-0.158
-522.975	-200.000	0.016	0.127
-521.960	-85.134	0.187	-0.059
-520.945	-151.318	0.076	-0.006
-519.931	-200.000	-0.038	0.233
-518.916	-58.001	0.055	-0.024
-517.902	116.176	0.103	-0.128
-516.887	679.688	-0.056	-0.146
-515.872	17.487	-0.256	-0.205
-514.858	382.316	0.105	0.217
-513.843	-99.451	-0.211	-0.053
-512.829	-200.000	0.011	-0.096
-511.814	800.000	0.040	0.115
-510.799	-151.316	-0.188	0.014
-509.785	590.291	0.088	0.218
-508.770	264.672	-0.094	0.164
-507.756	-151.747	0.144	-0.011
-506.741	67.174	-0.191	-0.196
-505.726	-108.041	-0.410	-0.090
-504.712	281.215	0.100	0.181
-503.697	-81.559	0.077	-0.026
-502.683	744.910	0.057	-0.154
-501.668	-69.282	-0.334	-0.129
-500.653	149.074	-0.087	0.119
-499.639	-99.797	-0.076	0.019
-498.624	111.825	0.102	0.124
-497.610	-163.932	-0.098	-0.005
-496.595	49.543	-0.153	0.145
-495.581	-21.153	0.183	0.113
-494.566	-200.000	-0.088	-0.404
-493.551	-43.139	-0.147	-0.075
-492.537	167.072	0.194	0.278
-491.522	-122.530	-0.192	0.031
-490.508	382.302	0.095	0.196
-489.493	121.255	0.114	0.143
-488.478	60.739	0.061	-0.060
-487.464	-105.819	-0.306	-0.070
-486.449	-140.004	0.191	-0.020
-485.435	-133.330	0.116	-0.015
-484.420	800.000	-0.055	-0.222
-483.405	77.721	0.075	-0.081
-482.391	-30.151	-0.208	0.119
-481.376	-200.000	-0.054	0.328
-480.362	-200.000	0.023	0.265
-479.347	-185.732	0.167	-0.003
-478.332	227.894	-0.038	0.062
-477.318	7.804	0.150	0.113
-476.303	-200.000	-0.024	0.420
-475.289	25.585	-0.202	-0.169
-474.274	-22.254	0.304	-0.186
-473.259	60.603	0.108	0.108
-472.245	-70.931	0.182	-0.069
-471.230	7.916	-0.195	0.147
-470.216	483.347	0.052	-0.120
-469.201	-200.000	-0.008	-0.320
-468.186	-73.652	0.050	0.018
-467.172	163.900	-0.109	0.155
-466.157	384.820	0.163	-0.338
-465.143	-90.427	0.076	-0.022
-464.128	-200.000	0.041	0.277
-463.113	487.561	0.022	-0.051
-462.099	-8.933	-0.132	-0.089
-461.084	-157.532	0.258	-0.016
-460.070	-30.385	0.442	0.252
-459.055	800.000	-0.062	0.246
-458.040	-36.264	0.234	-0.127
-457.026	-200.000	-0.027	0.259
-456.011	-122.153	-0.290	-0.048
-454.997	131.810	-0.113	-0.146
-453.982	800.000	-0.063	-0.178
-452.968	236.643	-0.130	-0.217
-451.953	440.457	-0.061	-0.135
-450.938	-120.091	-0.346	-0.059
-449.924	-200.000	0.024	-0.269
-448.909	25.371	-0.112	0.093
-447.895	-66.639	0.162	-0.065
-446.880	800.000	-0.023	-0.085
-445.865	-192.355	0.246	-0.002
-444.851	25.443	0.017	0.015
-443.836	337.105	0.094	0.183
-442.822	-58.726	-0.087	-0.038
-441.807	8.519	-0.071	-0.054
-440.792	-52.923	0.247	-0.114
-439.778	800.000	-0.067	0.190
-438.763	46.558	0.269	0.251
-437.749	-200.000	0.041	0.244
-436.734	-200.000	-0.079	0.422
-435.719	-37.951	0.156	0.083
-434.705	-200.000	0.032	0.197
-433.690	-189.667	0.073	-0.001
-432.676	-146.835	0.279	0.024
-431.661	-56.330	-0.298	-0.133
-430.646	389.104	0.170	-0.353
-429.632	0.929	-0.160	-0.116
-428.617	-200.000	-0.005	-0.260
-427.603	429.475	-0.061	-0.132
-426.588	-169.871	-0.346	0.012
-425.573	-78.062	0.081	0.028
-424.559	-200.000	-0.002	-0.010
-423.544	-200.000	-0.030	0.256
-422.530	29.494	-0.146	0.125
-421.515	-200.000	-0.018	-0.157
-420.500	-200.000	0.021	0.150
-419.486	-71.020	0.178	0.067
-418.471	653.921	0.053	-0.137
-417.457	80.712	0.107	-0.115
-416.442	-100.123	0.224	0.056
-415.428	-200.000	-0.072	0.337
-414.413	-3.090	-0.157	-0.110
-413.398	251.541	0.082	0.141
-412.384	-200.000	-0.015	0.191
-411.369	231.063	-0.174	-0.285
-410.355	800.000	-0.076	0.229
-409.340	211.262	-0.070	0.111
-408.325	-142.574	-0.231	0.023
-407.311	-60.781	0.228	-0.097
-406.296	27.910	0.198	0.167
-405.282	-200.000	-0.021	-0.310
-404.267	-25.722	0.287	-0.170
-403.252	-200.000	-0.028	-0.314
-402.238	87.118	0.193	0.214
-401.223	-200.000	-0.029	0.225
-400.209	622.895	0.111	-0.281
-399.194	-83.081	0.089	0.029
-398.179	-90.746	-0.182	-0.053
-397.165	-117.205	-0.049	0.009
-396.150	-43.422	-0.131	-0.066
-395.136	-1.486	-0.081	-0.057
-394.121	38.814	-0.162	-0.145
-393.106	132.929	0.278	0.360
-392.092	-200.000	-0.005	0.053
-391.077	-86.959	-0.138	-0.042
-390.063	748.252	0.104	0.281
-389.048	-90.295	-0.061	0.018
-388.033	11.346	0.234	0.180
-387.019	150.439	-0.071	-0.097
-386.004	-22.069	-0.289	0.176
-384.990	-127.288	0.265	0.039
-383.975	335.675	0.211	-0.411
-382.960	52.635	0.271	-0.259
-381.946	800.000	-0.090	0.313
-380.931	179.907	0.090	-0.132
-379.917	726.610	-0.041	0.109
-378.902	5.329	0.271	0.200
-377.888	-75.908	-0.360	-0.128
-376.873	-93.303	-0.338	0.094
-375.858	-200.000	-0.016	0.180
-374.844	-200.000	0.029	0.155
-373.829	-200.000	0.023	-0.135
-372.815	381.617	0.077	0.159
-371.800	-146.042	-0.374	0.033
-370.785	-93.012	0.269	0.075
-369.771	-94.451	-0.359	0.098
-368.756	81.222	0.266	-0.288
-367.742	-124.763	-0.327	-0.051
-366.727	-61.933	0.246	-0.103
-365.712	611.898	0.067	0.167
-364.698	146.195	-0.205	-0.276
-363.683	-119.719	-0.069	0.012
-362.669	-89.291	0.062	0.018
-361.654	-126.192	0.130	-0.019
-360.639	-36.509	-0.155	0.084
-359.625	-30.987	0.147	-0.083
-358.610	-87.942	-0.069	0.021
-357.596	40.484	-0.242	0.218
-356.581	-200.000	-0.026	-0.231
-355.566	-200.000	0.008	-0.093
-354.552	-200.000	0.108	0.481
-353.537	-200.000	0.040	-0.000
-352.523	238.113	-0.058	0.096
-351.508	-200.000	-0.032	0.204
-350.493	-47.179	0.162	0.079
-349.479	-126.121	0.179	-0.027
-348.464	800.000	0.017	0.058
-347.450	54.017	-0.099	-0.095
-346.435	-25.100	-0.178	0.106
-345.420	-175.630	-0.027	-0.001
-344.406	-200.000	-0.022	0.160
-343.391	205.376	0.168	-0.261
-342.377	73.274	0.089	-0.093
-341.362	588.320	0.144	-0.355
-340.348	-133.401	0.185	0.023
-339.333	458.381	0.061	-0.135
-338.318	2.824	-0.169	0.123
-337.304	-200.000	-0.003	-0.016
-336.289	800.000	-0.035	0.096
-335.275	-160.956	-0.321	-0.017
-334.260	237.016	-0.061	0.101
-333.245	30.695	0.271	0.232
-332.231	-200.000	-0.111	0.498
-331.216	372.558	-0.074	-0.150
-330.202	299.129	0.180	-0.331
-329.187	-83.772	0.244	0.078
-328.172	113.611	0.096	0.117
-327.158	-81.277	-0.181	0.060
-326.143	-200.000	0.021	-0.353
-325.129	93.307	-0.133	0.151
-324.114	-200.000	-0.012	0.062
-323.099	-78.557	-0.291	0.099
-322.085	142.111	-0.176	-0.234
-321.070	-40.032	-0.252	0.131
-320.056	160.589	0.216	-0.302
-319.041	552.453	0.092	-0.221
-318.026	457.925	-0.117	-0.260
-317.012	65.688	0.379	-0.384
-315.997	-6.994	0.186	0.126
-314.983	-90.219	0.274	0.080
-313.968	30.076	-0.206	-0.175
-312.953	-200.000	-0.022	0.234
-311.939	255.995	0.229	-0.394
-310.924	445.215	0.087	-0.192
-309.910	328.517	0.042	0.081
-308.895	370.325	-0.162	-0.329
-307.880	-200.000	-0.012	0.135
-306.866	-200.000	0.009	0.109
-305.851	800.000	-0.121	-0.350
-304.837	-200.000	0.015	0.225
-303.822	-138.854	-0.122	0.013
-302.807	219.762	-0.142	0.227
-301.793	-200.000	-0.053	-0.436
-300.778	648.799	-0.082	0.209
-299.764	475.031	0.066	0.149
-298.749	-102.205	0.288	-0.069
-297.735	-154.322	-0.048	-0.003
-296.720	246.427	0.007	0.012
-295.705	-26.541	0.423	0.248
-294.691	24.271	0.067	0.056
-293.676	-200.000	0.070	-0.435
-292.662	-27.419	0.217	-0.126
-291.647	-61.820	0.361	0.151
-290.632	139.141	0.079	0.104
-289.618	-200.000	-0.003	-0.040
-288.603	800.000	-0.112	-0.317
-287.589	800.000	-0.060	-0.200
-286.574	-38.520	-0.059	0.031
-285.559	-44.512	0.192	-0.096
-284.545	-200.000	0.294	-0.001
-283.530	-199.805	0.156	0.001
-282.516	35.039	-0.195	-0.171
-281.501	243.452	-0.089	-0.148
-280.486	-200.000	0.001	-0.208
-279.472	-200.000	0.036	0.205
-278.457	-200.000	0.039	0.281
-277.443	-141.951	-0.270	0.027
-276.428	-200.000	0.013	-0.096
-275.413	147.911	-0.048	0.065
-274.399	166.299	-0.142	-0.200
-273.384	421.042	-0.035	0.075
-272.370	86.660	-0.090	0.099
-271.355	94.173	-0.050	-0.057
-270.340	800.000	0.072	0.218
-269.326	-143.889	0.079	0.007
-268.311	-10.752	-0.229	-0.151
-267.297	498.492	-0.117	-0.269
-266.282	800.000	0.075	-0.252
-265.267	453.944	-0.014	0.030
-264.253	-96.652	-0.067	-0.018
-263.238	14.820	-0.143	-0.112
-262.224	580.550	-0.044	0.108
-261.209	16.276	0.200	-0.158
-260.195	231.399	-0.139	-0.227
-259.180	81.236	-0.135	-0.146
-258.165	-67.018	-0.084	-0.033
-257.151	56.565	-0.234	0.227
-256.136	-69.643	0.155	-0.059
-255.122	-200.000	-0.003	0.156
-254.107	300.555	0.036	-0.066
-253.092	598.292	-0.124	0.306
-252.078	267.750	-0.107	0.187
-251.063	26.319	-0.296	0.247
-250.049	-153.046	0.144	0.010
-249.034	-41.131	0.016	0.008
-248.019	92.781	0.248	0.279
-247.005	371.168	-0.117	0.236
-245.990	-79.729	0.164	0.055
-244.976	50.530	-0.050	0.048
-243.961	-26.267	0.053	0.031
-242.946	-200.000	0.033	0.282
-241.932	-200.000	0.001	-0.108
-240.917	-22.882	0.113	0.068
-239.903	254.911	0.049	-0.084
-238.888	-26.713	-0.148	-0.086
-237.873	-200.000	0.011	0.076
-236.859	81.894	-0.213	0.230
-235.844	283.816	-0.056	-0.100
-234.830	-132.199	-0.250	-0.032
-233.815	-120.546	0.357	0.060
-232.800	-200.000	-0.048	-0.208
-231.786	102.733	-0.096	-0.111
-230.771	800.000	-0.040	-0.147
-229.757	-58.949	0.112	-0.048
-228.742	-200.000	-0.025	0.135
-227.727	-200.000	0.032	0.178
-226.713	-64.225	-0.210	0.085
-225.698	6.479	0.332	-0.246
-224.684	-140.468	0.050	-0.005
-223.669	-46.404	-0.222	0.109
-222.655	-133.887	0.407	-0.050
-221.640	800.000	0.059	-0.165
-220.625	800.000	-0.074	-0.209
-219.611	97.742	0.132	-0.151
-218.596	-200.000	-0.013	-0.196
-217.582	-188.865	0.183	-0.002
-216.567	62.101	-0.028	0.028
-215.552	20.741	0.174	0.140
-214.538	102.619	0.291	0.339
-213.523	-75.976	-0.204	0.072
-212.509	168.989	-0.184	0.262
-211.494	-125.499	-0.203	0.031
-210.479	41.908	-0.136	-0.123
-209.465	-200.000	0.042	-0.252
-208.450	-16.972	-0.097	0.061
-207.436	800.000	0.078	0.270
-206.421	192.838	0.089	0.133
-205.406	91.409	-0.119	0.133
-204.392	120.709	0.108	-0.133
-203.377	-200.000	0.028	0.144
-202.363	-31.239	0.185	0.104
-201.348	-200.000	0.018	0.254
-200.333	-22.836	0.038	0.023
-199.319	80.388	-0.044	-0.047
-198.304	373.353	0.011	-0.021
-197.290	-154.094	0.218	0.015
-196.275	-128.885	0.160	0.022
-195.260	-54.954	-0.139	-0.062
-194.246	-200.000	-0.006	0.164
-193.231	-200.000	0.086	-0.386
-192.217	-200.000	-0.016	0.077
-191.202	86.951	0.139	0.152
-190.187	-200.000	-0.018	-0.157
-189.173	55.602	0.091	0.088
-188.158	800.000	-0.058	0.168
-187.144	-200.000	0.028	-0.289
-186.129	-91.869	-0.199	-0.056
-185.114	-200.000	0.028	-0.131
-184.100	-150.956	0.098	-0.007
-183.085	160.713	0.257	0.356
-182.071	-0.944	0.009	-0.007
-181.056	-83.217	0.233	0.074
-180.042	800.000	0.082	0.309
-179.027	-67.715	0.352	0.137
-178.012	464.498	-0.141	-0.314
-176.998	-122.090	-0.092	-0.015
-175.983	125.138	-0.265	-0.332
-174.969	100.363	0.186	-0.215
-173.954	8.998	0.072	-0.054
-172.939	-200.000	-0.000	0.344
-171.925	-125.563	-0.162	-0.024
-170.910	44.750	0.173	-0.158
-169.896	-149.412	0.196	0.015
-168.881	-200.000	0.183	0.001
-167.866	-200.000	0.045	0.320
-166.852	545.249	-0.136	0.323
-165.837	150.956	-0.132	-0.178
-164.823	715.101	0.117	0.309
-163.808	-146.538	0.126	0.011
-162.793	254.524	-0.141	-0.239
-161.779	123.142	0.079	0.099
-160.764	-145.690	-0.145	-0.013
-159.750	-42.870	-0.305	0.154
-158.735	-200.000	0.012	-0.252
-157.720	-200.000	0.034	0.192
-156.706	260.663	-0.106	0.183
-155.691	38.634	0.159	-0.141
-154.677	243.765	0.117	0.195
-153.662	-42.101	0.063	0.032
-152.647	6.521	-0.097	0.072
-151.633	-80.010	0.185	-0.062
-150.618	-50.725	0.175	-0.082
-149.604	-92.098	-0.102	-0.029
-148.589	-200.000	0.064	0.354
-147.574	394.145	0.177	-0.366
-146.560	349.585	0.053	-0.105
-145.545	-28.527	0.056	-0.032
-144.531	-77.651	-0.151	0.052
-143.516	277.902	-0.033	0.058
-142.502	0.714	-0.110	0.078
-141.487	152.884	-0.203	0.275
-140.472	-200.000	-0.010	0.508
-139.458	-73.621	0.106	0.038
-138.443	254.467	-0.115	0.196
-137.429	800.000	-0.021	-0.068
-136.414	-29.074	0.176	0.100
-135.399	-43.769	0.067	0.033
-134.385	96.435	0.175	0.199
-133.370	189.897	0.257	0.383
-132.356	79.605	0.072	-0.076
-131.341	228.331	-0.171	0.277
-130.326	-46.737	-0.255	-0.124
-129.312	276.687	0.108	-0.190
-128.297	9.418	0.120	0.090
-127.283	-200.000	-0.073	0.466
-126.268	-107.269	0.212	-0.046
-125.253	800.000	-0.095	0.334
-124.239	297.742	0.076	0.139
-123.224	-130.202	-0.128	0.017
-122.210	-189.501	-0.231	-0.003
-121.195	-0.432	-0.034	-0.024
-120.180	-135.124	-0.114	0.014
-119.166	146.217	-0.242	0.322
-118.151	23.114	-0.205	0.167
-117.137	-200.000	0.010	-0.118
-116.122	628.314	-0.023	-0.058
-115.107	636.063	-0.014	-0.036
-114.093	800.000	-0.039	-0.136
-113.078	-169.702	-0.208	0.007
-112.064	487.589	-0.138	-0.313
-111.049	-91.324	-0.155	-0.044
-110.034	11.136	0.136	0.103
-109.020	224.335	-0.134	0.214
-108.005	-147.629	-0.089	0.007
-106.991	95.165	0.135	0.152
-105.976	800.000	0.070	-0.279
-104.962	61.016	-0.180	-0.177
-103.947	800.000	0.032	0.119
-102.932	18.279	-0.175	0.138
-101.918	541.154	0.074	-0.175
-100.903	800.000	-0.093	0.390
-99.889	-200.000	-0.006	0.194
-98.874	758.858	0.071	0.190
-97.859	109.905	0.110	-0.131
-96.845	-200.000	0.029	0.180
-95.830	-54.170	0.430	0.194
-94.816	-73.524	0.228	-0.082
-93.801	78.896	0.201	0.213
-92.786	238.810	-0.108	0.178
-91.772	31.732	0.206	-0.176
-90.757	-200.000	-0.011	-0.528
-89.743	449.681	0.090	0.198
-88.728	257.728	0.111	0.190
-87.713	-40.970	0.147	-0.076
-86.699	800.000	-0.073	-0.299
-85.684	800.000	-0.091	0.264
-84.670	-10.244	0.172	0.113
-83.655	84.132	0.367	0.397
-82.640	58.557	0.176	0.171
-81.626	800.000	-0.036	-0.152
-80.611	-129.533	-0.121	-0.017
-79.597	-73.102	-0.157	0.057
-78.582	-144.104	0.013	0.001
-77.567	-200.000	-0.018	0.127
-76.553	242.699	0.137	-0.228
-75.538	52.159	-0.255	-0.241
-74.524	-200.000	-0.023	-0.423
-73.509	415.193	0.132	0.278
-72.494	71.098	0.128	-0.132
-71.480	274.041	0.155	-0.271
-70.465	800.000	0.012	0.050
-69.451	235.798	0.093	-0.152
-68.436	-32.913	0.169	-0.093
-67.422	633.579	-0.051	-0.128
-66.407	800.000	0.069	-0.244
-65.392	-46.099	0.294	0.143
-64.378	133.287	0.278	0.355
-63.363	0.982	-0.195	0.138
-62.349	800.000	-0.035	0.122
-61.334	56.058	-0.780	-0.749
-60.319	-10.937	0.590	0.386
-59.305	-200.000	-0.091	-0.758
-58.290	215.459	0.725	1.139
-57.276	449.805	0.662	1.445
-56.261	-200.000	97.180	572.272
-55.246	627.145	1400.405	3500.539
-54.232	185.934	2608.218	3838.445
-53.217	119.506	2202.810	2699.952
-52.203	44.793	1735.087	1580.199
-51.188	37.307	1546.790	1356.628
-50.173	35.072	1519.278	1317.093
-49.159	53.392	1570.102	1489.759
-48.144	56.785	1589.440	1531.800
-47.130	37.731	1544.763	1357.588
-46.115	34.516	1528.708	1321.205
-45.100	34.292	1525.548	1316.873
-44.086	34.311	1523.940	1315.567
-43.071	34.368	1521.319	1313.647
-42.057	34.230	1520.257	1311.725
-41.042	34.235	1519.176	1310.774
-40.027	34.320	1516.886	1309.330
-39.013	34.285	1515.863	1308.152
-37.998	34.263	1514.378	1306.670
-36.984	34.213	1513.656	1305.655
-35.969	34.265	1512.133	1304.643
-34.954	34.308	1510.618	1303.582
-33.940	34.351	1508.758	1302.213
-32.925	34.230	1508.385	1301.014
-31.911	34.184	1506.800	1299.280
-30.896	34.354	1505.213	1299.022
-29.881	34.362	1504.098	1298.062
-28.867	34.228	1502.972	1296.124
-27.852	34.219	1501.361	1294.622
-26.838	34.384	1499.610	1294.181
-25.823	34.263	1498.368	1292.237
-24.809	34.234	1497.132	1290.923
-23.794	34.354	1495.224	1290.042
-22.779	34.230	1494.482	1288.509
-21.765	34.331	1493.324	1288.143
-20.750	34.437	1491.902	1287.580
-19.736	34.457	1490.091	1286.101
-18.721	34.222	1490.106	1284.482
-17.706	34.262	1488.915	1283.670
-16.692	34.233	1487.693	1282.372
-15.677	34.240	1486.644	1281.464
-14.663	34.262	1485.962	1280.972
-13.648	34.247	1485.197	1280.162
-12.633	34.285	1483.883	1279.237
-11.619	34.225	1482.951	1277.977
-10.604	34.181	1482.188	1276.973
-9.590	34.269	1481.237	1276.694
-8.575	34.260	1480.528	1275.975
-7.560	34.256	1480.025	1275.459
-6.546	34.255	1479.223	1274.710
-5.531	34.132	1478.340	1273.078
-4.517	34.275	1476.774	1272.632
-3.502	34.328	1475.824	1272.118
-2.487	34.281	1474.772	1270.851
-1.473	34.129	1474.208	1269.295
-0.458	34.196	1472.411	1268.150
0.556	33.148	1463.129	1258.068
1.571	30.210	1436.355	1215.707
2.586	26.537	1374.003	1139.751
3.600	24.704	1290.504	1059.545
4.615	23.375	1244.644	1014.200
5.629	20.609	1188.264	953.036
6.644	12.641	1102.877	843.785
7.659	6.168	1061.380	779.939
8.673	5.305	1055.066	770.975
9.688	5.078	1052.742	768.093
10.702	4.851	1051.222	765.798
11.717	4.987	1048.958	764.751
12.731	7.711	1051.832	780.159
13.746	15.197	1062.658	825.114
14.761	19.609	1067.365	850.469
15.775	18.720	1065.202	844.299
16.790	17.514	1062.840	836.431
17.804	16.354	1060.781	829.046
18.819	15.411	1058.733	822.752
19.834	15.017	1057.453	819.754
20.848	14.697	1055.993	816.985
21.863	14.405	1055.464	815.075
22.877	14.263	1054.877	813.854
23.892	14.104	1053.716	812.108
24.907	14.109	1052.742	811.312
25.921	13.971	1052.331	810.251
26.936	14.110	1051.430	810.160
27.950	14.033	1050.676	809.135
28.965	14.098	1049.331	808.343
29.980	14.049	1048.372	807.296
30.994	14.312	1046.894	807.362
32.009	14.315	1046.064	806.666
33.023	14.355	1045.428	806.295
34.038	14.258	1044.863	805.319
35.053	14.169	1043.774	803.980
36.067	14.122	1042.797	802.927
37.082	14.244	1041.649	802.560
38.096	14.193	1040.896	801.665
39.111	14.067	1040.467	800.655
40.126	14.271	1039.061	800.483
41.140	14.195	1037.780	799.060
42.155	14.002	1037.163	797.590
43.169	13.954	1036.333	796.653
44.184	13.793	1034.952	794.749
45.199	13.881	1033.683	794.123
46.213	13.971	1033.054	794.002
47.228	13.881	1032.496	793.070
48.242	14.189	1030.656	793.059
49.257	14.135	1030.495	792.604
50.271	14.166	1029.086	791.598
51.286	14.141	1028.501	790.960
52.301	14.142	1028.003	790.509
53.315	14.123	1027.232	789.756
54.330	14.127	1026.305	788.994
55.344	13.927	1025.331	787.230
56.359	13.867	1024.490	786.228
57.374	14.026	1023.031	785.792
58.388	13.997	1022.400	785.102
59.403	13.847	1021.687	783.773
60.417	13.995	1020.618	783.583
61.432	13.995	1020.008	783.044
62.447	13.918	1019.485	782.215
63.461	13.935	1018.535	781.496
64.476	13.846	1017.465	780.187
65.490	13.918	1016.868	779.996
66.505	13.797	1016.284	778.912
67.520	13.869	1014.766	778.019
68.534	13.919	1014.252	777.788
69.549	13.834	1014.055	777.173
70.563	13.954	1012.864	776.753
71.578	13.832	1012.597	775.906
72.593	13.815	1011.362	774.810
73.607	13.722	1010.418	773.587
74.622	13.763	1009.691	773.154
75.636	13.673	1008.819	771.999
76.651	13.768	1007.760	771.561
77.666	13.651	1007.714	770.915
78.680	13.736	1006.456	770.278
79.695	13.792	1005.676	769.871
80.709	13.886	1005.350	769.993
81.724	13.961	1004.453	769.582
82.739	13.932	1003.608	768.733
83.753	13.949	1003.081	768.338
84.768	14.023	1002.552	768.208
85.782	14.102	1001.784	767.917
86.797	14.353	1000.726	768.195
87.812	14.139	1000.159	766.707
88.826	14.166	999.495	766.252
89.841	14.242	998.087	765.455
90.855	14.132	997.544	764.468
91.870	14.226	997.037	764.442
92.884	14.223	996.384	763.862
93.899	14.200	995.638	763.115
94.914	14.186	994.375	762.015
95.928	14.302	993.680	761.947
96.943	14.272	993.272	761.427
97.957	14.206	992.184	760.227
98.972	14.147	991.279	759.196
99.987	14.184	990.769	758.909
101.001	14.256	989.849	758.462
102.016	14.247	989.410	758.018
103.030	14.256	988.421	757.235
104.045	14.228	987.530	756.356
105.060	14.054	986.649	754.829
106.074	14.247	985.280	754.587
107.089	14.170	984.229	753.367
108.103	13.947	983.663	751.859
109.118	14.034	982.542	751.329
110.133	13.888	981.644	749.914
111.147	13.988	981.194	749.958
112.162	13.939	980.359	749.029
113.176	13.982	979.074	748.178
114.191	13.832	979.214	747.543
115.206	13.974	977.824	747.052
116.220	14.057	976.918	746.668
117.235	13.971	976.055	745.558
118.249	14.064	975.275	745.313
119.264	14.006	974.626	744.488
120.279	13.900	974.055	743.512
121.293	13.971	972.661	742.701
122.308	14.013	971.816	742.179
123.322	13.887	971.029	740.949
124.337	13.814	969.972	739.750
125.352	13.848	969.139	739.202
126.366	13.786	968.125	738.087
127.381	13.879	966.929	737.522
128.395	13.810	966.164	736.567
129.410	13.875	964.927	735.847
130.424	13.901	963.874	735.095
131.439	13.955	963.332	734.856
132.454	14.018	963.206	734.971
133.468	14.133	961.519	734.127
134.483	14.097	961.115	733.595
135.497	13.984	960.563	732.612
136.512	14.059	959.735	732.246
137.527	14.185	958.772	732.001
138.541	14.042	958.683	731.240
139.556	14.040	957.725	730.433
140.570	14.108	956.655	729.853
141.585	14.196	955.304	729.145
142.600	14.224	955.184	729.112
143.614	14.398	954.143	729.010
144.629	14.384	953.587	728.459
145.643	14.401	952.814	727.880
146.658	14.328	952.104	726.953
147.673	14.192	951.263	725.655
148.687	14.239	950.190	724.977
149.702	14.253	949.080	724.126
150.716	14.111	948.766	723.206
151.731	13.948	947.871	721.751
152.746	14.023	947.238	721.531
153.760	14.088	946.259	721.003
154.775	14.269	945.609	721.229
155.789	14.189	944.764	720.175
156.804	14.182	944.366	719.778
157.819	14.263	943.024	719.039
158.833	14.327	942.769	719.058
159.848	14.393	941.810	718.546
160.862	14.291	941.603	717.886
161.877	14.347	940.783	717.440
162.892	14.267	939.773	716.262
163.906	14.294	938.801	715.572
164.921	14.296	937.795	714.754
165.935	14.148	937.084	713.513
166.950	14.352	936.151	713.611
167.964	14.433	935.042	713.050
168.979	14.449	933.799	712.109
169.994	14.359	933.436	711.384
171.008	14.318	932.381	710.344
172.023	14.376	931.730	710.031
173.037	14.414	930.806	709.427
174.052	14.413	930.201	708.896
175.067	14.394	930.006	708.606
176.081	14.355	929.095	707.684
177.096	14.284	928.034	706.509
178.110	14.313	927.346	706.046
179.125	14.233	926.555	705.044
180.140	14.263	926.035	704.715
181.154	14.398	925.257	704.627
182.169	14.546	924.367	704.513
183.183	14.495	923.843	703.836
184.198	14.526	923.560	703.691
185.213	14.556	922.410	702.879
186.227	14.585	921.714	702.409
187.242	14.565	921.793	702.319
188.256	14.531	921.002	701.515
189.271	14.592	920.287	701.162
190.286	14.720	919.290	700.880
191.300	14.400	918.392	698.792
192.315	14.407	917.381	697.990
193.329	14.335	916.755	697.148
194.344	14.353	915.816	696.447
195.359	14.441	915.335	696.389
196.373	14.304	915.275	695.708
197.388	14.529	914.884	696.289
198.402	14.613	914.436	696.239
199.417	14.720	914.064	696.338
200.432	14.753	913.469	695.963
201.446	14.826	913.050	695.886
202.461	14.858	912.575	695.595
203.475	14.829	912.362	695.249
204.490	14.874	911.425	694.661
205.504	14.795	910.610	693.652
206.519	14.730	909.957	692.824
207.534	14.852	908.544	692.192
208.548	14.803	908.044	691.545
209.563	14.673	907.892	690.833
210.577	14.655	906.994	690.011
211.592	14.896	906.128	690.289
212.607	14.918	905.964	690.190
213.621	14.751	905.703	689.241
214.636	14.978	904.680	689.339
215.650	14.890	903.751	688.206
216.665	14.955	903.518	688.236
217.680	15.047	902.709	687.940
218.694	15.035	902.411	687.602
219.709	15.065	902.115	687.438
220.723	15.221	900.671	686.914
221.738	15.055	900.572	686.099
222.753	14.937	899.663	684.865
223.767	14.975	899.185	684.593
224.782	15.113	897.962	684.168
225.796	14.995	897.437	683.224
226.811	15.245	896.574	683.525
227.826	15.160	895.959	682.651
228.840	15.143	895.432	682.120
229.855	15.097	894.784	681.377
230.869	15.196	893.756	680.938
231.884	14.984	893.428	679.765
232.899	15.055	892.386	679.202
233.913	14.941	892.193	678.530
234.928	14.890	891.429	677.684
235.942	14.997	890.506	677.356
236.957	15.049	890.080	677.182
237.972	14.941	889.785	676.461
238.986	14.984	888.720	675.765
240.001	15.105	887.937	675.598
241.015	15.132	887.115	675.023
242.030	15.063	886.803	674.448
243.045	15.193	885.952	674.262
244.059	15.180	885.203	673.581
245.074	15.337	884.439	673.568
246.088	15.234	884.169	672.891
247.103	15.338	883.807	672.973
248.117	15.206	883.419	672.088
249.132	15.273	882.999	671.980
250.147	15.436	882.205	671.969
251.161	15.531	881.464	671.723
252.176	15.483	880.663	670.862
253.190	15.520	880.241	670.630
254.205	15.583	879.730	670.433
255.220	15.794	878.765	670.477
256.234	15.721	877.947	669.504
257.249	15.656	877.895	669.149
258.263	15.911	876.790	669.257
259.278	15.763	876.660	668.512
260.293	15.687	876.203	667.805
261.307	15.930	874.878	667.698
262.322	15.801	874.876	667.124
263.336	15.919	873.894	666.785
264.351	16.015	873.351	666.691
265.366	15.922	872.834	665.871
266.380	15.893	872.631	665.543
267.395	15.955	871.754	665.057
268.409	15.862	870.943	664.015
269.424	15.896	870.061	663.416
270.439	16.002	869.624	663.443
271.453	15.827	868.915	662.155
272.468	15.833	867.919	661.359
273.482	15.781	867.498	660.777
274.497	15.758	867.113	660.334
275.512	15.986	866.075	660.379
276.526	15.872	865.171	659.184
277.541	15.914	864.712	658.943
278.555	15.860	864.308	658.364
279.570	16.088	863.729	658.757
280.585	15.959	863.838	658.276
281.599	16.013	862.964	657.763
282.614	16.004	862.123	657.030
283.628	16.062	861.412	656.657
284.643	16.045	860.865	656.116
285.657	15.972	860.512	655.502
286.672	16.047	859.996	655.345
287.687	15.989	859.489	654.673
288.701	16.089	858.958	654.599
289.716	16.143	858.433	654.349
290.730	16.012	858.032	653.480
291.745	16.047	857.317	653.011
292.760	16.170	856.521	652.825
293.774	16.232	855.492	652.220
294.789	16.381	854.963	652.338
295.803	16.389	854.309	651.812
296.818	16.137	853.823	650.410
297.833	16.148	853.364	650.044
298.847	16.103	852.729	649.333
299.862	16.193	851.940	649.018
300.876	16.130	851.710	648.544
301.891	16.217	850.661	648.023
302.906	16.220	850.399	647.776
303.920	16.347	849.537	647.551
304.935	16.406	849.023	647.326
305.949	16.557	848.161	647.189
306.964	16.458	847.490	646.244
307.979	16.389	847.179	645.684
308.993	16.392	846.508	645.128
310.008	16.560	846.152	645.439
311.022	16.586	845.503	644.988
312.037	16.553	845.396	644.722
313.052	16.459	844.682	643.763
314.066	16.405	844.003	642.984
315.081	16.389	842.980	642.085
316.095	16.372	842.624	641.694
317.110	16.401	842.251	641.461
318.125	16.354	841.603	640.735
319.139	16.397	841.261	640.582
320.154	16.491	840.387	640.213
321.168	16.421	840.118	639.689
322.183	16.395	839.437	639.014
323.197	16.493	839.155	639.113
324.212	16.653	838.255	638.975
325.227	16.606	837.503	638.168
326.241	16.501	837.289	637.553
327.256	16.439	836.902	636.969
328.270	16.682	835.770	636.963
329.285	16.634	835.396	636.444
330.300	16.513	835.212	635.792
331.314	16.338	834.752	634.729
332.329	16.437	834.055	634.515
333.343	16.653	833.104	634.545
334.358	16.662	832.768	634.264
335.373	16.774	832.408	634.355
336.387	16.728	831.827	633.681
337.402	16.623	831.251	632.794
338.416	16.739	830.684	632.740
339.431	16.886	829.909	632.643
340.446	16.839	829.538	632.130
341.460	16.811	828.891	631.476
342.475	16.954	828.151	631.388
343.489	16.909	828.006	631.055
344.504	16.966	827.244	630.632
345.519	16.944	826.974	630.288
346.533	16.991	826.507	630.048
347.548	17.143	825.737	629.969
348.562	17.018	825.238	629.070
349.577	16.905	824.984	628.402
350.592	16.919	824.452	627.995
351.606	16.949	823.581	627.384
352.621	16.870	823.159	626.717
353.635	16.873	822.939	626.504
354.650	16.876	822.429	626.072
355.665	16.980	821.782	625.907
356.679	16.884	821.655	625.401
357.694	17.046	820.825	625.311
358.708	17.151	820.425	625.339
359.723	17.133	819.594	624.582
360.738	17.028	819.487	624.059
361.752	16.986	819.028	623.503
362.767	17.086	818.701	623.566
363.781	17.047	818.341	623.092
364.796	17.279	817.546	623.283
365.810	17.196	817.424	622.831
366.825	17.295	816.846	622.697
367.840	17.345	816.254	622.373
368.854	17.300	816.072	622.016
369.869	17.456	815.332	621.967
370.883	17.375	814.565	621.029
371.898	17.260	814.152	620.241
372.913	17.393	813.598	620.249
373.927	17.445	812.831	619.800
374.942	17.488	812.246	619.455
375.956	17.327	811.829	618.497
376.971	17.550	811.135	618.723
377.986	17.543	810.836	618.416
379.000	17.583	810.319	618.110
380.015	17.452	810.114	617.426
381.029	17.644	809.338	617.476
382.044	17.633	808.524	616.759
383.059	17.544	807.996	615.980
384.073	17.744	807.420	616.209
385.088	17.625	807.207	615.560
386.102	17.459	806.575	614.425
387.117	17.421	805.857	613.687
388.132	17.489	805.452	613.571
389.146	17.636	805.024	613.719
390.161	17.507	804.756	612.995
391.175	17.623	804.239	612.966
392.190	17.583	804.094	612.656
393.205	17.713	803.270	612.440
394.219	17.665	803.083	612.073
395.234	17.554	802.305	611.026
396.248	17.637	801.943	610.995
397.263	17.572	801.333	610.244
398.278	17.533	801.060	609.840
399.292	17.334	800.864	608.927
400.307	17.433	800.407	608.880
401.321	17.667	799.542	609.005
402.336	17.587	799.414	608.567
403.350	17.444	799.576	608.125
404.365	17.638	798.718	608.112
405.380	17.725	798.079	607.879
406.394	17.728	797.856	607.669
407.409	17.853	797.301	607.635
408.423	17.809	796.910	607.127
409.438	17.957	796.469	607.265
410.453	18.016	795.911	606.996
411.467	18.066	795.398	606.729
412.482	18.111	794.987	606.519
413.496	18.029	794.809	606.039
414.511	18.098	794.455	605.961
415.526	18.052	794.108	605.479
416.540	18.061	793.661	605.115
417.555	18.032	792.785	604.293
418.569	18.169	792.249	604.315
419.584	17.980	792.171	603.533
420.599	17.903	791.743	602.882
421.613	153.285	1369.050	1791.007
422.628	132.542	1453.193	1791.118
