DTS Sentinel unit serial number:	SN413079Multiplexer serial number:	ORYXHardware model number:	OX4-SRSoftware version number:	ORYX F/W v4.00 Oryx Data Collector v3.7.2.0data status	okinstallation	princeton_trtdifferential loss correction	single-endedforward channel	channel 3reverse channel	N/Adate	2019/09/12time	15:10:10forward acquisition time	60.00reverse acquisition time	0.00gamma	496.2192k internal	0.2292k external	0.2292temperature offset calibration	1.0053default loss term (dB/km)	0.3790temperature slope calibration	1.0000multiplexer offset coefficient	1.0000multiplexer slope coefficient	1.0000fibre end	0.00T internal ref (°C)	40.58T ext. ref 1 (°C)	2.37T ext. ref 2 (°C)	37.87length (m)	temperature (°C)	Stokes	anti-Stokes-747.200	-45.580	-0.153	-0.077
-746.185	120.817	0.087	0.111
-745.171	257.257	-0.168	-0.296
-744.156	-200.000	0.026	0.503
-743.142	-18.813	0.104	0.066
-742.127	800.000	-0.055	0.225
-741.112	-110.999	-0.230	-0.048
-740.098	351.740	-0.039	-0.080
-739.083	109.782	-0.230	0.283
-738.069	800.000	-0.061	0.221
-737.054	800.000	0.092	-0.409
-736.039	-0.172	0.197	-0.144
-735.025	168.996	0.095	0.139
-734.010	227.494	0.158	-0.264
-732.996	-146.573	0.141	0.013
-731.981	368.348	0.174	-0.359
-730.966	-88.697	-0.420	0.128
-729.952	-149.289	-0.426	0.035
-728.937	-61.946	0.098	-0.042
-727.923	-28.809	-0.147	-0.086
-726.908	219.546	-0.066	-0.107
-725.894	-200.000	0.038	-0.184
-724.879	-129.307	0.272	0.039
-723.864	99.044	-0.246	-0.291
-722.850	-168.286	0.103	-0.004
-721.835	35.493	-0.229	0.206
-720.821	-85.351	-0.106	-0.034
-719.806	696.680	-0.064	0.172
-718.791	-94.571	-0.205	-0.057
-717.777	-83.419	-0.168	-0.055
-716.762	97.215	0.177	-0.207
-715.748	-155.015	0.182	-0.012
-714.733	800.000	0.088	0.303
-713.718	-200.000	-0.036	0.340
-712.704	-7.436	-0.105	0.072
-711.689	-174.694	0.120	0.003
-710.675	297.086	-0.205	0.384
-709.660	-26.497	0.308	0.184
-708.645	-200.000	0.039	-0.189
-707.631	-200.000	-0.076	-0.512
-706.616	-144.498	-0.299	0.028
-705.602	-67.625	0.123	-0.049
-704.587	47.174	-0.071	-0.068
-703.572	-144.451	0.281	-0.027
-702.558	200.582	0.025	0.039
-701.543	214.487	0.199	-0.321
-700.529	800.000	-0.074	0.263
-699.514	1.702	0.159	0.117
-698.499	-200.000	0.001	0.168
-697.485	-50.960	-0.234	-0.112
-696.470	-200.000	0.033	-0.429
-695.456	3.096	-0.176	0.131
-694.441	173.611	0.152	-0.225
-693.426	159.213	0.116	0.165
-692.412	203.575	-0.090	-0.143
-691.397	-159.423	-0.215	0.012
-690.383	-200.000	0.003	-0.200
-689.368	-14.783	-0.364	-0.239
-688.354	-46.244	0.150	-0.075
-687.339	-200.000	0.002	-0.177
-686.324	800.000	-0.021	-0.060
-685.310	800.000	0.116	0.503
-684.295	34.519	0.060	0.053
-683.281	800.000	-0.034	0.097
-682.266	-15.947	0.358	-0.232
-681.251	-200.000	-0.029	-0.323
-680.237	85.103	-0.066	-0.074
-679.222	-200.000	0.006	-0.046
-678.208	-200.000	-0.011	0.300
-677.193	-85.948	0.101	0.032
-676.178	269.376	0.059	0.106
-675.164	-49.691	0.078	-0.038
-674.149	-200.000	0.007	-0.082
-673.135	389.075	0.146	-0.308
-672.120	-200.000	0.092	-0.415
-671.105	-200.000	-0.036	-0.215
-670.091	-11.145	-0.083	-0.056
-669.076	-200.000	0.012	-0.242
-668.062	10.336	-0.190	-0.148
-667.047	-200.000	0.032	0.318
-666.032	373.286	-0.102	-0.211
-665.018	161.554	-0.151	0.215
-664.003	-94.393	-0.088	0.024
-662.989	133.661	0.029	-0.039
-661.974	-200.000	-0.065	0.329
-660.959	134.216	-0.152	0.201
-659.945	-157.725	-0.243	-0.015
-658.930	-155.506	0.326	0.021
-657.916	-200.000	0.049	0.405
-656.901	-110.095	0.157	0.033
-655.886	-74.799	-0.216	0.079
-654.872	-95.818	0.088	0.024
-653.857	-200.000	-0.077	-0.436
-652.843	127.720	0.138	0.179
-651.828	-200.000	0.004	0.027
-650.814	-72.346	0.260	0.098
-649.799	-200.000	0.173	0.000
-648.784	-115.271	-0.463	-0.089
-647.770	183.681	0.044	-0.067
-646.755	202.242	0.062	-0.097
-645.741	-157.060	0.326	0.020
-644.726	-38.928	-0.097	-0.052
-643.711	-200.000	0.013	0.065
-642.697	-20.361	0.235	0.147
-641.682	-200.000	0.086	-0.394
-640.668	-135.789	-0.314	-0.038
-639.653	317.096	-0.076	0.146
-638.638	518.751	0.110	-0.263
-637.624	68.307	0.260	-0.271
-636.609	45.013	-0.138	0.130
-635.595	-200.000	0.002	-0.159
-634.580	33.482	0.186	-0.165
-633.565	-200.000	0.017	0.279
-632.551	-200.000	0.010	-0.101
-631.536	800.000	0.069	-0.232
-630.522	-63.947	-0.084	-0.035
-629.507	-19.060	-0.115	-0.073
-628.492	-200.000	0.010	-0.140
-627.478	800.000	-0.109	-0.319
-626.463	396.594	-0.051	-0.109
-625.449	-61.731	0.239	-0.102
-624.434	-200.000	0.009	-0.145
-623.419	800.000	0.048	0.193
-622.405	-5.257	0.532	0.373
-621.390	-21.413	0.380	-0.236
-620.376	254.767	-0.123	0.215
-619.361	-200.000	0.035	-0.317
-618.346	800.000	-0.036	-0.112
-617.332	27.644	0.254	-0.218
-616.317	-200.000	0.029	0.214
-615.303	-200.000	0.040	-0.222
-614.288	-8.360	-0.171	0.117
-613.273	-22.530	0.223	-0.138
-612.259	-141.273	-0.241	0.025
-611.244	-98.859	-0.358	0.093
-610.230	90.757	0.218	0.249
-609.215	36.633	0.080	-0.072
-608.201	-200.000	-0.137	0.001
-607.186	-14.123	-0.158	-0.104
-606.171	128.161	0.085	0.111
-605.157	-126.600	-0.361	0.055
-604.142	-6.922	-0.125	0.087
-603.128	-1.367	0.216	0.155
-602.113	-200.000	-0.036	0.200
-601.098	-70.851	0.381	-0.146
-600.084	-200.000	0.024	0.134
-599.069	111.299	0.076	0.094
-598.055	-63.258	0.245	0.103
-597.040	263.596	0.145	-0.256
-596.025	-92.123	-0.273	-0.078
-595.011	-200.000	-0.016	0.114
-593.996	800.000	-0.059	0.235
-592.982	-76.058	-0.143	0.051
-591.967	-100.734	0.089	0.022
-590.952	-200.000	-0.014	0.243
-589.938	-176.483	-0.228	-0.006
-588.923	88.342	-0.140	0.158
-587.909	800.000	0.036	0.152
-586.894	-63.641	0.413	-0.173
-585.879	-88.136	0.050	-0.015
-584.865	-90.430	0.111	0.033
-583.850	137.658	-0.099	0.131
-582.836	-143.738	-0.067	-0.006
-581.821	103.744	0.153	-0.183
-580.806	-27.802	-0.286	0.169
-579.792	-141.023	0.204	0.021
-578.777	89.520	-0.072	-0.082
-577.763	-16.312	0.230	0.149
-576.748	-185.680	0.044	0.001
-575.733	-49.683	-0.067	-0.032
-574.719	800.000	-0.189	-0.560
-573.704	4.028	0.150	0.111
-572.690	-177.073	-0.061	-0.002
-571.675	120.976	0.260	0.329
-570.661	493.666	-0.049	-0.115
-569.646	-200.000	0.004	0.146
-568.631	14.637	0.168	-0.134
-567.617	-200.000	0.008	0.113
-566.602	603.104	0.052	-0.131
-565.588	-7.860	0.063	-0.043
-564.573	-200.000	-0.033	0.148
-563.558	124.151	-0.029	-0.037
-562.544	-180.907	-0.285	-0.006
-561.529	-64.969	-0.128	-0.053
-560.515	258.138	0.034	0.059
-559.500	154.731	0.045	-0.063
-558.485	800.000	0.049	0.142
-557.471	-200.000	-0.022	-0.504
-556.456	-77.528	-0.067	0.024
-555.442	-200.000	-0.035	0.191
-554.427	-115.721	-0.059	0.011
-553.412	101.635	-0.087	-0.103
-552.398	-52.532	0.115	-0.054
-551.383	-11.934	-0.278	-0.185
-550.369	-88.467	0.184	-0.056
-549.354	800.000	0.037	0.111
-548.339	127.111	-0.123	-0.159
-547.325	-59.155	-0.151	-0.066
-546.310	800.000	0.018	-0.076
-545.296	260.644	0.121	0.212
-544.281	-130.536	0.391	0.054
-543.266	211.814	0.133	0.213
-542.252	35.711	-0.176	-0.157
-541.237	-117.088	0.206	0.038
-540.223	-132.326	0.375	0.049
-539.208	-38.689	0.288	0.155
-538.193	707.020	0.093	-0.249
-537.179	486.464	0.092	0.214
-536.164	-200.000	-0.076	0.482
-535.150	101.361	0.103	-0.122
-534.135	-136.458	-0.342	0.040
-533.121	800.000	-0.080	-0.237
-532.106	485.256	-0.041	0.095
-531.091	42.308	0.057	0.053
-530.077	39.218	0.175	0.159
-529.062	-200.000	-0.038	0.231
-528.048	217.460	0.076	0.123
-527.033	-200.000	-0.032	0.227
-526.018	622.625	0.029	0.075
-525.004	-200.000	0.092	-0.496
-523.989	61.232	0.062	-0.062
-522.975	489.676	0.050	0.116
-521.960	-200.000	0.014	-0.248
-520.945	800.000	-0.017	0.058
-519.931	480.746	0.092	0.212
-518.916	-68.085	0.077	0.030
-517.902	-200.000	-0.006	0.087
-516.887	103.265	0.172	0.205
-515.872	-200.000	0.034	-0.334
-514.858	-200.000	0.005	0.197
-513.843	-100.869	-0.266	-0.066
-512.829	-31.002	0.261	-0.150
-511.814	800.000	-0.035	0.106
-510.799	-105.757	-0.068	-0.015
-509.785	-200.000	-0.013	-0.080
-508.770	9.895	-0.116	-0.089
-507.756	166.232	-0.219	-0.314
-506.741	-200.000	0.005	0.035
-505.726	-200.000	0.003	-0.246
-504.712	-200.000	-0.018	-0.201
-503.697	-31.461	0.102	-0.058
-502.683	-200.000	-0.033	-0.427
-501.668	-67.936	-0.125	-0.049
-500.653	38.072	0.186	0.167
-499.639	43.772	-0.129	-0.120
-498.624	-200.000	-0.004	0.143
-497.610	-33.776	-0.094	0.052
-496.595	-100.921	0.131	-0.033
-495.581	98.279	0.082	-0.095
-494.566	-28.283	0.313	-0.183
-493.551	800.000	0.020	0.060
-492.537	-105.583	-0.213	-0.049
-491.522	17.130	0.065	-0.053
-490.508	-200.000	0.040	0.371
-489.493	-200.000	0.026	-0.233
-488.478	800.000	0.070	-0.257
-487.464	103.447	0.232	-0.276
-486.449	-85.732	-0.254	-0.080
-485.435	40.931	-0.081	-0.074
-484.420	-156.240	0.341	-0.022
-483.405	800.000	0.132	0.397
-482.391	-168.909	-0.080	-0.003
-481.376	800.000	-0.014	0.050
-480.362	-117.585	-0.082	-0.015
-479.347	65.512	0.085	0.087
-478.332	52.016	-0.169	0.164
-477.318	139.344	-0.125	-0.166
-476.303	-92.320	0.124	0.036
-475.289	-200.000	0.022	0.129
-474.274	33.675	0.192	0.169
-473.259	46.464	0.053	-0.050
-472.245	69.157	0.202	-0.210
-471.230	-95.755	-0.271	0.073
-470.216	-200.000	0.047	-0.350
-469.201	800.000	-0.101	0.326
-468.186	52.091	0.083	0.080
-467.172	800.000	-0.101	-0.319
-466.157	-200.000	-0.026	-0.141
-465.143	441.731	-0.262	0.580
-464.128	-200.000	0.040	0.204
-463.113	-200.000	-0.030	0.143
-462.099	-200.000	-0.045	0.198
-461.084	723.751	0.062	0.168
-460.070	-111.950	-0.411	0.084
-459.055	-200.000	0.052	-0.274
-458.040	215.185	-0.127	-0.204
-457.026	55.000	0.208	0.203
-456.011	-111.779	-0.367	-0.075
-454.997	800.000	0.180	0.537
-453.982	-46.488	-0.102	0.050
-452.968	263.267	0.098	-0.172
-451.953	330.020	0.026	-0.050
-450.938	800.000	-0.014	0.061
-449.924	800.000	0.075	0.251
-448.909	248.342	0.077	0.132
-447.895	-88.593	-0.326	-0.098
-446.880	152.495	0.104	-0.143
-445.865	-52.970	0.108	-0.050
-444.851	289.645	0.095	-0.175
-443.836	-200.000	-0.051	-0.405
-442.822	128.431	0.186	-0.240
-441.807	800.000	-0.013	-0.042
-440.792	-35.699	0.241	-0.132
-439.778	-198.620	0.118	0.001
-438.763	-200.000	-0.015	0.078
-437.749	-200.000	-0.005	0.133
-436.734	1.939	0.204	0.149
-435.719	264.397	0.147	0.259
-434.705	-10.021	0.159	0.107
-433.690	796.646	0.032	-0.090
-432.676	400.950	0.084	-0.179
-431.661	764.696	-0.049	-0.134
-430.646	-122.485	0.387	0.064
-429.632	-121.542	0.199	-0.033
-428.617	370.019	-0.054	-0.111
-427.603	39.913	-0.103	0.094
-426.588	-200.000	-0.011	-0.048
-425.573	173.655	0.128	-0.186
-424.559	26.128	0.363	0.306
-423.544	-138.781	-0.176	0.019
-422.530	-47.010	-0.446	-0.220
-421.515	61.664	0.128	-0.129
-420.500	-91.042	-0.144	0.042
-419.486	71.025	0.145	-0.152
-418.471	-200.000	-0.006	0.072
-417.457	-72.333	0.305	-0.114
-416.442	721.805	-0.116	0.313
-415.428	-163.568	-0.231	0.011
-414.413	-153.749	-0.341	-0.024
-413.398	-90.287	0.417	0.122
-412.384	800.000	-0.069	0.302
-411.369	22.801	0.086	0.071
-410.355	-200.000	0.020	0.282
-409.340	800.000	-0.097	0.325
-408.325	239.699	-0.094	0.158
-407.311	-145.766	0.149	-0.013
-406.296	197.454	-0.152	-0.235
-405.282	800.000	0.106	-0.317
-404.267	-48.355	-0.139	0.067
-403.252	316.755	-0.032	-0.061
-402.238	-79.753	-0.295	-0.100
-401.223	-29.817	-0.286	0.165
-400.209	-74.252	0.130	0.048
-399.194	-140.575	0.161	0.017
-398.179	-48.586	0.107	0.052
-397.165	-49.373	0.318	0.153
-396.150	-7.788	-0.201	0.137
-395.136	-59.315	-0.044	-0.019
-394.121	376.852	-0.124	-0.255
-393.106	110.949	0.090	0.110
-392.092	-28.518	-0.173	0.101
-391.077	800.000	-0.067	0.192
-390.063	-200.000	0.019	0.312
-389.048	50.613	0.145	0.138
-388.033	800.000	0.102	-0.286
-387.019	3.877	0.021	-0.015
-386.004	800.000	-0.042	-0.140
-384.990	-90.515	-0.214	0.063
-383.975	-146.879	-0.160	0.014
-382.960	175.576	0.228	-0.334
-381.946	33.403	-0.192	0.168
-380.931	-200.000	0.021	-0.215
-379.917	-200.000	-0.004	-0.081
-378.902	-200.000	-0.010	0.184
-377.888	-91.715	0.088	-0.025
-376.873	800.000	0.069	-0.237
-375.858	-197.498	0.105	-0.001
-374.844	-200.000	-0.006	0.237
-373.829	465.697	0.112	0.252
-372.815	800.000	-0.021	0.073
-371.800	537.720	0.186	0.445
-370.785	76.372	-0.199	0.212
-369.771	-39.140	0.120	0.064
-368.756	241.167	0.177	-0.297
-367.742	-200.000	-0.002	0.175
-366.727	800.000	0.080	-0.293
-365.712	-83.233	-0.407	-0.132
-364.698	-200.000	0.030	0.180
-363.683	-30.669	0.191	0.109
-362.669	45.024	0.068	-0.064
-361.654	33.396	0.090	0.079
-360.639	67.371	0.217	-0.223
-359.625	-102.503	0.125	0.030
-358.610	437.255	0.030	-0.066
-357.596	26.314	0.193	0.163
-356.581	180.809	-0.160	0.237
-355.566	64.763	0.091	0.092
-354.552	130.935	-0.069	0.089
-353.537	6.600	0.166	-0.124
-352.523	7.301	-0.041	0.031
-351.508	-200.000	-0.010	-0.053
-350.493	-136.222	-0.410	-0.048
-349.479	-91.560	0.344	-0.099
-348.464	-26.972	0.097	0.057
-347.450	-157.529	0.200	-0.012
-346.435	-54.328	0.177	0.081
-345.420	-200.000	-0.008	0.152
-344.406	800.000	-0.094	0.386
-343.391	-64.203	-0.084	-0.034
-342.377	-13.927	-0.368	-0.240
-341.362	40.445	-0.247	-0.224
-340.348	36.025	0.050	-0.044
-339.333	-106.305	0.119	0.027
-338.318	-25.959	0.229	-0.136
-337.304	-200.000	0.000	-0.039
-336.289	-181.992	0.346	-0.007
-335.275	800.000	0.121	-0.422
-334.260	-118.881	-0.150	-0.026
-333.245	507.089	0.150	0.350
-332.231	201.741	0.148	0.230
-331.216	800.000	-0.094	0.269
-330.202	-23.514	0.332	0.201
-329.187	-200.000	0.005	0.060
-328.172	-200.000	-0.009	0.280
-327.158	357.349	-0.028	-0.056
-326.143	800.000	-0.082	0.263
-325.129	592.357	0.047	-0.117
-324.114	-109.874	0.066	-0.014
-323.099	-200.000	-0.014	0.138
-322.085	135.079	-0.204	0.267
-321.070	19.891	0.070	0.057
-320.056	-65.486	-0.294	0.119
-319.041	-200.000	0.066	0.394
-318.026	800.000	0.016	-0.049
-317.012	29.606	0.092	-0.078
-315.997	83.610	-0.057	-0.063
-314.983	-178.142	-0.022	0.001
-313.968	-29.989	0.176	-0.101
-312.953	101.106	-0.175	-0.205
-311.939	-28.883	0.156	0.090
-310.924	60.738	-0.022	0.022
-309.910	512.126	-0.027	0.064
-308.895	800.000	-0.052	-0.179
-307.880	-122.743	0.123	-0.020
-306.866	52.968	0.085	0.082
-305.851	-200.000	-0.040	0.294
-304.837	-200.000	-0.014	-0.062
-303.822	-200.000	0.002	0.048
-302.807	800.000	0.129	-0.387
-301.793	-195.212	-0.205	-0.002
-300.778	41.814	0.228	0.208
-299.764	120.350	-0.214	-0.268
-298.749	118.959	-0.258	-0.320
-297.735	-91.502	-0.193	-0.055
-296.720	367.045	0.145	0.295
-295.705	-70.063	-0.079	0.030
-294.691	104.211	-0.039	-0.046
-293.676	-27.169	0.119	-0.069
-292.662	-170.567	-0.525	0.018
-291.647	36.053	0.019	-0.017
-290.632	800.000	0.052	0.207
-289.618	111.729	-0.016	-0.019
-288.603	-27.441	0.049	0.029
-287.589	-103.010	0.164	0.039
-286.574	-126.318	-0.197	0.030
-285.559	-200.000	-0.062	0.422
-284.545	101.858	-0.120	-0.140
-283.530	-52.046	0.249	-0.116
-282.516	74.657	-0.151	0.160
-281.501	800.000	-0.048	0.187
-280.486	-82.343	-0.286	0.094
-279.472	-188.310	0.111	-0.001
-278.457	-40.228	-0.065	0.034
-277.443	-200.000	-0.027	0.145
-276.428	-2.530	-0.187	-0.132
-275.413	607.920	-0.080	0.200
-274.399	112.722	-0.190	-0.232
-273.384	482.714	-0.003	0.007
-272.370	253.894	-0.209	0.360
-271.355	59.582	0.160	-0.158
-270.340	-83.470	-0.283	0.091
-269.326	130.620	-0.111	-0.142
-268.311	-138.447	-0.455	0.050
-267.297	-151.431	-0.156	0.012
-266.282	800.000	0.066	0.213
-265.267	407.152	-0.101	0.214
-264.253	118.322	0.103	-0.128
-263.238	260.431	0.143	0.248
-262.224	45.602	-0.137	-0.127
-261.209	800.000	-0.092	-0.386
-260.195	670.031	0.144	-0.374
-259.180	800.000	-0.153	-0.501
-258.165	17.580	0.156	0.124
-257.151	-153.414	-0.362	-0.025
-256.136	66.470	-0.155	0.158
-255.122	-68.418	-0.101	-0.040
-254.107	800.000	0.053	-0.173
-253.092	800.000	0.014	0.061
-252.078	-153.848	0.264	-0.018
-251.063	-200.000	0.005	-0.156
-250.049	64.723	0.215	0.218
-249.034	-105.103	-0.230	0.053
-248.019	57.885	-0.173	-0.170
-247.005	800.000	0.058	-0.197
-245.990	-67.057	-0.015	0.006
-244.976	49.998	0.145	0.137
-243.961	20.819	-0.137	-0.111
-242.946	-200.000	0.059	0.278
-241.932	-149.973	-0.200	-0.016
-240.917	461.922	0.102	-0.228
-239.903	196.835	0.047	0.072
-238.888	-137.902	0.441	0.049
-237.873	-134.536	-0.072	0.009
-236.859	-200.000	0.591	0.002
-235.844	-124.193	-0.165	-0.026
-234.830	800.000	-0.042	0.153
-233.815	-200.000	0.035	0.324
-232.800	800.000	0.043	0.121
-231.786	413.259	0.167	0.357
-230.771	619.630	-0.054	-0.136
-229.757	63.122	-0.045	-0.046
-228.742	-200.000	0.004	-0.249
-227.727	30.475	-0.198	0.170
-226.713	234.680	-0.118	0.195
-225.698	-99.654	-0.266	-0.067
-224.684	-107.107	-0.121	0.027
-223.669	609.121	0.034	0.085
-222.655	-200.000	-0.004	-0.034
-221.640	-44.617	-0.159	0.080
-220.625	449.908	-0.074	0.164
-219.611	-200.000	-0.025	0.128
-218.596	-166.543	-0.115	-0.005
-217.582	247.077	-0.103	0.175
-216.567	-136.301	0.159	0.019
-215.552	207.104	-0.140	0.219
-214.538	2.273	-0.112	0.081
-213.523	126.106	-0.056	0.071
-212.509	-129.415	-0.195	-0.027
-211.494	102.121	-0.206	0.241
-210.479	-115.168	-0.221	-0.042
-209.465	281.370	0.220	0.395
-208.450	29.583	0.111	-0.094
-207.436	473.561	-0.103	-0.233
-206.421	-46.590	-0.238	-0.117
-205.406	699.227	-0.091	-0.239
-204.392	-200.000	-0.060	-0.267
-203.377	-70.923	0.408	-0.154
-202.363	-13.075	-0.159	-0.104
-201.348	800.000	0.037	-0.145
-200.333	-200.000	-0.017	-0.190
-199.319	108.895	-0.250	-0.299
-198.304	-200.000	-0.070	-0.461
-197.290	470.331	-0.114	-0.258
-196.275	-77.223	-0.224	0.078
-195.260	800.000	-0.076	0.263
-194.246	558.199	0.056	-0.134
-193.231	-200.000	-0.025	0.112
-192.217	270.360	0.209	0.368
-191.202	-138.440	0.064	-0.007
-190.187	-162.028	-0.430	-0.022
-189.173	-113.573	-0.055	-0.011
-188.158	466.875	-0.155	0.348
-187.144	-8.958	0.160	-0.107
-186.129	-88.066	0.191	-0.057
-185.114	-61.544	0.283	0.119
-184.100	-90.933	-0.089	-0.026
-183.085	-82.100	0.040	0.013
-182.071	-200.000	0.014	-0.290
-181.056	58.865	0.128	-0.126
-180.042	755.682	-0.134	-0.364
-179.027	57.634	-0.205	-0.201
-178.012	-192.330	-0.258	-0.002
-176.998	350.841	-0.109	-0.215
-175.983	-55.334	-0.212	-0.095
-174.969	374.417	0.091	0.185
-173.954	-86.501	-0.275	-0.084
-172.939	-64.833	0.334	-0.135
-171.925	395.374	0.191	-0.399
-170.910	386.729	0.131	-0.270
-169.896	800.000	0.026	-0.095
-168.881	19.699	0.151	-0.121
-167.866	-200.000	-0.003	-0.136
-166.852	-200.000	-0.005	-0.212
-165.837	-200.000	-0.013	-0.467
-164.823	-127.785	-0.274	-0.040
-163.808	-53.071	0.247	-0.113
-162.793	-200.000	0.002	-0.070
-161.779	-173.470	-0.214	0.006
-160.764	-179.405	-0.347	0.008
-159.750	-200.000	0.027	0.138
-158.735	-57.634	0.071	0.031
-157.720	-200.000	-0.024	-0.178
-156.706	-69.968	-0.023	-0.009
-155.691	-91.725	-0.348	-0.099
-154.677	-200.000	0.047	0.239
-153.662	157.088	0.093	0.129
-152.647	-200.000	-0.003	0.114
-151.633	-141.898	-0.109	0.011
-150.618	-133.204	-0.432	-0.055
-149.604	-117.154	0.260	0.047
-148.589	168.196	-0.079	0.112
-147.574	-200.000	0.007	-0.033
-146.560	-174.405	0.477	0.014
-145.545	-90.117	0.144	0.042
-144.531	-58.488	-0.111	0.048
-143.516	343.010	-0.112	0.219
-142.502	21.761	-0.126	-0.102
-141.487	33.370	0.158	-0.137
-140.472	26.508	-0.058	0.049
-139.458	152.362	0.095	-0.130
-138.443	361.366	-0.029	0.058
-137.429	62.630	-0.194	0.194
-136.414	-200.000	-0.029	-0.135
-135.399	800.000	-0.051	-0.142
-134.385	-123.575	0.020	-0.003
-133.370	-4.122	-0.112	-0.077
-132.356	-136.185	0.323	-0.038
-131.341	310.410	-0.040	0.075
-130.326	241.263	-0.091	-0.151
-129.312	42.074	-0.165	0.149
-128.297	-90.525	-0.043	0.012
-127.283	800.000	-0.082	-0.287
-126.268	117.534	-0.222	0.273
-125.253	224.990	-0.172	-0.278
-124.239	-53.539	0.183	0.083
-123.224	330.393	0.045	0.086
-122.210	-56.886	0.433	-0.191
-121.195	-200.000	0.040	0.538
-120.180	-200.000	-0.013	0.102
-119.166	-200.000	0.053	0.235
-118.151	-119.506	0.253	-0.044
-117.137	-200.000	-0.071	-0.367
-116.122	456.896	-0.198	-0.439
-115.107	135.863	0.052	0.068
-114.093	36.027	0.129	-0.114
-113.078	-84.310	0.432	-0.137
-112.064	517.729	-0.126	0.293
-111.049	-136.729	0.257	-0.030
-110.034	-22.422	-0.094	-0.057
-109.020	638.232	0.073	0.186
-108.005	25.463	-0.157	0.130
-106.991	234.785	-0.119	0.196
-105.976	-75.032	0.537	-0.192
-104.962	800.000	-0.013	0.039
-103.947	-75.698	-0.161	-0.057
-102.932	-37.427	-0.215	0.115
-101.918	245.487	-0.112	0.188
-100.903	800.000	0.040	0.142
-99.889	5.855	0.155	0.115
-98.874	-86.259	0.108	-0.033
-97.859	18.143	-0.086	-0.069
-96.845	800.000	-0.010	0.039
-95.830	-27.695	0.129	0.075
-94.816	-200.000	0.011	0.226
-93.801	-153.333	0.133	0.009
-92.786	120.366	0.129	-0.159
-91.772	109.453	0.045	0.054
-90.757	71.790	0.013	0.013
-89.743	51.545	0.231	-0.219
-88.728	529.899	0.102	0.240
-87.713	542.478	-0.028	-0.067
-86.699	-118.509	0.425	0.075
-85.684	-88.107	-0.008	-0.002
-84.670	445.176	-0.086	0.188
-83.655	-56.996	-0.179	-0.079
-82.640	-195.996	0.454	0.003
-81.626	187.348	-0.095	-0.142
-80.611	-107.376	0.253	-0.055
-79.597	-194.295	0.341	0.003
-78.582	800.000	-0.058	0.163
-77.567	81.809	-0.070	-0.075
-76.553	-79.525	-0.181	-0.061
-75.538	-16.330	-0.282	0.178
-74.524	-200.000	-0.005	0.256
-73.509	-43.844	0.086	0.043
-72.494	366.143	0.057	-0.114
-71.480	800.000	-0.047	0.204
-70.465	-75.383	0.282	0.100
-69.451	-178.428	0.246	-0.006
-68.436	56.071	0.095	-0.092
-67.422	76.478	0.061	-0.065
-66.407	-200.000	0.000	0.223
-65.392	800.000	-0.098	0.281
-64.378	136.006	-0.039	0.050
-63.363	800.000	-0.102	-0.326
-62.349	-8.483	0.129	0.086
-61.334	30.698	-0.486	-0.415
-60.319	94.053	0.397	0.449
-59.305	800.000	-0.166	-0.642
-58.290	6.089	0.795	0.587
-57.276	800.000	0.393	1.642
-56.261	-200.000	75.955	509.760
-55.246	523.266	1325.442	3103.056
-54.232	147.027	2556.359	3425.590
-53.217	116.539	2240.665	2737.456
-52.203	51.204	1764.001	1667.462
-51.188	43.819	1563.492	1426.116
-50.173	41.193	1533.503	1380.533
-49.159	57.413	1569.737	1526.902
-48.144	63.300	1589.489	1587.205
-47.130	44.533	1552.847	1421.173
-46.115	40.980	1538.630	1383.451
-45.100	40.696	1535.396	1378.512
-44.086	40.700	1533.630	1376.899
-43.071	40.546	1531.307	1373.693
-42.057	40.572	1529.583	1372.274
-41.042	40.603	1527.868	1370.896
-40.027	40.503	1527.060	1369.425
-39.013	40.567	1524.885	1367.863
-37.998	40.504	1523.638	1366.256
-36.984	40.576	1522.923	1366.053
-35.969	40.555	1521.362	1364.458
-34.954	40.491	1520.026	1362.764
-33.940	40.540	1518.062	1361.282
-32.925	40.662	1516.099	1360.305
-31.911	40.583	1515.377	1359.062
-30.896	40.688	1513.798	1358.312
-29.881	40.658	1512.682	1357.052
-28.867	40.711	1511.261	1356.089
-27.852	40.649	1510.062	1354.530
-26.838	40.690	1508.085	1352.986
-25.823	40.672	1506.464	1351.352
-24.809	40.687	1505.158	1350.231
-23.794	40.620	1504.035	1348.714
-22.779	40.633	1502.898	1347.728
-21.765	40.586	1501.838	1346.405
-20.750	40.620	1500.537	1345.419
-19.736	40.579	1499.423	1344.087
-18.721	40.570	1498.445	1343.097
-17.706	40.552	1496.798	1341.443
-16.692	40.626	1495.548	1340.769
-15.677	40.577	1494.957	1339.858
-14.663	40.569	1493.601	1338.533
-13.648	40.525	1492.666	1337.346
-12.633	40.532	1492.028	1336.774
-11.619	40.509	1491.520	1336.106
-10.604	40.532	1490.348	1335.161
-9.590	40.515	1489.110	1333.883
-8.575	40.551	1488.252	1333.305
-7.560	40.474	1487.696	1332.234
-6.546	40.558	1486.141	1331.352
-5.531	40.544	1485.524	1330.653
-4.517	40.434	1485.113	1329.496
-3.502	40.525	1483.842	1328.917
-2.487	40.520	1482.970	1328.050
-1.473	40.505	1481.642	1326.708
-0.458	40.567	1480.445	1325.997
0.556	41.067	1471.633	1316.391
1.571	38.367	1445.029	1274.907
2.586	34.821	1383.535	1198.364
3.600	32.973	1300.409	1115.361
4.615	30.660	1250.909	1059.652
5.629	24.883	1191.250	977.581
6.644	12.903	1099.672	841.571
7.659	3.973	1052.841	761.858
8.673	2.676	1046.923	751.158
9.688	2.454	1043.919	747.854
10.702	2.262	1042.129	745.570
11.717	2.089	1040.834	743.734
12.731	5.823	1045.073	764.934
13.746	16.723	1060.837	830.109
14.761	24.730	1070.333	876.903
15.775	25.696	1071.335	882.385
16.790	25.831	1070.860	882.575
17.804	25.737	1069.835	881.192
18.819	25.467	1069.353	879.395
19.834	25.661	1068.210	879.325
20.848	25.754	1067.917	879.465
21.863	25.764	1067.417	879.023
22.877	25.738	1067.280	878.705
23.892	25.755	1066.606	878.155
24.907	25.663	1065.725	876.901
25.921	25.599	1065.187	876.072
26.936	25.692	1064.301	875.717
27.950	25.589	1063.683	874.628
28.965	25.659	1062.050	873.549
29.980	25.555	1060.609	871.781
30.994	25.394	1059.422	869.952
32.009	25.663	1058.622	870.519
33.023	25.762	1058.634	870.929
34.038	25.598	1057.244	868.920
35.053	25.572	1056.206	867.861
36.067	25.662	1056.055	868.097
37.082	25.638	1055.100	867.119
38.096	25.770	1053.726	866.548
39.111	25.781	1053.658	866.469
40.126	25.952	1052.639	866.378
41.140	25.941	1051.288	865.132
42.155	25.514	1050.326	862.218
43.169	25.247	1048.721	859.547
44.184	25.216	1047.725	858.503
45.199	25.282	1046.903	858.072
46.213	25.182	1046.005	856.780
47.228	25.258	1045.043	856.282
48.242	25.401	1044.519	856.455
49.257	25.503	1043.967	856.415
50.271	25.566	1042.806	855.687
51.286	25.773	1042.140	856.046
52.301	25.639	1041.761	855.027
53.315	25.773	1041.120	855.059
54.330	25.755	1040.035	854.006
55.344	25.525	1039.465	852.373
56.359	25.652	1038.352	851.984
57.374	25.589	1037.984	851.309
58.388	25.491	1036.856	849.849
59.403	25.379	1036.110	848.630
60.417	25.516	1035.223	848.476
61.432	25.285	1034.488	846.706
62.447	25.363	1033.672	846.333
63.461	25.435	1033.052	846.090
64.476	25.388	1032.596	845.419
65.490	25.417	1031.527	844.607
66.505	25.359	1030.481	843.405
67.520	25.273	1029.871	842.426
68.534	25.371	1029.215	842.273
69.549	25.332	1028.220	841.202
70.563	24.952	1027.291	838.589
71.578	24.830	1026.460	837.267
72.593	25.036	1025.313	837.220
73.607	24.849	1024.178	835.347
74.622	24.878	1023.247	834.648
75.636	25.072	1022.854	835.157
76.651	25.215	1022.142	835.168
77.666	25.094	1021.427	833.946
78.680	24.945	1020.866	832.724
79.695	24.995	1019.961	832.145
80.709	25.103	1019.226	831.969
81.724	25.246	1018.573	832.027
82.739	25.118	1017.868	830.783
83.753	25.274	1016.960	830.692
84.768	25.454	1016.658	831.203
85.782	25.743	1016.373	832.236
86.797	25.986	1015.804	832.816
87.812	25.974	1014.432	831.563
88.826	25.724	1013.835	829.847
89.841	25.715	1013.113	829.144
90.855	25.815	1012.169	828.758
91.870	25.918	1011.438	828.556
92.884	25.853	1010.529	827.440
93.899	25.718	1009.740	826.102
94.914	25.664	1008.340	824.637
95.928	25.772	1007.967	824.754
96.943	25.920	1006.891	824.476
97.957	25.382	1006.043	821.249
98.972	25.305	1004.709	819.736
99.987	25.221	1003.453	818.257
101.001	25.187	1003.097	817.741
102.016	25.516	1002.487	818.668
103.030	25.553	1001.780	818.186
104.045	25.607	1000.464	817.285
105.060	25.454	999.284	815.556
106.074	25.288	998.046	813.719
107.089	25.272	997.515	813.143
108.103	25.483	997.864	814.312
109.118	25.694	996.721	814.258
110.133	25.395	995.345	811.715
111.147	25.398	994.313	810.813
112.162	25.312	992.822	809.138
113.176	24.859	992.389	806.674
114.191	25.252	991.260	807.450
115.206	25.281	990.963	807.271
116.220	25.025	989.552	804.897
117.235	24.722	989.024	803.036
118.249	24.869	988.480	803.185
119.264	24.914	987.507	802.525
120.279	24.822	987.036	801.659
121.293	24.874	985.984	800.966
122.308	25.010	985.415	801.043
123.322	24.991	984.391	800.053
124.337	24.938	983.412	798.949
125.352	24.877	982.288	797.694
126.366	24.453	980.615	794.378
127.381	24.234	979.217	792.205
128.395	24.745	978.452	793.780
129.410	25.203	979.292	796.427
130.424	25.479	978.464	796.906
131.439	25.597	977.529	796.597
132.454	25.627	975.858	795.299
133.468	25.478	975.493	794.272
134.483	25.383	975.139	793.494
135.497	25.447	974.366	793.077
136.512	25.700	973.737	793.612
137.527	25.714	973.339	793.277
138.541	25.734	972.171	792.344
139.556	25.756	971.320	791.675
140.570	25.828	970.484	791.240
141.585	25.868	969.716	790.723
142.600	25.901	969.039	790.244
143.614	25.874	968.236	789.398
144.629	25.851	967.744	788.830
145.643	26.267	966.985	789.959
146.658	25.977	965.957	787.783
147.673	25.811	964.640	785.915
148.687	25.727	963.534	784.578
149.702	25.670	962.532	783.444
150.716	25.521	961.555	781.932
151.731	25.386	960.969	780.801
152.746	25.511	960.133	780.597
153.760	25.640	959.743	780.768
154.775	25.736	958.909	780.437
155.789	25.908	958.031	780.398
156.804	25.929	956.760	779.383
157.819	25.875	955.622	778.155
158.833	25.796	955.145	777.356
159.848	25.902	954.480	777.205
160.862	25.977	953.769	776.879
161.877	25.883	952.859	775.665
162.892	25.636	952.112	773.926
163.906	25.928	950.947	774.167
164.921	25.808	950.074	772.870
165.935	25.798	949.024	771.908
166.950	25.894	947.974	771.392
167.964	25.869	946.990	770.420
168.979	25.796	946.014	769.244
169.994	25.772	945.084	768.317
171.008	25.713	943.729	766.898
172.023	25.813	943.350	766.945
173.037	25.967	942.739	767.037
174.052	25.838	941.651	765.536
175.067	25.682	940.383	763.775
176.081	25.653	939.853	763.156
177.096	25.606	939.450	762.561
178.110	25.687	938.402	761.986
179.125	25.610	937.379	760.763
180.140	25.238	936.235	758.195
181.154	25.260	935.854	757.913
182.169	25.572	935.208	758.638
183.183	25.589	935.066	758.528
184.198	25.824	934.574	759.050
185.213	25.910	934.194	759.039
186.227	25.835	933.099	757.765
187.242	25.759	933.155	757.423
188.256	25.851	932.219	756.983
189.271	25.937	931.347	756.570
190.286	25.908	930.834	755.965
191.300	25.888	929.469	754.704
192.315	25.187	928.533	750.945
193.329	24.435	926.800	746.334
194.344	24.063	925.497	743.664
195.359	24.468	926.516	746.111
196.373	25.469	926.329	750.074
197.388	25.749	926.217	751.088
198.402	25.912	925.255	750.918
199.417	25.681	925.109	749.770
200.432	25.696	924.493	749.269
201.446	25.730	923.764	748.751
202.461	25.393	922.935	746.613
203.475	25.502	922.059	746.292
204.490	25.004	921.041	743.335
205.504	23.898	919.146	737.157
206.519	24.216	918.532	737.919
207.534	25.097	919.578	742.344
208.548	25.340	918.723	742.593
209.563	25.720	918.611	744.007
210.577	25.710	917.751	743.204
211.592	25.510	916.896	741.620
212.607	25.780	917.041	742.787
213.621	26.098	916.442	743.544
214.636	25.825	915.859	741.884
215.650	25.861	915.724	741.857
216.665	25.780	914.646	740.584
217.680	25.749	914.455	740.237
218.694	26.039	913.693	740.744
219.709	25.656	912.641	738.255
220.723	25.393	911.937	736.542
221.738	25.439	911.400	736.233
222.753	25.696	910.792	736.729
223.767	25.681	909.691	735.708
224.782	25.760	909.172	735.549
225.796	25.887	909.158	735.991
226.811	25.905	908.496	735.463
227.826	25.731	906.997	733.476
228.840	24.842	905.418	728.515
229.855	24.736	905.138	727.795
230.869	24.985	904.783	728.460
231.884	24.697	903.678	726.337
232.899	24.759	903.091	726.052
233.913	25.436	903.477	729.043
234.928	25.707	902.703	729.455
235.942	25.588	902.266	728.554
236.957	25.571	901.950	728.165
237.972	25.424	900.580	726.399
238.986	25.244	899.918	725.073
240.001	25.304	899.679	725.061
241.015	25.365	898.783	724.520
242.030	25.454	898.329	724.448
243.045	25.511	897.990	724.341
244.059	25.617	897.624	724.410
245.074	25.846	896.725	724.541
246.088	25.896	895.618	723.781
247.103	25.546	895.275	722.037
248.117	25.526	894.336	721.134
249.132	25.950	894.734	723.093
250.147	26.425	894.269	724.556
251.161	26.563	893.620	724.520
252.176	26.527	893.783	724.445
253.190	26.606	892.692	723.809
254.205	26.614	892.081	723.284
255.220	26.809	891.879	723.833
256.234	26.875	891.221	723.498
257.249	26.815	890.304	722.452
258.263	26.650	889.842	721.354
259.278	26.531	889.695	720.698
260.293	26.735	888.840	720.752
261.307	26.767	888.450	720.502
262.322	26.568	887.757	719.084
263.336	26.620	886.744	718.408
264.351	26.117	885.604	715.427
265.366	25.124	883.421	709.671
266.380	24.502	883.246	707.007
267.395	25.284	883.709	710.412
268.409	26.150	883.723	713.785
269.424	26.255	882.455	713.112
270.439	26.297	881.952	712.810
271.453	26.440	881.867	713.240
272.468	26.521	881.161	712.925
273.482	26.596	880.918	712.963
274.497	26.625	880.637	712.783
275.512	26.450	879.439	711.065
276.526	26.012	877.903	708.039
277.541	26.069	877.699	708.037
278.555	26.512	877.229	709.334
279.570	26.230	876.792	707.810
280.585	26.257	875.965	707.187
281.599	26.188	875.812	706.728
282.614	26.279	875.190	706.521
283.628	25.971	873.819	704.148
284.643	25.560	872.946	701.779
285.657	25.903	873.128	703.201
286.672	25.831	872.275	702.175
287.687	25.230	871.546	699.183
288.701	25.634	871.564	700.708
289.716	25.990	871.429	701.925
290.730	25.822	870.013	700.067
291.745	25.710	869.432	699.104
292.760	25.437	869.013	697.645
293.774	25.278	868.300	696.395
294.789	26.284	868.197	700.152
295.803	26.984	868.544	703.082
296.818	26.884	868.330	702.457
297.833	26.997	867.850	702.444
298.847	26.689	866.796	700.339
299.862	26.649	865.247	698.870
300.876	26.640	865.122	698.673
301.891	26.947	864.967	699.670
302.906	27.201	864.005	699.810
303.920	26.606	863.256	696.851
304.935	26.367	862.802	695.504
305.949	26.769	862.731	696.931
306.964	26.859	862.375	696.927
307.979	26.854	861.191	695.891
308.993	26.511	860.840	694.227
310.008	26.971	860.350	695.535
311.022	27.081	860.257	695.820
312.037	26.948	859.669	694.774
313.052	26.732	858.743	693.138
314.066	26.620	858.114	692.141
315.081	25.947	856.364	688.101
316.095	25.077	855.048	683.666
317.110	25.571	855.375	685.751
318.125	26.421	855.344	688.905
319.139	26.228	854.620	687.528
320.154	24.997	852.979	681.464
321.168	24.514	852.228	678.971
322.183	25.221	852.089	681.484
323.197	26.109	852.442	685.079
324.212	26.535	852.127	686.382
325.227	26.578	851.494	685.974
326.241	26.704	851.494	686.392
327.256	26.631	850.600	685.333
328.270	26.541	850.052	684.489
329.285	26.379	849.783	683.600
330.300	26.245	848.770	682.218
331.314	26.055	848.099	680.904
332.329	26.141	847.449	680.646
333.343	26.404	847.265	681.429
334.358	26.877	846.804	682.777
335.373	26.827	846.282	682.109
336.387	26.723	845.601	681.107
337.402	26.995	845.366	681.881
338.416	27.308	845.108	682.785
339.431	27.336	844.310	682.186
340.446	27.396	843.751	681.898
341.460	27.405	843.768	681.886
342.475	27.405	843.165	681.338
343.489	27.198	842.220	679.740
344.504	27.192	841.875	679.381
345.519	27.410	841.904	680.158
346.533	27.604	841.027	680.112
347.548	27.769	840.598	680.322
348.562	27.745	839.861	679.574
349.577	27.680	839.564	679.032
350.592	27.404	839.180	677.636
351.606	27.490	838.625	677.446
352.621	27.546	837.921	677.025
353.635	27.519	837.709	676.695
354.650	27.286	837.316	675.452
355.665	27.122	835.901	673.644
356.679	26.098	834.056	668.305
357.694	25.837	833.987	667.227
358.708	26.689	833.708	670.096
359.723	26.453	833.036	668.623
360.738	26.790	832.510	669.386
361.752	27.201	832.911	671.168
362.767	27.299	832.664	671.272
363.781	27.525	832.462	671.882
364.796	27.892	832.224	672.984
365.810	27.696	832.252	672.227
366.825	27.884	831.708	672.418
367.840	28.037	831.030	672.372
368.854	27.948	830.364	671.449
369.869	27.448	829.460	668.822
370.883	27.288	828.673	667.543
371.898	27.309	828.403	667.343
372.913	27.314	827.781	666.801
373.927	27.403	826.943	666.393
374.942	27.410	826.285	665.827
375.956	27.521	825.815	665.795
376.971	27.671	825.396	665.945
377.986	27.865	824.512	665.883
379.000	27.849	824.845	666.033
380.015	27.909	824.295	665.751
381.029	27.700	823.571	664.344
382.044	27.715	822.794	663.714
383.059	27.903	822.144	663.814
384.073	27.917	821.742	663.481
385.088	27.930	821.328	663.135
386.102	27.870	820.674	662.331
387.117	27.656	819.772	660.771
388.132	27.628	819.362	660.281
389.146	27.348	819.021	658.934
390.161	26.969	817.994	656.676
391.175	26.964	817.384	656.112
392.190	27.404	817.790	657.968
393.205	27.397	817.636	657.762
394.219	26.774	815.548	653.780
395.234	24.949	813.527	645.528
396.248	24.023	812.340	641.196
397.263	25.120	813.306	645.855
398.278	26.786	814.691	652.903
399.292	27.586	814.129	655.272
400.307	27.295	813.383	653.569
401.321	27.157	813.027	652.730
402.336	27.126	812.957	652.502
403.350	27.628	812.676	654.021
404.365	28.115	812.379	655.472
405.380	28.231	812.583	655.992
406.394	28.543	812.157	656.708
407.409	28.852	811.870	657.522
408.423	28.587	811.378	656.121
409.438	28.390	810.980	655.036
410.453	28.621	809.844	654.887
411.467	28.664	810.137	655.219
412.482	28.619	809.490	654.475
413.496	28.548	808.718	653.541
414.511	28.722	808.456	653.892
415.526	28.697	808.098	653.456
416.540	28.629	807.862	652.964
417.555	28.681	806.996	652.392
418.569	28.338	806.483	650.701
419.584	28.081	806.169	649.477
420.599	28.346	805.419	649.754
421.613	95.720	1264.307	1377.517
422.628	82.149	1331.214	1377.653
