DTS Sentinel unit serial number:	SN413079Multiplexer serial number:	ORYXHardware model number:	OX4-SRSoftware version number:	ORYX F/W v4.00 Oryx Data Collector v3.7.2.0data status	okinstallation	princeton_trtdifferential loss correction	single-endedforward channel	channel 3reverse channel	N/Adate	2019/09/19time	10:24:34forward acquisition time	60.00reverse acquisition time	0.00gamma	496.2192k internal	0.2343k external	0.2343temperature offset calibration	0.9984default loss term (dB/km)	0.3790temperature slope calibration	1.0000multiplexer offset coefficient	1.0000multiplexer slope coefficient	1.0000fibre end	0.00T internal ref (°C)	24.25T ext. ref 1 (°C)	0.70T ext. ref 2 (°C)	19.86length (m)	temperature (°C)	Stokes	anti-Stokes-747.200	-200.000	-0.031	0.156
-746.185	-148.364	0.269	-0.022
-745.171	800.000	0.024	-0.090
-744.156	195.413	0.241	0.367
-743.142	346.804	-0.121	0.238
-742.127	348.652	-0.107	0.211
-741.112	-57.210	-0.220	-0.097
-740.098	-200.000	-0.035	-0.410
-739.083	-186.084	-0.182	-0.003
-738.069	-57.599	-0.066	-0.029
-737.054	217.200	0.110	-0.175
-736.039	-200.000	-0.020	-0.375
-735.025	-54.007	0.415	0.189
-734.010	-21.773	-0.171	-0.104
-732.996	192.908	0.061	0.092
-731.981	800.000	0.076	-0.299
-730.966	229.877	0.116	-0.189
-729.952	31.471	0.188	-0.161
-728.937	89.201	-0.114	-0.127
-727.923	69.962	0.055	-0.057
-726.908	-137.903	-0.379	-0.042
-725.894	34.844	-0.126	-0.111
-724.879	-96.891	-0.278	-0.073
-723.864	77.693	-0.241	-0.257
-722.850	-17.540	-0.053	-0.033
-721.835	415.528	-0.123	-0.262
-720.821	78.697	-0.260	-0.278
-719.806	-200.000	0.041	0.280
-718.791	61.394	-0.094	0.094
-717.777	241.645	-0.108	-0.180
-716.762	57.992	-0.104	-0.102
-715.748	-119.326	-0.205	0.036
-714.733	-108.456	-0.149	0.032
-713.718	274.316	0.173	0.307
-712.704	-200.000	0.016	0.183
-711.689	-103.072	0.075	-0.018
-710.675	295.918	0.193	-0.354
-709.660	16.158	0.196	0.154
-708.645	-22.509	-0.166	0.101
-707.631	-200.000	-0.049	-0.226
-706.616	193.692	0.088	-0.133
-705.602	470.698	-0.066	-0.148
-704.587	209.874	-0.065	0.102
-703.572	-120.382	0.322	0.055
-702.558	474.343	-0.141	-0.318
-701.543	-39.116	-0.422	-0.222
-700.529	800.000	0.050	-0.196
-699.514	-200.000	-0.025	0.185
-698.499	-200.000	0.014	0.084
-697.485	-139.502	-0.171	0.018
-696.470	-200.000	0.067	-0.377
-695.456	-1.066	-0.145	0.103
-694.441	-118.415	-0.241	-0.043
-693.426	-46.538	-0.196	-0.096
-692.412	-31.938	-0.182	0.102
-691.397	471.091	-0.083	0.186
-690.383	261.224	0.125	0.217
-689.368	243.345	0.140	0.235
-688.354	79.895	-0.100	-0.107
-687.339	-178.865	0.363	-0.008
-686.324	-8.863	-0.003	0.002
-685.310	-141.729	0.262	0.026
-684.295	-76.131	0.024	0.008
-683.281	185.456	0.069	-0.103
-682.266	-83.338	0.238	0.076
-681.251	79.966	-0.179	0.192
-680.237	-126.546	0.176	0.026
-679.222	207.425	-0.090	-0.140
-678.208	8.629	-0.063	-0.047
-677.193	242.929	0.033	-0.055
-676.178	40.840	-0.299	0.269
-675.164	-38.847	0.125	-0.066
-674.149	1.008	-0.145	-0.104
-673.135	534.294	-0.161	-0.381
-672.120	100.018	-0.144	0.166
-671.105	595.335	0.115	0.285
-670.091	-57.520	-0.166	-0.073
-669.076	-102.627	-0.356	-0.085
-668.062	-13.889	0.185	0.120
-667.047	-200.000	-0.062	0.317
-666.032	800.000	0.081	-0.222
-665.018	190.077	-0.161	-0.241
-664.003	127.043	-0.184	0.233
-662.989	-16.847	-0.418	-0.264
-661.974	606.256	0.140	-0.349
-660.959	-132.648	0.163	0.021
-659.945	306.950	-0.077	0.143
-658.930	-55.034	-0.355	0.160
-657.916	-82.777	0.040	-0.013
-656.901	384.529	0.067	-0.139
-655.886	-200.000	-0.018	-0.208
-654.872	-92.664	0.356	-0.100
-653.857	475.199	-0.151	0.341
-652.843	33.953	-0.263	0.228
-651.828	800.000	0.075	-0.257
-650.814	-108.475	0.091	0.020
-649.799	-170.652	0.047	0.002
-648.784	28.746	0.207	0.175
-647.770	391.280	-0.042	-0.087
-646.755	-200.000	0.046	-0.206
-645.741	-39.753	0.146	0.076
-644.726	-200.000	0.086	0.477
-643.711	800.000	0.046	-0.189
-642.697	13.270	-0.185	0.143
-641.682	523.196	0.103	-0.241
-640.668	-200.000	0.114	-0.559
-639.653	259.127	0.138	-0.237
-638.638	187.517	0.159	-0.237
-637.624	-80.943	-0.150	-0.050
-636.609	217.658	0.054	0.086
-635.595	224.214	-0.082	-0.132
-634.580	-200.000	-0.067	0.293
-633.565	800.000	-0.070	-0.231
-632.551	-67.386	-0.194	-0.076
-631.536	800.000	-0.076	-0.257
-630.522	89.304	-0.060	-0.067
-629.507	59.847	0.110	0.108
-628.492	-87.180	0.075	-0.023
-627.478	-11.823	0.252	0.165
-626.463	740.233	0.124	0.331
-625.449	-8.261	-0.406	0.272
-624.434	-200.000	0.022	-0.199
-623.419	-64.786	-0.273	-0.110
-622.405	-129.072	0.307	-0.043
-621.390	487.541	0.067	0.153
-620.376	-81.396	0.353	0.116
-619.361	117.406	-0.215	-0.263
-618.346	-200.000	0.045	-0.386
-617.332	60.130	0.126	0.124
-616.317	588.458	0.031	-0.077
-615.303	-145.261	-0.061	0.005
-614.288	15.299	-0.249	-0.195
-613.273	-160.207	0.157	-0.008
-612.259	-198.963	-0.176	-0.001
-611.244	-89.719	-0.443	-0.129
-610.230	-200.000	-0.005	-0.174
-609.215	178.436	0.248	-0.361
-608.201	-51.312	-0.361	-0.168
-607.186	200.336	-0.139	-0.212
-606.171	52.525	-0.261	-0.248
-605.157	96.133	-0.333	0.379
-604.142	-82.223	-0.139	0.045
-603.128	800.000	-0.041	-0.153
-602.113	-99.054	-0.240	-0.061
-601.098	-200.000	0.010	0.113
-600.084	-137.774	-0.067	0.007
-599.069	67.285	0.117	0.119
-598.055	-200.000	-0.008	0.171
-597.040	509.181	0.127	0.293
-596.025	142.472	0.128	-0.169
-595.011	-200.000	0.001	0.138
-593.996	141.477	-0.082	-0.107
-592.982	430.707	0.008	0.018
-591.967	-200.000	-0.017	0.081
-590.952	110.758	-0.118	-0.142
-589.938	-68.387	0.083	-0.032
-588.923	800.000	0.090	-0.249
-587.909	-200.000	-0.036	0.264
-586.894	720.367	-0.060	0.158
-585.879	-118.393	-0.057	-0.010
-584.865	98.831	-0.042	-0.049
-583.850	20.530	0.255	0.205
-582.836	116.476	0.159	0.194
-581.821	-77.161	-0.325	-0.113
-580.806	800.000	0.104	0.316
-579.792	-200.000	-0.014	-0.118
-578.777	-40.038	0.309	0.160
-577.763	295.051	0.155	0.283
-576.748	-123.425	-0.159	0.025
-575.733	800.000	0.066	0.203
-574.719	128.892	-0.140	0.178
-573.704	93.699	-0.110	0.124
-572.690	-38.616	0.112	-0.059
-571.675	-90.887	0.138	-0.040
-570.661	-200.000	0.061	-0.341
-569.646	88.486	0.073	-0.081
-568.631	444.594	0.067	0.147
-567.617	-71.591	0.090	-0.034
-566.602	-29.289	0.152	0.086
-565.588	246.207	-0.019	0.032
-564.573	268.833	-0.011	-0.020
-563.558	54.273	-0.101	0.096
-562.544	175.159	0.020	0.028
-561.529	24.773	-0.083	-0.069
-560.515	-149.832	0.120	-0.009
-559.500	800.000	0.058	0.192
-558.485	-89.632	0.168	-0.049
-557.471	-76.800	0.189	-0.066
-556.456	-113.079	0.257	-0.050
-555.442	-20.262	0.040	0.025
-554.427	24.589	0.079	0.065
-553.412	-200.000	0.045	0.408
-552.398	12.008	0.042	-0.032
-551.383	-200.000	-0.008	-0.166
-550.369	-28.693	-0.262	-0.150
-549.354	-123.917	-0.106	-0.017
-548.339	161.380	0.077	0.108
-547.325	479.615	0.054	0.123
-546.310	227.053	-0.178	0.287
-545.296	-144.260	-0.172	0.016
-544.281	800.000	-0.037	0.125
-543.266	15.846	-0.170	0.133
-542.252	-6.887	0.286	0.193
-541.237	9.281	-0.119	-0.089
-540.223	415.115	-0.038	0.081
-539.208	-43.095	0.283	-0.142
-538.193	27.634	-0.426	-0.356
-537.179	-173.276	-0.184	-0.006
-536.164	86.108	0.146	-0.160
-535.150	698.858	-0.048	0.126
-534.135	-200.000	0.030	0.240
-533.121	156.046	0.089	0.122
-532.106	-66.907	-0.042	0.017
-531.091	101.186	-0.281	-0.325
-530.077	83.978	-0.191	-0.207
-529.062	0.993	0.236	-0.168
-528.048	-157.631	0.263	-0.016
-527.033	-145.157	-0.511	-0.046
-526.018	-141.839	-0.233	-0.023
-525.004	800.000	-0.040	-0.159
-523.989	800.000	-0.050	0.189
-522.975	243.682	-0.143	0.238
-521.960	-126.144	0.223	-0.033
-520.945	-200.000	0.077	0.571
-519.931	-200.000	-0.037	-0.239
-518.916	106.741	0.191	-0.225
-517.902	800.000	-0.035	-0.140
-516.887	-27.752	-0.154	0.089
-515.872	-103.563	-0.210	0.049
-514.858	334.333	0.021	0.041
-513.843	200.279	-0.072	0.109
-512.829	-161.741	-0.207	0.010
-511.814	-47.819	0.083	0.040
-510.799	-200.000	0.009	-0.063
-509.785	-47.246	0.213	0.103
-508.770	-17.991	-0.337	-0.210
-507.756	-72.734	-0.191	0.070
-506.741	-200.000	-0.069	0.478
-505.726	800.000	-0.119	0.345
-504.712	456.536	-0.115	-0.252
-503.697	-200.000	0.006	-0.092
-502.683	-170.652	-0.227	0.008
-501.668	-58.033	-0.118	-0.051
-500.653	-200.000	-0.001	0.188
-499.639	-78.771	-0.152	0.051
-498.624	-67.519	0.195	-0.076
-497.610	-200.000	-0.029	0.234
-496.595	112.717	0.227	0.272
-495.581	-10.183	-0.156	-0.102
-494.566	-95.131	0.027	0.007
-493.551	-149.367	-0.218	-0.017
-492.537	251.935	-0.046	0.078
-491.522	-98.868	-0.175	-0.044
-490.508	-65.603	0.166	-0.066
-489.493	-200.000	-0.032	0.323
-488.478	-200.000	-0.029	-0.337
-487.464	-118.655	0.093	0.016
-486.449	-11.680	-0.143	-0.093
-485.435	-200.000	0.011	0.266
-484.420	145.030	-0.119	0.157
-483.405	800.000	0.026	-0.103
-482.391	-200.000	0.018	-0.385
-481.376	-179.517	0.164	-0.004
-480.362	334.204	0.128	-0.246
-479.347	-145.871	0.204	-0.018
-478.332	-67.776	-0.460	-0.178
-477.318	800.000	0.057	-0.159
-476.303	-200.000	0.057	-0.266
-475.289	800.000	0.047	0.166
-474.274	78.297	-0.105	0.111
-473.259	-22.936	-0.100	-0.060
-472.245	48.441	0.084	-0.078
-471.230	-94.090	0.382	0.104
-470.216	-91.083	-0.285	0.081
-469.201	-113.500	0.195	-0.038
-468.186	-200.000	0.026	-0.248
-467.172	-105.709	0.161	-0.036
-466.157	-23.024	0.186	-0.111
-465.143	-200.000	-0.042	-0.217
-464.128	-78.224	0.197	-0.067
-463.113	-200.000	0.033	0.178
-462.099	68.390	-0.255	0.259
-461.084	-185.728	-0.219	-0.003
-460.070	-66.923	0.289	0.113
-459.055	800.000	-0.085	-0.239
-458.040	25.934	0.210	-0.174
-457.026	29.162	0.452	0.379
-456.011	-106.449	0.073	0.016
-454.997	-200.000	-0.005	-0.129
-453.982	26.770	0.203	0.169
-452.968	47.644	-0.057	-0.053
-451.953	-63.288	-0.090	0.037
-450.938	-51.300	0.288	0.134
-449.924	772.875	0.027	-0.074
-448.909	-38.033	0.056	-0.030
-447.895	-200.000	0.027	-0.122
-446.880	-200.000	0.020	-0.094
-445.865	-38.178	0.139	0.073
-444.851	177.065	-0.122	-0.176
-443.836	800.000	0.081	-0.254
-442.822	-35.555	-0.115	0.062
-441.807	-73.421	-0.105	-0.038
-440.792	189.050	-0.216	-0.319
-439.778	-34.650	0.028	-0.015
-438.763	113.337	0.155	-0.186
-437.749	242.377	-0.113	-0.188
-436.734	-200.000	0.030	0.173
-435.719	527.297	0.117	0.272
-434.705	-22.327	-0.211	0.127
-433.690	121.838	0.235	0.290
-432.676	-56.830	0.130	0.057
-431.661	-156.744	-0.140	0.009
-430.646	-116.054	-0.263	-0.048
-429.632	800.000	-0.114	-0.327
-428.617	370.856	-0.031	-0.062
-427.603	381.526	-0.078	0.159
-426.588	466.113	0.084	-0.186
-425.573	-200.000	0.026	0.305
-424.559	-99.143	-0.092	-0.023
-423.544	-200.000	0.023	-0.456
-422.530	-200.000	0.076	0.414
-421.515	-152.598	0.066	0.005
-420.500	222.296	-0.105	0.167
-419.486	363.167	-0.162	-0.321
-418.471	-122.608	0.346	-0.055
-417.457	-200.000	-0.032	0.243
-416.442	98.644	-0.159	-0.181
-415.428	13.406	-0.045	0.035
-414.413	47.970	0.207	0.192
-413.398	61.188	0.197	-0.193
-412.384	-26.326	0.313	-0.182
-411.369	-0.341	0.162	-0.114
-410.355	800.000	0.073	0.258
-409.340	-28.229	-0.246	-0.140
-408.325	68.467	-0.197	0.199
-407.311	-180.836	-0.211	-0.004
-406.296	374.625	0.089	0.179
-405.282	-66.505	0.151	0.059
-404.267	-128.594	0.025	0.004
-403.252	800.000	0.076	0.260
-402.238	-61.829	0.505	0.209
-401.223	321.790	0.082	0.154
-400.209	122.246	-0.085	-0.104
-399.194	113.222	0.095	0.114
-398.179	35.052	-0.059	0.051
-397.165	-90.698	-0.180	-0.051
-396.150	-65.767	-0.298	-0.118
-395.136	-161.048	-0.216	0.011
-394.121	141.514	0.026	-0.034
-393.106	4.729	-0.137	-0.100
-392.092	800.000	0.056	-0.235
-391.077	-70.890	0.232	0.086
-390.063	-59.814	0.280	-0.118
-389.048	800.000	0.068	-0.192
-388.033	-145.798	-0.294	0.026
-387.019	-196.397	0.408	0.003
-386.004	97.194	0.168	0.190
-384.990	-200.000	0.055	0.250
-383.975	-23.192	-0.136	0.081
-382.960	671.402	0.056	-0.142
-381.946	150.506	-0.169	-0.227
-380.931	-200.000	-0.052	-0.468
-379.917	211.181	-0.077	0.119
-378.902	46.478	0.199	0.182
-377.888	12.801	-0.124	-0.095
-376.873	-29.212	0.268	-0.152
-375.858	-170.053	0.106	-0.004
-374.844	-41.633	0.183	0.093
-373.829	104.031	-0.178	-0.207
-372.815	-72.315	0.131	0.048
-371.800	-12.838	-0.109	0.070
-370.785	-117.936	0.120	-0.021
-369.771	-200.000	0.016	0.101
-368.756	-200.000	0.031	-0.211
-367.742	83.648	-0.069	-0.075
-366.727	17.145	0.278	0.218
-365.712	97.283	0.194	0.220
-364.698	-200.000	-0.005	0.379
-363.683	-100.552	-0.325	0.079
-362.669	-66.814	0.156	0.061
-361.654	-84.793	0.194	-0.060
-360.639	349.949	-0.066	0.129
-359.625	-69.426	0.161	-0.061
-358.610	-39.522	0.268	-0.138
-357.596	749.971	0.043	-0.115
-356.581	-28.320	-0.244	0.139
-355.566	-115.104	-0.077	0.014
-354.552	-123.084	-0.299	-0.047
-353.537	-5.251	-0.093	-0.063
-352.523	-23.891	-0.235	0.138
-351.508	-200.000	-0.079	-0.412
-350.493	-20.822	-0.391	-0.236
-349.479	-86.996	0.421	-0.127
-348.464	91.750	-0.072	-0.080
-347.450	4.678	0.389	0.282
-346.435	-70.131	-0.169	-0.064
-345.420	-43.151	0.228	-0.114
-344.406	35.771	0.141	-0.122
-343.391	442.279	0.070	-0.151
-342.377	200.496	-0.124	0.188
-341.362	-124.419	0.221	0.034
-340.348	-200.000	-0.006	0.047
-339.333	800.000	-0.033	0.095
-338.318	-115.010	0.049	-0.009
-337.304	32.857	0.075	0.064
-336.289	-200.000	0.007	0.237
-335.275	-200.000	0.021	0.160
-334.260	-101.221	-0.227	-0.055
-333.245	-46.725	0.507	-0.245
-332.231	-56.554	-0.301	-0.132
-331.216	-10.672	-0.147	-0.096
-330.202	-52.886	-0.213	0.096
-329.187	63.193	-0.322	0.318
-328.172	56.437	0.134	0.128
-327.158	-179.586	-0.332	0.007
-326.143	-92.998	0.245	0.067
-325.129	10.357	-0.086	0.065
-324.114	86.897	0.228	-0.248
-323.099	-200.000	0.023	-0.148
-322.085	-89.445	-0.237	-0.069
-321.070	-101.759	0.191	-0.046
-320.056	2.929	-0.145	0.104
-319.041	575.814	0.058	-0.140
-318.026	-85.783	0.177	0.054
-317.012	68.799	-0.115	-0.116
-315.997	373.124	-0.085	0.169
-314.983	-200.000	0.084	-0.370
-313.968	-40.983	0.185	-0.094
-312.953	800.000	-0.063	0.184
-311.939	99.543	-0.149	0.170
-310.924	-16.753	-0.218	0.136
-309.910	609.990	-0.073	0.180
-308.895	-138.506	0.021	0.002
-307.880	41.633	0.096	0.085
-306.866	-128.471	0.214	-0.030
-305.851	-59.376	-0.064	-0.027
-304.837	603.178	-0.079	-0.194
-303.822	374.936	0.173	-0.347
-302.807	-23.327	0.017	0.010
-301.793	-173.364	0.097	0.003
-300.778	-47.197	-0.118	0.057
-299.764	39.361	0.260	0.229
-298.749	-50.370	-0.290	-0.135
-297.735	800.000	-0.088	0.254
-296.720	800.000	0.056	0.165
-295.705	-103.216	-0.092	0.021
-294.691	77.265	-0.133	-0.140
-293.676	351.973	0.080	-0.156
-292.662	-200.000	-0.002	0.132
-291.647	292.324	0.085	-0.153
-290.632	-32.807	-0.080	0.044
-289.618	-139.546	0.023	0.002
-288.603	176.430	-0.159	-0.227
-287.589	211.762	-0.050	0.078
-286.574	-103.929	-0.277	0.064
-285.559	68.222	0.164	0.165
-284.545	-179.529	-0.200	0.004
-283.530	451.987	0.030	0.066
-282.516	44.579	0.214	-0.194
-281.501	91.007	0.239	-0.263
-280.486	119.716	-0.065	-0.079
-279.472	145.710	0.083	0.110
-278.457	660.218	0.106	0.269
-277.443	-87.119	0.244	0.073
-276.428	277.106	-0.124	0.216
-275.413	8.490	0.201	0.148
-274.399	89.850	0.200	-0.220
-273.384	-56.072	-0.246	0.108
-272.370	-126.785	-0.115	-0.017
-271.355	-84.426	0.351	0.109
-270.340	26.728	0.020	-0.016
-269.326	113.512	0.175	0.209
-268.311	30.515	-0.143	0.120
-267.297	-63.356	0.252	-0.102
-266.282	-102.333	0.166	-0.039
-265.267	-187.262	0.173	0.002
-264.253	-200.000	0.006	0.042
-263.238	174.358	0.100	-0.143
-262.224	0.605	0.222	-0.156
-261.209	-64.942	0.086	0.034
-260.195	9.801	-0.148	0.110
-259.180	144.801	0.088	-0.115
-258.165	-200.000	0.068	0.450
-257.151	462.929	-0.234	0.514
-256.136	800.000	0.093	0.288
-255.122	-200.000	-0.067	0.358
-254.107	-26.104	-0.215	0.124
-253.092	103.499	-0.168	0.193
-252.078	-200.000	0.057	0.455
-251.063	800.000	-0.065	0.179
-250.049	-90.968	-0.299	-0.084
-249.034	800.000	-0.037	-0.152
-248.019	158.475	0.152	0.207
-247.005	453.226	-0.057	0.123
-245.990	-61.238	0.137	-0.057
-244.976	-200.000	-0.012	-0.108
-243.961	130.948	-0.086	-0.109
-242.946	17.539	-0.070	0.054
-241.932	-88.386	0.300	0.088
-240.917	383.595	-0.052	0.104
-239.903	411.235	0.087	-0.180
-238.888	-59.619	0.158	0.067
-237.873	358.085	0.053	-0.103
-236.859	27.674	0.150	-0.124
-235.844	800.000	-0.094	0.298
-234.830	-70.542	0.273	-0.102
-233.815	23.290	-0.056	-0.045
-232.800	250.790	-0.081	0.135
-231.786	-200.000	0.036	-0.165
-230.771	-166.173	-0.408	0.017
-229.757	800.000	0.076	-0.309
-228.742	-119.711	0.137	-0.023
-227.727	-200.000	0.022	0.212
-226.713	50.914	0.099	-0.092
-225.698	-47.637	-0.104	0.050
-224.684	-200.000	-0.004	0.147
-223.669	201.657	-0.085	-0.129
-222.655	-157.828	0.154	-0.009
-221.640	-11.265	-0.187	-0.121
-220.625	47.363	-0.156	0.142
-219.611	115.999	0.011	-0.013
-218.596	-59.929	-0.156	-0.065
-217.582	458.754	-0.104	-0.226
-216.567	-200.000	0.039	-0.207
-215.552	-131.150	0.267	-0.035
-214.538	350.927	-0.082	0.158
-213.523	412.851	0.146	-0.305
-212.509	-200.000	-0.065	0.403
-211.494	46.942	0.137	0.125
-210.479	118.433	0.113	-0.137
-209.465	-200.000	0.034	-0.176
-208.450	-200.000	-0.034	-0.546
-207.436	-200.000	0.004	-0.198
-206.421	-38.046	-0.178	-0.092
-205.406	249.554	-0.127	0.210
-204.392	-52.536	-0.127	0.058
-203.377	-122.843	-0.312	-0.049
-202.363	-200.000	0.027	-0.313
-201.348	-180.730	-0.170	-0.003
-200.333	-51.242	-0.244	0.112
-199.319	-200.000	-0.010	-0.206
-198.304	12.283	-0.061	0.046
-197.290	40.489	0.037	0.033
-196.275	0.547	-0.142	-0.100
-195.260	576.823	-0.072	0.172
-194.246	23.368	-0.149	0.120
-193.231	8.000	-0.328	-0.241
-192.217	356.062	-0.085	0.165
-191.202	39.717	-0.219	0.192
-190.187	-101.328	0.284	0.068
-189.173	-177.379	-0.246	-0.006
-188.158	-35.489	-0.245	-0.130
-187.144	134.540	0.248	-0.316
-186.129	-75.276	-0.459	-0.160
-185.114	-87.454	0.296	0.088
-184.100	-117.724	0.111	-0.020
-183.085	376.294	0.054	0.109
-182.071	399.730	-0.107	0.219
-181.056	800.000	0.048	-0.196
-180.042	-4.334	-0.406	-0.275
-179.027	-111.056	-0.319	0.064
-178.012	136.587	-0.123	-0.158
-176.998	-45.471	0.100	-0.048
-175.983	-22.591	-0.140	-0.083
-174.969	31.373	0.169	-0.142
-173.954	800.000	0.113	-0.382
-172.939	164.627	0.086	0.119
-171.925	-9.237	0.115	0.076
-170.910	-77.947	-0.324	0.109
-169.896	24.671	0.248	0.201
-168.881	-122.811	-0.219	0.035
-167.866	569.144	0.077	-0.184
-166.852	49.004	0.141	0.130
-165.837	40.088	-0.069	-0.061
-164.823	401.268	0.176	-0.362
-163.808	800.000	0.062	-0.188
-162.793	-63.519	0.136	0.055
-161.779	-103.856	-0.044	0.010
-160.764	-200.000	-0.041	0.249
-159.750	-114.574	0.392	-0.073
-158.735	170.383	-0.065	-0.090
-157.720	-81.542	0.406	0.131
-156.706	44.507	0.085	-0.076
-155.691	44.789	-0.276	-0.248
-154.677	-72.504	-0.069	0.025
-153.662	-52.141	0.088	-0.040
-152.647	-200.000	0.030	0.221
-151.633	211.786	0.103	0.158
-150.618	164.074	-0.175	-0.241
-149.604	167.821	0.073	0.102
-148.589	-175.630	-0.174	0.005
-147.574	800.000	0.092	-0.347
-146.560	-120.475	0.185	0.031
-145.545	800.000	0.070	-0.215
-144.531	800.000	-0.056	-0.172
-143.516	676.782	-0.081	0.206
-142.502	-200.000	-0.015	-0.111
-141.487	-200.000	0.049	-0.287
-140.472	-98.748	-0.217	0.054
-139.458	42.006	0.202	0.179
-138.443	-141.963	0.192	0.019
-137.429	-137.578	0.315	0.035
-136.414	-79.175	0.054	0.018
-135.399	-200.000	0.031	0.209
-134.385	-47.650	0.226	0.107
-133.370	161.256	-0.109	0.149
-132.356	800.000	0.032	-0.116
-131.341	800.000	0.090	0.338
-130.326	394.054	-0.099	0.201
-129.312	83.504	-0.167	0.178
-128.297	73.483	0.147	-0.151
-127.283	-70.576	-0.240	0.089
-126.268	14.850	-0.350	-0.268
-125.253	-67.472	-0.333	-0.128
-124.239	-200.000	0.004	-0.130
-123.224	-200.000	0.019	-0.125
-122.210	-200.000	-0.093	-0.420
-121.195	-151.543	0.487	0.035
-120.180	-93.971	0.241	-0.065
-119.166	800.000	-0.133	-0.550
-118.151	-92.873	0.139	0.038
-117.137	-200.000	-0.027	0.195
-116.122	-200.000	0.017	-0.082
-115.107	355.281	-0.110	0.214
-114.093	102.494	0.122	-0.140
-113.078	30.291	-0.177	0.148
-112.064	-112.575	-0.583	-0.113
-111.049	-93.010	-0.110	-0.030
-110.034	-1.783	0.252	0.173
-109.020	-44.837	-0.199	-0.097
-108.005	800.000	0.078	-0.223
-106.991	-200.000	-0.030	-0.315
-105.976	88.860	-0.271	-0.295
-104.962	800.000	-0.053	0.163
-103.947	-200.000	0.015	-0.109
-102.932	800.000	-0.116	-0.445
-101.918	-111.095	-0.204	-0.041
-100.903	-128.633	-0.216	0.030
-99.889	-200.000	0.078	-0.355
-98.874	-200.000	0.005	0.178
-97.859	215.565	-0.224	0.347
-96.845	-200.000	-0.005	-0.299
-95.830	-56.921	-0.305	0.132
-94.816	-200.000	0.061	0.345
-93.801	800.000	0.020	-0.075
-92.786	26.976	0.101	0.083
-91.772	-146.772	0.155	0.013
-90.757	30.105	-0.255	0.213
-89.743	800.000	0.016	-0.062
-88.728	100.619	0.263	0.298
-87.713	800.000	0.083	-0.228
-86.699	-54.419	-0.053	0.024
-85.684	-200.000	0.005	-0.104
-84.670	350.045	0.267	0.514
-83.655	-16.916	-0.130	0.080
-82.640	-0.831	0.243	0.168
-81.626	-116.352	-0.104	0.019
-80.611	-130.806	0.189	-0.025
-79.597	-200.000	0.009	0.047
-78.582	529.346	-0.088	0.202
-77.567	-200.000	0.020	0.127
-76.553	-58.423	-0.261	0.111
-75.538	-200.000	0.013	0.153
-74.524	462.068	-0.148	0.322
-73.509	262.874	0.205	-0.347
-72.494	427.151	0.071	0.149
-71.480	220.704	-0.242	0.379
-70.465	-200.000	0.000	-0.133
-69.451	237.809	0.169	0.274
-68.436	202.131	-0.224	0.337
-67.422	-143.257	-0.236	-0.022
-66.407	-77.725	-0.413	0.139
-65.392	800.000	0.079	0.288
-64.378	703.690	-0.082	-0.212
-63.363	347.898	0.254	0.489
-62.349	-200.000	-0.005	0.085
-61.334	169.225	-1.066	-1.483
-60.319	265.607	0.391	0.664
-59.305	533.941	-0.513	-1.186
-58.290	149.791	0.796	1.052
-57.276	-200.000	0.375	1.677
-56.261	-200.000	121.484	618.362
-55.246	384.268	1573.954	3160.482
-54.232	140.233	2747.447	3533.116
-53.217	94.114	2207.508	2441.459
-52.203	34.926	1719.647	1467.015
-51.188	27.393	1535.132	1257.740
-50.173	25.292	1511.107	1223.702
-49.159	47.235	1580.609	1434.307
-48.144	45.438	1594.120	1433.934
-47.130	27.351	1543.834	1264.378
-46.115	24.629	1527.384	1232.113
-45.100	24.449	1523.710	1227.867
-44.086	24.260	1522.632	1225.645
-43.071	24.216	1520.466	1223.551
-42.057	24.249	1518.367	1222.039
-41.042	24.233	1517.049	1220.823
-40.027	24.245	1515.729	1219.796
-39.013	24.211	1514.089	1218.194
-37.998	24.085	1513.363	1216.698
-36.984	24.184	1511.599	1215.910
-35.969	24.238	1510.425	1215.283
-34.954	24.100	1509.000	1213.151
-33.940	24.199	1507.753	1212.775
-32.925	24.181	1506.239	1211.385
-31.911	24.341	1504.225	1210.806
-30.896	24.362	1503.274	1210.133
-29.881	24.261	1502.422	1208.712
-28.867	24.370	1500.772	1208.074
-27.852	24.298	1499.638	1206.628
-26.838	24.317	1497.943	1205.348
-25.823	24.347	1496.494	1204.334
-24.809	24.322	1494.916	1202.844
-23.794	24.264	1493.688	1201.424
-22.779	24.357	1492.022	1200.662
-21.765	24.293	1491.486	1199.749
-20.750	24.298	1490.162	1198.670
-19.736	24.252	1489.674	1197.924
-18.721	24.179	1488.201	1196.201
-17.706	24.262	1487.289	1195.979
-16.692	24.317	1486.135	1195.366
-15.677	24.220	1485.368	1194.052
-14.663	24.304	1484.115	1193.563
-13.648	24.257	1483.122	1192.399
-12.633	24.271	1482.166	1191.678
-11.619	24.199	1481.560	1190.661
-10.604	24.243	1480.786	1190.288
-9.590	24.260	1479.328	1189.184
-8.575	24.207	1478.928	1188.457
-7.560	24.237	1477.555	1187.508
-6.546	24.274	1476.545	1186.898
-5.531	24.228	1476.082	1186.173
-4.517	24.297	1474.867	1185.610
-3.502	24.371	1473.409	1184.878
-2.487	24.346	1473.019	1184.356
-1.473	24.232	1472.223	1182.908
-0.458	24.254	1470.862	1181.913
0.556	23.409	1460.659	1171.766
1.571	20.433	1436.562	1132.952
2.586	17.132	1372.907	1062.043
3.600	15.539	1288.311	987.158
4.615	14.346	1243.821	946.215
5.629	12.761	1186.891	894.224
6.644	6.494	1104.441	800.293
7.659	1.471	1067.354	748.652
8.673	0.662	1062.584	741.275
9.688	0.741	1058.802	738.956
10.702	0.743	1057.520	738.005
11.717	0.664	1055.604	736.217
12.731	2.713	1056.866	747.020
13.746	9.159	1065.242	784.439
14.761	14.907	1072.857	818.180
15.775	17.070	1074.622	830.038
16.790	17.064	1073.327	828.938
17.804	15.893	1071.742	821.925
18.819	15.116	1069.685	816.491
19.834	14.694	1068.323	813.322
20.848	14.377	1067.680	811.217
21.863	14.122	1067.065	809.439
22.877	13.947	1065.772	807.533
23.892	13.562	1065.467	805.358
24.907	13.543	1064.332	804.342
25.921	13.662	1062.991	803.831
26.936	13.613	1062.790	803.372
27.950	13.730	1062.344	803.529
28.965	13.717	1061.386	802.670
29.980	13.748	1060.339	801.957
30.994	13.837	1059.504	801.685
32.009	13.853	1058.156	800.672
33.023	13.980	1057.492	800.709
34.038	13.837	1057.034	799.603
35.053	13.876	1056.215	799.102
36.067	13.814	1055.283	798.027
37.082	13.821	1054.126	797.114
38.096	13.870	1053.419	796.746
39.111	13.765	1052.772	795.681
40.126	13.808	1051.406	794.786
41.140	13.832	1050.467	794.121
42.155	13.778	1049.786	793.277
43.169	13.748	1048.499	792.089
44.184	13.617	1048.114	791.104
45.199	13.688	1046.758	790.352
46.213	13.520	1046.328	789.157
47.228	13.638	1044.769	788.470
48.242	13.777	1043.624	788.200
49.257	13.689	1043.363	787.512
50.271	13.655	1042.046	786.288
51.286	13.848	1040.801	786.192
52.301	13.783	1040.446	785.548
53.315	13.727	1039.587	784.562
54.330	13.640	1038.845	783.523
55.344	13.662	1037.543	782.577
56.359	13.695	1037.090	782.321
57.374	13.589	1036.195	781.076
58.388	13.606	1035.357	780.455
59.403	13.544	1034.551	779.486
60.417	13.534	1033.248	778.389
61.432	13.533	1033.187	778.270
62.447	13.634	1032.144	777.889
63.461	13.654	1031.362	777.324
64.476	13.628	1030.432	776.433
65.490	13.639	1029.426	775.658
66.505	13.640	1028.547	774.931
67.520	13.540	1028.183	774.121
68.534	13.713	1027.196	774.118
69.549	13.637	1026.351	773.058
70.563	13.566	1025.878	772.302
71.578	13.643	1024.860	771.825
72.593	13.676	1024.408	771.572
73.607	13.661	1022.898	770.295
74.622	13.536	1022.210	769.132
75.636	13.574	1021.315	768.564
76.651	13.680	1020.234	768.173
77.666	13.544	1020.069	767.354
78.680	13.597	1018.817	766.589
79.695	13.547	1018.758	766.244
80.709	13.571	1017.899	765.642
81.724	13.614	1016.762	764.916
82.739	13.700	1016.005	764.676
83.753	13.699	1015.688	764.367
84.768	13.724	1014.446	763.478
85.782	13.725	1014.039	763.108
86.797	13.869	1012.816	762.781
87.812	13.818	1011.842	761.749
88.826	13.764	1010.880	760.708
89.841	13.667	1010.639	760.016
90.855	13.631	1009.867	759.202
91.870	13.797	1009.213	759.404
92.884	13.872	1008.004	758.770
93.899	13.839	1007.558	758.217
94.914	13.946	1006.558	757.885
95.928	13.922	1005.848	757.175
96.943	13.823	1005.322	756.261
97.957	13.729	1004.742	755.326
98.972	13.912	1003.579	755.221
99.987	13.809	1002.848	754.133
101.001	13.879	1002.020	753.761
102.016	13.851	1001.559	753.222
103.030	13.809	1000.750	752.356
104.045	13.613	999.943	750.794
105.060	13.918	998.413	750.958
106.074	13.910	997.839	750.425
107.089	13.812	996.949	749.245
108.103	13.768	995.805	748.121
109.118	13.790	995.259	747.747
110.133	13.721	994.381	746.709
111.147	13.714	993.744	746.132
112.162	13.816	992.657	745.709
113.176	13.654	991.862	744.319
114.191	13.856	990.736	744.314
115.206	13.951	989.665	743.871
116.220	13.940	989.061	743.298
117.235	13.639	989.058	741.884
118.249	13.769	987.652	741.346
119.264	13.756	986.939	740.688
120.279	13.766	985.708	739.741
121.293	13.813	985.079	739.414
122.308	13.695	984.196	738.162
123.322	13.726	983.796	737.934
124.337	13.791	982.264	737.006
125.352	13.683	981.378	735.797
126.366	13.701	980.137	734.880
127.381	13.796	978.858	734.279
128.395	13.799	977.864	733.483
129.410	13.604	977.276	732.115
130.424	13.738	976.154	731.799
131.439	13.779	974.961	731.020
132.454	13.900	974.111	730.852
133.468	13.871	973.766	730.403
134.483	13.790	972.769	729.234
135.497	13.829	972.069	728.814
136.512	13.814	971.421	728.200
137.527	13.845	970.718	727.743
138.541	13.778	970.094	726.919
139.556	13.821	969.160	726.343
140.570	13.984	968.208	726.276
141.585	13.833	967.485	725.010
142.600	13.850	966.960	724.626
143.614	14.029	965.769	724.451
144.629	13.907	965.370	723.554
145.643	13.928	964.399	722.854
146.658	14.013	963.568	722.538
147.673	13.910	962.668	721.350
148.687	13.928	962.130	720.964
149.702	13.950	961.370	720.426
150.716	13.740	960.473	718.779
151.731	13.852	959.369	718.373
152.746	13.793	959.090	717.846
153.760	13.967	957.666	717.469
154.775	13.933	957.401	717.060
155.789	13.980	956.650	716.637
156.804	13.944	955.720	715.721
157.819	14.015	955.206	715.580
158.833	14.090	954.383	715.223
159.848	13.953	953.737	714.085
160.862	14.089	953.176	714.186
161.877	14.098	952.315	713.517
162.892	14.038	951.532	712.607
163.906	13.984	950.676	711.672
164.921	14.005	949.970	711.172
165.935	14.078	948.854	710.586
166.950	13.999	947.749	709.357
167.964	14.031	947.162	708.992
168.979	14.007	946.269	708.159
169.994	13.992	945.099	707.157
171.008	14.058	944.335	706.805
172.023	14.149	943.596	706.573
173.037	14.202	942.633	706.016
174.052	14.126	941.620	704.871
175.067	14.038	941.301	704.201
176.081	14.135	940.494	703.942
177.096	14.067	939.673	702.980
178.110	14.086	938.797	702.344
179.125	14.165	937.925	701.962
180.140	14.203	937.167	701.493
181.154	14.216	936.814	701.218
182.169	14.279	935.866	700.714
183.183	14.154	935.439	699.805
184.198	14.311	934.011	699.336
185.213	14.488	933.224	699.427
186.227	14.245	932.944	698.138
187.242	14.356	932.522	698.222
188.256	14.518	931.942	698.407
189.271	14.343	931.604	697.358
190.286	14.363	930.304	696.407
191.300	14.343	929.408	695.593
192.315	14.209	928.855	694.558
193.329	14.287	927.975	694.164
194.344	14.224	927.308	693.338
195.359	14.312	926.817	693.278
196.373	14.311	926.348	692.859
197.388	14.411	925.730	692.754
198.402	14.410	925.436	692.468
199.417	14.387	924.986	691.975
200.432	14.464	924.604	691.949
201.446	14.617	923.961	692.040
202.461	14.598	923.600	691.627
203.475	14.636	922.993	691.268
204.490	14.701	922.055	690.776
205.504	14.605	921.581	689.964
206.519	14.669	920.573	689.410
207.534	14.624	919.847	688.618
208.548	14.531	919.755	688.108
209.563	14.709	918.363	687.737
210.577	14.491	918.203	686.661
211.592	14.711	917.570	687.032
212.607	14.605	916.583	685.796
213.621	14.709	916.214	685.885
214.636	14.631	915.456	684.937
215.650	14.759	914.434	684.638
216.665	14.686	914.356	684.217
217.680	14.742	914.090	684.189
218.694	14.793	913.272	683.726
219.709	14.948	912.427	683.665
220.723	14.831	912.305	683.034
221.738	15.021	910.662	682.519
222.753	14.765	910.247	681.103
223.767	14.957	909.263	681.090
224.782	14.766	908.892	679.975
225.796	14.902	908.278	680.006
226.811	14.904	907.624	679.466
227.826	15.015	906.590	679.083
228.840	14.988	906.101	678.549
229.855	14.927	905.289	677.633
230.869	14.806	905.140	676.968
231.884	14.887	904.105	676.462
232.899	14.937	903.439	676.108
233.913	14.841	902.987	675.320
234.928	14.974	902.238	675.238
235.942	14.818	901.410	673.929
236.957	14.865	900.805	673.606
237.972	15.034	900.076	673.683
238.986	14.808	899.778	672.489
240.001	14.985	898.445	672.148
241.015	15.055	897.581	671.722
242.030	15.148	897.256	671.792
243.045	15.122	896.068	670.740
244.059	15.127	895.900	670.573
245.074	15.185	895.223	670.240
246.088	15.182	894.672	669.756
247.103	15.058	894.215	668.858
248.117	15.218	893.454	668.870
249.132	15.192	892.887	668.283
250.147	15.254	891.916	667.742
251.161	15.244	891.611	667.417
252.176	15.223	890.743	666.622
253.190	15.413	890.019	666.779
254.205	15.366	889.956	666.483
255.220	15.472	888.845	666.013
256.234	15.479	888.224	665.518
257.249	15.448	887.504	664.796
258.263	15.341	887.494	664.305
259.278	15.393	886.965	664.058
260.293	15.483	886.115	663.718
261.307	15.530	885.656	663.502
262.322	15.443	884.910	662.540
263.336	15.652	884.182	662.760
264.351	15.571	883.769	662.072
265.366	15.546	883.242	661.522
266.380	15.622	882.689	661.349
267.395	15.545	882.182	660.606
268.409	15.652	880.927	660.027
269.424	15.633	880.118	659.288
270.439	15.642	879.302	658.657
271.453	15.642	878.516	658.009
272.468	15.604	878.105	657.493
273.482	15.590	877.539	656.955
274.497	15.752	876.604	656.831
275.512	15.618	876.007	655.803
276.526	15.682	875.021	655.254
277.541	15.652	874.944	655.025
278.555	15.783	874.263	654.966
279.570	15.714	873.657	654.184
280.585	15.869	872.846	654.124
281.599	15.952	872.426	654.074
282.614	15.910	871.349	653.045
283.628	15.807	871.309	652.558
284.643	15.914	870.553	652.349
285.657	15.845	870.163	651.729
286.672	15.930	869.315	651.368
287.687	15.934	868.988	651.081
288.701	15.968	868.497	650.785
289.716	16.026	867.713	650.365
290.730	16.007	867.176	649.832
291.745	15.864	866.945	649.048
292.760	15.925	865.809	648.375
293.774	15.919	865.557	648.105
294.789	15.906	865.015	647.595
295.803	16.079	864.143	647.548
296.818	15.993	863.504	646.683
297.833	15.953	863.048	646.127
298.847	16.190	861.969	646.171
299.862	16.059	861.173	645.016
300.876	16.222	860.616	645.168
301.891	16.156	860.243	644.575
302.906	16.161	859.323	643.848
303.920	16.214	858.664	643.501
304.935	16.159	858.207	642.892
305.949	16.302	857.591	642.917
306.964	16.303	856.754	642.237
307.979	16.378	855.989	641.892
308.993	16.296	855.917	641.472
310.008	16.296	855.388	641.019
311.022	16.196	854.951	640.254
312.037	16.278	854.437	640.122
313.052	16.449	853.527	640.030
314.066	16.343	853.069	639.233
315.081	16.281	851.959	638.109
316.095	16.331	851.971	638.251
317.110	16.219	851.526	637.436
318.125	16.239	851.219	637.225
319.139	16.440	850.286	637.230
320.154	16.379	849.924	636.673
321.168	16.209	849.477	635.641
322.183	16.388	848.929	635.847
323.197	16.463	848.534	635.778
324.212	16.512	847.347	635.017
325.227	16.567	847.084	634.969
326.241	16.454	846.606	634.130
327.256	16.405	846.214	633.597
328.270	16.386	845.798	633.160
329.285	16.318	844.985	632.241
330.300	16.305	844.085	631.460
331.314	16.572	843.890	632.257
332.329	16.449	843.226	631.247
333.343	16.619	842.222	631.070
334.358	16.470	841.900	630.218
335.373	16.655	841.393	630.472
336.387	16.580	840.921	629.783
337.402	16.661	840.230	629.514
338.416	16.580	839.847	628.868
339.431	16.668	839.039	628.533
340.446	16.693	838.945	628.501
341.460	16.852	837.769	628.154
342.475	16.837	837.223	627.632
343.489	16.847	836.608	627.153
344.504	16.863	836.262	626.897
345.519	16.833	835.588	626.227
346.533	16.900	835.517	626.365
347.548	16.975	834.557	625.866
348.562	16.939	834.428	625.582
349.577	16.845	833.640	624.588
350.592	16.752	833.252	623.902
351.606	16.673	833.099	623.442
352.621	16.934	832.267	623.723
353.635	16.859	831.732	622.992
354.650	16.859	831.455	622.730
355.665	17.004	831.007	622.869
356.679	17.010	830.434	622.409
357.694	16.957	830.305	622.062
358.708	16.978	829.513	621.492
359.723	16.970	828.782	620.857
360.738	16.951	828.421	620.464
361.752	16.899	827.782	619.739
362.767	17.064	827.436	620.029
363.781	17.187	826.937	620.050
364.796	17.044	826.650	619.258
365.810	17.201	825.863	619.183
366.825	17.232	825.695	619.116
367.840	17.141	825.542	618.617
368.854	17.288	824.922	618.633
369.869	17.058	824.924	617.742
370.883	17.172	824.017	617.422
371.898	17.284	823.339	617.267
372.913	17.120	822.681	616.123
373.927	17.295	821.779	616.028
374.942	17.286	821.488	615.722
375.956	17.360	820.809	615.426
376.971	17.505	819.896	615.213
377.986	17.343	819.835	614.526
379.000	17.365	818.851	613.814
380.015	17.398	818.537	613.641
381.029	17.416	818.196	613.399
382.044	17.373	817.522	612.682
383.059	17.542	817.056	612.888
384.073	17.411	816.977	612.303
385.088	17.419	816.462	611.890
386.102	17.446	815.471	611.190
387.117	17.551	814.839	611.041
388.132	17.526	814.250	610.455
389.146	17.460	814.147	610.087
390.161	17.532	813.589	609.872
391.175	17.633	813.356	610.007
392.190	17.611	812.968	609.582
393.205	17.539	812.735	609.098
394.219	17.628	812.145	608.917
395.234	17.618	811.658	608.464
396.248	17.611	811.540	608.297
397.263	17.402	811.117	607.178
398.278	17.640	810.264	607.336
399.292	17.322	810.139	606.054
400.307	17.652	809.223	606.491
401.321	17.580	808.785	605.851
402.336	17.534	808.778	605.632
403.350	17.592	808.415	605.509
404.365	17.668	807.638	605.144
405.380	17.770	806.834	604.850
406.394	17.538	806.705	603.877
407.409	17.659	806.255	603.916
408.423	17.692	805.737	603.591
409.438	17.778	805.001	603.290
410.453	17.866	805.021	603.565
411.467	17.790	804.557	602.894
412.482	17.830	803.861	602.461
413.496	17.951	803.195	602.336
414.511	17.884	803.264	602.095
415.526	17.936	802.657	601.772
416.540	17.954	802.455	601.631
417.555	18.001	801.698	601.176
418.569	17.968	801.535	600.885
419.584	17.937	801.039	600.349
420.599	17.963	800.378	599.892
421.613	114.509	1296.983	1486.075
422.628	98.785	1369.300	1486.155
