DTS Sentinel unit serial number:	SN413079Multiplexer serial number:	ORYXHardware model number:	OX4-SRSoftware version number:	ORYX F/W v4.00 Oryx Data Collector v3.7.2.0data status	okinstallation	princeton_trtdifferential loss correction	single-endedforward channel	channel 3reverse channel	N/Adate	2019/09/15time	06:52:35forward acquisition time	60.00reverse acquisition time	0.00gamma	496.2192k internal	0.2325k external	0.2325temperature offset calibration	0.9976default loss term (dB/km)	0.3790temperature slope calibration	1.0000multiplexer offset coefficient	1.0000multiplexer slope coefficient	1.0000fibre end	0.00T internal ref (°C)	30.50T ext. ref 1 (°C)	4.80T ext. ref 2 (°C)	25.51length (m)	temperature (°C)	Stokes	anti-Stokes-747.200	-91.905	0.146	-0.042
-746.185	-119.486	-0.179	-0.031
-745.171	37.485	0.072	0.065
-744.156	48.541	0.236	0.223
-743.142	-200.000	-0.007	0.081
-742.127	-200.000	0.001	0.217
-741.112	3.772	0.098	0.072
-740.098	483.104	-0.062	0.142
-739.083	-35.799	0.313	-0.171
-738.069	457.921	-0.062	-0.139
-737.054	-77.575	-0.187	0.065
-736.039	800.000	0.043	-0.146
-735.025	-115.377	-0.289	-0.055
-734.010	4.170	-0.283	0.209
-732.996	36.318	-0.173	-0.154
-731.981	-200.000	-0.023	-0.275
-730.966	-17.178	-0.303	-0.193
-729.952	76.469	0.237	0.253
-728.937	60.342	-0.063	-0.063
-727.923	142.948	0.065	0.087
-726.908	54.443	0.130	-0.126
-725.894	488.558	-0.183	-0.421
-724.879	-200.000	-0.011	0.111
-723.864	53.820	-0.381	-0.369
-722.850	-77.073	-0.098	-0.035
-721.835	-200.000	0.008	0.117
-720.821	-20.308	0.184	-0.115
-719.806	459.523	0.144	-0.322
-718.791	-8.932	-0.252	-0.170
-717.777	-53.918	-0.094	0.043
-716.762	5.002	0.220	0.163
-715.748	-12.329	-0.123	-0.081
-714.733	146.492	-0.177	0.239
-713.718	-8.150	0.104	0.071
-712.704	-150.826	0.198	0.015
-711.689	137.570	-0.241	-0.318
-710.675	23.523	0.196	-0.163
-709.660	-24.940	-0.171	-0.102
-708.645	207.942	-0.089	0.139
-707.631	-200.000	-0.026	0.230
-706.616	19.559	0.102	-0.082
-705.602	-17.831	0.241	0.153
-704.587	-111.926	-0.239	0.049
-703.572	-13.103	-0.173	-0.114
-702.558	-138.929	0.195	-0.021
-701.543	-119.395	-0.416	0.073
-700.529	-172.197	-0.106	-0.003
-699.514	6.597	0.283	-0.212
-698.499	96.258	0.230	0.265
-697.485	-32.423	-0.121	0.068
-696.470	256.021	0.066	-0.115
-695.456	-200.000	-0.032	-0.320
-694.441	120.806	-0.096	0.121
-693.426	-60.562	0.188	0.080
-692.412	-36.201	-0.192	0.104
-691.397	337.876	0.146	-0.286
-690.383	230.677	0.182	0.300
-689.368	-69.233	-0.264	0.102
-688.354	-42.346	-0.277	-0.143
-687.339	192.119	-0.157	0.239
-686.324	-45.040	-0.322	0.161
-685.310	-200.000	0.024	0.355
-684.295	175.869	0.106	-0.155
-683.281	800.000	-0.089	0.342
-682.266	-200.000	0.032	-0.265
-681.251	-78.672	-0.355	0.122
-680.237	30.078	0.093	0.079
-679.222	-55.516	-0.224	-0.101
-678.208	-69.512	-0.157	0.061
-677.193	-200.000	0.012	-0.061
-676.178	-200.000	-0.004	-0.345
-675.164	-125.589	-0.151	-0.023
-674.149	217.385	-0.203	-0.325
-673.135	-46.522	-0.300	0.148
-672.120	-200.000	0.024	0.232
-671.105	-104.052	-0.206	0.048
-670.091	171.982	-0.220	0.318
-669.076	-39.470	-0.369	-0.195
-668.062	-141.954	-0.458	0.046
-667.047	-200.000	0.027	0.182
-666.032	-105.261	0.115	0.026
-665.018	-137.720	-0.176	0.020
-664.003	-34.713	-0.113	0.062
-662.989	-99.837	0.165	0.042
-661.974	57.912	-0.269	-0.264
-660.959	-100.363	-0.314	0.078
-659.945	75.311	0.163	-0.173
-658.930	-4.865	-0.076	-0.053
-657.916	-27.624	-0.033	0.019
-656.901	800.000	-0.063	0.215
-655.886	-14.662	-0.198	0.128
-654.872	21.380	-0.172	0.140
-653.857	263.515	0.077	-0.135
-652.843	22.613	0.195	-0.160
-651.828	41.179	0.084	-0.077
-650.814	13.322	0.113	0.088
-649.799	-53.195	-0.080	-0.037
-648.784	-22.177	-0.038	0.023
-647.770	-200.000	0.008	0.327
-646.755	-200.000	0.026	-0.337
-645.741	800.000	-0.103	-0.351
-644.726	-200.000	0.005	-0.083
-643.711	-107.058	-0.205	-0.045
-642.697	56.959	0.187	0.183
-641.682	-142.183	0.312	0.031
-640.668	800.000	-0.049	-0.167
-639.653	-200.000	0.008	0.096
-638.638	-200.000	-0.020	0.352
-637.624	-200.000	-0.053	0.000
-636.609	-160.809	0.236	-0.013
-635.595	378.108	0.086	-0.177
-634.580	390.121	0.041	0.086
-633.565	-200.000	0.011	0.072
-632.551	-152.434	0.093	0.007
-631.536	429.828	0.193	-0.420
-630.522	-132.411	0.206	0.027
-629.507	66.017	-0.240	-0.245
-628.492	252.948	-0.154	-0.264
-627.478	306.757	-0.112	0.209
-626.463	800.000	0.013	-0.041
-625.449	391.770	0.087	-0.182
-624.434	-98.860	-0.259	0.066
-623.419	730.780	0.089	0.238
-622.405	-200.000	0.034	-0.198
-621.390	66.181	-0.250	-0.255
-620.376	-180.819	-0.288	-0.006
-619.361	28.787	-0.259	0.221
-618.346	47.538	-0.136	-0.127
-617.332	-40.879	-0.134	-0.070
-616.317	612.351	0.135	-0.338
-615.303	71.901	-0.117	-0.123
-614.288	-146.674	-0.118	0.010
-613.273	10.571	0.204	0.156
-612.259	35.398	-0.039	0.035
-611.244	-7.881	-0.188	0.127
-610.230	31.466	-0.149	-0.129
-609.215	-139.969	-0.172	0.018
-608.201	10.611	-0.228	0.174
-607.186	-200.000	-0.019	0.153
-606.171	223.539	0.090	-0.146
-605.157	-55.718	-0.121	-0.054
-604.142	-8.589	-0.229	-0.154
-603.128	800.000	0.087	0.366
-602.113	740.986	0.029	-0.078
-601.098	800.000	-0.061	-0.186
-600.084	-149.648	0.222	-0.018
-599.069	8.961	0.197	-0.149
-598.055	74.374	-0.070	-0.074
-597.040	-124.986	0.266	0.041
-596.025	-200.000	0.001	-0.035
-595.011	23.711	-0.267	-0.221
-593.996	-52.611	-0.205	0.095
-592.982	-76.305	-0.174	-0.061
-591.967	84.163	0.073	0.080
-590.952	-200.000	0.023	0.227
-589.938	-55.187	0.240	0.108
-588.923	144.051	-0.124	-0.166
-587.909	-167.984	0.082	-0.003
-586.894	134.424	0.054	-0.070
-585.879	-101.225	-0.118	-0.029
-584.865	-2.589	-0.234	0.164
-583.850	-200.000	-0.042	-0.394
-582.836	40.465	0.101	-0.091
-581.821	75.762	0.379	-0.401
-580.806	-126.063	0.061	-0.009
-579.792	316.852	0.090	0.170
-578.777	2.266	-0.107	-0.078
-577.763	-5.244	-0.227	-0.157
-576.748	626.338	-0.043	0.109
-575.733	-127.515	0.232	0.034
-574.719	755.885	-0.073	0.199
-573.704	-66.437	0.212	0.085
-572.690	50.350	-0.358	-0.339
-571.675	-129.342	0.220	-0.031
-570.661	-200.000	0.039	0.254
-569.646	219.528	0.111	-0.177
-568.631	-165.350	0.172	-0.008
-567.617	527.879	0.044	0.104
-566.602	516.715	0.044	-0.103
-565.588	75.577	-0.263	0.278
-564.573	-50.998	0.164	0.077
-563.558	800.000	0.097	0.342
-562.544	288.081	0.145	-0.264
-561.529	-8.000	0.175	-0.118
-560.515	149.440	-0.060	0.081
-559.500	179.527	0.385	-0.565
-558.485	1.313	-0.229	0.165
-557.471	-102.556	0.465	0.111
-556.456	-24.407	0.381	-0.228
-555.442	-9.747	-0.088	-0.059
-554.427	-85.676	0.112	-0.035
-553.412	-179.073	0.222	-0.005
-552.398	-44.397	0.165	-0.083
-551.383	244.039	-0.077	0.130
-550.369	-200.000	-0.004	0.149
-549.354	335.092	0.071	-0.138
-548.339	-160.704	-0.416	-0.022
-547.325	282.139	0.142	-0.254
-546.310	-104.623	0.307	0.071
-545.296	-143.943	-0.327	-0.031
-544.281	-60.088	-0.251	-0.107
-543.266	-35.788	-0.148	-0.080
-542.252	-148.509	-0.058	-0.005
-541.237	-200.000	-0.051	0.235
-540.223	86.025	-0.152	-0.167
-539.208	51.143	0.138	0.131
-538.193	800.000	0.135	-0.401
-537.179	-109.541	-0.166	-0.035
-536.164	372.949	0.186	0.379
-535.150	55.685	0.308	0.299
-534.135	-42.154	0.311	0.159
-533.121	-43.528	0.517	0.261
-532.106	-133.296	-0.116	0.015
-531.091	-200.000	-0.009	0.336
-530.077	440.938	0.023	0.051
-529.062	53.430	-0.142	0.136
-528.048	354.061	-0.034	-0.068
-527.033	200.889	-0.087	-0.134
-526.018	-101.622	0.260	-0.063
-525.004	22.104	0.165	-0.135
-523.989	-127.789	-0.242	0.035
-522.975	-200.000	-0.042	-0.205
-521.960	-5.536	0.081	0.056
-520.945	-148.792	0.296	-0.024
-519.931	-17.088	-0.156	-0.098
-518.916	226.352	0.170	0.276
-517.902	-47.478	-0.083	0.040
-516.887	81.600	-0.258	-0.279
-515.872	409.490	-0.036	0.076
-514.858	-25.724	-0.131	-0.077
-513.843	-119.538	0.291	-0.050
-512.829	-200.000	0.052	0.275
-511.814	41.467	0.118	-0.107
-510.799	124.290	0.201	0.253
-509.785	118.060	-0.151	-0.186
-508.770	-200.000	0.035	-0.312
-507.756	-131.179	0.193	0.026
-506.741	-145.801	-0.101	0.009
-505.726	-200.000	-0.005	-0.246
-504.712	330.790	0.060	0.115
-503.697	134.138	-0.139	0.180
-502.683	-9.326	-0.252	-0.169
-501.668	-47.593	-0.123	0.060
-500.653	-64.883	-0.025	0.010
-499.639	250.538	-0.139	-0.237
-498.624	-15.181	0.175	0.112
-497.610	-45.995	0.139	0.068
-496.595	118.642	-0.160	-0.197
-495.581	126.622	-0.084	-0.107
-494.566	-200.000	0.004	0.127
-493.551	-76.575	0.310	-0.109
-492.537	86.840	0.243	0.268
-491.522	800.000	-0.092	-0.361
-490.508	-106.972	-0.266	0.059
-489.493	-100.063	0.388	-0.097
-488.478	-114.815	-0.344	-0.066
-487.464	800.000	0.013	0.039
-486.449	-99.987	-0.247	0.062
-485.435	626.226	-0.100	0.252
-484.420	196.896	-0.209	-0.319
-483.405	-200.000	0.074	0.524
-482.391	638.189	0.046	-0.117
-481.376	215.686	-0.129	0.205
-480.362	-200.000	-0.012	0.228
-479.347	55.457	-0.097	-0.094
-478.332	-200.000	-0.008	-0.321
-477.318	435.187	-0.127	-0.276
-476.303	-200.000	-0.016	-0.169
-475.289	-50.159	-0.036	0.017
-474.274	340.752	-0.079	0.154
-473.259	-83.905	-0.353	-0.112
-472.245	156.140	0.108	0.149
-471.230	-200.000	0.062	-0.502
-470.216	800.000	0.044	0.167
-469.201	45.205	0.129	0.119
-468.186	-200.000	0.036	-0.200
-467.172	-97.704	0.314	-0.081
-466.157	-200.000	-0.004	-0.316
-465.143	800.000	0.057	0.163
-464.128	141.054	0.063	-0.083
-463.113	148.112	0.168	-0.226
-462.099	569.567	-0.147	-0.358
-461.084	66.695	0.256	0.260
-460.070	-96.923	-0.160	-0.042
-459.055	243.660	-0.229	0.383
-458.040	-200.000	-0.000	0.027
-457.026	754.479	0.074	-0.198
-456.011	-200.000	-0.012	-0.075
-454.997	220.132	-0.224	-0.359
-453.982	-31.609	-0.222	0.124
-452.968	-45.521	-0.279	-0.138
-451.953	-200.000	-0.047	0.248
-450.938	-102.071	-0.078	-0.019
-449.924	325.901	-0.056	-0.107
-448.909	-200.000	0.025	-0.146
-447.895	-66.366	0.171	0.068
-446.880	-200.000	0.000	-0.175
-445.865	-200.000	0.001	-0.020
-444.851	8.109	-0.166	0.124
-443.836	123.144	-0.096	-0.120
-442.822	190.985	-0.145	0.218
-441.807	-49.655	0.178	0.085
-440.792	-200.000	0.020	-0.147
-439.778	-138.681	-0.213	0.023
-438.763	-200.000	-0.035	-0.170
-437.749	-200.000	0.040	-0.242
-436.734	-200.000	0.031	0.249
-435.719	-54.375	0.294	0.133
-434.705	4.969	-0.230	-0.169
-433.690	-109.380	-0.302	0.064
-432.676	273.205	-0.197	0.347
-431.661	-20.624	0.214	-0.131
-430.646	-200.000	0.083	0.377
-429.632	11.056	0.159	-0.121
-428.617	112.306	0.172	-0.207
-427.603	-200.000	-0.041	-0.186
-426.588	3.271	-0.154	-0.112
-425.573	165.155	0.208	-0.293
-424.559	-200.000	-0.028	0.125
-423.544	68.885	0.099	-0.101
-422.530	-29.750	0.167	-0.095
-421.515	-200.000	-0.040	0.242
-420.500	196.328	0.033	0.050
-419.486	-200.000	0.002	0.183
-418.471	-200.000	-0.012	0.356
-417.457	290.458	-0.140	0.253
-416.442	320.548	-0.139	-0.264
-415.428	-200.000	-0.035	0.237
-414.413	306.677	-0.177	-0.328
-413.398	-200.000	0.017	0.211
-412.384	125.465	0.265	0.333
-411.369	800.000	-0.056	-0.242
-410.355	-28.251	0.126	0.073
-409.340	42.489	-0.173	0.157
-408.325	181.626	-0.252	0.369
-407.311	-89.706	0.397	0.116
-406.296	145.552	-0.031	0.041
-405.282	-102.797	-0.021	-0.005
-404.267	86.050	-0.186	0.204
-403.252	-200.000	0.018	-0.164
-402.238	484.690	-0.056	-0.127
-401.223	800.000	0.030	0.123
-400.209	-193.516	0.107	-0.001
-399.194	191.073	-0.207	0.310
-398.179	122.972	-0.168	0.210
-397.165	-83.446	-0.330	-0.105
-396.150	-34.866	0.111	-0.060
-395.136	-44.319	0.266	0.132
-394.121	-200.000	-0.056	0.298
-393.106	-57.853	0.308	0.134
-392.092	15.673	0.339	0.265
-391.077	-78.114	0.097	0.033
-390.063	111.237	-0.150	-0.179
-389.048	-200.000	-0.024	0.221
-388.033	-121.927	0.185	-0.030
-387.019	247.255	-0.192	0.323
-386.004	-97.741	-0.109	0.028
-384.990	432.523	-0.075	0.162
-383.975	-161.486	0.315	0.016
-382.960	-200.000	-0.020	0.121
-381.946	533.720	0.147	-0.346
-380.931	800.000	-0.075	0.263
-379.917	251.196	0.044	-0.074
-378.902	800.000	0.060	-0.224
-377.888	336.627	-0.091	-0.176
-376.873	-53.298	0.170	0.077
-375.858	429.978	-0.058	-0.124
-374.844	-19.188	0.171	0.105
-373.829	-200.000	-0.012	-0.125
-372.815	-129.794	-0.379	0.052
-371.800	-155.332	-0.101	-0.007
-370.785	-51.605	0.228	-0.106
-369.771	-130.155	0.204	0.028
-368.756	-50.830	0.033	0.015
-367.742	-121.961	0.267	-0.044
-366.727	592.577	0.037	-0.090
-365.712	-64.688	-0.306	-0.123
-364.698	-200.000	-0.018	-0.087
-363.683	230.643	-0.061	0.098
-362.669	800.000	-0.042	0.179
-361.654	800.000	0.025	0.074
-360.639	-200.000	0.025	0.140
-359.625	377.412	-0.057	-0.116
-358.610	800.000	-0.072	-0.243
-357.596	-67.105	-0.102	0.040
-356.581	690.767	0.080	0.208
-355.566	313.079	0.063	0.118
-354.552	-58.960	-0.289	0.124
-353.537	-88.597	-0.234	-0.069
-352.523	800.000	-0.038	0.140
-351.508	170.957	0.036	-0.051
-350.493	48.032	-0.176	-0.163
-349.479	-92.216	-0.288	-0.081
-348.464	-82.933	-0.322	0.103
-347.450	317.785	-0.056	0.105
-346.435	-200.000	-0.031	-0.487
-345.420	-22.814	0.493	0.296
-344.406	221.708	-0.091	-0.145
-343.391	800.000	0.029	0.111
-342.377	-106.654	-0.345	-0.076
-341.362	716.838	0.075	-0.199
-340.348	641.089	-0.043	-0.110
-339.333	-68.381	-0.408	0.157
-338.318	-71.745	0.261	0.097
-337.304	164.806	0.056	0.079
-336.289	-107.186	0.113	0.025
-335.275	800.000	0.033	0.138
-334.260	800.000	0.056	0.217
-333.245	800.000	-0.040	0.147
-332.231	352.718	-0.119	0.234
-331.216	800.000	-0.027	0.110
-330.202	800.000	-0.008	-0.026
-329.187	-46.662	-0.282	0.137
-328.172	-70.850	-0.210	0.078
-327.158	-8.281	0.404	-0.270
-326.143	-48.430	-0.059	0.028
-325.129	-81.530	-0.126	-0.041
-324.114	29.621	0.081	-0.068
-323.099	800.000	0.029	-0.102
-322.085	-200.000	-0.016	-0.235
-321.070	-29.879	-0.227	-0.129
-320.056	-55.979	-0.141	-0.062
-319.041	-200.000	0.000	0.448
-318.026	23.547	0.163	-0.133
-317.012	93.408	0.147	0.165
-315.997	-121.519	-0.191	-0.032
-314.983	287.119	-0.013	0.023
-313.968	-200.000	-0.004	-0.112
-312.953	-200.000	-0.003	0.068
-311.939	417.875	0.020	0.043
-310.924	-84.386	-0.163	0.051
-309.910	-200.000	0.056	-0.297
-308.895	-138.600	-0.414	0.045
-307.880	-74.500	0.184	-0.066
-306.866	-32.101	-0.150	0.083
-305.851	-200.000	0.002	0.034
-304.837	-200.000	0.022	-0.238
-303.822	-48.750	-0.101	0.048
-302.807	-107.540	-0.410	-0.089
-301.793	-200.000	0.064	-0.312
-300.778	29.674	-0.089	0.075
-299.764	69.494	-0.191	0.195
-298.749	132.654	0.136	-0.174
-297.735	202.903	0.139	0.214
-296.720	-200.000	0.005	-0.035
-295.705	74.626	-0.084	0.087
-294.691	111.629	0.356	-0.425
-293.676	37.595	-0.205	0.180
-292.662	291.964	-0.146	0.263
-291.647	-78.365	0.103	0.035
-290.632	-106.881	-0.093	-0.020
-289.618	-74.087	-0.155	0.056
-288.603	800.000	0.084	0.240
-287.589	424.434	0.136	-0.290
-286.574	800.000	0.033	0.113
-285.559	-200.000	-0.012	0.066
-284.545	-200.000	-0.024	-0.171
-283.530	105.671	-0.042	0.049
-282.516	800.000	-0.029	0.108
-281.501	32.113	-0.251	-0.215
-280.486	-200.000	-0.049	0.367
-279.472	-94.174	-0.361	0.098
-278.457	-48.882	0.389	-0.185
-277.443	374.713	-0.082	0.166
-276.428	-200.000	-0.049	0.253
-275.413	15.521	0.361	-0.281
-274.399	800.000	-0.054	-0.192
-273.384	800.000	0.106	0.406
-272.370	313.335	0.052	0.097
-271.355	800.000	-0.032	-0.100
-270.340	-119.562	0.101	-0.017
-269.326	-116.635	-0.071	-0.013
-268.311	-1.718	0.108	0.075
-267.297	-23.873	-0.031	0.018
-266.282	-200.000	-0.003	0.083
-265.267	-200.000	0.004	-0.025
-264.253	52.174	0.100	-0.095
-263.238	-126.553	-0.083	0.012
-262.224	50.567	-0.232	-0.218
-261.209	549.238	-0.064	0.152
-260.195	-114.898	0.196	-0.037
-259.180	-137.750	-0.234	0.026
-258.165	-179.410	0.597	0.013
-257.151	-46.849	0.331	0.160
-256.136	199.761	-0.114	0.173
-255.122	-18.780	-0.114	-0.070
-254.107	800.000	-0.105	-0.395
-253.092	30.134	-0.274	0.231
-252.078	40.942	-0.173	0.155
-251.063	127.124	0.009	0.012
-250.049	-200.000	0.033	0.502
-249.034	19.815	0.166	0.132
-248.019	396.241	0.029	-0.061
-247.005	-121.166	0.320	-0.053
-245.990	-56.717	-0.141	0.062
-244.976	-200.000	-0.041	0.352
-243.961	-200.000	-0.010	-0.076
-242.946	-200.000	-0.003	0.140
-241.932	-142.034	0.300	-0.030
-240.917	-109.556	-0.389	0.081
-239.903	800.000	-0.014	0.055
-238.888	10.324	-0.176	0.132
-237.873	119.952	0.069	-0.085
-236.859	-200.000	-0.033	-0.341
-235.844	-173.901	-0.202	0.006
-234.830	-46.723	0.188	-0.091
-233.815	203.185	-0.099	-0.152
-232.800	281.851	-0.046	0.082
-231.786	-200.000	0.055	0.453
-230.771	-67.922	-0.176	-0.068
-229.757	249.202	0.164	0.275
-228.742	688.665	0.105	0.273
-227.727	-200.000	-0.003	-0.230
-226.713	72.409	-0.184	0.190
-225.698	93.650	-0.124	0.139
-224.684	-117.145	0.135	-0.024
-223.669	800.000	0.066	-0.239
-222.655	430.435	-0.078	-0.167
-221.640	-119.804	-0.073	0.012
-220.625	799.299	0.052	0.142
-219.611	-79.463	0.080	0.027
-218.596	-200.000	0.009	0.071
-217.582	-82.750	0.158	-0.051
-216.567	-200.000	0.004	0.071
-215.552	185.532	-0.191	-0.280
-214.538	800.000	0.065	-0.220
-213.523	-12.494	0.094	-0.061
-212.509	-200.000	0.048	-0.309
-211.494	-42.548	-0.097	0.049
-210.479	-185.030	-0.217	-0.003
-209.465	66.011	0.104	0.104
-208.450	510.766	-0.018	-0.041
-207.436	-200.000	0.083	0.360
-206.421	-179.443	0.173	0.004
-205.406	304.254	-0.066	0.121
-204.392	800.000	0.055	0.198
-203.377	24.211	0.338	-0.276
-202.363	131.484	-0.095	-0.121
-201.348	-200.000	0.101	0.448
-200.333	11.725	-0.249	0.189
-199.319	82.558	0.051	0.054
-198.304	-200.000	-0.006	-0.173
-197.290	95.780	0.216	-0.244
-196.275	-200.000	-0.039	-0.248
-195.260	243.816	-0.110	0.182
-194.246	-173.183	0.141	-0.004
-193.231	-103.548	-0.135	-0.031
-192.217	26.773	-0.054	-0.045
-191.202	703.182	0.132	-0.343
-190.187	21.871	0.354	-0.285
-189.173	84.893	0.062	-0.067
-188.158	107.767	0.048	-0.056
-187.144	114.195	-0.139	-0.167
-186.129	64.211	0.348	-0.346
-185.114	800.000	-0.074	-0.306
-184.100	73.836	-0.073	0.076
-183.085	-200.000	-0.017	-0.193
-182.071	-200.000	0.019	0.142
-181.056	-7.837	0.140	0.093
-180.042	800.000	-0.151	-0.452
-179.027	-84.477	0.244	0.076
-178.012	-10.908	0.333	0.217
-176.998	-200.000	-0.001	0.223
-175.983	-66.188	-0.314	0.124
-174.969	198.093	-0.047	0.072
-173.954	-33.094	0.241	-0.132
-172.939	-94.846	0.254	-0.068
-171.925	43.108	0.117	-0.105
-170.910	-97.049	0.216	0.056
-169.896	30.611	-0.121	-0.102
-168.881	634.495	0.119	-0.298
-167.866	-92.240	0.045	0.013
-166.852	71.200	-0.165	0.169
-165.837	106.744	0.083	0.097
-164.823	203.406	0.065	0.098
-163.808	544.549	0.063	0.148
-162.793	-200.000	0.004	0.042
-161.779	-200.000	-0.008	0.171
-160.764	235.590	-0.101	-0.164
-159.750	-3.323	-0.085	0.058
-158.735	-96.412	0.098	-0.026
-157.720	-200.000	-0.003	-0.228
-156.706	170.319	-0.033	-0.047
-155.691	426.455	-0.058	0.123
-154.677	457.971	0.026	-0.058
-153.662	-14.569	-0.081	0.051
-152.647	-97.800	0.224	0.057
-151.633	-18.826	0.424	0.261
-150.618	-200.000	-0.051	0.227
-149.604	629.260	0.048	-0.120
-148.589	-200.000	-0.013	-0.310
-147.574	-42.930	0.255	0.128
-146.560	-200.000	-0.060	0.421
-145.545	800.000	0.071	0.226
-144.531	739.426	-0.071	-0.187
-143.516	209.314	0.071	0.110
-142.502	-200.000	0.045	0.241
-141.487	-94.357	-0.039	0.011
-140.472	-200.000	0.012	-0.160
-139.458	614.296	0.121	-0.298
-138.443	272.132	0.160	0.278
-137.429	353.846	0.106	0.207
-136.414	-8.041	-0.354	0.235
-135.399	800.000	0.042	-0.156
-134.385	-25.556	-0.330	-0.192
-133.370	800.000	0.083	-0.277
-132.356	-200.000	0.046	-0.323
-131.341	-32.325	0.023	0.013
-130.326	-200.000	-0.009	0.273
-129.312	-154.262	0.315	0.021
-128.297	-19.025	0.286	-0.175
-127.283	-66.688	-0.236	-0.092
-126.268	-23.673	-0.085	0.050
-125.253	-186.527	-0.387	-0.005
-124.239	-106.451	-0.003	-0.001
-123.224	-200.000	-0.057	0.299
-122.210	-23.775	0.107	-0.063
-121.195	-99.657	0.341	0.084
-120.180	24.582	-0.061	-0.050
-119.166	458.931	-0.114	-0.250
-118.151	199.384	0.186	0.281
-117.137	-77.091	-0.182	0.062
-116.122	-152.316	-0.148	0.011
-115.107	-127.122	-0.356	-0.051
-114.093	28.869	0.069	0.058
-113.078	-4.219	0.244	0.167
-112.064	-80.794	0.339	0.111
-111.049	800.000	0.076	0.237
-110.034	50.744	-0.123	0.114
-109.020	-200.000	-0.031	0.193
-108.005	-30.980	0.160	0.089
-106.991	800.000	-0.107	0.314
-105.976	-200.000	-0.028	0.166
-104.962	-93.425	-0.139	0.038
-103.947	-108.610	-0.478	-0.101
-102.932	-200.000	0.008	-0.133
-101.918	-82.792	-0.236	0.075
-100.903	-115.881	-0.130	-0.024
-99.889	-21.613	0.544	0.326
-98.874	14.225	-0.516	0.396
-97.859	-200.000	0.010	-0.190
-96.845	-82.283	-0.364	0.116
-95.830	-6.231	-0.150	0.101
-94.816	62.565	0.121	0.119
-93.801	-200.000	-0.019	-0.083
-92.786	-0.014	0.179	-0.125
-91.772	-176.191	0.240	0.006
-90.757	-129.533	0.219	0.030
-89.743	-68.725	0.152	0.058
-88.728	402.135	-0.063	-0.131
-87.713	476.852	0.061	0.135
-86.699	45.852	-0.219	0.200
-85.684	-57.807	-0.392	-0.168
-84.670	157.465	0.187	-0.255
-83.655	-47.444	-0.152	-0.073
-82.640	-55.033	0.307	0.136
-81.626	-200.000	-0.013	0.143
-80.611	8.738	-0.254	-0.188
-79.597	-164.841	0.201	0.009
-78.582	2.941	-0.186	0.132
-77.567	-149.790	-0.186	0.014
-76.553	-18.546	0.343	0.211
-75.538	-73.519	0.241	0.086
-74.524	800.000	0.044	-0.131
-73.509	-176.826	-0.179	-0.004
-72.494	14.756	0.196	0.151
-71.480	74.662	0.129	0.134
-70.465	-67.150	-0.082	0.032
-69.451	-67.373	0.157	0.061
-68.436	-17.750	-0.123	0.076
-67.422	-2.304	-0.204	-0.140
-66.407	-117.150	-0.401	0.072
-65.392	-83.973	0.230	0.072
-64.378	-37.939	0.163	0.085
-63.363	-45.436	-0.273	0.133
-62.349	80.885	0.201	0.213
-61.334	-18.648	-0.990	-0.607
-60.319	112.321	0.351	0.417
-59.305	-200.000	-0.197	-1.145
-58.290	189.182	0.838	1.234
-57.276	274.401	0.766	1.333
-56.261	-200.000	103.513	598.456
-55.246	558.854	1441.501	3417.505
-54.232	186.322	2628.031	3841.479
-53.217	116.290	2168.297	2609.908
-52.203	41.338	1696.453	1507.112
-51.188	33.687	1505.869	1286.140
-50.173	31.303	1478.988	1247.233
-49.159	52.125	1532.299	1434.237
-48.144	52.931	1550.181	1456.399
-47.130	33.923	1507.119	1288.603
-46.115	30.718	1492.569	1254.542
-45.100	30.570	1488.857	1250.381
-44.086	30.509	1487.176	1248.505
-43.071	30.490	1485.154	1246.630
-42.057	30.543	1482.801	1244.964
-41.042	30.461	1481.512	1243.281
-40.027	30.461	1480.112	1242.060
-39.013	30.427	1478.999	1240.849
-37.998	30.565	1477.404	1240.383
-36.984	30.460	1476.451	1238.833
-35.969	30.409	1475.232	1237.419
-34.954	30.573	1473.458	1236.975
-33.940	30.478	1472.314	1235.330
-32.925	30.398	1471.355	1233.947
-31.911	30.545	1469.972	1233.713
-30.896	30.536	1468.847	1232.665
-29.881	30.596	1467.163	1231.599
-28.867	30.591	1465.838	1230.402
-27.852	30.559	1464.144	1228.723
-26.838	30.603	1462.818	1227.850
-25.823	30.529	1461.699	1226.373
-24.809	30.451	1460.192	1224.548
-23.794	30.517	1458.472	1223.491
-22.779	30.571	1457.695	1223.144
-21.765	30.551	1456.961	1222.348
-20.750	30.542	1455.147	1220.722
-19.736	30.481	1454.331	1219.586
-18.721	30.445	1453.119	1218.287
-17.706	30.479	1452.121	1217.620
-16.692	30.466	1451.192	1216.711
-15.677	30.531	1449.611	1215.764
-14.663	30.534	1448.926	1215.159
-13.648	30.555	1447.518	1214.064
-12.633	30.508	1446.843	1213.143
-11.619	30.514	1445.985	1212.416
-10.604	30.472	1445.276	1211.498
-9.590	30.459	1444.434	1210.661
-8.575	30.497	1443.580	1210.149
-7.560	30.493	1442.550	1209.209
-6.546	30.472	1441.572	1208.207
-5.531	30.436	1441.427	1207.801
-4.517	30.446	1439.989	1206.611
-3.502	30.590	1438.435	1206.200
-2.487	30.459	1438.226	1205.123
-1.473	30.386	1437.239	1203.775
-0.458	30.496	1435.763	1203.205
0.556	29.276	1425.900	1191.741
1.571	26.472	1401.895	1153.724
2.586	23.156	1344.761	1086.280
3.600	21.561	1265.242	1012.739
4.615	20.204	1219.508	968.471
5.629	17.682	1164.137	910.954
6.644	10.830	1082.725	813.006
7.659	5.682	1044.693	759.476
8.673	4.930	1039.776	752.209
9.688	4.871	1036.490	749.478
10.702	4.694	1035.302	747.702
11.717	4.716	1032.837	745.960
12.731	6.814	1034.894	757.453
13.746	13.447	1043.664	795.788
14.761	18.263	1049.720	823.566
15.775	18.449	1048.565	823.480
16.790	17.536	1046.529	817.427
17.804	16.315	1044.505	809.919
18.819	15.464	1042.791	804.442
19.834	15.164	1041.050	801.596
20.848	14.782	1040.375	799.176
21.863	14.536	1039.529	797.283
22.877	14.321	1038.940	795.729
23.892	14.072	1038.118	793.844
24.907	13.913	1037.372	792.442
25.921	14.013	1036.833	792.437
26.936	14.003	1035.975	791.666
27.950	14.113	1035.060	791.421
28.965	14.205	1033.739	790.777
29.980	14.115	1032.556	789.374
30.994	14.235	1031.395	788.984
32.009	14.414	1030.431	789.028
33.023	14.372	1029.778	788.258
34.038	14.286	1029.210	787.347
35.053	14.320	1027.832	786.381
36.067	14.220	1026.961	785.176
37.082	14.225	1026.120	784.486
38.096	14.228	1025.639	784.065
39.111	14.247	1024.676	783.346
40.126	14.325	1023.778	782.956
41.140	14.178	1022.863	781.496
42.155	14.028	1021.355	779.574
43.169	14.037	1020.461	778.866
44.184	13.923	1019.528	777.547
45.199	13.817	1018.561	776.246
46.213	13.969	1017.872	776.365
47.228	14.124	1016.366	775.871
48.242	14.148	1015.604	775.333
49.257	14.098	1014.944	774.526
50.271	14.049	1014.334	773.765
51.286	14.143	1012.918	773.054
52.301	14.181	1011.899	772.385
53.315	14.337	1010.977	772.336
54.330	14.160	1010.476	771.060
55.344	14.118	1009.609	770.138
56.359	14.005	1009.062	769.131
57.374	14.029	1008.103	768.440
58.388	14.019	1007.216	767.650
59.403	14.020	1006.231	766.836
60.417	13.979	1004.890	765.560
61.432	13.874	1004.696	764.861
62.447	13.966	1003.914	764.620
63.461	13.823	1003.091	763.270
64.476	13.961	1001.581	762.687
65.490	13.806	1001.436	761.795
66.505	13.813	1000.532	761.075
67.520	13.859	999.936	760.762
68.534	13.959	999.117	760.528
69.549	13.861	998.618	759.634
70.563	13.924	997.729	759.180
71.578	14.003	996.781	758.753
72.593	13.768	995.874	756.924
73.607	13.788	995.226	756.452
74.622	13.833	994.063	755.709
75.636	13.893	993.246	755.292
76.651	13.809	992.657	754.397
77.666	13.799	991.846	753.670
78.680	13.765	991.387	753.097
79.695	13.882	990.662	753.011
80.709	13.975	989.803	752.711
81.724	13.992	989.165	752.239
82.739	13.888	988.780	751.408
83.753	13.867	988.291	750.876
84.768	14.046	987.587	751.082
85.782	14.123	986.520	750.551
86.797	14.320	985.723	750.769
87.812	14.373	984.669	750.137
88.826	14.206	984.248	748.998
89.841	14.170	983.188	747.962
90.855	14.016	983.002	747.062
91.870	14.214	981.973	747.103
92.884	14.261	981.129	746.606
93.899	14.174	980.346	745.554
94.914	14.274	979.479	745.280
95.928	14.325	978.935	745.028
96.943	14.316	977.840	744.086
97.957	14.273	977.136	743.295
98.972	14.263	976.495	742.694
99.987	14.287	975.522	741.996
101.001	14.287	974.968	741.508
102.016	14.145	974.476	740.438
103.030	14.294	972.953	739.875
104.045	14.216	972.209	738.902
105.060	14.371	971.298	738.829
106.074	14.265	970.288	737.527
107.089	14.180	969.460	736.457
108.103	13.967	968.939	735.051
109.118	14.040	967.740	734.402
110.133	13.970	967.174	733.597
111.147	13.972	966.183	732.788
112.162	13.972	965.612	732.292
113.176	14.002	964.713	731.677
114.191	14.120	963.775	731.420
115.206	14.180	962.855	730.918
116.220	14.054	962.522	730.050
117.235	14.069	961.288	729.116
118.249	14.081	960.726	728.678
119.264	14.046	959.259	727.347
120.279	14.020	958.706	726.747
121.293	14.072	958.218	726.541
122.308	14.061	957.458	725.854
123.322	14.010	956.673	724.973
124.337	13.890	955.929	723.821
125.352	13.919	954.412	722.732
126.366	13.836	953.155	721.357
127.381	14.003	952.281	721.358
128.395	14.033	951.078	720.513
129.410	13.927	950.897	719.851
130.424	13.916	949.960	719.029
131.439	14.003	949.254	718.808
132.454	14.024	948.713	718.429
133.468	14.205	947.020	717.861
134.483	13.988	947.068	716.899
135.497	14.065	946.326	716.604
136.512	14.232	945.335	716.510
137.527	14.120	944.666	715.458
138.541	14.122	943.717	714.687
139.556	14.237	942.958	714.542
140.570	14.161	942.191	713.569
141.585	14.235	941.497	713.299
142.600	14.403	940.864	713.474
143.614	14.334	940.170	712.590
144.629	14.286	939.541	711.844
145.643	14.304	939.074	711.508
146.658	14.492	937.614	711.140
147.673	14.205	937.171	709.516
148.687	14.324	936.331	709.325
149.702	14.219	935.153	707.920
150.716	14.206	934.403	707.238
151.731	14.034	933.706	705.917
152.746	14.106	932.911	705.560
153.760	14.202	932.185	705.354
154.775	14.241	931.502	704.942
155.789	14.299	930.992	704.736
156.804	14.359	929.951	704.139
157.819	14.299	929.120	703.197
158.833	14.443	928.679	703.408
159.848	14.457	928.160	703.011
160.862	14.397	927.077	701.874
161.877	14.439	926.747	701.739
162.892	14.222	925.870	700.102
163.906	14.337	924.530	699.511
164.921	14.120	924.492	698.507
165.935	14.279	923.007	697.991
166.950	14.305	922.212	697.438
167.964	14.219	921.388	696.391
168.979	14.338	920.439	696.111
169.994	14.332	919.549	695.350
171.008	14.266	918.533	694.246
172.023	14.414	917.460	693.988
173.037	14.429	917.142	693.751
174.052	14.394	916.741	693.239
175.067	14.463	915.264	692.350
176.081	14.413	914.621	691.594
177.096	14.213	914.207	690.389
178.110	14.452	912.946	690.366
179.125	14.367	912.260	689.432
180.140	14.361	911.855	689.042
181.154	14.370	911.046	688.409
182.169	14.479	910.346	688.268
183.183	14.404	909.967	687.611
184.198	14.475	908.959	687.081
185.213	14.604	908.534	687.230
186.227	14.633	907.482	686.492
187.242	14.604	907.314	686.186
188.256	14.674	906.319	685.658
189.271	14.637	906.451	685.548
190.286	14.684	905.402	684.884
191.300	14.537	904.579	683.598
192.315	14.275	903.801	681.879
193.329	14.274	902.921	681.150
194.344	14.312	902.253	680.739
195.359	14.413	901.573	680.579
196.373	14.560	901.203	680.840
197.388	14.619	900.726	680.663
198.402	14.699	899.994	680.374
199.417	14.774	899.814	680.485
200.432	14.975	899.165	680.750
201.446	14.983	898.807	680.450
202.461	14.911	898.598	679.940
203.475	15.073	898.036	680.113
204.490	15.053	897.574	679.620
205.504	14.893	896.392	678.019
206.519	14.783	896.148	677.326
207.534	14.833	894.760	676.420
208.548	14.819	894.291	675.949
209.563	14.651	893.987	674.980
210.577	14.838	892.915	674.867
211.592	14.743	892.419	674.048
212.607	14.835	892.047	674.080
213.621	14.969	891.313	674.004
214.636	14.950	890.769	673.456
215.650	14.909	890.085	672.714
216.665	14.941	889.797	672.568
217.680	14.888	889.015	671.704
218.694	15.021	888.500	671.787
219.709	15.037	888.354	671.682
220.723	15.052	887.554	671.080
221.738	15.050	886.598	670.289
222.753	14.981	885.989	669.493
223.767	14.973	885.343	668.916
224.782	15.114	884.463	668.754
225.796	15.288	883.522	668.677
226.811	15.209	883.164	668.031
227.826	15.281	882.479	667.742
228.840	15.141	882.065	666.810
229.855	15.099	881.499	666.157
230.869	15.159	880.503	665.584
231.884	14.997	880.263	664.700
232.899	15.074	879.435	664.322
233.913	15.007	878.569	663.342
234.928	15.073	877.613	662.825
235.942	15.105	876.930	662.376
236.957	15.078	876.436	661.836
237.972	15.051	875.713	661.126
238.986	14.933	875.636	660.545
240.001	15.052	875.114	660.560
241.015	15.117	874.207	660.076
242.030	15.007	873.677	659.183
243.045	15.149	872.610	658.878
244.059	15.118	871.710	658.017
245.074	15.262	871.586	658.434
246.088	15.181	871.136	657.716
247.103	15.311	870.383	657.601
248.117	15.284	869.875	657.049
249.132	15.484	869.182	657.251
250.147	15.498	868.823	656.977
251.161	15.603	868.065	656.758
252.176	15.654	867.748	656.658
253.190	15.675	866.586	655.804
254.205	15.700	866.065	655.449
255.220	15.921	865.366	655.722
256.234	15.766	864.976	654.763
257.249	15.846	864.121	654.371
258.263	15.845	864.248	654.405
259.278	15.690	863.577	653.235
260.293	15.668	862.916	652.592
261.307	15.830	862.359	652.744
262.322	15.820	861.821	652.241
263.336	15.838	861.239	651.809
264.351	15.966	860.327	651.558
265.366	15.940	860.274	651.361
266.380	15.861	859.459	650.379
267.395	15.983	858.693	650.213
268.409	15.894	857.850	649.173
269.424	15.736	857.208	648.022
270.439	15.751	856.754	647.679
271.453	15.898	855.861	647.512
272.468	15.877	855.299	646.950
273.482	15.805	854.613	646.097
274.497	15.880	854.070	645.917
275.512	15.951	853.277	645.531
276.526	16.025	852.079	644.854
277.541	15.908	851.669	644.037
278.555	15.823	851.416	643.463
279.570	15.884	850.841	643.204
280.585	15.968	850.097	642.905
281.599	16.120	849.575	643.035
282.614	16.096	849.135	642.554
283.628	16.081	848.395	641.880
284.643	15.971	848.102	641.183
285.657	16.013	847.443	640.785
286.672	16.004	846.895	640.281
287.687	15.984	846.450	639.814
288.701	15.991	846.251	639.632
289.716	16.120	845.416	639.433
290.730	16.247	844.681	639.302
291.745	16.199	844.412	638.861
292.760	15.997	843.478	637.335
293.774	16.219	842.877	637.663
294.789	16.209	842.531	637.304
295.803	16.269	841.722	636.862
296.818	16.242	840.986	636.148
297.833	16.275	840.093	635.542
298.847	16.305	839.562	635.195
299.862	16.259	838.647	634.274
300.876	16.286	838.587	634.276
301.891	16.142	837.977	633.215
302.906	16.345	837.083	633.248
303.920	16.341	836.472	632.715
304.935	16.385	836.119	632.553
305.949	16.322	835.661	631.918
306.964	16.427	835.027	631.776
307.979	16.347	834.430	630.968
308.993	16.452	833.784	630.816
310.008	16.542	833.060	630.548
311.022	16.649	832.327	630.335
312.037	16.478	832.306	629.625
313.052	16.485	831.319	628.851
314.066	16.500	830.515	628.242
315.081	16.414	830.114	627.562
316.095	16.380	829.633	627.020
317.110	16.348	829.398	626.667
318.125	16.416	828.897	626.485
319.139	16.452	828.462	626.236
320.154	16.469	827.394	625.433
321.168	16.439	826.921	624.909
322.183	16.342	826.616	624.264
323.197	16.385	826.328	624.154
324.212	16.475	825.585	623.868
325.227	16.627	824.898	623.854
326.241	16.434	824.714	622.949
327.256	16.551	823.568	622.459
328.270	16.489	823.727	622.295
329.285	16.495	822.945	621.671
330.300	16.612	821.788	621.173
331.314	16.636	821.527	621.008
332.329	16.596	821.208	620.566
333.343	16.614	820.504	620.045
334.358	16.673	819.914	619.758
335.373	16.591	819.576	619.149
336.387	16.718	819.052	619.162
337.402	16.851	818.154	618.916
338.416	16.795	817.990	618.529
339.431	16.857	817.609	618.414
340.446	16.812	817.098	617.809
341.460	16.954	816.477	617.803
342.475	16.880	815.912	617.049
343.489	16.922	815.341	616.718
344.504	17.222	814.217	616.903
345.519	17.223	814.107	616.768
346.533	17.100	813.436	615.757
347.548	17.138	813.093	615.582
348.562	16.892	813.088	614.631
349.577	16.909	812.112	613.901
350.592	16.855	811.402	613.116
351.606	16.974	811.098	613.263
352.621	16.897	810.612	612.560
353.635	16.734	810.643	611.942
354.650	16.978	810.011	612.290
355.665	16.935	809.701	611.848
356.679	16.957	809.274	611.549
357.694	16.984	808.837	611.264
358.708	16.984	808.388	610.870
359.723	17.071	807.781	610.671
360.738	17.058	806.931	609.925
361.752	17.084	806.320	609.505
362.767	17.060	806.252	609.313
363.781	17.144	805.686	609.134
364.796	17.096	805.723	608.935
365.810	17.271	805.017	608.975
366.825	17.344	804.525	608.809
367.840	17.344	804.278	608.569
368.854	17.430	803.620	608.324
369.869	17.429	803.223	607.968
370.883	17.371	802.794	607.380
371.898	17.214	802.561	606.588
372.913	17.310	801.567	606.128
373.927	17.302	801.002	605.617
374.942	17.344	800.296	605.179
375.956	17.421	799.618	604.887
376.971	17.410	799.054	604.368
377.986	17.570	798.743	604.647
379.000	17.615	798.281	604.402
380.015	17.596	797.735	603.870
381.029	17.696	797.165	603.739
382.044	17.616	796.405	602.827
383.059	17.604	795.972	602.401
384.073	17.668	795.341	602.100
385.088	17.598	794.981	601.524
386.102	17.571	794.804	601.244
387.117	17.469	793.708	600.003
388.132	17.590	793.350	600.102
389.146	17.676	792.744	599.896
390.161	17.655	792.643	599.691
391.175	17.621	792.458	599.381
392.190	17.706	791.628	598.997
393.205	17.549	791.537	598.325
394.219	17.592	791.206	598.171
395.234	17.724	790.680	598.185
396.248	17.517	790.195	597.040
397.263	17.518	789.660	596.586
398.278	17.534	788.697	595.861
399.292	17.510	788.258	595.391
400.307	17.562	787.901	595.251
401.321	17.517	787.420	594.679
402.336	17.489	787.403	594.513
403.350	17.482	786.822	593.999
404.365	17.564	786.629	594.086
405.380	17.772	786.100	594.360
406.394	17.811	785.646	594.100
407.409	17.836	785.101	593.722
408.423	17.959	784.898	593.944
409.438	17.990	784.363	593.594
410.453	17.790	784.405	592.878
411.467	17.915	783.612	592.662
412.482	18.031	782.918	592.484
413.496	17.966	782.690	592.036
414.511	18.139	781.950	592.023
415.526	18.237	781.684	592.106
416.540	18.055	782.038	591.692
417.555	18.080	781.296	591.165
418.569	18.229	780.554	591.065
419.584	17.978	780.189	589.871
420.599	18.086	779.719	589.836
421.613	156.796	1369.030	1794.312
422.628	135.315	1454.899	1794.401
