DTS Sentinel unit serial number:	SN413079Multiplexer serial number:	ORYXHardware model number:	OX4-SRSoftware version number:	ORYX F/W v4.00 Oryx Data Collector v3.7.2.0data status	okinstallation	princeton_trtdifferential loss correction	single-endedforward channel	channel 3reverse channel	N/Adate	2019/09/13time	14:56:35forward acquisition time	60.00reverse acquisition time	0.00gamma	496.2192k internal	0.2299k external	0.2299temperature offset calibration	1.0143default loss term (dB/km)	0.3790temperature slope calibration	1.0000multiplexer offset coefficient	1.0000multiplexer slope coefficient	1.0000fibre end	0.00T internal ref (°C)	35.64T ext. ref 1 (°C)	4.69T ext. ref 2 (°C)	31.23length (m)	temperature (°C)	Stokes	anti-Stokes-747.200	-95.329	0.318	-0.087
-746.185	270.207	0.261	0.468
-745.171	26.854	0.247	0.212
-744.156	-200.000	-0.004	0.494
-743.142	487.092	-0.136	-0.316
-742.127	142.578	-0.153	-0.207
-741.112	-171.925	-0.228	-0.008
-740.098	107.961	0.114	0.138
-739.083	635.518	-0.099	0.256
-738.069	536.958	0.049	-0.118
-737.054	37.758	-0.068	-0.062
-736.039	-18.944	0.139	0.088
-735.025	-200.000	-0.059	0.285
-734.010	-76.639	-0.259	0.093
-732.996	800.000	-0.050	-0.172
-731.981	122.324	0.198	0.253
-730.966	-41.481	-0.111	-0.058
-729.952	-200.000	-0.015	-0.249
-728.937	800.000	0.053	0.152
-727.923	-194.076	0.180	0.002
-726.908	-37.433	-0.589	-0.320
-725.894	-143.161	0.191	0.019
-724.879	34.153	0.233	-0.207
-723.864	47.274	-0.124	0.118
-722.850	-121.573	-0.255	-0.043
-721.835	51.985	-0.219	-0.212
-720.821	118.377	-0.057	-0.072
-719.806	-200.000	-0.004	0.078
-718.791	63.756	-0.313	-0.321
-717.777	-58.580	0.226	-0.100
-716.762	-65.650	-0.049	0.020
-715.748	-200.000	0.003	-0.207
-714.733	-83.092	0.488	-0.160
-713.718	570.093	0.078	-0.194
-712.704	243.025	0.074	-0.127
-711.689	150.070	-0.054	-0.075
-710.675	-109.518	-0.110	0.024
-709.660	-86.000	0.355	0.112
-708.645	-23.277	0.051	0.031
-707.631	-200.000	-0.005	-0.045
-706.616	241.341	0.116	0.198
-705.602	276.792	0.073	-0.133
-704.587	88.605	0.321	-0.364
-703.572	-95.925	-0.202	-0.055
-702.558	-106.485	0.471	-0.107
-701.543	113.263	-0.055	-0.068
-700.529	-200.000	-0.027	-0.196
-699.514	13.220	0.185	0.146
-698.499	160.883	0.085	-0.121
-697.485	-106.078	0.237	-0.054
-696.470	-173.353	0.115	-0.004
-695.456	44.532	0.229	-0.215
-694.441	-91.165	-0.403	-0.118
-693.426	356.149	0.024	-0.048
-692.412	-200.000	-0.043	-0.235
-691.397	-67.576	0.130	-0.052
-690.383	-200.000	-0.035	-0.187
-689.368	-200.000	0.061	0.361
-688.354	79.280	-0.179	0.195
-687.339	-82.744	-0.174	-0.057
-686.324	-33.402	-0.183	0.103
-685.310	34.647	0.224	0.200
-684.295	800.000	-0.101	0.346
-683.281	-68.643	0.057	0.022
-682.266	-200.000	0.026	-0.500
-681.251	1.029	-0.222	-0.162
-680.237	-21.605	0.188	0.117
-679.222	-10.297	0.093	-0.063
-678.208	43.344	-0.229	-0.213
-677.193	129.485	-0.245	-0.319
-676.178	-94.303	-0.254	-0.071
-675.164	800.000	-0.138	-0.394
-674.149	785.350	0.075	-0.208
-673.135	-49.949	0.053	0.025
-672.120	6.346	0.247	0.186
-671.105	386.708	-0.053	0.112
-670.091	-102.344	0.220	-0.054
-669.076	-56.867	-0.073	-0.033
-668.062	254.553	0.121	-0.211
-667.047	-59.365	-0.228	-0.100
-666.032	509.080	0.011	-0.025
-665.018	193.109	-0.117	-0.179
-664.003	-123.313	-0.351	-0.057
-662.989	0.993	0.144	-0.105
-661.974	-200.000	0.008	-0.207
-660.959	-137.238	-0.364	-0.042
-659.945	800.000	0.027	0.110
-658.930	800.000	0.038	0.164
-657.916	43.673	-0.266	-0.247
-656.901	-185.015	-0.290	0.005
-655.886	-8.635	-0.266	0.181
-654.872	-183.838	-0.312	0.005
-653.857	3.489	0.193	0.143
-652.843	-99.066	0.076	-0.020
-651.828	54.217	-0.028	-0.027
-650.814	-87.495	-0.075	-0.023
-649.799	391.895	-0.098	-0.206
-648.784	741.783	0.089	-0.242
-647.770	-104.852	0.230	0.054
-646.755	800.000	0.077	-0.283
-645.741	-42.169	-0.305	-0.158
-644.726	-87.860	-0.220	0.067
-643.711	-163.758	-0.262	0.012
-642.697	24.936	0.121	-0.102
-641.682	-200.000	0.002	0.057
-640.668	535.710	0.098	-0.236
-639.653	-200.000	0.018	-0.106
-638.638	295.180	0.057	0.107
-637.624	800.000	0.018	0.074
-636.609	-53.972	-0.094	0.043
-635.595	204.992	0.115	0.182
-634.580	-200.000	-0.018	-0.276
-633.565	-70.303	0.137	-0.053
-632.551	-200.000	0.035	-0.406
-631.536	158.741	0.050	0.071
-630.522	205.481	-0.170	-0.268
-629.507	800.000	-0.056	-0.195
-628.492	-200.000	-0.044	-0.348
-627.478	94.190	-0.099	-0.114
-626.463	521.933	-0.151	-0.361
-625.449	245.057	0.220	0.375
-624.434	4.020	-0.147	0.109
-623.419	800.000	-0.048	0.145
-622.405	506.732	0.056	-0.132
-621.390	-111.021	0.125	-0.026
-620.376	385.465	-0.066	-0.138
-619.361	-80.150	0.287	-0.098
-618.346	-200.000	0.053	-0.343
-617.332	11.446	0.139	-0.108
-616.317	-30.825	0.193	-0.111
-615.303	61.274	0.131	-0.133
-614.288	119.712	0.146	0.184
-613.273	7.505	0.101	0.076
-612.259	594.544	-0.085	-0.215
-611.244	-200.000	0.052	-0.260
-610.230	-200.000	0.007	-0.212
-609.215	-200.000	0.017	0.178
-608.201	800.000	-0.090	-0.324
-607.186	6.953	0.116	0.088
-606.171	260.985	-0.032	-0.056
-605.157	200.887	0.036	0.057
-604.142	-6.375	0.213	0.148
-603.128	100.473	0.105	-0.124
-602.113	-200.000	0.044	0.252
-601.098	52.146	0.299	0.290
-600.084	-21.048	-0.381	-0.237
-599.069	367.646	-0.132	-0.270
-598.055	800.000	0.024	0.096
-597.040	-200.000	0.015	-0.224
-596.025	20.858	0.097	0.080
-595.011	-148.452	0.036	0.003
-593.996	-102.583	-0.219	-0.053
-592.982	-154.762	0.077	-0.005
-591.967	-200.000	0.003	0.191
-590.952	-26.275	-0.218	0.130
-589.938	43.202	0.120	-0.111
-588.923	173.970	-0.068	-0.099
-587.909	-200.000	-0.013	0.375
-586.894	29.000	-0.176	0.151
-585.879	102.977	0.190	-0.225
-584.865	-92.492	-0.230	0.066
-583.850	-200.000	-0.023	0.358
-582.836	-50.391	0.110	-0.053
-581.821	-38.643	-0.130	0.070
-580.806	800.000	0.142	0.407
-579.792	58.493	0.133	0.133
-578.777	46.008	0.140	-0.132
-577.763	52.443	-0.235	0.228
-576.748	-29.100	-0.139	0.081
-575.733	800.000	0.068	-0.211
-574.719	-200.000	-0.011	0.301
-573.704	14.954	-0.057	-0.045
-572.690	675.032	-0.105	-0.276
-571.675	-45.208	-0.128	-0.065
-570.661	800.000	0.027	0.083
-569.646	-200.000	-0.030	-0.217
-568.631	-122.038	-0.151	-0.025
-567.617	-200.000	-0.010	0.098
-566.602	-150.069	0.173	-0.014
-565.588	-200.000	0.037	-0.273
-564.573	-83.763	-0.459	0.149
-563.558	-54.478	0.245	0.113
-562.544	-139.224	0.324	-0.035
-561.529	124.897	-0.168	-0.215
-560.515	26.213	-0.030	0.025
-559.500	175.842	-0.051	-0.075
-558.485	-133.849	0.081	0.010
-557.471	-80.341	0.342	-0.116
-556.456	-111.479	0.310	-0.064
-555.442	588.589	0.130	0.324
-554.427	-185.455	-0.182	-0.003
-553.412	-15.910	-0.209	0.135
-552.398	-45.157	0.278	0.140
-551.383	-200.000	-0.013	-0.212
-550.369	-200.000	0.014	-0.278
-549.354	26.344	0.117	0.099
-548.339	-123.377	0.057	0.009
-547.325	-200.000	0.021	-0.201
-546.310	-155.674	-0.293	-0.019
-545.296	-101.123	-0.273	-0.068
-544.281	-41.285	0.274	-0.143
-543.266	17.744	-0.260	0.210
-542.252	510.632	0.127	0.299
-541.237	-173.881	-0.252	-0.008
-540.223	191.200	-0.060	-0.091
-539.208	-155.987	-0.151	0.010
-538.193	640.032	0.033	0.085
-537.179	-200.000	-0.011	0.201
-536.164	-200.000	0.012	-0.123
-535.150	-8.012	0.082	-0.056
-534.135	-142.975	0.162	-0.016
-533.121	-200.000	-0.002	-0.080
-532.106	800.000	0.014	-0.047
-531.091	800.000	-0.039	-0.121
-530.077	-200.000	-0.052	-0.325
-529.062	-7.828	0.150	-0.102
-528.048	-200.000	0.030	-0.268
-527.033	-10.123	0.101	-0.068
-526.018	-200.000	0.003	0.102
-525.004	132.512	-0.323	-0.421
-523.989	213.659	-0.125	0.200
-522.975	96.193	-0.131	-0.152
-521.960	-53.232	-0.202	-0.094
-520.945	84.511	0.073	0.081
-519.931	789.593	0.051	-0.140
-518.916	-13.913	0.147	-0.096
-517.902	-31.213	-0.170	0.097
-516.887	41.100	-0.218	-0.199
-515.872	-15.025	0.367	0.238
-514.858	50.517	-0.135	-0.130
-513.843	-200.000	0.004	0.099
-512.829	-55.129	-0.112	0.051
-511.814	-200.000	0.010	0.143
-510.799	-14.268	0.109	-0.071
-509.785	-65.217	0.076	0.031
-508.770	-99.014	0.228	0.058
-507.756	417.627	0.101	-0.218
-506.741	286.119	0.267	0.487
-505.726	-200.000	0.010	-0.112
-504.712	-34.524	0.393	-0.217
-503.697	-200.000	-0.032	0.218
-502.683	-89.246	0.016	0.005
-501.668	-200.000	-0.027	-0.487
-500.653	-1.463	0.199	0.142
-499.639	-110.877	0.212	-0.044
-498.624	-92.456	-0.104	0.029
-497.610	-53.911	-0.228	0.105
-496.595	800.000	0.031	0.119
-495.581	159.891	0.032	-0.045
-494.566	-46.139	0.095	-0.047
-493.551	55.449	-0.074	-0.073
-492.537	34.597	-0.152	0.135
-491.522	20.804	-0.077	-0.063
-490.508	-35.339	0.125	-0.068
-489.493	-151.025	-0.049	-0.004
-488.478	800.000	-0.046	0.178
-487.464	-25.457	0.317	0.190
-486.449	-83.555	-0.058	-0.019
-485.435	-136.745	-0.187	-0.022
-484.420	78.375	0.153	-0.165
-483.405	800.000	0.030	0.115
-482.391	-16.092	-0.231	0.148
-481.376	-33.645	0.088	0.049
-480.362	752.464	0.037	-0.100
-479.347	-200.000	-0.013	0.295
-478.332	-23.138	0.331	-0.201
-477.318	-200.000	0.037	-0.194
-476.303	800.000	0.092	-0.283
-475.289	-200.000	-0.019	0.312
-474.274	-102.063	-0.137	0.033
-473.259	-119.892	-0.355	0.062
-472.245	-92.814	-0.204	-0.058
-471.230	34.806	-0.201	-0.177
-470.216	-200.000	0.015	0.212
-469.201	-137.781	0.058	0.007
-468.186	16.394	0.195	-0.156
-467.172	53.222	-0.320	0.309
-466.157	197.714	0.100	0.154
-465.143	324.847	-0.021	-0.040
-464.128	213.371	-0.077	0.123
-463.113	509.389	0.070	0.165
-462.099	67.747	-0.091	-0.094
-461.084	-56.345	-0.079	-0.035
-460.070	-57.000	-0.236	-0.105
-459.055	-100.094	-0.376	-0.094
-458.040	458.857	-0.140	-0.313
-457.026	77.083	0.053	-0.057
-456.011	-38.605	0.281	0.150
-454.997	-200.000	-0.011	-0.116
-453.982	-81.141	-0.283	0.094
-452.968	-56.255	-0.285	-0.128
-451.953	81.196	0.156	-0.170
-450.938	800.000	0.067	-0.201
-449.924	-100.207	0.072	-0.018
-448.909	35.862	-0.253	0.224
-447.895	-200.000	0.014	-0.156
-446.880	-200.000	0.013	-0.392
-445.865	100.283	0.040	0.047
-444.851	234.334	0.070	0.117
-443.836	171.807	-0.098	-0.142
-442.822	110.571	-0.193	-0.235
-441.807	-200.000	-0.038	0.283
-440.792	800.000	0.059	0.165
-439.778	-199.370	0.230	0.001
-438.763	177.314	0.222	-0.326
-437.749	-30.688	-0.210	-0.120
-436.734	379.136	0.075	-0.156
-435.719	-29.153	-0.067	0.038
-434.705	27.051	-0.296	0.250
-433.690	-200.000	-0.014	0.167
-432.676	-12.978	0.378	0.248
-431.661	-200.000	-0.025	0.274
-430.646	-41.870	-0.159	0.082
-429.632	77.427	-0.198	0.213
-428.617	67.632	-0.200	-0.206
-427.603	-31.257	-0.348	0.198
-426.588	14.387	0.092	-0.072
-425.573	-51.961	0.432	0.203
-424.559	174.240	0.197	-0.287
-423.544	-200.000	-0.020	0.231
-422.530	-200.000	-0.326	-0.000
-421.515	-106.698	0.119	-0.027
-420.500	-76.975	0.210	-0.074
-419.486	184.998	0.116	-0.174
-418.471	-63.315	0.073	-0.030
-417.457	-8.132	-0.081	0.055
-416.442	-112.176	0.178	0.036
-415.428	-60.152	-0.149	-0.064
-414.413	-15.478	0.241	-0.155
-413.398	117.357	-0.055	-0.068
-412.384	-200.000	0.039	0.195
-411.369	-7.481	0.069	-0.047
-410.355	-143.967	0.143	-0.014
-409.340	8.523	0.131	-0.099
-408.325	54.550	0.188	0.183
-407.311	-114.687	0.136	0.026
-406.296	331.113	-0.217	0.421
-405.282	-42.586	-0.219	0.112
-404.267	29.679	0.076	0.065
-403.252	-130.367	0.348	0.048
-402.238	-200.000	0.009	-0.084
-401.223	-200.000	-0.011	-0.101
-400.209	-87.419	0.194	-0.059
-399.194	89.714	0.192	-0.216
-398.179	370.548	-0.062	-0.127
-397.165	255.128	-0.194	0.334
-396.150	-200.000	-0.010	-0.096
-395.136	800.000	-0.126	0.417
-394.121	734.627	-0.021	0.058
-393.106	-21.472	0.247	0.152
-392.092	-92.652	0.143	0.040
-391.077	-200.000	-0.034	-0.196
-390.063	367.181	-0.099	0.200
-389.048	-151.184	-0.227	0.017
-388.033	121.401	0.019	0.023
-387.019	41.671	0.255	-0.233
-386.004	11.473	0.033	0.026
-384.990	-100.360	0.067	0.017
-383.975	800.000	-0.118	-0.347
-382.960	43.131	0.195	0.179
-381.946	-171.805	-0.140	0.005
-380.931	800.000	-0.044	0.128
-379.917	39.017	-0.174	-0.157
-378.902	735.906	0.115	0.310
-377.888	-200.000	-0.024	-0.202
-376.873	41.064	-0.236	-0.215
-375.858	-98.662	-0.166	0.043
-374.844	-184.306	0.208	0.003
-373.829	-200.000	-0.004	0.135
-372.815	231.272	0.088	0.145
-371.800	-106.640	-0.153	-0.034
-370.785	-200.000	-0.024	-0.127
-369.771	72.920	-0.144	0.152
-368.756	36.208	-0.129	0.115
-367.742	-21.942	-0.110	0.067
-366.727	492.005	-0.068	0.157
-365.712	-135.317	0.242	-0.029
-364.698	82.559	0.177	-0.193
-363.683	-200.000	-0.119	-0.553
-362.669	280.234	0.035	-0.064
-361.654	-200.000	-0.007	0.183
-360.639	89.069	-0.282	-0.315
-359.625	23.886	0.081	0.067
-358.610	-200.000	-0.005	0.175
-357.596	-200.000	0.057	-0.344
-356.581	-144.211	0.021	0.002
-355.566	-200.000	-0.008	0.191
-354.552	142.647	-0.024	-0.032
-353.537	-200.000	-0.013	0.272
-352.523	21.184	-0.209	-0.170
-351.508	-9.692	-0.259	0.173
-350.493	-200.000	-0.026	0.494
-349.479	-112.615	0.378	-0.076
-348.464	-200.000	-0.018	0.192
-347.450	-130.275	0.129	-0.018
-346.435	181.395	-0.005	-0.008
-345.420	-113.970	-0.174	0.034
-344.406	-77.801	-0.226	-0.079
-343.391	549.384	-0.166	-0.400
-342.377	240.821	-0.035	0.058
-341.362	-200.000	-0.016	0.144
-340.348	-65.875	0.347	-0.140
-339.333	800.000	0.057	0.181
-338.318	73.743	0.258	0.272
-337.304	-86.256	0.153	-0.047
-336.289	757.043	-0.057	-0.154
-335.275	800.000	-0.030	0.101
-334.260	-62.317	0.111	0.046
-333.245	-117.089	-0.290	0.053
-332.231	196.560	-0.205	-0.314
-331.216	-129.179	0.155	0.022
-330.202	107.757	-0.193	0.230
-329.187	133.677	0.040	-0.052
-328.172	800.000	0.046	0.157
-327.158	35.840	0.024	-0.021
-326.143	-83.851	0.242	0.077
-325.129	-200.000	0.079	0.396
-324.114	-140.243	-0.298	0.031
-323.099	-11.224	-0.221	-0.146
-322.085	-200.000	0.013	-0.437
-321.070	-92.862	-0.182	0.051
-320.056	-200.000	-0.003	-0.107
-319.041	-69.978	0.263	0.101
-318.026	-200.000	0.027	0.145
-317.012	55.560	-0.079	-0.077
-315.997	-37.911	0.217	0.116
-314.983	-26.199	0.270	-0.159
-313.968	396.326	0.282	0.591
-312.953	-58.896	-0.050	0.022
-311.939	127.536	-0.221	0.282
-310.924	800.000	0.113	0.447
-309.910	354.881	-0.046	0.092
-308.895	-184.409	0.226	-0.004
-307.880	-166.847	0.094	0.004
-306.866	-134.396	0.049	-0.006
-305.851	67.977	-0.248	0.254
-304.837	-32.881	0.319	0.178
-303.822	-80.931	-0.183	-0.061
-302.807	104.910	-0.213	-0.252
-301.793	168.305	0.080	-0.114
-300.778	46.728	0.198	-0.184
-299.764	677.015	-0.097	-0.253
-298.749	376.518	0.091	0.186
-297.735	800.000	-0.142	-0.453
-296.720	171.949	-0.140	-0.201
-295.705	145.132	-0.209	-0.280
-294.691	260.339	0.150	-0.260
-293.676	-200.000	-0.048	0.296
-292.662	-71.808	0.161	0.060
-291.647	240.597	-0.236	-0.395
-290.632	-104.634	-0.252	0.058
-289.618	-67.618	0.063	0.025
-288.603	-54.122	0.086	0.039
-287.589	78.466	0.148	0.158
-286.574	-200.000	-0.000	0.043
-285.559	800.000	0.020	-0.066
-284.545	203.716	-0.127	0.198
-283.530	-49.352	-0.348	-0.166
-282.516	-21.679	0.399	0.243
-281.501	-200.000	0.004	0.039
-280.486	-147.110	-0.264	0.023
-279.472	-108.214	-0.237	-0.051
-278.457	550.116	-0.046	0.110
-277.443	75.606	0.171	-0.181
-276.428	-30.758	-0.170	-0.096
-275.413	-200.000	0.035	-0.255
-274.399	800.000	-0.080	-0.300
-273.384	59.989	0.167	0.165
-272.370	-145.987	-0.410	-0.036
-271.355	253.797	0.162	-0.276
-270.340	78.306	0.136	0.146
-269.326	-132.615	0.386	0.050
-268.311	800.000	-0.022	0.067
-267.297	195.360	-0.174	0.265
-266.282	-200.000	0.040	0.213
-265.267	-51.665	-0.128	0.060
-264.253	7.642	0.113	-0.084
-263.238	-22.581	0.274	0.166
-262.224	-61.873	0.028	-0.012
-261.209	-97.959	0.381	0.098
-260.195	-51.439	0.114	-0.053
-259.180	558.711	0.023	0.055
-258.165	800.000	-0.037	0.106
-257.151	-34.924	0.167	0.092
-256.136	-200.000	0.007	0.199
-255.122	305.260	0.105	0.196
-254.107	800.000	0.056	-0.227
-253.092	-102.491	-0.310	0.074
-252.078	76.868	-0.071	-0.076
-251.063	-158.061	-0.036	0.002
-250.049	343.681	-0.120	0.236
-249.034	175.136	0.125	0.181
-248.019	356.006	0.087	-0.174
-247.005	156.532	-0.071	0.099
-245.990	-131.506	0.108	-0.014
-244.976	150.736	-0.063	0.086
-243.961	-200.000	0.021	0.235
-242.946	-175.222	-0.203	-0.006
-241.932	310.501	-0.130	-0.244
-240.917	-61.743	-0.168	-0.071
-239.903	-200.000	0.041	0.203
-238.888	23.903	0.217	0.179
-237.873	145.251	-0.288	-0.386
-236.859	-21.472	-0.135	-0.082
-235.844	-116.956	0.279	0.051
-234.830	453.371	0.055	0.123
-233.815	73.535	-0.141	-0.147
-232.800	-144.911	-0.107	-0.010
-231.786	-200.000	0.018	-0.083
-230.771	99.784	-0.057	-0.066
-229.757	-200.000	0.020	0.376
-228.742	37.565	-0.236	0.210
-227.727	800.000	-0.019	-0.057
-226.713	-200.000	-0.045	0.295
-225.698	-200.000	0.024	0.167
-224.684	37.169	0.254	-0.225
-223.669	-200.000	-0.029	-0.184
-222.655	166.057	0.114	0.161
-221.640	-200.000	0.013	0.074
-220.625	-27.943	-0.176	0.102
-219.611	135.866	-0.106	-0.138
-218.596	-125.677	-0.332	-0.050
-217.582	-200.000	0.037	0.225
-216.567	-200.000	-0.013	0.225
-215.552	-200.000	0.043	0.315
-214.538	-21.807	0.040	0.025
-213.523	170.658	0.069	-0.098
-212.509	-200.000	-0.028	0.329
-211.494	334.245	0.141	-0.273
-210.479	-46.053	-0.417	0.206
-209.465	800.000	-0.030	-0.124
-208.450	-52.094	0.194	0.090
-207.436	329.207	0.083	-0.160
-206.421	23.515	-0.222	-0.182
-205.406	800.000	0.090	-0.300
-204.392	-83.385	0.523	0.168
-203.377	234.138	0.070	0.115
-202.363	105.247	-0.146	-0.172
-201.348	351.368	-0.152	0.301
-200.333	-89.348	0.390	0.115
-199.319	-180.403	0.214	-0.004
-198.304	-35.547	-0.232	-0.126
-197.290	695.143	0.207	-0.543
-196.275	-200.000	0.009	0.178
-195.260	-46.885	-0.481	0.235
-194.246	-56.149	0.314	-0.140
-193.231	403.072	-0.110	-0.232
-192.217	385.100	-0.164	0.338
-191.202	305.102	0.138	-0.255
-190.187	-114.013	-0.126	-0.024
-189.173	-200.000	-0.027	0.171
-188.158	-81.818	0.151	0.049
-187.144	-26.649	-0.211	0.123
-186.129	-190.530	-0.375	0.004
-185.114	800.000	-0.085	-0.250
-184.100	-65.442	0.162	-0.065
-183.085	-115.283	0.094	0.018
-182.071	800.000	0.077	0.214
-181.056	-144.115	0.165	-0.015
-180.042	-16.274	-0.217	-0.138
-179.027	16.080	0.106	0.084
-178.012	-148.731	0.276	-0.022
-176.998	-146.787	-0.295	-0.025
-175.983	-68.200	0.175	-0.068
-174.969	202.913	-0.059	0.090
-173.954	-200.000	0.001	0.118
-172.939	-88.891	0.094	0.028
-171.925	129.474	0.124	-0.158
-170.910	-47.543	-0.229	-0.111
-169.896	800.000	0.124	0.373
-168.881	-22.781	0.321	-0.193
-167.866	-200.000	-0.029	-0.167
-166.852	-8.187	-0.134	0.090
-165.837	126.906	0.179	-0.226
-164.823	800.000	0.025	-0.089
-163.808	180.818	0.142	0.207
-162.793	-148.764	-0.468	0.038
-161.779	207.956	-0.065	0.102
-160.764	163.991	0.134	0.188
-159.750	800.000	0.088	-0.290
-158.735	800.000	0.086	0.267
-157.720	178.436	-0.101	-0.148
-156.706	-74.966	-0.150	-0.054
-155.691	2.902	-0.016	0.012
-154.677	369.226	-0.132	0.266
-153.662	-37.684	0.152	0.081
-152.647	72.025	-0.079	0.082
-151.633	94.993	-0.044	-0.050
-150.618	269.265	-0.172	0.301
-149.604	-120.718	0.361	0.061
-148.589	-200.000	-0.018	0.232
-147.574	794.499	-0.143	-0.391
-146.560	-41.539	0.147	0.075
-145.545	-200.000	-0.024	-0.208
-144.531	-177.131	-0.203	0.005
-143.516	36.871	-0.058	-0.051
-142.502	800.000	-0.094	-0.408
-141.487	-83.353	-0.232	0.074
-140.472	-51.883	-0.094	-0.044
-139.458	-110.686	0.047	0.010
-138.443	800.000	-0.054	-0.167
-137.429	-200.000	-0.022	0.287
-136.414	381.370	0.178	0.364
-135.399	-133.061	-0.399	0.050
-134.385	-121.035	-0.096	0.016
-133.370	144.366	-0.144	-0.192
-132.356	8.489	0.237	0.178
-131.341	-120.726	0.334	0.056
-130.326	43.716	0.212	-0.194
-129.312	670.190	-0.074	-0.192
-128.297	317.402	-0.056	0.106
-127.283	-5.576	-0.170	0.116
-126.268	130.332	0.211	-0.269
-125.253	64.153	0.136	-0.136
-124.239	-200.000	-0.067	-0.431
-123.224	99.375	0.133	-0.153
-122.210	743.118	0.111	0.297
-121.195	-176.482	-0.457	0.012
-120.180	78.421	-0.114	0.121
-119.166	-200.000	0.005	0.119
-118.151	258.557	-0.042	-0.073
-117.137	-19.352	0.149	-0.092
-116.122	-200.000	0.022	-0.097
-115.107	-70.587	0.194	0.073
-114.093	88.137	-0.150	0.166
-113.078	-75.422	-0.198	0.070
-112.064	76.941	-0.088	-0.093
-111.049	47.790	-0.090	-0.083
-110.034	-35.874	-0.486	-0.262
-109.020	-106.404	0.137	-0.030
-108.005	13.129	0.199	-0.153
-106.991	57.643	-0.172	0.167
-105.976	294.908	0.146	0.266
-104.962	-200.000	0.019	-0.201
-103.947	252.770	-0.116	-0.197
-102.932	-200.000	0.003	-0.317
-101.918	-200.000	0.002	-0.190
-100.903	-18.524	0.123	-0.076
-99.889	23.301	0.244	-0.199
-98.874	482.508	0.098	0.222
-97.859	-174.470	-0.125	0.004
-96.845	191.160	-0.076	0.114
-95.830	565.385	-0.057	0.138
-94.816	26.559	0.213	-0.177
-93.801	-200.000	0.032	-0.221
-92.786	201.807	0.122	-0.187
-91.772	-54.881	-0.220	-0.099
-90.757	95.269	0.105	0.119
-89.743	-200.000	-0.046	-0.216
-88.728	62.531	-0.159	-0.158
-87.713	-34.232	-0.296	-0.162
-86.699	800.000	-0.045	-0.167
-85.684	-115.797	0.207	0.038
-84.670	-51.110	0.124	-0.058
-83.655	713.179	0.128	0.337
-82.640	-68.358	0.215	-0.083
-81.626	-138.168	0.133	-0.015
-80.611	-200.000	0.052	0.240
-79.597	652.811	-0.097	0.247
-78.582	-200.000	-0.026	0.151
-77.567	-101.123	0.273	-0.066
-76.553	-96.926	-0.393	-0.103
-75.538	-170.245	0.262	-0.009
-74.524	-50.138	-0.291	-0.137
-73.509	429.420	-0.026	0.056
-72.494	589.566	0.042	0.102
-71.480	126.845	0.164	-0.206
-70.465	-153.920	0.037	-0.002
-69.451	214.893	0.110	-0.173
-68.436	81.223	0.146	-0.156
-67.422	50.455	-0.071	-0.067
-66.407	256.162	-0.226	-0.386
-65.392	800.000	0.030	-0.125
-64.378	130.368	0.181	-0.230
-63.363	-36.686	0.063	0.034
-62.349	800.000	-0.051	0.212
-61.334	136.507	-0.650	-0.843
-60.319	400.606	0.172	0.359
-59.305	-200.000	0.040	-0.935
-58.290	800.000	0.381	1.172
-57.276	793.169	0.627	1.714
-56.261	-200.000	92.420	546.372
-55.246	599.326	1384.796	3412.973
-54.232	185.130	2601.097	3833.916
-53.217	120.148	2219.524	2735.472
-52.203	45.962	1749.780	1608.257
-51.188	38.745	1558.130	1381.434
-50.173	36.301	1530.156	1339.643
-49.159	54.293	1578.675	1509.368
-48.144	57.952	1598.295	1553.872
-47.130	39.144	1554.500	1380.802
-46.115	35.898	1539.390	1344.701
-45.100	35.672	1535.799	1339.934
-44.086	35.653	1533.802	1338.006
-43.071	35.660	1531.722	1336.188
-42.057	35.659	1530.255	1334.842
-41.042	35.662	1528.665	1333.426
-40.027	35.634	1527.810	1332.432
-39.013	35.691	1525.779	1331.006
-37.998	35.550	1524.749	1329.078
-36.984	35.554	1523.835	1328.256
-35.969	35.633	1522.432	1327.528
-34.954	35.639	1520.556	1325.880
-33.940	35.615	1519.478	1324.721
-32.925	35.623	1517.584	1323.072
-31.911	35.618	1516.485	1322.029
-30.896	35.691	1515.060	1321.234
-29.881	35.808	1513.332	1320.481
-28.867	35.695	1512.642	1319.048
-27.852	35.691	1510.802	1317.362
-26.838	35.715	1509.572	1316.401
-25.823	35.663	1507.880	1314.517
-24.809	35.646	1506.139	1312.833
-23.794	35.665	1504.768	1311.715
-22.779	35.731	1503.558	1311.057
-21.765	35.694	1502.737	1310.037
-20.750	35.707	1501.488	1308.990
-19.736	35.677	1500.569	1307.931
-18.721	35.659	1499.323	1306.672
-17.706	35.652	1498.410	1305.774
-16.692	35.696	1497.120	1304.901
-15.677	35.622	1496.334	1303.655
-14.663	35.591	1495.069	1302.291
-13.648	35.589	1494.368	1301.617
-12.633	35.621	1492.708	1300.340
-11.619	35.594	1492.585	1299.997
-10.604	35.608	1491.262	1298.884
-9.590	35.560	1490.193	1297.582
-8.575	35.598	1489.560	1297.237
-7.560	35.678	1489.135	1297.354
-6.546	35.553	1488.126	1295.579
-5.531	35.702	1486.806	1295.379
-4.517	35.590	1486.085	1293.949
-3.502	35.536	1484.963	1292.559
-2.487	35.534	1484.297	1291.912
-1.473	35.536	1482.921	1290.677
-0.458	35.546	1481.825	1289.738
0.556	37.753	1471.948	1279.485
1.571	34.412	1444.592	1234.015
2.586	30.146	1380.266	1152.506
3.600	27.585	1295.855	1066.959
4.615	25.142	1247.147	1012.983
5.629	21.099	1189.640	944.352
6.644	12.800	1103.611	834.141
7.659	5.996	1061.149	768.763
8.673	4.909	1055.307	759.168
9.688	4.671	1052.191	755.703
10.702	4.498	1050.634	753.682
11.717	4.673	1049.721	753.809
12.731	7.974	1052.803	771.975
13.746	16.324	1064.169	820.998
14.761	21.806	1071.478	853.321
15.775	22.230	1070.615	854.617
16.790	21.315	1069.111	848.899
17.804	20.454	1066.672	842.715
18.819	19.456	1065.000	836.483
19.834	19.070	1063.635	833.466
20.848	18.815	1062.722	831.444
21.863	18.832	1062.178	831.026
22.877	18.514	1061.431	828.832
23.892	18.351	1060.657	827.366
24.907	18.367	1059.551	826.506
25.921	18.224	1059.197	825.467
26.936	18.264	1058.070	824.711
27.950	18.286	1057.162	824.034
28.965	18.194	1056.354	822.891
29.980	18.292	1055.136	822.338
30.994	18.590	1053.879	822.715
32.009	18.632	1053.103	822.239
33.023	18.755	1052.398	822.206
34.038	18.690	1051.499	821.117
35.053	18.673	1050.279	820.012
36.067	18.501	1049.767	818.720
37.082	18.448	1048.721	817.578
38.096	18.405	1048.545	817.163
39.111	18.493	1047.585	816.761
40.126	18.522	1046.846	816.251
41.140	18.518	1045.546	815.146
42.155	18.214	1044.477	812.794
43.169	18.092	1043.297	811.228
44.184	18.007	1041.996	809.740
45.199	17.965	1041.027	808.717
46.213	17.936	1040.462	808.071
47.228	17.993	1039.498	807.521
48.242	18.277	1038.504	808.016
49.257	18.356	1037.991	807.919
50.271	18.419	1036.869	807.269
51.286	18.478	1035.967	806.776
52.301	18.498	1035.224	806.218
53.315	18.409	1034.517	805.180
54.330	18.296	1033.621	803.877
55.344	18.254	1032.328	802.604
56.359	18.160	1031.533	801.477
57.374	18.050	1031.246	800.668
58.388	18.164	1030.023	800.178
59.403	18.189	1028.245	798.845
60.417	17.970	1028.032	797.586
61.432	17.927	1027.455	796.867
62.447	17.923	1026.866	796.323
63.461	17.865	1025.755	795.120
64.476	17.776	1025.215	794.218
65.490	17.852	1023.725	793.344
66.505	17.804	1022.782	792.318
67.520	17.770	1022.334	791.747
68.534	17.860	1021.821	791.697
69.549	17.918	1020.451	790.831
70.563	17.854	1019.996	790.115
71.578	17.852	1019.153	789.380
72.593	17.769	1018.231	788.216
73.607	17.652	1017.290	786.874
74.622	17.587	1016.294	785.737
75.636	17.635	1015.567	785.328
76.651	17.619	1014.763	784.562
77.666	17.751	1014.046	784.545
78.680	17.740	1013.461	783.971
79.695	17.809	1012.917	783.800
80.709	17.852	1012.266	783.424
81.724	17.882	1011.491	782.890
82.739	18.006	1010.537	782.650
83.753	18.117	1009.997	782.673
84.768	18.185	1009.476	782.509
85.782	18.519	1008.583	783.277
86.797	18.702	1008.032	783.614
87.812	18.744	1006.807	782.784
88.826	18.459	1006.354	781.063
89.841	18.394	1005.487	780.027
90.855	18.475	1004.762	779.763
91.870	18.412	1004.179	778.956
92.884	18.683	1003.182	779.344
93.899	18.585	1002.710	778.465
94.914	18.677	1001.490	777.865
95.928	18.711	1000.858	777.459
96.943	18.624	1000.351	776.601
97.957	18.498	999.578	775.365
98.972	18.401	998.446	773.980
99.987	18.458	997.664	773.560
101.001	18.617	996.946	773.651
102.016	18.590	996.373	773.017
103.030	18.509	995.146	771.635
104.045	18.462	994.208	770.627
105.060	18.507	993.259	770.022
106.074	18.373	991.989	768.370
107.089	18.258	991.257	767.220
108.103	18.076	989.960	765.333
109.118	17.866	989.458	763.936
110.133	17.888	988.562	763.278
111.147	17.878	987.099	762.036
112.162	17.844	986.533	761.377
113.176	17.949	985.846	761.249
114.191	18.024	984.949	760.822
115.206	18.140	984.101	760.619
116.220	18.075	983.270	759.620
117.235	18.028	982.232	758.542
118.249	18.013	981.798	758.074
119.264	18.016	980.916	757.336
120.279	17.917	979.698	755.891
121.293	17.899	979.110	755.292
122.308	17.850	978.082	754.216
123.322	17.770	976.914	752.895
124.337	17.765	975.886	752.012
125.352	17.735	974.792	750.974
126.366	17.660	973.816	749.826
127.381	17.744	972.699	749.268
128.395	17.708	971.766	748.322
129.410	17.601	971.434	747.533
130.424	17.811	970.150	747.398
131.439	17.930	969.553	747.391
132.454	18.078	969.071	747.603
133.468	18.088	968.359	747.030
134.483	18.094	967.907	746.642
135.497	18.082	966.933	745.770
136.512	17.968	966.510	744.885
137.527	17.975	965.592	744.141
138.541	18.042	964.735	743.705
139.556	18.121	963.867	743.314
140.570	18.113	963.504	742.935
141.585	18.195	962.865	742.731
142.600	18.226	962.158	742.256
143.614	18.371	961.449	742.272
144.629	18.371	961.193	742.007
145.643	18.604	960.002	742.032
146.658	18.512	958.998	740.791
147.673	18.374	957.967	739.333
148.687	18.262	956.783	737.872
149.702	18.222	955.706	736.801
150.716	18.096	954.832	735.520
151.731	18.029	954.140	734.635
152.746	18.040	953.231	733.919
153.760	18.084	952.861	733.759
154.775	18.194	951.964	733.475
155.789	18.305	951.323	733.389
156.804	18.364	950.655	733.064
157.819	18.303	949.621	731.938
158.833	18.342	949.022	731.580
159.848	18.456	948.766	731.807
160.862	18.608	947.856	731.685
161.877	18.465	947.453	730.701
162.892	18.469	945.711	729.308
163.906	18.140	944.715	727.078
164.921	17.999	944.105	725.944
165.935	18.066	943.022	725.332
166.950	18.099	942.218	724.791
167.964	18.215	941.556	724.707
168.979	18.286	940.097	723.823
169.994	18.140	939.015	722.307
171.008	18.087	938.193	721.388
172.023	18.245	937.423	721.400
173.037	18.443	936.789	721.679
174.052	18.457	936.632	721.555
175.067	18.378	935.318	720.145
176.081	18.368	934.198	719.178
177.096	18.091	933.782	717.633
178.110	18.024	932.834	716.559
179.125	18.229	932.007	716.720
180.140	18.201	931.013	715.773
181.154	18.212	930.598	715.440
182.169	18.351	930.188	715.640
183.183	18.508	929.376	715.607
184.198	18.735	928.758	716.015
185.213	18.582	928.170	714.863
186.227	18.468	927.779	714.020
187.242	18.589	927.269	714.070
188.256	18.819	926.198	714.140
189.271	18.737	925.718	713.366
190.286	18.905	924.900	713.366
191.300	18.656	924.348	711.846
192.315	18.177	923.079	708.820
193.329	17.897	922.126	706.869
194.344	18.025	921.492	706.847
195.359	18.095	921.382	706.992
196.373	18.272	920.980	707.353
197.388	18.359	920.764	707.485
198.402	18.648	919.964	707.999
199.417	18.802	919.122	707.924
200.432	18.848	919.223	708.129
201.446	19.001	918.696	708.289
202.461	19.006	918.714	708.262
203.475	18.974	918.440	707.856
204.490	19.162	917.200	707.608
205.504	18.824	916.094	705.304
206.519	18.580	915.378	703.689
207.534	18.555	914.622	702.945
208.548	18.613	913.485	702.248
209.563	18.579	913.199	701.823
210.577	18.644	912.325	701.359
211.592	18.750	911.495	701.092
212.607	18.907	911.420	701.611
213.621	18.843	911.252	701.156
214.636	18.927	910.194	700.625
215.650	18.922	909.198	699.775
216.665	18.861	909.069	699.365
217.680	19.008	908.555	699.508
218.694	19.009	908.428	699.351
219.709	19.175	907.819	699.496
220.723	19.087	907.212	698.606
221.738	18.998	906.555	697.679
222.753	18.989	905.445	696.727
223.767	18.932	904.605	695.789
224.782	19.071	903.937	695.773
225.796	19.235	903.126	695.752
226.811	19.208	902.660	695.224
227.826	19.187	902.105	694.648
228.840	19.127	901.169	693.622
229.855	19.093	900.163	692.652
230.869	19.070	899.493	691.983
231.884	19.035	899.159	691.523
232.899	19.015	898.169	690.622
233.913	18.859	897.350	689.304
234.928	18.745	896.960	688.486
235.942	18.789	896.182	688.004
236.957	18.736	895.240	687.009
237.972	18.765	894.623	686.591
238.986	18.755	894.279	686.226
240.001	18.947	893.272	686.157
241.015	18.769	893.019	685.191
242.030	18.875	892.336	685.031
243.045	19.016	891.795	685.119
244.059	18.984	891.454	684.665
245.074	19.060	890.303	684.025
246.088	19.117	889.452	683.536
247.103	19.252	889.695	684.197
248.117	19.058	889.299	683.063
249.132	19.313	888.639	683.508
250.147	19.500	888.415	684.018
251.161	19.695	887.876	684.311
252.176	19.796	887.106	684.058
253.190	19.820	886.479	683.607
254.205	19.867	885.987	683.355
255.220	20.023	885.216	683.315
256.234	19.958	884.464	682.419
257.249	20.065	883.657	682.155
258.263	19.901	883.307	681.180
259.278	19.799	882.411	680.028
260.293	19.851	882.473	680.219
261.307	19.902	882.036	680.023
262.322	19.968	881.103	679.504
263.336	19.926	880.889	679.114
264.351	20.046	879.708	678.613
265.366	20.128	879.091	678.396
266.380	20.179	878.481	678.066
267.395	20.210	878.004	677.761
268.409	19.902	877.447	676.065
269.424	19.891	876.372	675.135
270.439	19.775	876.111	674.423
271.453	19.882	874.983	673.912
272.468	19.836	873.915	672.851
273.482	19.709	873.420	671.914
274.497	19.805	873.002	671.905
275.512	19.700	872.382	670.964
276.526	19.737	871.510	670.377
277.541	19.863	870.777	670.240
278.555	19.813	870.364	669.672
279.570	19.823	869.865	669.267
280.585	20.082	869.749	670.121
281.599	20.193	868.990	669.905
282.614	20.029	868.401	668.758
283.628	19.830	867.297	667.083
284.643	19.843	867.207	667.001
285.657	19.945	866.515	666.806
286.672	19.837	866.119	666.023
287.687	19.899	865.618	665.819
288.701	19.872	864.969	665.157
289.716	19.931	864.595	665.037
290.730	20.100	863.696	664.936
291.745	20.027	862.951	664.026
292.760	19.948	862.682	663.457
293.774	20.148	861.611	663.340
294.789	20.295	861.342	663.633
295.803	20.281	860.940	663.212
296.818	20.065	860.279	661.820
297.833	20.048	859.589	661.167
298.847	20.051	858.863	660.559
299.862	19.973	858.072	659.598
300.876	20.071	857.362	659.365
301.891	20.347	856.465	659.665
302.906	20.256	856.688	659.431
303.920	20.222	855.817	658.575
304.935	20.602	854.792	659.169
305.949	20.596	854.438	658.816
306.964	20.542	854.323	658.463
307.979	20.357	853.439	657.025
308.993	20.404	853.077	656.864
310.008	20.458	852.447	656.527
311.022	20.394	852.252	656.075
312.037	20.522	851.342	655.798
313.052	20.378	850.982	654.922
314.066	20.245	850.069	653.659
315.081	20.129	849.547	652.762
316.095	20.126	848.897	652.196
317.110	20.072	848.252	651.440
318.125	20.118	847.748	651.166
319.139	20.107	847.317	650.737
320.154	20.217	846.789	650.687
321.168	20.252	845.802	650.001
322.183	20.275	845.530	649.821
323.197	20.231	845.319	649.439
324.212	20.416	844.554	649.485
325.227	20.349	844.184	648.891
326.241	20.267	843.766	648.206
327.256	20.263	842.987	647.537
328.270	20.174	842.492	646.765
329.285	20.259	841.750	646.457
330.300	20.270	841.270	646.070
331.314	20.184	840.564	645.153
332.329	20.233	840.073	644.899
333.343	20.315	839.698	644.861
334.358	20.419	839.061	644.700
335.373	20.681	838.493	645.180
336.387	20.535	838.054	644.241
337.402	20.663	837.471	644.209
338.416	20.550	837.263	643.574
339.431	20.762	836.657	643.837
340.446	20.869	836.398	643.976
341.460	20.945	835.971	643.872
342.475	21.039	834.946	643.371
343.489	21.068	834.536	643.104
344.504	21.258	833.740	643.134
345.519	21.094	833.442	642.246
346.533	21.217	833.050	642.339
347.548	21.265	832.168	641.776
348.562	21.130	831.558	640.754
349.577	20.692	831.177	638.796
350.592	20.655	830.539	638.115
351.606	20.587	830.205	637.552
352.621	20.712	829.099	637.104
353.635	20.687	829.121	636.974
354.650	20.754	828.689	636.830
355.665	20.738	828.238	636.369
356.679	20.780	827.847	636.164
357.694	20.747	827.921	636.046
358.708	20.734	826.961	635.204
359.723	20.840	826.679	635.317
360.738	20.921	825.537	634.679
361.752	20.909	825.464	634.524
362.767	20.871	825.030	633.996
363.781	21.096	824.604	634.429
364.796	21.261	824.328	634.760
365.810	21.295	824.042	634.607
366.825	21.531	823.383	634.900
367.840	21.480	823.240	634.549
368.854	21.517	822.731	634.235
369.869	21.360	822.260	633.248
370.883	21.256	821.666	632.357
371.898	21.180	821.290	631.736
372.913	21.406	820.109	631.588
373.927	21.490	819.602	631.446
374.942	21.244	819.250	630.229
375.956	21.209	818.680	629.608
376.971	21.331	818.055	629.513
377.986	21.485	817.778	629.799
379.000	21.469	817.546	629.505
380.015	21.601	816.665	629.246
381.029	21.622	816.035	628.780
382.044	21.606	815.446	628.215
383.059	21.759	814.335	627.852
384.073	21.615	814.350	627.293
385.088	21.607	813.449	626.515
386.102	21.382	813.147	625.422
387.117	21.315	812.493	624.624
388.132	21.276	811.891	623.964
389.146	21.339	811.581	623.896
390.161	21.343	811.173	623.541
391.175	21.512	810.873	623.860
392.190	21.692	810.341	624.034
393.205	21.545	809.975	623.176
394.219	21.326	809.717	622.141
395.234	21.255	809.018	621.298
396.248	21.250	808.501	620.827
397.263	21.133	807.888	619.887
398.278	21.206	807.159	619.531
399.292	21.170	806.620	618.936
400.307	21.068	806.625	618.523
401.321	21.111	806.169	618.271
402.336	21.271	805.781	618.482
403.350	21.283	805.424	618.198
404.365	21.346	804.999	618.039
405.380	21.563	804.531	618.392
406.394	21.647	804.067	618.277
407.409	21.689	803.958	618.289
408.423	21.778	803.506	618.200
409.438	21.832	802.996	617.942
410.453	22.038	802.537	618.260
411.467	22.012	802.028	617.721
412.482	22.023	801.553	617.342
413.496	22.040	801.415	617.239
414.511	22.073	801.359	617.257
415.526	22.073	800.746	616.730
416.540	21.985	800.208	615.953
417.555	21.914	799.653	615.221
418.569	21.947	799.269	614.988
419.584	22.090	798.416	614.776
420.599	22.031	797.988	614.187
421.613	157.538	1367.693	1786.316
422.628	136.636	1450.718	1786.453
