DTS Sentinel unit serial number:	SN413079Multiplexer serial number:	ORYXHardware model number:	OX4-SRSoftware version number:	ORYX F/W v4.00 Oryx Data Collector v3.7.2.0data status	okinstallation	princeton_trtdifferential loss correction	single-endedforward channel	channel 3reverse channel	N/Adate	2019/09/12time	20:12:03forward acquisition time	15.00reverse acquisition time	0.00gamma	496.2192k internal	0.2323k external	0.2323temperature offset calibration	1.0106default loss term (dB/km)	0.3790temperature slope calibration	1.0000multiplexer offset coefficient	1.0000multiplexer slope coefficient	1.0000fibre end	0.00T internal ref (°C)	31.56T ext. ref 1 (°C)	3.41T ext. ref 2 (°C)	26.19length (m)	temperature (°C)	Stokes	anti-Stokes-747.200	-169.495	1.150	-0.042
-746.185	-134.908	0.454	0.055
-745.171	-43.337	-0.950	0.485
-744.156	-45.087	0.269	-0.135
-743.142	306.566	-0.232	-0.436
-742.127	7.938	-0.553	-0.418
-741.112	800.000	0.087	-0.326
-740.098	-91.341	-0.255	-0.073
-739.083	-52.369	0.468	-0.219
-738.069	162.013	-0.132	0.186
-737.054	-157.002	0.359	0.022
-736.039	-120.765	-0.199	-0.034
-735.025	-72.803	-0.673	0.250
-734.010	-200.000	0.006	0.311
-732.996	-200.000	-0.095	0.507
-731.981	176.016	-0.553	0.810
-730.966	-83.814	0.466	0.150
-729.952	281.249	-0.066	0.119
-728.937	-159.111	0.113	-0.006
-727.923	115.561	0.337	0.416
-726.908	19.443	0.187	-0.152
-725.894	720.288	-0.340	0.913
-724.879	560.032	-0.307	-0.747
-723.864	-67.663	-0.395	0.156
-722.850	104.476	0.563	0.669
-721.835	16.765	0.451	0.360
-720.821	-200.000	-0.065	-0.309
-719.806	-96.071	-0.699	-0.188
-718.791	36.618	-0.372	0.331
-717.777	152.698	-0.244	-0.336
-716.762	-174.619	0.132	-0.004
-715.748	316.941	-0.272	0.518
-714.733	244.181	-0.111	-0.187
-713.718	-58.440	-0.116	0.051
-712.704	800.000	-0.370	1.145
-711.689	96.748	0.601	-0.694
-710.675	-34.563	0.817	0.451
-709.660	-200.000	0.103	-0.836
-708.645	71.989	-0.498	-0.522
-707.631	-31.438	-0.313	0.178
-706.616	-102.786	1.328	0.319
-705.602	-21.103	0.212	-0.131
-704.587	-66.487	0.624	-0.250
-703.572	16.238	-0.297	0.236
-702.558	-200.000	0.077	-0.418
-701.543	5.631	-0.814	0.606
-700.529	-56.481	0.667	0.298
-699.514	316.932	0.099	0.189
-698.499	-11.447	0.566	0.375
-697.485	-3.209	0.856	-0.601
-696.470	-65.847	-0.484	-0.195
-695.456	800.000	-0.091	0.286
-694.441	440.976	-0.208	0.459
-693.426	-106.337	-0.335	-0.075
-692.412	-200.000	0.023	0.256
-691.397	-106.449	0.572	0.129
-690.383	-200.000	-0.009	0.399
-689.368	-121.630	-0.504	-0.084
-688.354	-200.000	0.125	-0.621
-687.339	337.371	-0.085	-0.167
-686.324	70.721	-0.745	-0.777
-685.310	432.467	0.184	0.403
-684.295	392.289	-0.153	-0.320
-683.281	-200.000	0.003	-0.234
-682.266	-79.014	-0.563	-0.193
-681.251	-111.273	-0.490	0.101
-680.237	800.000	0.140	-0.568
-679.222	-200.000	-0.024	0.121
-678.208	145.253	-0.299	-0.404
-677.193	614.047	0.171	0.432
-676.178	80.137	0.583	-0.632
-675.164	800.000	0.212	-0.634
-674.149	470.777	-0.451	-1.022
-673.135	-27.263	-0.259	-0.152
-672.120	314.738	0.639	1.212
-671.105	193.708	0.150	-0.229
-670.091	-106.627	0.545	0.122
-669.076	228.275	0.264	0.433
-668.062	17.721	0.287	-0.230
-667.047	-2.107	-0.284	-0.201
-666.032	365.865	-0.012	-0.024
-665.018	297.448	-0.244	-0.451
-664.003	-25.282	-0.631	0.376
-662.989	-77.157	0.445	-0.156
-661.974	-82.651	0.200	0.065
-660.959	599.504	0.124	-0.310
-659.945	-168.331	-0.781	0.030
-658.930	1.440	0.237	-0.172
-657.916	-95.724	-0.274	-0.074
-656.901	33.369	0.265	0.231
-655.886	-78.466	0.831	-0.287
-654.872	94.461	0.066	-0.075
-653.857	800.000	0.154	-0.486
-652.843	-179.483	0.939	-0.021
-651.828	49.165	0.511	-0.483
-650.814	-82.042	0.594	0.195
-649.799	-107.394	-0.500	-0.110
-648.784	-200.000	-0.098	-1.254
-647.770	-81.829	-0.099	-0.033
-646.755	44.779	0.356	0.329
-645.741	-85.830	0.801	0.250
-644.726	10.557	0.407	0.312
-643.711	-200.000	-0.087	0.506
-642.697	240.897	0.049	0.082
-641.682	-200.000	0.021	0.122
-640.668	-113.941	0.616	-0.120
-639.653	-82.716	-0.652	0.212
-638.638	-200.000	0.133	-0.653
-637.624	-51.429	-0.512	0.241
-636.609	-5.934	-0.414	0.285
-635.595	800.000	-0.143	0.610
-634.580	-14.280	0.417	0.270
-633.565	82.500	0.355	0.387
-632.551	-8.765	-0.370	0.250
-631.536	167.564	0.247	0.353
-630.522	233.333	0.222	0.367
-629.507	61.521	0.592	0.592
-628.492	-200.000	0.041	0.231
-627.478	-5.763	-1.110	-0.764
-626.463	-126.231	0.150	-0.022
-625.449	658.894	0.228	0.589
-624.434	361.142	-0.382	0.770
-623.419	23.031	-0.192	-0.159
-622.405	139.327	-0.536	-0.709
-621.390	71.252	-0.601	-0.626
-620.376	-68.346	-0.265	0.103
-619.361	15.932	0.310	-0.245
-618.346	395.571	-0.106	0.223
-617.332	68.152	0.433	0.446
-616.317	-200.000	-0.115	-0.629
-615.303	40.286	-0.466	0.421
-614.288	-32.048	0.495	0.278
-613.273	-13.965	-0.140	0.091
-612.259	56.738	0.254	-0.249
-611.244	185.249	-0.204	-0.304
-610.230	-5.802	0.122	-0.084
-609.215	-28.202	-0.706	0.410
-608.201	-200.000	-0.103	0.583
-607.186	43.978	-0.525	-0.483
-606.171	264.349	-0.429	-0.750
-605.157	638.225	0.091	0.232
-604.142	10.558	-0.452	0.346
-603.128	-200.000	0.040	0.209
-602.113	35.168	0.303	-0.267
-601.098	-78.068	0.202	0.070
-600.084	-200.000	0.006	-0.415
-599.069	251.447	0.269	-0.459
-598.055	-22.259	-0.487	-0.296
-597.040	-25.529	0.300	0.178
-596.025	-64.199	-0.504	0.206
-595.011	-62.358	-0.488	0.204
-593.996	-200.000	0.013	0.190
-592.982	227.381	0.283	0.462
-591.967	236.870	-0.305	0.506
-590.952	-149.362	0.397	-0.032
-589.938	800.000	-0.186	0.606
-588.923	-153.993	-0.619	0.042
-587.909	-82.266	-0.451	-0.147
-586.894	-200.000	-0.128	0.801
-585.879	-200.000	-0.076	-0.671
-584.865	93.464	0.287	0.326
-583.850	2.260	-0.665	-0.483
-582.836	-152.911	1.050	-0.074
-581.821	-108.955	0.489	0.105
-580.806	-89.950	0.419	-0.123
-579.792	-46.232	0.512	-0.252
-578.777	8.260	-0.234	0.176
-577.763	-91.422	-0.765	0.219
-576.748	-200.000	-0.015	0.253
-575.733	46.461	-0.060	-0.056
-574.719	196.057	0.337	-0.514
-573.704	62.596	-0.115	-0.116
-572.690	-200.000	-0.030	-0.207
-571.675	-200.000	-0.053	-0.243
-570.661	-56.513	0.060	0.027
-569.646	194.591	0.296	-0.451
-568.631	135.317	-0.165	0.216
-567.617	-168.914	-0.677	0.025
-566.602	101.152	-0.202	0.236
-565.588	679.592	-0.065	-0.169
-564.573	231.746	0.093	-0.153
-563.558	314.033	-0.131	0.247
-562.544	8.769	0.508	0.384
-561.529	-6.070	0.385	-0.263
-560.515	61.934	0.623	-0.623
-559.500	800.000	-0.231	-0.724
-558.485	38.155	-0.095	0.085
-557.471	-200.000	-0.051	-0.481
-556.456	-78.219	-0.685	-0.236
-555.442	764.535	-0.209	-0.569
-554.427	-200.000	-0.019	0.899
-553.412	-111.674	0.455	0.092
-552.398	-43.070	0.473	-0.240
-551.383	-142.190	0.378	-0.038
-550.369	185.343	-0.061	0.091
-549.354	-160.236	0.318	0.017
-548.339	143.177	0.222	0.296
-547.325	-50.132	-0.746	0.354
-546.310	-25.611	-0.187	-0.110
-545.296	-75.280	-0.379	0.135
-544.281	-144.851	0.666	-0.061
-543.266	163.111	-0.208	0.293
-542.252	107.513	-0.367	0.437
-541.237	-200.000	-0.007	-0.053
-540.223	-200.000	0.077	0.736
-539.208	-200.000	0.085	0.605
-538.193	132.526	0.379	0.490
-537.179	7.429	-0.276	0.207
-536.164	60.930	0.640	0.636
-535.150	-43.115	-0.605	-0.307
-534.135	-30.953	-0.431	0.244
-533.121	56.487	0.262	0.255
-532.106	-200.000	0.027	0.409
-531.091	173.237	-0.153	0.220
-530.077	94.884	-0.326	0.372
-529.062	-200.000	0.001	0.142
-528.048	85.395	-0.301	0.331
-527.033	-200.000	-0.098	0.518
-526.018	-21.188	-0.502	-0.307
-525.004	310.990	-0.387	-0.726
-523.989	-121.967	-0.483	0.079
-522.975	-38.131	-0.121	0.064
-521.960	-72.711	-0.632	0.233
-520.945	-200.000	0.093	1.130
-519.931	-30.132	0.361	0.205
-518.916	-200.000	0.137	-0.806
-517.902	-35.502	-0.396	0.215
-516.887	568.668	0.348	-0.847
-515.872	56.254	-0.062	-0.060
-514.858	-31.558	0.171	-0.096
-513.843	800.000	-0.177	-0.673
-512.829	427.568	-0.095	0.205
-511.814	164.582	-0.286	-0.404
-510.799	800.000	-0.091	-0.351
-509.785	-200.000	0.083	-0.672
-508.770	-95.015	0.410	0.111
-507.756	-48.071	0.294	-0.142
-506.741	-48.108	-0.427	-0.206
-505.726	-200.000	-0.075	-0.869
-504.712	-107.878	0.863	0.188
-503.697	-49.690	-0.519	0.247
-502.683	-200.000	-0.034	0.610
-501.668	800.000	-0.240	-0.674
-500.653	63.826	-0.991	-0.996
-499.639	5.225	-0.243	0.179
-498.624	123.242	-0.383	0.480
-497.610	-4.547	-0.462	0.319
-496.595	-88.777	0.411	-0.122
-495.581	-188.694	-0.905	-0.011
-494.566	-200.000	-0.016	-0.697
-493.551	-117.877	0.316	-0.057
-492.537	-13.537	-0.383	0.248
-491.522	-16.254	0.351	-0.223
-490.508	-200.000	-0.057	-0.286
-489.493	717.688	0.090	-0.238
-488.478	-123.009	0.573	0.092
-487.464	676.907	0.211	0.548
-486.449	97.667	0.563	0.647
-485.435	-38.572	-0.553	0.292
-484.420	149.151	0.440	0.594
-483.405	-97.394	-0.743	0.193
-482.391	-12.087	0.148	-0.097
-481.376	-200.000	0.034	0.405
-480.362	123.151	0.363	0.455
-479.347	-16.622	-0.639	0.405
-478.332	-48.416	-0.494	-0.238
-477.318	51.499	0.715	-0.679
-476.303	562.873	0.138	-0.333
-475.289	-116.479	0.316	0.058
-474.274	147.078	0.097	0.130
-473.259	-121.237	-0.365	-0.061
-472.245	149.983	-0.078	-0.105
-471.230	143.668	-0.299	0.398
-470.216	-38.828	0.546	-0.287
-469.201	-200.000	0.012	0.077
-468.186	-23.025	0.587	0.353
-467.172	144.116	0.182	0.242
-466.157	-200.000	-0.047	1.247
-465.143	-189.643	0.581	0.007
-464.128	-200.000	-0.620	0.002
-463.113	381.521	0.469	0.961
-462.099	-124.726	-0.601	0.093
-461.084	195.439	-0.365	-0.554
-460.070	46.008	0.186	-0.172
-459.055	-143.450	-0.120	0.011
-458.040	214.884	0.180	0.285
-457.026	800.000	0.204	0.838
-456.011	-0.298	0.909	-0.645
-454.997	-86.360	0.319	-0.098
-453.982	-14.527	-0.351	0.226
-452.968	50.667	0.579	0.547
-451.953	-30.649	-0.658	-0.372
-450.938	80.673	0.226	0.244
-449.924	-88.410	-0.124	-0.037
-448.909	213.568	0.326	0.514
-447.895	15.749	0.060	-0.047
-446.880	-200.000	-0.021	-0.537
-445.865	-134.969	0.454	0.055
-444.851	-89.878	-0.163	0.047
-443.836	800.000	0.096	-0.284
-442.822	510.452	-0.226	0.524
-441.807	-160.231	0.171	-0.009
-440.792	598.600	0.128	0.316
-439.778	800.000	0.268	0.931
-438.763	-57.282	0.269	0.118
-437.749	-15.219	0.372	0.238
-436.734	800.000	0.116	-0.364
-435.719	-7.115	-0.792	0.536
-434.705	-5.903	0.640	-0.437
-433.690	-200.000	-0.064	0.451
-432.676	-11.271	-0.216	-0.142
-431.661	800.000	-0.085	0.249
-430.646	-46.124	-0.584	-0.287
-429.632	-176.340	-0.378	-0.010
-428.617	-49.490	0.514	-0.244
-427.603	800.000	-0.088	0.366
-426.588	-200.000	-0.153	0.953
-425.573	-0.570	0.468	0.331
-424.559	-121.676	0.655	-0.108
-423.544	32.767	-0.557	-0.481
-422.530	220.080	-0.205	0.327
-421.515	-108.318	0.586	0.126
-420.500	-113.696	0.930	0.181
-419.486	-131.008	0.752	0.100
-418.471	162.373	-0.495	0.692
-417.457	-126.862	-0.791	0.116
-416.442	-37.930	0.555	-0.294
-415.428	-55.912	-0.862	0.383
-414.413	271.123	0.070	-0.122
-413.398	-200.000	0.051	-1.128
-412.384	618.483	0.022	0.055
-411.369	582.784	0.052	0.126
-410.355	52.051	0.596	0.566
-409.340	89.429	-0.206	0.229
-408.325	7.134	-0.582	-0.432
-407.311	800.000	-0.147	-0.549
-406.296	124.190	0.038	0.047
-405.282	5.695	-0.042	-0.031
-404.267	-200.000	0.059	0.643
-403.252	-200.000	0.109	0.542
-402.238	708.020	0.440	1.159
-401.223	-66.589	0.428	0.169
-400.209	553.533	-0.325	-0.778
-399.194	-7.003	0.562	-0.380
-398.179	-19.751	0.525	0.323
-397.165	557.091	-0.102	-0.246
-396.150	-82.236	0.572	-0.186
-395.136	800.000	-0.225	-0.680
-394.121	800.000	-0.212	-0.600
-393.106	498.302	-0.244	-0.560
-392.092	-13.400	-0.285	0.184
-391.077	-116.763	0.870	-0.159
-390.063	-10.780	-0.377	-0.248
-389.048	-80.377	-0.762	0.253
-388.033	171.481	0.133	0.191
-387.019	-78.571	-0.416	0.142
-386.004	-59.804	-0.391	-0.167
-384.990	-104.446	-0.735	-0.169
-383.975	19.043	0.254	0.202
-382.960	151.885	-0.127	-0.173
-381.946	-113.751	-1.031	-0.200
-380.931	-200.000	-0.088	0.437
-379.917	176.494	0.155	-0.224
-378.902	631.439	0.226	-0.569
-377.888	106.667	0.358	-0.423
-376.873	-200.000	0.089	0.507
-375.858	599.896	-0.180	-0.444
-374.844	-200.000	0.166	-0.773
-373.829	8.013	-0.712	-0.531
-372.815	-62.272	-0.516	-0.214
-371.800	160.344	0.330	0.458
-370.785	-66.612	0.396	0.156
-369.771	-130.954	-0.574	-0.076
-368.756	11.896	0.310	0.237
-367.742	-200.000	-0.017	-0.350
-366.727	787.874	0.218	-0.596
-365.712	-20.063	-0.084	0.052
-364.698	-81.863	0.340	-0.111
-363.683	102.634	-0.390	-0.454
-362.669	-79.412	0.552	0.186
-361.654	79.031	0.090	0.095
-360.639	-200.000	-0.129	0.776
-359.625	-35.872	-0.570	0.307
-358.610	-142.122	0.753	0.074
-357.596	338.481	0.258	-0.499
-356.581	218.938	-0.357	-0.568
-355.566	800.000	-0.170	-0.725
-354.552	-120.644	0.237	0.040
-353.537	-200.000	0.015	-0.141
-352.523	94.482	-0.274	0.310
-351.508	-122.198	-0.512	-0.083
-350.493	155.953	0.623	0.854
-349.479	45.574	0.551	-0.506
-348.464	329.662	0.349	0.667
-347.450	-200.000	-0.033	-0.148
-346.435	800.000	0.064	-0.264
-345.420	-144.112	-0.290	0.027
-344.406	-200.000	0.008	-0.164
-343.391	800.000	-0.169	0.685
-342.377	265.926	-0.143	-0.248
-341.362	800.000	-0.080	-0.290
-340.348	3.809	0.982	0.713
-339.333	-107.483	-0.691	0.150
-338.318	800.000	-0.164	0.524
-337.304	-11.843	-0.231	-0.151
-336.289	-140.926	0.388	-0.040
-335.275	-67.798	-0.816	-0.317
-334.260	-34.293	-0.525	-0.287
-333.245	800.000	-0.184	-0.506
-332.231	-133.932	0.686	0.085
-331.216	-107.114	0.783	0.172
-330.202	-200.000	0.032	0.461
-329.187	-39.903	0.262	-0.136
-328.172	110.057	0.409	0.488
-327.158	800.000	-0.226	0.954
-326.143	-12.491	0.444	-0.288
-325.129	51.593	-0.378	-0.357
-324.114	55.249	0.530	-0.509
-323.099	-200.000	0.178	-0.849
-322.085	-200.000	0.067	0.483
-321.070	71.672	0.179	0.185
-320.056	23.873	-0.435	-0.356
-319.041	395.779	-0.151	0.313
-318.026	227.722	0.330	-0.533
-317.012	146.560	-0.371	-0.495
-315.997	-114.282	0.263	-0.050
-314.983	-83.008	0.054	-0.017
-313.968	-150.872	-0.591	-0.044
-312.953	40.922	0.159	-0.142
-311.939	-177.014	-0.660	0.016
-310.924	800.000	-0.146	-0.545
-309.910	-6.377	0.794	-0.537
-308.895	-117.659	-0.385	-0.069
-307.880	172.706	0.142	0.203
-306.866	-87.467	0.718	-0.216
-305.851	-200.000	0.090	0.883
-304.837	-200.000	0.085	-0.809
-303.822	-200.000	0.012	1.061
-302.807	-47.007	0.591	0.286
-301.793	-70.112	-0.185	-0.070
-300.778	-139.994	0.262	-0.027
-299.764	-200.000	0.025	-0.522
-298.749	-200.000	0.039	0.196
-297.735	800.000	0.378	1.294
-296.720	-141.158	0.218	-0.022
-295.705	740.428	-0.274	-0.730
-294.691	-87.641	0.365	-0.109
-293.676	800.000	0.158	0.461
-292.662	-123.267	0.714	-0.113
-291.647	30.487	0.319	0.270
-290.632	-144.622	-0.380	0.035
-289.618	543.137	-0.257	-0.608
-288.603	130.552	-0.310	-0.394
-287.589	-200.000	-0.078	0.499
-286.574	-200.000	-0.060	0.428
-285.559	800.000	-0.031	-0.127
-284.545	-66.033	-0.533	-0.211
-283.530	-119.015	-1.042	0.181
-282.516	-53.242	-0.429	0.195
-281.501	-102.482	0.312	0.074
-280.486	800.000	-0.026	0.114
-279.472	800.000	-0.116	-0.360
-278.457	16.217	0.886	-0.693
-277.443	-129.477	0.782	0.107
-276.428	-26.242	-0.227	0.132
-275.413	800.000	0.052	-0.167
-274.399	-88.547	0.879	0.260
-273.384	91.359	0.285	-0.317
-272.370	33.721	0.156	0.135
-271.355	800.000	0.053	-0.229
-270.340	718.606	0.165	-0.435
-269.326	-4.499	0.810	0.555
-268.311	-12.219	0.238	0.154
-267.297	57.821	0.492	-0.477
-266.282	-67.080	0.677	-0.265
-265.267	695.714	-0.159	-0.415
-264.253	-200.000	0.006	0.156
-263.238	211.207	-0.247	-0.384
-262.224	663.885	0.313	-0.801
-261.209	800.000	0.185	-0.506
-260.195	-200.000	-0.089	-1.097
-259.180	238.543	0.093	-0.154
-258.165	-65.492	0.674	0.268
-257.151	-58.123	-0.306	-0.132
-256.136	106.839	0.172	-0.203
-255.122	367.625	0.167	-0.335
-254.107	-200.000	0.158	-1.167
-253.092	458.245	0.291	-0.642
-252.078	161.240	-0.103	-0.143
-251.063	631.215	0.023	-0.058
-250.049	597.280	-0.166	0.407
-249.034	-200.000	-0.018	-0.413
-248.019	-138.395	0.507	0.055
-247.005	310.949	0.271	-0.502
-245.990	86.471	0.531	0.580
-244.976	45.051	-0.752	-0.686
-243.961	-200.000	-0.113	-1.257
-242.946	113.079	0.243	0.292
-241.932	581.380	-0.108	0.262
-240.917	-184.973	0.129	-0.002
-239.903	114.358	0.792	-0.955
-238.888	-149.456	-0.285	0.022
-237.873	800.000	-0.180	-0.554
-236.859	-88.586	-0.828	0.244
-235.844	670.383	-0.004	-0.011
-234.830	-80.734	-0.438	-0.144
-233.815	255.440	-0.145	0.247
-232.800	-116.615	0.656	-0.119
-231.786	60.339	0.664	0.650
-230.771	-80.841	0.413	-0.136
-229.757	103.103	-0.573	-0.664
-228.742	-200.000	0.131	0.630
-227.727	-30.760	-0.615	0.345
-226.713	-35.871	0.084	0.045
-225.698	800.000	0.141	0.393
-224.684	-100.351	0.711	0.175
-223.669	800.000	-0.114	-0.320
-222.655	763.234	0.152	0.407
-221.640	-80.306	0.405	0.134
-220.625	-34.972	0.160	0.087
-219.611	-106.214	0.578	0.128
-218.596	-129.402	-0.970	0.133
-217.582	-41.859	-0.161	-0.081
-216.567	-125.353	0.880	-0.133
-215.552	672.476	0.195	0.501
-214.538	-88.551	-0.444	0.131
-213.523	-127.527	0.711	-0.102
-212.509	152.338	-0.232	0.313
-211.494	60.546	-0.316	0.310
-210.479	-32.713	-0.379	-0.209
-209.465	-200.000	-0.030	-0.201
-208.450	-6.048	-0.395	0.267
-207.436	43.869	-0.542	0.491
-206.421	-69.479	0.506	0.192
-205.406	2.920	0.180	-0.129
-204.392	-79.216	0.583	-0.195
-203.377	57.302	-0.227	-0.219
-202.363	120.023	0.054	-0.067
-201.348	-124.072	-0.761	0.118
-200.333	-74.918	-0.455	0.161
-199.319	-92.402	0.308	0.086
-198.304	-73.104	-0.305	-0.111
-197.290	144.621	-0.352	0.464
-196.275	253.880	-0.202	0.340
-195.260	20.065	-0.393	-0.313
-194.246	709.989	-0.078	0.203
-193.231	-14.495	-0.131	0.083
-192.217	48.551	-0.340	-0.315
-191.202	-54.978	0.280	0.125
-190.187	-63.046	0.378	-0.154
-189.173	309.202	-0.291	-0.538
-188.158	-200.000	-0.021	1.041
-187.144	407.147	0.136	0.285
-186.129	-53.081	-1.054	0.479
-185.114	-16.881	0.366	-0.229
-184.100	-173.339	0.557	-0.017
-183.085	242.588	-0.445	0.737
-182.071	800.000	-0.174	-0.688
-181.056	-76.515	-0.839	0.291
-180.042	59.943	-0.617	-0.602
-179.027	-123.913	0.843	-0.131
-178.012	171.936	0.145	-0.205
-176.998	-200.000	-0.104	-0.582
-175.983	105.274	-0.143	-0.167
-174.969	-200.000	0.008	-0.468
-173.954	54.888	0.249	0.237
-172.939	2.529	-0.318	0.227
-171.925	-200.000	-0.087	-0.613
-170.910	-130.174	0.506	0.068
-169.896	192.267	-0.124	-0.185
-168.881	-46.773	-0.057	-0.028
-167.866	7.945	-0.383	-0.283
-166.852	162.071	-0.426	-0.589
-165.837	800.000	0.149	-0.608
-164.823	16.904	-0.116	-0.091
-163.808	312.211	-0.262	0.485
-162.793	95.129	-0.273	-0.307
-161.779	309.159	-0.312	0.575
-160.764	33.357	0.491	0.421
-159.750	-200.000	-0.009	0.354
-158.735	-162.256	0.549	-0.027
-157.720	-200.000	-0.070	-0.572
-156.706	108.274	0.551	-0.649
-155.691	800.000	-0.197	0.577
-154.677	195.318	-0.502	-0.752
-153.662	78.067	0.347	0.365
-152.647	-89.748	-0.602	-0.174
-151.633	-121.054	-0.439	0.073
-150.618	152.165	-0.097	-0.131
-149.604	-190.349	0.166	-0.002
-148.589	-95.198	0.436	-0.116
-147.574	800.000	0.104	-0.437
-146.560	30.833	0.305	0.258
-145.545	37.594	0.333	-0.292
-144.531	-200.000	0.026	0.132
-143.516	16.494	0.827	-0.644
-142.502	575.510	-0.239	-0.575
-141.487	442.392	-0.120	0.260
-140.472	800.000	0.089	0.289
-139.458	613.738	-0.134	0.330
-138.443	209.701	-0.394	0.608
-137.429	-200.000	-0.015	0.196
-136.414	436.780	-0.039	0.084
-135.399	76.012	0.175	-0.183
-134.385	66.001	-0.652	-0.652
-133.370	706.368	-0.131	-0.340
-132.356	430.621	-0.219	0.468
-131.341	521.120	-0.187	-0.432
-130.326	-140.978	-0.529	-0.054
-129.312	-84.521	0.882	0.274
-128.297	255.977	-0.208	-0.351
-127.283	36.975	0.570	-0.497
-126.268	320.695	-0.212	0.397
-125.253	-88.973	-0.779	0.227
-124.239	5.644	-0.196	-0.143
-123.224	-15.343	0.766	0.483
-122.210	800.000	-0.119	-0.450
-121.195	-42.512	-0.400	-0.201
-120.180	149.305	0.355	0.474
-119.166	-1.807	-0.196	-0.136
-118.151	800.000	-0.111	0.413
-117.137	-104.330	0.576	0.132
-116.122	60.597	-0.419	-0.409
-115.107	-72.464	-0.550	0.200
-114.093	-200.000	-0.027	-0.833
-113.078	-89.150	0.439	-0.128
-112.064	309.516	-0.198	0.364
-111.049	122.673	-0.478	-0.588
-110.034	-149.796	-0.517	0.040
-109.020	198.056	0.337	0.507
-108.005	-143.771	-0.962	-0.090
-106.991	-28.224	0.133	-0.076
-105.976	-108.486	-0.570	-0.121
-104.962	-81.828	-0.820	0.264
-103.947	48.488	-0.507	0.468
-102.932	-200.000	0.023	-0.276
-101.918	50.477	0.447	-0.416
-100.903	-200.000	0.089	-0.439
-99.889	182.500	0.217	-0.315
-98.874	-52.412	-0.236	-0.108
-97.859	6.268	0.593	0.433
-96.845	-13.423	0.700	0.447
-95.830	-200.000	-0.106	-0.622
-94.816	-147.350	-0.776	0.065
-93.801	-162.033	-0.714	0.035
-92.786	114.136	0.196	0.235
-91.772	290.299	-0.144	-0.257
-90.757	800.000	-0.154	0.448
-89.743	-200.000	0.005	0.422
-88.728	305.343	0.328	-0.600
-87.713	457.038	0.282	-0.617
-86.699	379.457	0.475	-0.958
-85.684	438.509	0.112	0.241
-84.670	-131.449	-0.758	0.099
-83.655	100.438	-0.383	0.438
-82.640	608.152	-0.109	0.267
-81.626	-77.866	0.543	0.184
-80.611	103.376	0.774	0.893
-79.597	264.134	0.160	0.274
-78.582	747.083	0.108	0.287
-77.567	-200.000	0.063	-0.606
-76.553	-120.643	0.430	0.072
-75.538	61.181	-0.311	-0.304
-74.524	-74.907	-0.512	-0.180
-73.509	1.062	-0.518	0.366
-72.494	95.941	0.333	-0.375
-71.480	-8.824	0.602	0.397
-70.465	36.250	-0.326	-0.283
-69.451	-200.000	0.045	0.843
-68.436	-175.557	0.705	0.019
-67.422	114.260	0.534	0.640
-66.407	-108.861	-0.433	-0.091
-65.392	-200.000	0.157	1.036
-64.378	31.411	-0.450	0.380
-63.363	377.521	-0.214	0.431
-62.349	159.437	-0.204	0.279
-61.334	141.678	-0.914	-1.190
-60.319	3.052	0.781	-0.558
-59.305	800.000	-0.360	-1.086
-58.290	21.303	1.049	0.838
-57.276	800.000	0.497	1.542
-56.261	-200.000	97.771	607.378
-55.246	614.571	1380.170	3398.544
-54.232	199.040	2550.832	3840.537
-53.217	116.736	2143.135	2584.628
-52.203	42.233	1687.499	1506.613
-51.188	34.738	1500.648	1289.397
-50.173	32.673	1472.549	1251.504
-49.159	53.271	1527.832	1438.428
-48.144	53.787	1546.091	1459.060
-47.130	34.817	1504.412	1292.954
-46.115	31.858	1488.550	1259.432
-45.100	31.530	1484.801	1254.011
-44.086	31.628	1483.062	1253.147
-43.071	31.662	1480.456	1251.125
-42.057	31.757	1478.316	1249.899
-41.042	31.608	1478.102	1248.675
-40.027	31.610	1476.532	1247.313
-39.013	31.592	1475.196	1246.018
-37.998	31.534	1473.737	1244.345
-36.984	31.628	1471.675	1243.179
-35.969	31.409	1470.991	1241.103
-34.954	31.431	1469.944	1240.314
-33.940	31.395	1469.454	1239.611
-32.925	31.500	1467.775	1238.842
-31.911	31.502	1466.137	1237.426
-30.896	31.764	1464.281	1237.539
-29.881	31.811	1462.680	1236.448
-28.867	31.662	1462.616	1235.364
-27.852	31.749	1461.137	1234.634
-26.838	31.581	1460.465	1232.910
-25.823	31.734	1457.166	1231.085
-24.809	31.835	1455.398	1230.208
-23.794	31.371	1456.110	1227.711
-22.779	31.711	1452.964	1227.240
-21.765	31.714	1452.587	1226.892
-20.750	31.467	1452.273	1224.959
-19.736	31.793	1449.876	1225.020
-18.721	31.520	1449.877	1223.186
-17.706	31.373	1448.781	1221.253
-16.692	31.589	1447.326	1221.388
-15.677	31.545	1445.850	1219.809
-14.663	31.448	1444.679	1218.136
-13.648	31.380	1444.849	1217.789
-12.633	31.415	1442.974	1216.392
-11.619	31.470	1442.057	1215.924
-10.604	31.502	1441.645	1215.741
-9.590	31.709	1439.622	1215.328
-8.575	31.427	1440.747	1214.396
-7.560	31.636	1438.724	1213.997
-6.546	31.596	1437.229	1212.434
-5.531	31.561	1437.161	1212.098
-4.517	31.504	1436.108	1210.791
-3.502	31.404	1434.988	1209.153
-2.487	31.597	1433.597	1209.184
-1.473	31.786	1431.555	1208.627
-0.458	31.709	1430.658	1207.327
0.556	32.574	1422.226	1194.839
1.571	29.617	1396.488	1154.663
2.586	25.917	1338.923	1084.748
3.600	24.324	1259.428	1011.230
4.615	22.942	1213.049	966.354
5.629	19.659	1158.003	905.249
6.644	11.222	1073.649	798.077
7.659	4.512	1033.864	736.706
8.673	3.403	1028.779	727.782
9.688	3.301	1024.684	724.343
10.702	3.483	1023.481	724.283
11.717	3.454	1021.242	722.498
12.731	6.201	1024.709	737.787
13.746	14.912	1036.296	787.235
14.761	22.374	1045.383	829.373
15.775	24.111	1047.180	838.914
16.790	23.676	1046.089	835.920
17.804	23.212	1045.194	832.946
18.819	22.571	1044.275	829.124
19.834	22.997	1042.509	829.649
20.848	22.703	1042.306	828.034
21.863	22.916	1041.469	828.297
22.877	23.022	1042.291	829.374
23.892	22.507	1041.613	826.344
24.907	22.772	1039.685	825.981
25.921	22.463	1040.069	824.766
26.936	22.011	1038.701	821.498
27.950	22.430	1037.391	822.345
28.965	22.212	1036.359	820.438
29.980	22.167	1034.925	819.022
30.994	22.383	1034.419	819.551
32.009	22.647	1032.779	819.410
33.023	22.579	1033.039	819.225
34.038	22.441	1031.701	817.450
35.053	22.624	1031.658	818.196
36.067	22.610	1030.006	816.748
37.082	22.246	1029.372	814.484
38.096	22.585	1027.532	814.526
39.111	22.674	1027.389	814.751
40.126	22.691	1026.761	814.260
41.140	22.779	1025.215	813.365
42.155	22.056	1025.114	809.882
43.169	21.864	1022.873	807.157
44.184	21.565	1021.701	804.784
45.199	21.629	1020.959	804.426
46.213	21.598	1021.375	804.538
47.228	21.817	1020.294	804.621
48.242	22.238	1019.405	805.779
49.257	22.276	1019.195	805.717
50.271	22.567	1017.602	805.715
51.286	22.543	1017.015	805.069
52.301	23.013	1016.148	806.456
53.315	23.136	1015.521	806.450
54.330	22.720	1014.855	803.951
55.344	22.348	1014.131	801.613
56.359	22.213	1013.319	800.288
57.374	22.462	1012.176	800.447
58.388	22.209	1012.274	799.300
59.403	22.195	1010.500	797.767
60.417	21.938	1009.832	796.002
61.432	22.003	1009.676	796.103
62.447	22.038	1008.845	795.538
63.461	21.585	1009.598	794.007
64.476	21.854	1007.374	793.404
65.490	21.711	1006.846	792.272
66.505	21.461	1006.101	790.486
67.520	21.588	1005.768	790.725
68.534	21.991	1004.538	791.507
69.549	21.830	1003.429	789.838
70.563	21.688	1001.672	787.749
71.578	21.537	1001.274	786.688
72.593	21.322	1000.279	784.872
73.607	21.324	998.814	783.659
74.622	20.952	998.520	781.691
75.636	21.284	997.398	782.230
76.651	21.301	995.963	781.113
77.666	21.386	996.293	781.681
78.680	21.648	994.903	781.692
79.695	21.398	995.073	780.639
80.709	21.636	993.763	780.607
81.724	21.333	993.821	779.231
82.739	21.876	992.577	780.605
83.753	22.075	991.541	780.606
84.768	22.162	991.523	780.905
85.782	22.716	991.477	783.263
86.797	23.168	991.344	785.092
87.812	23.178	991.101	784.876
88.826	22.793	990.878	782.921
89.841	22.805	989.042	781.458
90.855	22.727	988.530	780.636
91.870	22.845	987.277	780.099
92.884	22.882	987.885	780.676
93.899	22.968	985.232	778.890
94.914	22.906	984.925	778.305
95.928	22.641	984.623	776.829
96.943	22.944	983.116	776.904
97.957	22.868	982.147	775.735
98.972	22.609	980.833	773.495
99.987	22.689	980.850	773.789
101.001	22.777	979.937	773.387
102.016	22.932	979.376	773.552
103.030	22.571	978.563	771.263
104.045	22.598	978.149	770.986
105.060	22.664	976.832	770.168
106.074	22.625	976.792	769.898
107.089	22.667	974.398	768.126
108.103	22.531	972.747	766.164
109.118	22.349	972.642	765.225
110.133	22.027	971.682	763.004
111.147	21.260	970.952	759.030
112.162	21.780	969.502	760.083
113.176	21.574	969.082	758.795
114.191	21.782	968.387	759.085
115.206	21.632	968.579	758.518
116.220	21.365	967.749	756.645
117.235	21.676	966.475	756.928
118.249	21.655	964.887	755.525
119.264	21.609	964.919	755.286
120.279	21.766	962.012	753.618
121.293	21.480	962.545	752.738
122.308	21.147	962.183	750.956
123.322	21.143	961.397	750.258
124.337	21.524	958.906	749.884
125.352	21.186	958.368	747.945
126.366	21.158	957.454	747.048
127.381	21.101	956.898	746.305
128.395	21.086	956.308	745.716
129.410	21.581	955.076	746.798
130.424	21.637	954.320	746.381
131.439	21.669	953.476	745.792
132.454	21.601	952.750	744.869
133.468	21.917	952.313	745.806
134.483	21.732	951.993	744.703
135.497	21.794	951.350	744.397
136.512	21.934	950.648	744.373
137.527	21.907	949.830	743.553
138.541	22.192	948.612	743.740
139.556	22.091	948.513	743.170
140.570	22.226	947.605	742.965
141.585	22.286	947.704	743.227
142.600	22.552	946.653	743.463
143.614	22.674	945.726	743.179
144.629	22.848	945.362	743.564
145.643	22.909	945.148	743.585
146.658	22.614	944.933	742.110
147.673	22.663	942.122	740.040
148.687	22.246	940.918	737.280
149.702	21.900	939.837	734.918
150.716	21.917	939.245	734.465
151.731	21.990	937.991	733.721
152.746	22.097	938.048	734.150
153.760	22.057	937.905	733.804
154.775	22.491	936.197	734.212
155.789	22.462	935.535	733.511
156.804	22.651	935.086	733.880
157.819	22.293	933.803	731.319
158.833	22.221	934.374	731.400
159.848	22.529	932.545	731.182
160.862	22.887	932.044	732.212
161.877	22.888	931.242	731.520
162.892	22.347	930.324	728.495
163.906	22.011	928.950	725.968
164.921	21.936	928.167	724.979
165.935	22.018	927.557	724.779
166.950	22.216	925.740	724.109
167.964	22.280	925.282	723.950
168.979	22.362	924.671	723.745
169.994	22.211	923.201	721.912
171.008	22.343	922.141	721.560
172.023	22.071	921.800	720.114
173.037	22.566	921.065	721.502
174.052	22.977	919.807	722.135
175.067	22.556	919.705	720.268
176.081	22.191	919.022	718.181
177.096	22.192	917.188	716.690
178.110	21.606	916.885	714.000
179.125	21.724	916.282	713.948
180.140	21.790	915.423	713.481
181.154	22.103	913.959	713.550
182.169	22.387	913.778	714.500
183.183	22.504	913.729	714.872
184.198	22.763	913.030	715.311
185.213	22.003	913.925	712.865
186.227	22.254	912.549	712.748
187.242	22.497	912.016	713.252
188.256	22.658	911.181	713.187
189.271	22.435	910.681	711.829
190.286	22.871	910.203	713.152
191.300	22.431	909.709	710.930
192.315	22.049	907.426	707.543
193.329	21.600	906.282	704.781
194.344	21.705	905.390	704.445
195.359	21.923	905.653	705.466
196.373	22.190	905.291	706.194
197.388	22.009	905.964	705.931
198.402	22.483	905.009	707.028
199.417	22.755	905.687	708.586
200.432	22.763	905.037	708.046
201.446	23.003	903.862	708.024
202.461	23.188	903.885	708.723
203.475	23.377	903.050	708.762
204.490	22.866	902.492	706.218
205.504	22.700	900.598	704.008
206.519	22.702	899.653	703.218
207.534	22.668	899.531	702.925
208.548	22.277	899.318	701.138
209.563	22.586	898.406	701.595
210.577	22.563	897.707	700.895
211.592	22.531	897.253	700.350
212.607	22.918	897.685	702.165
213.621	23.257	896.324	702.385
214.636	23.099	895.524	701.066
215.650	22.535	895.036	698.390
216.665	22.527	894.647	697.993
217.680	22.935	893.920	698.977
218.694	22.870	894.075	698.781
219.709	22.759	893.835	698.091
220.723	22.918	892.810	697.858
221.738	22.708	891.200	695.708
222.753	22.779	890.576	695.438
223.767	22.577	890.361	694.414
224.782	22.582	890.603	694.560
225.796	22.754	889.041	693.961
226.811	22.944	888.971	694.588
227.826	22.591	888.958	693.128
228.840	22.343	888.340	691.612
229.855	22.339	886.753	690.298
230.869	22.520	885.011	689.591
231.884	22.426	883.752	688.183
232.899	22.396	884.572	688.642
233.913	22.430	883.251	687.684
234.928	22.426	883.199	687.568
235.942	22.372	881.367	685.871
236.957	21.661	882.111	683.617
237.972	21.927	880.399	683.263
238.986	22.082	880.168	683.629
240.001	22.090	880.075	683.526
241.015	21.920	878.999	681.968
242.030	22.164	878.082	682.143
243.045	22.383	877.791	682.707
244.059	22.394	877.304	682.311
245.074	22.191	877.581	681.680
246.088	22.582	876.484	682.282
247.103	22.630	876.179	682.167
248.117	22.757	875.890	682.376
249.132	23.237	875.736	684.051
250.147	23.313	874.607	683.398
251.161	23.920	875.149	686.105
252.176	23.980	874.916	686.093
253.190	23.711	874.003	684.280
254.205	24.050	872.820	684.599
255.220	24.253	872.287	684.898
256.234	24.086	871.475	683.560
257.249	23.853	870.702	681.998
258.263	23.700	871.515	681.986
259.278	23.677	869.396	680.181
260.293	23.363	870.047	679.429
261.307	23.783	868.759	679.968
262.322	23.949	868.949	680.691
263.336	23.982	868.304	680.253
264.351	23.580	868.246	678.611
265.366	23.647	866.939	677.784
266.380	23.877	865.858	677.756
267.395	23.678	866.520	677.457
268.409	23.371	865.509	675.433
269.424	23.550	864.372	675.169
270.439	23.778	862.940	674.856
271.453	23.715	863.332	674.865
272.468	23.502	861.476	672.548
273.482	23.584	860.874	672.326
274.497	23.465	861.308	672.154
275.512	23.472	860.261	671.305
276.526	23.257	859.361	669.733
277.541	23.587	858.636	670.352
278.555	23.651	858.473	670.407
279.570	23.698	858.799	670.781
280.585	23.850	858.213	670.839
281.599	24.001	857.181	670.543
282.614	23.863	856.573	669.485
283.628	23.216	856.661	667.059
284.643	23.412	854.822	666.306
285.657	23.216	854.785	665.481
286.672	22.950	854.120	663.905
287.687	23.293	854.154	665.162
288.701	23.607	853.643	665.882
289.716	23.538	853.215	665.230
290.730	23.366	851.813	663.433
291.745	23.344	852.165	663.570
292.760	23.598	851.363	663.833
293.774	23.599	850.406	663.035
294.789	23.909	850.357	664.094
295.803	23.991	850.237	664.247
296.818	23.473	850.214	662.236
297.833	23.732	847.610	661.114
298.847	23.523	846.541	659.446
299.862	23.321	847.728	659.558
300.876	23.501	846.301	659.061
301.891	23.739	845.351	659.146
302.906	24.102	845.371	660.451
303.920	24.243	844.307	660.081
304.935	24.479	843.724	660.441
305.949	24.555	844.091	660.951
306.964	24.045	843.991	658.924
307.979	23.749	842.440	656.565
308.993	24.046	841.170	656.613
310.008	24.092	841.449	656.940
311.022	23.945	841.418	656.314
312.037	24.236	840.283	656.446
313.052	23.853	840.148	654.869
314.066	23.334	839.643	652.507
315.081	23.246	837.785	650.681
316.095	23.473	836.960	650.817
317.110	23.287	836.895	650.026
318.125	23.354	835.992	649.515
319.139	23.444	835.189	649.160
320.154	23.192	834.420	647.586
321.168	22.824	834.327	646.109
322.183	23.314	834.080	647.652
323.197	23.351	834.387	647.967
324.212	23.453	833.451	647.556
325.227	23.132	834.008	646.761
326.241	23.567	832.498	647.119
327.256	22.918	831.790	644.144
328.270	23.220	832.147	645.466
329.285	22.992	831.070	643.743
330.300	23.159	829.706	643.235
331.314	23.242	828.830	642.801
332.329	22.967	829.138	641.984
333.343	23.253	828.996	642.858
334.358	23.852	828.713	644.754
335.373	23.752	827.374	643.293
336.387	24.094	826.923	644.121
337.402	23.841	826.525	642.840
338.416	23.938	826.033	642.754
339.431	24.090	825.992	643.212
340.446	24.585	826.019	644.963
341.460	24.577	825.301	644.318
342.475	24.667	825.034	644.378
343.489	24.562	824.388	643.437
344.504	24.813	823.036	643.226
345.519	24.914	823.520	643.910
346.533	25.109	822.790	643.983
347.548	24.909	822.154	642.713
348.562	24.706	821.698	641.571
349.577	24.133	820.894	638.832
350.592	23.913	820.145	637.402
351.606	24.236	819.151	637.731
352.621	24.103	818.656	636.812
353.635	23.655	818.875	635.324
354.650	24.072	817.499	635.689
355.665	23.891	817.375	634.890
356.679	23.660	817.177	633.855
357.694	23.526	818.538	634.376
358.708	23.646	817.208	633.716
359.723	24.050	815.309	633.627
360.738	24.022	815.137	633.338
361.752	23.951	814.696	632.688
362.767	24.081	814.514	632.951
363.781	24.365	813.619	633.210
364.796	24.827	813.766	634.908
365.810	24.780	813.856	634.752
366.825	24.624	814.132	634.357
367.840	24.931	812.916	634.445
368.854	24.879	811.947	633.448
369.869	24.366	811.829	631.481
370.883	24.444	811.409	631.377
371.898	24.206	810.690	629.921
372.913	24.660	809.550	630.579
373.927	25.073	808.577	631.223
374.942	25.224	808.272	631.461
375.956	24.562	807.826	628.727
376.971	24.642	807.328	628.565
377.986	25.115	806.788	629.751
379.000	25.110	807.364	630.126
380.015	25.048	806.744	629.368
381.029	24.782	807.044	628.613
382.044	24.999	805.436	628.066
383.059	24.923	804.854	627.288
384.073	25.315	803.878	627.843
385.088	25.103	803.593	626.826
386.102	24.573	801.943	623.635
387.117	23.994	802.652	622.106
388.132	24.118	801.025	621.222
389.146	24.124	801.187	621.314
390.161	24.136	800.874	621.056
391.175	24.642	799.883	621.994
392.190	24.981	800.487	623.592
393.205	24.772	799.807	622.280
394.219	24.526	798.217	620.132
395.234	24.234	797.902	618.821
396.248	23.515	798.078	616.405
397.263	24.118	797.343	617.876
398.278	24.173	796.896	617.665
399.292	23.597	797.286	615.912
400.307	23.591	796.229	615.023
401.321	23.288	796.044	613.773
402.336	23.781	794.805	614.469
403.350	23.830	795.084	614.800
404.365	24.180	794.588	615.573
405.380	25.043	794.348	618.311
406.394	25.052	794.732	618.587
407.409	25.529	793.867	619.504
408.423	25.310	793.661	618.531
409.438	25.315	793.469	618.345
410.453	25.319	792.540	617.579
411.467	25.510	791.836	617.632
412.482	25.261	791.388	616.375
413.496	25.087	791.717	615.976
414.511	25.153	791.158	615.715
415.526	25.249	790.849	615.749
416.540	25.378	790.339	615.741
417.555	25.578	789.264	615.534
418.569	25.070	789.170	613.668
419.584	25.366	787.828	613.581
420.599	25.154	788.095	613.009
421.613	161.394	1369.319	1794.133
422.628	139.753	1453.958	1794.200
