DTS Sentinel unit serial number:	SN413079Multiplexer serial number:	ORYXHardware model number:	OX4-SRSoftware version number:	ORYX F/W v4.00 Oryx Data Collector v3.7.2.0data status	okinstallation	princeton_trtdifferential loss correction	single-endedforward channel	channel 3reverse channel	N/Adate	2019/09/13time	22:00:34forward acquisition time	60.00reverse acquisition time	0.00gamma	496.2192k internal	0.2335k external	0.2335temperature offset calibration	1.0059default loss term (dB/km)	0.3790temperature slope calibration	1.0000multiplexer offset coefficient	1.0000multiplexer slope coefficient	1.0000fibre end	0.00T internal ref (°C)	28.00T ext. ref 1 (°C)	3.19T ext. ref 2 (°C)	22.75length (m)	temperature (°C)	Stokes	anti-Stokes-747.200	-95.648	0.204	0.055
-746.185	118.670	-0.147	0.182
-745.171	800.000	0.105	0.337
-744.156	34.391	0.072	-0.063
-743.142	38.804	-0.183	0.164
-742.127	-28.602	-0.342	0.198
-741.112	-200.000	-0.041	-0.383
-740.098	297.645	-0.081	0.149
-739.083	709.019	0.106	0.280
-738.069	-145.504	-0.439	0.040
-737.054	-200.000	-0.012	0.229
-736.039	475.616	0.018	0.040
-735.025	-68.249	0.293	0.115
-734.010	-48.890	-0.387	-0.186
-732.996	800.000	-0.079	-0.342
-731.981	-10.942	-0.052	0.035
-730.966	-131.302	-0.029	-0.004
-729.952	-45.332	-0.202	0.101
-728.937	-200.000	-0.000	-0.005
-727.923	800.000	-0.040	0.120
-726.908	-120.925	0.125	-0.021
-725.894	-137.121	0.158	0.018
-724.879	489.211	0.118	0.270
-723.864	-114.173	-0.020	-0.004
-722.850	483.173	-0.142	-0.324
-721.835	725.758	0.098	0.262
-720.821	15.587	-0.077	-0.061
-719.806	85.037	0.214	-0.236
-718.791	-200.000	0.010	-0.336
-717.777	-3.299	-0.193	0.135
-716.762	-136.804	-0.012	0.001
-715.748	203.658	0.090	-0.140
-714.733	468.394	-0.113	0.256
-713.718	12.646	0.117	0.090
-712.704	-189.703	0.195	0.002
-711.689	27.727	0.125	-0.106
-710.675	-49.695	-0.087	0.042
-709.660	-104.835	-0.270	0.062
-708.645	-26.483	0.166	-0.098
-707.631	535.172	-0.143	-0.340
-706.616	-143.851	-0.521	-0.049
-705.602	-176.090	0.189	-0.005
-704.587	2.492	-0.179	0.130
-703.572	-200.000	-0.018	0.146
-702.558	357.288	0.112	-0.224
-701.543	41.103	-0.037	-0.034
-700.529	-177.169	-0.440	0.011
-699.514	-200.000	0.012	-0.437
-698.499	-97.093	0.062	-0.016
-697.485	252.379	-0.062	-0.106
-696.470	800.000	-0.193	-0.538
-695.456	-96.512	-0.131	0.035
-694.441	27.395	-0.099	-0.083
-693.426	-68.087	-0.333	0.130
-692.412	-37.409	-0.122	0.065
-691.397	35.351	-0.078	-0.069
-690.383	36.574	-0.311	0.275
-689.368	20.440	-0.097	-0.078
-688.354	362.676	0.042	0.085
-687.339	508.819	0.170	-0.396
-686.324	641.800	-0.061	0.156
-685.310	80.285	-0.062	0.067
-684.295	-124.952	-0.269	0.042
-683.281	104.867	0.289	0.342
-682.266	28.174	0.212	-0.179
-681.251	318.738	-0.065	0.124
-680.237	-133.225	0.144	0.018
-679.222	-156.319	-0.169	-0.011
-678.208	-200.000	0.025	0.189
-677.193	-200.000	-0.012	0.276
-676.178	-31.607	-0.099	0.056
-675.164	769.037	0.065	0.179
-674.149	800.000	-0.029	-0.114
-673.135	-67.372	0.244	-0.096
-672.120	446.512	0.070	-0.155
-671.105	122.804	-0.290	-0.363
-670.091	-56.483	-0.400	0.178
-669.076	-145.752	-0.389	0.035
-668.062	241.694	-0.116	-0.195
-667.047	142.940	-0.171	0.228
-666.032	-25.142	0.163	-0.097
-665.018	-190.589	0.390	0.004
-664.003	646.825	-0.097	0.249
-662.989	-102.323	0.355	-0.085
-661.974	645.499	-0.239	-0.611
-660.959	289.393	-0.193	-0.350
-659.945	-14.060	-0.141	-0.091
-658.930	-38.452	-0.191	0.101
-657.916	178.726	-0.188	0.275
-656.901	-121.815	-0.267	-0.044
-655.886	544.438	-0.044	-0.105
-654.872	-152.291	0.073	-0.005
-653.857	-105.676	-0.082	0.019
-652.843	208.468	-0.067	0.105
-651.828	47.497	0.115	-0.108
-650.814	242.641	-0.086	-0.144
-649.799	-116.643	-0.148	0.027
-648.784	-3.799	-0.175	-0.122
-647.770	-124.831	-0.158	0.024
-646.755	138.039	-0.110	-0.144
-645.741	-121.237	-0.121	-0.020
-644.726	570.046	-0.059	-0.145
-643.711	-94.460	-0.077	-0.021
-642.697	-146.893	-0.199	-0.017
-641.682	88.588	0.267	-0.297
-640.668	-61.164	0.193	-0.082
-639.653	6.421	0.095	0.071
-638.638	-124.442	0.212	0.033
-637.624	-200.000	0.045	0.445
-636.609	-97.274	-0.142	0.037
-635.595	-47.634	-0.315	-0.153
-634.580	64.691	0.077	0.078
-633.565	-113.572	0.161	0.031
-632.551	17.133	-0.352	-0.279
-631.536	-200.000	0.027	-0.336
-630.522	-200.000	-0.015	-0.100
-629.507	68.239	0.282	0.289
-628.492	-144.273	-0.590	-0.055
-627.478	800.000	0.030	0.096
-626.463	230.055	-0.098	-0.161
-625.449	-116.258	-0.083	-0.015
-624.434	-73.513	-0.405	0.148
-623.419	8.246	-0.084	-0.063
-622.405	-200.000	0.012	-0.142
-621.390	10.538	-0.127	-0.097
-620.376	-81.781	-0.248	0.081
-619.361	197.589	0.237	0.361
-618.346	44.792	-0.093	0.085
-617.332	-130.583	0.211	0.028
-616.317	257.462	-0.114	0.196
-615.303	-200.000	-0.056	-0.320
-614.288	538.360	-0.080	0.190
-613.273	16.532	0.150	-0.119
-612.259	17.925	0.181	-0.144
-611.244	-132.458	0.326	0.042
-610.230	12.512	0.350	-0.270
-609.215	3.464	0.047	0.034
-608.201	134.992	-0.147	-0.191
-607.186	-134.793	0.340	0.041
-606.171	200.371	0.070	-0.108
-605.157	83.498	-0.174	-0.190
-604.142	800.000	0.066	-0.260
-603.128	-153.870	0.149	-0.010
-602.113	-82.408	-0.224	0.073
-601.098	-20.650	0.104	-0.064
-600.084	33.652	-0.118	-0.103
-599.069	-40.075	-0.402	0.209
-598.055	209.649	0.033	0.052
-597.040	-123.227	-0.085	0.014
-596.025	-6.576	0.068	0.046
-595.011	114.150	0.163	0.198
-593.996	-102.137	-0.190	0.046
-592.982	141.144	-0.206	0.273
-591.967	-50.224	0.275	-0.130
-590.952	-200.000	-0.064	-0.278
-589.938	800.000	0.061	-0.193
-588.923	293.724	-0.079	-0.145
-587.909	160.513	-0.143	0.199
-586.894	71.004	-0.033	-0.034
-585.879	-200.000	0.012	0.307
-584.865	602.751	0.028	0.070
-583.850	15.661	-0.099	0.078
-582.836	-40.305	0.410	0.213
-581.821	-102.468	-0.108	0.026
-580.806	800.000	0.020	-0.074
-579.792	496.753	-0.146	0.335
-578.777	185.086	0.156	0.231
-577.763	-200.000	0.021	-0.222
-576.748	-53.102	0.190	-0.087
-575.733	220.473	-0.201	-0.322
-574.719	-14.343	-0.265	-0.170
-573.704	800.000	-0.027	-0.075
-572.690	-200.000	-0.031	-0.231
-571.675	-126.993	0.177	0.026
-570.661	235.902	-0.238	-0.393
-569.646	-100.283	0.188	0.046
-568.631	-200.000	0.002	-0.280
-567.617	293.335	0.105	-0.191
-566.602	-56.366	-0.267	-0.118
-565.588	9.649	0.121	-0.091
-564.573	800.000	-0.055	0.182
-563.558	-200.000	0.004	-0.068
-562.544	-12.958	-0.065	0.042
-561.529	269.477	0.087	-0.153
-560.515	-61.722	-0.183	0.076
-559.500	-83.870	0.018	-0.006
-558.485	-39.022	-0.118	-0.062
-557.471	-200.000	0.046	0.263
-556.456	-200.000	-0.007	-0.113
-555.442	-143.670	0.047	-0.004
-554.427	800.000	-0.065	-0.251
-553.412	133.710	0.111	0.143
-552.398	148.836	0.133	-0.179
-551.383	800.000	-0.108	0.359
-550.369	-200.000	0.046	0.322
-549.354	5.250	0.031	0.023
-548.339	27.044	0.143	0.120
-547.325	42.681	0.037	-0.033
-546.310	-76.415	-0.118	-0.041
-545.296	-77.778	0.218	0.075
-544.281	119.586	0.189	-0.233
-543.266	800.000	0.040	-0.147
-542.252	27.508	-0.255	-0.213
-541.237	17.647	-0.273	0.216
-540.223	-200.000	-0.011	-0.336
-539.208	-92.095	-0.349	-0.098
-538.193	21.488	-0.397	0.322
-537.179	504.510	0.096	0.221
-536.164	213.828	0.138	0.218
-535.150	7.021	0.169	0.126
-534.135	177.330	0.098	-0.142
-533.121	800.000	0.098	-0.281
-532.106	-78.597	-0.345	-0.118
-531.091	800.000	0.071	0.304
-530.077	30.648	0.101	0.086
-529.062	-200.000	-0.004	0.183
-528.048	214.015	0.183	-0.289
-527.033	-200.000	-0.103	-0.502
-526.018	-200.000	-0.025	0.302
-525.004	-200.000	0.022	-0.284
-523.989	77.317	0.208	-0.220
-522.975	-27.507	-0.243	-0.140
-521.960	-200.000	-0.058	0.385
-520.945	-155.570	-0.193	0.012
-519.931	-200.000	-0.014	-0.165
-518.916	120.060	-0.165	0.204
-517.902	-85.442	0.262	0.081
-516.887	764.647	-0.026	-0.070
-515.872	342.319	-0.115	0.225
-514.858	-41.182	0.314	0.161
-513.843	-200.000	-0.012	-0.058
-512.829	48.570	-0.208	0.194
-511.814	-167.621	-0.101	-0.004
-510.799	-128.467	0.259	-0.037
-509.785	-62.498	-0.176	-0.073
-508.770	-167.855	-0.211	-0.008
-507.756	-200.000	-0.061	0.451
-506.741	-53.131	-0.269	-0.123
-505.726	-185.976	0.049	-0.001
-504.712	11.242	0.178	0.136
-503.697	800.000	-0.025	-0.069
-502.683	505.830	0.117	0.270
-501.668	-42.131	0.107	-0.054
-500.653	29.448	0.096	-0.081
-499.639	33.478	-0.144	-0.124
-498.624	-57.956	0.129	0.056
-497.610	-7.965	-0.033	0.022
-496.595	-200.000	0.054	0.286
-495.581	-200.000	-0.007	0.150
-494.566	3.307	-0.123	-0.089
-493.551	-200.000	0.073	-0.371
-492.537	800.000	0.139	-0.468
-491.522	20.748	0.091	-0.074
-490.508	-21.580	-0.260	0.158
-489.493	800.000	-0.070	0.250
-488.478	800.000	0.098	0.353
-487.464	-200.000	0.004	-0.029
-486.449	-200.000	0.038	-0.375
-485.435	361.745	0.064	0.128
-484.420	169.996	-0.115	-0.164
-483.405	-200.000	0.036	0.194
-482.391	-189.560	-0.176	-0.002
-481.376	181.539	-0.023	0.033
-480.362	-39.212	-0.061	0.032
-479.347	24.115	0.098	-0.080
-478.332	109.504	-0.063	-0.075
-477.318	-109.358	-0.051	-0.011
-476.303	603.266	-0.013	-0.031
-475.289	-138.340	-0.069	-0.008
-474.274	99.568	-0.178	-0.204
-473.259	-37.507	-0.204	-0.108
-472.245	-191.255	-0.311	0.003
-471.230	-0.475	0.077	0.054
-470.216	-91.737	0.076	-0.022
-469.201	-121.561	0.383	-0.063
-468.186	36.394	-0.157	0.138
-467.172	263.735	0.083	-0.143
-466.157	-200.000	0.023	-0.110
-465.143	-200.000	-0.044	-0.369
-464.128	47.118	0.062	0.057
-463.113	-66.165	0.192	0.076
-462.099	418.307	0.087	0.185
-461.084	800.000	-0.062	0.215
-460.070	-200.000	-0.014	0.300
-459.055	800.000	0.058	-0.160
-458.040	-151.266	0.421	-0.031
-457.026	-2.787	-0.073	-0.051
-456.011	753.602	0.067	-0.179
-454.997	-53.039	0.158	0.072
-453.982	-200.000	0.049	-0.279
-452.968	433.650	-0.125	0.269
-451.953	23.184	0.246	-0.201
-450.938	80.405	0.154	-0.165
-449.924	-110.515	-0.320	0.066
-448.909	-39.626	0.236	-0.123
-447.895	-30.023	-0.218	-0.123
-446.880	366.887	0.097	0.193
-445.865	7.569	0.148	0.110
-444.851	-200.000	0.028	-0.135
-443.836	-200.000	-0.047	0.298
-442.822	-199.193	-0.312	0.002
-441.807	194.932	-0.108	-0.163
-440.792	120.900	0.176	0.218
-439.778	144.514	-0.308	-0.409
-438.763	-56.227	0.337	0.149
-437.749	-30.840	0.070	0.039
-436.734	41.133	-0.318	-0.285
-435.719	-95.063	-0.046	-0.012
-434.705	363.614	-0.159	0.317
-433.690	677.684	0.110	-0.283
-432.676	-28.259	-0.175	0.100
-431.661	800.000	0.082	0.251
-430.646	-200.000	-0.003	-0.081
-429.632	-200.000	-0.000	0.231
-428.617	72.265	0.173	0.179
-427.603	-59.390	-0.258	0.110
-426.588	40.980	0.469	0.420
-425.573	92.097	-0.327	0.365
-424.559	-44.764	-0.118	0.058
-423.544	-11.443	0.320	-0.209
-422.530	-119.062	0.079	-0.014
-421.515	-71.292	0.208	-0.077
-420.500	800.000	0.101	-0.305
-419.486	-110.964	0.282	0.058
-418.471	179.782	0.146	0.212
-417.457	800.000	0.066	-0.282
-416.442	-92.639	-0.252	-0.070
-415.428	-97.684	-0.127	0.033
-414.413	-71.206	0.132	0.049
-413.398	-200.000	-0.003	0.155
-412.384	800.000	0.075	-0.245
-411.369	259.196	-0.067	0.115
-410.355	34.270	-0.166	0.143
-409.340	-69.422	0.271	0.103
-408.325	776.237	0.034	0.092
-407.311	-54.651	0.078	0.035
-406.296	186.577	-0.124	-0.184
-405.282	-25.970	-0.034	-0.020
-404.267	624.786	-0.080	-0.199
-403.252	180.095	-0.234	-0.340
-402.238	-4.015	-0.171	-0.117
-401.223	-200.000	0.000	-0.059
-400.209	-16.642	0.096	0.060
-399.194	-105.213	-0.347	-0.079
-398.179	800.000	-0.015	0.052
-397.165	194.864	0.032	0.049
-396.150	-200.000	-0.018	-0.224
-395.136	32.707	0.302	-0.259
-394.121	51.825	-0.172	0.162
-393.106	-192.061	-0.150	-0.001
-392.092	800.000	0.078	0.227
-391.077	-27.006	0.145	0.084
-390.063	-200.000	0.018	0.089
-389.048	-181.245	0.202	-0.004
-388.033	-170.303	-0.239	0.008
-387.019	180.344	0.105	0.153
-386.004	-79.807	-0.352	-0.117
-384.990	63.626	0.026	-0.025
-383.975	800.000	0.033	-0.111
-382.960	-200.000	-0.033	-0.248
-381.946	800.000	-0.032	-0.105
-380.931	424.374	-0.036	0.076
-379.917	-103.811	-0.315	-0.073
-378.902	-200.000	-0.007	-0.067
-377.888	-200.000	-0.017	0.165
-376.873	8.567	-0.201	-0.150
-375.858	457.532	0.029	0.065
-374.844	174.626	0.124	0.178
-373.829	-6.166	-0.118	-0.080
-372.815	-129.934	0.395	0.054
-371.800	-200.000	0.010	0.158
-370.785	734.856	-0.240	0.638
-369.771	15.007	0.069	-0.054
-368.756	247.613	0.039	0.066
-367.742	-67.288	-0.342	-0.133
-366.727	-88.302	-0.294	0.087
-365.712	800.000	0.080	0.290
-364.698	-127.151	0.084	-0.012
-363.683	169.064	-0.122	-0.173
-362.669	-17.451	-0.020	0.013
-361.654	-200.000	0.020	-0.104
-360.639	194.415	-0.078	0.117
-359.625	-62.924	-0.143	-0.059
-358.610	-38.683	0.259	0.135
-357.596	-45.864	-0.148	0.073
-356.581	-57.359	0.068	0.030
-355.566	-200.000	0.065	-0.308
-354.552	344.351	-0.084	0.163
-353.537	800.000	0.043	0.154
-352.523	108.407	0.172	0.203
-351.508	-200.000	0.001	-0.015
-350.493	-200.000	-0.019	0.275
-349.479	577.849	0.132	0.320
-348.464	157.347	0.132	-0.181
-347.450	467.777	0.083	-0.184
-346.435	367.394	0.162	0.324
-345.420	-200.000	-0.024	-0.282
-344.406	-200.000	-0.017	-0.235
-343.391	-200.000	-0.065	-0.532
-342.377	-100.879	0.172	-0.042
-341.362	-35.437	-0.165	0.089
-340.348	-155.435	0.270	-0.017
-339.333	-200.000	0.167	-0.000
-338.318	772.332	0.119	-0.320
-337.304	-155.914	-0.082	-0.005
-336.289	800.000	0.057	-0.193
-335.275	-57.576	-0.236	-0.102
-334.260	-123.653	0.166	0.026
-333.245	-121.915	-0.130	0.021
-332.231	800.000	0.075	-0.303
-331.216	235.943	-0.004	-0.006
-330.202	74.078	-0.136	-0.141
-329.187	305.253	-0.089	-0.163
-328.172	-124.973	-0.263	0.040
-327.158	-0.969	-0.062	-0.043
-326.143	-51.832	-0.251	-0.115
-325.129	-200.000	-0.069	-0.339
-324.114	800.000	0.066	0.286
-323.099	800.000	0.023	-0.076
-322.085	162.367	0.064	-0.088
-321.070	-200.000	-0.003	-0.093
-320.056	-36.254	0.065	0.035
-319.041	317.822	-0.125	0.235
-318.026	-154.204	-0.164	-0.011
-317.012	108.051	-0.175	-0.206
-315.997	167.208	0.121	0.169
-314.983	334.492	0.229	0.438
-313.968	-33.110	-0.329	-0.180
-312.953	-101.387	0.255	-0.062
-311.939	415.710	-0.089	0.187
-310.924	-200.000	-0.004	-0.199
-309.910	800.000	0.013	-0.037
-308.895	-35.991	0.294	-0.157
-307.880	454.952	-0.040	0.087
-306.866	800.000	-0.060	0.192
-305.851	-168.697	-0.370	0.014
-304.837	109.815	0.128	0.152
-303.822	9.648	0.287	0.215
-302.807	-200.000	-0.010	-0.224
-301.793	-200.000	-0.028	0.194
-300.778	-168.631	-0.134	-0.005
-299.764	-86.493	0.130	-0.039
-298.749	800.000	0.029	-0.083
-297.735	126.382	0.204	0.255
-296.720	800.000	0.042	0.125
-295.705	35.727	0.135	0.117
-294.691	7.935	0.146	0.108
-293.676	800.000	-0.005	-0.019
-292.662	-49.027	-0.251	0.119
-291.647	287.091	-0.056	0.100
-290.632	230.659	-0.206	-0.332
-289.618	90.533	0.114	0.126
-288.603	-200.000	0.024	0.187
-287.589	-65.982	0.170	0.067
-286.574	-200.000	0.001	-0.150
-285.559	-42.207	0.344	0.173
-284.545	800.000	-0.070	-0.196
-283.530	25.922	-0.125	-0.103
-282.516	-200.000	-0.074	0.456
-281.501	-11.409	0.129	-0.083
-280.486	-53.944	-0.205	-0.092
-279.472	-200.000	0.076	-0.351
-278.457	150.287	-0.075	-0.101
-277.443	-200.000	0.057	0.306
-276.428	-200.000	-0.009	-0.311
-275.413	-200.000	-0.028	-0.219
-274.399	-163.560	0.333	-0.016
-273.384	74.252	0.120	-0.124
-272.370	-200.000	-0.003	0.052
-271.355	800.000	0.029	-0.098
-270.340	-46.116	0.065	0.031
-269.326	-92.595	0.247	0.068
-268.311	57.296	0.038	0.037
-267.297	-43.279	-0.121	0.061
-266.282	152.889	0.243	0.328
-265.267	-110.021	-0.181	0.037
-264.253	45.325	-0.107	0.097
-263.238	378.944	-0.023	-0.047
-262.224	-200.000	0.010	0.310
-261.209	-200.000	-0.068	0.323
-260.195	501.454	-0.128	0.292
-259.180	800.000	0.029	0.117
-258.165	-171.798	0.125	0.004
-257.151	287.331	-0.160	0.285
-256.136	800.000	0.023	-0.081
-255.122	-45.428	-0.065	-0.032
-254.107	71.143	0.328	0.335
-253.092	-200.000	0.008	0.117
-252.078	1.498	-0.259	0.184
-251.063	172.896	0.125	0.178
-250.049	295.356	0.139	0.251
-249.034	303.834	0.019	0.034
-248.019	-112.822	0.259	-0.051
-247.005	800.000	0.076	-0.237
-245.990	577.592	-0.046	0.110
-244.976	74.536	0.048	0.050
-243.961	459.538	-0.070	0.153
-242.946	142.210	0.326	0.427
-241.932	-70.572	0.099	-0.037
-240.917	800.000	0.035	0.130
-239.903	90.351	0.176	-0.194
-238.888	-200.000	-0.069	-0.450
-237.873	130.977	0.020	-0.025
-236.859	-13.140	0.049	0.031
-235.844	-46.492	-0.182	0.088
-234.830	800.000	-0.005	-0.017
-233.815	-183.576	-0.439	0.007
-232.800	140.249	0.171	0.223
-231.786	67.046	-0.128	0.129
-230.771	-94.365	-0.037	0.010
-229.757	800.000	0.055	0.234
-228.742	21.402	-0.200	0.160
-227.727	-134.773	0.199	0.024
-226.713	-66.974	-0.106	-0.041
-225.698	-200.000	-0.045	0.437
-224.684	800.000	0.043	-0.134
-223.669	4.448	0.092	0.066
-222.655	-15.525	-0.147	-0.092
-221.640	-73.169	0.185	0.067
-220.625	-200.000	-0.001	0.077
-219.611	-200.000	0.019	0.233
-218.596	-70.076	0.261	-0.098
-217.582	-47.594	0.162	0.077
-216.567	111.228	-0.209	-0.248
-215.552	85.083	-0.162	-0.175
-214.538	-52.786	-0.153	0.069
-213.523	231.896	-0.227	0.367
-212.509	-178.498	-0.191	0.004
-211.494	-200.000	-0.041	0.278
-210.479	55.615	0.296	-0.282
-209.465	-200.000	0.055	-0.486
-208.450	87.979	0.147	-0.160
-207.436	276.881	-0.121	-0.212
-206.421	457.217	0.024	-0.053
-205.406	279.224	0.174	-0.306
-204.392	-200.000	-0.024	-0.121
-203.377	75.844	-0.081	-0.084
-202.363	-164.210	0.220	0.010
-201.348	-7.801	0.236	-0.157
-200.333	-176.707	0.152	-0.004
-199.319	-111.970	0.246	0.049
-198.304	-200.000	-0.031	-0.270
-197.290	-46.348	0.186	-0.090
-196.275	323.684	0.087	-0.163
-195.260	418.433	-0.086	0.182
-194.246	-53.706	-0.298	-0.134
-193.231	68.745	-0.253	-0.255
-192.217	107.631	0.233	-0.273
-191.202	800.000	-0.082	-0.273
-190.187	800.000	0.024	-0.097
-189.173	-80.364	0.243	0.080
-188.158	79.385	-0.135	-0.142
-187.144	380.973	-0.110	0.222
-186.129	518.379	-0.085	0.196
-185.114	56.617	-0.073	-0.070
-184.100	-31.627	0.293	-0.161
-183.085	-11.093	0.035	-0.023
-182.071	371.102	0.223	0.444
-181.056	155.086	-0.164	-0.222
-180.042	-13.158	0.183	0.117
-179.027	-1.774	0.191	-0.132
-178.012	-31.609	-0.230	-0.127
-176.998	-93.320	0.356	0.097
-175.983	-200.000	0.010	-0.058
-174.969	800.000	-0.028	0.113
-173.954	-195.627	-0.173	0.001
-172.939	800.000	0.063	-0.229
-171.925	49.833	-0.214	-0.199
-170.910	-23.702	0.296	0.174
-169.896	-176.736	-0.419	-0.010
-168.881	-22.845	-0.288	0.171
-167.866	341.970	-0.061	0.117
-166.852	-28.838	0.156	-0.088
-165.837	-200.000	-0.043	-0.247
-164.823	-200.000	0.053	-0.294
-163.808	95.336	0.147	-0.164
-162.793	-200.000	-0.073	0.400
-161.779	70.761	-0.062	0.063
-160.764	-38.122	0.131	-0.068
-159.750	-72.089	0.373	0.136
-158.735	-173.655	-0.324	0.010
-157.720	-152.364	-0.028	0.002
-156.706	800.000	0.070	-0.195
-155.691	-129.945	0.280	0.038
-154.677	-56.940	-0.120	0.052
-153.662	800.000	-0.044	0.182
-152.647	-11.278	0.185	0.120
-151.633	-200.000	0.031	0.340
-150.618	311.234	-0.252	-0.463
-149.604	-109.444	0.125	-0.026
-148.589	-200.000	-0.022	-0.308
-147.574	77.317	-0.164	-0.171
-146.560	297.508	-0.158	0.284
-145.545	-166.968	-0.267	0.011
-144.531	-115.589	-0.353	-0.065
-143.516	573.079	-0.068	-0.164
-142.502	428.344	0.160	0.338
-141.487	3.114	0.286	0.204
-140.472	233.828	-0.035	-0.057
-139.458	-34.811	-0.303	-0.162
-138.443	63.296	-0.374	-0.368
-137.429	-124.324	-0.192	0.029
-136.414	18.129	0.198	-0.155
-135.399	-200.000	0.005	-0.047
-134.385	318.373	0.243	0.452
-133.370	-200.000	0.136	-0.620
-132.356	-88.386	0.301	0.088
-131.341	-87.672	0.047	0.014
-130.326	-110.722	0.277	-0.056
-129.312	-2.872	0.178	-0.122
-128.297	243.408	-0.043	0.072
-127.283	-119.739	-0.278	0.047
-126.268	192.220	-0.048	0.071
-125.253	-77.357	0.189	0.064
-124.239	83.662	0.203	-0.217
-123.224	274.728	0.042	0.073
-122.210	353.102	0.126	0.244
-121.195	-200.000	-0.008	0.091
-120.180	800.000	-0.089	0.310
-119.166	380.438	0.086	0.173
-118.151	800.000	0.058	-0.179
-117.137	-200.000	-0.038	-0.229
-116.122	-10.841	0.238	-0.154
-115.107	-100.790	-0.294	-0.071
-114.093	25.460	0.321	-0.262
-113.078	377.897	0.053	-0.106
-112.064	-52.174	-0.376	0.171
-111.049	15.394	-0.187	-0.144
-110.034	-200.000	-0.018	0.189
-109.020	800.000	-0.093	-0.262
-108.005	-132.028	0.241	0.031
-106.991	555.560	0.112	0.264
-105.976	800.000	0.049	-0.154
-104.962	-31.287	-0.047	-0.026
-103.947	245.150	0.134	0.221
-102.932	-30.638	-0.128	0.071
-101.918	242.640	-0.087	-0.143
-100.903	-24.291	0.331	-0.193
-99.889	261.209	0.025	0.042
-98.874	-118.578	-0.333	0.058
-97.859	-200.000	-0.052	0.360
-96.845	-64.562	-0.115	0.046
-95.830	-200.000	0.053	-0.332
-94.816	-200.000	0.025	-0.124
-93.801	-70.732	0.354	-0.131
-92.786	393.162	0.130	0.265
-91.772	-46.761	-0.384	0.184
-90.757	-200.000	0.003	-0.158
-89.743	-167.582	0.171	-0.007
-88.728	-200.000	0.037	0.341
-87.713	-61.946	0.076	0.031
-86.699	-11.040	0.197	0.128
-85.684	679.051	-0.045	-0.113
-84.670	20.734	0.102	0.081
-83.655	10.325	0.231	0.172
-82.640	121.823	0.188	-0.230
-81.626	168.419	0.193	-0.269
-80.611	139.273	-0.142	0.182
-79.597	800.000	-0.077	-0.233
-78.582	-79.798	0.097	0.032
-77.567	115.479	-0.086	-0.103
-76.553	-200.000	-0.014	-0.071
-75.538	-32.540	0.267	-0.145
-74.524	-200.000	0.034	-0.399
-73.509	-48.299	0.111	-0.052
-72.494	704.260	-0.043	-0.110
-71.480	-200.000	-0.063	-0.347
-70.465	800.000	0.098	0.282
-69.451	266.214	0.153	0.261
-68.436	-129.548	0.245	-0.033
-67.422	51.381	0.048	-0.045
-66.407	23.970	-0.185	0.149
-65.392	-36.380	-0.167	0.088
-64.378	-48.226	-0.413	0.195
-63.363	-200.000	-0.013	0.171
-62.349	106.788	-0.259	0.300
-61.334	103.464	-0.964	-1.106
-60.319	56.858	0.626	0.597
-59.305	800.000	-0.419	-1.201
-58.290	496.592	0.552	1.242
-57.276	800.000	0.463	1.405
-56.261	-200.000	113.940	663.278
-55.246	556.689	1514.138	3567.902
-54.232	180.416	2677.467	3841.624
-53.217	111.555	2168.058	2557.381
-52.203	38.681	1698.547	1482.082
-51.188	31.254	1517.458	1273.601
-50.173	28.806	1493.000	1236.568
-49.159	53.181	1551.015	1452.337
-48.144	52.058	1566.596	1459.185
-47.130	31.352	1522.935	1278.662
-46.115	28.274	1508.515	1245.604
-45.100	28.049	1505.008	1241.132
-44.086	28.101	1502.843	1239.650
-43.071	28.004	1501.228	1237.611
-42.057	28.035	1499.313	1236.190
-41.042	28.110	1497.577	1235.219
-40.027	28.028	1496.082	1233.384
-39.013	27.926	1495.230	1231.948
-37.998	27.936	1493.670	1230.681
-36.984	28.033	1492.334	1230.183
-35.969	27.998	1491.269	1229.022
-34.954	27.980	1489.817	1227.654
-33.940	27.950	1488.538	1226.352
-32.925	27.930	1486.887	1224.804
-31.911	28.028	1485.436	1224.215
-30.896	27.977	1484.709	1223.233
-29.881	28.021	1483.348	1222.352
-28.867	28.068	1481.824	1221.361
-27.852	28.042	1481.104	1220.547
-26.838	28.158	1479.338	1219.821
-25.823	28.027	1478.062	1217.843
-24.809	28.106	1475.732	1216.401
-23.794	27.954	1474.932	1214.686
-22.779	28.065	1473.966	1214.576
-21.765	27.959	1473.118	1213.124
-20.750	27.991	1472.068	1212.423
-19.736	27.998	1471.239	1211.742
-18.721	28.026	1469.200	1210.197
-17.706	27.967	1468.664	1209.322
-16.692	28.016	1467.505	1208.643
-15.677	28.005	1466.371	1207.588
-14.663	28.037	1465.093	1206.694
-13.648	28.015	1463.920	1205.540
-12.633	28.036	1463.231	1205.064
-11.619	27.996	1462.837	1204.423
-10.604	27.961	1462.031	1203.487
-9.590	27.933	1461.015	1202.416
-8.575	27.970	1459.805	1201.613
-7.560	28.032	1458.833	1201.176
-6.546	28.069	1458.087	1200.757
-5.531	28.029	1457.218	1199.730
-4.517	27.975	1456.779	1198.963
-3.502	27.995	1455.625	1198.097
-2.487	27.922	1454.615	1196.746
-1.473	28.061	1453.255	1196.484
-0.458	27.953	1452.170	1194.841
0.556	28.312	1442.058	1183.615
1.571	25.137	1417.058	1142.791
2.586	21.571	1354.943	1070.829
3.600	19.950	1270.914	995.022
4.615	18.651	1226.713	953.124
5.629	16.178	1169.859	895.752
6.644	9.160	1089.116	799.048
7.659	3.924	1051.582	746.240
8.673	3.259	1045.665	738.784
9.688	3.122	1042.537	735.853
10.702	3.087	1041.488	734.884
11.717	3.293	1038.977	734.025
12.731	5.148	1040.586	743.948
13.746	12.130	1050.202	784.242
14.761	18.350	1058.912	820.573
15.775	19.836	1059.927	828.409
16.790	19.484	1057.701	824.917
17.804	18.523	1055.676	818.677
18.819	17.472	1054.403	812.599
19.834	17.194	1053.059	810.170
20.848	17.029	1051.825	808.361
21.863	16.884	1051.397	807.272
22.877	16.638	1050.825	805.589
23.892	16.645	1049.711	804.698
24.907	16.469	1049.092	803.313
25.921	16.337	1048.680	802.303
26.936	16.345	1047.896	801.666
27.950	16.300	1046.777	800.529
28.965	16.445	1045.386	800.079
29.980	16.588	1044.431	799.954
30.994	16.681	1043.173	799.362
32.009	16.765	1042.446	799.128
33.023	16.798	1042.274	799.081
34.038	16.830	1041.323	798.434
35.053	16.793	1039.888	797.086
36.067	16.723	1038.973	795.984
37.082	16.534	1038.011	794.293
38.096	16.630	1037.895	794.582
39.111	16.730	1036.655	794.032
40.126	16.766	1035.680	793.384
41.140	16.643	1034.513	791.844
42.155	16.519	1033.212	790.199
43.169	16.258	1032.982	788.734
44.184	16.215	1031.445	787.289
45.199	16.244	1030.235	786.431
46.213	16.178	1029.317	785.354
47.228	16.233	1028.676	785.051
48.242	16.487	1027.612	785.348
49.257	16.524	1026.903	784.911
50.271	16.531	1026.258	784.379
51.286	16.653	1024.803	783.764
52.301	16.615	1024.326	783.156
53.315	16.675	1023.586	782.797
54.330	16.531	1022.836	781.486
55.344	16.416	1021.688	780.011
56.359	16.398	1020.659	779.073
57.374	16.282	1020.068	778.017
58.388	16.369	1019.244	777.724
59.403	16.269	1018.062	776.290
60.417	16.193	1017.530	775.466
61.432	16.167	1016.841	774.757
62.447	16.168	1016.164	774.173
63.461	16.304	1015.144	773.953
64.476	16.141	1014.266	772.470
65.490	15.960	1013.421	770.930
66.505	15.990	1012.738	770.476
67.520	16.106	1011.626	770.091
68.534	16.161	1010.970	769.776
69.549	16.062	1010.689	769.043
70.563	16.105	1009.671	768.395
71.578	16.124	1009.074	767.962
72.593	16.131	1007.643	766.836
73.607	16.034	1006.683	765.595
74.622	15.949	1006.172	764.753
75.636	15.997	1005.078	764.073
76.651	16.017	1004.205	763.430
77.666	16.066	1003.765	763.254
78.680	16.082	1003.029	762.696
79.695	16.162	1002.373	762.492
80.709	16.229	1001.606	762.142
81.724	16.073	1001.245	761.097
82.739	16.378	1000.189	761.603
83.753	16.236	1000.032	760.778
84.768	16.465	999.124	761.048
85.782	16.650	998.558	761.383
86.797	16.821	997.719	761.445
87.812	16.860	996.896	760.923
88.826	16.616	996.010	759.084
89.841	16.597	995.324	758.412
90.855	16.621	994.400	757.746
91.870	16.675	993.861	757.511
92.884	16.813	993.584	757.850
93.899	16.670	993.048	756.736
94.914	16.765	991.778	756.124
95.928	16.845	991.332	756.075
96.943	16.792	990.159	754.878
97.957	16.747	989.438	754.059
98.972	16.659	988.878	753.176
99.987	16.762	987.678	752.653
101.001	16.789	987.524	752.589
102.016	16.676	986.662	751.362
103.030	16.750	985.146	750.470
104.045	16.716	984.676	749.893
105.060	16.677	983.572	748.815
106.074	16.690	982.606	748.072
107.089	16.450	981.464	746.076
108.103	16.365	980.740	745.083
109.118	16.215	979.828	743.664
110.133	16.167	978.841	742.641
111.147	16.159	977.871	741.802
112.162	16.148	976.833	740.899
113.176	16.260	975.933	740.643
114.191	16.242	975.502	740.172
115.206	16.393	974.881	740.299
116.220	16.408	973.979	739.614
117.235	16.388	972.722	738.504
118.249	16.196	972.605	737.513
119.264	16.302	971.169	736.818
120.279	16.201	970.740	735.988
121.293	16.262	969.491	735.243
122.308	16.075	969.111	734.076
123.322	16.123	967.862	733.272
124.337	16.027	966.926	732.081
125.352	15.974	965.854	730.975
126.366	16.090	964.745	730.575
127.381	16.038	963.556	729.386
128.395	15.993	962.599	728.399
129.410	16.039	962.028	728.103
130.424	16.175	961.184	727.985
131.439	16.139	960.600	727.325
132.454	16.332	959.261	727.077
133.468	16.258	958.551	726.155
134.483	16.342	958.005	726.039
135.497	16.390	957.394	725.716
136.512	16.258	957.145	724.899
137.527	16.370	956.280	724.658
138.541	16.273	955.417	723.526
139.556	16.299	954.521	722.896
140.570	16.331	954.126	722.669
141.585	16.502	953.226	722.656
142.600	16.596	952.816	722.681
143.614	16.636	951.862	722.063
144.629	16.606	951.500	721.600
145.643	16.856	950.671	721.970
146.658	16.770	949.550	720.688
147.673	16.602	948.993	719.489
148.687	16.520	947.442	717.903
149.702	16.378	947.124	716.992
150.716	16.329	946.323	716.117
151.731	16.253	945.582	715.168
152.746	16.455	944.049	714.801
153.760	16.388	943.486	714.030
154.775	16.412	943.013	713.708
155.789	16.555	942.251	713.675
156.804	16.623	942.106	713.785
157.819	16.661	940.827	712.913
158.833	16.671	940.013	712.277
159.848	16.653	939.707	711.906
160.862	16.800	939.263	712.124
161.877	16.829	938.458	711.571
162.892	16.494	937.490	709.370
163.906	16.373	936.550	708.089
164.921	16.349	935.828	707.382
165.935	16.487	934.422	706.834
166.950	16.519	933.691	706.352
167.964	16.703	932.294	705.997
168.979	16.603	931.674	705.049
169.994	16.603	930.651	704.212
171.008	16.548	929.584	703.115
172.023	16.565	928.987	702.672
173.037	16.527	928.475	702.066
174.052	16.894	928.131	703.265
175.067	16.714	927.301	701.829
176.081	16.587	926.132	700.356
177.096	16.469	925.054	698.992
178.110	16.445	924.248	698.219
179.125	16.574	923.625	698.222
180.140	16.615	922.546	697.510
181.154	16.630	922.157	697.217
182.169	16.653	922.050	697.169
183.183	16.793	921.503	697.272
184.198	16.850	920.850	696.949
185.213	16.916	920.082	696.578
186.227	16.968	918.975	695.892
187.242	16.859	918.936	695.355
188.256	16.990	918.121	695.213
189.271	17.182	916.821	694.951
190.286	17.109	916.589	694.416
191.300	16.817	915.729	692.511
192.315	16.624	914.694	690.875
193.329	16.383	914.075	689.365
194.344	16.404	913.159	688.698
195.359	16.578	912.947	689.188
196.373	16.612	912.460	688.899
197.388	16.727	911.937	688.910
198.402	16.925	911.448	689.284
199.417	17.033	911.163	689.446
200.432	17.112	910.419	689.142
201.446	17.284	910.611	689.925
202.461	17.276	910.142	689.475
203.475	17.463	909.615	689.773
204.490	17.398	908.606	688.685
205.504	17.269	907.175	687.018
206.519	17.123	906.566	685.908
207.534	17.057	906.120	685.242
208.548	17.102	905.026	684.534
209.563	16.871	904.864	683.420
210.577	16.961	903.992	683.065
211.592	16.981	903.171	682.462
212.607	17.215	902.886	683.128
213.621	17.347	902.533	683.334
214.636	17.260	901.917	682.456
215.650	17.164	900.727	681.110
216.665	17.191	900.756	681.179
217.680	17.400	899.705	681.163
218.694	17.414	899.708	681.160
219.709	17.267	899.496	680.352
220.723	17.376	898.603	680.051
221.738	17.303	897.921	679.185
222.753	17.348	897.110	678.687
223.767	17.343	896.032	677.792
224.782	17.390	895.277	677.350
225.796	17.560	894.852	677.645
226.811	17.522	894.560	677.214
227.826	17.425	893.783	676.178
228.840	17.497	892.505	675.439
229.855	17.280	892.190	674.280
230.869	17.322	891.580	673.924
231.884	17.450	890.630	673.653
232.899	17.307	890.197	672.702
233.913	17.197	889.390	671.598
234.928	17.190	888.407	670.766
235.942	17.194	888.112	670.502
236.957	17.016	887.288	669.118
237.972	17.113	886.831	669.095
238.986	17.305	885.565	668.839
240.001	17.135	885.510	668.069
241.015	17.148	885.078	667.733
242.030	17.314	884.052	667.553
243.045	17.345	883.442	667.154
244.059	17.527	882.780	667.310
245.074	17.431	882.096	666.359
246.088	17.401	882.005	666.110
247.103	17.515	881.052	665.777
248.117	17.588	880.676	665.720
249.132	17.662	880.363	665.716
250.147	17.871	880.253	666.388
251.161	17.960	879.299	665.955
252.176	18.184	878.673	666.296
253.190	18.036	878.174	665.280
254.205	18.148	877.509	665.153
255.220	18.272	876.767	665.013
256.234	18.255	876.015	664.319
257.249	18.172	874.989	663.163
258.263	18.130	875.184	663.088
259.278	18.224	874.518	662.889
260.293	18.167	874.170	662.345
261.307	18.167	873.493	661.774
262.322	18.310	873.100	661.969
263.336	18.273	872.282	661.150
264.351	18.201	871.636	660.324
265.366	18.329	871.124	660.371
266.380	18.310	870.490	659.758
267.395	18.220	870.062	659.029
268.409	18.281	868.908	658.330
269.424	18.187	868.058	657.267
270.439	18.154	867.731	656.835
271.453	18.209	866.979	656.417
272.468	18.088	866.428	655.477
273.482	18.081	865.749	654.880
274.497	18.157	864.972	654.524
275.512	18.116	864.208	653.734
276.526	18.095	863.559	653.104
277.541	18.101	863.142	652.753
278.555	18.194	862.511	652.573
279.570	18.336	861.648	652.405
280.585	18.501	861.576	652.921
281.599	18.428	861.023	652.164
282.614	18.491	859.931	651.521
283.628	18.349	859.653	650.710
284.643	18.302	859.092	650.053
285.657	18.272	858.812	649.669
286.672	18.308	858.070	649.184
287.687	18.239	857.699	648.587
288.701	18.167	857.387	648.020
289.716	18.559	856.287	648.614
290.730	18.243	856.219	647.310
291.745	18.437	855.116	647.150
292.760	18.358	854.509	646.337
293.774	18.462	853.917	646.226
294.789	18.621	853.898	646.752
295.803	18.504	853.258	645.771
296.818	18.424	852.682	644.976
297.833	18.498	851.582	644.363
298.847	18.271	850.934	642.963
299.862	18.441	850.667	643.345
300.876	18.513	849.751	642.862
301.891	18.620	849.030	642.664
302.906	18.533	848.953	642.223
303.920	18.618	848.143	641.868
304.935	18.835	847.451	642.101
305.949	18.913	847.281	642.206
306.964	18.783	846.569	641.125
307.979	18.777	845.670	640.366
308.993	18.757	845.180	639.862
310.008	18.767	844.758	639.525
311.022	18.716	844.785	639.298
312.037	18.784	843.829	638.771
313.052	18.709	842.886	637.721
314.066	18.603	842.270	636.807
315.081	18.597	841.631	636.245
316.095	18.511	841.041	635.424
317.110	18.573	840.659	635.307
318.125	18.431	840.389	634.521
319.139	18.507	839.749	634.264
320.154	18.594	839.378	634.248
321.168	18.474	838.709	633.244
322.183	18.862	837.358	633.598
323.197	18.658	837.430	632.845
324.212	18.731	836.821	632.597
325.227	18.803	836.555	632.607
326.241	18.576	836.195	631.443
327.256	18.648	835.135	630.850
328.270	18.700	834.775	630.713
329.285	18.716	834.201	630.282
330.300	18.686	833.761	629.785
331.314	18.643	832.888	628.912
332.329	18.672	832.337	628.545
333.343	18.657	832.132	628.280
334.358	18.876	831.576	628.607
335.373	18.870	830.918	628.033
336.387	18.858	830.378	627.523
337.402	18.973	829.951	627.564
338.416	19.034	829.283	627.228
339.431	18.933	828.851	626.478
340.446	19.316	828.321	627.415
341.460	19.406	827.648	627.177
342.475	19.389	827.204	626.723
343.489	19.487	826.556	626.533
344.504	19.332	826.626	625.966
345.519	19.512	825.831	625.964
346.533	19.428	825.394	625.274
347.548	19.436	824.998	624.944
348.562	19.330	824.494	624.126
349.577	19.209	823.422	622.820
350.592	19.000	822.818	621.553
351.606	19.056	822.342	621.340
352.621	19.026	821.550	620.580
353.635	19.054	821.388	620.503
354.650	19.098	821.267	620.516
355.665	19.081	820.662	619.943
356.679	19.364	820.107	620.486
357.694	19.297	819.583	619.796
358.708	19.278	819.023	619.249
359.723	19.248	818.536	618.718
360.738	19.422	818.182	619.018
361.752	19.272	817.492	617.906
362.767	19.360	817.255	617.985
363.781	19.531	816.482	617.960
364.796	19.436	816.802	617.807
365.810	19.611	816.123	617.865
366.825	19.812	815.929	618.383
367.840	19.777	815.429	617.824
368.854	19.762	815.005	617.395
369.869	19.614	814.317	616.288
370.883	19.673	813.512	615.835
371.898	19.544	813.423	615.253
372.913	19.785	812.558	615.406
373.927	19.753	812.139	614.918
374.942	19.777	811.606	614.547
375.956	19.705	810.644	613.507
376.971	19.800	809.903	613.229
377.986	19.893	809.812	613.436
379.000	19.914	809.618	613.308
380.015	20.031	808.672	612.951
381.029	19.994	808.479	612.619
382.044	19.933	807.699	611.758
383.059	19.903	807.504	611.452
384.073	20.025	806.746	611.253
385.088	20.030	806.198	610.803
386.102	19.717	805.636	609.220
387.117	19.517	805.356	608.251
388.132	19.567	804.587	607.790
389.146	19.668	804.071	607.704
390.161	19.616	803.934	607.364
391.175	19.921	803.283	607.887
392.190	19.952	802.787	607.567
393.205	19.984	802.229	607.202
394.219	19.884	801.724	606.417
395.234	19.796	801.420	605.824
396.248	19.728	800.755	605.032
397.263	19.739	800.240	604.627
398.278	19.585	799.920	603.794
399.292	19.465	799.447	602.963
400.307	19.519	799.114	602.848
401.321	19.606	798.442	602.592
402.336	19.627	798.201	602.429
403.350	19.706	797.988	602.492
404.365	19.761	797.617	602.349
405.380	19.908	796.916	602.278
406.394	20.060	796.753	602.628
407.409	20.077	796.319	602.309
408.423	20.039	795.565	601.550
409.438	20.328	795.084	602.136
410.453	20.162	795.184	601.585
411.467	20.324	794.667	601.702
412.482	20.286	793.896	600.934
413.496	20.462	793.649	601.302
414.511	20.387	793.489	600.868
415.526	20.500	793.252	601.027
416.540	20.361	792.365	599.820
417.555	20.135	792.422	599.028
418.569	20.418	791.729	599.429
419.584	20.576	790.916	599.306
420.599	20.481	790.427	598.553
421.613	160.897	1372.169	1794.907
422.628	139.326	1456.918	1795.001
