DTS Sentinel unit serial number:	SN413079Multiplexer serial number:	ORYXHardware model number:	OX4-SRSoftware version number:	ORYX F/W v4.00 Oryx Data Collector v3.7.2.0data status	okinstallation	princeton_trtdifferential loss correction	single-endedforward channel	channel 3reverse channel	N/Adate	2019/09/19time	08:04:35forward acquisition time	60.00reverse acquisition time	0.00gamma	496.2192k internal	0.2347k external	0.2347temperature offset calibration	0.9982default loss term (dB/km)	0.3790temperature slope calibration	1.0000multiplexer offset coefficient	1.0000multiplexer slope coefficient	1.0000fibre end	0.00T internal ref (°C)	19.94T ext. ref 1 (°C)	0.56T ext. ref 2 (°C)	15.60length (m)	temperature (°C)	Stokes	anti-Stokes-747.200	-200.000	0.001	0.242
-746.185	781.931	-0.066	0.182
-745.171	-65.130	-0.278	-0.112
-744.156	150.235	0.089	0.121
-743.142	105.276	0.164	-0.194
-742.127	-29.670	-0.296	0.169
-741.112	-200.000	0.006	-0.241
-740.098	-7.110	-0.308	-0.209
-739.083	-103.414	0.349	0.082
-738.069	-119.274	-0.316	-0.055
-737.054	-78.615	-0.202	0.069
-736.039	-149.657	-0.434	-0.034
-735.025	92.791	0.267	0.302
-734.010	-79.357	-0.205	-0.069
-732.996	-15.282	0.113	-0.072
-731.981	-200.000	0.046	0.248
-730.966	-163.194	0.214	0.010
-729.952	-200.000	-0.010	0.060
-728.937	-54.708	-0.375	0.170
-727.923	800.000	0.014	0.045
-726.908	-200.000	-0.022	-0.205
-725.894	37.844	-0.215	-0.191
-724.879	180.125	-0.053	0.078
-723.864	-200.000	0.090	-0.452
-722.850	-17.941	-0.023	0.015
-721.835	-200.000	-0.009	-0.194
-720.821	-101.976	-0.534	0.129
-719.806	86.052	-0.393	-0.432
-718.791	75.202	0.284	-0.299
-717.777	645.751	0.093	-0.237
-716.762	-200.000	-0.050	-0.243
-715.748	38.519	0.217	0.193
-714.733	-82.937	-0.393	-0.127
-713.718	-78.603	-0.236	-0.081
-712.704	-91.511	-0.109	0.031
-711.689	104.690	0.066	0.078
-710.675	800.000	0.052	-0.175
-709.660	-121.548	0.225	0.037
-708.645	-184.009	-0.384	0.006
-707.631	-76.377	0.083	-0.029
-706.616	553.100	-0.105	-0.252
-705.602	285.016	-0.028	0.050
-704.587	-106.093	0.325	-0.073
-703.572	-200.000	-0.014	-0.272
-702.558	16.854	-0.176	0.139
-701.543	-200.000	-0.000	-0.070
-700.529	-116.566	-0.116	0.021
-699.514	64.357	-0.030	0.030
-698.499	315.511	0.116	-0.219
-697.485	-183.548	0.402	-0.007
-696.470	-200.000	0.042	0.197
-695.456	130.543	-0.239	0.306
-694.441	135.582	-0.149	-0.193
-693.426	800.000	-0.065	0.182
-692.412	-200.000	0.017	-0.107
-691.397	-34.366	-0.112	0.061
-690.383	800.000	-0.016	-0.064
-689.368	275.359	-0.160	-0.283
-688.354	-76.838	0.237	-0.083
-687.339	-124.447	-0.107	0.017
-686.324	293.222	0.152	-0.276
-685.310	-49.412	-0.262	-0.125
-684.295	249.134	-0.142	-0.240
-683.281	-61.704	-0.359	0.150
-682.266	-53.898	0.154	0.070
-681.251	444.448	0.078	-0.171
-680.237	282.191	-0.046	0.082
-679.222	329.432	-0.148	-0.283
-678.208	-200.000	-0.027	0.139
-677.193	-39.381	0.255	0.133
-676.178	-104.489	0.166	-0.038
-675.164	-69.237	-0.074	0.028
-674.149	418.786	-0.176	-0.376
-673.135	149.276	0.081	0.109
-672.120	465.165	-0.066	0.148
-671.105	-113.966	-0.441	-0.085
-670.091	-79.432	-0.247	0.083
-669.076	360.695	0.154	-0.308
-668.062	-200.000	-0.005	-0.349
-667.047	14.925	-0.199	-0.156
-666.032	-28.768	0.086	0.049
-665.018	-134.832	-0.187	-0.023
-664.003	-79.485	-0.213	-0.072
-662.989	-200.000	0.035	0.177
-661.974	-153.462	0.287	-0.020
-660.959	-133.336	-0.234	0.029
-659.945	-19.935	0.210	0.129
-658.930	20.536	0.443	0.357
-657.916	4.195	0.193	0.141
-656.901	177.711	-0.060	-0.087
-655.886	800.000	-0.161	-0.561
-654.872	246.641	-0.164	0.276
-653.857	107.369	-0.372	-0.441
-652.843	-200.000	-0.035	-0.174
-651.828	-48.601	-0.233	0.112
-650.814	-104.599	0.579	-0.133
-649.799	800.000	0.079	0.239
-648.784	57.428	0.316	-0.307
-647.770	-32.363	-0.075	0.042
-646.755	-200.000	0.007	-0.152
-645.741	13.391	0.083	-0.064
-644.726	-29.600	-0.128	0.073
-643.711	-108.516	0.437	-0.094
-642.697	-200.000	-0.026	-0.369
-641.682	-200.000	-0.018	-0.262
-640.668	-86.554	0.042	-0.013
-639.653	-131.082	0.336	-0.045
-638.638	231.183	-0.151	-0.247
-637.624	74.185	0.100	-0.105
-636.609	8.473	0.130	0.097
-635.595	-200.000	0.023	0.145
-634.580	-40.208	-0.099	0.052
-633.565	-111.537	0.158	0.032
-632.551	205.601	0.100	-0.154
-631.536	134.474	-0.133	0.172
-630.522	7.861	0.133	0.099
-629.507	-200.000	-0.014	-0.174
-628.492	-104.535	0.041	0.009
-627.478	181.817	0.122	-0.179
-626.463	186.804	-0.142	-0.211
-625.449	-82.930	-0.378	0.122
-624.434	-200.000	-0.007	-0.090
-623.419	-200.000	0.029	-0.140
-622.405	320.730	-0.045	-0.084
-621.390	21.344	-0.167	0.135
-620.376	46.158	0.066	-0.061
-619.361	-200.000	0.027	0.289
-618.346	-15.398	-0.377	0.239
-617.332	-171.516	0.230	0.008
-616.317	-75.781	0.151	-0.053
-615.303	667.241	0.088	0.227
-614.288	746.955	0.022	0.058
-613.273	89.812	-0.296	-0.329
-612.259	103.157	-0.130	0.151
-611.244	-75.800	0.177	0.062
-610.230	608.258	-0.090	-0.224
-609.215	278.010	0.050	0.089
-608.201	61.278	-0.121	-0.119
-607.186	-33.690	-0.196	-0.107
-606.171	154.329	0.082	-0.112
-605.157	123.125	-0.167	-0.208
-604.142	-99.993	0.157	-0.039
-603.128	-176.546	0.102	-0.003
-602.113	-161.925	0.173	-0.009
-601.098	-200.000	-0.017	-0.154
-600.084	38.835	0.048	0.043
-599.069	-34.450	0.131	-0.072
-598.055	-43.276	-0.160	0.081
-597.040	-66.707	-0.410	-0.162
-596.025	-188.378	0.245	-0.003
-595.011	-39.686	-0.260	0.135
-593.996	151.197	-0.165	-0.223
-592.982	104.489	-0.054	-0.063
-591.967	262.749	0.109	-0.188
-590.952	800.000	0.030	-0.101
-589.938	124.817	-0.133	0.167
-588.923	-36.350	0.067	-0.036
-587.909	800.000	-0.019	-0.062
-586.894	800.000	-0.114	-0.342
-585.879	140.974	-0.110	0.145
-584.865	800.000	0.046	-0.152
-583.850	262.954	0.179	0.309
-582.836	-153.013	-0.287	0.020
-581.821	248.920	-0.138	-0.232
-580.806	-85.952	-0.157	0.048
-579.792	-89.003	0.267	-0.078
-578.777	735.363	0.135	-0.359
-577.763	800.000	0.006	0.020
-576.748	-200.000	0.032	0.182
-575.733	-19.153	0.279	-0.172
-574.719	-109.427	0.089	-0.019
-573.704	84.423	-0.217	-0.236
-572.690	-200.000	-0.028	-0.174
-571.675	9.859	0.172	-0.130
-570.661	800.000	0.023	0.088
-569.646	-195.513	0.252	0.002
-568.631	-200.000	0.017	-0.217
-567.617	283.120	0.128	0.229
-566.602	-200.000	0.001	0.299
-565.588	-200.000	0.046	-0.201
-564.573	24.593	0.116	-0.095
-563.558	-200.000	0.031	-0.151
-562.544	-200.000	-0.030	0.144
-561.529	-200.000	-0.032	0.200
-560.515	-58.826	0.117	-0.050
-559.500	-29.447	-0.162	-0.092
-558.485	-73.714	0.211	-0.076
-557.471	-88.133	-0.304	0.091
-556.456	-200.000	-0.026	-0.274
-555.442	-200.000	0.053	0.259
-554.427	-46.743	-0.466	0.227
-553.412	800.000	-0.040	-0.153
-552.398	-36.768	0.285	-0.152
-551.383	-165.872	0.222	-0.009
-550.369	58.523	0.098	-0.095
-549.354	54.731	0.288	0.275
-548.339	-105.423	0.117	-0.026
-547.325	-85.062	-0.310	-0.096
-546.310	-173.080	0.308	0.009
-545.296	157.970	0.086	-0.118
-544.281	49.124	0.237	0.221
-543.266	800.000	0.015	-0.061
-542.252	-164.212	-0.187	-0.009
-541.237	-128.203	0.216	0.031
-540.223	800.000	0.069	0.243
-539.208	159.394	0.079	0.109
-538.193	-200.000	0.043	-0.263
-537.179	57.513	0.097	0.094
-536.164	-200.000	-0.008	0.090
-535.150	482.133	-0.121	-0.273
-534.135	-146.089	0.105	-0.009
-533.121	27.703	0.141	0.118
-532.106	-31.155	-0.091	0.051
-531.091	28.424	-0.179	0.150
-530.077	245.858	-0.173	0.289
-529.062	-31.568	0.249	0.139
-528.048	-99.927	-0.150	0.037
-527.033	800.000	0.114	-0.319
-526.018	-200.000	-0.020	-0.209
-525.004	-200.000	-0.011	-0.150
-523.989	-41.407	-0.299	0.153
-522.975	215.939	-0.140	0.221
-521.960	456.706	-0.123	-0.271
-520.945	800.000	-0.052	0.149
-519.931	157.961	-0.106	0.145
-518.916	110.425	0.160	0.190
-517.902	-200.000	-0.003	0.450
-516.887	92.960	0.112	-0.125
-515.872	-160.794	-0.338	0.018
-514.858	-200.000	-0.018	-0.299
-513.843	27.157	-0.204	-0.170
-512.829	800.000	0.083	-0.311
-511.814	-200.000	-0.067	0.381
-510.799	-121.234	-0.385	0.064
-509.785	-129.058	0.244	-0.034
-508.770	227.613	-0.198	0.320
-507.756	-102.920	-0.097	0.023
-506.741	-200.000	-0.010	0.309
-505.726	610.162	-0.057	0.140
-504.712	-200.000	0.034	-0.245
-503.697	-129.892	0.262	-0.036
-502.683	174.785	-0.253	-0.362
-501.668	102.592	0.125	0.145
-500.653	-100.150	-0.278	0.069
-499.639	-82.305	0.293	0.095
-498.624	-112.215	0.206	0.041
-497.610	800.000	-0.018	-0.064
-496.595	-55.177	-0.632	0.282
-495.581	-61.314	0.219	-0.091
-494.566	-151.699	-0.323	-0.024
-493.551	-200.000	-0.005	-0.051
-492.537	37.561	-0.038	0.033
-491.522	163.192	0.268	0.373
-490.508	6.406	0.297	-0.218
-489.493	-84.298	-0.322	0.101
-488.478	800.000	-0.086	0.356
-487.464	116.539	-0.057	0.069
-486.449	-21.820	0.043	-0.026
-485.435	-200.000	-0.004	-0.173
-484.420	20.653	-0.185	-0.148
-483.405	498.330	0.020	0.045
-482.391	-86.021	0.186	0.057
-481.376	800.000	-0.057	-0.215
-480.362	800.000	0.103	-0.282
-479.347	31.519	-0.116	-0.099
-478.332	-186.824	-0.372	-0.005
-477.318	-158.401	0.192	0.011
-476.303	-67.982	-0.162	-0.063
-475.289	18.710	0.072	0.057
-474.274	-33.164	-0.256	0.140
-473.259	8.135	0.167	-0.124
-472.245	-125.676	0.534	-0.080
-471.230	-38.327	-0.703	-0.368
-470.216	-127.482	-0.104	-0.015
-469.201	-50.669	0.238	-0.111
-468.186	300.065	-0.098	-0.179
-467.172	-200.000	0.005	-0.065
-466.157	800.000	0.063	-0.182
-465.143	90.154	0.098	-0.108
-464.128	-134.027	0.048	0.006
-463.113	800.000	-0.075	-0.259
-462.099	161.531	0.080	0.111
-461.084	-8.052	-0.265	0.177
-460.070	-200.000	0.016	-0.177
-459.055	186.761	0.163	0.240
-458.040	-175.080	0.230	-0.006
-457.026	-200.000	0.029	-0.240
-456.011	100.438	0.167	-0.191
-454.997	550.010	0.110	0.260
-453.982	-90.678	-0.174	0.050
-452.968	800.000	0.094	0.286
-451.953	391.039	0.155	0.318
-450.938	800.000	0.076	-0.246
-449.924	800.000	-0.026	-0.079
-448.909	-136.487	0.215	-0.025
-447.895	-164.333	-0.104	-0.005
-446.880	127.332	0.123	-0.154
-445.865	70.043	0.367	-0.374
-444.851	39.977	0.208	0.185
-443.836	-200.000	0.001	-0.113
-442.822	800.000	-0.042	-0.119
-441.807	-47.890	0.268	-0.128
-440.792	-101.242	-0.200	-0.048
-439.778	85.708	0.148	0.161
-438.763	800.000	0.015	0.058
-437.749	557.539	-0.089	0.212
-436.734	139.647	0.148	0.192
-435.719	-166.508	0.142	-0.006
-434.705	619.573	-0.048	0.119
-433.690	-49.353	-0.133	0.063
-432.676	800.000	0.050	0.199
-431.661	-200.000	0.004	0.086
-430.646	800.000	-0.055	-0.153
-429.632	114.641	-0.118	0.142
-428.617	-200.000	0.026	0.154
-427.603	-107.973	0.130	-0.028
-426.588	-43.712	0.537	-0.267
-425.573	-200.000	-0.037	0.309
-424.559	-44.046	0.226	0.112
-423.544	156.819	-0.090	0.122
-422.530	90.139	0.304	0.335
-421.515	800.000	0.025	-0.104
-420.500	-85.195	-0.500	0.154
-419.486	800.000	-0.022	-0.088
-418.471	-102.634	0.345	-0.081
-417.457	-119.384	-0.325	-0.056
-416.442	2.475	0.158	0.113
-415.428	-200.000	0.047	0.310
-414.413	-7.240	-0.102	-0.068
-413.398	-113.689	0.635	-0.122
-412.384	-119.043	-0.219	-0.038
-411.369	-104.459	0.160	-0.037
-410.355	284.785	-0.034	0.060
-409.340	-29.531	-0.033	0.019
-408.325	-151.880	-0.254	-0.018
-407.311	-110.483	0.137	-0.028
-406.296	-200.000	-0.021	0.143
-405.282	-26.106	0.264	0.153
-404.267	800.000	0.110	-0.311
-403.252	223.368	0.158	0.252
-402.238	216.619	-0.175	0.275
-401.223	-200.000	0.024	0.123
-400.209	-200.000	-0.077	0.404
-399.194	-54.195	-0.125	0.056
-398.179	144.995	0.114	-0.150
-397.165	-51.133	-0.216	0.100
-396.150	414.511	0.176	0.369
-395.136	93.949	-0.098	-0.110
-394.121	281.742	0.094	-0.167
-393.106	45.819	-0.303	0.276
-392.092	94.492	-0.271	-0.303
-391.077	800.000	0.035	-0.095
-390.063	-2.968	-0.479	0.330
-389.048	-40.224	0.071	-0.036
-388.033	46.259	0.080	0.073
-387.019	-150.011	-0.321	0.025
-386.004	-9.270	-0.233	0.153
-384.990	-143.298	-0.208	-0.020
-383.975	-86.935	-0.224	0.067
-382.960	-200.000	0.044	0.251
-381.946	9.950	-0.056	-0.042
-380.931	18.414	-0.209	0.164
-379.917	-160.384	-0.335	-0.018
-378.902	41.735	-0.148	-0.132
-377.888	-115.414	0.473	0.088
-376.873	107.741	-0.094	0.110
-375.858	397.362	-0.066	-0.136
-374.844	41.597	0.227	-0.203
-373.829	-22.920	-0.336	-0.200
-372.815	116.774	0.284	0.343
-371.800	-119.689	-0.127	0.022
-370.785	-200.000	-0.030	0.170
-369.771	116.817	0.235	0.285
-368.756	251.325	0.100	0.168
-367.742	-84.584	0.187	0.058
-366.727	-144.275	-0.129	-0.012
-365.712	-18.862	-0.180	-0.111
-364.698	-200.000	-0.001	-0.227
-363.683	85.043	-0.148	-0.160
-362.669	-108.674	-0.324	-0.068
-361.654	299.282	0.141	0.256
-360.639	732.834	0.155	0.409
-359.625	-200.000	0.008	-0.067
-358.610	-173.064	-0.111	-0.003
-357.596	485.663	-0.084	-0.189
-356.581	-9.630	0.122	-0.080
-355.566	226.996	0.223	-0.357
-354.552	74.443	-0.129	-0.133
-353.537	-51.541	0.124	0.057
-352.523	85.504	-0.197	0.213
-351.508	38.072	0.209	0.183
-350.493	73.029	-0.222	0.229
-349.479	-200.000	0.009	0.218
-348.464	-7.621	-0.291	0.194
-347.450	420.151	0.157	-0.331
-346.435	390.452	0.079	-0.161
-345.420	255.390	0.107	-0.181
-344.406	-93.804	-0.370	-0.100
-343.391	18.065	-0.260	0.204
-342.377	336.756	-0.056	0.106
-341.362	-132.817	-0.285	-0.036
-340.348	177.724	0.176	0.252
-339.333	-200.000	-0.010	0.070
-338.318	177.499	-0.108	0.155
-337.304	-200.000	-0.008	0.155
-336.289	15.761	-0.204	-0.158
-335.275	-200.000	0.001	0.074
-334.260	-60.839	-0.190	0.079
-333.245	128.939	-0.094	0.119
-332.231	142.065	-0.126	0.165
-331.216	-28.152	0.110	-0.063
-330.202	-143.593	-0.527	-0.049
-329.187	-200.000	-0.007	0.071
-328.172	55.347	0.086	-0.082
-327.158	-153.009	0.185	0.013
-326.143	-200.000	-0.012	-0.176
-325.129	150.841	0.151	0.202
-324.114	-200.000	0.028	0.189
-323.099	-12.525	-0.234	0.150
-322.085	-66.106	0.320	0.126
-321.070	-38.367	-0.125	0.065
-320.056	-94.430	0.350	0.094
-319.041	-101.935	-0.126	0.030
-318.026	89.880	0.104	-0.114
-317.012	26.865	0.098	-0.081
-315.997	-200.000	-0.020	0.483
-314.983	0.881	-0.337	0.237
-313.968	-112.179	-0.210	-0.041
-312.953	533.857	-0.157	0.367
-311.939	-91.006	0.170	0.048
-310.924	-31.624	0.314	0.173
-309.910	-104.093	0.229	0.052
-308.895	230.632	0.038	-0.061
-307.880	130.433	-0.072	-0.090
-306.866	-200.000	0.024	-0.209
-305.851	-200.000	-0.072	-0.341
-304.837	-200.000	-0.050	-0.363
-303.822	-200.000	0.009	-0.059
-302.807	428.452	-0.099	-0.210
-301.793	-6.327	0.259	-0.173
-300.778	36.711	0.103	0.089
-299.764	90.993	-0.071	0.079
-298.749	-200.000	-0.032	-0.245
-297.735	199.079	-0.127	0.191
-296.720	38.767	-0.152	0.133
-295.705	117.665	0.116	0.140
-294.691	-200.000	-0.042	0.401
-293.676	120.267	0.117	0.142
-292.662	-88.357	-0.229	0.067
-291.647	-5.580	0.396	0.267
-290.632	-56.956	0.178	0.077
-289.618	155.517	0.040	-0.053
-288.603	-145.959	0.183	0.016
-287.589	256.753	-0.215	0.362
-286.574	197.897	-0.086	0.129
-285.559	-84.575	0.281	0.087
-284.545	358.023	0.072	-0.140
-283.530	197.460	0.118	-0.177
-282.516	-200.000	0.036	0.368
-281.501	-51.790	-0.078	-0.036
-280.486	129.003	0.057	-0.072
-279.472	-47.478	0.378	-0.180
-278.457	360.474	0.066	-0.129
-277.443	154.004	0.229	-0.309
-276.428	-200.000	0.009	0.231
-275.413	2.308	0.154	0.109
-274.399	234.403	-0.105	0.171
-273.384	-139.768	-0.230	-0.024
-272.370	79.406	0.170	0.179
-271.355	480.021	-0.105	-0.233
-270.340	195.008	0.282	-0.420
-269.326	-13.345	0.118	0.075
-268.311	264.348	-0.076	-0.130
-267.297	577.760	-0.168	0.402
-266.282	-99.890	0.300	0.074
-265.267	-31.132	-0.152	0.084
-264.253	55.952	-0.379	-0.361
-263.238	77.385	0.186	0.194
-262.224	256.884	0.199	0.336
-261.209	-200.000	0.038	-0.300
-260.195	-10.526	-0.137	0.089
-259.180	-200.000	-0.003	-0.095
-258.165	-40.852	0.110	-0.056
-257.151	-156.539	0.223	-0.014
-256.136	-121.514	0.199	0.032
-255.122	-1.036	-0.023	0.016
-254.107	-8.984	0.189	0.124
-253.092	559.452	-0.025	-0.060
-252.078	-24.703	0.099	-0.058
-251.063	-200.000	0.007	-0.269
-250.049	782.176	-0.174	-0.467
-249.034	-128.210	0.295	-0.041
-248.019	43.504	-0.185	-0.166
-247.005	800.000	0.055	0.222
-245.990	32.354	0.169	0.143
-244.976	-178.295	-0.112	0.003
-243.961	-36.721	0.275	0.145
-242.946	57.302	-0.298	-0.285
-241.932	32.670	0.178	-0.151
-240.917	43.693	-0.177	-0.158
-239.903	357.802	0.066	0.130
-238.888	37.919	-0.085	0.074
-237.873	-127.706	0.514	-0.073
-236.859	386.691	0.109	0.221
-235.844	6.244	-0.301	0.219
-234.830	-200.000	0.048	0.344
-233.815	58.795	-0.206	-0.198
-232.800	-80.846	0.322	-0.105
-231.786	-200.000	-0.006	-0.039
-230.771	800.000	0.032	-0.113
-229.757	125.323	-0.254	-0.314
-228.742	250.722	0.037	0.062
-227.727	40.063	0.224	-0.197
-226.713	-98.785	-0.102	0.025
-225.698	189.323	-0.175	-0.258
-224.684	-66.614	-0.356	-0.138
-223.669	-115.048	0.040	-0.007
-222.655	-200.000	0.028	-0.220
-221.640	262.370	0.086	0.145
-220.625	-24.781	-0.194	-0.113
-219.611	343.338	0.164	0.314
-218.596	-98.942	-0.049	0.012
-217.582	-24.647	-0.232	0.135
-216.567	-73.504	0.301	-0.107
-215.552	800.000	-0.021	-0.082
-214.538	800.000	-0.069	0.295
-213.523	-144.566	0.102	0.009
-212.509	399.192	-0.084	-0.173
-211.494	-112.651	0.060	0.012
-210.479	-42.153	0.187	-0.093
-209.465	788.857	0.025	-0.068
-208.450	-132.994	-0.284	-0.035
-207.436	-118.164	0.248	-0.043
-206.421	-58.427	-0.292	-0.124
-205.406	-200.000	-0.011	-0.050
-204.392	-91.472	0.083	-0.023
-203.377	-91.590	-0.192	-0.054
-202.363	577.843	0.029	-0.069
-201.348	-9.242	-0.266	-0.174
-200.333	-200.000	-0.073	-0.334
-199.319	30.090	0.103	0.086
-198.304	800.000	0.033	-0.100
-197.290	146.627	-0.250	0.329
-196.275	-85.257	-0.119	-0.036
-195.260	-32.557	-0.236	0.129
-194.246	-145.013	0.139	0.012
-193.231	422.607	0.082	-0.172
-192.217	-50.604	-0.391	-0.180
-191.202	458.302	0.079	-0.173
-190.187	138.986	-0.206	0.266
-189.173	320.106	-0.187	-0.348
-188.158	361.285	0.075	0.148
-187.144	78.296	-0.243	-0.254
-186.129	-168.365	0.401	-0.015
-185.114	411.779	-0.076	0.158
-184.100	-151.282	-0.160	-0.012
-183.085	-33.797	-0.043	0.023
-182.071	-149.000	0.073	-0.006
-181.056	-22.564	0.211	-0.125
-180.042	-98.061	0.241	-0.061
-179.027	522.392	0.100	0.229
-178.012	235.629	-0.104	-0.168
-176.998	-89.545	0.258	-0.074
-175.983	175.131	-0.154	-0.218
-174.969	-200.000	0.011	-0.516
-173.954	539.592	0.090	0.208
-172.939	273.732	-0.124	0.214
-171.925	800.000	-0.077	-0.216
-170.910	249.654	-0.136	0.226
-169.896	-34.667	0.050	-0.027
-168.881	-54.110	-0.240	0.107
-167.866	12.386	0.294	0.222
-166.852	-200.000	-0.075	-0.348
-165.837	366.667	-0.222	0.438
-164.823	169.190	-0.089	-0.123
-163.808	476.725	0.046	-0.102
-162.793	-200.000	-0.047	-0.426
-161.779	27.681	-0.131	0.108
-160.764	-25.824	0.367	0.211
-159.750	800.000	0.061	-0.188
-158.735	-82.171	-0.354	0.113
-157.720	-200.000	0.014	-0.188
-156.706	-103.780	0.126	0.029
-155.691	78.369	-0.080	-0.083
-154.677	800.000	-0.087	-0.328
-153.662	374.499	0.042	0.084
-152.647	-5.060	-0.112	0.075
-151.633	64.912	0.197	0.194
-150.618	800.000	-0.031	-0.118
-149.604	800.000	-0.107	-0.294
-148.589	222.950	-0.086	-0.136
-147.574	-116.442	0.153	-0.028
-146.560	100.394	-0.206	-0.234
-145.545	196.270	-0.018	0.027
-144.531	-177.900	-0.131	-0.003
-143.516	-188.776	-0.079	0.001
-142.502	-200.000	0.027	-0.145
-141.487	417.982	0.115	-0.240
-140.472	-78.228	0.300	0.101
-139.458	-77.893	0.143	0.048
-138.443	-121.350	0.190	0.031
-137.429	-71.718	-0.256	-0.093
-136.414	800.000	0.042	-0.170
-135.399	13.149	-0.124	-0.094
-134.385	-176.199	0.102	-0.003
-133.370	248.674	-0.114	-0.189
-132.356	-147.456	0.138	-0.011
-131.341	419.591	-0.149	0.311
-130.326	-111.784	0.043	-0.009
-129.312	-196.415	0.059	-0.000
-128.297	800.000	-0.087	0.273
-127.283	628.219	-0.066	-0.162
-126.268	-3.353	-0.157	-0.106
-125.253	-28.151	0.402	-0.227
-124.239	5.908	-0.254	0.183
-123.224	-136.617	0.169	-0.019
-122.210	-200.000	0.016	-0.146
-121.195	108.443	0.271	0.315
-120.180	-13.937	-0.183	-0.116
-119.166	150.826	0.151	-0.200
-118.151	-143.887	-0.117	-0.011
-117.137	-143.513	0.395	-0.037
-116.122	-46.357	0.361	-0.173
-115.107	-199.596	0.336	0.002
-114.093	-144.975	0.337	0.030
-113.078	-88.163	0.139	0.041
-112.064	-30.041	0.187	0.104
-111.049	-200.000	0.020	-0.334
-110.034	-200.000	-0.034	-0.356
-109.020	-41.801	0.287	0.144
-108.005	-52.974	0.141	-0.063
-106.991	49.527	0.095	0.087
-105.976	54.400	-0.172	0.162
-104.962	-4.733	0.205	0.138
-103.947	-122.402	-0.187	-0.030
-102.932	800.000	0.052	0.176
-101.918	-200.000	0.064	0.292
-100.903	-200.000	0.058	-0.347
-99.889	-61.178	-0.289	0.119
-98.874	-127.522	-0.246	-0.035
-97.859	800.000	-0.105	-0.390
-96.845	-200.000	-0.070	0.409
-95.830	-200.000	-0.076	0.331
-94.816	154.293	0.204	0.272
-93.801	-200.000	0.016	-0.090
-92.786	-200.000	-0.031	-0.192
-91.772	-11.702	0.159	-0.102
-90.757	693.761	-0.086	-0.220
-89.743	285.422	-0.025	0.044
-88.728	800.000	0.133	0.389
-87.713	-92.478	-0.178	-0.049
-86.699	-102.790	-0.186	0.043
-85.684	-37.920	-0.168	-0.087
-84.670	93.225	-0.098	-0.108
-83.655	800.000	0.069	0.204
-82.640	800.000	-0.151	0.458
-81.626	-24.551	-0.095	0.055
-80.611	-18.620	-0.169	0.103
-79.597	74.300	0.092	0.094
-78.582	-20.187	-0.313	0.188
-77.567	357.968	0.055	0.106
-76.553	31.160	-0.210	-0.175
-75.538	410.459	-0.090	-0.187
-74.524	-1.085	-0.075	-0.051
-73.509	13.067	-0.094	0.071
-72.494	117.531	0.175	0.210
-71.480	135.055	0.170	0.215
-70.465	-200.000	-0.080	0.392
-69.451	378.226	0.170	0.339
-68.436	-24.694	0.162	0.094
-67.422	-120.717	-0.220	0.036
-66.407	-9.925	-0.124	-0.080
-65.392	-183.177	0.118	-0.002
-64.378	-200.000	-0.044	-0.217
-63.363	-126.479	-0.394	0.057
-62.349	-200.000	0.015	-0.243
-61.334	119.898	-1.168	-1.410
-60.319	-39.206	1.000	0.512
-59.305	457.279	-0.502	-1.084
-58.290	800.000	0.650	1.811
-57.276	402.414	0.647	1.323
-56.261	-200.000	135.108	654.364
-55.246	335.476	1664.388	3140.361
-54.232	135.009	2798.442	3537.654
-53.217	84.110	2199.555	2338.264
-52.203	30.048	1715.110	1423.233
-51.188	22.841	1538.901	1227.074
-50.173	21.235	1517.375	1198.846
-49.159	44.903	1593.180	1426.906
-48.144	41.222	1603.807	1410.365
-47.130	22.866	1552.946	1238.251
-46.115	20.280	1536.332	1206.996
-45.100	20.026	1533.197	1202.716
-44.086	19.971	1531.675	1201.093
-43.071	19.926	1529.688	1199.178
-42.057	19.841	1528.142	1197.333
-41.042	19.962	1526.711	1196.995
-40.027	19.961	1524.517	1195.223
-39.013	19.822	1523.542	1193.452
-37.998	19.827	1522.004	1192.234
-36.984	19.828	1521.290	1191.638
-35.969	19.885	1520.068	1191.021
-34.954	19.885	1518.098	1189.434
-33.940	19.856	1517.006	1188.331
-32.925	19.855	1515.772	1187.307
-31.911	19.861	1514.675	1186.446
-30.896	19.972	1513.150	1185.961
-29.881	20.052	1511.552	1185.211
-28.867	20.045	1509.950	1183.857
-27.852	19.902	1509.100	1182.169
-26.838	20.030	1507.395	1181.662
-25.823	19.981	1505.967	1180.159
-24.809	19.985	1504.800	1179.228
-23.794	20.052	1502.827	1178.091
-22.779	19.899	1501.957	1176.319
-21.765	20.013	1500.854	1176.183
-20.750	20.113	1499.009	1175.368
-19.736	20.049	1498.402	1174.413
-18.721	19.993	1497.522	1173.295
-17.706	19.923	1496.675	1172.114
-16.692	19.953	1495.516	1171.363
-15.677	20.089	1493.799	1170.888
-14.663	19.903	1493.292	1169.190
-13.648	19.876	1492.615	1168.432
-12.633	19.868	1491.436	1167.406
-11.619	19.933	1490.744	1167.256
-10.604	19.850	1490.193	1166.218
-9.590	19.970	1488.573	1165.715
-8.575	19.976	1487.541	1164.898
-7.560	19.918	1487.286	1164.266
-6.546	19.972	1486.538	1163.994
-5.531	19.955	1485.430	1162.969
-4.517	19.918	1484.206	1161.715
-3.502	19.897	1483.133	1160.688
-2.487	19.904	1482.096	1159.878
-1.473	19.886	1481.396	1159.163
-0.458	19.983	1479.384	1158.190
0.556	19.005	1470.190	1148.319
1.571	16.284	1446.764	1112.021
2.586	13.284	1386.232	1046.444
3.600	11.925	1300.306	973.418
4.615	10.999	1256.844	935.479
5.629	9.768	1200.115	886.412
6.644	4.955	1118.939	801.673
7.659	1.223	1083.926	757.905
8.673	0.646	1078.891	751.448
9.688	0.513	1075.457	748.329
10.702	0.609	1073.855	747.625
11.717	0.471	1071.877	745.500
12.731	2.146	1071.788	753.641
13.746	7.601	1079.192	785.822
14.761	13.652	1087.534	821.913
15.775	16.907	1091.087	840.690
16.790	16.952	1089.508	839.622
17.804	15.876	1088.316	833.306
18.819	15.012	1086.246	827.380
19.834	14.617	1084.820	824.267
20.848	14.316	1084.305	822.320
21.863	14.158	1083.027	820.495
22.877	13.866	1082.607	818.665
23.892	13.634	1081.493	816.610
24.907	13.588	1080.585	815.626
25.921	13.616	1079.718	815.035
26.936	13.689	1079.078	814.836
27.950	13.675	1078.282	814.094
28.965	13.752	1077.675	813.944
29.980	13.756	1076.802	813.231
30.994	13.816	1075.578	812.528
32.009	13.826	1074.699	811.842
33.023	13.951	1074.304	812.086
34.038	13.932	1073.532	811.337
35.053	13.831	1072.916	810.304
36.067	13.736	1071.880	808.988
37.082	13.730	1070.952	808.185
38.096	13.638	1070.901	807.626
39.111	13.881	1069.208	807.464
40.126	13.844	1068.317	806.540
41.140	13.786	1067.718	805.733
42.155	13.595	1066.664	803.941
43.169	13.641	1065.710	803.370
44.184	13.651	1064.172	802.189
45.199	13.727	1062.947	801.565
46.213	13.649	1062.104	800.479
47.228	13.795	1061.226	800.449
48.242	13.685	1059.985	798.916
49.257	13.755	1059.247	798.626
50.271	13.636	1058.403	797.346
51.286	13.689	1057.405	796.776
52.301	13.695	1056.549	796.092
53.315	13.731	1056.049	795.818
54.330	13.665	1055.264	794.838
55.344	13.859	1053.680	794.503
56.359	13.745	1053.057	793.420
57.374	13.775	1052.085	792.758
58.388	13.669	1051.377	791.651
59.403	13.731	1050.238	791.016
60.417	13.587	1049.685	789.845
61.432	13.552	1049.138	789.197
62.447	13.635	1048.120	788.754
63.461	13.725	1047.524	788.665
64.476	13.652	1046.201	787.253
65.490	13.635	1045.271	786.401
66.505	13.649	1044.275	785.651
67.520	13.628	1043.911	785.206
68.534	13.531	1043.159	784.111
69.549	13.680	1042.358	784.148
70.563	13.607	1041.177	782.844
71.578	13.652	1040.742	782.658
72.593	13.581	1040.032	781.723
73.607	13.605	1038.836	780.865
74.622	13.590	1038.175	780.231
75.636	13.642	1037.092	779.591
76.651	13.594	1036.038	778.504
77.666	13.572	1035.699	778.075
78.680	13.579	1034.664	777.267
79.695	13.570	1034.164	776.777
80.709	13.637	1033.738	776.701
81.724	13.607	1032.802	775.791
82.739	13.618	1032.355	775.437
83.753	13.645	1031.551	774.889
84.768	13.770	1030.266	774.440
85.782	13.782	1029.771	774.055
86.797	13.778	1028.713	773.173
87.812	13.881	1027.713	772.835
88.826	13.775	1027.211	771.895
89.841	13.748	1026.215	770.954
90.855	13.707	1025.413	770.089
91.870	13.785	1024.734	769.873
92.884	14.004	1023.632	769.993
93.899	13.797	1023.037	768.520
94.914	13.753	1022.678	767.980
95.928	13.875	1021.613	767.676
96.943	13.982	1020.900	767.567
97.957	13.969	1020.122	766.855
98.972	13.759	1019.245	765.155
99.987	13.736	1019.240	764.980
101.001	13.716	1018.156	764.005
102.016	13.855	1017.262	763.907
103.030	13.794	1016.216	762.772
104.045	13.833	1014.855	761.865
105.060	13.805	1013.913	760.961
106.074	13.745	1013.447	760.268
107.089	13.773	1012.179	759.378
108.103	13.689	1011.342	758.297
109.118	13.747	1010.448	757.826
110.133	13.786	1009.546	757.263
111.147	13.619	1009.135	756.125
112.162	13.685	1008.470	755.858
113.176	13.755	1006.862	754.907
114.191	13.856	1006.079	754.710
115.206	13.734	1005.528	753.679
116.220	13.876	1004.401	753.409
117.235	13.830	1003.237	752.260
118.249	13.835	1002.485	751.654
119.264	13.748	1001.659	750.573
120.279	13.716	1000.698	749.643
121.293	13.734	999.898	749.061
122.308	13.749	999.425	748.708
123.322	13.682	998.212	747.429
124.337	13.684	997.342	746.720
125.352	13.796	995.892	746.073
126.366	13.739	995.293	745.301
127.381	13.723	994.202	744.346
128.395	13.731	992.615	743.128
129.410	13.565	992.405	742.165
130.424	13.836	990.571	741.935
131.439	13.624	990.399	740.795
132.454	13.647	989.443	740.117
133.468	13.826	988.133	739.872
134.483	13.843	987.776	739.614
135.497	13.684	987.404	738.562
136.512	13.746	986.448	738.056
137.527	13.736	985.940	737.564
138.541	13.704	984.670	736.410
139.556	13.773	984.027	736.167
140.570	13.683	983.443	735.270
141.585	13.894	982.223	735.227
142.600	13.869	982.093	734.951
143.614	13.795	981.258	733.933
144.629	13.849	980.344	733.426
145.643	13.963	979.726	733.402
146.658	13.950	978.237	732.164
147.673	13.991	977.643	731.837
148.687	13.928	977.057	731.056
149.702	14.001	975.775	730.352
150.716	13.833	975.356	729.233
151.731	13.954	974.274	728.894
152.746	13.854	973.911	728.118
153.760	13.890	973.105	727.607
154.775	14.031	971.669	727.088
155.789	14.065	970.898	726.596
156.804	13.916	970.118	725.297
157.819	13.974	969.760	725.216
158.833	14.015	969.041	724.793
159.848	14.058	968.477	724.495
160.862	13.984	967.708	723.534
161.877	14.025	966.807	722.974
162.892	14.044	965.783	722.229
163.906	14.070	964.899	721.614
164.921	14.049	964.198	720.937
165.935	13.952	963.012	719.566
166.950	14.024	962.190	719.200
167.964	14.044	961.790	718.925
168.979	13.984	960.574	717.692
169.994	14.057	959.453	717.106
171.008	14.016	958.874	716.435
172.023	14.166	957.744	716.173
173.037	14.168	956.887	715.473
174.052	14.175	956.159	714.896
175.067	14.237	955.585	714.673
176.081	14.237	954.669	713.924
177.096	14.047	953.903	712.471
178.110	14.032	953.304	711.898
179.125	14.282	951.826	711.800
180.140	14.198	951.657	711.250
181.154	14.120	950.973	710.344
182.169	14.142	950.362	709.919
183.183	14.262	949.698	709.872
184.198	14.272	948.873	709.235
185.213	14.422	948.271	709.363
186.227	14.305	947.243	708.032
187.242	14.338	947.028	707.947
188.256	14.388	946.179	707.465
189.271	14.358	945.529	706.789
190.286	14.477	944.542	706.494
191.300	14.331	943.851	705.293
192.315	14.361	943.197	704.870
193.329	14.220	942.402	703.619
194.344	14.349	941.732	703.601
195.359	14.299	941.166	702.903
196.373	14.432	940.753	703.094
197.388	14.362	940.066	702.224
198.402	14.475	939.748	702.401
199.417	14.524	939.447	702.319
200.432	14.487	938.425	701.337
201.446	14.542	937.992	701.184
202.461	14.627	937.683	701.248
203.475	14.698	936.981	700.958
204.490	14.762	936.272	700.635
205.504	14.572	935.733	699.371
206.519	14.647	934.774	698.907
207.534	14.603	933.878	697.992
208.548	14.642	933.081	697.498
209.563	14.528	933.011	696.906
210.577	14.591	931.879	696.263
211.592	14.538	931.535	695.724
212.607	14.779	930.555	695.933
213.621	14.833	930.124	695.776
214.636	14.669	929.539	694.595
215.650	14.684	929.130	694.289
216.665	14.749	928.065	693.699
217.680	14.727	927.809	693.357
218.694	14.847	926.893	693.111
219.709	14.847	926.555	692.793
220.723	14.897	925.555	692.192
221.738	14.732	925.110	691.116
222.753	14.804	924.245	690.705
223.767	14.903	923.495	690.492
224.782	14.759	923.163	689.590
225.796	14.863	922.265	689.286
226.811	14.938	921.511	688.973
227.826	15.004	920.667	688.549
228.840	14.862	920.047	687.444
229.855	14.832	919.512	686.859
230.869	14.984	918.493	686.659
231.884	15.038	917.892	686.371
232.899	15.006	917.330	685.758
233.913	14.837	916.613	684.472
234.928	14.896	915.873	684.100
235.942	14.995	915.283	684.002
236.957	14.850	914.383	682.677
237.972	14.860	913.810	682.229
238.986	14.955	913.385	682.241
240.001	15.053	912.789	682.136
241.015	14.857	912.283	680.896
242.030	15.036	911.193	680.751
243.045	15.066	910.819	680.535
244.059	15.207	909.874	680.341
245.074	15.156	909.658	679.911
246.088	14.994	909.004	678.707
247.103	15.128	908.065	678.485
248.117	15.180	907.560	678.261
249.132	15.142	907.194	677.772
250.147	15.360	906.129	677.796
251.161	15.162	905.295	676.315
252.176	15.266	904.827	676.326
253.190	15.463	904.198	676.589
254.205	15.429	903.626	675.965
255.220	15.386	902.745	675.073
256.234	15.511	902.054	674.999
257.249	15.483	901.406	674.341
258.263	15.418	901.154	673.834
259.278	15.450	900.356	673.304
260.293	15.355	900.048	672.635
261.307	15.533	899.322	672.744
262.322	15.403	898.951	671.886
263.336	15.587	898.160	671.971
264.351	15.630	897.726	671.762
265.366	15.541	896.870	670.706
266.380	15.696	895.947	670.572
267.395	15.630	895.520	669.933
268.409	15.688	894.577	669.399
269.424	15.595	893.868	668.439
270.439	15.648	893.167	668.066
271.453	15.633	892.499	667.448
272.468	15.597	891.655	666.612
273.482	15.669	891.040	666.381
274.497	15.593	890.726	665.785
275.512	15.764	889.472	665.468
276.526	15.655	889.289	664.840
277.541	15.807	888.371	664.694
278.555	15.612	888.035	663.614
279.570	15.790	887.131	663.582
280.585	15.810	886.445	663.091
281.599	15.886	886.056	663.039
282.614	15.876	885.464	662.496
283.628	15.887	884.620	661.850
284.643	15.879	884.267	661.499
285.657	15.817	883.907	660.927
286.672	15.913	883.275	660.772
287.687	15.825	882.933	660.110
288.701	15.951	882.096	659.921
289.716	15.941	881.205	659.159
290.730	15.803	880.984	658.393
291.745	15.935	880.401	658.417
292.760	16.057	879.365	658.058
293.774	16.002	879.042	657.546
294.789	16.166	878.266	657.543
295.803	16.038	877.632	656.514
296.818	15.969	877.500	656.089
297.833	16.060	876.393	655.557
298.847	15.995	875.700	654.726
299.862	16.128	874.853	654.553
300.876	16.070	874.244	653.813
301.891	16.042	873.456	653.058
302.906	16.119	873.265	653.157
303.920	16.277	872.040	652.792
304.935	16.238	871.573	652.234
305.949	16.265	871.255	652.045
306.964	16.314	870.208	651.393
307.979	16.251	869.772	650.765
308.993	16.248	869.450	650.454
310.008	16.248	868.683	649.822
311.022	16.453	868.106	650.121
312.037	16.323	867.805	649.340
313.052	16.390	867.432	649.262
314.066	16.293	867.065	648.557
315.081	16.345	866.036	647.929
316.095	16.393	865.313	647.513
317.110	16.321	865.172	647.076
318.125	16.323	864.248	646.333
319.139	16.256	863.846	645.721
320.154	16.254	863.653	645.511
321.168	16.498	862.724	645.691
322.183	16.461	862.058	644.994
323.197	16.355	862.097	644.561
324.212	16.541	861.118	644.481
325.227	16.409	860.645	643.568
326.241	16.407	859.892	642.941
327.256	16.397	859.482	642.541
328.270	16.423	858.770	642.049
329.285	16.320	858.461	641.369
330.300	16.508	857.758	641.503
331.314	16.482	857.080	640.841
332.329	16.487	856.041	640.024
333.343	16.587	855.322	639.810
334.358	16.515	855.497	639.611
335.373	16.551	855.012	639.329
336.387	16.589	854.419	638.970
337.402	16.795	853.556	639.046
338.416	16.702	852.953	638.186
339.431	16.746	852.433	637.909
340.446	16.595	851.939	636.915
341.460	16.749	851.222	636.900
342.475	16.757	851.024	636.724
343.489	16.718	849.998	635.756
344.504	16.763	849.811	635.728
345.519	17.085	848.730	636.072
346.533	16.929	848.411	635.190
347.548	16.959	848.264	635.137
348.562	16.864	847.762	634.350
349.577	16.754	847.312	633.544
350.592	16.769	846.820	633.176
351.606	16.853	845.979	632.807
352.621	16.925	845.190	632.430
353.635	16.826	845.233	632.034
354.650	16.892	844.756	631.867
355.665	16.907	844.400	631.601
356.679	16.867	843.847	630.983
357.694	16.872	843.145	630.423
358.708	16.898	842.597	630.054
359.723	17.065	842.201	630.323
360.738	16.946	841.532	629.322
361.752	16.956	841.009	628.914
362.767	17.039	840.617	628.871
363.781	17.051	840.147	628.508
364.796	17.058	839.851	628.257
365.810	17.106	839.153	627.858
366.825	17.195	839.137	628.118
367.840	17.056	838.834	627.322
368.854	17.112	838.254	627.041
369.869	17.142	837.785	626.747
370.883	17.241	837.194	626.612
371.898	17.315	836.016	625.949
372.913	17.374	835.374	625.630
373.927	17.399	835.089	625.453
374.942	17.276	834.508	624.508
375.956	17.375	834.070	624.490
376.971	17.386	833.314	623.908
377.986	17.297	832.530	622.939
379.000	17.428	832.103	623.046
380.015	17.477	831.533	622.742
381.029	17.554	831.041	622.601
382.044	17.452	830.567	621.817
383.059	17.421	830.017	621.237
384.073	17.408	829.850	621.009
385.088	17.529	829.175	620.893
386.102	17.472	828.435	620.073
387.117	17.539	827.783	619.775
388.132	17.418	827.387	618.985
389.146	17.609	827.009	619.343
390.161	17.555	826.788	618.926
391.175	17.609	826.088	618.544
392.190	17.605	825.867	618.307
393.205	17.541	825.357	617.640
394.219	17.564	824.916	617.337
395.234	17.611	824.652	617.257
396.248	17.711	823.847	616.960
397.263	17.617	823.164	616.055
398.278	17.555	823.050	615.690
399.292	17.504	822.657	615.158
400.307	17.681	821.790	615.095
401.321	17.680	821.878	615.101
402.336	17.655	821.282	614.511
403.350	17.743	820.804	614.415
404.365	17.598	820.692	613.754
405.380	17.589	820.092	613.221
406.394	17.831	819.677	613.727
407.409	17.647	819.183	612.642
408.423	17.735	818.718	612.554
409.438	17.893	817.847	612.415
410.453	17.821	817.642	611.950
411.467	17.776	817.344	611.513
412.482	17.981	816.688	611.699
413.496	17.900	816.258	611.035
414.511	17.984	815.394	610.634
415.526	17.939	815.526	610.519
416.540	18.118	815.014	610.721
417.555	18.077	814.673	610.265
418.569	18.080	814.090	609.786
419.584	17.918	813.802	608.937
420.599	17.953	813.292	608.627
421.613	115.505	1300.412	1492.666
422.628	100.028	1371.319	1492.741
