DTS Sentinel unit serial number:	SN413079Multiplexer serial number:	ORYXHardware model number:	OX4-SRSoftware version number:	ORYX F/W v4.00 Oryx Data Collector v3.7.2.0data status	okinstallation	princeton_trtdifferential loss correction	single-endedforward channel	channel 3reverse channel	N/Adate	2019/09/12time	08:54:11forward acquisition time	60.00reverse acquisition time	0.00gamma	496.2192k internal	0.2308k external	0.2308temperature offset calibration	1.0033default loss term (dB/km)	0.3790temperature slope calibration	1.0000multiplexer offset coefficient	1.0000multiplexer slope coefficient	1.0000fibre end	0.00T internal ref (°C)	34.06T ext. ref 1 (°C)	1.75T ext. ref 2 (°C)	30.84length (m)	temperature (°C)	Stokes	anti-Stokes-747.200	-153.804	0.186	0.013
-746.185	0.244	-0.172	0.124
-745.171	-117.699	0.133	-0.024
-744.156	-200.000	0.257	-0.001
-743.142	-73.189	0.065	-0.024
-742.127	-116.595	0.195	0.036
-741.112	201.679	-0.032	0.049
-740.098	-31.013	0.050	-0.029
-739.083	-84.014	0.253	0.082
-738.069	384.352	-0.153	0.321
-737.054	-200.000	0.026	-0.143
-736.039	534.629	0.135	0.326
-735.025	-181.479	0.238	-0.005
-734.010	-11.962	-0.115	0.077
-732.996	-78.937	0.289	0.100
-731.981	456.044	0.113	-0.255
-730.966	-200.000	-0.063	-0.367
-729.952	-16.649	-0.297	-0.191
-728.937	58.956	-0.233	0.233
-727.923	65.706	0.258	0.265
-726.908	30.409	-0.121	0.105
-725.894	-63.727	-0.478	0.199
-724.879	800.000	-0.092	0.265
-723.864	-200.000	-0.037	-0.212
-722.850	-200.000	0.043	-0.223
-721.835	-126.559	-0.207	0.031
-720.821	594.315	-0.137	-0.344
-719.806	-200.000	-0.008	-0.155
-718.791	56.338	-0.123	-0.121
-717.777	800.000	-0.051	0.180
-716.762	-97.873	-0.186	-0.049
-715.748	-38.343	0.232	0.125
-714.733	417.068	-0.127	0.276
-713.718	-18.647	-0.113	0.071
-712.704	692.818	0.042	-0.113
-711.689	363.056	-0.143	-0.291
-710.675	6.559	0.146	0.110
-709.660	-200.000	0.022	0.169
-708.645	3.755	0.208	0.154
-707.631	-200.000	-0.001	-0.153
-706.616	-200.000	0.040	-0.326
-705.602	614.120	0.078	0.199
-704.587	-200.000	-0.031	-0.141
-703.572	399.808	0.074	0.157
-702.558	-200.000	-0.014	-0.173
-701.543	247.096	-0.154	0.263
-700.529	-200.000	-0.019	0.109
-699.514	460.017	-0.075	0.169
-698.499	760.145	0.045	-0.124
-697.485	-64.361	-0.196	-0.081
-696.470	-92.145	0.378	-0.108
-695.456	741.960	-0.036	0.099
-694.441	-86.061	-0.307	-0.096
-693.426	447.132	0.036	-0.079
-692.412	-200.000	0.040	-0.270
-691.397	-52.147	0.208	0.098
-690.383	-165.360	0.117	0.005
-689.368	-200.000	0.046	0.216
-688.354	216.528	-0.022	0.036
-687.339	-75.147	-0.302	-0.110
-686.324	-62.173	0.064	-0.027
-685.310	-200.000	-0.069	-0.389
-684.295	-48.503	-0.169	0.083
-683.281	235.847	0.075	0.126
-682.266	149.160	-0.036	0.050
-681.251	-200.000	-0.022	0.397
-680.237	-102.867	0.345	0.083
-679.222	692.514	0.056	0.148
-678.208	158.652	0.135	-0.190
-677.193	101.631	-0.064	-0.076
-676.178	338.944	-0.057	-0.112
-675.164	-128.062	-0.235	0.034
-674.149	26.930	0.196	-0.167
-673.135	-200.000	-0.007	0.452
-672.120	-200.000	-0.036	0.216
-671.105	307.624	-0.093	-0.177
-670.091	-3.828	-0.105	-0.074
-669.076	-121.558	0.167	0.028
-668.062	-137.496	0.054	-0.006
-667.047	29.986	-0.252	-0.217
-666.032	-23.984	-0.132	-0.080
-665.018	-120.599	-0.064	0.011
-664.003	98.246	-0.210	-0.245
-662.989	-66.435	-0.619	0.249
-661.974	103.916	0.059	-0.070
-660.959	-67.601	-0.200	0.080
-659.945	-132.495	-0.370	-0.048
-658.930	173.771	0.073	0.107
-657.916	-47.245	0.144	-0.071
-656.901	-33.717	0.278	-0.155
-655.886	-173.068	-0.215	0.007
-654.872	-112.904	-0.048	0.010
-653.857	375.374	-0.104	-0.214
-652.843	-16.702	0.055	-0.035
-651.828	800.000	-0.067	-0.237
-650.814	-29.889	-0.403	0.233
-649.799	130.432	-0.046	-0.060
-648.784	-32.886	0.311	0.175
-647.770	-200.000	-0.012	0.108
-646.755	-200.000	-0.049	-0.394
-645.741	-127.291	0.203	0.030
-644.726	-144.100	0.121	-0.011
-643.711	-17.399	-0.294	0.187
-642.697	800.000	0.092	0.324
-641.682	53.451	0.079	-0.076
-640.668	-200.000	0.018	0.326
-639.653	-40.720	0.131	-0.069
-638.638	419.147	-0.033	-0.071
-637.624	525.993	0.057	0.135
-636.609	-200.000	-0.043	-0.374
-635.595	-77.138	0.100	0.035
-634.580	0.163	-0.105	-0.076
-633.565	516.912	0.170	-0.403
-632.551	-138.194	0.262	-0.029
-631.536	-98.615	0.289	0.075
-630.522	489.520	0.134	0.309
-629.507	-200.000	-0.052	-0.316
-628.492	800.000	0.047	-0.161
-627.478	81.551	0.027	0.029
-626.463	213.485	0.087	0.139
-625.449	-132.136	0.044	0.006
-624.434	800.000	0.123	-0.505
-623.419	160.964	-0.039	0.056
-622.405	97.046	0.150	0.174
-621.390	-98.460	-0.377	-0.097
-620.376	-200.000	0.035	0.320
-619.361	-55.411	0.113	-0.051
-618.346	-26.558	-0.287	-0.170
-617.332	-200.000	-0.006	-0.042
-616.317	-165.502	0.051	-0.002
-615.303	-79.566	-0.084	-0.029
-614.288	625.163	0.101	-0.257
-613.273	178.745	-0.102	-0.151
-612.259	-200.000	0.011	0.307
-611.244	62.866	0.124	0.126
-610.230	800.000	-0.103	0.354
-609.215	-200.000	0.014	0.097
-608.201	29.390	-0.052	-0.045
-607.186	-200.000	0.011	0.068
-606.171	764.823	-0.094	0.257
-605.157	-186.021	0.217	-0.003
-604.142	-26.839	0.238	0.141
-603.128	-64.973	0.170	0.069
-602.113	-105.023	0.110	-0.026
-601.098	-200.000	-0.008	0.050
-600.084	800.000	-0.082	-0.328
-599.069	-112.325	-0.320	0.065
-598.055	604.525	-0.063	-0.158
-597.040	8.703	-0.076	0.058
-596.025	207.322	-0.011	-0.017
-595.011	-148.129	-0.401	-0.034
-593.996	-174.281	-0.056	-0.002
-592.982	-11.619	0.129	-0.086
-591.967	-173.199	-0.308	-0.010
-590.952	-200.000	0.012	0.104
-589.938	175.538	-0.106	-0.155
-588.923	-200.000	-0.064	-0.507
-587.909	43.465	-0.345	0.318
-586.894	800.000	0.060	0.202
-585.879	56.831	-0.052	-0.051
-584.865	-143.054	0.311	-0.030
-583.850	-200.000	0.091	-0.418
-582.836	117.318	0.059	-0.074
-581.821	157.526	-0.258	0.361
-580.806	-102.152	-0.219	0.053
-579.792	-59.298	-0.363	-0.158
-578.777	-200.000	0.015	-0.162
-577.763	755.389	0.142	0.388
-576.748	-85.016	-0.204	0.064
-575.733	-40.683	0.195	0.102
-574.719	-33.963	-0.262	-0.146
-573.704	68.326	-0.264	-0.273
-572.690	-84.444	-0.301	-0.096
-571.675	-34.584	-0.246	-0.136
-570.661	-32.070	-0.374	0.211
-569.646	-29.113	0.138	-0.080
-568.631	103.430	0.169	-0.201
-567.617	-155.584	-0.324	-0.021
-566.602	800.000	0.043	0.162
-565.588	-93.625	0.208	0.058
-564.573	-200.000	0.032	-0.251
-563.558	76.195	0.127	0.136
-562.544	47.012	-0.067	0.063
-561.529	-200.000	0.026	-0.125
-560.515	6.198	-0.130	0.097
-559.500	-47.791	-0.051	-0.025
-558.485	78.977	-0.194	-0.210
-557.471	13.783	-0.175	-0.137
-556.456	-61.010	0.184	-0.078
-555.442	52.472	-0.111	-0.107
-554.427	-68.891	-0.030	0.012
-553.412	-123.012	0.027	-0.004
-552.398	88.119	-0.131	-0.146
-551.383	-121.021	-0.209	0.035
-550.369	364.229	0.095	0.192
-549.354	-200.000	0.003	-0.037
-548.339	-200.000	-0.010	0.321
-547.325	-200.000	0.021	0.178
-546.310	674.386	0.081	-0.213
-545.296	26.542	-0.277	-0.234
-544.281	242.799	0.124	0.210
-543.266	0.860	0.010	-0.007
-542.252	276.802	0.052	0.094
-541.237	-200.000	0.008	0.278
-540.223	-85.066	-0.173	-0.055
-539.208	-104.200	0.194	0.046
-538.193	433.044	-0.170	0.372
-537.179	800.000	-0.009	-0.037
-536.164	-200.000	-0.074	-0.451
-535.150	50.715	0.190	0.181
-534.135	-88.067	-0.198	-0.060
-533.121	-200.000	0.069	-0.309
-532.106	390.093	0.060	0.126
-531.091	-91.216	0.247	-0.071
-530.077	-163.134	0.174	-0.008
-529.062	800.000	0.074	0.261
-528.048	330.568	0.035	-0.067
-527.033	62.111	-0.239	-0.241
-526.018	132.884	0.207	0.269
-525.004	800.000	-0.072	0.205
-523.989	-12.717	0.107	-0.070
-522.975	800.000	0.031	-0.132
-521.960	-94.217	-0.291	0.080
-520.945	43.602	-0.125	0.115
-519.931	11.307	-0.137	0.106
-518.916	-22.073	-0.269	0.165
-517.902	-17.815	-0.281	0.178
-516.887	223.374	0.088	-0.143
-515.872	-95.803	0.157	-0.042
-514.858	-192.875	0.472	-0.004
-513.843	10.481	-0.214	-0.164
-512.829	-200.000	0.009	-0.172
-511.814	-200.000	-0.050	-0.304
-510.799	-92.722	-0.291	-0.082
-509.785	-112.290	-0.194	0.039
-508.770	800.000	-0.064	0.259
-507.756	-7.268	-0.074	-0.051
-506.741	-200.000	-0.041	0.195
-505.726	-101.878	-0.071	-0.017
-504.712	-46.962	0.334	0.164
-503.697	87.334	0.242	0.270
-502.683	350.924	0.084	-0.168
-501.668	62.366	0.054	0.054
-500.653	141.480	0.210	0.280
-499.639	578.725	-0.092	-0.227
-498.624	-200.000	0.009	0.119
-497.610	412.352	0.112	0.239
-496.595	188.216	-0.270	0.407
-495.581	602.151	0.157	-0.393
-494.566	800.000	-0.097	-0.281
-493.551	-162.698	0.333	-0.016
-492.537	-74.934	-0.232	-0.084
-491.522	8.235	0.232	0.175
-490.508	-19.367	-0.225	0.140
-489.493	-67.963	-0.203	0.080
-488.478	150.224	0.260	-0.354
-487.464	344.622	-0.075	-0.147
-486.449	800.000	0.027	0.093
-485.435	22.072	-0.301	0.247
-484.420	800.000	0.045	0.174
-483.405	-32.302	-0.245	-0.138
-482.391	-44.365	-0.118	0.059
-481.376	-37.956	0.071	0.038
-480.362	-200.000	-0.019	-0.315
-479.347	137.273	-0.267	-0.352
-478.332	111.588	0.171	-0.208
-477.318	800.000	0.033	-0.108
-476.303	-58.551	0.026	0.011
-475.289	-200.000	0.005	0.106
-474.274	-200.000	-0.034	-0.339
-473.259	-200.000	-0.022	-0.146
-472.245	800.000	0.107	0.436
-471.230	186.392	0.122	0.182
-470.216	346.116	-0.029	0.058
-469.201	-200.000	-0.007	0.439
-468.186	27.561	0.130	-0.110
-467.172	-66.053	0.109	-0.044
-466.157	-121.545	0.199	-0.033
-465.143	-94.135	-0.299	-0.082
-464.128	800.000	-0.074	-0.248
-463.113	73.229	0.175	-0.184
-462.099	-37.972	-0.253	0.135
-461.084	230.583	-0.125	-0.205
-460.070	-149.369	0.182	-0.015
-459.055	-105.957	0.534	0.121
-458.040	-79.551	0.064	-0.022
-457.026	12.073	-0.110	-0.085
-456.011	-121.082	-0.106	0.018
-454.997	800.000	-0.065	0.255
-453.982	-98.310	-0.155	-0.040
-452.968	-95.625	-0.082	0.022
-451.953	468.215	0.018	0.040
-450.938	44.746	-0.031	0.028
-449.924	-63.154	-0.354	-0.147
-448.909	-169.755	-0.119	0.004
-447.895	136.128	-0.039	-0.051
-446.880	-200.000	0.015	-0.145
-445.865	33.874	-0.228	-0.199
-444.851	800.000	0.103	-0.434
-443.836	689.411	0.109	0.286
-442.822	85.214	0.078	-0.086
-441.807	-60.457	0.318	-0.136
-440.792	800.000	-0.073	0.203
-439.778	-200.000	0.034	-0.281
-438.763	-78.435	0.654	-0.225
-437.749	88.008	-0.063	-0.070
-436.734	-107.472	-0.209	-0.046
-435.719	-118.868	-0.224	0.040
-434.705	800.000	0.061	0.255
-433.690	13.779	-0.124	0.096
-432.676	713.193	0.060	-0.159
-431.661	-94.853	-0.232	0.063
-430.646	-99.362	0.065	0.016
-429.632	-108.612	-0.171	0.037
-428.617	-200.000	-0.055	-0.299
-427.603	-200.000	-0.004	0.172
-426.588	19.049	-0.167	-0.134
-425.573	-200.000	-0.043	0.202
-424.559	48.678	0.188	-0.177
-423.544	-11.914	0.097	0.064
-422.530	172.100	0.099	-0.143
-421.515	-200.000	0.048	-0.275
-420.500	316.495	0.074	0.141
-419.486	-15.499	0.404	-0.259
-418.471	-28.629	-0.171	0.099
-417.457	-200.000	-0.014	0.232
-416.442	234.904	0.180	-0.297
-415.428	77.265	-0.085	-0.091
-414.413	-66.719	-0.340	-0.135
-413.398	138.321	-0.073	0.096
-412.384	-144.957	0.089	0.008
-411.369	-200.000	0.008	-0.103
-410.355	310.990	0.120	0.226
-409.340	254.124	-0.179	0.308
-408.325	800.000	-0.047	0.154
-407.311	83.434	-0.086	0.095
-406.296	90.873	-0.092	0.104
-405.282	-62.520	0.099	-0.041
-404.267	44.173	-0.224	-0.206
-403.252	-1.235	0.164	-0.116
-402.238	-9.215	-0.052	0.035
-401.223	-200.000	0.028	-0.127
-400.209	-200.000	0.002	-0.234
-399.194	62.572	-0.091	-0.091
-398.179	-54.107	-0.156	0.071
-397.165	-107.240	-0.179	0.039
-396.150	-59.193	0.219	0.095
-395.136	529.416	0.100	-0.238
-394.121	-110.332	0.284	-0.059
-393.106	-200.000	-0.018	-0.307
-392.092	-59.351	-0.172	0.074
-391.077	328.934	-0.050	0.095
-390.063	-200.000	-0.037	0.231
-389.048	438.119	0.098	0.215
-388.033	-200.000	-0.087	-0.000
-387.019	61.623	0.080	0.080
-386.004	277.460	-0.119	0.213
-384.990	405.691	-0.098	0.207
-383.975	-200.000	0.030	-0.187
-382.960	553.260	-0.159	-0.383
-381.946	38.749	0.166	0.149
-380.931	9.071	-0.053	0.040
-379.917	85.420	0.150	-0.165
-378.902	-23.141	-0.158	0.095
-377.888	-39.692	0.238	-0.125
-376.873	-52.006	-0.206	0.096
-375.858	-60.036	-0.235	-0.101
-374.844	-113.584	0.395	0.077
-373.829	-96.653	-0.339	0.089
-372.815	376.315	0.012	-0.024
-371.800	-33.427	0.365	-0.202
-370.785	800.000	0.015	-0.046
-369.771	-200.000	0.002	0.064
-368.756	131.839	0.165	-0.212
-367.742	-43.057	-0.131	-0.067
-366.727	-200.000	-0.013	0.116
-365.712	-195.042	0.275	0.002
-364.698	-200.000	0.073	0.468
-363.683	6.008	-0.185	-0.137
-362.669	-191.438	0.045	-0.000
-361.654	-200.000	-0.018	-0.189
-360.639	14.549	-0.275	-0.215
-359.625	-18.267	-0.139	0.087
-358.610	2.276	-0.083	-0.060
-357.596	-39.811	0.482	0.252
-356.581	-200.000	-0.105	0.000
-355.566	-135.023	-0.251	0.030
-354.552	-200.000	-0.011	0.059
-353.537	-162.520	0.104	-0.005
-352.523	-131.154	0.141	0.019
-351.508	208.415	0.081	-0.126
-350.493	-106.696	-0.231	-0.051
-349.479	233.702	-0.075	0.124
-348.464	-123.218	-0.233	0.037
-347.450	81.706	0.075	0.081
-346.435	-200.000	-0.017	0.210
-345.420	-112.430	-0.203	0.041
-344.406	61.846	-0.031	-0.031
-343.391	-53.786	0.251	0.115
-342.377	22.096	-0.116	0.095
-341.362	463.677	0.102	0.229
-340.348	-200.000	0.005	-0.025
-339.333	-104.231	0.237	-0.055
-338.318	-42.650	-0.156	-0.080
-337.304	94.086	-0.158	0.179
-336.289	-79.038	0.150	0.051
-335.275	-16.393	-0.140	-0.089
-334.260	-200.000	-0.036	-0.291
-333.245	209.238	0.084	0.132
-332.231	-151.479	-0.268	0.020
-331.216	-200.000	-0.004	0.189
-330.202	121.738	-0.295	0.368
-329.187	800.000	0.084	0.265
-328.172	-75.586	0.345	0.123
-327.158	-81.628	0.138	0.045
-326.143	-140.753	-0.282	0.029
-325.129	-151.682	0.455	-0.034
-324.114	-200.000	-0.015	0.099
-323.099	-10.316	0.072	-0.048
-322.085	422.514	-0.114	-0.245
-321.070	-64.861	0.110	-0.044
-320.056	-7.844	0.032	0.021
-319.041	-70.073	-0.110	-0.042
-318.026	58.176	-0.129	0.127
-317.012	800.000	0.064	-0.187
-315.997	-127.571	0.168	0.024
-314.983	70.307	0.186	0.192
-313.968	-75.581	-0.086	-0.031
-312.953	-200.000	0.049	0.227
-311.939	800.000	-0.128	0.448
-310.924	-18.065	-0.077	-0.048
-309.910	-58.121	0.100	-0.044
-308.895	-200.000	0.005	0.229
-307.880	-109.625	-0.367	0.077
-306.866	111.388	0.059	0.072
-305.851	15.679	-0.052	-0.041
-304.837	-200.000	0.008	-0.157
-303.822	-148.630	0.210	0.017
-302.807	-200.000	0.029	-0.277
-301.793	-38.572	0.189	-0.100
-300.778	-130.196	-0.320	-0.044
-299.764	240.933	-0.062	-0.103
-298.749	70.428	-0.224	-0.231
-297.735	165.183	0.319	-0.451
-296.720	190.469	0.094	-0.140
-295.705	16.389	0.099	0.078
-294.691	-17.891	-0.037	0.023
-293.676	88.087	0.196	-0.218
-292.662	-200.000	-0.008	0.280
-291.647	-200.000	-0.059	0.409
-290.632	422.583	0.061	-0.131
-289.618	140.849	0.149	0.197
-288.603	800.000	0.016	-0.068
-287.589	-200.000	0.005	0.089
-286.574	-60.845	0.222	-0.094
-285.559	-87.506	-0.502	-0.152
-284.545	-200.000	-0.055	0.363
-283.530	257.796	0.162	-0.278
-282.516	-175.139	0.310	-0.009
-281.501	39.164	0.114	-0.102
-280.486	-89.181	-0.203	-0.060
-279.472	800.000	0.045	0.153
-278.457	33.803	0.131	0.114
-277.443	-158.208	0.059	-0.003
-276.428	-102.339	0.168	-0.040
-275.413	-104.856	-0.401	0.092
-274.399	-62.715	0.198	0.082
-273.384	-85.262	-0.180	0.056
-272.370	789.436	-0.061	-0.167
-271.355	-200.000	-0.047	-0.210
-270.340	-137.954	-0.046	-0.005
-269.326	800.000	0.068	-0.232
-268.311	800.000	0.053	-0.174
-267.297	-200.000	0.041	0.202
-266.282	118.131	-0.233	0.287
-265.267	-180.300	0.349	-0.007
-264.253	-40.984	-0.327	-0.169
-263.238	-1.513	0.300	-0.211
-262.224	1.607	0.066	0.048
-261.209	-14.139	-0.091	0.058
-260.195	52.386	0.176	-0.168
-259.180	240.224	0.187	0.311
-258.165	-36.018	0.135	0.073
-257.151	96.064	-0.053	0.061
-256.136	45.240	-0.008	0.008
-255.122	-17.519	0.043	-0.027
-254.107	-200.000	-0.001	-0.116
-253.092	-200.000	-0.049	0.340
-252.078	-40.359	-0.040	-0.021
-251.063	-79.878	0.472	-0.158
-250.049	800.000	0.126	-0.454
-249.034	-200.000	0.008	-0.163
-248.019	247.738	-0.192	0.324
-247.005	313.128	-0.032	-0.060
-245.990	-32.424	0.268	0.149
-244.976	-200.000	0.028	-0.412
-243.961	-200.000	-0.022	0.343
-242.946	-137.353	0.283	0.032
-241.932	-43.861	-0.318	0.159
-240.917	56.387	0.234	-0.226
-239.903	-4.833	-0.286	-0.197
-238.888	-200.000	-0.008	0.225
-237.873	-200.000	-0.006	-0.184
-236.859	-87.177	0.171	0.052
-235.844	18.938	0.237	-0.190
-234.830	121.157	-0.198	0.246
-233.815	-14.281	-0.120	0.077
-232.800	-51.259	-0.285	0.133
-231.786	430.070	0.115	-0.247
-230.771	468.904	0.062	-0.138
-229.757	-200.000	-0.015	-0.091
-228.742	130.574	-0.135	0.173
-227.727	397.306	-0.048	0.100
-226.713	-200.000	0.070	0.353
-225.698	-195.745	0.293	0.002
-224.684	-99.421	0.280	0.070
-223.669	-20.878	-0.099	-0.061
-222.655	-92.490	-0.193	-0.054
-221.640	11.252	0.357	0.272
-220.625	81.181	0.031	0.033
-219.611	-200.000	0.037	-0.281
-218.596	371.764	0.122	-0.246
-217.582	-1.192	-0.132	0.093
-216.567	800.000	-0.090	0.322
-215.552	-9.001	0.127	-0.084
-214.538	800.000	0.084	-0.318
-213.523	-200.000	-0.061	0.340
-212.509	114.880	-0.133	-0.162
-211.494	-200.000	-0.034	0.205
-210.479	158.313	-0.033	0.046
-209.465	-140.111	-0.256	-0.027
-208.450	-200.000	-0.029	0.267
-207.436	33.326	-0.158	0.136
-206.421	-143.858	-0.044	-0.004
-205.406	186.302	0.060	0.089
-204.392	-110.166	-0.224	-0.046
-203.377	115.770	0.025	0.030
-202.363	-78.215	-0.167	0.057
-201.348	-200.000	0.011	0.187
-200.333	-48.962	-0.276	0.132
-199.319	-200.000	0.008	-0.168
-198.304	557.366	0.082	0.196
-197.290	-42.703	0.110	0.056
-196.275	-8.119	0.319	-0.214
-195.260	800.000	-0.039	-0.161
-194.246	142.094	0.210	-0.277
-193.231	-63.308	-0.301	-0.123
-192.217	11.916	-0.199	0.152
-191.202	189.018	-0.061	-0.090
-190.187	-200.000	-0.027	-0.287
-189.173	326.028	0.162	0.309
-188.158	800.000	-0.068	-0.231
-187.144	-111.784	0.086	0.017
-186.129	-200.000	0.037	-0.232
-185.114	-200.000	-0.017	0.168
-184.100	-144.179	0.081	-0.008
-183.085	-200.000	-0.035	0.207
-182.071	170.675	-0.073	0.104
-181.056	-200.000	0.064	-0.287
-180.042	-200.000	-0.014	0.127
-179.027	-150.172	-0.185	-0.014
-178.012	158.588	0.097	-0.134
-176.998	42.374	-0.265	0.239
-175.983	-75.551	0.204	0.072
-174.969	-197.364	0.099	0.001
-173.954	800.000	0.098	-0.337
-172.939	-168.499	0.290	0.011
-171.925	14.258	0.438	-0.339
-170.910	-182.553	-0.010	0.000
-169.896	-26.895	0.400	-0.232
-168.881	-75.240	0.290	-0.103
-167.866	800.000	-0.068	0.203
-166.852	-200.000	0.036	0.261
-165.837	-61.275	0.253	0.106
-164.823	42.576	-0.021	0.019
-163.808	-122.464	0.393	-0.064
-162.793	-200.000	-0.071	0.472
-161.779	-200.000	-0.076	0.335
-160.764	-5.761	0.046	-0.031
-159.750	309.843	-0.055	0.102
-158.735	275.709	-0.110	-0.193
-157.720	519.467	0.015	-0.035
-156.706	-170.727	-0.263	-0.009
-155.691	-153.150	0.249	0.017
-154.677	-17.827	-0.236	0.147
-153.662	800.000	-0.063	-0.216
-152.647	800.000	0.060	-0.175
-151.633	176.955	0.082	0.119
-150.618	39.971	-0.070	-0.062
-149.604	-82.367	0.168	0.054
-148.589	177.723	0.133	-0.193
-147.574	-200.000	-0.037	-0.310
-146.560	22.664	0.209	-0.170
-145.545	13.421	-0.134	0.103
-144.531	-60.955	-0.096	0.040
-143.516	108.953	0.132	0.157
-142.502	236.236	-0.162	0.266
-141.487	-136.361	-0.058	0.007
-140.472	6.072	0.058	-0.043
-139.458	-163.460	-0.258	0.012
-138.443	-200.000	0.000	0.100
-137.429	-190.900	0.484	-0.005
-136.414	19.256	0.239	0.190
-135.399	170.432	0.072	0.103
-134.385	-133.197	-0.147	0.018
-133.370	-11.544	-0.187	0.122
-132.356	24.105	0.197	0.161
-131.341	65.772	0.151	-0.152
-130.326	-200.000	-0.046	0.339
-129.312	229.160	-0.105	0.169
-128.297	49.060	-0.202	0.188
-127.283	308.074	0.015	-0.029
-126.268	-161.251	0.196	0.010
-125.253	-98.221	0.268	-0.068
-124.239	-65.273	0.092	0.037
-123.224	-68.999	0.493	0.189
-122.210	-63.077	-0.154	0.063
-121.195	800.000	-0.094	-0.284
-120.180	-200.000	0.005	-0.248
-119.166	-3.928	0.211	0.145
-118.151	-23.687	-0.373	-0.222
-117.137	-20.734	0.265	-0.161
-116.122	-157.228	-0.319	0.019
-115.107	2.503	-0.178	-0.128
-114.093	-200.000	-0.049	0.381
-113.078	-145.292	0.209	-0.019
-112.064	-69.935	0.343	-0.130
-111.049	-70.137	-0.155	0.058
-110.034	172.092	0.205	-0.292
-109.020	41.626	-0.106	-0.095
-108.005	19.270	-0.061	0.048
-106.991	-200.000	0.015	0.066
-105.976	0.236	-0.291	-0.206
-104.962	359.724	-0.030	-0.059
-103.947	800.000	0.052	-0.163
-102.932	-80.421	-0.111	-0.037
-101.918	-200.000	-0.043	0.252
-100.903	387.674	-0.068	-0.139
-99.889	-200.000	-0.018	-0.322
-98.874	-10.441	0.199	0.131
-97.859	-173.228	-0.114	0.003
-96.845	-54.929	-0.018	0.008
-95.830	126.187	-0.068	0.085
-94.816	-200.000	0.006	-0.026
-93.801	-200.000	0.033	0.169
-92.786	-53.853	-0.172	-0.078
-91.772	-14.259	0.074	-0.047
-90.757	120.908	-0.160	-0.198
-89.743	-109.867	-0.462	-0.096
-88.728	-93.985	0.387	0.105
-87.713	201.965	0.026	0.039
-86.699	-47.219	-0.107	0.051
-85.684	800.000	0.019	-0.070
-84.670	-118.891	0.234	-0.041
-83.655	-137.112	0.205	0.023
-82.640	771.890	0.081	0.218
-81.626	-119.290	0.156	0.027
-80.611	150.596	0.157	0.212
-79.597	-120.919	0.369	-0.062
-78.582	319.084	-0.046	-0.087
-77.567	-35.340	0.405	0.218
-76.553	126.964	-0.156	-0.196
-75.538	-200.000	0.039	0.250
-74.524	670.914	0.032	-0.081
-73.509	30.170	0.233	-0.197
-72.494	-200.000	-0.044	-0.332
-71.480	16.492	0.121	-0.094
-70.465	139.543	-0.127	-0.165
-69.451	-200.000	0.014	-0.149
-68.436	472.825	0.065	0.146
-67.422	-103.503	-0.083	-0.019
-66.407	-56.674	0.399	0.175
-65.392	87.183	0.177	-0.194
-64.378	698.733	-0.080	0.207
-63.363	-200.000	0.046	0.368
-62.349	29.084	0.314	0.264
-61.334	78.312	-0.814	-0.860
-60.319	176.659	0.345	0.497
-59.305	-200.000	-0.108	-1.053
-58.290	137.645	0.582	0.754
-57.276	800.000	0.518	1.593
-56.261	-200.000	97.434	578.644
-55.246	541.913	1394.946	3289.829
-54.232	149.725	2606.159	3494.488
-53.217	112.274	2198.712	2630.359
-52.203	44.518	1732.648	1575.001
-51.188	37.193	1545.237	1353.739
-50.173	34.715	1517.986	1312.807
-49.159	53.696	1569.176	1490.183
-48.144	57.317	1587.743	1533.046
-47.130	37.455	1543.253	1353.609
-46.115	34.418	1526.359	1317.791
-45.100	34.107	1524.032	1313.578
-44.086	34.195	1522.138	1312.505
-43.071	34.094	1520.036	1309.943
-42.057	33.966	1519.135	1308.236
-41.042	34.061	1517.186	1307.159
-40.027	34.106	1515.794	1306.215
-39.013	34.222	1513.922	1305.341
-37.998	33.987	1513.266	1303.116
-36.984	34.044	1512.020	1302.379
-35.969	34.047	1510.806	1301.308
-34.954	34.103	1509.369	1300.396
-33.940	34.029	1508.117	1298.763
-32.925	34.099	1506.120	1297.466
-31.911	34.106	1505.096	1296.585
-30.896	34.085	1503.807	1295.280
-29.881	34.138	1502.771	1294.695
-28.867	34.219	1500.803	1293.497
-27.852	34.161	1499.591	1292.010
-26.838	34.083	1498.383	1290.387
-25.823	34.061	1497.104	1289.089
-24.809	34.133	1495.632	1288.255
-23.794	34.014	1494.189	1286.156
-22.779	34.166	1492.384	1285.574
-21.765	34.117	1491.611	1284.529
-20.750	34.176	1490.289	1283.737
-19.736	34.067	1489.448	1282.226
-18.721	34.068	1488.164	1281.079
-17.706	34.056	1486.949	1279.902
-16.692	34.084	1486.100	1279.311
-15.677	34.099	1484.751	1278.193
-14.663	34.039	1483.941	1277.045
-13.648	34.034	1483.176	1276.305
-12.633	33.941	1482.400	1274.959
-11.619	34.002	1481.235	1274.319
-10.604	33.974	1480.857	1273.750
-9.590	34.034	1479.449	1272.892
-8.575	34.097	1478.392	1272.355
-7.560	33.982	1477.939	1271.142
-6.546	33.956	1477.459	1270.511
-5.531	33.930	1476.321	1269.307
-4.517	33.945	1475.190	1268.382
-3.502	34.076	1473.850	1268.057
-2.487	33.937	1473.951	1267.167
-1.473	34.005	1472.667	1266.464
-0.458	33.962	1471.291	1264.943
0.556	34.211	1462.003	1256.292
1.571	31.597	1436.791	1217.536
2.586	28.528	1378.192	1148.591
3.600	27.118	1297.161	1072.647
4.615	25.611	1249.417	1024.499
5.629	21.408	1191.331	953.911
6.644	11.205	1101.420	830.115
7.659	3.182	1058.181	758.058
8.673	1.968	1052.259	747.801
9.688	1.733	1049.451	744.589
10.702	1.711	1047.692	743.166
11.717	1.588	1045.628	741.037
12.731	4.730	1049.611	759.142
13.746	15.074	1064.173	820.543
14.761	23.025	1075.374	868.324
15.775	24.903	1076.387	878.290
16.790	25.173	1076.021	879.236
17.804	24.976	1075.102	877.443
18.819	24.794	1074.760	876.196
19.834	24.904	1074.270	876.258
20.848	25.118	1073.682	876.743
21.863	25.199	1073.258	876.717
22.877	25.110	1072.763	875.799
23.892	25.008	1072.090	874.677
24.907	25.044	1070.930	873.825
25.921	25.166	1070.357	873.878
26.936	25.005	1069.871	872.617
27.950	25.105	1068.147	871.624
28.965	25.052	1067.087	870.422
29.980	24.954	1065.807	868.827
30.994	24.958	1064.707	867.869
32.009	25.003	1064.087	867.509
33.023	25.105	1063.741	867.642
34.038	24.864	1062.632	865.495
35.053	24.862	1061.831	864.758
36.067	25.021	1060.921	864.705
37.082	25.032	1060.206	864.100
38.096	25.065	1059.490	863.598
39.111	25.199	1059.078	863.830
40.126	25.450	1058.028	864.106
41.140	25.218	1057.069	862.132
42.155	24.952	1055.364	859.390
43.169	24.585	1054.417	856.780
44.184	24.584	1053.309	855.799
45.199	24.721	1052.443	855.676
46.213	24.599	1051.480	854.233
47.228	24.574	1050.502	853.244
48.242	24.762	1049.974	853.641
49.257	25.005	1048.814	853.778
50.271	24.972	1048.295	853.124
51.286	25.098	1047.542	853.034
52.301	25.154	1046.823	852.640
53.315	25.270	1045.592	852.116
54.330	25.106	1045.182	850.923
55.344	25.078	1044.159	849.882
56.359	24.965	1043.560	848.785
57.374	25.036	1042.896	848.506
58.388	24.875	1041.925	846.880
59.403	24.870	1040.796	845.864
60.417	24.761	1040.164	844.762
61.432	24.563	1039.859	843.504
62.447	24.629	1038.816	842.893
63.461	24.838	1038.283	843.372
64.476	24.874	1037.405	842.752
65.490	24.822	1036.724	841.880
66.505	24.779	1035.728	840.795
67.520	24.734	1034.868	839.812
68.534	24.824	1034.602	839.946
69.549	24.631	1033.566	838.126
70.563	24.329	1032.136	835.477
71.578	24.329	1031.266	834.700
72.593	24.432	1030.227	834.263
73.607	24.205	1028.910	832.065
74.622	24.203	1028.257	831.453
75.636	24.434	1027.847	832.124
76.651	24.649	1027.439	832.722
77.666	24.489	1026.031	830.766
78.680	24.415	1025.141	829.624
79.695	24.532	1024.540	829.610
80.709	24.544	1024.420	829.493
81.724	24.577	1023.689	828.983
82.739	24.585	1022.803	828.230
83.753	24.636	1021.758	827.544
84.768	24.935	1021.322	828.503
85.782	25.254	1020.670	829.375
86.797	25.447	1020.205	829.817
87.812	25.293	1019.752	828.664
88.826	25.177	1018.383	826.943
89.841	25.201	1017.281	826.083
90.855	25.281	1016.489	825.739
91.870	25.379	1015.941	825.671
92.884	25.255	1014.993	824.254
93.899	25.386	1013.947	823.933
94.914	25.165	1012.727	821.857
95.928	25.293	1012.414	822.118
96.943	25.265	1011.834	821.446
97.957	24.958	1010.478	818.868
98.972	24.798	1009.386	817.179
99.987	24.619	1008.025	815.190
101.001	24.504	1007.721	814.347
102.016	24.942	1007.170	815.826
103.030	25.028	1006.764	815.816
104.045	24.830	1005.670	813.955
105.060	24.742	1004.594	812.613
106.074	24.656	1002.991	810.856
107.089	24.602	1002.644	810.257
108.103	24.979	1001.980	811.358
109.118	25.101	1001.210	811.214
110.133	24.804	999.943	808.774
111.147	24.818	998.871	807.901
112.162	24.674	997.766	806.285
113.176	24.400	997.123	804.459
114.191	24.562	996.279	804.434
115.206	24.543	995.838	803.923
116.220	24.530	993.879	802.212
117.235	24.375	993.440	801.093
118.249	24.406	992.855	800.687
119.264	24.504	991.527	799.983
120.279	24.264	991.256	798.622
121.293	24.216	990.526	797.746
122.308	24.448	989.701	798.050
123.322	24.470	988.812	797.360
124.337	24.422	987.627	796.120
125.352	24.250	986.648	794.495
126.366	23.815	984.808	791.007
127.381	23.602	983.181	788.685
128.395	23.988	983.502	790.588
129.410	24.738	983.128	793.544
130.424	24.902	982.088	793.362
131.439	24.947	981.216	792.788
132.454	25.005	980.026	792.011
133.468	24.921	979.297	790.981
134.483	24.820	978.653	789.946
135.497	24.925	977.689	789.559
136.512	25.089	977.597	790.138
137.527	25.241	976.977	790.235
138.541	25.179	976.118	789.199
139.556	25.143	975.705	788.637
140.570	25.191	974.322	787.661
141.585	25.093	973.542	786.531
142.600	25.431	972.918	787.439
143.614	25.106	972.212	785.372
144.629	25.314	971.350	785.518
145.643	25.480	970.734	785.678
146.658	25.464	969.479	784.519
147.673	25.247	968.322	782.568
148.687	25.027	967.401	780.798
149.702	24.941	966.592	779.702
150.716	24.972	965.376	778.785
151.731	24.978	964.022	777.650
152.746	25.171	963.631	778.106
153.760	25.146	962.882	777.322
154.775	25.278	962.597	777.596
155.789	25.357	961.666	777.115
156.804	25.420	960.753	776.582
157.819	25.173	959.756	774.642
158.833	25.422	958.066	774.282
159.848	25.450	957.989	774.270
160.862	25.514	957.183	773.826
161.877	25.434	956.100	772.539
162.892	25.281	955.672	771.469
163.906	25.376	954.750	771.062
164.921	25.334	954.039	770.240
165.935	25.366	951.973	768.639
166.950	25.467	951.323	768.478
167.964	25.385	950.600	767.479
168.979	25.445	949.749	766.978
169.994	25.276	948.541	765.213
171.008	25.070	947.470	763.407
172.023	25.300	946.907	763.862
173.037	25.533	945.978	764.035
174.052	25.280	945.020	762.120
175.067	24.993	944.353	760.299
176.081	24.995	943.508	759.559
177.096	25.077	942.510	759.037
178.110	25.153	941.685	758.627
179.125	24.943	940.683	756.865
180.140	24.572	939.783	754.505
181.154	24.695	939.211	754.501
182.169	24.913	938.558	754.825
183.183	25.069	938.277	755.193
184.198	25.254	938.195	755.837
185.213	25.224	937.099	754.760
186.227	25.316	936.289	754.430
187.242	25.422	935.950	754.537
188.256	25.331	935.545	753.760
189.271	25.416	934.425	753.149
190.286	25.478	933.937	752.947
191.300	25.252	933.438	751.530
192.315	24.642	931.641	747.466
193.329	23.953	930.030	743.230
194.344	23.447	928.894	740.145
195.359	24.117	929.162	743.092
196.373	25.028	929.251	746.895
197.388	25.238	929.352	747.785
198.402	25.210	928.664	747.049
199.417	25.151	928.343	746.480
200.432	25.376	927.681	746.816
201.446	25.015	927.344	744.978
202.461	24.846	926.118	743.228
203.475	24.845	925.505	742.666
204.490	24.408	924.475	739.959
205.504	23.515	921.498	733.820
206.519	23.593	922.344	734.753
207.534	24.645	922.258	738.972
208.548	24.821	921.817	739.281
209.563	25.146	921.396	740.217
210.577	25.216	920.928	740.066
211.592	24.899	919.951	737.906
212.607	25.317	919.659	739.330
213.621	25.486	919.402	739.755
214.636	25.356	918.539	738.458
215.650	25.377	918.413	738.378
216.665	25.257	917.639	737.200
217.680	25.389	916.647	736.877
218.694	25.423	916.733	737.021
219.709	25.171	915.380	734.837
220.723	24.814	914.791	732.837
221.738	25.062	914.055	733.196
222.753	25.100	913.883	733.151
223.767	25.121	912.946	732.417
224.782	25.203	912.272	732.147
225.796	25.496	911.828	732.920
226.811	25.521	911.121	732.390
227.826	25.126	910.066	729.870
228.840	24.277	908.518	725.111
229.855	24.127	907.917	723.958
230.869	24.576	907.309	725.232
231.884	24.230	906.479	723.102
232.899	24.227	906.352	722.923
233.913	24.920	906.832	726.053
234.928	25.141	905.903	726.141
235.942	24.965	905.631	725.145
236.957	24.971	905.031	724.626
237.972	24.828	903.684	722.908
238.986	24.773	903.213	722.245
240.001	24.868	902.437	721.941
241.015	24.843	901.874	721.325
242.030	25.024	900.887	721.202
243.045	25.225	900.708	721.805
244.059	25.184	900.329	721.273
245.074	25.393	899.665	721.514
246.088	25.304	899.137	720.669
247.103	24.907	898.277	718.324
248.117	24.905	897.535	717.660
249.132	25.349	898.238	719.941
250.147	25.819	897.981	721.553
251.161	25.915	896.854	720.969
252.176	25.964	897.023	721.235
253.190	26.015	896.166	720.686
254.205	26.072	895.557	720.363
255.220	26.245	895.066	720.594
256.234	26.227	894.139	719.711
257.249	26.035	893.792	718.605
258.263	26.045	892.830	717.804
259.278	25.990	892.529	717.280
260.293	25.966	892.307	716.946
261.307	26.107	891.437	716.741
262.322	26.079	890.619	715.910
263.336	25.871	889.996	714.520
264.351	25.461	888.888	711.944
265.366	24.367	886.948	705.999
266.380	24.058	885.844	703.836
267.395	24.881	886.138	707.262
268.409	25.569	886.392	710.120
269.424	25.631	885.329	709.450
270.439	25.768	885.072	709.721
271.453	25.786	884.759	709.476
272.468	25.891	883.665	708.950
273.482	26.049	883.900	709.698
274.497	26.170	883.264	709.602
275.512	26.108	881.716	708.052
276.526	25.344	880.523	704.038
277.541	25.593	880.281	704.754
278.555	26.006	880.248	706.287
279.570	25.809	879.468	704.825
280.585	25.545	879.184	703.504
281.599	25.593	878.577	703.143
282.614	25.796	877.713	703.180
283.628	25.352	876.601	700.499
284.643	24.980	875.748	698.305
285.657	25.497	875.900	700.380
286.672	25.152	875.569	698.707
287.687	24.807	873.927	695.995
288.701	25.079	874.223	697.225
289.716	25.581	873.897	698.856
290.730	25.262	872.807	696.686
291.745	25.059	872.058	695.237
292.760	25.016	871.084	694.232
293.774	24.891	870.568	693.275
294.789	25.637	871.853	697.129
295.803	26.488	871.090	699.750
296.818	26.283	871.342	699.097
297.833	26.478	870.354	698.995
298.847	26.273	869.017	697.068
299.862	25.941	868.399	695.235
300.876	26.116	867.796	695.362
301.891	26.451	867.459	696.320
302.906	26.442	866.881	695.761
303.920	26.162	865.750	693.716
304.935	25.966	865.495	692.697
305.949	26.412	865.073	694.009
306.964	26.366	864.469	693.289
307.979	26.130	863.478	691.527
308.993	26.088	863.328	691.184
310.008	26.417	863.486	692.509
311.022	26.679	862.509	692.669
312.037	26.411	861.893	691.090
313.052	26.097	861.541	689.545
314.066	26.223	860.366	689.025
315.081	25.430	858.725	684.629
316.095	24.616	857.932	680.835
317.110	25.180	858.033	683.002
318.125	26.000	858.546	686.475
319.139	25.711	857.126	684.180
320.154	24.506	855.537	678.276
321.168	24.032	854.139	675.311
322.183	24.716	854.603	678.213
323.197	25.667	855.133	682.183
324.212	25.853	855.055	682.763
325.227	26.030	854.411	682.858
326.241	26.121	854.146	682.931
327.256	26.102	853.459	682.249
328.270	26.017	852.642	681.216
329.285	25.983	851.964	680.484
330.300	25.767	851.344	679.114
331.314	25.499	850.605	677.456
332.329	25.674	849.949	677.531
333.343	25.947	849.781	678.364
334.358	26.383	849.050	679.360
335.373	26.276	849.008	678.863
336.387	26.395	848.174	678.586
337.402	26.519	848.197	679.006
338.416	26.698	847.748	679.258
339.431	26.745	846.588	678.447
340.446	26.736	846.384	678.187
341.460	26.741	846.321	678.095
342.475	26.778	845.881	677.823
343.489	26.558	844.866	676.128
344.504	26.650	843.898	675.638
345.519	26.946	843.781	676.587
346.533	27.055	843.635	676.817
347.548	27.195	843.161	676.898
348.562	27.134	842.469	676.056
349.577	27.092	842.030	675.486
350.592	27.072	841.183	674.674
351.606	27.041	840.951	674.312
352.621	26.913	840.654	673.538
353.635	26.940	839.866	672.948
354.650	26.863	839.266	672.123
355.665	26.443	838.479	669.877
356.679	25.467	836.733	664.814
357.694	25.260	836.166	663.541
358.708	25.864	836.378	665.882
359.723	25.945	835.691	665.576
360.738	26.152	835.150	665.851
361.752	26.571	835.200	667.377
362.767	26.742	834.978	667.771
363.781	26.988	834.686	668.384
364.796	27.265	834.542	669.226
365.810	27.500	833.915	669.527
366.825	27.474	834.089	669.514
367.840	27.655	833.026	669.268
368.854	27.240	832.804	667.505
369.869	26.886	831.956	665.468
370.883	26.690	830.792	663.761
371.898	26.871	830.224	663.912
372.913	26.831	829.671	663.263
373.927	26.769	829.334	662.709
374.942	26.914	829.019	662.928
375.956	26.842	828.357	662.079
376.971	27.076	827.846	662.463
377.986	27.273	827.478	662.828
379.000	27.410	826.907	662.813
380.015	27.511	826.326	662.654
381.029	27.254	825.670	661.135
382.044	27.233	825.104	660.547
383.059	27.405	824.652	660.750
384.073	27.448	824.118	660.420
385.088	27.500	823.385	659.963
386.102	27.374	823.241	659.332
387.117	27.069	822.255	657.382
388.132	27.176	821.564	657.158
389.146	26.882	821.182	655.732
390.161	26.291	820.460	652.964
391.175	26.327	819.992	652.660
392.190	26.975	820.291	655.182
393.205	26.918	819.884	654.594
394.219	26.152	817.542	649.911
395.234	24.403	815.287	641.775
396.248	23.557	814.377	637.960
397.263	24.634	815.285	642.490
398.278	26.451	816.355	649.809
399.292	27.005	816.262	651.668
400.307	26.674	815.657	649.939
401.321	26.599	815.246	649.288
402.336	26.766	814.873	649.531
403.350	26.939	814.808	650.041
404.365	27.400	814.827	651.648
405.380	27.781	814.545	652.728
406.394	28.007	814.005	653.044
407.409	28.248	813.860	653.733
408.423	28.064	813.615	652.820
409.438	28.005	813.071	652.115
410.453	27.852	812.748	651.254
411.467	28.146	811.603	651.325
412.482	28.137	811.396	651.070
413.496	28.078	810.689	650.233
414.511	28.216	810.530	650.540
415.526	28.105	810.140	649.776
416.540	28.200	809.799	649.783
417.555	28.218	809.015	649.159
418.569	27.816	808.299	647.101
419.584	27.651	808.197	646.377
420.599	27.851	807.420	646.408
421.613	106.693	1283.310	1446.468
422.628	92.035	1352.652	1446.610
