DTS Sentinel unit serial number:	SN413079Multiplexer serial number:	ORYXHardware model number:	OX4-SRSoftware version number:	ORYX F/W v4.00 Oryx Data Collector v3.7.2.0data status	okinstallation	princeton_trtdifferential loss correction	single-endedforward channel	channel 3reverse channel	N/Adate	2019/09/15time	20:20:35forward acquisition time	60.00reverse acquisition time	0.00gamma	496.2192k internal	0.2320k external	0.2320temperature offset calibration	0.9936default loss term (dB/km)	0.3790temperature slope calibration	1.0000multiplexer offset coefficient	1.0000multiplexer slope coefficient	1.0000fibre end	0.00T internal ref (°C)	34.11T ext. ref 1 (°C)	7.72T ext. ref 2 (°C)	25.54length (m)	temperature (°C)	Stokes	anti-Stokes-747.200	-98.639	-0.184	-0.048
-746.185	13.984	-0.145	0.114
-745.171	800.000	-0.064	0.270
-744.156	800.000	-0.086	0.275
-743.142	14.593	-0.306	-0.241
-742.127	154.502	-0.203	0.282
-741.112	-1.232	-0.138	-0.098
-740.098	389.591	-0.187	0.391
-739.083	-200.000	-0.055	-0.288
-738.069	343.414	-0.218	0.433
-737.054	-200.000	-0.026	0.152
-736.039	800.000	-0.038	0.110
-735.025	-200.000	0.000	0.024
-734.010	-10.784	0.120	-0.080
-732.996	84.146	-0.139	-0.154
-731.981	49.038	-0.286	-0.271
-730.966	-97.912	-0.306	-0.080
-729.952	259.064	-0.090	-0.156
-728.937	-200.000	-0.016	-0.162
-727.923	190.673	-0.056	-0.084
-726.908	800.000	-0.046	-0.180
-725.894	-187.029	-0.241	-0.003
-724.879	9.000	-0.155	0.118
-723.864	-46.993	-0.289	0.143
-722.850	160.907	-0.189	-0.266
-721.835	-200.000	-0.003	0.150
-720.821	22.735	0.106	-0.087
-719.806	-200.000	0.062	-0.339
-718.791	321.658	0.160	-0.307
-717.777	281.805	-0.055	0.099
-716.762	63.973	0.086	0.087
-715.748	800.000	-0.078	0.263
-714.733	161.304	-0.185	-0.261
-713.718	31.243	-0.077	0.067
-712.704	16.277	0.223	0.178
-711.689	-200.000	-0.015	0.080
-710.675	800.000	-0.104	0.297
-709.660	-36.690	0.185	0.100
-708.645	800.000	0.032	0.126
-707.631	800.000	-0.055	0.235
-706.616	-87.010	0.285	0.088
-705.602	153.361	-0.103	-0.142
-704.587	129.505	0.019	-0.025
-703.572	-110.689	-0.171	0.036
-702.558	-200.000	0.012	0.347
-701.543	-16.420	-0.097	0.062
-700.529	-60.411	-0.162	-0.070
-699.514	466.649	0.080	-0.181
-698.499	578.930	0.179	-0.443
-697.485	2.311	-0.125	-0.091
-696.470	2.625	0.131	0.096
-695.456	450.679	0.048	0.106
-694.441	-44.173	0.169	0.086
-693.426	39.384	0.145	0.131
-692.412	180.681	-0.061	0.090
-691.397	-72.283	-0.126	-0.047
-690.383	-89.736	-0.374	-0.110
-689.368	-104.401	-0.099	0.023
-688.354	800.000	-0.070	-0.265
-687.339	-14.263	0.061	0.040
-686.324	-79.852	0.302	-0.102
-685.310	800.000	0.019	0.060
-684.295	602.527	0.129	0.324
-683.281	-56.287	0.322	0.144
-682.266	564.188	0.096	-0.234
-681.251	152.289	-0.075	0.103
-680.237	19.758	-0.270	-0.219
-679.222	24.177	0.154	-0.129
-678.208	28.074	0.137	-0.117
-677.193	26.696	-0.078	0.066
-676.178	-200.000	0.018	0.297
-675.164	167.016	0.298	-0.427
-674.149	66.513	0.077	0.079
-673.135	800.000	0.040	0.168
-672.120	800.000	0.029	-0.101
-671.105	-100.192	0.039	0.010
-670.091	800.000	-0.147	-0.420
-669.076	-37.899	0.154	-0.083
-668.062	34.089	-0.207	0.182
-667.047	38.421	-0.044	0.039
-666.032	15.080	-0.139	0.110
-665.018	139.763	-0.162	-0.215
-664.003	-64.017	0.195	0.080
-662.989	468.200	-0.024	-0.054
-661.974	-33.044	-0.263	-0.147
-660.959	800.000	-0.095	-0.380
-659.945	-97.915	0.212	-0.055
-658.930	-200.000	-0.007	-0.198
-657.916	141.512	-0.201	-0.268
-656.901	-140.336	0.168	0.018
-655.886	200.007	-0.188	-0.291
-654.872	800.000	-0.078	-0.243
-653.857	221.866	-0.200	-0.323
-652.843	-200.000	0.037	-0.309
-651.828	-200.000	0.046	0.335
-650.814	-85.501	0.444	-0.139
-649.799	-103.032	-0.441	0.105
-648.784	-140.878	0.121	-0.013
-647.770	-90.212	0.350	-0.102
-646.755	-111.416	0.361	0.074
-645.741	-23.071	-0.109	-0.066
-644.726	-106.751	-0.203	-0.045
-643.711	-26.321	-0.323	-0.191
-642.697	-157.397	-0.329	-0.020
-641.682	431.216	0.190	-0.414
-640.668	394.166	0.131	0.274
-639.653	164.527	0.113	0.161
-638.638	-6.734	0.319	0.218
-637.624	800.000	-0.033	0.098
-636.609	95.376	0.075	-0.086
-635.595	45.165	-0.178	-0.165
-634.580	-67.574	-0.284	-0.112
-633.565	-151.499	-0.222	-0.017
-632.551	-42.809	-0.270	0.138
-631.536	-45.437	-0.036	-0.018
-630.522	285.375	-0.179	0.325
-629.507	132.947	0.205	0.266
-628.492	-21.470	0.310	0.190
-627.478	350.981	-0.120	0.239
-626.463	119.487	-0.080	-0.100
-625.449	281.676	-0.032	0.058
-624.434	-61.647	0.078	-0.033
-623.419	304.913	-0.102	0.190
-622.405	476.624	-0.055	0.126
-621.390	127.336	0.113	-0.144
-620.376	-156.281	0.225	-0.014
-619.361	-200.000	-0.032	-0.243
-618.346	800.000	-0.014	-0.047
-617.332	312.626	0.175	-0.331
-616.317	452.575	0.071	-0.159
-615.303	-200.000	0.024	-0.166
-614.288	15.095	0.083	-0.066
-613.273	83.884	-0.263	-0.289
-612.259	352.710	0.138	0.275
-611.244	348.144	0.055	0.110
-610.230	800.000	-0.027	0.088
-609.215	125.673	0.212	-0.270
-608.201	-161.192	-0.101	-0.005
-607.186	-97.860	0.148	0.038
-606.171	800.000	0.044	0.143
-605.157	800.000	0.094	-0.415
-604.142	-109.819	0.208	0.044
-603.128	394.476	-0.066	-0.138
-602.113	189.342	-0.045	-0.069
-601.098	265.998	-0.088	0.155
-600.084	-114.254	-0.281	-0.055
-599.069	39.041	-0.137	0.123
-598.055	-33.036	0.030	0.017
-597.040	108.880	-0.245	0.295
-596.025	-102.750	-0.081	0.019
-595.011	270.755	-0.209	0.369
-593.996	-200.000	-0.057	-0.347
-592.982	-200.000	-0.016	0.164
-591.967	71.425	0.103	-0.107
-590.952	27.092	-0.157	0.132
-589.938	-92.605	-0.035	-0.010
-588.923	391.666	-0.083	-0.174
-587.909	-90.350	-0.220	-0.064
-586.894	-37.173	0.343	0.185
-585.879	46.669	-0.206	0.193
-584.865	-4.902	0.116	0.080
-583.850	27.631	-0.240	0.203
-582.836	-200.000	-0.009	0.066
-581.821	-80.775	-0.064	-0.021
-580.806	673.844	0.070	-0.184
-579.792	-105.314	-0.102	-0.023
-578.777	-200.000	0.030	0.132
-577.763	31.321	-0.098	-0.085
-576.748	-38.417	-0.262	0.139
-575.733	134.184	0.154	0.201
-574.719	428.202	-0.109	0.236
-573.704	565.886	-0.073	0.179
-572.690	-134.269	0.123	-0.015
-571.675	11.871	-0.131	-0.101
-570.661	43.791	-0.157	0.144
-569.646	117.911	-0.107	-0.133
-568.631	-69.856	-0.172	-0.066
-567.617	-48.763	0.197	0.095
-566.602	-200.000	0.050	0.302
-565.588	-177.320	-0.062	0.002
-564.573	477.352	0.146	0.331
-563.558	-200.000	0.007	-0.171
-562.544	649.892	-0.043	-0.109
-561.529	-103.865	-0.180	-0.042
-560.515	-142.558	0.345	-0.034
-559.500	99.964	-0.088	-0.103
-558.485	34.341	0.225	0.197
-557.471	174.262	-0.205	-0.297
-556.456	-25.342	0.201	-0.119
-555.442	800.000	0.024	0.104
-554.427	10.055	0.228	-0.174
-553.412	41.040	0.353	-0.320
-552.398	27.343	0.233	0.197
-551.383	-53.709	0.220	0.101
-550.369	-107.686	-0.303	0.066
-549.354	81.446	-0.133	-0.145
-548.339	-145.122	-0.195	-0.018
-547.325	95.096	0.124	-0.142
-546.310	41.094	-0.336	-0.305
-545.296	800.000	-0.072	0.251
-544.281	-200.000	0.002	-0.018
-543.266	800.000	-0.074	-0.281
-542.252	800.000	-0.055	0.168
-541.237	60.607	-0.185	-0.184
-540.223	-200.000	-0.012	-0.058
-539.208	-90.164	0.322	-0.094
-538.193	122.835	-0.121	-0.152
-537.179	381.707	0.141	0.291
-536.164	-59.570	0.319	-0.137
-535.150	-186.954	-0.121	0.002
-534.135	-184.417	0.087	-0.001
-533.121	354.935	-0.204	-0.407
-532.106	800.000	0.041	-0.116
-531.091	800.000	0.064	-0.244
-530.077	-154.126	0.226	-0.015
-529.062	-200.000	0.025	-0.308
-528.048	448.788	0.057	-0.125
-527.033	-170.446	-0.265	-0.009
-526.018	800.000	0.073	0.232
-525.004	170.134	0.112	-0.161
-523.989	23.741	-0.064	0.053
-522.975	8.101	-0.297	0.224
-521.960	255.679	-0.171	-0.294
-520.945	14.590	0.083	0.065
-519.931	-61.352	0.189	0.080
-518.916	-188.488	0.182	0.002
-517.902	-8.915	-0.154	0.103
-516.887	47.221	-0.184	0.172
-515.872	-137.270	0.114	0.013
-514.858	131.720	-0.116	-0.149
-513.843	-200.000	0.018	-0.314
-512.829	-200.000	-0.003	0.197
-511.814	-27.570	-0.228	0.133
-510.799	129.815	0.144	0.185
-509.785	-200.000	0.031	-0.203
-508.770	-130.436	0.100	-0.014
-507.756	-200.000	0.007	-0.041
-506.741	215.901	0.030	-0.048
-505.726	-200.000	-0.021	-0.170
-504.712	-173.613	0.082	-0.002
-503.697	15.094	-0.152	0.120
-502.683	-200.000	-0.021	0.305
-501.668	800.000	-0.067	0.197
-500.653	34.372	0.149	0.130
-499.639	75.871	0.270	0.286
-498.624	41.798	-0.072	-0.065
-497.610	-200.000	0.017	-0.368
-496.595	-200.000	-0.044	-0.232
-495.581	-60.100	-0.392	0.167
-494.566	-115.576	0.093	0.017
-493.551	-139.386	0.271	0.029
-492.537	-200.000	0.024	-0.218
-491.522	-152.721	-0.478	0.034
-490.508	-116.015	0.311	-0.058
-489.493	181.174	0.104	-0.153
-488.478	-200.000	-0.000	-0.118
-487.464	380.607	0.102	0.210
-486.449	-15.244	-0.326	0.209
-485.435	-200.000	0.027	0.329
-484.420	181.621	-0.061	0.090
-483.405	-200.000	-0.026	0.218
-482.391	-114.307	0.285	-0.055
-481.376	173.250	0.021	0.030
-480.362	-66.686	-0.138	-0.055
-479.347	800.000	0.059	-0.251
-478.332	221.458	-0.171	0.275
-477.318	-26.682	-0.111	-0.065
-476.303	-8.247	-0.159	-0.107
-475.289	188.217	-0.061	-0.092
-474.274	-17.492	-0.084	0.053
-473.259	55.568	0.133	0.129
-472.245	800.000	0.053	-0.214
-471.230	8.344	0.059	-0.044
-470.216	196.927	-0.143	0.218
-469.201	-92.850	0.490	-0.137
-468.186	167.154	0.187	-0.266
-467.172	-190.646	-0.144	0.002
-466.157	569.213	0.165	-0.401
-465.143	139.747	0.166	-0.218
-464.128	782.281	0.111	-0.303
-463.113	-200.000	-0.007	0.320
-462.099	-113.475	0.176	-0.035
-461.084	302.286	-0.056	0.104
-460.070	-127.703	0.037	-0.005
-459.055	673.815	0.047	-0.121
-458.040	142.726	0.132	-0.175
-457.026	-101.445	-0.321	-0.078
-456.011	46.621	0.009	0.008
-454.997	-94.810	0.013	0.003
-453.982	182.181	0.081	0.119
-452.968	174.177	-0.174	0.252
-451.953	575.438	-0.068	-0.167
-450.938	-89.293	0.399	-0.117
-449.924	200.906	-0.095	-0.146
-448.909	800.000	0.051	-0.192
-447.895	-200.000	-0.007	-0.032
-446.880	755.283	0.089	0.240
-445.865	-200.000	-0.011	0.323
-444.851	-200.000	-0.005	-0.257
-443.836	58.795	0.157	-0.154
-442.822	725.534	-0.035	0.092
-441.807	-60.114	-0.099	0.042
-440.792	-127.468	-0.227	0.033
-439.778	-101.063	-0.007	0.002
-438.763	-37.341	-0.212	-0.113
-437.749	-200.000	-0.048	-0.272
-436.734	18.358	0.162	0.129
-435.719	800.000	-0.086	0.263
-434.705	70.848	-0.155	-0.160
-433.690	144.749	-0.044	-0.058
-432.676	800.000	-0.084	0.236
-431.661	-200.000	-0.020	0.287
-430.646	33.922	-0.332	-0.289
-429.632	-129.275	0.035	0.005
-428.617	-84.147	0.268	0.085
-427.603	-186.958	0.315	0.004
-426.588	-200.000	-0.001	-0.295
-425.573	-88.036	0.122	-0.037
-424.559	118.839	0.092	0.114
-423.544	222.349	-0.094	0.151
-422.530	800.000	0.034	0.136
-421.515	77.859	0.264	-0.281
-420.500	-200.000	-0.051	-0.331
-419.486	-76.010	-0.117	0.041
-418.471	800.000	-0.031	0.085
-417.457	138.594	-0.093	0.121
-416.442	-113.091	0.042	0.008
-415.428	-114.087	-0.129	0.025
-414.413	53.010	0.175	-0.167
-413.398	341.242	-0.084	-0.163
-412.384	-47.352	0.247	0.120
-411.369	-53.156	0.141	-0.065
-410.355	-47.914	0.090	0.043
-409.340	-72.438	0.319	-0.118
-408.325	-200.000	-0.027	-0.217
-407.311	36.775	-0.222	-0.196
-406.296	800.000	-0.112	0.317
-405.282	-89.443	0.270	0.079
-404.267	-200.000	0.001	0.538
-403.252	-80.293	-0.316	0.105
-402.238	-94.922	0.268	-0.072
-401.223	406.392	0.084	-0.178
-400.209	-20.563	0.160	-0.098
-399.194	162.878	-0.095	0.133
-398.179	-78.363	0.423	-0.145
-397.165	-32.802	-0.281	0.156
-396.150	-115.208	0.115	0.022
-395.136	800.000	0.071	0.203
-394.121	161.042	0.040	0.056
-393.106	-200.000	-0.016	-0.438
-392.092	57.053	0.310	-0.302
-391.077	-200.000	-0.055	-0.287
-390.063	800.000	-0.020	0.068
-389.048	589.122	-0.065	0.159
-388.033	-200.000	0.024	0.113
-387.019	-169.839	-0.229	0.008
-386.004	3.835	0.085	0.062
-384.990	237.765	-0.180	-0.297
-383.975	-200.000	0.045	0.281
-382.960	-41.529	-0.262	-0.134
-381.946	-139.126	0.210	-0.023
-380.931	-33.079	-0.213	-0.118
-379.917	-200.000	-0.069	0.305
-378.902	478.453	0.041	0.093
-377.888	30.750	-0.081	-0.069
-376.873	-149.223	-0.150	-0.012
-375.858	74.972	-0.041	-0.044
-374.844	-200.000	0.211	-0.000
-373.829	-85.936	0.055	-0.017
-372.815	-78.545	0.318	-0.109
-371.800	-44.020	0.048	0.024
-370.785	-139.156	0.129	0.014
-369.771	-79.364	0.161	0.054
-368.756	-74.339	-0.123	0.044
-367.742	239.511	0.078	-0.130
-366.727	277.102	-0.154	0.272
-365.712	433.172	0.199	0.430
-364.698	225.058	-0.071	-0.114
-363.683	315.437	-0.138	-0.259
-362.669	-74.439	0.132	-0.047
-361.654	694.764	0.049	0.129
-360.639	-32.342	0.137	0.076
-359.625	800.000	-0.116	0.445
-358.610	-200.000	0.011	-0.149
-357.596	-11.921	-0.109	0.071
-356.581	-119.402	-0.494	-0.085
-355.566	-54.542	0.254	-0.114
-354.552	-200.000	0.009	0.155
-353.537	269.390	-0.170	-0.297
-352.523	-128.935	-0.165	0.023
-351.508	139.819	-0.245	-0.322
-350.493	-76.721	0.192	-0.067
-349.479	396.093	-0.073	-0.151
-348.464	-41.656	0.134	-0.069
-347.450	-200.000	-0.008	-0.195
-346.435	800.000	0.070	-0.222
-345.420	-128.351	0.137	0.019
-344.406	63.700	0.172	0.172
-343.391	-200.000	-0.001	-0.230
-342.377	-21.088	-0.374	-0.228
-341.362	-158.719	0.165	-0.009
-340.348	-2.406	0.143	-0.100
-339.333	-116.982	0.221	0.040
-338.318	-118.181	0.305	-0.054
-337.304	65.280	0.168	-0.169
-336.289	155.375	0.066	-0.090
-335.275	-194.872	-0.262	-0.002
-334.260	31.171	-0.173	-0.148
-333.245	-2.283	-0.086	-0.060
-332.231	-123.648	-0.096	-0.015
-331.216	-29.199	0.446	0.255
-330.202	-200.000	-0.047	-0.342
-329.187	800.000	-0.103	0.309
-328.172	125.088	0.119	0.149
-327.158	-53.618	-0.125	-0.057
-326.143	-20.787	-0.141	-0.086
-325.129	413.662	0.128	-0.270
-324.114	-169.430	0.258	0.009
-323.099	-98.887	0.141	0.036
-322.085	72.402	0.141	0.146
-321.070	-73.520	0.105	-0.038
-320.056	-99.287	0.136	0.034
-319.041	8.693	0.267	-0.200
-318.026	565.515	-0.106	0.256
-317.012	3.109	0.189	0.136
-315.997	-108.121	-0.323	-0.070
-314.983	-88.817	-0.107	-0.032
-313.968	-68.889	-0.086	0.033
-312.953	312.117	-0.196	0.365
-311.939	241.596	-0.082	-0.135
-310.924	-71.164	-0.122	0.045
-309.910	46.356	0.082	0.076
-308.895	247.127	-0.105	-0.177
-307.880	27.239	0.160	0.134
-306.866	-140.273	-0.166	-0.017
-305.851	-95.828	-0.360	0.095
-304.837	229.386	0.057	-0.093
-303.822	800.000	-0.060	0.236
-302.807	-14.772	0.022	-0.014
-301.793	800.000	0.058	0.172
-300.778	-200.000	0.007	0.164
-299.764	362.795	-0.035	-0.069
-298.749	800.000	0.091	0.307
-297.735	-29.478	-0.058	-0.033
-296.720	617.391	0.044	-0.109
-295.705	-35.228	-0.111	-0.060
-294.691	149.964	0.313	0.422
-293.676	350.731	0.071	-0.139
-292.662	226.439	0.030	0.048
-291.647	-200.000	-0.023	0.158
-290.632	-47.836	-0.247	0.119
-289.618	0.116	-0.210	0.149
-288.603	800.000	0.049	0.174
-287.589	11.466	0.048	-0.037
-286.574	-111.513	0.216	0.044
-285.559	-24.893	0.159	-0.094
-284.545	-98.083	-0.149	-0.038
-283.530	204.948	0.246	0.379
-282.516	-0.408	0.187	0.132
-281.501	225.983	0.129	0.208
-280.486	-200.000	-0.010	0.167
-279.472	-107.364	0.206	-0.045
-278.457	-39.493	-0.184	0.096
-277.443	375.151	-0.031	-0.063
-276.428	-134.092	0.101	-0.012
-275.413	-35.861	-0.268	-0.144
-274.399	-89.986	-0.357	0.103
-273.384	-75.558	0.139	0.049
-272.370	389.504	-0.162	0.333
-271.355	196.533	0.152	0.229
-270.340	397.444	0.096	0.200
-269.326	-9.356	-0.128	-0.085
-268.311	55.004	0.100	-0.096
-267.297	36.881	-0.087	-0.076
-266.282	-63.544	-0.140	-0.057
-265.267	-200.000	-0.036	0.207
-264.253	6.507	0.073	-0.054
-263.238	-59.657	0.214	0.091
-262.224	70.296	0.201	0.206
-261.209	225.332	0.072	-0.116
-260.195	80.062	-0.235	0.251
-259.180	-140.533	0.206	0.021
-258.165	-15.438	-0.340	-0.215
-257.151	-30.100	-0.095	0.054
-256.136	-200.000	0.015	-0.340
-255.122	-66.010	0.192	0.076
-254.107	-38.348	-0.270	-0.142
-253.092	131.169	0.075	0.096
-252.078	-19.475	-0.143	-0.088
-251.063	800.000	0.070	0.247
-250.049	-7.653	0.125	0.084
-249.034	-70.256	-0.384	-0.144
-248.019	800.000	0.035	-0.128
-247.005	-200.000	0.025	-0.155
-245.990	-200.000	-0.045	-0.385
-244.976	-200.000	0.015	0.105
-243.961	-116.301	-0.333	-0.061
-242.946	-200.000	-0.047	0.230
-241.932	-67.138	0.187	0.073
-240.917	96.514	-0.178	-0.201
-239.903	800.000	0.052	0.178
-238.888	-36.573	0.103	0.055
-237.873	398.992	0.042	0.088
-236.859	272.251	0.165	0.288
-235.844	39.892	-0.092	-0.082
-234.830	-53.863	-0.015	0.007
-233.815	140.771	0.074	-0.097
-232.800	-43.936	0.320	0.159
-231.786	256.762	0.115	-0.195
-230.771	189.811	-0.128	-0.190
-229.757	5.863	0.171	-0.126
-228.742	223.984	0.172	0.276
-227.727	-115.375	0.026	0.005
-226.713	57.857	-0.067	-0.065
-225.698	-200.000	-0.001	0.219
-224.684	75.977	0.219	0.229
-223.669	-134.093	0.048	-0.006
-222.655	-49.347	0.274	-0.129
-221.640	33.198	0.119	0.102
-220.625	19.077	-0.025	0.020
-219.611	-130.434	-0.157	-0.021
-218.596	-200.000	-0.040	-0.384
-217.582	268.481	-0.138	-0.240
-216.567	800.000	-0.016	-0.053
-215.552	368.680	0.089	-0.178
-214.538	-122.099	0.269	-0.044
-213.523	-200.000	0.002	0.278
-212.509	34.055	-0.095	-0.082
-211.494	145.606	0.069	0.091
-210.479	-54.811	0.130	0.058
-209.465	-30.137	-0.146	0.082
-208.450	-200.000	0.042	0.240
-207.436	13.650	-0.138	0.106
-206.421	-48.342	0.162	0.078
-205.406	-36.616	-0.215	-0.114
-204.392	-173.219	-0.175	-0.005
-203.377	-50.009	-0.244	0.114
-202.363	-106.796	-0.295	0.065
-201.348	-84.598	-0.177	-0.055
-200.333	-200.000	-0.026	0.150
-199.319	282.378	0.116	-0.205
-198.304	-174.549	0.033	0.001
-197.290	251.037	-0.152	-0.256
-196.275	-87.437	-0.140	-0.042
-195.260	182.234	-0.179	0.260
-194.246	20.271	0.430	0.344
-193.231	-200.000	0.017	-0.227
-192.217	535.087	0.043	0.102
-191.202	-22.622	-0.264	-0.158
-190.187	800.000	0.035	-0.120
-189.173	-108.149	-0.036	0.008
-188.158	-61.719	-0.126	-0.052
-187.144	800.000	0.105	-0.307
-186.129	-79.067	0.180	0.061
-185.114	-109.464	-0.190	-0.040
-184.100	-200.000	0.089	-0.487
-183.085	150.537	-0.138	0.186
-182.071	-200.000	0.026	0.186
-181.056	-68.360	0.116	-0.045
-180.042	800.000	-0.085	-0.248
-179.027	-53.578	0.084	-0.038
-178.012	-90.031	0.303	0.087
-176.998	-200.000	-0.014	-0.319
-175.983	-200.000	-0.032	0.298
-174.969	19.896	-0.138	-0.110
-173.954	-166.044	-0.133	-0.006
-172.939	69.513	0.279	-0.284
-171.925	99.166	-0.222	0.253
-170.910	190.364	-0.140	0.208
-169.896	-114.572	-0.264	-0.050
-168.881	-64.678	-0.176	0.070
-167.866	-121.612	0.236	0.039
-166.852	-96.875	-0.062	-0.016
-165.837	-200.000	0.058	0.427
-164.823	117.212	0.051	-0.062
-163.808	147.669	0.057	-0.076
-162.793	-34.696	-0.255	0.138
-161.779	-75.673	-0.173	-0.061
-160.764	-200.000	0.005	-0.114
-159.750	10.074	-0.205	0.154
-158.735	24.255	0.206	0.168
-157.720	-110.480	0.213	-0.044
-156.706	-18.780	0.049	-0.030
-155.691	-109.435	-0.322	0.067
-154.677	296.941	-0.259	-0.470
-153.662	733.762	0.068	-0.180
-152.647	24.469	0.179	0.147
-151.633	-200.000	-0.016	0.143
-150.618	-60.798	0.217	-0.091
-149.604	-62.990	-0.261	-0.107
-148.589	338.107	0.122	0.235
-147.574	-107.376	-0.052	0.011
-146.560	13.867	-0.096	0.073
-145.545	11.143	0.131	0.099
-144.531	800.000	0.156	0.446
-143.516	-43.263	-0.027	-0.014
-142.502	-200.000	-0.068	0.421
-141.487	-123.930	0.138	-0.021
-140.472	-146.273	0.220	0.019
-139.458	-102.987	-0.132	-0.031
-138.443	-67.608	-0.263	-0.102
-137.429	-7.163	-0.307	0.206
-136.414	-138.947	0.081	-0.009
-135.399	-73.353	0.033	-0.012
-134.385	-161.299	0.030	0.002
-133.370	161.711	0.138	0.190
-132.356	-200.000	0.004	0.100
-131.341	448.432	0.148	-0.322
-130.326	-148.542	0.080	0.006
-129.312	7.360	0.123	0.091
-128.297	264.256	0.093	0.160
-127.283	-200.000	0.014	0.093
-126.268	788.576	0.055	0.149
-125.253	-98.120	-0.429	-0.109
-124.239	-6.707	0.303	-0.203
-123.224	-124.375	0.503	0.077
-122.210	45.138	0.187	-0.170
-121.195	155.367	-0.166	-0.226
-120.180	-105.493	0.289	0.065
-119.166	-200.000	-0.019	0.361
-118.151	85.445	-0.048	-0.052
-117.137	119.404	0.223	0.273
-116.122	611.254	-0.094	0.232
-115.107	-122.265	0.230	0.037
-114.093	800.000	-0.014	0.058
-113.078	-200.000	-0.003	-0.063
-112.064	95.938	-0.134	0.151
-111.049	-170.605	-0.011	-0.000
-110.034	-17.990	-0.023	-0.014
-109.020	160.782	0.112	0.154
-108.005	-200.000	0.013	-0.140
-106.991	417.040	-0.068	0.144
-105.976	-112.773	0.166	0.032
-104.962	800.000	0.025	0.103
-103.947	41.890	-0.315	0.282
-102.932	-171.492	-0.097	0.003
-101.918	336.091	-0.132	0.252
-100.903	-86.264	0.339	0.103
-99.889	-54.653	-0.119	0.053
-98.874	-149.933	0.111	-0.009
-97.859	-200.000	-0.166	-0.000
-96.845	102.869	0.067	-0.078
-95.830	-151.861	0.436	0.032
-94.816	-68.168	-0.019	-0.007
-93.801	418.106	0.065	-0.137
-92.786	-57.636	-0.154	-0.066
-91.772	39.157	0.221	0.195
-90.757	800.000	0.058	0.201
-89.743	-4.443	-0.269	-0.183
-88.728	84.316	0.186	-0.200
-87.713	-104.410	0.523	0.119
-86.699	-95.256	-0.077	0.021
-85.684	-35.637	0.335	0.179
-84.670	-162.785	-0.270	-0.013
-83.655	-51.186	0.291	0.135
-82.640	-82.772	0.197	-0.063
-81.626	104.165	0.007	0.008
-80.611	-48.431	0.245	-0.116
-79.597	-29.830	0.120	-0.067
-78.582	-63.893	-0.260	0.105
-77.567	-200.000	-0.004	-0.271
-76.553	-42.801	-0.150	0.075
-75.538	-76.849	-0.305	-0.105
-74.524	-200.000	-0.035	-0.450
-73.509	-4.620	0.163	-0.111
-72.494	323.498	-0.187	-0.352
-71.480	-6.723	-0.108	-0.072
-70.465	-133.168	-0.295	0.037
-69.451	-4.571	-0.206	0.140
-68.436	-41.758	0.284	-0.144
-67.422	-43.964	0.143	0.071
-66.407	-99.094	-0.213	-0.053
-65.392	149.390	0.077	0.102
-64.378	74.446	0.064	-0.066
-63.363	-160.129	0.256	0.014
-62.349	570.146	-0.057	0.137
-61.334	30.213	-0.809	-0.680
-60.319	42.351	0.384	0.344
-59.305	-200.000	-0.021	-0.834
-58.290	217.159	0.613	0.962
-57.276	800.000	0.565	1.677
-56.261	-200.000	91.702	550.859
-55.246	557.453	1356.984	3220.049
-54.232	163.697	2526.448	3498.784
-53.217	111.900	2158.744	2565.842
-52.203	44.221	1705.031	1539.540
-51.188	37.245	1516.481	1321.961
-50.173	34.816	1489.272	1281.921
-49.159	53.942	1536.308	1453.003
-48.144	56.187	1554.672	1485.599
-47.130	37.421	1515.008	1321.663
-46.115	34.396	1500.343	1288.409
-45.100	34.149	1497.206	1284.001
-44.086	34.180	1495.104	1282.353
-43.071	34.085	1493.625	1280.391
-42.057	34.048	1491.631	1278.386
-41.042	34.064	1490.244	1277.252
-40.027	34.050	1489.025	1276.065
-39.013	34.104	1487.368	1274.956
-37.998	34.008	1486.706	1273.697
-36.984	34.117	1485.176	1273.066
-35.969	34.113	1483.687	1271.711
-34.954	34.062	1482.555	1270.351
-33.940	34.092	1481.234	1269.367
-32.925	34.209	1479.254	1268.400
-31.911	34.108	1478.639	1267.147
-30.896	34.116	1476.902	1265.663
-29.881	34.190	1475.420	1264.834
-28.867	34.107	1474.254	1263.234
-27.852	34.271	1472.332	1262.623
-26.838	34.224	1471.220	1261.308
-25.823	34.075	1470.374	1259.549
-24.809	34.153	1468.209	1258.156
-23.794	34.173	1467.056	1257.252
-22.779	34.183	1465.900	1256.274
-21.765	34.218	1464.769	1255.488
-20.750	34.138	1463.748	1254.034
-19.736	34.160	1462.899	1253.406
-18.721	34.117	1461.953	1252.260
-17.706	34.100	1460.927	1251.221
-16.692	34.029	1459.808	1249.745
-15.677	34.174	1458.910	1249.876
-14.663	34.096	1457.768	1248.343
-13.648	34.071	1456.743	1247.250
-12.633	34.036	1455.840	1246.196
-11.619	34.031	1455.217	1245.583
-10.604	34.092	1453.924	1244.825
-9.590	34.040	1453.116	1243.745
-8.575	34.105	1452.295	1243.413
-7.560	34.165	1451.437	1243.024
-6.546	34.054	1451.027	1241.901
-5.531	34.030	1449.735	1240.586
-4.517	34.052	1448.498	1239.622
-3.502	34.054	1448.002	1239.161
-2.487	34.074	1446.422	1237.890
-1.473	34.048	1446.023	1237.328
-0.458	34.048	1443.978	1235.535
0.556	31.643	1434.396	1221.427
1.571	27.489	1407.259	1171.556
2.586	22.703	1343.394	1088.824
3.600	20.303	1261.305	1008.274
4.615	19.049	1214.978	964.135
5.629	17.449	1162.365	913.718
6.644	12.668	1085.100	828.889
7.659	8.683	1046.944	780.280
8.673	7.918	1042.025	772.830
9.688	7.794	1038.571	769.601
10.702	7.572	1037.339	767.549
11.717	7.607	1035.803	766.516
12.731	9.488	1036.098	775.736
13.746	14.034	1042.534	802.481
14.761	17.344	1046.411	821.408
15.775	17.656	1045.928	822.459
16.790	16.668	1043.229	815.510
17.804	15.635	1041.439	809.064
18.819	14.814	1039.463	803.514
19.834	14.283	1037.711	799.537
20.848	13.876	1037.600	797.428
21.863	13.707	1036.457	795.671
22.877	13.449	1035.653	793.745
23.892	13.349	1034.923	792.636
24.907	13.265	1034.119	791.545
25.921	13.226	1033.836	791.071
26.936	13.137	1033.080	790.000
27.950	13.298	1031.305	789.340
28.965	13.227	1030.795	788.544
29.980	13.357	1029.629	788.201
30.994	13.430	1028.275	787.439
32.009	13.538	1027.208	787.068
33.023	13.597	1026.381	786.643
34.038	13.538	1025.581	785.682
35.053	13.341	1025.224	784.403
36.067	13.423	1023.880	783.695
37.082	13.414	1023.145	783.019
38.096	13.387	1022.193	782.097
39.111	13.400	1021.910	781.871
40.126	13.454	1020.847	781.242
41.140	13.407	1019.544	779.953
42.155	13.317	1018.315	778.523
43.169	13.166	1017.432	777.069
44.184	13.240	1016.454	776.600
45.199	13.053	1015.370	774.824
46.213	13.203	1014.618	774.885
47.228	13.122	1013.887	773.879
48.242	13.342	1012.746	773.969
49.257	13.351	1011.645	773.103
50.271	13.335	1010.714	772.249
51.286	13.370	1010.037	771.828
52.301	13.342	1009.341	771.094
53.315	13.311	1008.644	770.350
54.330	13.263	1007.609	769.270
55.344	13.341	1007.003	769.100
56.359	13.294	1005.794	767.890
57.374	13.322	1005.030	767.367
58.388	13.207	1004.448	766.322
59.403	13.266	1003.572	765.861
60.417	13.059	1003.344	764.661
61.432	13.217	1002.644	764.789
62.447	13.235	1001.662	764.057
63.461	13.069	1000.877	762.625
64.476	13.158	999.800	762.145
65.490	13.005	999.048	760.802
66.505	13.063	998.285	760.418
67.520	13.165	997.032	759.867
68.534	13.140	996.562	759.328
69.549	13.229	995.863	759.135
70.563	13.189	994.794	758.069
71.578	13.236	994.487	757.983
72.593	13.299	993.138	757.179
73.607	13.010	992.854	755.572
74.622	13.090	991.520	754.855
75.636	13.002	990.631	753.710
76.651	13.069	989.936	753.418
77.666	13.155	989.205	753.186
78.680	13.058	988.618	752.233
79.695	13.021	988.290	751.747
80.709	13.082	987.462	751.328
81.724	13.159	986.805	751.112
82.739	13.109	985.945	750.167
83.753	13.233	985.931	750.652
84.768	13.296	984.390	749.699
85.782	13.544	983.435	750.026
86.797	13.526	982.878	749.454
87.812	13.619	981.872	749.041
88.826	13.444	981.697	748.052
89.841	13.416	980.376	746.852
90.855	13.440	979.972	746.586
91.870	13.454	979.535	746.251
92.884	13.514	978.435	745.614
93.899	13.449	977.674	744.676
94.914	13.512	977.122	744.475
95.928	13.523	976.623	744.077
96.943	13.498	975.947	743.385
97.957	13.469	975.112	742.551
98.972	13.508	974.047	741.850
99.987	13.505	973.570	741.408
101.001	13.492	972.549	740.507
102.016	13.455	971.850	739.743
103.030	13.532	971.188	739.518
104.045	13.424	970.305	738.298
105.060	13.520	968.632	737.386
106.074	13.631	967.439	736.908
107.089	13.336	967.363	735.473
108.103	13.377	966.367	734.833
109.118	13.211	965.697	733.522
110.133	13.150	965.040	732.690
111.147	13.163	963.971	731.868
112.162	13.319	962.812	731.615
113.176	13.080	962.661	730.379
114.191	13.270	961.154	730.009
115.206	13.376	960.698	730.065
116.220	13.394	959.559	729.214
117.235	13.301	959.087	728.384
118.249	13.303	958.303	727.731
119.264	13.386	957.026	727.064
120.279	13.234	956.330	725.801
121.293	13.226	956.025	725.470
122.308	13.287	954.789	724.735
123.322	13.347	954.116	724.424
124.337	13.138	953.202	722.753
125.352	13.091	952.218	721.736
126.366	13.152	951.073	721.069
127.381	13.249	949.857	720.507
128.395	13.192	949.081	719.607
129.410	13.211	948.756	719.381
130.424	13.140	947.538	718.083
131.439	13.191	946.501	717.457
132.454	13.383	945.468	717.443
133.468	13.289	945.292	716.837
134.483	13.405	944.419	716.614
135.497	13.375	943.458	715.694
136.512	13.325	943.152	715.182
137.527	13.443	942.204	714.910
138.541	13.320	941.525	713.799
139.556	13.305	940.712	713.056
140.570	13.255	940.439	712.568
141.585	13.361	939.219	712.036
142.600	13.402	938.675	711.737
143.614	13.505	937.666	711.354
144.629	13.541	937.045	710.972
145.643	13.639	936.326	710.785
146.658	13.604	935.399	709.868
147.673	13.500	934.719	708.844
148.687	13.459	933.553	707.721
149.702	13.568	932.215	707.110
150.716	13.415	931.729	706.028
151.731	13.364	931.195	705.343
152.746	13.425	930.111	704.721
153.760	13.462	929.467	704.326
154.775	13.395	929.136	703.726
155.789	13.557	928.114	703.579
156.804	13.574	927.545	703.159
157.819	13.546	926.749	702.376
158.833	13.654	926.085	702.266
159.848	13.612	925.687	701.723
160.862	13.614	925.264	701.352
161.877	13.788	923.998	701.065
162.892	13.613	923.161	699.626
163.906	13.488	922.470	698.514
164.921	13.610	921.566	698.282
165.935	13.583	920.578	697.358
166.950	13.608	919.663	696.708
167.964	13.624	918.790	696.052
168.979	13.674	917.719	695.391
169.994	13.667	916.980	694.738
171.008	13.583	916.391	693.881
172.023	13.537	915.684	693.090
173.037	13.700	914.766	693.016
174.052	13.803	913.762	692.623
175.067	13.720	913.822	692.261
176.081	13.632	912.737	691.010
177.096	13.567	911.864	690.017
178.110	13.505	911.235	689.222
179.125	13.559	910.385	688.744
180.140	13.630	909.520	688.322
181.154	13.648	908.902	687.871
182.169	13.666	908.266	687.401
183.183	13.760	907.487	687.139
184.198	13.818	906.920	686.890
185.213	13.744	906.066	685.878
186.227	13.896	905.354	685.906
187.242	13.962	905.124	685.943
188.256	13.778	904.419	684.591
189.271	13.858	903.953	684.507
190.286	13.870	903.440	684.106
191.300	13.753	902.254	682.666
192.315	13.678	901.436	681.677
193.329	13.615	900.452	680.615
194.344	13.731	899.723	680.479
195.359	13.759	899.553	680.407
196.373	13.797	898.982	680.068
197.388	13.883	898.199	679.769
198.402	13.974	897.953	679.898
199.417	14.034	897.489	679.731
200.432	14.021	897.228	679.417
201.446	14.088	896.761	679.278
202.461	14.070	896.572	679.001
203.475	14.044	896.139	678.509
204.490	14.070	895.175	677.824
205.504	14.140	893.688	676.923
206.519	14.099	893.344	676.437
207.534	13.936	892.679	675.209
208.548	13.962	892.004	674.746
209.563	14.150	891.273	674.894
210.577	14.005	890.892	673.957
211.592	13.984	890.035	673.166
212.607	14.275	889.487	673.868
213.621	14.330	888.759	673.482
214.636	14.207	888.272	672.555
215.650	14.131	887.536	671.630
216.665	14.315	887.112	671.995
217.680	14.287	886.746	671.543
218.694	14.216	886.352	670.899
219.709	14.398	885.522	670.947
220.723	14.279	884.946	669.969
221.738	14.269	884.547	669.569
222.753	14.340	883.460	668.973
223.767	14.234	883.051	668.179
224.782	14.443	882.019	668.176
225.796	14.381	881.296	667.320
226.811	14.453	880.505	666.952
227.826	14.518	880.051	666.809
228.840	14.480	879.255	665.993
229.855	14.451	878.530	665.271
230.869	14.431	878.050	664.766
231.884	14.451	877.403	664.299
232.899	14.306	877.277	663.566
233.913	14.241	876.629	662.761
234.928	14.394	875.463	662.428
235.942	14.476	874.427	661.912
236.957	14.340	873.830	660.860
237.972	14.273	873.626	660.381
238.986	14.328	872.745	659.875
240.001	14.274	872.661	659.538
241.015	14.350	871.899	659.205
242.030	14.302	871.063	658.328
243.045	14.521	870.349	658.593
244.059	14.445	869.677	657.727
245.074	14.449	869.380	657.459
246.088	14.489	868.647	657.005
247.103	14.494	867.914	656.411
248.117	14.669	867.600	656.805
249.132	14.704	866.922	656.370
250.147	14.666	866.766	656.047
251.161	14.889	865.604	655.985
252.176	14.968	865.076	655.834
253.190	14.902	864.563	655.131
254.205	14.968	863.662	654.646
255.220	15.086	862.852	654.435
256.234	14.976	862.743	653.866
257.249	14.989	861.961	653.265
258.263	15.044	861.739	653.255
259.278	15.006	860.943	652.445
260.293	15.039	860.302	652.030
261.307	15.106	859.819	651.868
262.322	15.083	859.321	651.341
263.336	15.047	858.703	650.675
264.351	15.145	857.974	650.448
265.366	15.177	857.288	649.995
266.380	15.105	856.690	649.202
267.395	15.199	856.102	649.064
268.409	15.065	855.461	648.004
269.424	15.174	854.778	647.850
270.439	15.145	854.267	647.292
271.453	15.145	853.330	646.526
272.468	15.145	852.244	645.647
273.482	15.080	851.777	644.985
274.497	15.179	851.410	645.032
275.512	15.126	850.929	644.403
276.526	15.342	849.882	644.384
277.541	15.185	849.556	643.479
278.555	15.225	849.044	643.186
279.570	15.370	848.284	643.109
280.585	15.416	848.145	643.124
281.599	15.468	847.022	642.417
282.614	15.227	847.155	641.536
283.628	15.328	846.269	641.196
284.643	15.421	845.545	640.944
285.657	15.300	845.298	640.238
286.672	15.415	844.394	639.936
287.687	15.237	844.322	639.146
288.701	15.371	843.585	639.044
289.716	15.342	843.173	638.564
290.730	15.467	842.796	638.698
291.745	15.466	841.643	637.761
292.760	15.486	841.110	637.379
293.774	15.472	840.483	636.795
294.789	15.502	840.300	636.713
295.803	15.430	839.532	635.802
296.818	15.580	838.929	635.858
297.833	15.545	838.438	635.294
298.847	15.433	837.705	634.260
299.862	15.478	836.830	633.711
300.876	15.451	836.440	633.258
301.891	15.529	835.463	632.757
302.906	15.719	834.818	632.929
303.920	15.732	834.125	632.394
304.935	15.757	833.814	632.198
305.949	15.809	833.150	631.834
306.964	15.874	832.492	631.523
307.979	15.793	832.034	630.813
308.993	15.838	831.371	630.426
310.008	15.843	831.010	630.114
311.022	15.799	830.749	629.694
312.037	15.935	829.704	629.355
313.052	15.617	829.571	628.011
314.066	15.703	828.997	627.842
315.081	15.678	828.338	627.196
316.095	15.789	827.175	626.670
317.110	15.813	827.014	626.586
318.125	15.689	827.019	626.072
319.139	15.705	826.082	625.366
320.154	15.616	825.800	624.765
321.168	15.687	825.295	624.593
322.183	15.797	824.586	624.409
323.197	15.830	824.070	624.085
324.212	15.808	823.602	623.593
325.227	15.823	823.117	623.226
326.241	15.890	822.431	622.902
327.256	15.847	822.070	622.412
328.270	15.830	821.468	621.838
329.285	15.780	820.864	621.141
330.300	15.768	820.476	620.748
331.314	15.887	819.847	620.657
332.329	15.921	819.065	620.136
333.343	16.030	818.015	619.687
334.358	16.023	817.939	619.548
335.373	15.998	817.692	619.213
336.387	15.886	817.458	618.571
337.402	16.045	816.511	618.384
338.416	16.118	815.915	618.143
339.431	16.122	815.470	617.766
340.446	16.076	814.899	617.111
341.460	16.269	814.374	617.367
342.475	16.170	813.834	616.541
343.489	16.339	813.139	616.576
344.504	16.398	812.346	616.135
345.519	16.444	812.183	616.125
346.533	16.463	811.490	615.614
347.548	16.332	811.513	615.099
348.562	16.363	810.463	614.363
349.577	16.228	810.323	613.712
350.592	16.236	809.593	613.134
351.606	16.307	809.049	612.923
352.621	16.146	808.826	612.117
353.635	16.132	808.585	611.828
354.650	16.246	807.799	611.594
355.665	16.374	807.340	611.654
356.679	16.360	806.914	611.229
357.694	16.321	806.504	610.724
358.708	16.374	806.207	610.635
359.723	16.442	805.491	610.285
360.738	16.503	804.734	609.878
361.752	16.424	804.612	609.444
362.767	16.527	803.939	609.253
363.781	16.421	803.612	608.569
364.796	16.565	803.271	608.775
365.810	16.576	802.844	608.438
366.825	16.682	802.176	608.257
367.840	16.806	801.965	608.490
368.854	16.731	801.329	607.684
369.869	16.668	801.193	607.303
370.883	16.696	800.526	606.842
371.898	16.765	799.921	606.578
372.913	16.720	799.496	606.040
373.927	16.927	798.714	606.132
374.942	16.758	798.269	605.137
375.956	16.721	797.430	604.318
376.971	16.748	796.734	603.831
377.986	16.885	796.321	603.954
379.000	16.799	795.944	603.310
380.015	16.818	795.924	603.309
381.029	16.721	795.146	602.320
382.044	16.929	794.419	602.456
383.059	17.061	793.914	602.485
384.073	16.994	793.349	601.767
385.088	16.851	792.967	600.915
386.102	16.784	792.366	600.171
387.117	16.914	791.706	600.079
388.132	16.873	791.279	599.555
389.146	16.847	791.138	599.306
390.161	16.926	790.953	599.391
391.175	16.877	790.640	598.929
392.190	17.042	790.047	599.007
393.205	16.963	789.766	598.462
394.219	17.024	789.175	598.176
395.234	16.926	788.323	597.135
396.248	16.818	788.105	596.534
397.263	16.895	787.549	596.333
398.278	16.996	786.988	596.209
399.292	16.922	786.494	595.524
400.307	16.801	786.555	595.092
401.321	17.014	785.811	595.224
402.336	16.969	785.492	594.771
403.350	17.077	784.904	594.652
404.365	17.019	784.887	594.381
405.380	17.192	783.961	594.234
406.394	17.153	783.729	593.868
407.409	17.062	783.612	593.409
408.423	17.270	783.111	593.703
409.438	17.207	782.525	592.987
410.453	17.094	782.394	592.443
411.467	17.298	781.836	592.679
412.482	17.349	780.996	592.165
413.496	17.508	780.494	592.287
414.511	17.481	780.366	592.044
415.526	17.434	779.827	591.418
416.540	17.302	780.006	591.042
417.555	17.490	779.368	591.161
418.569	17.423	778.741	590.399
419.584	17.620	777.932	590.416
420.599	17.469	778.008	589.900
421.613	105.964	1284.609	1450.842
422.628	90.490	1358.401	1450.940
