DTS Sentinel unit serial number:	SN413079Multiplexer serial number:	ORYXHardware model number:	OX4-SRSoftware version number:	ORYX F/W v4.00 Oryx Data Collector v3.7.2.0data status	okinstallation	princeton_trtdifferential loss correction	single-endedforward channel	channel 3reverse channel	N/Adate	2019/09/12time	16:06:11forward acquisition time	60.00reverse acquisition time	0.00gamma	496.2192k internal	0.2299k external	0.2299temperature offset calibration	1.0068default loss term (dB/km)	0.3790temperature slope calibration	1.0000multiplexer offset coefficient	1.0000multiplexer slope coefficient	1.0000fibre end	0.00T internal ref (°C)	38.69T ext. ref 1 (°C)	2.51T ext. ref 2 (°C)	31.64length (m)	temperature (°C)	Stokes	anti-Stokes-747.200	-44.361	0.492	0.251
-746.185	800.000	0.020	-0.061
-745.171	800.000	0.073	-0.264
-744.156	-200.000	0.020	0.279
-743.142	-200.000	0.003	0.054
-742.127	-200.000	-0.014	-0.068
-741.112	-200.000	-0.028	-0.136
-740.098	800.000	0.020	0.068
-739.083	-152.759	-0.212	-0.015
-738.069	149.753	0.078	0.108
-737.054	82.434	-0.032	0.036
-736.039	349.061	0.101	0.203
-735.025	-96.914	0.352	-0.094
-734.010	-200.000	0.012	-0.101
-732.996	97.335	-0.066	0.078
-731.981	-84.738	-0.461	0.148
-730.966	85.112	-0.074	0.083
-729.952	-103.390	-0.307	0.074
-728.937	177.977	-0.253	-0.376
-727.923	800.000	-0.050	-0.154
-726.908	-81.368	0.229	0.077
-725.894	-140.426	0.090	0.010
-724.879	-200.000	0.016	-0.257
-723.864	162.339	-0.048	-0.069
-722.850	69.328	0.359	-0.377
-721.835	-98.137	-0.107	-0.028
-720.821	136.649	0.274	-0.364
-719.806	-162.484	0.261	0.013
-718.791	-56.041	-0.091	-0.041
-717.777	800.000	-0.161	-0.458
-716.762	800.000	0.074	-0.236
-715.748	-49.008	-0.193	0.094
-714.733	-106.788	-0.255	-0.058
-713.718	-66.044	-0.110	0.045
-712.704	-125.659	0.285	-0.044
-711.689	-121.017	-0.115	-0.020
-710.675	-30.448	-0.300	-0.174
-709.660	-165.498	0.109	0.005
-708.645	800.000	0.019	0.066
-707.631	483.446	0.086	-0.200
-706.616	-70.002	0.370	0.144
-705.602	-46.303	0.067	0.033
-704.587	350.519	0.080	0.160
-703.572	-173.662	-0.410	-0.012
-702.558	-200.000	0.014	0.099
-701.543	88.962	0.031	0.035
-700.529	800.000	0.096	-0.369
-699.514	-160.712	-0.066	-0.004
-698.499	-68.721	-0.168	-0.066
-697.485	-33.554	-0.148	-0.083
-696.470	-115.353	0.213	-0.041
-695.456	-200.000	0.040	-0.355
-694.441	-43.710	0.315	0.162
-693.426	187.233	0.060	-0.091
-692.412	800.000	-0.034	-0.125
-691.397	-162.368	0.149	0.008
-690.383	-116.821	0.347	0.065
-689.368	-200.000	0.082	0.505
-688.354	-54.020	-0.269	0.125
-687.339	54.034	0.178	0.174
-686.324	69.193	0.192	0.201
-685.310	-91.236	-0.277	-0.081
-684.295	-200.000	0.059	-0.272
-683.281	730.891	-0.097	-0.264
-682.266	-67.252	-0.223	0.089
-681.251	800.000	0.088	-0.337
-680.237	-200.000	0.020	0.163
-679.222	-200.000	-0.002	0.234
-678.208	-28.738	0.150	0.088
-677.193	-167.439	0.406	0.017
-676.178	-200.000	-0.009	-0.061
-675.164	-90.396	-0.307	-0.091
-674.149	-149.629	0.328	-0.026
-673.135	800.000	0.026	0.080
-672.120	-200.000	-0.010	-0.235
-671.105	-109.751	-0.239	0.051
-670.091	-17.535	-0.057	0.036
-669.076	-87.285	-0.070	-0.022
-668.062	-22.524	-0.220	-0.135
-667.047	-105.948	0.275	-0.063
-666.032	-200.000	0.009	0.098
-665.018	250.604	0.097	-0.168
-664.003	-30.739	0.102	0.058
-662.989	-46.556	-0.197	0.098
-661.974	-71.163	0.025	0.010
-660.959	-200.000	0.019	0.423
-659.945	65.921	0.316	-0.326
-658.930	800.000	0.067	-0.196
-657.916	-84.785	-0.173	-0.055
-656.901	-119.981	0.165	0.029
-655.886	-152.378	-0.193	0.014
-654.872	-73.188	-0.331	-0.123
-653.857	198.637	-0.077	-0.119
-652.843	123.710	-0.126	0.161
-651.828	149.723	-0.168	0.232
-650.814	-19.818	-0.157	-0.098
-649.799	-81.913	-0.229	-0.076
-648.784	17.680	-0.122	0.099
-647.770	-200.000	0.003	0.157
-646.755	-80.120	0.013	-0.004
-645.741	-166.762	-0.199	0.008
-644.726	647.723	0.086	0.224
-643.711	174.806	-0.071	-0.104
-642.697	-158.696	0.071	0.004
-641.682	800.000	0.066	0.187
-640.668	-34.569	-0.315	0.175
-639.653	107.514	-0.192	-0.233
-638.638	27.319	-0.259	0.221
-637.624	-78.632	-0.476	0.165
-636.609	185.297	-0.114	-0.171
-635.595	-124.854	-0.276	0.043
-634.580	800.000	0.052	0.192
-633.565	-200.000	0.036	0.212
-632.551	-25.832	-0.119	0.071
-631.536	8.289	0.174	-0.133
-630.522	-2.520	-0.244	0.173
-629.507	249.711	0.090	0.155
-628.492	800.000	0.074	0.279
-627.478	-154.673	-0.249	0.017
-626.463	6.123	0.235	-0.177
-625.449	-51.761	-0.129	-0.061
-624.434	-200.000	0.052	0.401
-623.419	-84.454	0.302	0.097
-622.405	13.613	0.192	-0.151
-621.390	273.579	-0.055	-0.099
-620.376	302.250	0.040	0.075
-619.361	-200.000	-0.020	-0.184
-618.346	-200.000	0.023	-0.234
-617.332	260.845	-0.107	0.188
-616.317	800.000	-0.084	-0.291
-615.303	-106.938	0.490	0.110
-614.288	-57.205	0.196	-0.088
-613.273	-200.000	-0.026	0.133
-612.259	800.000	0.043	0.166
-611.244	-110.943	-0.142	-0.030
-610.230	-135.624	0.281	-0.034
-609.215	328.816	-0.088	-0.172
-608.201	348.118	0.047	0.095
-607.186	-200.000	0.044	-0.200
-606.171	-106.165	0.076	0.017
-605.157	90.365	0.143	0.163
-604.142	-68.140	-0.105	0.042
-603.128	-200.000	-0.017	0.203
-602.113	230.186	-0.164	-0.272
-601.098	209.666	0.075	0.119
-600.084	-84.127	-0.333	-0.107
-599.069	66.431	0.138	0.142
-598.055	258.383	-0.169	0.295
-597.040	163.473	-0.056	0.080
-596.025	35.292	-0.405	0.360
-595.011	-6.675	-0.219	0.151
-593.996	-132.351	-0.467	0.061
-592.982	225.948	0.002	-0.003
-591.967	-130.848	-0.157	-0.021
-590.952	-95.808	0.299	-0.081
-589.938	-82.579	-0.077	0.025
-588.923	13.750	0.104	0.082
-587.909	-18.676	0.085	0.054
-586.894	20.619	-0.055	-0.045
-585.879	226.218	-0.028	0.047
-584.865	116.427	0.087	-0.108
-583.850	-200.000	-0.045	0.428
-582.836	160.720	-0.100	0.141
-581.821	-139.222	0.114	0.012
-580.806	-200.000	-0.004	-0.226
-579.792	800.000	-0.041	-0.138
-578.777	800.000	0.088	-0.335
-577.763	35.693	0.209	0.187
-576.748	341.155	0.122	-0.241
-575.733	117.906	0.084	0.105
-574.719	-103.666	-0.452	-0.107
-573.704	-89.386	0.319	0.095
-572.690	-200.000	-0.028	0.274
-571.675	189.938	-0.078	-0.119
-570.661	101.759	0.111	0.131
-569.646	-37.255	-0.098	0.053
-568.631	58.690	0.094	0.093
-567.617	-200.000	0.032	-0.190
-566.602	31.093	0.095	-0.082
-565.588	-200.000	-0.031	0.258
-564.573	800.000	0.032	0.104
-563.558	98.706	0.061	-0.071
-562.544	148.402	0.094	0.128
-561.529	109.853	0.117	-0.142
-560.515	57.795	-0.094	0.093
-559.500	628.703	0.046	0.119
-558.485	29.068	-0.165	-0.142
-557.471	74.112	-0.297	0.316
-556.456	-41.898	0.206	0.107
-555.442	-200.000	0.007	0.193
-554.427	46.568	0.066	-0.062
-553.412	186.281	-0.178	0.269
-552.398	234.344	-0.231	0.386
-551.383	-123.826	0.168	-0.027
-550.369	-117.682	0.069	0.013
-549.354	103.087	0.125	-0.148
-548.339	96.808	-0.125	0.145
-547.325	800.000	-0.049	-0.160
-546.310	-165.780	-0.148	-0.006
-545.296	-135.627	-0.121	0.015
-544.281	429.851	0.221	0.484
-543.266	-80.224	-0.180	-0.061
-542.252	-200.000	-0.003	-0.079
-541.237	-200.000	0.042	0.333
-540.223	1.220	0.150	0.109
-539.208	-200.000	-0.023	-0.165
-538.193	384.645	0.107	-0.223
-537.179	234.525	0.139	-0.233
-536.164	-142.225	-0.336	0.034
-535.150	104.292	-0.170	-0.202
-534.135	129.062	0.156	-0.202
-533.121	800.000	0.045	0.142
-532.106	163.298	0.127	0.181
-531.091	-200.000	-0.027	-0.222
-530.077	95.005	-0.095	0.110
-529.062	-153.124	0.051	-0.004
-528.048	-200.000	-0.008	-0.302
-527.033	-86.400	0.222	-0.069
-526.018	201.582	-0.114	0.178
-525.004	5.219	0.188	-0.140
-523.989	-107.925	0.238	-0.052
-522.975	404.047	0.064	-0.137
-521.960	412.103	-0.094	0.202
-520.945	-200.000	0.033	0.198
-519.931	129.413	0.120	0.155
-518.916	46.283	0.225	-0.211
-517.902	-200.000	0.000	-0.161
-516.887	76.108	-0.058	0.062
-515.872	70.070	0.119	0.124
-514.858	-169.683	0.133	0.005
-513.843	-175.729	-0.652	-0.018
-512.829	-153.671	-0.128	-0.009
-511.814	216.628	0.108	-0.174
-510.799	800.000	-0.111	-0.421
-509.785	-87.753	-0.617	-0.188
-508.770	-89.696	-0.151	-0.045
-507.756	-200.000	-0.027	0.159
-506.741	15.258	0.185	0.146
-505.726	83.439	-0.084	0.092
-504.712	-82.617	0.443	-0.145
-503.697	-200.000	0.039	-0.406
-502.683	144.658	-0.226	-0.305
-501.668	-200.000	0.027	-0.359
-500.653	179.088	0.189	0.279
-499.639	-100.495	0.338	-0.085
-498.624	-66.817	0.268	0.107
-497.610	118.197	-0.257	-0.320
-496.595	9.527	0.181	-0.139
-495.581	-165.308	-0.231	0.010
-494.566	-200.000	-0.033	0.260
-493.551	-145.543	0.323	0.029
-492.537	-200.000	-0.003	-0.116
-491.522	574.795	0.062	0.152
-490.508	631.823	-0.065	0.167
-489.493	-19.031	0.137	-0.086
-488.478	-129.751	-0.179	0.025
-487.464	-200.000	0.005	0.297
-486.449	-70.000	0.395	-0.152
-485.435	800.000	-0.048	-0.212
-484.420	-200.000	0.029	-0.415
-483.405	36.182	-0.350	0.311
-482.391	-200.000	-0.027	0.172
-481.376	57.480	-0.096	0.094
-480.362	-200.000	-0.041	-0.366
-479.347	216.008	-0.121	-0.193
-478.332	-45.659	0.247	0.124
-477.318	-200.000	0.036	-0.205
-476.303	-200.000	0.003	-0.145
-475.289	-200.000	0.147	-0.001
-474.274	-109.467	-0.237	-0.051
-473.259	-38.417	0.047	0.025
-472.245	-60.605	0.637	0.273
-471.230	268.191	0.019	0.033
-470.216	-200.000	0.014	-0.464
-469.201	311.864	0.129	-0.244
-468.186	60.648	-0.259	-0.259
-467.172	525.094	0.119	-0.283
-466.157	104.934	0.125	-0.149
-465.143	-13.806	-0.292	0.191
-464.128	448.909	-0.083	-0.184
-463.113	-92.123	-0.551	0.157
-462.099	-200.000	-0.014	-0.459
-461.084	-200.000	0.022	-0.104
-460.070	-200.000	0.043	-0.222
-459.055	65.194	-0.288	0.294
-458.040	156.411	-0.147	0.204
-457.026	8.638	0.217	0.165
-456.011	-71.712	0.053	0.020
-454.997	-31.912	0.326	-0.184
-453.982	264.186	0.043	-0.076
-452.968	-46.511	-0.268	-0.133
-451.953	81.584	-0.277	-0.302
-450.938	-40.945	0.474	-0.247
-449.924	58.333	-0.303	0.300
-448.909	31.656	-0.084	0.073
-447.895	-93.564	0.153	-0.043
-446.880	49.460	0.098	-0.093
-445.865	-124.969	-0.205	0.032
-444.851	-47.165	0.212	0.104
-443.836	-200.000	-0.001	0.118
-442.822	-200.000	0.050	-0.325
-441.807	-120.188	0.136	-0.023
-440.792	-28.883	0.136	0.079
-439.778	-34.899	0.199	0.110
-438.763	800.000	-0.104	-0.369
-437.749	-38.541	0.202	0.108
-436.734	42.063	-0.171	-0.156
-435.719	520.419	0.022	0.051
-434.705	133.322	-0.021	-0.027
-433.690	687.234	0.114	0.300
-432.676	-200.000	0.005	-0.157
-431.661	-200.000	-0.026	-0.231
-430.646	-152.117	0.333	0.024
-429.632	-25.819	-0.326	-0.194
-428.617	-75.986	0.095	-0.034
-427.603	99.833	0.114	0.133
-426.588	441.477	0.120	0.266
-425.573	294.875	0.096	-0.177
-424.559	171.996	0.116	-0.168
-423.544	-63.593	-0.306	-0.127
-422.530	-60.052	-0.094	-0.041
-421.515	287.301	0.081	0.148
-420.500	50.608	0.054	0.051
-419.486	156.446	0.073	-0.101
-418.471	-200.000	0.012	0.299
-417.457	-10.038	-0.237	0.159
-416.442	-200.000	-0.066	-0.340
-415.428	-103.383	0.299	0.071
-414.413	571.117	-0.070	0.172
-413.398	-200.000	-0.070	0.387
-412.384	61.226	0.079	-0.079
-411.369	23.791	-0.216	-0.179
-410.355	-67.631	-0.094	0.037
-409.340	-79.824	-0.091	-0.031
-408.325	-60.595	0.388	0.166
-407.311	-124.048	0.173	-0.027
-406.296	89.928	0.179	0.202
-405.282	-55.710	-0.178	0.080
-404.267	-191.347	0.064	0.001
-403.252	-200.000	-0.010	0.113
-402.238	-138.490	-0.243	0.027
-401.223	-99.832	-0.305	0.077
-400.209	-200.000	0.005	-0.193
-399.194	-200.000	0.025	-0.120
-398.179	-124.429	0.131	0.021
-397.165	-90.368	-0.187	-0.055
-396.150	800.000	-0.085	0.325
-395.136	21.386	-0.324	0.265
-394.121	155.586	0.191	0.265
-393.106	-39.276	-0.302	0.160
-392.092	-72.849	-0.306	0.113
-391.077	-200.000	0.021	0.371
-390.063	-88.158	0.119	0.036
-389.048	-41.959	0.265	0.137
-388.033	800.000	0.051	0.168
-387.019	-147.356	0.198	-0.017
-386.004	-51.410	0.347	-0.163
-384.990	-42.087	-0.121	0.062
-383.975	-78.076	0.305	0.106
-382.960	-35.889	0.178	0.097
-381.946	-97.014	0.179	-0.047
-380.931	0.620	-0.248	-0.178
-379.917	8.636	-0.090	-0.068
-378.902	235.022	0.039	-0.064
-377.888	-200.000	-0.025	0.170
-376.873	185.316	-0.226	-0.337
-375.858	-82.631	-0.140	-0.046
-374.844	-200.000	-0.002	0.230
-373.829	-200.000	0.002	0.052
-372.815	-97.137	-0.252	0.066
-371.800	491.493	-0.134	-0.308
-370.785	-57.634	0.133	0.059
-369.771	-100.724	-0.255	0.063
-368.756	-200.000	-0.031	0.195
-367.742	-200.000	0.002	0.186
-366.727	-185.440	-0.268	0.004
-365.712	71.369	0.249	-0.260
-364.698	241.440	0.102	-0.171
-363.683	88.069	-0.258	0.287
-362.669	51.475	-0.020	-0.019
-361.654	-200.000	0.019	0.099
-360.639	-136.566	-0.451	-0.053
-359.625	60.491	0.192	0.191
-358.610	800.000	-0.082	-0.259
-357.596	232.266	0.117	-0.194
-356.581	315.074	0.103	-0.195
-355.566	360.414	-0.034	-0.068
-354.552	-180.967	0.229	-0.005
-353.537	63.930	-0.123	-0.124
-352.523	666.459	-0.142	-0.368
-351.508	58.542	0.108	0.106
-350.493	322.593	0.106	-0.203
-349.479	-58.653	-0.217	0.094
-348.464	-200.000	-0.008	0.231
-347.450	-107.623	0.463	0.102
-346.435	-76.620	0.280	-0.099
-345.420	-65.272	0.254	0.103
-344.406	98.812	-0.096	-0.112
-343.391	44.228	0.302	0.278
-342.377	-82.089	-0.464	0.152
-341.362	64.945	-0.110	-0.111
-340.348	-89.646	-0.270	-0.080
-339.333	-76.331	0.266	0.094
-338.318	195.046	-0.128	-0.195
-337.304	-200.000	0.044	-0.205
-336.289	-121.756	0.131	-0.022
-335.275	99.360	0.143	-0.166
-334.260	-200.000	0.046	0.259
-333.245	-200.000	-0.049	0.402
-332.231	-80.028	-0.139	-0.047
-331.216	138.829	-0.172	0.228
-330.202	-200.000	-0.069	0.381
-329.187	-200.000	0.014	-0.153
-328.172	73.483	0.159	0.167
-327.158	-44.733	0.200	-0.100
-326.143	-200.000	0.032	0.607
-325.129	-20.695	-0.172	0.106
-324.114	-200.000	-0.046	0.304
-323.099	-95.578	0.053	-0.014
-322.085	-134.039	0.383	-0.048
-321.070	-134.767	0.068	-0.008
-320.056	70.763	0.142	-0.148
-319.041	312.235	0.115	-0.217
-318.026	604.593	-0.087	-0.217
-317.012	135.044	-0.219	0.285
-315.997	501.635	0.152	0.352
-314.983	-200.000	0.063	0.311
-313.968	-77.711	-0.040	0.014
-312.953	119.678	0.080	-0.099
-311.939	-98.153	0.102	-0.026
-310.924	90.965	0.321	-0.361
-309.910	8.770	0.185	-0.140
-308.895	800.000	-0.094	0.273
-307.880	326.402	-0.035	-0.067
-306.866	800.000	0.118	0.338
-305.851	-57.544	-0.153	-0.068
-304.837	634.493	-0.058	-0.147
-303.822	47.302	0.336	-0.314
-302.807	93.228	0.196	-0.222
-301.793	-148.366	0.272	-0.022
-300.778	-29.859	-0.297	0.170
-299.764	-180.786	0.246	0.005
-298.749	800.000	0.015	0.044
-297.735	98.700	0.278	0.321
-296.720	-200.000	0.000	0.065
-295.705	-200.000	-0.079	-0.405
-294.691	-154.436	0.491	-0.033
-293.676	-100.453	-0.209	-0.052
-292.662	-200.000	-0.022	-0.178
-291.647	405.186	-0.123	-0.260
-290.632	433.966	-0.007	-0.016
-289.618	-109.385	-0.285	0.060
-288.603	302.450	0.053	0.099
-287.589	242.155	-0.109	-0.183
-286.574	-143.031	-0.227	-0.022
-285.559	-200.000	-0.027	-0.123
-284.545	27.684	0.120	0.101
-283.530	-65.622	0.111	-0.045
-282.516	-200.000	-0.050	-0.404
-281.501	800.000	0.084	0.332
-280.486	-155.051	0.163	0.011
-279.472	268.993	0.055	0.097
-278.457	-86.556	0.273	-0.084
-277.443	-106.108	-0.161	0.036
-276.428	-88.688	-0.315	-0.094
-275.413	115.503	-0.091	-0.111
-274.399	749.209	-0.091	-0.246
-273.384	601.680	0.072	0.179
-272.370	-200.000	0.067	0.364
-271.355	301.902	0.174	0.323
-270.340	-110.941	-0.331	0.068
-269.326	-61.388	0.437	0.184
-268.311	-58.625	-0.345	-0.150
-267.297	42.150	0.082	0.075
-266.282	-38.959	-0.210	0.111
-265.267	162.703	0.067	0.095
-264.253	-128.976	-0.299	-0.042
-263.238	370.451	-0.215	-0.436
-262.224	29.116	0.249	0.211
-261.209	62.037	0.090	0.090
-260.195	107.927	-0.113	0.135
-259.180	634.965	0.015	0.038
-258.165	48.528	0.309	0.290
-257.151	164.500	0.117	-0.165
-256.136	-52.325	-0.258	0.120
-255.122	226.847	-0.047	0.076
-254.107	800.000	0.036	-0.140
-253.092	471.286	-0.083	-0.187
-252.078	-50.196	0.119	-0.056
-251.063	-96.852	0.159	-0.042
-250.049	-42.849	-0.081	-0.041
-249.034	123.297	-0.157	0.197
-248.019	800.000	-0.047	-0.180
-247.005	734.809	0.081	-0.217
-245.990	-155.587	-0.468	0.030
-244.976	-101.739	0.186	0.045
-243.961	272.369	-0.238	0.421
-242.946	-59.158	0.186	-0.080
-241.932	-200.000	-0.011	-0.078
-240.917	-148.793	0.289	-0.023
-239.903	-200.000	0.002	0.092
-238.888	106.010	0.152	0.180
-237.873	-12.467	0.225	0.147
-236.859	-200.000	0.038	-0.406
-235.844	-141.371	0.106	0.011
-234.830	14.535	0.233	0.182
-233.815	55.157	-0.253	-0.245
-232.800	-150.531	-0.140	-0.011
-231.786	115.279	0.199	-0.243
-230.771	-200.000	-0.027	-0.406
-229.757	-75.916	-0.433	-0.153
-228.742	-176.192	-0.157	0.004
-227.727	-91.501	-0.141	-0.040
-226.713	158.228	0.118	0.164
-225.698	-68.998	0.146	-0.056
-224.684	520.273	-0.067	-0.157
-223.669	17.139	0.139	0.110
-222.655	-120.692	-0.168	0.028
-221.640	-49.320	-0.068	-0.032
-220.625	-200.000	0.002	-0.103
-219.611	277.881	-0.036	0.064
-218.596	-143.564	0.187	0.018
-217.582	800.000	-0.099	-0.342
-216.567	124.795	-0.259	0.326
-215.552	-200.000	-0.028	-0.173
-214.538	-119.804	0.098	0.017
-213.523	206.995	0.120	-0.188
-212.509	-41.667	0.142	-0.073
-211.494	90.748	0.081	-0.091
-210.479	184.974	0.169	0.250
-209.465	1.246	0.206	0.148
-208.450	16.944	-0.314	-0.249
-207.436	445.928	0.110	-0.241
-206.421	-29.530	-0.153	0.088
-205.406	-91.371	-0.161	-0.046
-204.392	-200.000	-0.011	-0.065
-203.377	800.000	0.063	0.188
-202.363	-79.120	-0.282	-0.096
-201.348	120.619	0.184	-0.228
-200.333	363.845	0.047	-0.095
-199.319	37.172	-0.294	0.260
-198.304	-200.000	-0.045	0.293
-197.290	-91.800	-0.127	0.036
-196.275	-23.728	-0.200	0.120
-195.260	-14.957	-0.155	-0.099
-194.246	511.130	-0.069	0.160
-193.231	-171.870	-0.353	-0.012
-192.217	-75.977	0.190	-0.067
-191.202	-200.000	-0.030	0.144
-190.187	393.150	0.220	-0.457
-189.173	114.535	0.115	-0.140
-188.158	21.222	-0.257	0.208
-187.144	-79.111	0.141	-0.048
-186.129	187.207	0.140	-0.208
-185.114	96.259	-0.189	0.215
-184.100	11.994	-0.083	-0.064
-183.085	-101.189	-0.060	-0.015
-182.071	-27.321	0.041	0.024
-181.056	-200.000	0.021	-0.162
-180.042	536.172	0.052	-0.123
-179.027	-124.037	-0.105	-0.016
-178.012	51.337	-0.067	0.063
-176.998	-200.000	-0.038	0.211
-175.983	-200.000	0.016	-0.155
-174.969	800.000	0.022	0.062
-173.954	47.516	0.203	0.189
-172.939	222.815	0.099	-0.160
-171.925	687.016	0.184	-0.479
-170.910	800.000	-0.097	-0.292
-169.896	-45.316	-0.233	0.115
-168.881	-2.567	0.160	-0.112
-167.866	46.218	-0.241	0.223
-166.852	-46.722	-0.290	-0.142
-165.837	-28.484	0.126	0.072
-164.823	228.408	0.036	-0.058
-163.808	-200.000	0.013	0.365
-162.793	-19.335	0.251	0.155
-161.779	-200.000	-0.014	-0.133
-160.764	-110.851	0.059	-0.012
-159.750	-200.000	-0.007	0.307
-158.735	58.815	0.480	-0.471
-157.720	-60.340	-0.184	0.078
-156.706	-103.377	0.103	0.024
-155.691	-200.000	0.030	-0.201
-154.677	355.684	0.017	-0.033
-153.662	-200.000	0.015	-0.220
-152.647	88.490	-0.141	-0.156
-151.633	55.171	0.290	-0.280
-150.618	-23.366	0.240	-0.144
-149.604	-147.700	0.221	0.019
-148.589	-61.666	0.081	0.034
-147.574	800.000	-0.038	-0.163
-146.560	-35.235	0.178	0.097
-145.545	393.148	0.075	0.155
-144.531	-200.000	-0.025	0.447
-143.516	-200.000	-0.030	0.240
-142.502	-130.063	-0.053	-0.007
-141.487	-105.959	-0.342	-0.077
-140.472	32.135	0.252	-0.217
-139.458	-143.875	0.210	-0.020
-138.443	800.000	-0.140	-0.416
-137.429	-196.426	0.367	0.002
-136.414	-200.000	0.041	0.204
-135.399	-41.344	0.533	-0.274
-134.385	-126.978	-0.316	-0.046
-133.370	0.243	0.136	-0.097
-132.356	-200.000	-0.062	-0.330
-131.341	-200.000	-0.002	-0.174
-130.326	-73.310	0.049	-0.018
-129.312	102.902	-0.100	0.117
-128.297	141.002	0.135	-0.178
-127.283	-200.000	-0.013	-0.403
-126.268	-146.995	-0.179	0.015
-125.253	209.308	0.170	-0.266
-124.239	54.437	0.212	-0.203
-123.224	-22.314	-0.257	0.155
-122.210	290.358	0.174	0.315
-121.195	800.000	-0.028	0.099
-120.180	-200.000	0.207	0.001
-119.166	-200.000	0.045	0.221
-118.151	759.001	-0.074	0.199
-117.137	-200.000	0.005	-0.124
-116.122	-19.623	0.108	0.067
-115.107	-7.852	0.251	-0.169
-114.093	-200.000	0.011	-0.200
-113.078	27.479	0.234	-0.196
-112.064	-36.834	-0.296	-0.158
-111.049	72.432	-0.154	0.160
-110.034	-96.931	0.319	0.083
-109.020	-111.008	0.142	-0.029
-108.005	119.141	0.300	-0.369
-106.991	-200.000	0.006	-0.103
-105.976	-87.980	-0.180	0.054
-104.962	-200.000	-0.007	0.095
-103.947	-200.000	0.012	0.264
-102.932	-139.822	-0.118	0.012
-101.918	-115.694	-0.208	-0.039
-100.903	-200.000	-0.077	0.464
-99.889	345.788	0.090	-0.176
-98.874	187.686	-0.229	0.340
-97.859	142.364	0.195	-0.257
-96.845	-200.000	0.022	0.407
-95.830	252.223	0.247	0.419
-94.816	800.000	-0.056	0.227
-93.801	800.000	0.008	0.033
-92.786	800.000	-0.051	-0.145
-91.772	-97.016	0.184	-0.048
-90.757	130.557	0.119	0.151
-89.743	269.638	-0.116	0.203
-88.728	42.481	0.093	0.085
-87.713	-200.000	-0.005	-0.117
-86.699	341.095	0.071	-0.138
-85.684	154.225	-0.154	-0.211
-84.670	-200.000	0.024	0.187
-83.655	-21.543	0.293	0.178
-82.640	156.729	0.102	-0.140
-81.626	99.629	-0.105	-0.121
-80.611	-32.447	-0.239	-0.133
-79.597	-200.000	0.047	0.331
-78.582	16.716	0.289	0.227
-77.567	-74.437	-0.189	-0.068
-76.553	68.460	0.119	-0.121
-75.538	100.197	-0.097	0.112
-74.524	-200.000	-0.019	0.394
-73.509	366.600	0.061	-0.122
-72.494	-82.701	-0.196	0.063
-71.480	153.245	0.035	-0.048
-70.465	71.677	-0.168	0.174
-69.451	192.413	0.114	0.171
-68.436	4.497	-0.239	0.174
-67.422	-138.633	-0.166	-0.018
-66.407	161.773	0.147	0.204
-65.392	-68.399	0.219	0.085
-64.378	360.274	-0.119	-0.238
-63.363	83.939	-0.126	0.137
-62.349	-65.790	0.166	-0.066
-61.334	28.056	-0.814	-0.683
-60.319	51.477	0.321	0.303
-59.305	-200.000	-0.147	-0.840
-58.290	132.548	0.522	0.669
-57.276	800.000	0.490	1.411
-56.261	-200.000	85.273	506.982
-55.246	489.110	1366.936	3103.441
-54.232	148.605	2577.104	3459.044
-53.217	112.248	2225.558	2673.271
-52.203	48.317	1760.592	1636.971
-51.188	41.687	1569.205	1412.301
-50.173	39.293	1541.474	1370.636
-49.159	55.241	1586.658	1523.870
-48.144	59.641	1606.603	1574.099
-47.130	42.256	1564.692	1412.024
-46.115	39.074	1548.609	1375.225
-45.100	38.823	1546.214	1371.287
-44.086	38.729	1544.336	1368.917
-43.071	38.717	1542.191	1366.875
-42.057	38.573	1540.233	1364.083
-41.042	38.546	1539.674	1363.345
-40.027	38.684	1537.356	1362.198
-39.013	38.656	1535.608	1360.402
-37.998	38.588	1534.377	1358.787
-36.984	38.692	1532.941	1358.179
-35.969	38.793	1531.267	1357.340
-34.954	38.737	1530.381	1356.117
-33.940	38.713	1529.152	1354.805
-32.925	38.655	1528.015	1353.347
-31.911	38.722	1526.716	1352.599
-30.896	38.803	1524.987	1351.578
-29.881	38.699	1523.749	1349.709
-28.867	38.803	1522.375	1349.155
-27.852	38.659	1521.368	1347.218
-26.838	38.768	1519.578	1346.325
-25.823	38.737	1518.225	1344.863
-24.809	38.714	1516.284	1342.933
-23.794	38.697	1514.976	1341.602
-22.779	38.637	1513.626	1339.943
-21.765	38.775	1512.567	1339.898
-20.750	38.783	1511.064	1338.565
-19.736	38.747	1509.915	1337.252
-18.721	38.732	1508.556	1335.890
-17.706	38.680	1507.625	1334.662
-16.692	38.726	1506.299	1333.745
-15.677	38.665	1505.339	1332.429
-14.663	38.650	1504.080	1331.157
-13.648	38.647	1502.919	1330.059
-12.633	38.683	1501.661	1329.135
-11.619	38.643	1501.096	1328.315
-10.604	38.668	1500.556	1327.948
-9.590	38.591	1499.612	1326.543
-8.575	38.680	1498.188	1325.831
-7.560	38.638	1497.901	1325.241
-6.546	38.666	1496.953	1324.536
-5.531	38.565	1496.171	1323.110
-4.517	38.574	1495.072	1322.151
-3.502	38.600	1493.977	1321.303
-2.487	38.583	1492.613	1319.932
-1.473	38.611	1491.998	1319.519
-0.458	38.697	1490.404	1318.642
0.556	38.994	1480.227	1304.728
1.571	35.180	1451.439	1254.327
2.586	30.537	1386.518	1168.999
3.600	28.334	1301.721	1084.383
4.615	26.622	1253.151	1034.063
5.629	22.347	1194.790	962.490
6.644	11.859	1105.986	837.489
7.659	3.947	1061.101	764.462
8.673	2.829	1054.969	754.487
9.688	2.528	1052.014	750.833
10.702	2.294	1050.240	748.353
11.717	2.390	1048.627	747.605
12.731	5.735	1053.181	767.180
13.746	16.081	1067.500	828.639
14.761	24.177	1078.537	877.167
15.775	25.988	1079.368	886.681
16.790	26.092	1079.183	886.958
17.804	25.928	1078.323	885.369
18.819	25.737	1077.813	883.936
19.834	25.845	1076.758	883.520
20.848	26.000	1075.998	883.576
21.863	26.079	1076.155	884.015
22.877	26.075	1075.787	883.617
23.892	26.040	1074.858	882.604
24.907	25.900	1074.324	881.403
25.921	25.870	1073.608	880.591
26.936	25.877	1072.946	880.003
27.950	25.907	1071.684	879.037
28.965	25.904	1070.618	878.071
29.980	25.785	1068.950	876.044
30.994	25.835	1067.449	874.980
32.009	25.875	1067.199	874.891
33.023	26.144	1066.320	875.399
34.038	25.780	1065.640	873.001
35.053	25.853	1064.527	872.366
36.067	25.885	1063.655	871.725
37.082	25.918	1063.194	871.432
38.096	26.010	1062.540	871.266
39.111	26.049	1062.159	871.063
40.126	26.189	1060.881	870.613
41.140	26.138	1059.917	869.500
42.155	25.861	1058.289	866.754
43.169	25.512	1057.400	864.269
44.184	25.452	1056.517	863.183
45.199	25.673	1055.082	862.994
46.213	25.662	1053.999	861.980
47.228	25.517	1053.894	861.124
48.242	25.801	1052.743	861.465
49.257	25.794	1051.936	860.697
50.271	25.882	1051.681	860.830
51.286	25.924	1051.218	860.577
52.301	26.094	1050.070	860.370
53.315	26.004	1049.480	859.384
54.330	26.046	1048.536	858.735
55.344	25.951	1047.989	857.760
56.359	25.870	1046.964	856.456
57.374	25.956	1046.005	856.007
58.388	25.808	1045.136	854.519
59.403	25.741	1044.669	853.742
60.417	25.775	1043.592	852.946
61.432	25.615	1042.861	851.517
62.447	25.667	1042.009	850.993
63.461	25.613	1041.955	850.617
64.476	25.661	1040.932	849.932
65.490	25.784	1039.997	849.674
66.505	25.584	1039.046	847.880
67.520	25.601	1038.661	847.574
68.534	25.692	1037.516	846.992
69.549	25.622	1036.839	846.034
70.563	25.300	1035.382	843.259
71.578	25.178	1034.433	841.835
72.593	25.185	1034.000	841.444
73.607	25.086	1032.380	839.586
74.622	25.075	1031.903	839.074
75.636	25.234	1031.297	839.250
76.651	25.541	1030.253	839.760
77.666	25.413	1029.498	838.473
78.680	25.317	1028.630	837.247
79.695	25.270	1028.296	836.682
80.709	25.417	1027.520	836.657
81.724	25.443	1027.169	836.420
82.739	25.558	1025.650	835.645
83.753	25.322	1025.352	834.229
84.768	25.766	1024.549	835.565
85.782	26.125	1023.721	836.479
86.797	26.369	1023.417	837.286
87.812	26.275	1022.418	835.960
88.826	26.075	1021.784	834.444
89.841	26.018	1020.820	833.320
90.855	26.164	1019.926	833.188
91.870	26.211	1019.430	832.929
92.884	26.240	1018.274	832.044
93.899	26.021	1017.893	830.651
94.914	26.026	1016.768	829.682
95.928	26.034	1016.036	829.047
96.943	26.047	1015.327	828.456
97.957	25.752	1014.102	826.030
98.972	25.651	1012.922	824.532
99.987	25.427	1011.813	822.532
101.001	25.554	1011.348	822.661
102.016	25.857	1010.934	823.639
103.030	25.888	1010.128	823.050
104.045	25.877	1008.472	821.578
105.060	25.590	1007.823	819.668
106.074	25.499	1006.436	818.055
107.089	25.478	1005.922	817.467
108.103	25.865	1005.815	819.068
109.118	25.949	1004.737	818.501
110.133	25.686	1003.358	816.108
111.147	25.519	1002.698	814.743
112.162	25.565	1001.223	813.681
113.176	25.288	1000.526	811.793
114.191	25.505	999.654	811.993
115.206	25.553	999.016	811.620
116.220	25.272	997.712	809.222
117.235	25.049	996.861	807.454
118.249	25.280	996.236	807.916
119.264	25.341	995.508	807.530
120.279	25.100	994.783	805.785
121.293	25.056	994.079	804.945
122.308	25.223	993.274	804.972
123.322	25.274	992.312	804.353
124.337	25.302	991.308	803.589
125.352	25.209	989.858	801.930
126.366	24.755	988.613	798.822
127.381	24.344	987.724	796.200
128.395	25.017	987.256	798.754
129.410	25.638	986.891	801.151
130.424	25.733	986.388	801.094
131.439	25.773	985.246	800.277
132.454	25.683	984.604	799.284
133.468	25.686	984.021	798.755
134.483	25.739	983.256	798.297
135.497	25.740	982.252	797.414
136.512	26.050	981.543	798.141
137.527	26.020	980.694	797.249
138.541	26.080	980.197	797.039
139.556	26.123	979.440	796.540
140.570	26.154	978.385	795.750
141.585	26.142	977.671	795.044
142.600	26.235	977.042	794.875
143.614	26.174	975.843	793.561
144.629	26.200	974.920	792.851
145.643	26.227	975.218	793.144
146.658	26.192	973.804	791.771
147.673	26.081	972.349	790.032
148.687	26.079	970.855	788.740
149.702	25.940	969.848	787.244
150.716	25.966	968.957	786.565
151.731	25.756	967.980	784.788
152.746	25.787	967.383	784.368
153.760	26.079	966.839	785.130
154.775	26.234	966.151	785.174
155.789	26.284	965.306	784.633
156.804	26.283	964.425	783.844
157.819	26.086	963.233	781.953
158.833	26.172	962.154	781.382
159.848	26.312	961.996	781.790
160.862	26.423	961.377	781.698
161.877	26.258	960.030	779.818
162.892	26.122	959.185	778.477
163.906	26.182	958.029	777.728
164.921	26.175	957.745	777.399
165.935	26.048	956.305	775.618
166.950	26.216	955.204	775.377
167.964	26.240	954.431	774.785
168.979	26.034	953.898	773.397
169.994	25.971	952.662	772.059
171.008	25.817	951.569	770.445
172.023	26.159	950.895	771.293
173.037	26.342	950.241	771.477
174.052	26.011	949.119	769.085
175.067	25.754	948.223	767.197
176.081	25.787	947.470	766.660
177.096	25.972	946.584	766.660
178.110	25.959	945.659	765.787
179.125	25.844	944.822	764.556
180.140	25.632	943.478	762.503
181.154	25.538	943.171	761.790
182.169	25.633	942.239	761.370
183.183	25.813	942.573	762.335
184.198	26.188	942.049	763.430
185.213	26.196	941.274	762.765
186.227	25.986	940.362	761.073
187.242	26.034	940.330	761.184
188.256	26.082	939.512	760.657
189.271	26.225	938.677	760.514
190.286	26.278	938.186	760.272
191.300	25.998	937.426	758.415
192.315	25.490	936.093	755.134
193.329	24.734	934.318	750.463
194.344	24.233	933.227	747.421
195.359	24.965	932.982	750.227
196.373	25.791	933.709	754.206
197.388	26.053	933.617	755.159
198.402	25.892	933.079	753.986
199.417	26.049	932.203	753.865
200.432	26.092	931.926	753.755
201.446	26.072	930.855	752.737
202.461	25.785	929.964	750.754
203.475	25.669	930.110	750.325
204.490	25.354	928.517	747.660
205.504	24.200	926.046	740.811
206.519	24.481	926.057	741.922
207.534	25.499	926.447	746.398
208.548	25.443	926.224	745.918
209.563	25.915	925.922	747.569
210.577	26.155	924.713	747.523
211.592	25.729	924.005	745.117
212.607	26.110	924.109	746.714
213.621	26.370	923.555	747.277
214.636	26.184	922.837	745.861
215.650	26.326	922.081	745.768
216.665	26.220	921.688	744.946
217.680	26.190	921.226	744.385
218.694	26.192	920.954	744.107
219.709	26.002	919.886	742.395
220.723	25.677	918.625	739.978
221.738	25.826	918.131	740.127
222.753	25.981	918.027	740.611
223.767	25.938	917.255	739.748
224.782	25.993	916.466	739.270
225.796	26.177	916.182	739.731
226.811	26.343	915.618	739.892
227.826	26.011	913.935	737.107
228.840	25.129	912.329	732.146
229.855	25.055	911.662	731.244
230.869	25.181	912.022	731.986
231.884	25.033	910.714	730.265
232.899	24.979	910.469	729.784
233.913	25.795	910.114	732.759
234.928	26.015	909.949	733.454
235.942	25.794	909.474	732.108
236.957	25.939	908.379	731.750
237.972	25.677	907.414	729.847
238.986	25.542	906.987	728.893
240.001	25.585	906.552	728.650
241.015	25.555	905.950	727.980
242.030	25.894	904.962	728.494
243.045	25.868	904.812	728.205
244.059	26.057	904.035	728.275
245.074	26.070	903.839	728.105
246.088	26.256	902.932	728.062
247.103	25.705	902.224	725.206
248.117	25.755	901.373	724.661
249.132	26.220	901.444	726.525
250.147	26.648	901.329	728.088
251.161	26.806	900.841	728.265
252.176	26.859	900.408	728.061
253.190	26.833	899.648	727.280
254.205	26.908	899.270	727.210
255.220	27.147	898.827	727.745
256.234	27.052	898.348	726.911
257.249	26.945	897.465	725.707
258.263	26.755	897.053	724.548
259.278	26.842	896.083	724.047
260.293	26.760	896.287	723.822
261.307	27.118	895.097	724.225
262.322	26.941	894.626	723.075
263.336	26.855	894.067	722.215
264.351	26.286	892.909	718.951
265.366	25.445	890.766	713.823
266.380	24.877	889.667	710.627
267.395	25.584	890.361	713.925
268.409	26.342	890.434	716.929
269.424	26.470	889.628	716.723
270.439	26.461	889.295	716.356
271.453	26.587	888.953	716.514
272.468	26.665	887.847	715.867
273.482	26.858	887.523	716.308
274.497	26.955	887.152	716.327
275.512	26.862	885.781	714.791
276.526	26.130	884.728	710.993
277.541	26.397	884.227	711.579
278.555	26.807	884.124	713.048
279.570	26.505	883.629	711.398
280.585	26.450	882.794	710.448
281.599	26.538	882.185	710.238
282.614	26.578	881.792	710.017
283.628	26.218	880.713	707.675
284.643	25.641	880.686	705.329
285.657	26.213	880.038	706.985
286.672	26.152	879.082	705.918
287.687	25.670	878.245	703.299
288.701	25.880	878.064	703.914
289.716	26.364	877.779	705.510
290.730	25.878	877.112	703.020
291.745	25.973	875.954	702.399
292.760	25.776	875.001	700.806
293.774	25.712	874.253	699.896
294.789	26.505	875.258	703.721
295.803	27.095	875.397	706.068
296.818	27.195	874.938	706.023
297.833	27.310	874.541	706.084
298.847	27.109	873.144	704.117
299.862	26.601	872.302	701.409
300.876	26.797	871.624	701.559
301.891	27.094	871.563	702.595
302.906	27.246	870.867	702.562
303.920	26.872	869.799	700.192
304.935	26.620	869.532	698.945
305.949	27.045	869.110	700.181
306.964	27.132	868.496	699.961
307.979	26.918	867.712	698.442
308.993	26.892	867.544	698.145
310.008	27.278	866.890	699.041
311.022	27.466	866.557	699.431
312.037	27.230	865.833	697.880
313.052	27.134	864.999	696.778
314.066	26.890	864.355	695.264
315.081	26.184	863.007	691.416
316.095	25.475	861.606	687.520
317.110	25.881	861.715	689.102
318.125	26.702	862.180	692.549
319.139	26.351	861.227	690.381
320.154	25.392	859.090	684.955
321.168	24.825	858.328	682.127
322.183	25.394	858.671	684.505
323.197	26.304	859.201	688.338
324.212	26.682	859.094	689.628
325.227	26.729	858.551	689.311
326.241	26.969	858.128	689.825
327.256	26.991	857.165	689.073
328.270	26.778	856.885	687.976
329.285	26.617	856.075	686.654
330.300	26.419	855.342	685.256
331.314	26.399	854.252	684.246
332.329	26.322	854.074	683.751
333.343	26.717	853.788	684.955
334.358	27.143	853.717	686.448
335.373	27.154	852.665	685.583
336.387	27.112	852.150	684.949
337.402	27.325	852.340	685.845
338.416	27.528	851.622	685.969
339.431	27.543	851.041	685.497
340.446	27.630	850.437	685.280
341.460	27.653	850.440	685.306
342.475	27.596	850.137	684.788
343.489	27.569	848.700	683.469
344.504	27.433	848.286	682.565
345.519	27.715	847.910	683.258
346.533	27.959	847.468	683.756
347.548	27.904	847.432	683.460
348.562	27.979	846.736	683.117
349.577	27.905	846.094	682.262
350.592	27.831	845.419	681.381
351.606	27.691	845.195	680.617
352.621	27.891	844.308	680.589
353.635	27.754	843.693	679.522
354.650	27.690	843.316	678.923
355.665	27.243	842.424	676.482
356.679	26.233	840.952	671.488
357.694	26.105	840.358	670.478
358.708	26.847	840.277	673.110
359.723	26.786	839.927	672.544
360.738	27.083	839.558	673.287
361.752	27.491	839.334	674.562
362.767	27.396	839.181	674.027
363.781	27.825	838.700	675.167
364.796	28.114	838.596	676.091
365.810	28.231	838.325	676.246
366.825	28.371	837.676	676.179
367.840	28.355	837.467	675.892
368.854	28.162	836.804	674.585
369.869	27.721	836.053	672.295
370.883	27.452	835.324	670.661
371.898	27.675	834.482	670.745
372.913	27.554	834.256	670.057
373.927	27.557	833.606	669.489
374.942	27.752	832.825	669.518
375.956	27.789	832.280	669.157
376.971	27.858	831.763	668.935
377.986	27.977	831.488	669.089
379.000	28.219	830.958	669.489
380.015	28.145	830.810	669.040
381.029	27.940	830.088	667.649
382.044	27.905	829.209	666.757
383.059	28.115	828.793	667.127
384.073	28.111	828.218	666.591
385.088	28.254	827.488	666.466
386.102	28.187	827.066	665.824
387.117	28.087	826.496	664.943
388.132	27.959	825.783	663.844
389.146	27.695	824.928	662.140
390.161	26.991	824.420	659.117
391.175	27.354	823.528	659.664
392.190	27.790	823.895	661.479
393.205	27.798	823.370	661.027
394.219	26.844	821.864	656.310
395.234	25.298	819.325	648.643
396.248	24.405	818.024	644.332
397.263	25.362	819.348	648.778
398.278	27.281	820.387	656.476
399.292	27.777	820.330	658.163
400.307	27.459	819.620	656.387
401.321	27.392	819.121	655.688
402.336	27.619	818.579	656.017
403.350	27.792	819.117	657.012
404.365	28.216	819.084	658.451
405.380	28.541	818.553	659.133
406.394	28.756	818.328	659.667
407.409	28.912	818.322	660.163
408.423	28.947	817.297	659.404
409.438	28.901	816.567	658.591
410.453	28.854	816.340	658.184
411.467	28.950	816.205	658.359
412.482	28.891	815.246	657.318
413.496	28.956	814.936	657.240
414.511	28.907	814.796	656.897
415.526	28.946	814.415	656.670
416.540	28.975	813.943	656.332
417.555	28.793	813.445	655.223
418.569	28.584	812.639	653.772
419.584	28.494	811.955	652.846
420.599	28.673	811.336	652.925
421.613	101.335	1274.575	1411.014
422.628	87.346	1342.079	1411.154
