DTS Sentinel unit serial number:	SN413079Multiplexer serial number:	ORYXHardware model number:	OX4-SRSoftware version number:	ORYX F/W v4.00 Oryx Data Collector v3.7.2.0data status	okinstallation	princeton_trtdifferential loss correction	single-endedforward channel	channel 3reverse channel	N/Adate	2019/09/12time	18:48:03forward acquisition time	15.00reverse acquisition time	0.00gamma	496.2192k internal	0.2318k external	0.2318temperature offset calibration	1.0107default loss term (dB/km)	0.3790temperature slope calibration	1.0000multiplexer offset coefficient	1.0000multiplexer slope coefficient	1.0000fibre end	0.00T internal ref (°C)	32.94T ext. ref 1 (°C)	3.01T ext. ref 2 (°C)	27.45length (m)	temperature (°C)	Stokes	anti-Stokes-747.200	-111.300	0.191	0.039
-746.185	-200.000	-0.110	0.686
-745.171	137.648	-0.110	0.145
-744.156	-77.923	0.860	0.300
-743.142	-39.134	0.621	0.330
-742.127	104.385	0.325	0.387
-741.112	800.000	0.237	0.772
-740.098	224.847	-0.154	-0.252
-739.083	-14.625	-0.281	0.183
-738.069	559.462	0.269	-0.658
-737.054	22.812	0.301	0.250
-736.039	-20.511	0.322	-0.200
-735.025	-86.349	-0.656	0.204
-734.010	94.489	-0.444	-0.511
-732.996	22.814	-0.052	-0.043
-731.981	111.833	-0.496	-0.606
-730.966	219.567	0.071	0.116
-729.952	800.000	0.189	0.759
-728.937	-134.157	-0.716	0.089
-727.923	293.704	-0.345	-0.637
-726.908	-126.676	-0.559	0.084
-725.894	204.389	-0.142	0.223
-724.879	800.000	-0.139	0.478
-723.864	-106.790	-0.455	-0.102
-722.850	-200.000	0.112	-0.633
-721.835	18.036	0.137	0.110
-720.821	-97.334	-0.742	0.195
-719.806	-20.590	0.284	-0.176
-718.791	-106.915	-0.153	-0.034
-717.777	-9.823	0.527	0.354
-716.762	16.335	-0.160	0.127
-715.748	73.265	0.320	0.339
-714.733	-31.766	-0.582	-0.330
-713.718	109.880	-0.564	0.684
-712.704	-193.494	-0.611	0.005
-711.689	121.499	0.385	0.485
-710.675	573.820	0.178	-0.439
-709.660	-200.000	0.020	-0.178
-708.645	439.626	-0.457	-1.008
-707.631	102.642	-0.544	-0.643
-706.616	-28.606	-0.319	-0.185
-705.602	37.942	-0.280	0.252
-704.587	-200.000	0.074	-0.682
-703.572	-7.148	-0.797	-0.546
-702.558	136.807	-0.200	0.264
-701.543	-174.504	-0.583	-0.017
-700.529	-132.912	0.604	-0.078
-699.514	162.824	-0.313	-0.444
-698.499	60.395	0.145	0.145
-697.485	-4.413	0.445	-0.311
-696.470	340.654	0.108	-0.213
-695.456	-200.000	0.055	-0.339
-694.441	-120.888	-0.819	0.139
-693.426	479.608	0.024	0.055
-692.412	-94.452	0.124	-0.034
-691.397	-144.863	0.091	0.008
-690.383	582.782	0.339	0.840
-689.368	9.879	0.642	0.492
-688.354	16.627	0.079	0.063
-687.339	2.901	0.333	-0.244
-686.324	-129.400	0.425	0.060
-685.310	-135.439	-0.972	0.117
-684.295	-90.265	0.486	0.143
-683.281	256.165	0.320	-0.553
-682.266	-66.084	0.857	-0.345
-681.251	-200.000	0.007	0.226
-680.237	670.445	0.084	0.221
-679.222	-67.018	0.085	0.034
-678.208	-200.000	0.050	-0.460
-677.193	-89.473	-0.319	0.095
-676.178	64.039	-0.392	-0.398
-675.164	800.000	0.211	0.662
-674.149	-4.081	-0.949	0.664
-673.135	-96.278	0.228	-0.061
-672.120	-82.474	0.204	0.067
-671.105	-97.267	-0.454	-0.120
-670.091	-88.592	-0.361	-0.109
-669.076	67.891	0.336	0.346
-668.062	-55.112	-0.175	0.079
-667.047	800.000	-0.131	-0.391
-666.032	-44.755	-0.597	-0.300
-665.018	-131.155	-0.748	0.100
-664.003	-2.433	1.048	0.741
-662.989	-200.000	0.120	0.838
-661.974	-104.762	0.342	0.079
-660.959	160.395	0.092	0.130
-659.945	-33.384	0.610	-0.340
-658.930	-164.421	0.625	0.029
-657.916	-10.290	-0.423	-0.283
-656.901	-17.002	-0.594	0.378
-655.886	106.010	-0.452	0.540
-654.872	61.624	-0.593	-0.595
-653.857	-123.976	0.232	-0.037
-652.843	800.000	-0.109	0.428
-651.828	-66.613	-0.770	0.308
-650.814	-56.767	-0.569	-0.254
-649.799	-151.938	-0.560	0.041
-648.784	14.417	-0.474	-0.373
-647.770	-13.752	-0.557	-0.363
-646.755	269.338	0.199	0.353
-645.741	800.000	-0.168	0.615
-644.726	340.357	0.147	0.290
-643.711	63.796	0.242	0.245
-642.697	204.188	0.330	0.515
-641.682	-82.153	-0.821	-0.270
-640.668	392.763	-0.258	-0.540
-639.653	40.015	-0.709	0.642
-638.638	-2.198	-0.634	-0.449
-637.624	-151.624	0.573	-0.043
-636.609	-22.467	0.492	-0.300
-635.595	-166.239	-0.690	0.029
-634.580	-200.000	0.048	-1.236
-633.565	-63.325	-0.216	0.090
-632.551	363.404	-0.147	0.297
-631.536	-117.336	-0.495	0.090
-630.522	800.000	-0.162	-0.610
-629.507	83.140	-0.624	0.685
-628.492	-200.000	0.011	-0.377
-627.478	311.370	0.090	0.171
-626.463	40.693	0.103	0.093
-625.449	375.746	-0.407	-0.835
-624.434	800.000	-0.262	-0.754
-623.419	-200.000	-0.018	-0.618
-622.405	800.000	-0.231	-0.644
-621.390	-72.891	0.414	0.153
-620.376	800.000	0.170	-0.510
-619.361	-29.081	0.602	0.348
-618.346	-28.997	-0.355	0.205
-617.332	-95.970	-0.882	-0.237
-616.317	-23.440	-0.395	-0.239
-615.303	-84.959	-0.255	0.080
-614.288	371.324	0.119	-0.243
-613.273	16.237	0.329	0.261
-612.259	126.766	0.351	0.448
-611.244	189.396	0.478	0.720
-610.230	-200.000	-0.091	0.401
-609.215	-200.000	0.033	0.361
-608.201	-200.000	0.169	1.129
-607.186	-200.000	-0.013	0.079
-606.171	-125.641	0.273	-0.042
-605.157	-200.000	0.036	0.560
-604.142	570.519	0.105	0.257
-603.128	163.043	-0.084	0.119
-602.113	-200.000	0.069	-0.425
-601.098	190.985	0.287	-0.434
-600.084	-200.000	-0.148	0.680
-599.069	348.111	-0.214	-0.424
-598.055	106.830	-0.335	-0.400
-597.040	800.000	0.327	-0.913
-596.025	-33.804	-0.623	0.345
-595.011	-31.335	-0.271	0.153
-593.996	611.873	-0.104	0.263
-592.982	-19.215	-0.166	-0.104
-591.967	440.479	0.170	0.373
-590.952	305.527	-0.181	0.338
-589.938	800.000	-0.094	0.359
-588.923	-200.000	0.079	-0.560
-587.909	-56.578	-0.468	-0.209
-586.894	-27.134	-0.458	0.268
-585.879	13.294	-0.365	-0.284
-584.865	92.543	0.668	-0.758
-583.850	-114.587	0.536	-0.103
-582.836	30.107	-0.669	0.574
-581.821	-74.770	0.649	0.234
-580.806	800.000	-0.173	-0.692
-579.792	428.498	-0.345	-0.748
-578.777	800.000	0.051	0.193
-577.763	-200.000	-0.044	-0.843
-576.748	303.562	0.228	-0.425
-575.733	37.131	0.548	0.488
-574.719	8.153	0.966	-0.729
-573.704	409.205	0.084	0.178
-572.690	328.526	-0.261	-0.504
-571.675	-200.000	0.010	-0.515
-570.661	244.168	0.521	-0.879
-569.646	-87.442	-1.088	-0.331
-568.631	241.909	-0.015	0.025
-567.617	351.925	-0.212	0.423
-566.602	224.262	-0.342	-0.555
-565.588	552.275	0.197	-0.475
-564.573	18.569	0.504	0.405
-563.558	-140.243	-0.592	-0.062
-562.544	-138.298	-0.330	-0.037
-561.529	-200.000	-0.091	0.584
-560.515	300.584	0.247	-0.457
-559.500	-57.428	0.194	0.085
-558.485	114.859	0.392	-0.480
-557.471	66.196	0.464	-0.473
-556.456	-22.609	-0.248	-0.151
-555.442	152.321	-0.136	0.186
-554.427	-73.533	-0.243	-0.089
-553.412	-200.000	-0.024	0.237
-552.398	190.596	-0.467	-0.705
-551.383	-31.987	-0.456	-0.256
-550.369	34.725	0.226	-0.198
-549.354	193.990	0.239	0.364
-548.339	-200.000	0.035	-0.479
-547.325	-33.596	0.107	0.059
-546.310	-200.000	0.006	-0.233
-545.296	800.000	-0.173	-0.587
-544.281	-157.082	0.673	0.041
-543.266	800.000	-0.106	0.407
-542.252	-13.153	0.523	0.341
-541.237	-43.154	-0.484	0.246
-540.223	-200.000	-0.013	0.233
-539.208	-161.920	0.367	0.019
-538.193	-40.583	0.348	-0.181
-537.179	-25.073	-0.728	-0.433
-536.164	78.436	0.320	0.343
-535.150	200.379	0.048	-0.074
-534.135	6.742	-0.496	-0.370
-533.121	65.139	0.148	0.150
-532.106	-59.162	0.217	-0.094
-531.091	173.881	0.417	-0.604
-530.077	-200.000	-0.024	0.550
-529.062	310.378	-0.313	0.588
-528.048	291.321	0.367	0.669
-527.033	161.520	-0.243	-0.341
-526.018	-133.084	0.715	0.091
-525.004	116.436	-0.601	0.739
-523.989	-200.000	0.115	-1.127
-522.975	-200.000	-0.010	-0.502
-521.960	800.000	0.062	0.222
-520.945	145.948	-0.301	0.405
-519.931	-73.175	-0.869	-0.319
-518.916	-200.000	-0.038	-0.257
-517.902	98.682	-0.325	-0.376
-516.887	800.000	0.132	0.451
-515.872	41.792	0.301	0.273
-514.858	-131.469	-0.027	0.004
-513.843	-200.000	0.112	-0.881
-512.829	-34.709	-0.117	0.064
-511.814	-105.282	-0.336	-0.077
-510.799	-200.000	0.110	0.734
-509.785	266.438	-0.102	0.180
-508.770	800.000	0.199	0.747
-507.756	-200.000	-0.021	0.381
-506.741	67.425	0.249	-0.255
-505.726	-69.700	0.280	-0.107
-504.712	27.080	-0.425	0.357
-503.697	-55.518	0.789	-0.355
-502.683	-200.000	-0.165	-1.004
-501.668	411.672	-0.043	-0.091
-500.653	-116.783	-0.222	0.041
-499.639	428.313	-0.271	-0.587
-498.624	125.731	0.303	-0.384
-497.610	800.000	-0.086	0.349
-496.595	-200.000	-0.027	-0.969
-495.581	32.285	-0.598	-0.517
-494.566	7.752	-0.237	0.178
-493.551	-200.000	-0.007	0.187
-492.537	222.003	-0.179	-0.289
-491.522	-23.366	-0.508	-0.306
-490.508	-83.311	-0.527	0.169
-489.493	420.581	-0.271	0.583
-488.478	92.148	0.324	0.366
-487.464	-200.000	0.093	-0.450
-486.449	112.805	0.601	-0.729
-485.435	-124.095	-0.696	-0.109
-484.420	-8.429	-0.255	0.171
-483.405	298.065	-0.368	0.678
-482.391	198.218	-0.147	0.225
-481.376	-58.532	0.211	-0.092
-480.362	-200.000	-0.142	-0.650
-479.347	800.000	0.190	0.567
-478.332	30.113	0.626	-0.535
-477.318	262.649	0.162	-0.281
-476.303	-200.000	0.077	0.583
-475.289	-17.185	0.779	0.492
-474.274	800.000	-0.119	-0.330
-473.259	277.112	0.330	0.588
-472.245	132.855	-0.141	0.182
-471.230	800.000	0.040	-0.145
-470.216	800.000	0.444	1.231
-469.201	-6.519	-0.408	0.278
-468.186	800.000	-0.165	-0.531
-467.172	219.313	-0.331	-0.530
-466.157	-200.000	-0.001	-0.170
-465.143	-123.660	0.351	-0.056
-464.128	-200.000	-0.074	0.473
-463.113	48.157	0.276	0.258
-462.099	-28.768	-0.528	0.304
-461.084	-89.739	-0.648	0.190
-460.070	-200.000	0.044	1.648
-459.055	-106.298	-0.697	0.156
-458.040	-90.670	-0.266	0.077
-457.026	-89.622	0.889	0.261
-456.011	-200.000	-0.007	-0.566
-454.997	57.696	-0.251	-0.245
-453.982	-200.000	0.066	-0.292
-452.968	800.000	0.151	-0.551
-451.953	-200.000	0.071	0.475
-450.938	216.218	-0.068	-0.109
-449.924	-124.050	0.504	0.079
-448.909	38.312	0.386	0.344
-447.895	336.716	-0.174	0.338
-446.880	42.295	-0.265	-0.241
-445.865	329.290	0.163	-0.313
-444.851	-121.932	-0.133	0.022
-443.836	133.453	-0.126	0.163
-442.822	87.550	0.352	0.390
-441.807	502.735	0.301	0.696
-440.792	-76.089	0.693	0.245
-439.778	188.401	-0.135	-0.202
-438.763	262.966	0.023	0.041
-437.749	-5.668	0.375	-0.257
-436.734	800.000	0.117	0.404
-435.719	102.839	-0.323	0.378
-434.705	800.000	0.175	0.507
-433.690	-69.027	0.424	-0.163
-432.676	-200.000	0.096	-0.739
-431.661	-143.832	-0.252	0.024
-430.646	18.813	-0.296	0.237
-429.632	-26.531	0.821	-0.481
-428.617	-200.000	-0.083	0.618
-427.603	134.763	0.111	0.144
-426.588	-65.126	1.030	0.415
-425.573	-200.000	0.037	0.346
-424.559	250.129	-0.365	0.619
-423.544	-196.017	0.625	-0.004
-422.530	-113.484	0.361	-0.071
-421.515	-84.721	-0.148	0.046
-420.500	-138.701	0.525	0.057
-419.486	-200.000	0.009	1.069
-418.471	-148.545	0.815	0.067
-417.457	65.954	-0.486	-0.492
-416.442	-153.720	0.319	-0.022
-415.428	35.094	-0.719	0.630
-414.413	-200.000	0.005	0.114
-413.398	-17.847	-0.414	0.259
-412.384	-64.789	-0.754	0.305
-411.369	-140.581	-1.056	-0.109
-410.355	94.679	-0.630	0.716
-409.340	168.161	0.279	-0.396
-408.325	26.755	0.443	0.371
-407.311	-15.565	0.163	-0.104
-406.296	399.401	-0.121	0.253
-405.282	444.892	0.345	-0.756
-404.267	-65.966	0.958	0.382
-403.252	690.538	0.112	-0.292
-402.238	800.000	-0.035	0.137
-401.223	-152.864	-0.631	0.045
-400.209	-138.022	0.227	-0.025
-399.194	17.630	0.433	-0.344
-398.179	-54.204	-0.605	0.274
-397.165	-200.000	0.132	-0.833
-396.150	76.102	-0.267	-0.282
-395.136	-200.000	-0.017	0.226
-394.121	39.432	0.298	-0.266
-393.106	800.000	-0.095	0.342
-392.092	-200.000	0.005	-0.691
-391.077	57.196	-0.386	-0.375
-390.063	-187.470	-0.601	-0.008
-389.048	-40.739	-0.109	-0.057
-388.033	771.580	-0.180	0.490
-387.019	-75.444	0.426	0.151
-386.004	15.055	-0.642	-0.502
-384.990	-163.200	-0.454	0.022
-383.975	-200.000	0.135	0.804
-382.960	-109.353	-1.363	-0.288
-381.946	73.461	0.382	0.399
-380.931	85.670	-0.148	0.162
-379.917	-139.859	0.484	-0.051
-378.902	48.357	-0.083	-0.077
-377.888	517.271	-0.208	-0.485
-376.873	468.520	0.138	-0.309
-375.858	96.671	-0.459	-0.524
-374.844	-200.000	-0.098	0.815
-373.829	-200.000	0.066	1.013
-372.815	72.915	0.344	0.359
-371.800	69.395	-0.611	0.627
-370.785	26.737	0.907	0.757
-369.771	-200.000	-0.078	-0.738
-368.756	-116.232	0.490	-0.091
-367.742	800.000	0.161	-0.515
-366.727	-134.379	0.492	0.060
-365.712	-124.384	-0.639	-0.099
-364.698	800.000	0.182	0.513
-363.683	206.889	0.284	-0.442
-362.669	-115.282	1.078	0.203
-361.654	226.013	0.605	-0.979
-360.639	-200.000	-0.160	-0.929
-359.625	-108.307	0.550	-0.118
-358.610	68.655	-0.524	-0.536
-357.596	361.883	0.206	0.413
-356.581	83.770	-0.393	0.428
-355.566	168.035	0.164	0.232
-354.552	-200.000	0.026	-0.767
-353.537	-131.886	0.639	-0.083
-352.523	-149.319	0.491	0.039
-351.508	95.595	0.387	0.440
-350.493	77.709	-0.286	-0.304
-349.479	40.732	-0.595	-0.535
-348.464	-130.077	-1.150	0.157
-347.450	156.051	0.558	0.767
-346.435	-83.325	0.204	-0.065
-345.420	379.112	-0.255	-0.519
-344.406	-76.104	-0.500	0.176
-343.391	-200.000	0.027	0.237
-342.377	96.350	0.428	0.488
-341.362	15.747	0.772	-0.605
-340.348	-105.020	-0.439	-0.100
-339.333	800.000	0.159	-0.500
-338.318	298.851	-0.123	-0.225
-337.304	800.000	-0.043	0.134
-336.289	26.937	0.221	0.185
-335.275	800.000	0.194	-0.596
-334.260	287.079	-0.331	-0.596
-333.245	-200.000	-0.048	0.954
-332.231	-200.000	0.019	-0.336
-331.216	141.117	0.284	-0.374
-330.202	-23.504	0.394	0.235
-329.187	-58.239	-0.459	0.199
-328.172	507.729	0.111	-0.257
-327.158	-84.909	-0.612	0.191
-326.143	800.000	0.183	0.673
-325.129	275.888	0.543	-0.958
-324.114	640.846	0.237	-0.602
-323.099	800.000	-0.095	-0.274
-322.085	1.140	0.321	-0.229
-321.070	-45.454	0.459	-0.226
-320.056	-27.104	-0.416	0.242
-319.041	411.009	0.121	0.256
-318.026	-200.000	-0.040	0.490
-317.012	263.162	-0.332	-0.573
-315.997	185.524	-0.302	-0.447
-314.983	-78.576	-0.745	0.254
-313.968	800.000	-0.092	0.327
-312.953	-135.161	-1.039	0.124
-311.939	-65.647	0.648	0.258
-310.924	-200.000	0.068	-0.451
-309.910	12.285	0.180	-0.138
-308.895	-55.462	0.455	0.203
-307.880	-2.363	0.275	0.192
-306.866	-60.347	0.049	0.021
-305.851	190.998	0.283	0.423
-304.837	604.230	0.236	0.585
-303.822	120.554	0.710	0.877
-302.807	569.464	0.200	0.484
-301.793	-200.000	0.038	-0.252
-300.778	-200.000	-0.074	-0.577
-299.764	-27.567	-0.188	-0.109
-298.749	7.480	0.425	-0.316
-297.735	-24.376	0.364	-0.216
-296.720	800.000	0.042	0.127
-295.705	-48.412	0.500	0.239
-294.691	-200.000	0.003	0.361
-293.676	446.149	0.282	-0.616
-292.662	23.543	-0.531	-0.435
-291.647	-55.165	-0.232	-0.104
-290.632	-200.000	-0.028	-0.215
-289.618	53.447	-0.260	-0.248
-288.603	-165.844	-0.815	0.035
-287.589	195.533	-0.171	0.259
-286.574	-60.275	-0.151	-0.064
-285.559	-119.798	0.638	0.109
-284.545	147.887	-0.572	0.766
-283.530	0.363	0.374	0.266
-282.516	-99.094	-0.399	0.101
-281.501	-128.944	-1.158	0.161
-280.486	47.479	0.070	0.065
-279.472	-54.780	0.329	0.147
-278.457	-169.716	0.580	-0.021
-277.443	-102.965	0.083	-0.020
-276.428	800.000	-0.131	0.432
-275.413	184.787	0.162	0.239
-274.399	274.192	0.126	-0.221
-273.384	-176.879	-1.393	-0.035
-272.370	-141.863	-0.086	0.009
-271.355	147.897	0.198	-0.265
-270.340	-171.659	-0.744	-0.024
-269.326	-18.564	-0.709	-0.440
-268.311	128.741	0.339	-0.429
-267.297	800.000	0.205	0.685
-266.282	-110.454	-0.145	0.030
-265.267	-158.199	0.601	0.035
-264.253	-7.974	-0.059	0.040
-263.238	-92.105	0.371	0.104
-262.224	-200.000	-0.075	0.863
-261.209	-200.000	-0.043	-0.466
-260.195	6.374	-0.207	0.152
-259.180	-118.132	0.468	-0.083
-258.165	-121.081	-0.333	-0.055
-257.151	724.820	0.101	-0.266
-256.136	712.638	-0.138	0.363
-255.122	-21.364	-0.206	0.125
-254.107	-200.000	0.037	0.589
-253.092	-149.584	1.010	0.079
-252.078	800.000	-0.130	0.520
-251.063	-44.264	0.311	0.155
-250.049	-200.000	0.155	-0.695
-249.034	-183.936	0.750	-0.013
-248.019	-21.432	0.280	-0.169
-247.005	-200.000	0.159	0.788
-245.990	22.059	0.581	0.470
-244.976	-200.000	0.058	-0.325
-243.961	800.000	0.159	-0.556
-242.946	-200.000	-0.146	-0.750
-241.932	800.000	-0.164	0.555
-240.917	-102.454	0.588	0.140
-239.903	-13.401	0.378	0.243
-238.888	-149.243	-0.661	-0.052
-237.873	-125.703	-0.076	-0.011
-236.859	-18.932	0.248	-0.153
-235.844	-13.201	-0.312	-0.201
-234.830	44.996	-0.278	0.254
-233.815	-200.000	-0.008	0.399
-232.800	29.646	0.717	0.606
-231.786	-57.142	0.860	-0.376
-230.771	-124.739	-0.145	-0.022
-229.757	-128.177	0.583	-0.083
-228.742	-105.679	-0.661	0.148
-227.727	-161.713	0.984	-0.050
-226.713	-193.140	-0.538	0.005
-225.698	-87.464	-0.387	0.116
-224.684	-21.110	0.578	-0.351
-223.669	35.550	-0.465	0.405
-222.655	63.267	-0.329	-0.327
-221.640	-31.279	-0.805	0.449
-220.625	17.505	0.318	-0.251
-219.611	800.000	0.096	-0.283
-218.596	119.941	0.276	0.340
-217.582	96.101	0.425	-0.482
-216.567	-109.587	-0.728	0.152
-215.552	266.817	-0.396	0.686
-214.538	-10.464	-0.631	-0.414
-213.523	-115.042	-1.142	-0.215
-212.509	-116.332	0.841	-0.154
-211.494	-79.058	-0.705	-0.237
-210.479	248.562	-0.295	-0.495
-209.465	-149.019	0.697	-0.056
-208.450	-45.576	0.701	0.344
-207.436	-159.985	-0.679	-0.037
-206.421	62.057	-0.807	0.797
-205.406	800.000	-0.299	-0.884
-204.392	76.968	0.215	0.227
-203.377	79.075	-0.104	-0.111
-202.363	289.676	-0.140	0.252
-201.348	-200.000	0.088	-1.114
-200.333	-2.566	0.247	-0.172
-199.319	243.280	-0.129	0.214
-198.304	4.770	0.783	-0.570
-197.290	24.408	-0.484	0.397
-196.275	800.000	-0.379	-1.147
-195.260	-57.990	0.259	0.112
-194.246	21.636	-0.563	0.454
-193.231	-73.176	-0.367	0.133
-192.217	21.277	0.764	-0.615
-191.202	251.035	0.289	0.487
-190.187	59.050	-0.445	0.433
-189.173	73.877	0.461	-0.479
-188.158	46.326	0.129	0.118
-187.144	132.292	0.399	0.510
-186.129	-14.304	0.266	0.170
-185.114	-54.947	-0.110	0.049
-184.100	800.000	0.169	-0.537
-183.085	-200.000	0.088	0.528
-182.071	-200.000	0.142	0.840
-181.056	796.819	-0.111	0.303
-180.042	-118.679	0.692	-0.121
-179.027	3.514	0.421	0.304
-178.012	153.525	-0.438	0.594
-176.998	297.847	0.047	-0.085
-175.983	-122.361	0.362	-0.058
-174.969	217.259	0.117	-0.184
-173.954	-132.521	0.102	-0.013
-172.939	-57.235	0.301	0.131
-171.925	-200.000	-0.097	-0.865
-170.910	214.745	-0.054	-0.084
-169.896	13.908	-0.248	0.191
-168.881	-200.000	0.029	-0.339
-167.866	-200.000	0.024	0.608
-166.852	-112.607	0.439	-0.086
-165.837	-115.196	0.764	0.143
-164.823	-102.154	-0.638	0.152
-163.808	-36.835	0.329	0.175
-162.793	-0.276	0.419	-0.295
-161.779	61.860	0.259	-0.255
-160.764	-0.690	0.461	-0.324
-159.750	33.758	-0.363	0.312
-158.735	18.988	-0.064	0.051
-157.720	192.338	-0.272	-0.406
-156.706	102.808	0.423	-0.489
-155.691	-27.984	-0.362	-0.207
-154.677	405.542	-0.254	0.529
-153.662	800.000	-0.152	0.491
-152.647	-200.000	-0.163	0.727
-151.633	101.254	-0.239	-0.275
-150.618	131.978	-0.418	-0.531
-149.604	-60.667	-0.459	0.192
-148.589	-85.580	0.669	0.206
-147.574	543.057	-0.183	-0.432
-146.560	-169.842	-0.811	0.029
-145.545	-200.000	-0.115	0.597
-144.531	202.600	-0.353	-0.540
-143.516	196.900	0.315	-0.474
-142.502	-131.955	0.720	0.093
-141.487	-92.480	-0.309	-0.086
-140.472	71.383	0.199	-0.204
-139.458	-200.000	0.045	0.413
-138.443	515.687	0.145	-0.336
-137.429	-56.497	0.426	-0.187
-136.414	-200.000	0.146	0.642
-135.399	-84.732	0.688	-0.214
-134.385	-136.992	-0.702	-0.079
-133.370	459.069	0.211	-0.463
-132.356	-200.000	-0.003	-0.377
-131.341	-48.381	-0.096	0.046
-130.326	15.087	-0.701	-0.543
-129.312	200.807	-0.024	-0.037
-128.297	-24.498	0.634	0.373
-127.283	-168.035	-0.420	0.016
-126.268	-200.000	-0.064	-0.550
-125.253	800.000	0.074	-0.247
-124.239	-200.000	-0.079	-0.707
-123.224	-105.388	-0.753	-0.169
-122.210	-200.000	-0.002	-0.088
-121.195	-20.572	0.312	0.189
-120.180	-182.834	-0.176	-0.003
-119.166	68.308	0.277	-0.280
-118.151	96.411	0.350	0.396
-117.137	-141.089	-0.893	0.090
-116.122	-114.847	0.618	0.116
-115.107	17.849	0.262	0.206
-114.093	8.628	-0.509	0.378
-113.078	-61.559	-0.247	0.102
-112.064	333.579	-0.529	-1.010
-111.049	52.503	-0.908	-0.855
-110.034	357.278	0.279	0.549
-109.020	-53.011	0.598	0.272
-108.005	800.000	0.360	1.014
-106.991	-200.000	-0.134	0.600
-105.976	347.723	0.099	0.193
-104.962	195.042	-0.199	-0.298
-103.947	74.789	-0.084	-0.087
-102.932	280.324	-0.525	0.926
-101.918	-81.283	0.225	-0.073
-100.903	-123.011	-0.757	0.120
-99.889	-85.671	0.521	0.160
-98.874	-131.076	-0.864	0.114
-97.859	503.308	0.124	0.283
-96.845	542.085	-0.129	-0.302
-95.830	-46.546	0.231	-0.112
-94.816	-89.034	-1.030	-0.301
-93.801	-76.818	1.153	-0.398
-92.786	-135.526	1.291	-0.152
-91.772	229.095	-0.204	-0.328
-90.757	-197.579	-0.174	-0.001
-89.743	800.000	0.136	-0.409
-88.728	37.111	-0.385	-0.336
-87.713	-38.713	0.272	-0.142
-86.699	-84.493	1.006	-0.313
-85.684	-200.000	-0.131	-0.654
-84.670	130.110	-0.210	-0.266
-83.655	-200.000	0.015	0.312
-82.640	800.000	0.082	0.315
-81.626	-200.000	0.058	0.310
-80.611	-167.024	-1.370	-0.055
-79.597	-133.174	0.624	0.078
-78.582	-35.536	-0.601	0.322
-77.567	-24.358	0.234	0.138
-76.553	22.978	-0.366	-0.296
-75.538	-111.396	0.168	-0.034
-74.524	-45.591	-0.437	-0.213
-73.509	-33.999	0.441	0.239
-72.494	-56.107	0.337	-0.148
-71.480	-16.701	-0.269	0.168
-70.465	-91.014	-0.809	-0.229
-69.451	-117.856	-1.274	0.225
-68.436	-200.000	-0.059	-0.876
-67.422	800.000	-0.144	-0.538
-66.407	48.149	0.163	0.150
-65.392	5.168	-0.809	-0.587
-64.378	-200.000	-0.003	0.322
-63.363	454.148	0.321	0.700
-62.349	163.315	-0.106	-0.147
-61.334	36.811	-1.205	-1.049
-60.319	-128.251	-0.139	0.020
-59.305	174.854	-0.703	-1.003
-58.290	-73.694	-0.255	-0.091
-57.276	800.000	0.666	1.943
-56.261	-200.000	95.755	580.760
-55.246	660.268	1362.279	3455.202
-54.232	202.332	2526.183	3839.697
-53.217	117.883	2145.422	2602.828
-52.203	43.253	1696.401	1525.641
-51.188	35.968	1511.380	1309.866
-50.173	33.841	1484.624	1272.399
-49.159	53.966	1535.777	1453.806
-48.144	54.724	1554.135	1476.291
-47.130	36.195	1513.121	1312.718
-46.115	33.293	1498.834	1280.667
-45.100	33.029	1494.543	1275.168
-44.086	33.264	1492.623	1275.060
-43.071	33.066	1490.845	1272.159
-42.057	32.843	1489.545	1269.502
-41.042	32.938	1488.074	1268.834
-40.027	32.720	1487.383	1266.731
-39.013	32.858	1485.066	1265.630
-37.998	32.714	1484.468	1264.108
-36.984	32.946	1482.754	1264.149
-35.969	33.196	1480.849	1264.146
-34.954	33.016	1479.558	1261.794
-33.940	33.050	1478.798	1261.324
-32.925	33.188	1476.261	1260.029
-31.911	33.202	1474.503	1258.573
-30.896	33.157	1474.354	1258.096
-29.881	33.133	1472.690	1256.462
-28.867	33.109	1471.440	1255.187
-27.852	32.638	1471.697	1252.227
-26.838	33.038	1469.046	1252.576
-25.823	32.973	1467.340	1250.643
-24.809	32.938	1466.343	1249.512
-23.794	32.926	1463.891	1247.290
-22.779	33.175	1462.729	1247.896
-21.765	32.919	1461.824	1245.387
-20.750	32.891	1461.347	1244.744
-19.736	32.760	1459.719	1242.447
-18.721	32.887	1458.839	1242.485
-17.706	32.959	1457.380	1241.664
-16.692	32.871	1456.684	1240.444
-15.677	32.784	1455.246	1238.603
-14.663	32.989	1455.138	1239.803
-13.648	32.812	1454.064	1237.680
-12.633	32.631	1452.957	1235.499
-11.619	32.709	1453.015	1236.011
-10.604	32.904	1451.299	1235.779
-9.590	32.900	1450.106	1234.690
-8.575	33.091	1448.621	1234.626
-7.560	32.949	1448.070	1233.178
-6.546	32.891	1448.299	1232.944
-5.531	32.895	1447.634	1232.356
-4.517	32.996	1445.586	1231.221
-3.502	32.843	1445.464	1230.073
-2.487	32.920	1444.131	1229.393
-1.473	32.529	1443.476	1226.241
-0.458	32.988	1441.096	1227.152
0.556	33.999	1431.761	1214.618
1.571	30.708	1407.136	1172.916
2.586	27.110	1348.050	1101.793
3.600	25.277	1269.269	1026.838
4.615	23.976	1222.387	981.646
5.629	20.721	1165.667	918.858
6.644	11.528	1079.590	805.777
7.659	4.616	1038.689	742.275
8.673	3.432	1033.393	732.799
9.688	2.895	1030.254	727.962
10.702	2.815	1028.542	726.311
11.717	2.900	1026.504	725.209
12.731	6.181	1030.417	743.442
13.746	15.307	1043.727	796.508
14.761	22.891	1053.249	839.915
15.775	24.783	1054.013	849.446
16.790	24.808	1052.504	848.272
17.804	24.639	1052.600	847.472
18.819	24.262	1052.280	845.350
19.834	24.336	1052.053	845.446
20.848	24.644	1051.052	846.026
21.863	24.729	1051.306	846.557
22.877	24.605	1050.507	845.250
23.892	24.758	1049.324	844.950
24.907	24.555	1048.613	843.340
25.921	24.446	1047.563	841.911
26.936	24.477	1047.399	841.848
27.950	24.407	1045.917	840.254
28.965	24.299	1044.965	838.906
29.980	24.017	1044.293	836.965
30.994	24.377	1042.645	837.260
32.009	24.687	1041.569	837.777
33.023	24.653	1040.733	836.872
34.038	24.465	1041.300	836.371
35.053	24.348	1039.557	834.352
36.067	24.442	1039.120	834.367
37.082	24.478	1038.194	833.716
38.096	24.543	1037.472	833.367
39.111	24.782	1036.190	833.378
40.126	24.854	1035.095	832.759
41.140	24.449	1034.764	830.534
42.155	24.465	1032.016	828.327
43.169	24.292	1032.052	827.479
44.184	24.324	1029.390	825.423
45.199	24.271	1029.338	825.059
46.213	24.145	1029.336	824.403
47.228	24.217	1028.696	824.150
48.242	24.476	1028.333	824.986
49.257	24.391	1027.630	823.957
50.271	24.469	1026.684	823.485
51.286	24.411	1026.543	823.032
52.301	24.888	1024.842	823.791
53.315	24.824	1024.267	822.960
54.330	24.610	1024.070	821.743
55.344	24.816	1021.821	820.811
56.359	24.616	1021.633	819.670
57.374	24.636	1020.933	819.131
58.388	24.658	1020.129	818.513
59.403	24.691	1019.935	818.435
60.417	24.349	1018.774	815.868
61.432	24.335	1018.350	815.392
62.447	24.362	1017.347	814.638
63.461	24.400	1016.553	814.105
64.476	24.417	1016.507	814.073
65.490	24.426	1014.382	812.342
66.505	23.770	1016.027	810.595
67.520	24.205	1012.871	809.982
68.534	24.403	1012.972	810.890
69.549	24.042	1012.609	808.887
70.563	23.978	1011.507	807.646
71.578	24.298	1009.825	807.682
72.593	24.060	1008.378	805.377
73.607	23.397	1008.362	802.293
74.622	23.567	1007.002	801.909
75.636	23.927	1006.772	803.281
76.651	24.162	1005.395	803.171
77.666	24.301	1005.045	803.446
78.680	23.875	1004.890	801.329
79.695	23.852	1004.312	800.694
80.709	23.891	1003.179	799.896
81.724	24.240	1002.696	801.010
82.739	24.234	1002.039	800.389
83.753	24.062	1001.443	799.070
84.768	24.584	1000.753	800.789
85.782	24.764	1000.789	801.553
86.797	24.752	999.573	800.453
87.812	25.060	998.418	800.835
88.826	24.978	997.203	799.424
89.841	25.080	997.305	799.887
90.855	24.648	996.868	797.542
91.870	24.925	996.060	798.060
92.884	24.924	994.713	796.904
93.899	24.971	993.898	796.392
94.914	24.882	992.586	794.874
95.928	24.793	992.541	794.370
96.943	24.762	991.487	793.321
97.957	24.779	990.944	792.889
98.972	24.432	989.617	790.222
99.987	24.240	989.481	789.193
101.001	24.799	987.383	789.919
102.016	24.647	987.818	789.527
103.030	24.560	986.847	788.297
104.045	24.658	985.559	787.632
105.060	24.680	984.447	786.769
106.074	24.561	984.281	786.041
107.089	24.677	983.108	785.545
108.103	24.453	983.097	784.484
109.118	24.718	981.564	784.352
110.133	24.500	980.245	782.277
111.147	24.309	979.377	780.677
112.162	24.190	978.210	779.159
113.176	24.214	977.510	778.634
114.191	24.291	976.660	778.226
115.206	24.143	975.786	776.815
116.220	24.115	975.254	776.201
117.235	24.273	973.476	775.405
118.249	24.049	973.523	774.398
119.264	23.863	973.197	773.261
120.279	23.756	971.837	771.649
121.293	23.808	971.196	771.296
122.308	23.774	970.941	770.878
123.322	23.874	969.761	770.308
124.337	23.877	968.892	769.560
125.352	23.758	967.080	767.542
126.366	23.678	965.272	765.692
127.381	23.574	965.270	765.172
128.395	24.308	965.156	768.182
129.410	24.298	964.550	767.587
130.424	24.487	963.491	767.491
131.439	24.728	961.876	767.166
132.454	24.253	962.656	765.680
133.468	24.627	960.792	765.735
134.483	24.291	961.420	764.727
135.497	24.415	960.054	764.106
136.512	24.502	958.706	763.337
137.527	24.782	957.812	763.751
138.541	24.929	957.249	763.861
139.556	24.809	957.005	763.089
140.570	24.723	955.767	761.668
141.585	24.500	956.527	761.253
142.600	24.818	955.566	761.775
143.614	24.967	953.542	760.729
144.629	25.019	952.559	760.099
145.643	24.857	953.284	759.919
146.658	25.231	951.525	760.038
147.673	24.945	950.010	757.551
148.687	24.100	950.611	754.383
149.702	24.414	948.328	753.832
150.716	24.603	947.261	753.714
151.731	24.375	947.183	752.625
152.746	24.608	945.997	752.596
153.760	24.685	945.493	752.451
154.775	24.617	944.510	751.317
155.789	24.896	943.486	751.608
156.804	24.918	943.112	751.339
157.819	24.478	942.113	748.628
158.833	24.851	940.890	749.155
159.848	24.756	941.526	749.193
160.862	24.858	941.505	749.539
161.877	25.077	939.670	748.928
162.892	24.932	937.849	746.804
163.906	24.731	937.682	745.770
164.921	24.810	936.477	745.074
165.935	24.676	935.815	743.922
166.950	25.033	933.621	743.593
167.964	24.950	933.666	743.218
168.979	24.628	933.152	741.408
169.994	24.685	931.585	740.333
171.008	24.479	930.695	738.712
172.023	25.011	929.902	740.214
173.037	24.966	928.661	738.976
174.052	25.075	927.844	738.710
175.067	24.825	927.996	737.735
176.081	24.652	926.607	735.853
177.096	24.533	925.541	734.450
178.110	24.242	924.911	732.691
179.125	24.548	923.320	732.619
180.140	24.593	921.908	731.621
181.154	24.066	922.630	729.967
182.169	24.489	922.140	731.248
183.183	24.835	921.900	732.409
184.198	24.649	921.805	731.509
185.213	24.527	921.187	730.455
186.227	24.832	919.227	730.080
187.242	24.976	919.293	730.657
188.256	24.807	918.811	729.516
189.271	25.145	917.611	729.876
190.286	24.957	917.115	728.654
191.300	25.091	916.452	728.606
192.315	24.700	914.965	725.774
193.329	24.219	913.967	722.965
194.344	24.019	912.035	720.563
195.359	24.074	913.178	721.627
196.373	24.250	914.177	723.068
197.388	25.033	912.552	724.886
198.402	25.085	912.466	724.962
199.417	24.951	912.657	724.510
200.432	25.368	911.485	725.198
201.446	25.260	910.756	724.118
202.461	24.786	910.535	721.968
203.475	25.051	910.451	722.905
204.490	25.020	909.158	721.691
205.504	23.993	908.446	716.927
206.519	23.947	908.217	716.495
207.534	24.718	906.831	718.439
208.548	24.828	906.027	718.180
209.563	24.830	906.051	718.142
210.577	25.134	905.065	718.519
211.592	24.820	904.662	716.877
212.607	25.162	904.623	718.151
213.621	25.387	904.049	718.533
214.636	25.227	903.272	717.212
215.650	25.219	902.536	716.531
216.665	25.338	902.082	716.582
217.680	25.230	901.561	715.675
218.694	25.438	901.072	716.051
219.709	25.207	900.218	714.392
220.723	24.955	899.990	713.144
221.738	24.848	899.002	711.872
222.753	25.103	898.268	712.241
223.767	24.551	897.421	709.315
224.782	25.270	896.026	710.999
225.796	25.169	895.390	710.029
226.811	25.191	896.139	710.648
227.826	24.754	895.665	708.481
228.840	24.832	893.400	706.934
229.855	24.584	893.852	706.249
230.869	24.602	892.150	704.913
231.884	24.704	891.445	704.693
232.899	24.578	890.870	703.680
233.913	24.649	891.320	704.253
234.928	24.879	891.203	705.007
235.942	24.828	889.711	703.562
236.957	24.646	888.206	701.597
237.972	24.431	888.465	700.894
238.986	24.250	888.112	699.841
240.001	24.360	886.857	699.221
241.015	24.367	886.336	698.776
242.030	24.373	886.028	698.498
243.045	24.610	884.924	698.493
244.059	24.582	885.109	698.464
245.074	24.722	884.408	698.399
246.088	24.854	882.915	697.673
247.103	24.602	883.632	697.191
248.117	24.764	882.950	697.223
249.132	25.456	882.441	699.454
250.147	25.662	882.117	699.939
251.161	25.854	881.753	700.335
252.176	25.698	881.991	699.857
253.190	25.691	881.317	699.230
254.205	26.191	879.697	699.822
255.220	25.943	879.363	698.535
256.234	25.704	879.222	697.432
257.249	25.530	877.643	695.447
258.263	25.876	878.098	697.084
259.278	25.589	877.217	695.216
260.293	25.373	876.560	693.799
261.307	25.871	876.721	695.789
262.322	25.805	876.001	694.899
263.336	25.721	875.769	694.329
264.351	25.617	874.139	692.576
265.366	25.378	873.012	690.704
266.380	25.280	872.544	689.896
267.395	25.489	872.652	690.723
268.409	25.476	872.628	690.592
269.424	25.681	870.834	689.895
270.439	26.058	869.351	690.105
271.453	26.151	868.717	689.896
272.468	25.118	869.168	686.242
273.482	25.879	867.770	687.983
274.497	25.673	867.785	687.147
275.512	25.444	867.309	685.834
276.526	25.596	866.545	685.752
277.541	25.391	866.465	684.843
278.555	26.060	865.132	686.277
279.570	25.839	864.469	684.848
280.585	25.802	864.883	684.977
281.599	25.991	863.495	684.534
282.614	26.022	863.114	684.287
283.628	25.606	862.708	682.327
284.643	25.145	861.242	679.362
285.657	25.429	862.172	681.113
286.672	25.372	860.790	679.744
287.687	25.341	860.621	679.433
288.701	25.445	860.150	679.395
289.716	25.694	859.727	679.944
290.730	25.530	858.456	678.258
291.745	25.667	858.168	678.488
292.760	25.439	857.435	676.990
293.774	25.634	856.903	677.243
294.789	25.720	856.882	677.489
295.803	25.792	856.981	677.778
296.818	25.895	855.895	677.249
297.833	25.969	855.099	676.834
298.847	25.678	854.495	675.206
299.862	25.741	853.592	674.667
300.876	25.652	852.900	673.729
301.891	26.157	852.716	675.412
302.906	25.975	852.630	674.605
303.920	25.895	851.915	673.679
304.935	25.988	850.970	673.220
305.949	26.465	850.452	674.533
306.964	26.191	849.853	672.974
307.979	25.789	849.577	671.199
308.993	25.830	848.445	670.396
310.008	26.088	848.526	671.364
311.022	25.830	848.131	670.030
312.037	26.076	847.192	670.142
313.052	25.517	847.280	668.077
314.066	25.777	845.717	667.750
315.081	25.285	844.514	664.920
316.095	25.173	844.527	664.455
317.110	25.429	844.001	664.928
318.125	25.838	843.971	666.360
319.139	25.066	843.760	663.281
320.154	25.026	841.340	661.172
321.168	24.659	841.420	659.819
322.183	25.342	840.147	661.281
323.197	25.360	840.453	661.527
324.212	25.452	840.074	661.511
325.227	25.534	839.418	661.237
326.241	25.407	839.054	660.426
327.256	25.050	839.709	659.568
328.270	25.012	838.391	658.337
329.285	25.263	837.490	658.491
330.300	25.130	836.332	657.036
331.314	25.180	835.076	656.174
332.329	24.911	835.884	655.766
333.343	25.544	835.078	657.388
334.358	26.059	833.612	658.058
335.373	26.163	832.828	657.758
336.387	25.788	832.778	656.294
337.402	25.744	833.528	656.666
338.416	26.200	831.749	656.866
339.431	26.254	832.016	657.215
340.446	26.594	831.423	657.924
341.460	26.422	831.879	657.601
342.475	26.397	830.268	656.180
343.489	26.521	830.249	656.556
344.504	26.301	830.383	655.805
345.519	26.223	829.313	654.619
346.533	26.819	828.128	655.785
347.548	26.552	829.123	655.546
348.562	26.589	828.430	655.074
349.577	26.680	826.865	654.107
350.592	26.097	827.083	652.116
351.606	26.117	826.031	651.300
352.621	26.016	825.364	650.352
353.635	26.160	824.558	650.180
354.650	25.879	824.728	649.242
355.665	26.032	823.906	649.088
356.679	25.779	823.675	647.939
357.694	25.602	823.103	646.797
358.708	26.031	821.984	647.400
359.723	25.906	821.863	646.799
360.738	25.785	821.257	645.830
361.752	25.709	820.553	644.947
362.767	26.039	819.486	645.233
363.781	26.219	820.116	646.314
364.796	26.604	819.853	647.426
365.810	26.527	819.757	647.019
366.825	26.452	819.534	646.519
367.840	26.679	818.533	646.480
368.854	26.536	818.422	645.827
369.869	26.317	818.082	644.719
370.883	26.142	817.633	643.683
371.898	26.168	816.701	642.985
372.913	26.252	815.578	642.343
373.927	26.378	816.029	643.089
374.942	26.333	814.905	641.988
375.956	26.171	814.140	640.756
376.971	26.689	813.507	642.035
377.986	26.158	812.668	639.437
379.000	26.496	812.632	640.546
380.015	26.776	811.165	640.324
381.029	26.368	811.659	639.216
382.044	26.456	811.158	639.077
383.059	26.629	810.753	639.312
384.073	26.736	810.561	639.480
385.088	26.768	809.136	638.411
386.102	26.540	807.893	636.571
387.117	26.138	807.696	634.947
388.132	26.122	807.095	634.362
389.146	26.022	806.326	633.352
390.161	26.045	805.982	633.105
391.175	26.288	806.080	633.979
392.190	26.500	806.005	634.607
393.205	26.312	805.644	633.608
394.219	26.305	804.342	632.505
395.234	25.456	803.505	628.821
396.248	25.243	801.883	626.750
397.263	25.799	801.555	628.380
398.278	25.875	802.656	629.451
399.292	25.547	802.325	627.991
400.307	25.645	801.159	627.365
401.321	26.001	799.945	627.598
402.336	25.520	800.670	626.437
403.350	25.768	800.726	627.289
404.365	26.511	800.405	629.566
405.380	26.353	800.328	628.903
406.394	26.471	800.776	629.608
407.409	27.062	799.677	630.740
408.423	27.128	798.926	630.321
409.438	26.769	798.712	628.853
410.453	26.802	797.706	628.118
411.467	27.318	797.076	629.352
412.482	26.919	796.931	627.801
413.496	26.540	797.299	626.723
414.511	26.642	796.317	626.249
415.526	26.790	796.346	626.729
416.540	26.848	794.931	625.760
417.555	26.735	794.730	625.157
418.569	26.726	794.638	624.999
419.584	27.021	792.994	624.665
420.599	26.788	793.518	624.219
421.613	160.250	1369.942	1793.499
422.628	138.876	1453.929	1793.532
