DTS Sentinel unit serial number:	SN413079Multiplexer serial number:	ORYXHardware model number:	OX4-SRSoftware version number:	ORYX F/W v4.00 Oryx Data Collector v3.7.2.0data status	okinstallation	princeton_trtdifferential loss correction	single-endedforward channel	channel 3reverse channel	N/Adate	2019/09/11time	04:06:11forward acquisition time	60.00reverse acquisition time	0.00gamma	496.2192k internal	0.2330k external	0.2330temperature offset calibration	0.9913default loss term (dB/km)	0.3790temperature slope calibration	1.0000multiplexer offset coefficient	1.0000multiplexer slope coefficient	1.0000fibre end	0.00T internal ref (°C)	29.56T ext. ref 1 (°C)	-0.29T ext. ref 2 (°C)	23.61length (m)	temperature (°C)	Stokes	anti-Stokes-747.200	124.406	0.060	-0.075
-746.185	484.017	0.126	0.289
-745.171	221.401	-0.142	0.230
-744.156	-194.480	0.044	0.000
-743.142	-87.508	-0.271	0.083
-742.127	96.994	0.100	0.116
-741.112	254.106	0.066	0.114
-740.098	800.000	-0.064	-0.251
-739.083	279.720	0.117	0.211
-738.069	-200.000	-0.084	0.393
-737.054	-200.000	0.039	-0.172
-736.039	70.701	0.075	0.078
-735.025	75.683	0.175	0.186
-734.010	21.598	-0.309	-0.253
-732.996	156.268	-0.277	-0.384
-731.981	-4.548	-0.339	0.236
-730.966	158.600	-0.175	-0.244
-729.952	404.954	-0.164	-0.347
-728.937	-200.000	-0.026	-0.394
-727.923	572.481	-0.073	0.179
-726.908	800.000	-0.029	-0.090
-725.894	-119.543	0.178	0.031
-724.879	-21.744	0.243	0.149
-723.864	132.486	0.203	0.264
-722.850	800.000	-0.104	-0.319
-721.835	-128.545	-0.313	0.045
-720.821	104.930	-0.140	-0.166
-719.806	-200.000	0.007	-0.204
-718.791	-200.000	0.031	0.516
-717.777	-125.674	0.098	-0.015
-716.762	19.265	-0.360	-0.291
-715.748	40.809	0.168	0.152
-714.733	146.153	0.094	-0.127
-713.718	109.790	-0.228	-0.275
-712.704	30.506	-0.298	-0.256
-711.689	-34.536	0.347	0.191
-710.675	-200.000	0.007	0.169
-709.660	10.668	-0.262	0.201
-708.645	103.268	-0.099	-0.117
-707.631	-65.363	-0.173	0.070
-706.616	81.562	-0.305	-0.332
-705.602	27.213	0.232	-0.196
-704.587	109.563	0.317	-0.382
-703.572	51.730	0.216	-0.207
-702.558	781.546	0.089	0.244
-701.543	261.112	0.047	-0.081
-700.529	-149.242	0.236	0.019
-699.514	-122.584	-0.191	0.031
-698.499	256.910	0.133	-0.230
-697.485	462.114	0.085	-0.190
-696.470	-157.234	-0.120	-0.007
-695.456	10.816	-0.114	0.088
-694.441	-151.407	-0.102	-0.008
-693.426	211.071	-0.033	0.052
-692.412	445.604	-0.079	0.175
-691.397	22.849	-0.254	-0.209
-690.383	800.000	0.046	-0.169
-689.368	800.000	0.060	-0.171
-688.354	-178.286	0.147	-0.003
-687.339	-74.128	0.037	-0.013
-686.324	-152.929	0.314	-0.022
-685.310	800.000	0.060	0.253
-684.295	60.330	0.099	-0.099
-683.281	-11.673	0.085	-0.056
-682.266	32.161	0.300	-0.260
-681.251	114.986	0.144	-0.176
-680.237	-16.609	-0.140	-0.089
-679.222	800.000	-0.045	-0.132
-678.208	174.125	-0.228	0.330
-677.193	-200.000	0.015	0.250
-676.178	269.316	0.105	-0.185
-675.164	31.068	-0.149	-0.128
-674.149	57.775	-0.028	-0.028
-673.135	800.000	-0.041	-0.151
-672.120	-52.782	-0.122	0.057
-671.105	363.150	-0.038	-0.076
-670.091	63.313	-0.173	-0.174
-669.076	-111.669	-0.135	0.028
-668.062	800.000	-0.068	0.205
-667.047	255.696	0.029	-0.050
-666.032	456.640	-0.090	0.201
-665.018	-99.563	-0.080	-0.020
-664.003	-200.000	0.024	-0.123
-662.989	-169.864	-0.208	0.007
-661.974	646.175	0.103	-0.265
-660.959	12.279	-0.284	-0.219
-659.945	-200.000	-0.380	0.000
-658.930	-74.795	-0.450	-0.162
-657.916	137.017	0.127	-0.167
-656.901	-168.383	-0.279	0.011
-655.886	-27.028	0.157	-0.092
-654.872	-200.000	-0.020	-0.125
-653.857	-60.608	0.139	0.059
-652.843	393.959	0.074	0.156
-651.828	800.000	0.129	0.373
-650.814	-123.309	-0.132	0.021
-649.799	124.111	-0.114	0.143
-648.784	-200.000	-0.021	-0.134
-647.770	-70.858	-0.185	-0.070
-646.755	-76.464	0.334	0.118
-645.741	-200.000	-0.010	-0.138
-644.726	-24.695	0.449	-0.268
-643.711	-183.707	0.223	0.004
-642.697	302.704	-0.152	0.282
-641.682	-96.758	0.287	0.076
-640.668	800.000	0.036	0.106
-639.653	-19.330	-0.154	0.096
-638.638	66.399	-0.187	0.191
-637.624	-114.580	-0.497	0.096
-636.609	800.000	-0.055	-0.190
-635.595	263.530	0.127	-0.221
-634.580	-169.453	-0.030	0.001
-633.565	-96.539	-0.481	-0.127
-632.551	99.421	0.140	-0.162
-631.536	-107.289	-0.128	0.028
-630.522	95.996	0.117	-0.134
-629.507	800.000	-0.120	-0.389
-628.492	-138.697	0.130	-0.014
-627.478	451.101	-0.095	0.210
-626.463	-200.000	-0.007	0.050
-625.449	573.056	-0.067	0.164
-624.434	24.521	-0.242	0.200
-623.419	-108.496	-0.131	0.028
-622.405	40.822	-0.228	0.206
-621.390	-200.000	-0.031	0.141
-620.376	-200.000	-0.043	-0.225
-619.361	-200.000	-0.008	-0.203
-618.346	9.029	0.160	-0.121
-617.332	-110.493	0.372	-0.077
-616.317	61.601	-0.296	0.295
-615.303	-200.000	0.018	-0.295
-614.288	-191.243	0.197	-0.002
-613.273	18.349	-0.181	-0.145
-612.259	-73.715	-0.055	0.020
-611.244	800.000	-0.093	-0.380
-610.230	409.302	-0.134	-0.285
-609.215	800.000	-0.027	-0.079
-608.201	368.349	-0.117	-0.236
-607.186	-6.704	-0.211	0.144
-606.171	800.000	-0.091	-0.306
-605.157	112.747	0.037	0.044
-604.142	-200.000	-0.009	-0.103
-603.128	-174.301	-0.091	0.003
-602.113	-59.816	0.137	0.059
-601.098	107.236	0.099	-0.118
-600.084	274.451	-0.038	0.067
-599.069	9.708	0.223	-0.169
-598.055	-38.821	0.246	-0.130
-597.040	-122.921	0.123	0.020
-596.025	1.983	-0.194	0.140
-595.011	-200.000	0.074	-0.480
-593.996	575.652	0.114	0.279
-592.982	-200.000	0.036	-0.413
-591.967	800.000	-0.049	-0.197
-590.952	50.396	-0.262	-0.248
-589.938	800.000	-0.026	-0.105
-588.923	800.000	0.045	-0.171
-587.909	-35.163	-0.193	0.105
-586.894	-49.423	0.292	-0.139
-585.879	-39.287	-0.122	-0.064
-584.865	47.657	0.295	-0.275
-583.850	178.304	-0.038	0.055
-582.836	419.639	-0.079	-0.168
-581.821	-21.232	0.124	-0.076
-580.806	-200.000	0.012	0.073
-579.792	151.765	-0.071	-0.097
-578.777	-126.418	-0.350	0.052
-577.763	-200.000	0.022	-0.367
-576.748	13.397	0.071	-0.055
-575.733	-102.731	-0.137	-0.033
-574.719	-43.395	-0.119	0.060
-573.704	39.486	-0.295	-0.264
-572.690	-130.590	-0.168	-0.023
-571.675	-200.000	0.039	-0.417
-570.661	-72.421	-0.187	-0.069
-569.646	-200.000	-0.006	-0.059
-568.631	800.000	-0.044	0.187
-567.617	-200.000	-0.048	-0.269
-566.602	40.815	-0.090	-0.081
-565.588	800.000	-0.045	-0.183
-564.573	-54.537	0.169	-0.077
-563.558	-68.322	-0.241	0.094
-562.544	79.922	-0.110	0.118
-561.529	194.627	-0.173	0.262
-560.515	-200.000	-0.011	0.076
-559.500	800.000	-0.163	0.522
-558.485	-37.459	0.340	-0.182
-557.471	29.765	0.078	0.066
-556.456	333.777	0.076	0.146
-555.442	-7.794	-0.069	-0.047
-554.427	562.598	0.103	-0.249
-553.412	-87.704	-0.322	0.097
-552.398	-51.367	-0.084	0.039
-551.383	-126.692	-0.201	-0.030
-550.369	800.000	0.081	0.318
-549.354	-51.556	0.047	-0.022
-548.339	-116.379	0.108	0.020
-547.325	40.959	0.039	0.035
-546.310	-36.906	-0.197	0.105
-545.296	-18.513	-0.226	-0.141
-544.281	127.496	0.217	-0.276
-543.266	-182.618	-0.257	-0.005
-542.252	-6.854	-0.114	-0.077
-541.237	196.965	0.116	-0.177
-540.223	474.602	-0.080	0.180
-539.208	-6.048	0.080	-0.055
-538.193	-13.178	-0.142	0.092
-537.179	102.460	0.282	-0.329
-536.164	110.295	-0.078	0.094
-535.150	-67.322	0.379	0.149
-534.135	151.306	-0.061	-0.083
-533.121	80.723	0.140	0.151
-532.106	156.088	-0.143	0.196
-531.091	800.000	-0.059	-0.183
-530.077	93.911	0.160	-0.181
-529.062	-70.007	-0.491	-0.187
-528.048	800.000	0.085	-0.281
-527.033	-160.507	0.012	0.001
-526.018	-157.707	0.472	0.028
-525.004	81.768	-0.193	0.209
-523.989	31.298	-0.030	-0.025
-522.975	106.413	0.102	-0.121
-521.960	-200.000	0.033	-0.239
-520.945	-88.966	-0.159	0.047
-519.931	-53.578	-0.169	-0.077
-518.916	-78.621	0.190	0.065
-517.902	22.841	-0.207	0.169
-516.887	269.525	0.067	-0.117
-515.872	-200.000	0.003	0.138
-514.858	-106.210	0.215	0.048
-513.843	-167.216	-0.183	0.007
-512.829	-90.243	-0.068	-0.020
-511.814	-109.373	0.075	0.016
-510.799	-122.794	-0.218	0.035
-509.785	-166.378	-0.352	-0.015
-508.770	210.594	0.155	0.243
-507.756	89.103	-0.051	0.057
-506.741	-50.875	0.160	-0.075
-505.726	-111.480	0.161	0.033
-504.712	-30.042	-0.114	-0.065
-503.697	-24.277	0.240	-0.143
-502.683	276.801	-0.164	-0.290
-501.668	47.815	0.184	-0.171
-500.653	-77.682	-0.211	-0.073
-499.639	-200.000	-0.037	-0.177
-498.624	-123.591	-0.323	0.051
-497.610	13.181	0.032	0.024
-496.595	792.609	0.071	0.194
-495.581	-68.151	0.255	0.099
-494.566	-112.983	-0.248	0.049
-493.551	800.000	0.077	0.239
-492.537	0.971	-0.239	-0.171
-491.522	-92.774	0.539	-0.150
-490.508	800.000	0.072	0.269
-489.493	406.978	-0.114	0.241
-488.478	237.864	0.182	-0.301
-487.464	63.107	-0.134	-0.134
-486.449	800.000	-0.078	0.299
-485.435	-200.000	-0.004	0.347
-484.420	-90.396	-0.335	0.097
-483.405	-40.314	-0.223	0.115
-482.391	405.656	0.056	0.118
-481.376	58.076	-0.139	-0.136
-480.362	-172.986	-0.273	-0.008
-479.347	163.607	0.179	0.252
-478.332	-200.000	-0.014	0.159
-477.318	184.194	0.094	0.139
-476.303	496.294	-0.035	0.081
-475.289	-129.121	-0.201	0.028
-474.274	164.308	-0.137	-0.192
-473.259	42.349	-0.060	-0.055
-472.245	-200.000	0.000	0.084
-471.230	-200.000	0.057	0.347
-470.216	88.205	0.023	0.025
-469.201	382.102	-0.139	0.284
-468.186	139.153	-0.184	0.241
-467.172	-7.361	-0.283	-0.191
-466.157	147.794	-0.180	-0.242
-465.143	800.000	-0.043	0.127
-464.128	538.989	0.117	0.277
-463.113	347.959	0.073	-0.144
-462.099	-153.991	0.110	0.007
-461.084	245.088	-0.074	0.124
-460.070	-200.000	0.041	-0.274
-459.055	41.676	-0.182	0.164
-458.040	-101.856	0.161	-0.039
-457.026	-139.221	0.102	0.011
-456.011	253.576	0.137	-0.233
-454.997	-112.716	0.317	0.063
-453.982	-172.407	-0.194	0.006
-452.968	217.446	0.084	0.133
-451.953	-200.000	-0.007	0.036
-450.938	-108.504	0.322	0.069
-449.924	-200.000	-0.044	0.229
-448.909	129.513	-0.228	-0.290
-447.895	-93.589	-0.261	0.072
-446.880	-130.898	-0.139	-0.018
-445.865	-44.484	-0.219	-0.109
-444.851	-62.298	0.152	-0.063
-443.836	148.070	-0.072	-0.097
-442.822	-106.409	-0.363	0.081
-441.807	300.976	0.077	-0.141
-440.792	-130.361	-0.088	-0.012
-439.778	114.453	0.134	0.162
-438.763	112.284	0.051	-0.062
-437.749	800.000	0.110	0.401
-436.734	-39.613	0.112	-0.058
-435.719	-180.010	0.017	0.000
-434.705	62.743	-0.097	-0.097
-433.690	-7.692	0.374	0.251
-432.676	-76.111	-0.094	-0.033
-431.661	21.813	0.134	-0.109
-430.646	-200.000	-0.086	0.425
-429.632	8.469	0.154	-0.115
-428.617	313.425	-0.178	-0.333
-427.603	-159.459	-0.479	-0.027
-426.588	-200.000	0.009	0.312
-425.573	-102.450	0.254	0.060
-424.559	-151.817	0.127	-0.009
-423.544	455.692	0.139	0.306
-422.530	194.567	0.052	-0.078
-421.515	573.259	-0.066	-0.161
-420.500	65.323	-0.124	-0.125
-419.486	-14.734	-0.222	-0.142
-418.471	-200.000	0.032	-0.161
-417.457	-91.934	0.227	0.064
-416.442	-92.621	-0.519	-0.145
-415.428	-182.014	0.068	-0.001
-414.413	18.581	-0.162	-0.129
-413.398	-40.155	0.111	0.058
-412.384	-13.247	-0.219	-0.141
-411.369	-138.559	0.258	0.028
-410.355	-17.607	-0.143	-0.089
-409.340	-65.828	0.608	-0.242
-408.325	-200.000	-0.029	-0.228
-407.311	251.012	-0.048	0.081
-406.296	-200.000	0.051	0.310
-405.282	-200.000	-0.081	0.481
-404.267	-18.431	0.264	-0.164
-403.252	-200.000	0.036	0.262
-402.238	-73.169	0.235	0.086
-401.223	-146.837	-0.415	0.036
-400.209	118.986	0.151	0.185
-399.194	-36.705	0.296	0.158
-398.179	388.529	-0.099	0.204
-397.165	480.046	0.200	0.451
-396.150	57.795	-0.182	0.177
-395.136	78.279	-0.017	0.018
-394.121	-200.000	0.009	-0.152
-393.106	74.496	-0.114	-0.119
-392.092	800.000	-0.044	-0.136
-391.077	-89.223	-0.091	0.027
-390.063	-71.187	0.454	0.169
-389.048	-109.839	-0.223	0.047
-388.033	106.811	-0.227	-0.267
-387.019	-39.779	0.283	-0.147
-386.004	-200.000	0.021	-0.247
-384.990	70.760	0.173	-0.178
-383.975	-62.308	0.157	-0.065
-382.960	-94.529	-0.175	0.047
-381.946	800.000	0.086	-0.276
-380.931	8.999	-0.209	0.156
-379.917	-148.003	0.194	0.016
-378.902	-102.954	0.175	-0.041
-377.888	-200.000	-0.004	-0.110
-376.873	-95.781	-0.120	-0.032
-375.858	-200.000	-0.009	-0.043
-374.844	-8.193	0.222	-0.149
-373.829	-89.008	-0.291	0.085
-372.815	783.953	-0.037	0.100
-371.800	66.145	0.195	0.197
-370.785	-93.354	-0.075	-0.021
-369.771	-154.347	0.265	-0.018
-368.756	-133.419	-0.354	0.044
-367.742	-48.028	0.142	-0.068
-366.727	-2.985	0.123	0.085
-365.712	245.089	0.128	0.213
-364.698	193.633	-0.132	-0.199
-363.683	-200.000	-0.059	-0.282
-362.669	103.515	0.120	0.140
-361.654	136.728	-0.057	0.074
-360.639	183.760	-0.135	0.198
-359.625	357.792	0.089	-0.176
-358.610	800.000	0.028	-0.101
-357.596	754.599	-0.022	-0.060
-356.581	-200.000	-0.029	-0.431
-355.566	-16.899	0.120	-0.075
-354.552	-82.898	-0.078	-0.025
-353.537	-111.981	0.167	0.033
-352.523	447.428	0.135	-0.294
-351.508	250.928	-0.169	0.285
-350.493	-103.971	-0.077	0.018
-349.479	63.236	-0.371	0.368
-348.464	-13.378	0.175	0.113
-347.450	-200.000	0.005	-0.065
-346.435	800.000	0.045	-0.173
-345.420	-200.000	-0.017	0.094
-344.406	-159.298	0.255	0.014
-343.391	-131.420	-0.237	0.031
-342.377	264.072	-0.045	-0.078
-341.362	800.000	0.058	0.173
-340.348	-95.327	0.231	-0.062
-339.333	-151.677	-0.314	-0.023
-338.318	398.640	0.143	0.297
-337.304	31.241	0.150	0.127
-336.289	800.000	-0.038	-0.111
-335.275	341.676	0.095	-0.184
-334.260	394.531	-0.072	-0.148
-333.245	800.000	-0.119	0.351
-332.231	129.891	0.182	-0.230
-331.216	-113.115	0.693	-0.135
-330.202	-200.000	-0.028	0.247
-329.187	85.493	-0.073	0.079
-328.172	792.022	-0.025	-0.069
-327.158	-200.000	0.020	-0.338
-326.143	72.152	0.285	0.294
-325.129	-200.000	-0.066	0.399
-324.114	-5.677	0.345	0.234
-323.099	-40.597	-0.243	-0.125
-322.085	-40.652	-0.056	0.029
-321.070	800.000	-0.018	0.078
-320.056	9.093	0.098	-0.073
-319.041	211.287	-0.151	-0.235
-318.026	800.000	0.037	-0.160
-317.012	-0.493	-0.060	0.042
-315.997	800.000	0.037	0.142
-314.983	-200.000	0.036	0.346
-313.968	-100.561	-0.093	-0.023
-312.953	391.040	-0.242	0.497
-311.939	-94.817	0.186	0.050
-310.924	-200.000	0.003	0.103
-309.910	-109.222	0.215	-0.045
-308.895	655.414	-0.099	-0.251
-307.880	-200.000	-0.018	-0.105
-306.866	-200.000	-0.042	0.233
-305.851	-142.839	0.203	0.020
-304.837	-136.132	-0.145	-0.017
-303.822	78.661	-0.127	0.134
-302.807	514.513	0.132	0.305
-301.793	-200.000	-0.003	-0.049
-300.778	411.657	-0.066	0.138
-299.764	-200.000	0.051	0.252
-298.749	-73.555	0.138	-0.050
-297.735	-106.981	0.317	-0.069
-296.720	2.977	-0.148	-0.106
-295.705	447.034	-0.079	-0.173
-294.691	-61.784	0.222	0.092
-293.676	50.265	0.104	0.097
-292.662	-97.712	0.136	-0.035
-291.647	-127.805	-0.130	-0.019
-290.632	-58.960	0.180	0.077
-289.618	-23.294	-0.181	0.108
-288.603	-77.874	0.276	0.094
-287.589	-200.000	-0.020	0.180
-286.574	29.518	0.113	0.095
-285.559	800.000	0.043	0.152
-284.545	-114.990	-0.091	0.017
-283.530	272.154	0.080	-0.140
-282.516	-132.176	0.084	-0.011
-281.501	-38.450	-0.215	-0.112
-280.486	-27.617	0.426	0.245
-279.472	-200.000	-0.048	0.287
-278.457	16.679	0.150	-0.118
-277.443	-200.000	0.006	0.104
-276.428	-154.288	-0.443	0.030
-275.413	185.739	0.119	-0.175
-274.399	-136.965	-0.229	0.026
-273.384	-195.424	-0.089	0.001
-272.370	-200.000	-0.045	-0.232
-271.355	800.000	0.060	0.212
-270.340	-24.748	0.189	-0.111
-269.326	800.000	0.019	-0.062
-268.311	140.610	0.084	0.110
-267.297	213.610	-0.107	0.167
-266.282	-200.000	0.041	-0.217
-265.267	-200.000	0.029	-0.248
-264.253	800.000	-0.052	-0.184
-263.238	-200.000	0.005	-0.049
-262.224	800.000	0.069	-0.258
-261.209	152.547	-0.210	-0.284
-260.195	-200.000	-0.039	0.201
-259.180	31.834	0.289	0.246
-258.165	-53.300	-0.095	0.043
-257.151	-200.000	-0.011	0.181
-256.136	606.699	-0.151	0.373
-255.122	21.342	-0.166	0.133
-254.107	800.000	0.102	0.309
-253.092	-141.301	0.541	-0.054
-252.078	595.194	0.028	-0.068
-251.063	800.000	0.054	-0.206
-250.049	-153.882	0.226	0.015
-249.034	251.201	-0.166	0.279
-248.019	-76.794	0.163	-0.056
-247.005	-118.505	0.313	0.055
-245.990	-134.154	0.223	0.027
-244.976	-200.000	-0.039	0.265
-243.961	127.457	0.140	-0.175
-242.946	363.484	0.056	-0.112
-241.932	-127.394	-0.261	0.038
-240.917	-141.099	0.058	0.006
-239.903	79.420	-0.193	0.204
-238.888	-163.748	-0.165	0.008
-237.873	-129.231	0.346	0.048
-236.859	31.826	0.192	0.163
-235.844	416.566	-0.055	0.116
-234.830	800.000	-0.044	0.143
-233.815	30.219	-0.069	0.058
-232.800	156.020	0.061	0.084
-231.786	83.600	-0.128	-0.138
-230.771	522.546	-0.093	-0.216
-229.757	106.637	-0.284	-0.333
-228.742	-77.040	0.187	-0.065
-227.727	-200.000	0.013	0.250
-226.713	29.904	0.156	0.131
-225.698	-127.876	0.217	-0.031
-224.684	-32.027	-0.278	0.154
-223.669	179.266	0.075	0.109
-222.655	26.471	0.092	-0.076
-221.640	414.752	-0.057	-0.120
-220.625	-131.960	0.043	-0.006
-219.611	49.520	-0.163	-0.151
-218.596	-128.102	0.299	-0.042
-217.582	343.671	0.127	-0.246
-216.567	224.714	-0.026	0.041
-215.552	270.859	-0.094	-0.164
-214.538	800.000	0.013	0.043
-213.523	109.376	0.112	0.132
-212.509	-113.704	-0.284	0.055
-211.494	-200.000	-0.035	0.156
-210.479	172.691	-0.039	-0.055
-209.465	-57.324	0.288	-0.125
-208.450	-200.000	-0.034	-0.356
-207.436	-25.335	-0.062	0.036
-206.421	207.929	0.054	0.083
-205.406	-54.471	-0.301	-0.134
-204.392	260.473	0.008	-0.014
-203.377	58.691	0.108	-0.104
-202.363	-119.963	0.163	0.028
-201.348	63.895	0.050	-0.049
-200.333	-127.742	-0.097	-0.014
-199.319	737.087	-0.039	0.102
-198.304	-200.000	0.030	-0.250
-197.290	77.144	-0.071	-0.074
-196.275	272.845	-0.139	-0.242
-195.260	366.330	0.139	0.276
-194.246	175.644	0.110	0.157
-193.231	19.890	0.144	-0.114
-192.217	153.026	0.068	-0.092
-191.202	211.521	0.134	0.208
-190.187	165.795	0.016	-0.022
-189.173	393.472	-0.128	0.262
-188.158	-117.125	0.415	0.074
-187.144	457.547	-0.033	0.071
-186.129	253.523	0.051	-0.086
-185.114	181.470	-0.117	-0.169
-184.100	-119.997	-0.241	-0.041
-183.085	75.919	0.162	0.169
-182.071	96.196	-0.141	-0.159
-181.056	-200.000	0.028	-0.208
-180.042	-13.331	0.130	0.083
-179.027	-44.795	0.091	-0.045
-178.012	800.000	0.029	0.093
-176.998	-200.000	0.008	-0.375
-175.983	-104.557	0.232	0.053
-174.969	201.875	-0.069	-0.104
-173.954	649.241	0.082	0.207
-172.939	-200.000	-0.006	0.137
-171.925	-200.000	-0.011	0.125
-170.910	-13.380	0.221	0.141
-169.896	-144.275	-0.300	0.028
-168.881	800.000	0.182	0.540
-167.866	-200.000	-0.026	-0.438
-166.852	208.942	-0.045	-0.069
-165.837	-80.913	-0.323	0.105
-164.823	-130.395	0.294	0.039
-163.808	-200.000	-0.029	-0.159
-162.793	-136.456	0.133	-0.015
-161.779	-48.562	0.146	0.069
-160.764	-200.000	-0.068	0.308
-159.750	74.029	-0.406	-0.419
-158.735	443.229	0.073	-0.156
-157.720	-144.769	0.042	-0.004
-156.706	101.515	-0.117	-0.134
-155.691	413.305	0.173	0.362
-154.677	-47.987	-0.074	0.035
-153.662	800.000	-0.146	-0.476
-152.647	293.582	-0.136	0.245
-151.633	-200.000	-0.044	0.216
-150.618	29.963	0.166	-0.139
-149.604	-76.743	0.245	-0.084
-148.589	33.003	-0.057	-0.048
-147.574	92.669	0.257	0.285
-146.560	100.060	0.137	-0.156
-145.545	139.959	0.249	-0.322
-144.531	-85.058	0.301	-0.093
-143.516	-92.845	0.361	-0.099
-142.502	122.293	0.120	0.148
-141.487	-200.000	0.025	-0.323
-140.472	635.127	0.090	0.225
-139.458	-141.097	-0.147	-0.015
-138.443	-167.156	-0.299	-0.012
-137.429	800.000	-0.120	-0.459
-136.414	37.201	-0.265	-0.230
-135.399	-34.263	0.092	-0.049
-134.385	-200.000	-0.018	0.255
-133.370	11.072	0.317	-0.238
-132.356	117.532	-0.292	-0.353
-131.341	-118.824	-0.267	-0.046
-130.326	-200.000	0.026	0.135
-129.312	-84.885	-0.124	-0.038
-128.297	-87.979	0.211	0.062
-127.283	800.000	-0.060	-0.238
-126.268	-31.964	-0.572	-0.315
-125.253	177.100	0.092	0.131
-124.239	151.803	-0.144	0.192
-123.224	-200.000	0.022	-0.236
-122.210	199.128	-0.074	-0.111
-121.195	103.145	-0.074	0.085
-120.180	-83.748	0.299	0.094
-119.166	243.339	0.085	-0.141
-118.151	-112.239	0.251	0.049
-117.137	555.412	0.148	0.351
-116.122	-133.706	-0.136	-0.017
-115.107	-65.415	0.149	0.059
-114.093	24.483	-0.168	-0.137
-113.078	129.189	-0.199	0.249
-112.064	-62.687	-0.231	0.094
-111.049	759.225	0.089	-0.236
-110.034	800.000	-0.153	-0.426
-109.020	-34.136	-0.219	0.118
-108.005	40.152	-0.132	-0.117
-106.991	-47.111	-0.212	0.101
-105.976	248.273	0.123	0.204
-104.962	690.519	0.072	-0.185
-103.947	-200.000	-0.042	0.358
-102.932	629.918	0.062	0.154
-101.918	-175.675	0.102	-0.003
-100.903	-200.000	-0.031	-0.331
-99.889	-35.573	0.157	-0.083
-98.874	546.274	-0.044	0.102
-97.859	-22.241	-0.030	-0.018
-96.845	-129.337	-0.332	0.045
-95.830	184.917	0.118	0.172
-94.816	100.505	0.070	-0.080
-93.801	-108.115	-0.075	0.016
-92.786	774.734	-0.046	0.124
-91.772	-200.000	-0.001	0.026
-90.757	-41.780	0.156	0.079
-89.743	-93.404	-0.313	0.085
-88.728	177.431	0.174	-0.249
-87.713	-200.000	-0.007	0.224
-86.699	-124.668	0.191	-0.029
-85.684	1.185	-0.060	0.042
-84.670	-120.901	-0.279	-0.046
-83.655	17.772	0.174	-0.136
-82.640	-185.118	-0.353	0.005
-81.626	-37.646	-0.088	-0.046
-80.611	-200.000	0.023	0.158
-79.597	-69.358	0.313	-0.118
-78.582	-78.328	-0.084	0.028
-77.567	-200.000	-0.053	0.249
-76.553	-130.850	-0.113	-0.015
-75.538	-200.000	0.012	-0.073
-74.524	-72.544	-0.188	0.068
-73.509	-86.833	-0.194	0.058
-72.494	-200.000	0.021	0.165
-71.480	224.939	0.072	-0.115
-70.465	-28.830	0.048	0.027
-69.451	-35.545	-0.211	0.113
-68.436	-35.336	0.474	-0.253
-67.422	439.486	-0.034	0.073
-66.407	-200.000	-0.027	-0.169
-65.392	22.077	0.190	-0.152
-64.378	277.468	-0.173	-0.302
-63.363	380.705	0.075	-0.151
-62.349	-77.530	0.240	0.082
-61.334	15.153	-1.250	-0.960
-60.319	-50.252	0.998	0.463
-59.305	-200.000	-0.223	-1.093
-58.290	718.576	0.497	1.294
-57.276	800.000	0.394	1.473
-56.261	-200.000	105.843	611.345
-55.246	501.997	1507.449	3412.667
-54.232	176.374	2700.116	3844.392
-53.217	110.894	2187.067	2579.590
-52.203	40.227	1704.032	1501.790
-51.188	32.605	1513.846	1282.485
-50.173	30.328	1486.601	1244.113
-49.159	51.380	1542.862	1435.619
-48.144	51.607	1560.010	1453.071
-47.130	32.994	1515.140	1286.030
-46.115	29.819	1500.026	1251.706
-45.100	29.667	1496.303	1247.520
-44.086	29.598	1494.579	1245.568
-43.071	29.521	1492.426	1243.208
-42.057	29.481	1490.876	1241.602
-41.042	29.506	1489.411	1240.499
-40.027	29.560	1488.211	1239.814
-39.013	29.599	1486.202	1238.348
-37.998	29.370	1485.613	1236.279
-36.984	29.582	1483.640	1236.007
-35.969	29.547	1482.721	1234.956
-34.954	29.553	1480.967	1233.483
-33.940	29.530	1479.714	1232.241
-32.925	29.604	1478.383	1231.576
-31.911	29.628	1477.001	1230.536
-30.896	29.643	1475.827	1229.611
-29.881	29.659	1474.287	1228.383
-28.867	29.629	1473.266	1227.286
-27.852	29.556	1472.180	1225.845
-26.838	29.661	1470.322	1224.946
-25.823	29.642	1468.700	1223.421
-24.809	29.650	1466.814	1221.853
-23.794	29.653	1465.485	1220.715
-22.779	29.512	1465.295	1219.579
-21.765	29.508	1464.327	1218.700
-20.750	29.708	1462.767	1218.671
-19.736	29.633	1461.297	1216.906
-18.721	29.571	1460.157	1215.496
-17.706	29.590	1459.207	1214.786
-16.692	29.577	1457.942	1213.600
-15.677	29.562	1457.328	1212.937
-14.663	29.583	1456.080	1211.993
-13.648	29.513	1455.379	1210.901
-12.633	29.547	1454.002	1209.932
-11.619	29.564	1453.703	1209.743
-10.604	29.533	1452.808	1208.747
-9.590	29.462	1452.158	1207.697
-8.575	29.550	1451.091	1207.337
-7.560	29.608	1449.914	1206.684
-6.546	29.416	1449.743	1205.240
-5.531	29.404	1449.040	1204.530
-4.517	29.397	1448.302	1203.826
-3.502	29.502	1446.413	1202.892
-2.487	29.518	1445.357	1202.067
-1.473	29.469	1444.412	1200.915
-0.458	29.439	1443.188	1199.655
0.556	27.235	1433.526	1189.545
1.571	24.363	1408.352	1150.069
2.586	21.027	1350.448	1082.026
3.600	19.601	1269.355	1008.637
4.615	18.398	1225.418	966.851
5.629	16.175	1170.529	911.465
6.644	8.098	1087.170	805.800
7.659	1.038	1046.667	741.258
8.673	-0.116	1040.877	731.475
9.688	-0.276	1037.697	728.402
10.702	-0.477	1036.364	726.425
11.717	-0.281	1033.883	725.571
12.731	2.916	1037.619	743.625
13.746	11.798	1050.123	795.884
14.761	18.659	1058.757	835.892
15.775	20.375	1061.058	846.001
16.790	20.707	1060.266	846.910
17.804	20.465	1059.817	845.302
18.819	20.270	1058.585	843.293
19.834	20.407	1058.347	843.694
20.848	20.553	1058.025	844.076
21.863	20.630	1057.315	843.807
22.877	20.517	1057.081	842.999
23.892	20.591	1056.342	842.691
24.907	20.437	1055.495	841.197
25.921	20.548	1054.733	841.050
26.936	20.528	1053.950	840.255
27.950	20.476	1052.807	839.017
28.965	20.599	1051.638	838.605
29.980	20.454	1050.096	836.603
30.994	20.315	1048.626	834.693
32.009	20.637	1047.646	835.385
33.023	20.640	1047.053	834.853
34.038	20.353	1046.019	832.576
35.053	20.313	1045.486	831.886
36.067	20.675	1044.173	832.504
37.082	20.569	1043.611	831.473
38.096	20.676	1042.984	831.412
39.111	20.746	1042.507	831.290
40.126	20.817	1041.151	830.476
41.140	20.880	1039.531	829.411
42.155	20.393	1038.693	826.351
43.169	20.270	1037.052	824.386
44.184	20.309	1035.964	823.635
45.199	20.355	1035.122	823.109
46.213	20.297	1033.920	821.807
47.228	20.228	1032.788	820.507
48.242	20.301	1032.106	820.237
49.257	20.361	1031.736	820.155
50.271	20.451	1030.917	819.858
51.286	20.631	1029.864	819.798
52.301	20.649	1029.149	819.238
53.315	20.626	1028.470	818.515
54.330	20.545	1027.970	817.666
55.344	20.551	1026.741	816.647
56.359	20.421	1026.222	815.550
57.374	20.655	1024.932	815.550
58.388	20.481	1024.013	813.932
59.403	20.288	1023.600	812.627
60.417	20.529	1022.274	812.631
61.432	20.304	1021.518	810.904
62.447	20.252	1020.962	810.150
63.461	20.376	1020.638	810.399
64.476	20.410	1019.479	809.564
65.490	20.401	1018.585	808.743
66.505	20.328	1017.565	807.520
67.520	20.259	1017.125	806.778
68.534	20.310	1016.058	806.099
69.549	20.250	1015.125	805.010
70.563	19.989	1013.701	802.598
71.578	19.749	1013.397	801.175
72.593	20.028	1012.067	801.345
73.607	19.894	1010.870	799.705
74.622	19.795	1010.418	798.820
75.636	20.094	1009.122	799.104
76.651	20.232	1008.435	799.123
77.666	20.059	1007.827	797.775
78.680	20.003	1006.999	796.795
79.695	20.064	1006.303	796.450
80.709	20.134	1006.001	796.465
81.724	20.266	1005.047	796.244
82.739	20.230	1004.176	795.320
83.753	20.132	1003.009	793.875
84.768	20.467	1002.625	795.035
85.782	20.636	1001.549	794.881
86.797	20.860	1001.170	795.535
87.812	20.676	1000.384	793.998
88.826	20.466	999.351	792.155
89.841	20.765	998.276	792.592
90.855	20.856	997.334	792.187
91.870	20.672	997.204	791.179
92.884	20.775	996.206	790.786
93.899	20.703	994.882	789.337
94.914	20.548	993.804	787.708
95.928	20.672	992.896	787.481
96.943	20.682	992.716	787.316
97.957	20.384	991.575	784.991
98.972	20.298	990.557	783.728
99.987	19.997	989.106	781.154
101.001	20.143	988.413	781.193
102.016	20.387	988.146	782.016
103.030	20.648	987.116	782.302
104.045	20.454	985.708	780.248
105.060	20.399	984.223	778.755
106.074	20.180	983.234	776.926
107.089	20.292	983.105	777.253
108.103	20.417	982.638	777.378
109.118	20.588	981.704	777.332
110.133	20.300	980.339	774.900
111.147	20.461	979.112	774.579
112.162	20.273	977.809	772.641
113.176	20.070	976.595	770.710
114.191	20.178	975.592	770.331
115.206	20.230	975.020	770.041
116.220	19.991	973.701	767.873
117.235	19.896	972.613	766.527
118.249	19.975	972.070	766.381
119.264	20.142	970.760	766.018
120.279	19.995	970.492	765.087
121.293	19.940	969.421	763.933
122.308	20.021	969.145	764.007
123.322	20.000	968.363	763.228
124.337	20.010	967.071	762.186
125.352	20.041	965.280	760.847
126.366	19.539	964.035	757.592
127.381	19.200	962.769	755.047
128.395	19.735	962.443	757.066
129.410	20.468	961.912	759.789
130.424	20.428	961.457	759.187
131.439	20.591	960.121	758.779
132.454	20.493	958.671	757.139
133.468	20.504	958.238	756.778
134.483	20.291	958.048	755.632
135.497	20.535	956.539	755.437
136.512	20.700	956.099	755.739
137.527	20.600	955.580	754.828
138.541	20.753	954.287	754.401
139.556	20.724	954.065	754.034
140.570	20.690	952.973	752.958
141.585	20.822	951.886	752.604
142.600	20.766	951.201	751.750
143.614	20.602	950.153	750.151
144.629	20.782	949.509	750.352
145.643	21.034	949.010	750.975
146.658	20.726	948.169	748.918
147.673	20.826	946.284	747.792
148.687	20.755	945.204	746.567
149.702	20.517	944.689	745.077
150.716	20.556	943.344	744.114
151.731	20.474	942.454	742.996
152.746	20.688	941.440	743.048
153.760	20.725	941.145	742.905
154.775	20.860	940.431	742.851
155.789	21.018	939.706	742.888
156.804	20.768	938.723	740.981
157.819	20.801	937.771	740.305
158.833	20.790	936.832	739.448
159.848	21.003	936.023	739.647
160.862	21.017	935.128	738.934
161.877	20.890	934.145	737.557
162.892	20.940	933.200	736.958
163.906	20.932	932.589	736.375
164.921	20.889	931.680	735.411
165.935	20.809	930.571	734.131
166.950	20.870	929.543	733.513
167.964	20.935	928.571	732.957
168.979	20.829	927.535	731.629
169.994	20.685	926.507	730.149
171.008	20.585	925.556	728.915
172.023	20.771	924.988	729.181
173.037	20.915	924.220	729.114
174.052	20.888	922.703	727.740
175.067	20.507	922.035	725.559
176.081	20.394	921.361	724.492
177.096	20.580	920.541	724.558
178.110	20.723	919.680	724.414
179.125	20.575	918.684	722.948
180.140	20.280	917.607	720.811
181.154	20.301	916.517	719.978
182.169	20.459	916.092	720.235
183.183	20.555	916.145	720.614
184.198	20.772	915.766	721.149
185.213	20.739	914.729	720.130
186.227	20.679	914.146	719.361
187.242	20.668	913.859	719.028
188.256	20.821	913.108	719.006
189.271	20.873	911.846	718.161
190.286	21.059	910.695	717.958
191.300	20.793	910.267	716.460
192.315	20.373	908.891	713.589
193.329	19.758	907.231	709.699
194.344	19.213	906.624	706.925
195.359	19.730	906.963	709.250
196.373	20.515	907.168	712.567
197.388	20.816	906.655	713.333
198.402	20.721	905.773	712.186
199.417	20.644	905.015	711.212
200.432	20.729	904.578	711.156
201.446	20.550	903.847	709.787
202.461	20.275	903.430	708.275
203.475	20.298	903.076	708.029
204.490	19.984	901.253	705.256
205.504	18.805	899.135	698.743
206.519	19.375	899.408	701.213
207.534	20.257	899.436	704.757
208.548	20.383	899.125	704.962
209.563	20.635	898.915	705.758
210.577	20.717	897.949	705.270
211.592	20.563	897.119	703.931
212.607	20.809	897.244	704.965
213.621	20.857	896.880	704.810
214.636	20.974	895.564	704.184
215.650	20.877	895.244	703.479
216.665	20.921	894.466	702.983
217.680	20.936	894.286	702.839
218.694	21.034	893.574	702.614
219.709	20.763	892.299	700.459
220.723	20.301	891.714	698.080
221.738	20.534	891.360	698.678
222.753	20.662	891.089	698.919
223.767	20.701	889.921	698.096
224.782	20.875	889.114	698.100
225.796	20.939	888.513	697.821
226.811	20.969	888.176	697.614
227.826	20.602	887.367	695.449
228.840	19.827	885.512	690.840
229.855	19.758	884.972	690.081
230.869	20.104	884.429	690.980
231.884	19.810	883.658	689.142
232.899	19.751	883.292	688.563
233.913	20.618	883.382	692.023
234.928	20.694	883.009	691.971
235.942	20.701	882.031	691.170
236.957	20.744	881.188	690.621
237.972	20.477	880.343	688.841
238.986	20.326	879.615	687.612
240.001	20.606	879.349	688.450
241.015	20.408	879.017	687.345
242.030	20.414	878.172	686.647
243.045	20.842	877.162	687.488
244.059	20.710	877.004	686.782
245.074	20.772	876.700	686.727
246.088	20.895	875.554	686.254
247.103	20.354	875.015	683.641
248.117	20.556	874.549	684.011
249.132	21.062	874.028	685.534
250.147	21.400	873.626	686.482
251.161	21.431	873.382	686.352
252.176	21.516	872.948	686.285
253.190	21.482	871.975	685.327
254.205	21.537	871.697	685.262
255.220	21.758	871.518	685.925
256.234	21.715	870.902	685.212
257.249	21.635	870.032	684.154
258.263	21.458	869.154	682.711
259.278	21.485	868.724	682.419
260.293	21.569	868.306	682.358
261.307	21.601	867.486	681.779
262.322	21.580	866.763	681.067
263.336	21.458	865.915	679.867
264.351	20.901	864.668	676.663
265.366	19.797	862.633	670.735
266.380	19.436	862.101	668.861
267.395	20.338	862.291	672.444
268.409	21.234	862.569	676.073
269.424	21.126	861.514	674.768
270.439	21.287	861.236	675.112
271.453	21.372	860.671	674.938
272.468	21.411	860.157	674.625
273.482	21.570	859.763	674.872
274.497	21.774	859.129	675.100
275.512	21.501	858.120	673.198
276.526	20.942	856.897	670.029
277.541	21.212	856.318	670.553
278.555	21.436	856.089	671.175
279.570	21.263	855.707	670.155
280.585	21.128	854.759	668.834
281.599	21.105	854.502	668.485
282.614	21.209	853.819	668.291
283.628	20.899	852.216	665.791
284.643	20.405	852.086	663.742
285.657	21.002	851.658	665.632
286.672	20.996	850.443	664.599
287.687	20.318	849.780	661.438
288.701	20.837	850.096	663.604
289.716	21.091	849.781	664.267
290.730	20.828	848.478	662.190
291.745	20.609	847.940	660.879
292.760	20.480	846.988	659.590
293.774	20.345	846.516	658.653
294.789	21.295	847.215	662.744
295.803	21.825	847.155	664.648
296.818	21.881	846.153	664.015
297.833	22.005	845.935	664.253
298.847	21.746	845.177	662.619
299.862	21.469	843.667	660.331
300.876	21.766	843.017	660.886
301.891	21.938	843.042	661.497
302.906	21.945	842.483	661.023
303.920	21.514	841.293	658.409
304.935	21.468	840.397	657.479
305.949	21.802	840.212	658.531
306.964	21.880	839.890	658.512
307.979	21.719	839.015	657.165
308.993	21.488	839.124	656.326
310.008	22.152	838.220	658.048
311.022	22.171	838.060	657.933
312.037	21.764	837.679	656.054
313.052	21.711	836.809	655.115
314.066	21.649	835.722	653.975
315.081	20.942	834.508	650.330
316.095	20.428	833.457	647.538
317.110	20.800	833.831	649.157
318.125	21.745	833.617	652.455
319.139	21.267	832.557	649.790
320.154	20.029	830.953	643.880
321.168	19.788	829.996	642.189
322.183	20.357	830.294	644.476
323.197	21.274	830.692	648.131
324.212	21.594	829.903	648.644
325.227	21.599	829.801	648.524
326.241	21.737	829.588	648.813
327.256	21.608	828.606	647.508
328.270	21.598	827.814	646.798
329.285	21.438	827.473	645.880
330.300	21.459	826.605	645.226
331.314	21.211	826.238	643.968
332.329	21.242	825.625	643.547
333.343	21.446	825.348	644.023
334.358	21.900	824.689	645.123
335.373	21.796	823.838	644.020
336.387	21.763	823.572	643.631
337.402	22.136	823.153	644.615
338.416	22.316	822.788	644.932
339.431	22.117	822.126	643.627
340.446	22.144	821.686	643.326
341.460	22.521	820.574	643.776
342.475	22.354	820.354	642.936
343.489	22.026	819.866	641.298
344.504	22.168	819.108	641.167
345.519	22.363	818.793	641.574
346.533	22.671	818.747	642.605
347.548	22.497	818.670	641.853
348.562	22.790	817.467	641.922
349.577	22.690	817.239	641.322
350.592	22.533	817.038	640.535
351.606	22.558	816.221	639.929
352.621	22.615	815.479	639.497
353.635	22.578	814.771	638.753
354.650	22.549	814.747	638.573
355.665	22.086	813.871	636.151
356.679	21.058	811.993	630.910
357.694	20.915	811.552	629.996
358.708	21.671	811.337	632.503
359.723	21.412	810.859	631.142
360.738	21.674	810.587	631.819
361.752	22.172	810.432	633.437
362.767	22.440	810.103	634.090
363.781	22.441	810.398	634.269
364.796	22.878	809.631	635.185
365.810	22.911	809.191	634.900
366.825	22.945	808.885	634.725
367.840	22.851	808.780	634.249
368.854	22.741	808.069	633.242
369.869	22.342	807.236	631.102
370.883	22.225	806.577	630.111
371.898	22.484	805.703	630.301
372.913	22.275	804.974	628.929
373.927	22.263	804.512	628.469
374.942	22.421	804.081	628.640
375.956	22.547	803.270	628.401
376.971	22.604	803.133	628.439
377.986	22.864	802.124	628.518
379.000	22.883	802.433	628.776
380.015	22.727	801.849	627.707
381.029	22.774	801.310	627.398
382.044	22.715	800.615	626.586
383.059	22.915	799.906	626.687
384.073	22.865	799.423	626.075
385.088	22.881	798.804	625.591
386.102	22.891	798.556	625.376
387.117	22.757	797.664	624.148
388.132	22.709	796.789	623.240
389.146	22.642	796.299	622.564
390.161	21.999	795.244	619.416
391.175	21.981	795.260	619.311
392.190	22.506	795.105	620.986
393.205	22.591	794.765	620.965
394.219	21.611	792.914	616.018
395.234	20.027	790.861	608.808
396.248	19.345	790.068	605.746
397.263	20.413	791.070	610.216
398.278	22.156	792.040	617.036
399.292	22.561	792.212	618.536
400.307	22.370	791.212	617.033
401.321	22.231	790.889	616.240
402.336	22.306	790.692	616.292
403.350	22.469	790.588	616.729
404.365	23.102	790.131	618.533
405.380	23.181	789.933	618.598
406.394	23.535	789.773	619.655
407.409	23.471	789.660	619.290
408.423	23.513	788.794	618.699
409.438	23.540	787.934	618.065
410.453	23.479	787.786	617.681
411.467	23.651	787.649	618.120
412.482	23.559	786.746	617.037
413.496	23.579	786.235	616.648
414.511	23.553	786.080	616.383
415.526	23.521	786.052	616.195
416.540	23.625	785.008	615.683
417.555	23.456	784.975	615.015
418.569	23.331	783.947	613.724
419.584	23.194	783.406	612.773
420.599	23.368	782.770	612.823
421.613	157.313	1364.555	1798.058
422.628	135.971	1449.310	1798.120
