DTS Sentinel unit serial number:	SN413079Multiplexer serial number:	ORYXHardware model number:	OX4-SRSoftware version number:	ORYX F/W v4.00 Oryx Data Collector v3.7.2.0data status	okinstallation	princeton_trtdifferential loss correction	single-endedforward channel	channel 3reverse channel	N/Adate	2019/09/13time	08:20:35forward acquisition time	60.00reverse acquisition time	0.00gamma	496.2192k internal	0.2333k external	0.2333temperature offset calibration	1.0141default loss term (dB/km)	0.3790temperature slope calibration	1.0000multiplexer offset coefficient	1.0000multiplexer slope coefficient	1.0000fibre end	0.00T internal ref (°C)	27.25T ext. ref 1 (°C)	4.29T ext. ref 2 (°C)	23.27length (m)	temperature (°C)	Stokes	anti-Stokes-747.200	-200.000	-0.001	0.365
-746.185	581.659	-0.082	0.203
-745.171	-151.574	0.401	0.030
-744.156	107.278	-0.183	-0.219
-743.142	230.060	-0.088	0.145
-742.127	-145.020	-0.233	0.021
-741.112	29.182	-0.101	-0.086
-740.098	152.100	-0.149	-0.205
-739.083	800.000	0.056	0.199
-738.069	55.964	-0.103	0.100
-737.054	477.493	0.095	-0.216
-736.039	-200.000	0.002	-0.145
-735.025	27.022	-0.129	-0.109
-734.010	-110.450	0.263	-0.055
-732.996	-17.181	-0.141	0.090
-731.981	-33.654	0.143	0.079
-730.966	-37.440	0.444	-0.238
-729.952	-200.000	0.044	-0.584
-728.937	-179.376	-0.221	-0.005
-727.923	-22.340	-0.197	-0.120
-726.908	64.597	0.172	0.175
-725.894	-79.725	-0.027	-0.009
-724.879	-129.135	-0.470	-0.066
-723.864	-123.395	0.124	-0.020
-722.850	800.000	-0.088	0.371
-721.835	277.715	-0.118	-0.211
-720.821	-200.000	0.002	0.084
-719.806	114.678	0.134	-0.164
-718.791	-200.000	0.012	0.217
-717.777	-48.135	-0.434	0.211
-716.762	301.749	0.033	-0.061
-715.748	-68.725	0.211	0.082
-714.733	23.993	0.177	-0.147
-713.718	-200.000	-0.003	0.145
-712.704	-129.779	0.268	0.037
-711.689	800.000	0.103	-0.313
-710.675	-118.807	-0.054	-0.009
-709.660	-200.000	0.055	0.469
-708.645	-200.000	-0.006	0.192
-707.631	800.000	-0.076	0.232
-706.616	74.421	-0.072	-0.076
-705.602	-136.149	-0.117	0.014
-704.587	800.000	-0.087	0.270
-703.572	-200.000	0.008	0.048
-702.558	-181.331	0.173	0.003
-701.543	369.276	0.158	0.321
-700.529	-79.603	0.177	0.060
-699.514	-200.000	-0.040	0.214
-698.499	-89.936	-0.218	-0.064
-697.485	-200.000	0.145	-0.001
-696.470	-200.000	0.036	0.410
-695.456	-73.136	0.102	-0.038
-694.441	-200.000	-0.027	0.403
-693.426	-200.000	-0.039	0.412
-692.412	139.706	-0.058	0.076
-691.397	800.000	0.080	-0.334
-690.383	-143.625	-0.149	0.014
-689.368	414.325	-0.087	-0.185
-688.354	-52.708	-0.250	-0.116
-687.339	-200.000	-0.034	-0.276
-686.324	238.247	0.069	-0.115
-685.310	-87.023	-0.015	0.005
-684.295	-162.651	0.220	-0.011
-683.281	597.334	0.035	0.086
-682.266	36.736	0.245	0.217
-681.251	-200.000	-0.006	0.312
-680.237	120.328	-0.059	0.073
-679.222	-132.443	0.167	0.022
-678.208	800.000	-0.061	-0.174
-677.193	236.667	0.198	0.328
-676.178	682.954	0.182	-0.476
-675.164	26.494	-0.095	-0.080
-674.149	6.825	0.135	0.101
-673.135	-200.000	0.026	0.187
-672.120	-129.278	-0.346	-0.048
-671.105	92.591	0.191	0.216
-670.091	-115.990	-0.316	0.059
-669.076	115.385	-0.186	-0.228
-668.062	-200.000	0.000	0.092
-667.047	-40.663	0.035	-0.018
-666.032	200.095	-0.098	0.150
-665.018	-19.255	0.123	0.076
-664.003	26.563	-0.098	-0.082
-662.989	52.406	0.158	0.151
-661.974	-200.000	-0.054	-0.337
-660.959	-105.144	-0.231	-0.053
-659.945	-55.952	-0.229	-0.102
-658.930	631.264	0.008	-0.021
-657.916	49.775	0.082	0.078
-656.901	96.815	-0.119	0.137
-655.886	-169.960	-0.174	-0.006
-654.872	-80.244	-0.231	-0.077
-653.857	800.000	0.055	-0.167
-652.843	-147.420	-0.271	0.023
-651.828	520.341	-0.064	0.151
-650.814	244.620	0.156	0.263
-649.799	104.127	0.249	0.293
-648.784	-84.054	-0.174	-0.055
-647.770	-65.329	-0.112	-0.045
-646.755	-28.305	-0.283	-0.163
-645.741	-53.870	-0.069	0.031
-644.726	-200.000	-0.016	-0.174
-643.711	266.624	0.022	-0.039
-642.697	800.000	-0.024	-0.091
-641.682	-55.096	-0.363	-0.164
-640.668	21.761	0.033	0.027
-639.653	800.000	-0.026	-0.077
-638.638	-84.926	-0.252	-0.079
-637.624	800.000	-0.025	-0.084
-636.609	800.000	0.026	-0.108
-635.595	108.963	-0.043	-0.051
-634.580	-200.000	0.005	-0.200
-633.565	-200.000	0.078	-0.458
-632.551	800.000	0.048	0.173
-631.536	-200.000	0.055	0.265
-630.522	361.025	-0.156	0.313
-629.507	155.868	-0.137	0.190
-628.492	510.122	0.143	-0.333
-627.478	-119.439	-0.392	-0.068
-626.463	-46.462	0.235	-0.115
-625.449	-80.336	0.322	-0.108
-624.434	75.495	-0.159	-0.167
-623.419	208.387	-0.236	-0.369
-622.405	-200.000	-0.036	-0.361
-621.390	-200.000	-0.007	0.064
-620.376	-200.000	0.032	-0.171
-619.361	34.685	0.233	-0.204
-618.346	191.881	-0.062	0.093
-617.332	-23.783	0.191	-0.115
-616.317	31.776	-0.106	-0.092
-615.303	-129.825	0.348	0.048
-614.288	-118.405	-0.029	-0.005
-613.273	123.184	-0.267	-0.335
-612.259	800.000	-0.057	0.244
-611.244	-200.000	-0.032	-0.248
-610.230	317.526	-0.119	0.226
-609.215	84.638	0.149	0.163
-608.201	-88.126	0.195	0.058
-607.186	14.470	-0.326	-0.254
-606.171	-6.966	0.075	0.051
-605.157	189.479	-0.038	-0.057
-604.142	-96.407	0.044	0.012
-603.128	205.267	-0.124	0.193
-602.113	303.691	0.111	-0.206
-601.098	800.000	0.059	-0.231
-600.084	54.791	-0.045	-0.043
-599.069	-52.922	-0.084	0.039
-598.055	-44.453	0.418	0.209
-597.040	800.000	0.013	0.050
-596.025	-6.007	-0.125	-0.086
-595.011	155.042	-0.082	-0.113
-593.996	63.425	-0.073	-0.073
-592.982	-63.156	-0.108	0.045
-591.967	50.103	-0.115	-0.108
-590.952	0.994	-0.076	0.054
-589.938	-121.021	-0.165	-0.028
-588.923	-200.000	-0.000	-0.115
-587.909	-44.704	0.167	0.083
-586.894	-89.886	-0.279	0.081
-585.879	-200.000	-0.026	0.128
-584.865	72.094	0.315	-0.327
-583.850	22.327	0.263	-0.215
-582.836	800.000	-0.068	0.195
-581.821	212.778	-0.042	-0.067
-580.806	-129.757	0.106	0.015
-579.792	-136.072	0.129	-0.015
-578.777	800.000	0.093	-0.261
-577.763	800.000	-0.086	-0.240
-576.748	-128.028	0.205	-0.029
-575.733	-142.862	0.069	-0.007
-574.719	10.071	-0.209	-0.159
-573.704	-200.000	0.026	-0.134
-572.690	-10.774	-0.141	0.093
-571.675	81.121	-0.129	-0.139
-570.661	800.000	-0.041	-0.150
-569.646	800.000	-0.050	0.160
-568.631	-197.809	-0.221	-0.001
-567.617	-157.393	-0.361	-0.022
-566.602	-56.363	0.114	-0.051
-565.588	93.133	-0.072	-0.081
-564.573	344.857	0.054	0.106
-563.558	-200.000	-0.041	-0.182
-562.544	472.785	0.028	-0.062
-561.529	-94.134	-0.304	-0.083
-560.515	-16.342	0.257	0.163
-559.500	-100.701	-0.230	-0.057
-558.485	87.153	0.088	0.097
-557.471	19.244	-0.256	0.205
-556.456	-200.000	-0.095	-0.560
-555.442	-200.000	0.086	0.439
-554.427	160.440	-0.128	0.178
-553.412	223.558	-0.123	0.198
-552.398	-200.000	0.028	0.346
-551.383	-109.374	0.250	-0.053
-550.369	-16.870	0.153	0.097
-549.354	-45.552	0.297	-0.147
-548.339	615.574	-0.122	0.305
-547.325	27.360	-0.147	0.123
-546.310	6.565	0.060	0.044
-545.296	-116.828	0.222	-0.041
-544.281	800.000	0.028	-0.109
-543.266	-70.307	0.174	-0.066
-542.252	-200.000	-0.013	-0.071
-541.237	72.079	-0.168	-0.174
-540.223	-15.136	0.153	0.098
-539.208	-200.000	0.036	-0.261
-538.193	103.060	0.324	0.378
-537.179	50.064	-0.181	-0.170
-536.164	119.753	0.045	-0.056
-535.150	-200.000	0.007	-0.104
-534.135	-107.523	0.128	0.028
-533.121	-52.899	0.184	0.085
-532.106	-86.159	0.494	-0.152
-531.091	-200.000	-0.006	-0.210
-530.077	126.555	-0.127	0.160
-529.062	-200.000	-0.029	0.204
-528.048	34.046	0.169	0.147
-527.033	-84.311	-0.212	-0.067
-526.018	-64.730	0.494	-0.199
-525.004	-69.525	-0.248	-0.095
-523.989	800.000	-0.079	0.271
-522.975	38.757	0.441	0.392
-521.960	-47.038	0.093	0.045
-520.945	-21.066	-0.170	0.103
-519.931	-92.696	-0.262	-0.073
-518.916	800.000	0.030	-0.101
-517.902	800.000	-0.094	-0.319
-516.887	-39.494	-0.065	-0.034
-515.872	-73.247	0.470	0.171
-514.858	-127.151	-0.382	-0.056
-513.843	289.249	-0.122	0.221
-512.829	-15.843	-0.326	-0.207
-511.814	-129.109	0.083	-0.012
-510.799	-115.379	0.071	-0.013
-509.785	-200.000	-0.007	0.039
-508.770	-67.795	-0.287	0.112
-507.756	-200.000	0.030	-0.137
-506.741	-83.088	0.046	0.015
-505.726	52.697	-0.170	-0.162
-504.712	-25.751	-0.283	-0.166
-503.697	-71.180	0.202	-0.075
-502.683	-35.595	0.392	0.212
-501.668	-103.302	-0.233	-0.055
-500.653	703.278	0.058	-0.153
-499.639	-48.806	-0.345	-0.165
-498.624	800.000	0.019	0.057
-497.610	-63.290	-0.219	-0.090
-496.595	-66.599	0.340	-0.134
-495.581	800.000	0.118	-0.391
-494.566	121.727	0.081	0.101
-493.551	-46.443	-0.333	-0.163
-492.537	-64.813	-0.102	-0.041
-491.522	-149.623	0.281	-0.022
-490.508	-86.835	0.208	0.063
-489.493	-28.988	-0.052	-0.030
-488.478	-124.281	0.231	0.036
-487.464	32.698	-0.278	-0.239
-486.449	-111.444	0.121	-0.025
-485.435	-200.000	-0.027	-0.172
-484.420	61.560	-0.192	-0.190
-483.405	-111.480	-0.205	-0.042
-482.391	30.679	-0.166	0.141
-481.376	105.062	-0.009	-0.011
-480.362	98.325	0.167	0.191
-479.347	-18.604	-0.232	-0.144
-478.332	761.646	0.108	-0.293
-477.318	-130.356	-0.379	0.051
-476.303	-200.000	-0.001	-0.048
-475.289	735.986	-0.025	-0.066
-474.274	-17.721	0.098	0.061
-473.259	97.314	-0.085	-0.098
-472.245	14.152	0.289	0.224
-471.230	-134.486	0.262	-0.032
-470.216	-200.000	-0.020	0.181
-469.201	73.501	-0.286	-0.297
-468.186	800.000	0.081	0.284
-467.172	-80.916	0.305	-0.101
-466.157	-200.000	0.020	-0.166
-465.143	-122.289	0.210	0.034
-464.128	-20.692	0.143	-0.087
-463.113	-17.833	-0.152	0.095
-462.099	192.415	-0.068	-0.102
-461.084	800.000	0.041	0.114
-460.070	109.091	-0.135	0.161
-459.055	-200.000	0.010	-0.121
-458.040	-200.000	-0.014	0.120
-457.026	179.877	0.259	-0.377
-456.011	-200.000	-0.017	0.148
-454.997	463.732	0.081	-0.180
-453.982	-32.451	-0.188	-0.104
-452.968	-200.000	-0.009	0.256
-451.953	119.207	0.192	0.236
-450.938	-200.000	-0.015	0.167
-449.924	85.353	0.032	0.035
-448.909	192.103	-0.103	-0.154
-447.895	-200.000	0.037	-0.166
-446.880	-200.000	0.016	-0.079
-445.865	203.657	0.108	0.166
-444.851	-113.460	-0.460	0.090
-443.836	-120.972	-0.331	0.055
-442.822	-40.309	-0.185	0.096
-441.807	-80.722	0.111	0.037
-440.792	-122.407	-0.276	-0.045
-439.778	-144.409	-0.004	0.000
-438.763	800.000	-0.043	-0.129
-437.749	800.000	-0.118	-0.407
-436.734	-200.000	-0.026	-0.114
-435.719	109.768	-0.216	0.258
-434.705	156.706	-0.115	-0.158
-433.690	800.000	-0.038	0.107
-432.676	217.637	0.086	-0.136
-431.661	440.650	0.099	0.215
-430.646	-200.000	0.025	-0.238
-429.632	19.625	-0.028	0.023
-428.617	-106.884	0.342	0.075
-427.603	-200.000	-0.053	-0.278
-426.588	-146.013	-0.328	-0.029
-425.573	246.021	-0.076	0.127
-424.559	-34.498	-0.042	0.023
-423.544	-46.589	-0.160	-0.078
-422.530	24.104	0.182	0.149
-421.515	24.288	0.049	0.040
-420.500	-140.935	0.286	0.029
-419.486	-93.068	-0.369	0.102
-418.471	480.133	-0.096	-0.215
-417.457	800.000	-0.014	-0.045
-416.442	53.823	0.274	0.261
-415.428	-200.000	-0.008	-0.210
-414.413	-59.964	-0.170	-0.072
-413.398	-162.958	0.065	-0.003
-412.384	-50.491	-0.269	0.126
-411.369	-85.019	0.213	0.066
-410.355	458.860	-0.048	-0.105
-409.340	162.816	-0.063	0.088
-408.325	-27.212	-0.212	-0.123
-407.311	-47.302	-0.358	0.173
-406.296	-136.449	-0.058	-0.007
-405.282	-200.000	-0.022	0.099
-404.267	547.626	-0.043	-0.101
-403.252	-58.667	-0.342	0.147
-402.238	37.475	0.116	0.102
-401.223	764.829	-0.124	0.334
-400.209	63.930	0.157	-0.156
-399.194	197.490	0.079	0.119
-398.179	-130.878	0.227	-0.030
-397.165	288.982	-0.073	0.131
-396.150	-133.945	0.427	0.053
-395.136	360.307	0.162	-0.322
-394.121	151.112	-0.225	0.304
-393.106	800.000	-0.027	0.094
-392.092	-129.297	0.066	-0.009
-391.077	800.000	0.067	0.222
-390.063	129.630	0.078	0.099
-389.048	536.831	-0.045	-0.106
-388.033	59.647	0.148	0.145
-387.019	-200.000	-0.002	-0.033
-386.004	800.000	-0.146	0.404
-384.990	-63.475	0.174	0.071
-383.975	597.914	-0.106	0.260
-382.960	364.559	0.098	0.196
-381.946	99.695	0.215	0.247
-380.931	-102.137	0.309	0.074
-379.917	-200.000	0.001	0.040
-378.902	-107.557	0.220	0.048
-377.888	-106.362	-0.043	-0.010
-376.873	-169.380	0.268	0.010
-375.858	-200.000	-0.029	0.272
-374.844	95.371	0.178	0.201
-373.829	152.946	-0.136	0.184
-372.815	-24.287	0.347	-0.205
-371.800	4.114	0.081	-0.059
-370.785	-157.854	-0.123	0.007
-369.771	-200.000	-0.015	0.264
-368.756	800.000	0.021	0.072
-367.742	71.805	-0.147	-0.152
-366.727	151.068	-0.147	0.198
-365.712	-200.000	-0.003	-0.134
-364.698	-64.322	0.110	-0.044
-363.683	-200.000	-0.013	0.402
-362.669	499.417	-0.054	-0.124
-361.654	171.034	-0.106	0.151
-360.639	-200.000	0.026	-0.212
-359.625	53.255	-0.064	0.061
-358.610	-71.950	-0.171	0.063
-357.596	-50.410	-0.206	0.097
-356.581	-60.136	-0.083	-0.035
-355.566	-139.767	0.128	0.013
-354.552	-10.602	-0.285	0.187
-353.537	1.352	0.082	0.058
-352.523	331.468	-0.149	0.285
-351.508	581.928	0.079	0.191
-350.493	-158.845	0.205	-0.012
-349.479	6.300	-0.239	-0.175
-348.464	263.648	-0.076	-0.131
-347.450	69.743	0.125	0.128
-346.435	56.699	-0.162	-0.156
-345.420	-28.526	0.239	-0.136
-344.406	-200.000	-0.015	0.082
-343.391	800.000	-0.078	-0.318
-342.377	-200.000	0.033	-0.409
-341.362	-39.956	-0.117	0.060
-340.348	137.571	0.041	-0.053
-339.333	37.384	0.269	-0.236
-338.318	125.756	0.099	-0.124
-337.304	800.000	-0.033	0.131
-336.289	-15.445	0.287	-0.181
-335.275	353.459	0.114	0.223
-334.260	131.813	-0.118	0.150
-333.245	110.456	0.289	0.343
-332.231	-27.734	-0.017	-0.010
-331.216	453.229	0.196	0.429
-330.202	800.000	0.023	0.087
-329.187	642.054	-0.041	0.103
-328.172	-200.000	-0.006	0.204
-327.158	-29.935	0.157	0.088
-326.143	-127.401	-0.223	-0.032
-325.129	-32.493	-0.383	-0.211
-324.114	517.846	0.134	-0.310
-323.099	526.377	0.052	0.122
-322.085	-113.710	-0.121	0.023
-321.070	-200.000	-0.115	-0.524
-320.056	199.101	-0.106	-0.161
-319.041	-46.113	0.142	0.069
-318.026	-36.777	-0.136	0.072
-317.012	800.000	-0.102	0.336
-315.997	283.568	-0.124	0.221
-314.983	-77.454	0.061	-0.021
-313.968	-140.358	-0.112	-0.012
-312.953	450.372	-0.160	0.350
-311.939	800.000	0.111	0.361
-310.924	-2.233	-0.085	-0.059
-309.910	-58.750	0.288	-0.123
-308.895	-200.000	0.009	0.098
-307.880	-22.733	0.230	-0.137
-306.866	-200.000	0.010	-0.124
-305.851	65.053	-0.262	-0.262
-304.837	131.796	0.178	-0.226
-303.822	-134.299	-0.487	0.059
-302.807	-157.552	0.108	0.006
-301.793	-95.613	0.611	-0.162
-300.778	-5.556	-0.264	-0.179
-299.764	-200.000	0.065	0.306
-298.749	39.548	-0.274	-0.242
-297.735	-122.462	-0.174	0.028
-296.720	14.592	0.251	0.193
-295.705	381.047	0.079	0.160
-294.691	782.243	-0.093	0.251
-293.676	-57.912	-0.052	0.023
-292.662	474.993	0.051	0.113
-291.647	546.990	-0.042	0.100
-290.632	800.000	-0.121	0.393
-289.618	176.322	-0.088	0.126
-288.603	364.426	0.077	0.154
-287.589	449.810	0.032	-0.071
-286.574	-193.505	0.383	0.003
-285.559	66.658	-0.251	0.252
-284.545	-39.323	0.070	-0.036
-283.530	-200.000	0.028	-0.185
-282.516	-11.866	-0.123	0.080
-281.501	800.000	0.056	0.202
-280.486	800.000	0.118	0.333
-279.472	-119.776	0.143	0.024
-278.457	-200.000	0.021	-0.206
-277.443	481.626	0.051	0.114
-276.428	-122.147	0.185	0.030
-275.413	-13.770	-0.068	0.043
-274.399	549.112	-0.100	-0.236
-273.384	57.715	0.089	-0.086
-272.370	449.268	0.132	-0.287
-271.355	-200.000	0.001	-0.164
-270.340	-135.194	0.278	-0.033
-269.326	87.955	0.050	0.055
-268.311	800.000	0.066	0.245
-267.297	724.791	0.066	0.174
-266.282	170.788	0.125	-0.177
-265.267	-200.000	-0.009	0.118
-264.253	-200.000	0.038	0.589
-263.238	-86.721	-0.334	-0.101
-262.224	176.792	0.198	0.284
-261.209	-21.853	0.192	0.115
-260.195	45.313	-0.144	-0.131
-259.180	401.339	0.146	-0.302
-258.165	-69.409	-0.176	0.067
-257.151	-91.095	-0.100	-0.028
-256.136	87.568	0.097	-0.106
-255.122	-28.924	-0.081	0.046
-254.107	-145.805	0.226	0.020
-253.092	387.799	0.201	-0.411
-252.078	100.284	-0.116	0.133
-251.063	175.601	-0.127	-0.181
-250.049	-200.000	0.029	-0.185
-249.034	-200.000	-0.010	-0.054
-248.019	-200.000	0.059	0.000
-247.005	430.031	0.008	0.018
-245.990	-72.247	0.136	-0.050
-244.976	147.022	0.171	-0.226
-243.961	122.952	0.091	-0.112
-242.946	201.652	0.032	0.049
-241.932	800.000	0.072	-0.247
-240.917	-50.547	0.181	-0.084
-239.903	-14.726	0.122	-0.077
-238.888	-98.635	0.024	0.006
-237.873	-147.992	0.219	0.018
-236.859	-54.509	-0.122	-0.055
-235.844	588.212	0.132	-0.321
-234.830	-50.737	0.155	-0.072
-233.815	129.295	0.202	0.254
-232.800	800.000	0.084	0.234
-231.786	120.226	-0.041	-0.050
-230.771	-88.187	0.464	0.137
-229.757	-62.572	-0.236	-0.097
-228.742	318.968	0.060	-0.113
-227.727	-55.445	-0.184	0.081
-226.713	-200.000	0.032	-0.233
-225.698	800.000	-0.042	-0.143
-224.684	192.599	-0.162	0.241
-223.669	89.682	0.282	-0.310
-222.655	529.542	-0.019	-0.045
-221.640	-43.540	-0.216	0.107
-220.625	319.800	-0.089	-0.167
-219.611	-200.000	-0.022	-0.162
-218.596	-26.623	0.163	0.094
-217.582	-121.870	-0.438	-0.071
-216.567	-13.790	0.041	0.026
-215.552	-84.140	-0.297	0.093
-214.538	-147.841	0.060	-0.005
-213.523	116.767	0.142	0.171
-212.509	-200.000	0.008	-0.040
-211.494	-51.021	0.168	-0.078
-210.479	-17.529	-0.034	0.021
-209.465	-97.757	-0.152	-0.039
-208.450	-115.288	0.399	-0.074
-207.436	155.210	-0.251	0.340
-206.421	-101.148	0.103	-0.025
-205.406	-112.117	-0.117	0.023
-204.392	-110.469	0.127	-0.026
-203.377	800.000	0.088	0.275
-202.363	-72.544	-0.037	0.013
-201.348	186.290	0.246	0.360
-200.333	344.032	-0.096	0.185
-199.319	-127.240	0.292	-0.042
-198.304	-61.147	0.319	0.132
-197.290	-102.653	-0.252	-0.059
-196.275	38.638	-0.164	-0.144
-195.260	479.424	-0.147	-0.329
-194.246	-50.033	0.233	0.109
-193.231	628.538	0.024	-0.059
-192.217	800.000	0.082	0.234
-191.202	603.248	-0.053	-0.130
-190.187	-45.535	0.196	0.095
-189.173	-26.085	0.115	-0.067
-188.158	24.073	0.190	-0.154
-187.144	141.486	-0.078	0.101
-186.129	-37.650	-0.337	0.177
-185.114	-200.000	0.011	0.209
-184.100	-200.000	-0.014	-0.242
-183.085	-123.199	-0.181	0.028
-182.071	-102.307	-0.255	-0.060
-181.056	-36.628	-0.275	-0.145
-180.042	-163.711	0.135	-0.006
-179.027	800.000	0.100	0.334
-178.012	101.831	-0.144	0.165
-176.998	48.390	-0.049	-0.045
-175.983	-121.745	0.165	0.027
-174.969	139.630	0.130	0.169
-173.954	-200.000	0.045	-0.218
-172.939	-28.767	-0.178	0.100
-171.925	236.817	0.132	0.215
-170.910	121.879	0.127	0.156
-169.896	747.586	-0.064	-0.170
-168.881	28.993	-0.191	-0.159
-167.866	92.865	-0.132	-0.147
-166.852	164.098	-0.131	0.181
-165.837	41.224	-0.153	0.136
-164.823	173.934	0.154	0.219
-163.808	-108.684	0.366	0.077
-162.793	-120.125	0.280	0.047
-161.779	800.000	-0.030	0.087
-160.764	-98.363	0.166	0.042
-159.750	-93.466	-0.240	0.065
-158.735	8.748	-0.148	-0.109
-157.720	-63.061	-0.203	-0.082
-156.706	40.048	-0.065	-0.057
-155.691	276.970	0.053	-0.093
-154.677	104.362	-0.249	-0.288
-153.662	-143.458	-0.193	-0.018
-152.647	1.144	-0.095	-0.067
-151.633	800.000	-0.078	0.224
-150.618	31.877	-0.150	0.127
-149.604	54.435	-0.118	-0.112
-148.589	79.701	0.060	-0.063
-147.574	71.098	0.213	-0.217
-146.560	800.000	0.072	0.216
-145.545	-2.782	0.139	0.095
-144.531	-41.175	-0.228	-0.116
-143.516	-200.000	0.011	0.106
-142.502	-113.818	-0.127	0.024
-141.487	-69.778	-0.051	-0.019
-140.472	124.761	-0.135	-0.167
-139.458	82.982	0.073	0.078
-138.443	-101.071	-0.186	0.045
-137.429	-17.813	-0.267	-0.165
-136.414	-107.030	0.100	-0.022
-135.399	3.044	-0.061	0.043
-134.385	-47.193	-0.338	0.162
-133.370	148.892	-0.161	0.213
-132.356	652.720	-0.058	-0.147
-131.341	800.000	0.011	0.031
-130.326	19.178	-0.091	-0.072
-129.312	-200.000	0.013	-0.119
-128.297	-113.661	-0.201	0.038
-127.283	44.272	-0.043	-0.039
-126.268	-200.000	0.033	-0.269
-125.253	2.177	-0.055	0.039
-124.239	221.098	-0.057	-0.090
-123.224	144.638	0.119	-0.156
-122.210	800.000	0.067	0.219
-121.195	-80.002	0.332	0.109
-120.180	440.830	-0.027	-0.058
-119.166	3.584	0.323	0.231
-118.151	800.000	0.067	0.232
-117.137	-65.938	0.500	0.196
-116.122	281.630	0.131	0.231
-115.107	-143.728	0.442	0.041
-114.093	-200.000	0.005	0.286
-113.078	-200.000	-0.005	0.084
-112.064	-5.946	0.287	-0.193
-111.049	-200.000	0.004	0.049
-110.034	-183.472	-0.070	0.001
-109.020	-200.000	0.011	-0.097
-108.005	8.971	0.246	-0.182
-106.991	320.547	0.053	0.099
-105.976	289.555	-0.079	0.141
-104.962	-200.000	0.002	-0.013
-103.947	-85.490	-0.286	-0.087
-102.932	-175.762	0.159	-0.004
-101.918	-57.934	-0.174	0.074
-100.903	3.100	-0.299	0.213
-99.889	800.000	0.037	-0.111
-98.874	-94.872	-0.214	0.057
-97.859	73.863	0.139	0.143
-96.845	-159.031	-0.095	0.005
-95.830	-97.623	0.090	0.023
-94.816	-200.000	0.004	-0.216
-93.801	240.092	0.099	0.162
-92.786	44.837	0.029	0.026
-91.772	-22.303	0.394	-0.234
-90.757	101.639	-0.157	0.179
-89.743	800.000	0.049	-0.164
-88.728	185.267	0.094	-0.137
-87.713	79.147	0.155	0.163
-86.699	-200.000	-0.031	0.184
-85.684	80.358	0.019	0.020
-84.670	576.800	0.210	0.502
-83.655	204.609	0.109	0.165
-82.640	800.000	-0.049	-0.146
-81.626	59.945	-0.139	-0.134
-80.611	800.000	-0.118	0.342
-79.597	-146.584	-0.268	-0.023
-78.582	-200.000	0.063	-0.377
-77.567	800.000	-0.103	-0.286
-76.553	-133.904	-0.306	0.037
-75.538	-200.000	-0.027	-0.139
-74.524	-90.504	-0.062	-0.018
-73.509	800.000	0.092	-0.253
-72.494	-50.669	0.013	-0.006
-71.480	-38.170	0.304	0.158
-70.465	153.327	0.140	0.188
-69.451	51.454	0.198	0.184
-68.436	337.240	-0.262	-0.500
-67.422	52.002	-0.049	-0.046
-66.407	61.422	0.075	0.073
-65.392	-200.000	0.026	0.173
-64.378	-63.003	0.151	-0.061
-63.363	-200.000	0.022	-0.129
-62.349	-109.158	0.260	-0.054
-61.334	51.047	-1.073	-0.996
-60.319	323.304	0.251	0.468
-59.305	-200.000	-0.131	-1.081
-58.290	800.000	0.527	1.549
-57.276	418.477	0.889	1.861
-56.261	-200.000	113.623	645.073
-55.246	529.991	1529.260	3535.399
-54.232	176.926	2698.373	3841.939
-53.217	107.877	2184.693	2547.132
-52.203	38.030	1707.629	1486.229
-51.188	30.412	1525.863	1275.882
-50.173	27.986	1501.641	1239.154
-49.159	51.746	1559.243	1451.412
-48.144	50.539	1574.712	1457.428
-47.130	30.562	1531.096	1281.085
-46.115	27.468	1515.884	1247.161
-45.100	27.274	1512.916	1243.340
-44.086	27.408	1510.648	1242.346
-43.071	27.272	1508.992	1240.006
-42.057	27.086	1508.014	1237.882
-41.042	27.227	1505.522	1236.747
-40.027	27.210	1504.667	1235.884
-39.013	27.176	1502.799	1234.068
-37.998	27.161	1501.631	1232.957
-36.984	27.236	1500.254	1232.288
-35.969	27.157	1498.965	1230.647
-34.954	27.185	1497.848	1229.870
-33.940	27.169	1496.390	1228.512
-32.925	27.235	1494.218	1227.130
-31.911	27.289	1493.264	1226.661
-30.896	27.275	1492.378	1225.786
-29.881	27.273	1491.028	1224.618
-28.867	27.340	1489.633	1223.874
-27.852	27.258	1488.530	1222.367
-26.838	27.318	1486.980	1221.450
-25.823	27.296	1485.833	1220.309
-24.809	27.352	1483.685	1218.871
-23.794	27.352	1482.539	1217.886
-22.779	27.231	1481.750	1216.379
-21.765	27.369	1480.409	1216.151
-20.750	27.488	1478.762	1215.547
-19.736	27.352	1478.158	1214.095
-18.721	27.207	1477.092	1212.203
-17.706	27.238	1475.937	1211.412
-16.692	27.202	1474.873	1210.249
-15.677	27.317	1473.598	1209.921
-14.663	27.202	1472.753	1208.414
-13.648	27.212	1471.969	1207.791
-12.633	27.151	1471.327	1206.814
-11.619	27.209	1470.593	1206.544
-10.604	27.266	1469.443	1205.932
-9.590	27.217	1468.605	1204.875
-8.575	27.241	1467.430	1204.019
-7.560	27.376	1466.247	1203.895
-6.546	27.249	1465.608	1202.483
-5.531	27.139	1464.948	1201.167
-4.517	27.273	1463.429	1200.754
-3.502	27.218	1462.860	1199.879
-2.487	27.119	1462.342	1198.752
-1.473	27.156	1461.079	1197.914
-0.458	27.239	1459.438	1197.067
0.556	29.103	1450.123	1186.726
1.571	26.323	1424.820	1148.281
2.586	22.923	1364.353	1078.730
3.600	21.148	1281.173	1002.687
4.615	19.704	1235.435	958.802
5.629	17.098	1178.542	900.760
6.644	10.365	1096.640	804.741
7.659	5.257	1059.135	752.589
8.673	4.431	1054.219	745.067
9.688	4.272	1050.887	741.890
10.702	4.169	1048.618	739.727
11.717	4.289	1047.098	739.162
12.731	6.640	1049.257	751.836
13.746	13.870	1059.419	793.729
14.761	20.112	1067.483	829.680
15.775	22.019	1068.630	839.624
16.790	21.750	1067.471	837.355
17.804	20.813	1065.425	831.203
18.819	19.850	1064.088	825.497
19.834	19.595	1062.369	822.876
20.848	19.350	1062.328	821.601
21.863	19.383	1061.120	820.754
22.877	19.201	1060.672	819.467
23.892	19.027	1059.677	817.800
24.907	19.000	1059.172	817.207
25.921	19.046	1057.730	816.244
26.936	18.889	1057.276	815.077
27.950	18.860	1056.634	814.370
28.965	19.001	1054.966	813.681
29.980	18.947	1054.411	812.923
30.994	19.205	1052.965	812.956
32.009	19.326	1052.222	812.879
33.023	19.450	1051.203	812.608
34.038	19.367	1050.786	811.822
35.053	19.254	1049.756	810.423
36.067	19.160	1048.223	808.728
37.082	18.980	1047.799	807.481
38.096	19.088	1047.042	807.334
39.111	19.093	1046.596	806.941
40.126	19.295	1045.620	807.063
41.140	19.170	1044.091	805.226
42.155	18.859	1042.658	802.599
43.169	18.686	1041.684	800.971
44.184	18.673	1040.435	799.880
45.199	18.598	1039.345	798.622
46.213	18.642	1038.953	798.453
47.228	18.660	1038.013	797.747
48.242	19.035	1036.961	798.609
49.257	19.137	1036.520	798.672
50.271	19.150	1035.196	797.638
51.286	19.001	1034.547	796.377
52.301	19.096	1034.438	796.665
53.315	19.161	1033.423	796.113
54.330	18.936	1032.479	794.275
55.344	18.909	1030.826	792.809
56.359	18.744	1030.278	791.558
57.374	18.737	1029.594	790.932
58.388	18.799	1028.743	790.492
59.403	18.709	1027.602	789.130
60.417	18.603	1027.140	788.217
61.432	18.651	1025.941	787.451
62.447	18.538	1025.509	786.530
63.461	18.373	1024.753	785.123
64.476	18.510	1023.433	784.671
65.490	18.227	1023.084	783.037
66.505	18.376	1022.007	782.826
67.520	18.394	1021.791	782.673
68.534	18.520	1020.414	782.126
69.549	18.479	1019.562	781.216
70.563	18.473	1018.468	780.282
71.578	18.361	1017.844	779.225
72.593	18.274	1016.961	778.084
73.607	18.180	1015.918	776.788
74.622	18.083	1015.380	775.870
75.636	18.143	1014.468	775.378
76.651	18.255	1013.676	775.208
77.666	18.255	1012.986	774.611
78.680	18.269	1012.504	774.240
79.695	18.291	1011.843	773.767
80.709	18.435	1011.086	773.766
81.724	18.434	1010.689	773.393
82.739	18.603	1010.024	773.573
83.753	18.717	1008.932	773.185
84.768	18.864	1008.617	773.535
85.782	19.350	1007.653	774.913
86.797	19.419	1007.565	775.085
87.812	19.442	1006.459	774.272
88.826	19.144	1005.825	772.378
89.841	19.221	1004.785	771.857
90.855	19.236	1003.945	771.208
91.870	19.218	1003.815	770.962
92.884	19.358	1002.758	770.707
93.899	19.424	1002.342	770.614
94.914	19.337	1001.142	769.237
95.928	19.351	1000.709	768.895
96.943	19.384	999.590	768.118
97.957	19.255	998.893	766.940
98.972	19.258	997.514	765.825
99.987	19.256	996.803	765.203
101.001	19.325	996.449	765.167
102.016	19.247	995.725	764.199
103.030	19.218	994.201	762.832
104.045	19.241	993.653	762.449
105.060	19.382	992.702	762.273
106.074	19.217	991.744	760.743
107.089	18.929	990.504	758.452
108.103	18.619	989.632	756.351
109.118	18.570	988.461	755.174
110.133	18.576	987.556	754.441
111.147	18.416	986.387	752.779
112.162	18.395	985.774	752.152
113.176	18.489	984.879	751.816
114.191	18.726	983.854	752.007
115.206	18.654	983.857	751.626
116.220	18.623	982.578	750.447
117.235	18.646	981.598	749.731
118.249	18.550	980.724	748.582
119.264	18.618	979.804	748.108
120.279	18.473	979.339	747.053
121.293	18.396	978.315	745.874
122.308	18.458	977.448	745.417
123.322	18.156	976.907	743.622
124.337	18.199	975.888	742.968
125.352	18.108	974.888	741.745
126.366	18.210	973.765	741.268
127.381	18.182	972.440	740.073
128.395	18.163	971.699	739.363
129.410	18.220	970.876	738.914
130.424	18.185	970.024	738.053
131.439	18.435	969.195	738.431
132.454	18.481	968.532	738.060
133.468	18.710	967.631	738.292
134.483	18.636	966.949	737.392
135.497	18.646	966.473	737.002
136.512	18.743	965.235	736.410
137.527	18.606	964.972	735.560
138.541	18.687	964.338	735.356
139.556	18.778	963.503	735.046
140.570	18.668	963.028	734.145
141.585	18.770	962.239	733.914
142.600	19.041	962.298	735.053
143.614	19.119	961.108	734.414
144.629	19.250	960.463	734.415
145.643	19.315	959.994	734.266
146.658	19.215	958.973	732.995
147.673	19.085	957.704	731.408
148.687	18.886	956.646	729.691
149.702	18.832	955.858	728.795
150.716	18.642	955.009	727.277
151.731	18.817	953.901	727.111
152.746	18.618	953.308	725.752
153.760	18.771	952.676	725.854
154.775	18.766	951.794	725.096
155.789	19.061	950.654	725.409
156.804	19.038	950.402	725.056
157.819	18.960	949.581	724.035
158.833	19.102	948.699	723.899
159.848	19.268	948.505	724.381
160.862	19.308	948.065	724.149
161.877	19.332	946.987	723.363
162.892	19.006	945.639	720.905
163.906	18.699	945.232	719.245
164.921	18.760	944.167	718.624
165.935	18.708	943.024	717.476
166.950	18.773	941.950	716.867
167.964	18.887	941.051	716.594
168.979	18.800	940.430	715.694
169.994	18.748	939.469	714.683
171.008	18.748	938.417	713.818
172.023	18.808	937.866	713.586
173.037	18.972	936.986	713.536
174.052	19.342	936.229	714.429
175.067	19.303	935.359	713.541
176.081	18.887	934.757	711.296
177.096	18.696	933.599	709.561
178.110	18.730	932.813	709.044
179.125	18.930	931.758	709.005
180.140	18.769	930.989	707.692
181.154	18.767	930.936	707.579
182.169	18.908	930.662	707.892
183.183	19.063	929.959	707.930
184.198	19.236	929.005	707.852
185.213	19.189	928.459	707.180
186.227	19.150	927.982	706.596
187.242	19.299	927.174	706.528
188.256	19.357	926.727	706.361
189.271	19.402	926.062	705.980
190.286	19.585	925.342	706.113
191.300	19.193	924.532	703.832
192.315	18.640	923.621	700.820
193.329	18.415	923.007	699.373
194.344	18.632	921.691	699.197
195.359	18.750	921.427	699.416
196.373	18.865	920.992	699.493
197.388	18.992	920.792	699.795
198.402	19.215	920.044	700.070
199.417	19.413	919.820	700.641
200.432	19.608	919.407	701.058
201.446	19.620	919.515	701.129
202.461	19.734	919.102	701.213
203.475	19.864	918.080	700.896
204.490	19.774	917.333	699.902
205.504	19.671	916.105	698.486
206.519	19.477	915.122	696.892
207.534	19.260	914.790	695.702
208.548	19.165	913.994	694.652
209.563	19.231	913.267	694.304
210.577	19.327	912.591	694.115
211.592	19.304	911.924	693.453
212.607	19.485	911.901	694.102
213.621	19.702	911.537	694.637
214.636	19.627	910.210	693.263
215.650	19.749	909.257	692.964
216.665	19.653	908.879	692.231
217.680	19.742	908.528	692.258
218.694	19.766	908.258	692.088
219.709	19.737	908.286	691.929
220.723	19.734	907.380	691.168
221.738	19.814	906.438	690.710
222.753	19.719	905.496	689.550
223.767	19.690	904.838	688.872
224.782	19.717	904.340	688.539
225.796	19.899	903.718	688.729
226.811	20.067	902.807	688.644
227.826	19.886	902.405	687.555
228.840	19.608	901.517	685.715
229.855	19.667	900.549	685.152
230.869	19.631	900.008	684.536
231.884	19.531	899.696	683.842
232.899	19.619	898.269	683.048
233.913	19.416	897.887	681.892
234.928	19.361	897.171	681.070
235.942	19.301	896.305	680.119
236.957	19.302	895.372	679.355
237.972	19.311	895.172	679.177
238.986	19.241	894.552	678.370
240.001	19.247	893.861	677.808
241.015	19.257	893.228	677.309
242.030	19.401	892.307	677.116
243.045	19.537	892.094	677.429
244.059	19.719	891.530	677.654
245.074	19.593	891.086	676.764
246.088	19.527	890.839	676.255
247.103	19.867	889.830	676.762
248.117	19.832	889.791	676.534
249.132	20.138	888.984	677.058
250.147	20.178	888.682	676.923
251.161	20.612	888.386	678.329
252.176	20.560	887.882	677.684
253.190	20.561	887.238	677.137
254.205	20.684	886.562	677.038
255.220	20.777	885.967	676.885
256.234	20.703	885.417	676.119
257.249	20.676	884.658	675.372
258.263	20.574	884.276	674.625
259.278	20.633	883.588	674.269
260.293	20.583	883.067	673.620
261.307	20.726	882.538	673.709
262.322	20.866	881.656	673.519
263.336	20.797	881.568	673.124
264.351	20.981	880.555	673.004
265.366	20.698	880.235	671.606
266.380	20.748	879.426	671.121
267.395	20.837	878.833	670.954
268.409	20.641	878.271	669.710
269.424	20.640	876.827	668.544
270.439	20.527	876.740	667.985
271.453	20.663	875.645	667.615
272.468	20.441	874.646	665.944
273.482	20.424	874.582	665.770
274.497	20.459	873.730	665.195
275.512	20.424	873.192	664.595
276.526	20.409	872.703	664.106
277.541	20.460	871.907	663.638
278.555	20.405	871.716	663.222
279.570	20.598	870.904	663.281
280.585	20.714	870.770	663.565
281.599	20.949	870.068	663.863
282.614	20.739	869.595	662.646
283.628	20.680	868.388	661.444
284.643	20.548	867.864	660.484
285.657	20.553	867.463	660.140
286.672	20.522	866.710	659.391
287.687	20.484	866.556	659.072
288.701	20.787	865.690	659.500
289.716	20.710	865.110	658.711
290.730	20.732	864.798	658.498
291.745	20.711	864.434	658.083
292.760	20.802	863.274	657.485
293.774	20.848	862.723	657.180
294.789	21.023	862.505	657.618
295.803	21.025	862.094	657.251
296.818	20.648	861.479	655.303
297.833	20.706	860.257	654.537
298.847	20.648	859.815	653.925
299.862	20.748	859.327	653.872
300.876	20.790	858.473	653.320
301.891	20.856	857.721	652.938
302.906	20.941	857.592	653.099
303.920	21.103	856.974	653.177
304.935	21.235	856.285	653.089
305.949	21.421	855.641	653.236
306.964	21.255	855.309	652.306
307.979	21.039	854.374	650.726
308.993	21.174	853.822	650.754
310.008	21.233	853.351	650.557
311.022	21.145	853.116	649.991
312.037	21.284	852.259	649.797
313.052	21.077	851.692	648.540
314.066	20.784	850.555	646.529
315.081	20.642	850.227	645.693
316.095	20.546	849.939	645.064
317.110	20.888	848.637	645.282
318.125	20.706	848.327	644.318
319.139	20.546	848.020	643.436
320.154	20.540	847.860	643.235
321.168	20.666	846.922	642.933
322.183	20.641	846.835	642.716
323.197	20.816	846.023	642.688
324.212	20.762	845.417	641.974
325.227	20.937	844.760	642.062
326.241	20.827	844.659	641.524
327.256	20.846	843.998	641.032
328.270	20.817	843.105	640.193
329.285	20.805	842.518	639.647
330.300	20.880	841.728	639.266
331.314	20.704	841.367	638.290
332.329	20.804	840.965	638.294
333.343	20.954	840.564	638.484
334.358	21.224	839.941	638.939
335.373	21.089	839.137	637.778
336.387	21.148	838.660	637.576
337.402	21.374	838.235	638.021
338.416	21.233	837.755	637.086
339.431	21.394	837.528	637.444
340.446	21.594	836.990	637.707
341.460	21.829	836.476	638.114
342.475	21.697	836.383	637.504
343.489	21.624	835.939	636.845
344.504	21.783	834.794	636.495
345.519	21.951	834.441	636.777
346.533	21.895	834.141	636.290
347.548	21.759	833.829	635.500
348.562	21.718	832.737	634.466
349.577	21.439	831.959	632.808
350.592	21.281	831.108	631.532
351.606	21.330	830.415	631.125
352.621	21.243	830.005	630.444
353.635	21.118	830.043	629.969
354.650	21.253	829.744	630.170
355.665	21.353	828.981	629.896
356.679	21.436	828.713	629.938
357.694	21.664	827.733	629.954
358.708	21.619	827.269	629.387
359.723	21.587	827.058	629.055
360.738	21.375	826.683	627.951
361.752	21.467	825.864	627.602
362.767	21.412	825.857	627.346
363.781	21.781	825.185	628.103
364.796	21.808	824.946	627.963
365.810	21.940	824.711	628.199
366.825	22.155	824.503	628.753
367.840	22.259	823.880	628.597
368.854	22.104	823.467	627.671
369.869	22.031	822.804	626.851
370.883	21.836	822.302	625.716
371.898	21.913	821.529	625.347
372.913	22.017	820.918	625.198
373.927	22.095	821.118	625.573
374.942	21.999	820.123	624.418
375.956	21.948	819.458	623.673
376.971	22.054	818.828	623.514
377.986	22.198	818.390	623.639
379.000	22.338	817.540	623.430
380.015	22.360	817.225	623.213
381.029	22.190	817.070	622.438
382.044	22.235	816.336	621.985
383.059	22.177	815.560	621.134
384.073	22.368	814.982	621.313
385.088	22.240	814.534	620.464
386.102	22.071	813.622	619.118
387.117	21.963	812.900	618.132
388.132	21.827	812.765	617.496
389.146	21.842	812.159	617.035
390.161	21.825	811.858	616.691
391.175	22.013	811.866	617.304
392.190	22.357	811.245	617.985
393.205	22.055	811.236	616.862
394.219	21.881	810.543	615.672
395.234	21.810	809.878	614.865
396.248	21.846	808.969	614.246
397.263	21.708	808.669	613.481
398.278	21.671	807.761	612.608
399.292	21.689	807.259	612.236
400.307	21.508	807.189	611.496
401.321	21.785	806.330	611.758
402.336	21.558	806.530	611.061
403.350	21.690	806.387	611.360
404.365	21.935	805.656	611.605
405.380	22.156	805.058	611.866
406.394	22.230	805.033	612.053
407.409	22.505	804.294	612.392
408.423	22.525	804.040	612.214
409.438	22.683	803.501	612.299
410.453	22.338	803.702	611.198
411.467	22.548	802.930	611.287
412.482	22.716	802.061	611.152
413.496	22.812	801.371	610.904
414.511	22.832	801.484	611.006
415.526	22.795	800.997	610.453
416.540	22.638	800.694	609.625
417.555	22.492	800.253	608.731
418.569	22.527	799.881	608.516
419.584	22.619	799.413	608.424
420.599	22.647	799.024	608.171
421.613	164.337	1370.386	1795.682
422.628	142.766	1453.627	1795.777
