DTS Sentinel unit serial number:	SN413079Multiplexer serial number:	ORYXHardware model number:	OX4-SRSoftware version number:	ORYX F/W v4.00 Oryx Data Collector v3.7.2.0data status	okinstallation	princeton_trtdifferential loss correction	single-endedforward channel	channel 3reverse channel	N/Adate	2019/09/12time	22:56:35forward acquisition time	60.00reverse acquisition time	0.00gamma	496.2192k internal	0.2327k external	0.2327temperature offset calibration	1.0126default loss term (dB/km)	0.3790temperature slope calibration	1.0000multiplexer offset coefficient	1.0000multiplexer slope coefficient	1.0000fibre end	0.00T internal ref (°C)	29.37T ext. ref 1 (°C)	3.73T ext. ref 2 (°C)	23.95length (m)	temperature (°C)	Stokes	anti-Stokes-747.200	236.657	0.105	-0.175
-746.185	-200.000	-0.004	0.027
-745.171	-18.304	-0.154	-0.097
-744.156	800.000	0.023	0.063
-743.142	-86.111	-0.171	0.053
-742.127	-30.057	-0.129	0.074
-741.112	257.545	-0.109	-0.188
-740.098	800.000	0.046	-0.189
-739.083	62.877	-0.076	-0.077
-738.069	676.803	-0.021	0.054
-737.054	-181.688	-0.269	0.005
-736.039	24.378	-0.066	-0.055
-735.025	-200.000	0.000	0.143
-734.010	396.118	-0.059	0.123
-732.996	-30.607	0.071	-0.041
-731.981	54.404	-0.317	-0.308
-730.966	-69.874	-0.345	0.132
-729.952	-15.008	0.044	-0.029
-728.937	-43.381	-0.331	-0.169
-727.923	-7.517	0.196	-0.134
-726.908	-103.380	-0.278	0.066
-725.894	-30.617	-0.300	-0.171
-724.879	-131.751	-0.470	0.062
-723.864	-85.149	0.254	0.080
-722.850	-158.052	-0.300	-0.018
-721.835	13.950	-0.110	-0.086
-720.821	73.182	-0.190	0.200
-719.806	800.000	0.054	-0.187
-718.791	-60.171	-0.229	-0.098
-717.777	105.582	-0.129	0.154
-716.762	660.703	-0.106	0.275
-715.748	-23.023	-0.192	0.116
-714.733	18.156	-0.077	0.062
-713.718	522.458	0.169	-0.400
-712.704	-119.425	-0.279	-0.049
-711.689	-200.000	0.002	-0.203
-710.675	210.572	-0.174	-0.275
-709.660	-92.683	0.287	0.081
-708.645	15.810	-0.305	0.241
-707.631	-139.298	-0.322	0.035
-706.616	123.209	-0.107	-0.135
-705.602	-1.495	-0.071	-0.050
-704.587	94.852	-0.069	-0.079
-703.572	800.000	0.070	-0.250
-702.558	147.527	-0.102	0.139
-701.543	22.958	0.255	-0.210
-700.529	-34.519	0.287	0.158
-699.514	800.000	0.058	-0.178
-698.499	-200.000	0.003	0.180
-697.485	-179.324	0.347	-0.008
-696.470	53.199	-0.280	-0.270
-695.456	-41.905	-0.360	-0.186
-694.441	-200.000	-0.001	0.037
-693.426	-64.876	-0.333	-0.135
-692.412	389.170	-0.083	-0.173
-691.397	-81.642	0.389	-0.128
-690.383	-41.743	-0.288	-0.149
-689.368	251.261	-0.099	-0.169
-688.354	195.235	-0.108	-0.165
-687.339	-200.000	0.059	0.425
-686.324	-150.192	-0.157	0.012
-685.310	158.796	-0.118	-0.164
-684.295	25.760	0.085	-0.071
-683.281	-154.337	0.088	0.006
-682.266	180.301	-0.174	-0.257
-681.251	-200.000	-0.028	0.227
-680.237	-139.852	0.058	-0.006
-679.222	176.513	0.152	0.223
-678.208	-200.000	-0.050	-0.515
-677.193	-22.528	0.085	0.052
-676.178	800.000	0.051	-0.145
-675.164	-83.443	-0.286	-0.092
-674.149	800.000	0.120	0.364
-673.135	151.102	-0.209	-0.286
-672.120	15.371	0.225	-0.177
-671.105	-60.100	-0.382	-0.164
-670.091	147.030	0.044	0.059
-669.076	-200.000	0.015	-0.091
-668.062	18.563	-0.282	-0.227
-667.047	39.762	0.026	-0.023
-666.032	77.721	0.161	-0.172
-665.018	-111.611	-0.266	0.054
-664.003	-28.931	-0.332	-0.192
-662.989	800.000	-0.019	-0.062
-661.974	218.483	-0.127	0.204
-660.959	-113.282	0.056	0.011
-659.945	-164.377	-0.211	0.010
-658.930	81.037	-0.262	-0.284
-657.916	240.754	0.201	0.336
-656.901	-200.000	0.007	0.284
-655.886	68.984	0.089	-0.092
-654.872	39.864	0.143	-0.129
-653.857	-153.311	-0.361	0.025
-652.843	151.743	-0.218	-0.299
-651.828	17.052	-0.177	0.141
-650.814	-78.176	-0.297	-0.102
-649.799	-103.939	0.130	0.030
-648.784	-62.714	0.336	-0.140
-647.770	-149.235	0.262	-0.021
-646.755	-76.487	0.099	-0.035
-645.741	-200.000	0.001	0.395
-644.726	-136.199	0.138	-0.016
-643.711	800.000	0.044	-0.173
-642.697	118.859	-0.215	0.266
-641.682	-45.946	0.140	-0.069
-640.668	-128.840	-0.130	0.018
-639.653	-84.577	-0.201	-0.064
-638.638	-96.962	0.100	0.026
-637.624	175.608	0.141	0.205
-636.609	62.009	-0.197	-0.197
-635.595	-200.000	-0.008	-0.516
-634.580	-200.000	-0.054	0.240
-633.565	99.979	0.239	0.278
-632.551	-18.518	0.483	-0.302
-631.536	-73.074	0.098	0.036
-630.522	70.711	0.262	-0.272
-629.507	44.315	0.088	-0.081
-628.492	-116.277	-0.024	-0.004
-627.478	-122.041	0.005	0.001
-626.463	-45.178	-0.120	-0.060
-625.449	-65.266	-0.185	0.075
-624.434	729.982	0.054	-0.144
-623.419	341.507	0.240	-0.470
-622.405	-129.915	-0.155	0.021
-621.390	-200.000	0.006	-0.035
-620.376	-17.326	0.333	-0.211
-619.361	-22.105	-0.072	-0.044
-618.346	2.727	0.320	0.232
-617.332	3.325	-0.124	-0.091
-616.317	-22.618	-0.298	0.181
-615.303	38.098	0.171	0.153
-614.288	60.465	0.207	-0.206
-613.273	-97.238	-0.187	-0.049
-612.259	6.688	-0.133	0.099
-611.244	-200.000	-0.026	0.177
-610.230	-97.470	0.154	0.040
-609.215	498.779	-0.082	-0.190
-608.201	74.736	-0.080	0.085
-607.186	8.203	0.199	0.150
-606.171	-92.414	-0.117	0.033
-605.157	49.081	-0.249	-0.234
-604.142	800.000	-0.063	-0.211
-603.128	-38.880	-0.353	-0.187
-602.113	319.533	0.132	0.251
-601.098	770.775	-0.068	0.187
-600.084	240.277	0.203	-0.339
-599.069	226.449	-0.066	-0.108
-598.055	-28.013	0.055	-0.032
-597.040	267.568	-0.047	-0.082
-596.025	57.464	-0.135	-0.132
-595.011	64.367	-0.101	-0.102
-593.996	-200.000	-0.074	-0.336
-592.982	691.054	-0.055	-0.145
-591.967	108.027	0.144	-0.172
-590.952	69.209	-0.119	-0.122
-589.938	-38.467	0.127	0.067
-588.923	346.572	0.048	-0.094
-587.909	-10.486	-0.224	-0.149
-586.894	48.305	-0.113	-0.106
-585.879	-62.757	-0.286	0.119
-584.865	-200.000	-0.066	-0.552
-583.850	-149.025	-0.111	0.009
-582.836	-200.000	-0.019	0.136
-581.821	306.981	-0.200	0.374
-580.806	-150.483	-0.209	0.016
-579.792	-19.310	0.297	0.185
-578.777	-200.000	0.010	0.155
-577.763	7.521	0.187	0.140
-576.748	324.136	0.054	0.103
-575.733	452.885	0.260	0.577
-574.719	145.863	0.148	-0.199
-573.704	800.000	0.097	0.273
-572.690	-106.785	0.296	-0.066
-571.675	-149.498	-0.356	0.028
-570.661	800.000	-0.036	0.156
-569.646	7.385	-0.177	0.132
-568.631	-90.858	0.212	0.061
-567.617	238.450	-0.166	-0.276
-566.602	234.942	-0.124	0.205
-565.588	-200.000	0.007	0.147
-564.573	60.239	-0.078	0.077
-563.558	800.000	0.045	-0.142
-562.544	-99.224	-0.138	-0.035
-561.529	-200.000	-0.071	0.507
-560.515	-46.226	-0.020	0.010
-559.500	114.519	0.249	-0.304
-558.485	-138.463	-0.262	0.029
-557.471	356.681	-0.057	0.114
-556.456	194.548	0.157	-0.238
-555.442	389.359	0.039	-0.081
-554.427	-63.916	0.142	0.058
-553.412	46.807	-0.260	-0.242
-552.398	179.916	0.219	-0.321
-551.383	-137.438	0.114	0.013
-550.369	687.443	0.116	-0.302
-549.354	-200.000	0.020	-0.164
-548.339	-200.000	-0.020	0.163
-547.325	-47.483	-0.060	-0.029
-546.310	143.562	-0.236	-0.315
-545.296	-200.000	0.003	-0.328
-544.281	-56.228	0.199	-0.089
-543.266	24.385	0.058	-0.048
-542.252	-26.517	-0.307	0.180
-541.237	-58.246	0.154	-0.067
-540.223	292.998	-0.085	0.155
-539.208	-200.000	0.033	-0.338
-538.193	-102.354	0.118	-0.028
-537.179	1.294	-0.220	-0.158
-536.164	-200.000	0.005	-0.064
-535.150	204.806	-0.143	-0.222
-534.135	217.123	-0.028	-0.045
-533.121	97.499	-0.039	0.045
-532.106	-200.000	-0.085	-0.412
-531.091	507.334	0.207	0.480
-530.077	-131.932	-0.249	-0.032
-529.062	-200.000	-0.016	-0.149
-528.048	800.000	-0.052	-0.177
-527.033	-110.518	-0.125	0.026
-526.018	-200.000	-0.021	0.102
-525.004	387.685	0.114	0.236
-523.989	-15.450	-0.151	-0.097
-522.975	368.004	-0.067	0.136
-521.960	-32.260	-0.174	0.097
-520.945	531.077	-0.061	-0.145
-519.931	-200.000	-0.018	0.432
-518.916	273.611	-0.024	-0.043
-517.902	-40.396	0.047	-0.024
-516.887	-149.323	-0.164	0.013
-515.872	-161.903	0.373	0.019
-514.858	-132.021	0.368	0.048
-513.843	-200.000	0.046	0.218
-512.829	-200.000	0.037	0.258
-511.814	-101.276	-0.302	-0.074
-510.799	-200.000	0.019	0.253
-509.785	-200.000	-0.282	-0.001
-508.770	-156.803	0.205	0.013
-507.756	-200.000	-0.005	-0.031
-506.741	47.268	-0.191	-0.178
-505.726	-122.341	-0.474	0.077
-504.712	68.659	-0.205	0.210
-503.697	791.136	0.081	0.221
-502.683	139.102	0.175	0.230
-501.668	610.189	-0.081	0.201
-500.653	-25.095	-0.243	0.144
-499.639	-200.000	-0.001	0.110
-498.624	-111.637	0.164	0.033
-497.610	229.772	0.142	-0.232
-496.595	24.373	0.171	-0.141
-495.581	-34.593	0.154	-0.084
-494.566	-8.544	-0.101	0.067
-493.551	307.756	0.165	-0.308
-492.537	-111.860	0.322	0.065
-491.522	368.835	-0.128	0.259
-490.508	-104.177	0.125	0.029
-489.493	-200.000	0.029	0.158
-488.478	234.052	-0.090	0.148
-487.464	-200.000	-0.039	0.189
-486.449	-86.753	-0.290	-0.089
-485.435	-200.000	0.034	0.316
-484.420	72.223	-0.227	0.236
-483.405	25.485	0.385	0.320
-482.391	539.463	0.068	-0.162
-481.376	800.000	0.041	-0.118
-480.362	-25.079	0.174	0.103
-479.347	-140.533	-0.214	0.022
-478.332	-132.454	0.313	-0.040
-477.318	364.200	-0.021	-0.042
-476.303	-147.887	-0.337	0.028
-475.289	800.000	-0.062	-0.239
-474.274	-4.537	-0.199	0.137
-473.259	29.101	-0.105	0.089
-472.245	-144.974	-0.054	-0.005
-471.230	-23.782	0.098	-0.058
-470.216	-118.766	-0.310	0.054
-469.201	-88.873	-0.149	0.044
-468.186	-200.000	-0.014	-0.242
-467.172	-200.000	-0.014	0.186
-466.157	800.000	0.028	-0.100
-465.143	288.668	0.192	-0.348
-464.128	-200.000	0.036	-0.279
-463.113	-200.000	0.027	0.150
-462.099	-200.000	-0.042	-0.263
-461.084	-81.846	-0.186	-0.061
-460.070	-146.171	0.394	-0.035
-459.055	-4.115	-0.010	0.007
-458.040	-5.204	0.175	0.120
-457.026	800.000	-0.071	-0.250
-456.011	-13.556	0.391	-0.253
-454.997	-63.309	-0.143	0.059
-453.982	-53.240	-0.146	0.067
-452.968	-50.294	0.121	-0.057
-451.953	389.288	0.088	0.182
-450.938	800.000	0.125	-0.406
-449.924	112.707	-0.103	-0.124
-448.909	183.115	-0.054	-0.079
-447.895	-200.000	-0.015	0.103
-446.880	369.589	0.027	0.054
-445.865	-200.000	0.002	-0.087
-444.851	-83.040	-0.135	0.043
-443.836	215.946	0.141	-0.224
-442.822	-154.153	0.082	0.006
-441.807	-34.001	-0.051	-0.028
-440.792	-200.000	0.051	-0.294
-439.778	9.316	-0.131	0.099
-438.763	-164.162	0.296	-0.014
-437.749	800.000	0.073	0.232
-436.734	-23.245	-0.113	-0.068
-435.719	675.392	0.071	-0.184
-434.705	84.372	0.244	0.266
-433.690	-20.124	-0.044	-0.027
-432.676	241.727	-0.081	-0.136
-431.661	317.804	-0.180	0.338
-430.646	-114.598	-0.137	-0.026
-429.632	-200.000	-0.033	-0.164
-428.617	-25.089	-0.119	-0.070
-427.603	-200.000	-0.020	0.107
-426.588	-200.000	0.002	0.061
-425.573	-199.770	0.146	-0.001
-424.559	26.972	-0.075	-0.063
-423.544	415.717	0.164	0.349
-422.530	800.000	-0.044	0.164
-421.515	-10.773	0.141	0.093
-420.500	800.000	-0.075	-0.237
-419.486	-133.092	-0.106	-0.013
-418.471	435.265	0.099	0.215
-417.457	79.490	0.051	0.054
-416.442	62.067	-0.236	0.234
-415.428	-76.339	-0.415	-0.145
-414.413	19.303	0.071	-0.057
-413.398	-75.186	0.286	-0.102
-412.384	64.256	-0.153	0.153
-411.369	318.313	-0.107	-0.201
-410.355	-32.282	-0.042	-0.023
-409.340	99.340	-0.055	-0.063
-408.325	-200.000	-0.019	-0.327
-407.311	408.619	-0.022	-0.047
-406.296	56.134	0.162	0.156
-405.282	20.557	0.131	-0.106
-404.267	572.726	-0.150	-0.364
-403.252	635.049	-0.133	-0.336
-402.238	20.635	-0.257	-0.207
-401.223	369.485	0.037	0.075
-400.209	-200.000	-0.028	-0.129
-399.194	-200.000	-0.013	0.198
-398.179	-200.000	0.046	0.379
-397.165	-200.000	0.016	0.084
-396.150	-112.656	0.106	0.021
-395.136	-200.000	0.032	-0.188
-394.121	-200.000	-0.049	-0.327
-393.106	-72.934	-0.115	-0.042
-392.092	-187.627	-0.460	-0.006
-391.077	127.066	-0.057	0.072
-390.063	289.840	0.036	-0.065
-389.048	3.268	-0.191	0.138
-388.033	15.621	0.201	-0.157
-387.019	-200.000	0.014	-0.090
-386.004	-200.000	-0.033	-0.249
-384.990	94.666	-0.104	0.117
-383.975	405.766	0.048	0.100
-382.960	-200.000	-0.009	0.096
-381.946	20.036	-0.044	0.036
-380.931	-100.677	-0.254	-0.062
-379.917	44.068	0.203	-0.185
-378.902	-78.304	-0.145	-0.050
-377.888	263.452	0.051	-0.088
-376.873	69.317	-0.132	-0.135
-375.858	-200.000	0.000	-0.125
-374.844	-44.172	0.234	0.117
-373.829	769.164	0.015	0.040
-372.815	505.783	0.057	0.130
-371.800	-107.844	0.092	-0.020
-370.785	-72.016	-0.055	0.020
-369.771	-145.323	-0.215	0.019
-368.756	-6.953	-0.077	-0.052
-367.742	-200.000	0.047	0.324
-366.727	-200.000	0.002	-0.038
-365.712	-33.736	-0.214	-0.117
-364.698	-200.000	0.002	0.071
-363.683	800.000	-0.101	-0.329
-362.669	-125.805	0.508	0.076
-361.654	23.518	-0.083	0.068
-360.639	-37.789	0.144	-0.076
-359.625	-92.076	0.297	0.083
-358.610	-147.960	-0.065	0.005
-357.596	-65.690	0.113	-0.045
-356.581	-165.473	-0.236	0.010
-355.566	-99.241	-0.225	-0.057
-354.552	-68.177	0.365	0.141
-353.537	103.107	0.110	-0.128
-352.523	553.774	0.072	0.173
-351.508	124.888	-0.231	0.288
-350.493	8.232	-0.132	-0.098
-349.479	-44.387	0.023	-0.012
-348.464	-71.174	-0.323	-0.120
-347.450	178.962	0.064	0.093
-346.435	-81.306	-0.017	0.005
-345.420	-108.079	0.134	0.029
-344.406	-200.000	-0.004	-0.072
-343.391	-200.000	0.041	0.193
-342.377	32.490	0.206	0.177
-341.362	-58.493	0.274	-0.118
-340.348	-94.005	-0.278	0.076
-339.333	-163.253	-0.433	-0.021
-338.318	-54.238	0.100	-0.045
-337.304	-200.000	0.039	-0.207
-336.289	-93.737	-0.221	0.060
-335.275	-200.000	0.043	0.257
-334.260	-200.000	0.009	0.120
-333.245	127.254	0.134	0.169
-332.231	-59.274	0.164	-0.070
-331.216	-149.895	0.289	0.022
-330.202	-54.071	-0.319	0.144
-329.187	705.574	0.084	-0.220
-328.172	-35.274	0.188	0.101
-327.158	42.996	-0.065	-0.058
-326.143	-166.380	0.214	-0.009
-325.129	-11.497	0.104	0.068
-324.114	-121.201	0.300	-0.050
-323.099	-200.000	-0.029	0.163
-322.085	-46.380	0.195	-0.095
-321.070	115.536	-0.179	0.216
-320.056	-68.644	0.122	0.047
-319.041	593.515	0.040	-0.099
-318.026	248.458	-0.159	-0.267
-317.012	-28.172	0.346	0.198
-315.997	61.317	-0.201	0.198
-314.983	107.374	0.127	0.149
-313.968	15.007	0.187	-0.145
-312.953	133.241	-0.059	0.075
-311.939	-76.547	-0.057	0.020
-310.924	304.318	-0.128	0.235
-309.910	-127.241	-0.634	-0.092
-308.895	-200.000	-0.224	0.000
-307.880	2.775	-0.160	0.115
-306.866	-169.080	-0.104	-0.004
-305.851	71.063	0.193	-0.198
-304.837	325.668	0.219	0.415
-303.822	471.971	-0.116	0.258
-302.807	31.357	-0.238	0.203
-301.793	23.764	0.014	-0.011
-300.778	-58.232	-0.069	0.030
-299.764	-200.000	-0.000	0.165
-298.749	9.192	-0.198	0.148
-297.735	800.000	-0.040	-0.128
-296.720	-81.164	0.164	0.054
-295.705	-100.118	-0.178	-0.044
-294.691	133.081	-0.058	0.074
-293.676	-95.622	-0.105	0.028
-292.662	84.178	0.108	0.117
-291.647	-139.653	-0.279	-0.029
-290.632	-44.919	0.155	-0.077
-289.618	10.203	0.175	-0.132
-288.603	16.207	-0.091	-0.071
-287.589	49.607	0.342	0.319
-286.574	-200.000	0.018	0.212
-285.559	-200.000	0.021	-0.130
-284.545	297.907	0.077	0.140
-283.530	-118.212	-0.137	-0.024
-282.516	-165.557	-0.130	-0.006
-281.501	141.612	-0.117	-0.154
-280.486	-200.000	-0.022	-0.240
-279.472	-200.000	-0.019	-0.268
-278.457	-200.000	-0.002	0.095
-277.443	-176.573	-0.192	-0.005
-276.428	-200.000	0.017	-0.131
-275.413	-101.300	0.167	0.040
-274.399	313.610	-0.241	0.448
-273.384	-84.552	0.348	0.109
-272.370	800.000	-0.082	-0.233
-271.355	23.112	-0.279	-0.227
-270.340	136.241	0.233	0.301
-269.326	43.527	0.132	0.120
-268.311	-200.000	-0.010	0.113
-267.297	800.000	0.078	0.330
-266.282	-87.262	0.097	0.029
-265.267	72.108	0.036	0.037
-264.253	-100.752	-0.264	0.064
-263.238	800.000	-0.044	0.132
-262.224	393.799	0.073	0.149
-261.209	-18.426	-0.063	0.039
-260.195	-22.719	-0.346	0.207
-259.180	252.038	-0.037	0.062
-258.165	800.000	0.066	-0.204
-257.151	67.528	0.033	0.033
-256.136	-63.122	0.166	0.068
-255.122	-200.000	0.054	-0.341
-254.107	-150.853	0.126	-0.009
-253.092	800.000	0.096	-0.295
-252.078	-153.567	-0.057	0.004
-251.063	215.086	-0.041	-0.064
-250.049	-77.444	0.150	-0.051
-249.034	-149.701	0.296	-0.023
-248.019	-182.710	0.084	0.002
-247.005	-200.000	0.011	-0.064
-245.990	146.073	-0.151	0.200
-244.976	-150.742	-0.239	0.018
-243.961	8.229	0.086	-0.064
-242.946	25.298	0.022	-0.018
-241.932	73.282	0.318	0.329
-240.917	32.974	0.180	-0.155
-239.903	-52.578	0.077	0.035
-238.888	-28.455	-0.163	-0.093
-237.873	-200.000	0.024	-0.369
-236.859	119.295	-0.099	-0.121
-235.844	68.984	-0.241	0.245
-234.830	800.000	0.042	-0.161
-233.815	48.850	-0.060	0.055
-232.800	29.136	-0.073	-0.061
-231.786	-127.096	0.288	0.042
-230.771	-103.567	0.107	0.025
-229.757	-37.137	0.137	0.072
-228.742	14.777	-0.275	-0.213
-227.727	-200.000	-0.008	-0.057
-226.713	30.189	-0.066	-0.056
-225.698	-200.000	0.057	-0.362
-224.684	168.815	-0.375	0.528
-223.669	-178.163	-0.349	-0.008
-222.655	265.823	-0.015	0.026
-221.640	49.724	-0.076	-0.071
-220.625	378.487	-0.005	0.011
-219.611	80.153	0.103	-0.110
-218.596	402.279	-0.163	0.338
-217.582	11.045	0.047	0.036
-216.567	-129.233	0.373	-0.051
-215.552	-79.225	0.134	0.045
-214.538	-200.000	0.048	-0.429
-213.523	183.292	0.119	0.173
-212.509	800.000	0.113	0.482
-211.494	170.296	0.168	-0.238
-210.479	-135.889	0.036	0.004
-209.465	-99.908	0.059	-0.015
-208.450	-200.000	-0.005	0.033
-207.436	-200.000	0.022	-0.380
-206.421	-12.265	0.240	-0.155
-205.406	126.767	-0.136	0.170
-204.392	42.338	0.066	-0.059
-203.377	-200.000	-0.011	-0.220
-202.363	-200.000	0.047	-0.272
-201.348	-104.285	0.247	-0.057
-200.333	-60.333	0.140	-0.059
-199.319	422.298	-0.041	0.086
-198.304	-140.970	-0.239	0.024
-197.290	800.000	-0.075	0.242
-196.275	6.199	0.155	0.113
-195.260	-104.726	0.122	-0.028
-194.246	-171.197	-0.219	0.007
-193.231	800.000	0.052	-0.197
-192.217	-200.000	-0.031	0.252
-191.202	-200.000	-0.006	-0.379
-190.187	118.933	0.093	-0.113
-189.173	-144.431	0.120	-0.011
-188.158	-200.000	-0.077	0.422
-187.144	800.000	0.020	0.082
-186.129	-36.238	-0.208	-0.111
-185.114	-84.630	0.213	0.066
-184.100	64.941	0.133	0.133
-183.085	12.516	0.135	-0.103
-182.071	-112.918	0.231	-0.045
-181.056	-145.117	0.369	-0.033
-180.042	800.000	-0.111	0.380
-179.027	800.000	-0.092	0.269
-178.012	399.467	0.071	0.146
-176.998	-22.750	-0.047	0.028
-175.983	-52.936	0.316	-0.143
-174.969	-118.461	0.295	0.052
-173.954	-67.021	-0.254	-0.099
-172.939	-134.198	0.078	0.010
-171.925	-200.000	0.047	-0.238
-170.910	4.460	-0.035	0.025
-169.896	800.000	-0.057	0.243
-168.881	-74.902	-0.362	-0.128
-167.866	-194.951	-0.156	-0.001
-166.852	285.760	0.066	0.117
-165.837	-86.504	-0.135	-0.041
-164.823	-200.000	-0.028	0.154
-163.808	701.219	0.045	-0.115
-162.793	-143.239	-0.158	-0.015
-161.779	-118.138	0.201	-0.035
-160.764	-74.235	-0.265	-0.095
-159.750	-12.704	-0.279	-0.179
-158.735	10.851	0.139	0.105
-157.720	748.217	-0.048	0.129
-156.706	-140.345	0.274	0.028
-155.691	721.562	0.089	-0.235
-154.677	168.649	-0.119	0.167
-153.662	-107.735	0.172	0.037
-152.647	142.411	0.172	0.224
-151.633	-200.000	-0.239	0.000
-150.618	-16.531	0.373	-0.233
-149.604	-132.459	-0.164	0.021
-148.589	-200.000	0.014	-0.260
-147.574	-130.049	-0.239	-0.032
-146.560	-200.000	0.009	0.084
-145.545	-30.168	-0.071	-0.039
-144.531	155.458	0.199	-0.270
-143.516	-65.931	0.068	-0.027
-142.502	-118.179	-0.060	-0.011
-141.487	-104.075	0.139	-0.032
-140.472	-136.067	-0.159	-0.018
-139.458	-107.938	0.145	0.031
-138.443	-71.025	-0.623	0.231
-137.429	-123.405	-0.053	0.008
-136.414	-130.841	-0.371	0.049
-135.399	-118.133	0.163	-0.029
-134.385	800.000	-0.045	-0.144
-133.370	800.000	-0.082	-0.230
-132.356	-200.000	0.012	0.417
-131.341	800.000	-0.032	-0.135
-130.326	-37.898	0.154	-0.081
-129.312	-69.820	0.181	-0.068
-128.297	-131.789	-0.303	-0.039
-127.283	588.849	-0.137	0.332
-126.268	-62.856	-0.174	0.071
-125.253	-9.624	-0.102	-0.067
-124.239	660.272	-0.110	-0.279
-123.224	-78.563	0.112	0.038
-122.210	-82.194	0.155	0.050
-121.195	323.230	-0.196	-0.368
-120.180	46.346	0.257	-0.235
-119.166	169.039	0.017	-0.024
-118.151	-21.036	0.076	-0.046
-117.137	-158.417	-0.305	0.017
-116.122	137.289	-0.225	-0.289
-115.107	-53.893	0.271	-0.121
-114.093	-200.000	-0.001	-0.066
-113.078	-147.611	0.215	-0.018
-112.064	-133.651	-0.446	0.055
-111.049	-100.150	-0.091	0.022
-110.034	-47.908	0.071	-0.034
-109.020	55.201	-0.049	-0.046
-108.005	-200.000	-0.028	0.129
-106.991	227.639	-0.140	-0.224
-105.976	-80.985	-0.117	-0.038
-104.962	78.022	0.377	-0.395
-103.947	-97.029	0.124	-0.032
-102.932	-200.000	0.043	0.395
-101.918	37.255	-0.143	0.124
-100.903	-200.000	0.004	-0.142
-99.889	800.000	-0.024	0.082
-98.874	37.499	-0.233	0.203
-97.859	800.000	0.046	-0.188
-96.845	-50.852	-0.262	0.121
-95.830	-39.722	-0.172	-0.088
-94.816	800.000	0.031	-0.110
-93.801	-62.436	0.100	-0.041
-92.786	297.579	-0.167	0.302
-91.772	-145.830	-0.291	0.025
-90.757	-200.000	0.021	-0.215
-89.743	-152.590	0.077	0.005
-88.728	247.814	-0.079	0.132
-87.713	-123.104	-0.405	-0.064
-86.699	-111.568	0.697	-0.139
-85.684	800.000	-0.106	0.345
-84.670	347.437	-0.037	-0.072
-83.655	626.672	-0.035	-0.087
-82.640	-200.000	-0.033	-0.274
-81.626	-24.371	0.324	0.190
-80.611	-200.000	0.066	0.363
-79.597	-200.000	0.011	-0.191
-78.582	9.968	-0.159	0.119
-77.567	-72.801	0.337	-0.122
-76.553	48.836	-0.136	-0.126
-75.538	158.506	-0.143	0.196
-74.524	-77.026	-0.344	0.118
-73.509	256.940	0.135	0.228
-72.494	-9.916	0.199	0.130
-71.480	-59.378	-0.254	0.107
-70.465	-200.000	-0.052	0.563
-69.451	91.203	0.194	-0.214
-68.436	-6.723	-0.180	-0.120
-67.422	800.000	0.076	0.220
-66.407	-113.843	-0.128	-0.024
-65.392	121.181	-0.041	-0.050
-64.378	169.577	0.147	0.207
-63.363	9.893	-0.126	-0.094
-62.349	800.000	0.028	-0.085
-61.334	165.196	-0.731	-1.014
-60.319	298.990	0.410	0.740
-59.305	556.165	-0.356	-0.841
-58.290	155.271	0.763	1.031
-57.276	800.000	0.392	1.429
-56.261	-200.000	109.226	603.393
-55.246	505.926	1498.691	3407.798
-54.232	178.529	2681.355	3842.337
-53.217	108.643	2171.522	2544.793
-52.203	39.359	1703.839	1496.780
-51.188	32.426	1519.911	1287.911
-50.173	30.096	1494.052	1250.246
-49.159	50.253	1551.100	1437.300
-48.144	50.662	1567.262	1455.034
-47.130	32.613	1522.798	1291.434
-46.115	29.696	1507.694	1258.741
-45.100	29.503	1504.359	1254.598
-44.086	29.416	1502.550	1252.448
-43.071	29.472	1499.833	1250.510
-42.057	29.413	1498.571	1249.011
-41.042	29.359	1497.325	1247.555
-40.027	29.378	1495.605	1246.203
-39.013	29.475	1493.561	1245.107
-37.998	29.286	1493.145	1243.435
-36.984	29.239	1491.692	1241.859
-35.969	29.330	1490.310	1241.268
-34.954	29.312	1489.283	1240.242
-33.940	29.338	1487.923	1239.233
-32.925	29.433	1486.423	1238.576
-31.911	29.330	1485.640	1237.185
-30.896	29.395	1483.685	1235.945
-29.881	29.425	1482.709	1235.281
-28.867	29.535	1481.200	1234.712
-27.852	29.461	1480.219	1233.347
-26.838	29.508	1478.287	1232.006
-25.823	29.399	1477.451	1230.530
-24.809	29.474	1475.544	1229.392
-23.794	29.396	1474.409	1227.881
-22.779	29.407	1473.017	1226.743
-21.765	29.438	1472.180	1226.203
-20.750	29.436	1471.174	1225.304
-19.736	29.380	1469.882	1223.809
-18.721	29.372	1468.520	1222.573
-17.706	29.317	1467.705	1221.480
-16.692	29.381	1466.336	1220.716
-15.677	29.320	1465.312	1219.412
-14.663	29.359	1464.333	1218.810
-13.648	29.417	1463.107	1218.123
-12.633	29.401	1462.331	1217.320
-11.619	29.370	1461.507	1216.385
-10.604	29.357	1461.080	1215.893
-9.590	29.328	1459.833	1214.616
-8.575	29.292	1459.573	1214.119
-7.560	29.437	1458.263	1213.931
-6.546	29.333	1457.299	1212.397
-5.531	29.313	1456.779	1211.787
-4.517	29.296	1455.731	1210.751
-3.502	29.284	1455.023	1210.036
-2.487	29.339	1453.605	1209.169
-1.473	29.228	1452.609	1207.565
-0.458	29.280	1451.276	1206.753
0.556	30.800	1441.387	1195.186
1.571	27.751	1415.849	1154.647
2.586	23.975	1357.370	1083.902
3.600	22.133	1276.337	1008.544
4.615	20.967	1230.446	965.741
5.629	18.243	1174.278	907.153
6.644	10.716	1091.035	805.564
7.659	4.734	1052.221	748.149
8.673	3.988	1046.499	740.442
9.688	3.817	1043.090	737.150
10.702	3.573	1042.044	735.185
11.717	3.564	1039.725	733.441
12.731	6.474	1041.923	748.769
13.746	14.279	1053.189	794.160
14.761	21.102	1062.372	833.732
15.775	23.325	1064.276	845.780
16.790	23.032	1063.105	843.376
17.804	22.322	1061.412	838.578
18.819	21.541	1059.997	833.666
19.834	21.406	1058.983	832.149
20.848	21.299	1058.106	830.878
21.863	21.520	1057.503	831.382
22.877	21.319	1057.152	830.078
23.892	21.107	1056.489	828.476
24.907	20.923	1055.797	826.988
25.921	20.916	1055.024	826.275
26.936	20.966	1053.630	825.351
27.950	20.842	1052.968	824.170
28.965	20.862	1051.437	822.995
29.980	20.894	1050.099	822.026
30.994	21.142	1049.327	822.516
32.009	21.234	1048.555	822.270
33.023	21.281	1048.498	822.376
34.038	21.218	1047.728	821.401
35.053	21.191	1046.467	820.215
36.067	21.019	1045.221	818.360
37.082	20.927	1044.527	817.314
38.096	21.025	1043.518	816.906
39.111	21.052	1043.242	816.745
40.126	21.198	1042.828	817.035
41.140	21.071	1041.139	815.045
42.155	20.674	1039.898	812.149
43.169	20.399	1038.766	809.909
44.184	20.290	1037.711	808.506
45.199	20.359	1036.335	807.683
46.213	20.278	1035.657	806.711
47.228	20.439	1034.877	806.777
48.242	20.995	1034.179	808.742
49.257	21.072	1033.754	808.694
50.271	21.182	1032.855	808.430
51.286	21.100	1032.409	807.628
52.301	21.186	1031.708	807.409
53.315	21.103	1031.193	806.550
54.330	21.080	1029.902	805.363
55.344	20.807	1028.795	803.168
56.359	20.747	1027.859	802.089
57.374	20.689	1027.089	801.150
58.388	20.644	1026.155	800.140
59.403	20.518	1025.630	799.084
60.417	20.420	1024.295	797.525
61.432	20.469	1023.641	797.169
62.447	20.381	1023.227	796.371
63.461	20.366	1022.588	795.734
64.476	20.176	1021.749	794.142
65.490	20.167	1020.437	793.010
66.505	20.088	1019.612	791.937
67.520	20.134	1019.242	791.790
68.534	20.212	1018.312	791.354
69.549	20.247	1017.645	790.923
70.563	19.963	1017.028	789.082
71.578	20.118	1015.926	788.864
72.593	19.809	1014.767	786.489
73.607	19.670	1013.198	784.569
74.622	19.577	1012.827	783.791
75.636	19.669	1012.209	783.661
76.651	19.850	1011.380	783.772
77.666	19.954	1010.257	783.301
78.680	19.979	1009.783	782.978
79.695	20.001	1009.581	782.851
80.709	19.956	1008.937	782.078
81.724	20.199	1008.027	782.401
82.739	20.286	1006.886	781.838
83.753	20.305	1006.618	781.647
84.768	20.722	1006.298	783.206
85.782	21.088	1006.311	784.794
86.797	21.433	1005.828	785.899
87.812	21.589	1004.744	785.683
88.826	21.202	1003.880	783.200
89.841	21.242	1002.855	782.513
90.855	21.306	1002.101	782.141
91.870	21.227	1002.558	782.075
92.884	21.472	1000.943	781.842
93.899	21.413	1000.274	780.983
94.914	21.256	999.587	779.680
95.928	21.271	998.503	778.832
96.943	21.380	997.841	778.730
97.957	21.340	996.382	777.346
98.972	21.231	995.193	775.866
99.987	21.151	994.832	775.158
101.001	21.159	994.429	774.815
102.016	21.227	993.398	774.241
103.030	20.993	992.846	772.706
104.045	21.184	991.777	772.653
105.060	21.384	990.580	772.537
106.074	21.159	989.925	770.961
107.089	20.838	988.712	768.533
108.103	20.593	987.422	766.383
109.118	20.421	986.501	764.842
110.133	20.293	985.410	763.366
111.147	20.154	984.519	761.997
112.162	19.911	983.850	760.344
113.176	20.013	983.109	760.151
114.191	20.259	982.359	760.586
115.206	20.417	981.485	760.534
116.220	20.283	980.894	759.418
117.235	20.271	979.718	758.392
118.249	20.170	978.981	757.311
119.264	20.186	977.951	756.518
120.279	20.071	976.927	755.159
121.293	19.973	976.278	754.164
122.308	19.858	975.768	753.203
123.322	19.760	974.658	751.853
124.337	19.711	973.098	750.370
125.352	19.625	972.169	749.211
126.366	19.757	971.062	748.865
127.381	19.612	970.615	747.828
128.395	19.764	969.625	747.657
129.410	19.844	969.022	747.469
130.424	19.853	968.359	746.931
131.439	19.894	967.456	746.343
132.454	20.157	966.871	746.963
133.468	20.475	965.923	747.531
134.483	20.328	965.228	746.296
135.497	20.413	964.514	746.041
136.512	20.542	963.837	746.005
137.527	20.453	963.293	745.137
138.541	20.432	962.802	744.601
139.556	20.306	961.842	743.255
140.570	20.281	961.693	742.964
141.585	20.712	960.892	744.124
142.600	20.829	960.617	744.345
143.614	21.067	959.404	744.357
144.629	21.169	959.118	744.505
145.643	21.480	958.079	744.954
146.658	21.246	957.329	743.311
147.673	21.082	955.952	741.476
148.687	20.832	954.819	739.471
149.702	20.713	953.268	737.700
150.716	20.343	952.937	735.813
151.731	20.380	951.964	735.153
152.746	20.484	951.054	734.825
153.760	20.489	950.383	734.260
154.775	20.482	949.832	733.744
155.789	20.752	948.789	734.012
156.804	20.834	948.126	733.779
157.819	20.705	947.806	732.921
158.833	20.858	947.275	733.091
159.848	21.037	946.549	733.218
160.862	21.062	946.438	733.171
161.877	21.269	945.094	732.933
162.892	20.753	943.682	729.612
163.906	20.363	942.679	727.139
164.921	20.442	941.638	726.599
165.935	20.371	940.533	725.387
166.950	20.417	939.723	724.891
167.964	20.600	938.883	724.942
168.979	20.606	937.909	724.150
169.994	20.554	936.811	723.022
171.008	20.355	936.025	721.525
172.023	20.591	935.248	721.842
173.037	20.781	934.839	722.252
174.052	21.136	934.282	723.226
175.067	20.995	933.552	722.016
176.081	20.686	932.358	719.749
177.096	20.251	931.283	717.060
178.110	20.136	930.473	715.895
179.125	20.357	929.520	716.010
180.140	20.333	928.768	715.268
181.154	20.384	928.226	714.998
182.169	20.659	928.166	716.020
183.183	20.855	927.835	716.509
184.198	21.094	926.770	716.605
185.213	20.993	926.019	715.548
186.227	20.934	925.941	715.182
187.242	20.806	925.698	714.407
188.256	21.130	924.922	715.070
189.271	21.146	924.505	714.750
190.286	21.280	923.727	714.636
191.300	20.982	922.764	712.606
192.315	20.382	921.182	708.873
193.329	20.130	920.118	706.964
194.344	20.148	919.890	706.800
195.359	20.315	919.753	707.313
196.373	20.526	919.175	707.667
197.388	20.586	918.589	707.397
198.402	20.945	918.159	708.462
199.417	21.023	918.041	708.624
200.432	21.217	918.217	709.487
201.446	21.532	917.884	710.447
202.461	21.606	917.364	710.281
203.475	21.723	916.791	710.250
204.490	21.563	916.172	709.060
205.504	21.229	914.625	706.445
206.519	21.114	913.788	705.272
207.534	20.887	913.393	703.988
208.548	20.898	912.127	702.995
209.563	21.028	911.522	702.989
210.577	20.998	911.027	702.426
211.592	20.934	910.445	701.658
212.607	21.317	910.220	702.964
213.621	21.509	910.052	703.543
214.636	21.339	909.218	702.155
215.650	21.289	908.229	701.125
216.665	21.189	907.928	700.430
217.680	21.316	907.364	700.441
218.694	21.522	907.133	701.027
219.709	21.563	906.638	700.749
220.723	21.388	905.963	699.463
221.738	21.198	905.594	698.355
222.753	21.288	904.967	698.174
223.767	21.271	903.485	696.900
224.782	21.348	902.770	696.594
225.796	21.588	901.998	696.892
226.811	21.626	901.664	696.721
227.826	21.457	901.207	695.637
228.840	21.291	900.187	694.127
229.855	21.165	899.168	692.781
230.869	21.108	898.806	692.215
231.884	21.013	898.268	691.361
232.899	21.053	897.322	690.732
233.913	20.892	896.835	689.655
234.928	20.946	895.748	688.973
235.942	20.817	894.918	687.766
236.957	20.690	894.157	686.620
237.972	20.645	893.587	685.944
238.986	20.710	892.867	685.584
240.001	20.607	892.491	684.830
241.015	20.663	891.910	684.544
242.030	20.755	891.219	684.314
243.045	21.023	890.437	684.707
244.059	20.978	890.566	684.567
245.074	21.012	889.898	684.129
246.088	21.150	889.240	684.101
247.103	21.277	888.814	684.212
248.117	21.527	888.431	684.835
249.132	21.699	888.110	685.197
250.147	22.009	888.312	686.506
251.161	22.246	887.909	687.060
252.176	22.465	887.177	687.288
253.190	22.597	886.338	687.093
254.205	22.543	886.131	686.660
255.220	22.647	886.001	686.905
256.234	22.397	885.090	685.162
257.249	22.366	884.294	684.366
258.263	22.438	883.131	683.686
259.278	22.421	882.478	683.054
260.293	22.332	882.367	682.561
261.307	22.444	881.989	682.645
262.322	22.364	881.501	681.894
263.336	22.365	881.204	681.608
264.351	22.523	880.431	681.564
265.366	22.382	879.531	680.261
266.380	22.403	878.861	679.761
267.395	22.417	878.515	679.489
268.409	22.308	877.952	678.571
269.424	22.304	876.909	677.690
270.439	22.270	876.338	677.058
271.453	22.242	875.276	676.072
272.468	22.066	874.563	674.786
273.482	22.167	873.386	674.204
274.497	22.079	872.964	673.481
275.512	21.895	873.023	672.761
276.526	22.000	871.567	671.980
277.541	22.070	870.961	671.725
278.555	22.106	870.595	671.518
279.570	22.378	870.621	672.521
280.585	22.508	870.265	672.680
281.599	22.552	870.163	672.712
282.614	22.398	868.807	671.017
283.628	22.116	868.068	669.311
284.643	22.085	867.503	668.698
285.657	21.942	867.443	668.049
286.672	21.908	866.467	667.108
287.687	21.952	866.270	667.065
288.701	22.194	865.686	667.475
289.716	22.248	864.882	667.000
290.730	22.172	864.164	666.102
291.745	22.184	863.633	665.676
292.760	22.144	863.065	665.028
293.774	22.275	862.509	665.037
294.789	22.531	862.346	665.823
295.803	22.604	861.907	665.698
296.818	22.367	860.859	663.935
297.833	22.072	859.956	662.070
298.847	22.124	859.300	661.703
299.862	22.138	858.735	661.261
300.876	22.172	858.297	660.993
301.891	22.324	857.881	661.187
302.906	22.462	857.774	661.563
303.920	22.731	857.000	661.916
304.935	22.872	856.475	661.981
305.949	23.090	855.850	662.255
306.964	23.063	855.015	661.450
307.979	22.832	853.865	659.638
308.993	22.725	853.499	658.900
310.008	22.647	853.314	658.405
311.022	22.746	853.450	658.821
312.037	22.692	852.430	657.777
313.052	22.342	852.046	656.117
314.066	22.345	850.810	655.118
315.081	22.061	850.136	653.484
316.095	22.044	849.159	652.612
317.110	22.019	849.170	652.471
318.125	21.994	848.507	651.810
319.139	21.993	848.010	651.368
320.154	21.999	847.304	650.789
321.168	21.946	846.603	649.997
322.183	22.019	846.329	649.997
323.197	22.207	845.895	650.303
324.212	22.251	844.981	649.708
325.227	22.201	844.696	649.245
326.241	22.162	844.144	648.617
327.256	22.152	843.440	647.985
328.270	22.015	842.932	647.031
329.285	22.090	841.876	646.441
330.300	21.962	841.372	645.526
331.314	21.910	841.130	645.090
332.329	21.918	840.465	644.553
333.343	22.079	840.284	644.947
334.358	22.470	839.686	645.866
335.373	22.555	839.175	645.729
336.387	22.609	838.606	645.431
337.402	22.544	838.485	645.043
338.416	22.721	838.058	645.306
339.431	22.888	837.711	645.591
340.446	23.229	836.775	646.057
341.460	23.296	836.613	646.120
342.475	23.170	836.278	645.343
343.489	23.500	835.342	645.768
344.504	23.378	835.119	645.092
345.519	23.595	834.820	645.593
346.533	23.480	834.528	644.894
347.548	23.548	833.622	644.383
348.562	23.237	832.790	642.555
349.577	23.004	831.677	640.793
350.592	22.716	831.186	639.314
351.606	22.692	830.394	638.562
352.621	22.398	830.198	637.291
353.635	22.359	829.724	636.728
354.650	22.564	829.554	637.285
355.665	22.690	829.151	637.373
356.679	22.604	828.918	636.829
357.694	22.837	828.136	637.012
358.708	22.849	827.355	636.398
359.723	22.785	826.920	635.778
360.738	22.695	826.390	634.987
361.752	22.734	826.076	634.833
362.767	22.936	825.339	634.935
363.781	23.248	824.753	635.546
364.796	23.390	824.878	636.098
365.810	23.400	824.940	636.123
366.825	23.659	824.631	636.758
367.840	23.637	824.346	636.403
368.854	23.708	823.559	635.993
369.869	23.481	822.921	634.634
370.883	23.344	822.023	633.395
371.898	23.187	821.671	632.506
372.913	23.419	820.874	632.665
373.927	23.461	820.814	632.714
374.942	23.480	819.808	631.950
375.956	23.371	818.867	630.779
376.971	23.553	818.413	631.022
377.986	23.778	817.921	631.386
379.000	23.782	817.541	631.050
380.015	23.752	817.718	631.025
381.029	23.860	816.914	630.733
382.044	23.627	816.164	629.272
383.059	23.701	815.501	628.968
384.073	23.889	814.933	629.138
385.088	23.842	814.047	628.233
386.102	23.456	813.144	626.116
387.117	23.291	812.530	625.007
388.132	23.109	811.992	623.897
389.146	23.154	811.887	623.920
390.161	23.108	811.379	623.312
391.175	23.354	811.152	623.948
392.190	23.583	811.365	624.861
393.205	23.596	810.421	624.125
394.219	23.229	810.062	622.504
395.234	23.005	809.188	620.992
396.248	22.943	808.630	620.291
397.263	22.979	807.525	619.512
398.278	22.949	807.133	619.053
399.292	22.936	806.930	618.797
400.307	22.735	806.315	617.566
401.321	22.677	806.186	617.210
402.336	22.762	805.423	616.870
403.350	22.923	805.342	617.315
404.365	23.210	805.070	618.053
405.380	23.551	804.638	618.859
406.394	23.724	804.759	619.500
407.409	23.914	804.449	619.866
408.423	24.167	803.594	620.034
409.438	24.207	803.061	619.707
410.453	24.068	802.803	618.973
411.467	24.073	802.605	618.781
412.482	24.074	801.909	618.192
413.496	24.181	801.612	618.283
414.511	24.338	801.554	618.726
415.526	24.280	801.140	618.152
416.540	24.139	800.560	617.162
417.555	24.016	800.059	616.295
418.569	23.995	799.388	615.648
419.584	24.021	798.900	615.309
420.599	23.981	798.840	615.071
421.613	162.773	1371.235	1796.636
422.628	141.328	1454.610	1796.708
