DTS Sentinel unit serial number:	SN413079Multiplexer serial number:	ORYXHardware model number:	OX4-SRSoftware version number:	ORYX F/W v4.00 Oryx Data Collector v3.7.2.0data status	okinstallation	princeton_trtdifferential loss correction	single-endedforward channel	channel 3reverse channel	N/Adate	2019/09/13time	09:44:34forward acquisition time	60.00reverse acquisition time	0.00gamma	496.2192k internal	0.2325k external	0.2325temperature offset calibration	1.0138default loss term (dB/km)	0.3790temperature slope calibration	1.0000multiplexer offset coefficient	1.0000multiplexer slope coefficient	1.0000fibre end	0.00T internal ref (°C)	29.80T ext. ref 1 (°C)	4.44T ext. ref 2 (°C)	26.39length (m)	temperature (°C)	Stokes	anti-Stokes-747.200	800.000	-0.053	-0.193
-746.185	800.000	0.070	0.261
-745.171	9.353	0.066	0.050
-744.156	800.000	-0.028	0.078
-743.142	31.149	-0.319	-0.276
-742.127	195.916	0.225	0.345
-741.112	215.994	-0.193	-0.309
-740.098	-65.191	-0.133	-0.054
-739.083	-35.046	0.116	-0.064
-738.069	8.664	-0.233	0.177
-737.054	800.000	0.086	0.354
-736.039	-50.770	-0.311	0.148
-735.025	59.403	0.344	0.342
-734.010	800.000	-0.057	-0.171
-732.996	-44.056	-0.087	-0.044
-731.981	104.678	0.060	-0.071
-730.966	-32.461	-0.123	-0.069
-729.952	294.877	-0.222	0.410
-728.937	66.448	-0.136	0.140
-727.923	-147.152	-0.366	0.032
-726.908	-200.000	-0.057	0.279
-725.894	-62.220	-0.076	0.032
-724.879	-37.436	-0.172	0.092
-723.864	714.177	-0.077	-0.206
-722.850	800.000	0.087	-0.311
-721.835	322.429	0.061	-0.117
-720.821	441.106	-0.034	0.075
-719.806	-148.609	0.062	-0.005
-718.791	-200.000	-0.032	0.371
-717.777	135.012	-0.212	-0.277
-716.762	-22.564	0.163	0.099
-715.748	-77.199	-0.245	-0.086
-714.733	800.000	0.124	0.399
-713.718	265.083	0.067	-0.117
-712.704	54.560	-0.229	0.223
-711.689	-122.586	0.322	-0.053
-710.675	-111.662	-0.227	0.046
-709.660	227.499	-0.040	-0.066
-708.645	645.866	0.038	-0.098
-707.631	197.103	-0.105	0.161
-706.616	71.463	0.043	0.045
-705.602	695.564	0.195	-0.517
-704.587	81.717	-0.269	-0.294
-703.572	107.230	-0.124	-0.148
-702.558	800.000	-0.085	0.332
-701.543	155.576	-0.151	0.210
-700.529	65.334	-0.067	-0.068
-699.514	-144.125	0.210	0.020
-698.499	-200.000	0.223	-0.001
-697.485	-200.000	0.036	-0.199
-696.470	68.476	0.045	-0.046
-695.456	191.894	-0.172	0.261
-694.441	-59.496	0.146	0.063
-693.426	-30.863	-0.285	-0.162
-692.412	123.588	-0.093	-0.118
-691.397	747.710	-0.151	-0.410
-690.383	800.000	-0.105	0.335
-689.368	-23.251	-0.161	0.098
-688.354	-34.705	0.277	-0.152
-687.339	-53.110	-0.189	0.088
-686.324	163.580	-0.148	-0.209
-685.310	31.784	0.169	-0.147
-684.295	-151.767	0.085	-0.006
-683.281	-18.760	-0.182	0.114
-682.266	-109.076	0.199	0.043
-681.251	20.313	-0.072	-0.058
-680.237	81.391	-0.073	-0.080
-679.222	-114.948	-0.167	0.032
-678.208	5.596	-0.182	0.136
-677.193	161.243	0.182	0.256
-676.178	102.977	0.179	-0.211
-675.164	29.979	-0.371	0.318
-674.149	-139.713	-0.201	-0.022
-673.135	137.348	0.026	-0.034
-672.120	-200.000	0.004	0.120
-671.105	-102.269	-0.406	0.098
-670.091	800.000	-0.090	-0.284
-669.076	800.000	0.037	-0.110
-668.062	-174.992	0.220	0.006
-667.047	-110.281	-0.205	-0.043
-666.032	255.577	-0.143	-0.246
-665.018	-116.521	-0.034	-0.006
-664.003	443.065	-0.130	-0.287
-662.989	800.000	0.078	0.269
-661.974	-62.899	0.048	0.020
-660.959	172.186	0.143	-0.208
-659.945	-82.162	-0.118	-0.039
-658.930	-30.056	0.098	0.056
-657.916	-83.831	-0.192	-0.062
-656.901	155.414	0.140	-0.194
-655.886	-200.000	-0.047	-0.265
-654.872	213.859	-0.196	-0.312
-653.857	-200.000	0.013	-0.168
-652.843	-86.302	0.163	-0.050
-651.828	-71.879	0.180	-0.067
-650.814	222.446	0.019	0.031
-649.799	51.938	-0.233	0.223
-648.784	-88.705	-0.050	0.015
-647.770	-66.896	0.067	0.027
-646.755	-165.728	-0.221	0.010
-645.741	800.000	0.010	-0.032
-644.726	-200.000	0.041	-0.189
-643.711	-138.619	-0.280	0.031
-642.697	-117.819	-0.396	0.072
-641.682	-156.231	-0.224	-0.014
-640.668	800.000	0.058	0.247
-639.653	77.123	-0.100	0.107
-638.638	47.897	-0.131	-0.123
-637.624	800.000	-0.029	0.102
-636.609	95.161	0.086	0.099
-635.595	-89.837	-0.095	-0.028
-634.580	292.735	-0.060	0.109
-633.565	-193.165	0.305	-0.003
-632.551	-125.956	0.275	0.042
-631.536	-23.334	0.115	0.069
-630.522	-134.962	-0.048	-0.006
-629.507	-63.025	-0.087	0.036
-628.492	-105.322	-0.088	0.020
-627.478	242.715	0.023	-0.038
-626.463	-200.000	-0.087	0.412
-625.449	137.032	0.132	-0.173
-624.434	490.277	0.073	0.168
-623.419	258.966	-0.060	0.103
-622.405	-112.653	-0.169	-0.034
-621.390	-200.000	0.015	0.138
-620.376	100.303	0.071	0.083
-619.361	395.951	0.100	0.210
-618.346	291.847	0.283	-0.517
-617.332	33.219	0.187	0.163
-616.317	800.000	0.059	0.171
-615.303	-200.000	0.006	0.304
-614.288	-53.962	-0.081	-0.037
-613.273	252.486	0.130	-0.222
-612.259	209.948	0.231	-0.363
-611.244	-200.000	-0.061	-0.275
-610.230	155.401	0.050	0.069
-609.215	101.994	0.263	-0.308
-608.201	46.125	0.088	0.082
-607.186	-200.000	0.015	-0.331
-606.171	-31.738	-0.312	-0.175
-605.157	102.268	0.137	0.160
-604.142	-28.556	-0.294	-0.170
-603.128	-62.656	-0.284	-0.118
-602.113	-67.271	-0.348	-0.137
-601.098	72.922	-0.248	-0.260
-600.084	775.699	0.101	0.276
-599.069	95.483	-0.011	0.013
-598.055	433.772	0.040	0.088
-597.040	-200.000	-0.054	-0.267
-596.025	-200.000	-0.054	-0.237
-595.011	-50.926	-0.251	-0.118
-593.996	-31.738	0.278	0.157
-592.982	149.071	-0.220	0.299
-591.967	126.808	0.260	0.331
-590.952	295.121	0.080	0.147
-589.938	-82.814	-0.120	-0.039
-588.923	-200.000	-0.031	-0.340
-587.909	329.529	0.114	-0.221
-586.894	-124.395	0.067	-0.010
-585.879	464.731	-0.143	-0.322
-584.865	-156.479	-0.063	0.004
-583.850	-139.339	0.288	-0.031
-582.836	-164.161	-0.313	0.014
-581.821	800.000	-0.044	0.151
-580.806	53.244	-0.087	0.083
-579.792	-145.701	0.176	-0.016
-578.777	-24.289	0.159	-0.095
-577.763	-160.523	-0.275	0.015
-576.748	-112.328	-0.184	0.037
-575.733	-55.753	-0.270	-0.121
-574.719	97.019	0.244	-0.280
-573.704	-200.000	-0.018	-0.121
-572.690	-84.243	0.222	-0.070
-571.675	-13.983	0.080	0.052
-570.661	800.000	0.028	0.077
-569.646	-200.000	0.024	-0.130
-568.631	55.749	-0.277	-0.269
-567.617	-82.299	-0.051	-0.017
-566.602	-200.000	0.010	0.199
-565.588	218.637	0.065	-0.104
-564.573	-92.741	0.143	0.040
-563.558	-58.651	-0.291	0.126
-562.544	-130.625	0.180	0.024
-561.529	213.356	0.099	-0.157
-560.515	110.600	0.069	-0.084
-559.500	575.738	0.059	0.144
-558.485	-200.000	0.060	-0.310
-557.471	22.363	-0.206	0.169
-556.456	-200.000	0.025	0.264
-555.442	-113.377	0.144	-0.028
-554.427	800.000	-0.113	0.426
-553.412	-1.474	0.065	-0.046
-552.398	-90.877	0.159	0.046
-551.383	-200.000	0.001	-0.031
-550.369	-74.595	0.312	0.113
-549.354	-97.836	-0.154	0.040
-548.339	96.272	-0.124	-0.142
-547.325	-7.618	0.254	0.172
-546.310	-200.000	-0.004	0.509
-545.296	154.830	0.109	0.150
-544.281	682.313	0.076	0.198
-543.266	-61.690	-0.158	0.067
-542.252	-200.000	0.044	-0.363
-541.237	-184.168	0.280	-0.005
-540.223	70.386	0.153	-0.159
-539.208	186.135	0.161	-0.240
-538.193	-134.317	-0.262	-0.032
-537.179	-153.677	0.244	0.017
-536.164	-20.869	0.259	-0.159
-535.150	-133.750	-0.112	-0.014
-534.135	-131.818	0.374	-0.049
-533.121	800.000	0.014	-0.057
-532.106	-65.508	-0.446	-0.179
-531.091	721.565	0.088	-0.233
-530.077	-200.000	-0.070	0.408
-529.062	212.845	-0.147	0.232
-528.048	-158.633	0.303	0.017
-527.033	20.457	-0.109	0.088
-526.018	-170.414	0.160	0.006
-525.004	197.382	-0.047	-0.072
-523.989	800.000	0.045	-0.130
-522.975	-115.135	-0.030	0.006
-521.960	782.994	-0.109	0.298
-520.945	-200.000	0.022	-0.401
-519.931	800.000	-0.072	0.207
-518.916	223.508	0.017	0.028
-517.902	-65.832	0.098	-0.039
-516.887	800.000	-0.061	0.259
-515.872	3.349	-0.183	0.134
-514.858	271.420	0.069	-0.121
-513.843	-200.000	-0.072	-0.418
-512.829	8.547	-0.065	0.049
-511.814	2.657	0.179	-0.130
-510.799	798.503	0.043	0.120
-509.785	-37.751	0.053	-0.028
-508.770	-109.177	-0.492	-0.105
-507.756	-68.322	0.304	0.118
-506.741	-200.000	0.011	0.184
-505.726	713.661	-0.096	0.255
-504.712	49.299	-0.072	0.067
-503.697	-22.060	-0.120	0.073
-502.683	-126.007	0.324	0.049
-501.668	-153.559	0.160	0.011
-500.653	-44.172	-0.250	-0.125
-499.639	-79.359	0.155	0.052
-498.624	-74.472	0.180	-0.065
-497.610	21.235	0.123	0.099
-496.595	245.998	-0.116	0.195
-495.581	70.424	-0.227	-0.234
-494.566	-101.256	0.267	0.065
-493.551	-117.413	0.216	0.039
-492.537	60.039	0.070	0.069
-491.522	-37.127	0.153	0.082
-490.508	-200.000	-0.058	-0.330
-489.493	-114.161	0.151	-0.029
-488.478	-137.797	0.210	0.024
-487.464	435.645	0.145	0.315
-486.449	-78.298	-0.381	0.131
-485.435	233.150	-0.220	-0.362
-484.420	-67.975	-0.499	-0.194
-483.405	201.405	0.067	-0.103
-482.391	87.961	-0.041	0.046
-481.376	-200.000	-0.039	0.346
-480.362	12.564	0.158	0.122
-479.347	479.635	-0.094	0.212
-478.332	158.670	0.212	-0.293
-477.318	22.774	0.166	-0.136
-476.303	107.673	-0.178	0.212
-475.289	-8.257	-0.240	0.161
-474.274	800.000	-0.049	0.137
-473.259	222.245	0.123	0.198
-472.245	800.000	0.144	-0.532
-471.230	-2.390	-0.096	0.067
-470.216	-23.688	0.131	-0.079
-469.201	-18.397	-0.330	-0.206
-468.186	-62.814	0.323	-0.134
-467.172	47.444	-0.168	0.157
-466.157	-87.433	-0.344	0.104
-465.143	188.395	0.055	-0.083
-464.128	-200.000	0.006	-0.288
-463.113	121.911	0.071	-0.089
-462.099	-50.373	-0.175	0.083
-461.084	152.231	0.173	-0.235
-460.070	-93.123	0.332	-0.092
-459.055	0.979	-0.198	0.142
-458.040	-113.844	-0.158	0.031
-457.026	610.367	-0.056	0.140
-456.011	-129.200	-0.178	-0.025
-454.997	150.199	-0.207	-0.280
-453.982	118.078	-0.205	0.252
-452.968	-46.172	0.258	-0.127
-451.953	-143.175	0.104	-0.010
-450.938	-200.000	0.030	-0.183
-449.924	27.793	-0.273	-0.229
-448.909	140.665	0.246	-0.324
-447.895	5.652	-0.190	0.140
-446.880	800.000	0.040	-0.137
-445.865	290.385	0.134	0.242
-444.851	-187.128	0.101	-0.001
-443.836	-44.001	-0.134	-0.067
-442.822	-200.000	0.009	-0.206
-441.807	-84.996	0.529	0.165
-440.792	800.000	0.025	-0.084
-439.778	101.904	0.076	-0.088
-438.763	-12.563	-0.198	-0.129
-437.749	7.534	-0.081	0.060
-436.734	-200.000	0.029	0.259
-435.719	-200.000	0.018	-0.285
-434.705	490.422	0.088	0.201
-433.690	-105.280	0.096	-0.022
-432.676	-200.000	-0.027	0.231
-431.661	-200.000	0.008	-0.087
-430.646	-5.017	-0.049	-0.034
-429.632	-72.788	-0.164	-0.060
-428.617	-164.490	0.027	-0.001
-427.603	55.327	-0.153	0.147
-426.588	760.796	-0.115	-0.310
-425.573	-200.000	-0.008	0.041
-424.559	-141.512	0.071	-0.007
-423.544	-54.618	0.128	-0.058
-422.530	-115.476	-0.202	0.038
-421.515	-17.978	-0.215	0.134
-420.500	-1.855	0.203	0.142
-419.486	452.675	-0.100	-0.220
-418.471	-200.000	0.008	-0.087
-417.457	-30.273	0.211	0.119
-416.442	10.017	0.059	0.045
-415.428	800.000	-0.040	0.119
-414.413	216.386	-0.206	-0.326
-413.398	-165.956	0.228	-0.010
-412.384	232.270	0.104	-0.170
-411.369	-200.000	-0.009	0.094
-410.355	20.200	0.180	-0.145
-409.340	-85.055	0.278	0.087
-408.325	-200.000	-0.008	0.198
-407.311	-200.000	-0.023	-0.114
-406.296	153.839	-0.073	-0.100
-405.282	652.910	-0.141	0.359
-404.267	-114.646	0.199	0.038
-403.252	15.655	0.208	0.163
-402.238	800.000	0.054	0.173
-401.223	800.000	0.043	-0.122
-400.209	800.000	0.075	-0.271
-399.194	-9.124	-0.248	-0.165
-398.179	-81.509	0.047	-0.015
-397.165	-48.196	0.439	0.211
-396.150	171.730	0.107	0.154
-395.136	800.000	-0.090	0.252
-394.121	800.000	0.108	0.315
-393.106	6.805	-0.096	-0.071
-392.092	-32.715	-0.173	0.096
-391.077	800.000	-0.012	0.052
-390.063	-166.604	-0.121	0.005
-389.048	-50.908	-0.056	0.026
-388.033	800.000	0.019	-0.054
-387.019	-47.787	-0.211	0.102
-386.004	-137.228	0.286	0.032
-384.990	64.236	-0.322	-0.323
-383.975	-200.000	-0.005	0.042
-382.960	340.101	-0.113	-0.219
-381.946	-87.546	0.253	-0.076
-380.931	-43.352	-0.318	-0.160
-379.917	-11.642	0.150	0.098
-378.902	800.000	-0.096	-0.329
-377.888	26.256	-0.183	0.152
-376.873	1.257	-0.129	0.092
-375.858	52.006	-0.309	-0.293
-374.844	86.465	-0.084	-0.092
-373.829	800.000	-0.024	-0.073
-372.815	-148.063	0.197	0.016
-371.800	-92.597	-0.126	-0.035
-370.785	800.000	-0.049	-0.215
-369.771	185.404	0.075	0.111
-368.756	-105.007	0.037	0.008
-367.742	-147.959	-0.115	-0.010
-366.727	-132.187	0.262	-0.034
-365.712	-135.470	-0.411	0.049
-364.698	-109.506	0.315	0.066
-363.683	34.079	0.364	-0.315
-362.669	43.814	-0.225	-0.205
-361.654	800.000	-0.053	0.155
-360.639	-200.000	-0.005	-0.338
-359.625	-19.677	-0.232	-0.143
-358.610	13.386	-0.119	-0.092
-357.596	-200.000	-0.035	0.208
-356.581	-189.002	-0.352	-0.004
-355.566	-108.623	-0.199	0.043
-354.552	-15.516	-0.149	0.094
-353.537	800.000	0.027	0.084
-352.523	241.085	0.109	0.181
-351.508	67.265	-0.196	0.199
-350.493	39.810	-0.235	-0.209
-349.479	-100.935	-0.210	-0.051
-348.464	310.696	0.152	0.283
-347.450	21.878	0.046	0.037
-346.435	4.699	0.098	0.071
-345.420	800.000	-0.031	-0.111
-344.406	-187.423	-0.104	-0.001
-343.391	122.622	-0.125	-0.155
-342.377	-129.518	-0.299	0.041
-341.362	-120.452	0.148	0.025
-340.348	-128.263	0.214	-0.030
-339.333	-25.633	0.161	-0.094
-338.318	184.576	-0.127	-0.186
-337.304	-144.117	-0.342	-0.032
-336.289	-200.000	0.025	0.218
-335.275	-200.000	0.010	0.219
-334.260	-162.778	0.017	0.001
-333.245	800.000	0.008	0.028
-332.231	800.000	-0.043	0.164
-331.216	-200.000	-0.041	0.179
-330.202	46.725	0.131	0.121
-329.187	348.949	-0.043	0.083
-328.172	-74.494	-0.185	-0.066
-327.158	9.130	0.052	-0.039
-326.143	-80.796	0.174	0.057
-325.129	334.709	0.107	-0.205
-324.114	800.000	-0.056	-0.185
-323.099	-200.000	0.042	0.318
-322.085	-200.000	-0.033	-0.154
-321.070	253.164	-0.183	0.309
-320.056	-118.425	-0.164	0.029
-319.041	-143.697	0.150	-0.014
-318.026	605.905	-0.071	-0.175
-317.012	522.405	0.097	0.226
-315.997	41.467	-0.056	-0.050
-314.983	-200.000	-0.013	0.084
-313.968	-200.000	0.036	0.159
-312.953	715.866	-0.041	0.108
-311.939	278.485	-0.014	-0.025
-310.924	-182.305	0.504	0.009
-309.910	-57.969	0.244	0.106
-308.895	-200.000	-0.011	-0.071
-307.880	-200.000	0.010	0.200
-306.866	-104.662	0.110	0.025
-305.851	-27.818	-0.280	-0.161
-304.837	89.138	-0.114	-0.126
-303.822	32.482	-0.165	-0.142
-302.807	800.000	0.109	0.350
-301.793	-59.438	-0.152	0.065
-300.778	455.133	-0.045	-0.100
-299.764	-200.000	-0.015	0.107
-298.749	245.322	-0.044	0.073
-297.735	-153.179	0.274	-0.019
-296.720	549.220	-0.163	-0.388
-295.705	74.644	0.034	-0.036
-294.691	-95.689	-0.215	-0.057
-293.676	-200.000	-0.015	0.216
-292.662	800.000	0.049	0.148
-291.647	413.171	0.116	0.244
-290.632	46.717	-0.140	0.129
-289.618	-92.969	0.192	0.053
-288.603	58.966	-0.186	-0.181
-287.589	406.278	-0.076	-0.159
-286.574	-99.232	-0.199	-0.050
-285.559	-100.330	0.202	0.050
-284.545	-19.569	-0.189	-0.116
-283.530	-11.898	0.210	-0.136
-282.516	-200.000	-0.054	0.325
-281.501	-200.000	0.008	-0.070
-280.486	149.832	-0.148	0.198
-279.472	42.105	-0.256	-0.231
-278.457	-183.676	0.107	-0.002
-277.443	-200.000	0.050	0.299
-276.428	116.898	-0.115	-0.140
-275.413	-83.573	0.277	-0.088
-274.399	339.085	-0.070	-0.136
-273.384	-110.338	0.154	-0.032
-272.370	-98.734	-0.082	0.021
-271.355	-183.408	-0.296	-0.005
-270.340	-97.355	-0.158	0.041
-269.326	208.513	-0.131	-0.203
-268.311	800.000	0.145	0.423
-267.297	37.926	0.147	-0.129
-266.282	-62.754	0.082	-0.034
-265.267	-85.389	0.142	-0.044
-264.253	-106.218	0.129	0.029
-263.238	105.910	-0.162	0.190
-262.224	800.000	0.025	0.102
-261.209	-174.271	0.235	-0.007
-260.195	725.100	-0.086	-0.228
-259.180	-200.000	-0.012	-0.165
-258.165	-200.000	-0.053	-0.314
-257.151	261.518	0.092	0.158
-256.136	-32.824	0.205	-0.113
-255.122	-3.927	-0.205	0.141
-254.107	165.778	-0.183	-0.256
-253.092	-153.559	-0.226	-0.015
-252.078	44.863	0.075	-0.069
-251.063	-5.824	-0.115	0.078
-250.049	-142.537	-0.051	-0.005
-249.034	-91.936	-0.330	0.093
-248.019	800.000	-0.161	-0.470
-247.005	-138.179	-0.061	-0.007
-245.990	-7.801	-0.084	0.056
-244.976	-96.985	0.099	0.026
-243.961	-40.628	0.275	0.141
-242.946	800.000	0.057	0.245
-241.932	-173.329	-0.171	0.005
-240.917	98.775	-0.032	-0.037
-239.903	138.669	-0.205	-0.267
-238.888	276.373	0.100	0.177
-237.873	-200.000	-0.012	-0.102
-236.859	-164.180	-0.174	0.008
-235.844	-92.042	-0.236	0.066
-234.830	-89.791	-0.174	0.051
-233.815	757.642	-0.128	-0.343
-232.800	41.614	-0.134	0.120
-231.786	179.518	-0.100	0.144
-230.771	-200.000	0.018	0.079
-229.757	-200.000	0.057	-0.308
-228.742	-0.710	0.266	0.187
-227.727	487.762	-0.118	0.267
-226.713	-15.669	0.247	0.156
-225.698	-126.230	0.271	0.040
-224.684	133.126	0.169	-0.216
-223.669	-80.230	-0.030	0.010
-222.655	-4.903	-0.201	0.137
-221.640	603.630	-0.197	0.484
-220.625	178.345	0.081	-0.117
-219.611	-104.615	-0.119	0.027
-218.596	-1.295	0.052	0.036
-217.582	282.821	0.034	0.061
-216.567	-173.689	-0.314	-0.009
-215.552	12.878	0.165	-0.126
-214.538	800.000	0.065	-0.183
-213.523	168.815	0.282	0.397
-212.509	-128.439	0.278	0.039
-211.494	111.440	0.060	0.071
-210.479	-117.928	0.201	-0.036
-209.465	402.756	-0.168	0.348
-208.450	125.363	0.220	-0.274
-207.436	-200.000	-0.002	0.304
-206.421	687.096	0.028	0.071
-205.406	800.000	-0.114	-0.342
-204.392	-45.201	0.133	0.065
-203.377	120.512	-0.055	-0.067
-202.363	-101.236	0.313	0.076
-201.348	-147.528	0.295	0.025
-200.333	14.656	0.172	-0.133
-199.319	-200.000	0.009	0.115
-198.304	15.564	-0.080	-0.062
-197.290	391.584	-0.196	0.402
-196.275	201.232	0.364	-0.554
-195.260	169.856	0.200	-0.283
-194.246	-31.771	0.133	0.074
-193.231	-200.000	0.013	0.069
-192.217	-200.000	-0.050	0.269
-191.202	71.704	0.174	-0.178
-190.187	-200.000	-0.052	0.468
-189.173	-200.000	0.056	0.390
-188.158	-200.000	-0.010	0.062
-187.144	209.209	-0.112	0.173
-186.129	800.000	0.124	0.394
-185.114	-84.104	0.450	0.141
-184.100	-122.983	0.487	0.077
-183.085	-200.000	-0.002	-0.203
-182.071	-31.561	0.280	0.156
-181.056	-200.000	-0.042	-0.243
-180.042	-200.000	0.033	-0.158
-179.027	-109.907	0.278	-0.057
-178.012	-200.000	0.016	-0.130
-176.998	800.000	-0.108	-0.381
-175.983	-41.846	-0.189	0.096
-174.969	223.949	-0.113	0.180
-173.954	409.537	-0.141	-0.296
-172.939	62.449	0.323	-0.319
-171.925	-8.019	-0.357	0.237
-170.910	247.300	-0.039	0.065
-169.896	154.045	0.015	-0.021
-168.881	3.656	0.169	-0.122
-167.866	800.000	0.027	0.104
-166.852	-200.000	-0.104	0.000
-165.837	-72.578	0.129	-0.047
-164.823	311.979	-0.212	-0.393
-163.808	-81.178	0.092	0.030
-162.793	516.054	0.163	0.375
-161.779	-34.916	0.109	-0.058
-160.764	674.222	-0.042	-0.108
-159.750	-200.000	0.008	-0.161
-158.735	800.000	0.172	-0.497
-157.720	151.068	-0.081	0.109
-156.706	38.878	-0.073	-0.064
-155.691	86.196	0.026	0.028
-154.677	800.000	0.102	0.294
-153.662	44.794	0.207	-0.188
-152.647	-45.667	-0.140	-0.068
-151.633	-125.630	-0.069	0.010
-150.618	-200.000	0.001	-0.129
-149.604	-14.071	-0.090	0.057
-148.589	82.170	-0.039	0.041
-147.574	169.698	0.373	0.525
-146.560	285.110	-0.065	0.115
-145.545	-200.000	-0.010	0.234
-144.531	90.375	0.189	0.208
-143.516	-146.498	-0.096	0.008
-142.502	67.148	0.180	-0.181
-141.487	-200.000	0.004	-0.279
-140.472	-200.000	-0.030	-0.211
-139.458	-200.000	-0.041	-0.213
-138.443	800.000	0.053	0.192
-137.429	750.254	0.066	0.174
-136.414	-200.000	-0.003	0.075
-135.399	-171.091	0.184	-0.006
-134.385	70.320	0.065	-0.066
-133.370	-43.159	0.110	0.055
-132.356	15.107	0.393	0.303
-131.341	15.782	0.328	0.254
-130.326	-91.577	0.212	0.059
-129.312	-200.000	0.012	0.419
-128.297	17.351	0.328	-0.257
-127.283	-42.986	0.125	0.062
-126.268	737.417	-0.115	0.303
-125.253	220.611	-0.181	-0.286
-124.239	-153.692	0.222	-0.015
-123.224	800.000	-0.110	0.309
-122.210	-200.000	-0.014	-0.245
-121.195	-187.596	-0.095	-0.001
-120.180	189.145	-0.070	-0.103
-119.166	-200.000	-0.081	0.628
-118.151	509.083	-0.178	0.407
-117.137	-97.619	0.446	-0.114
-116.122	17.597	0.350	-0.274
-115.107	-200.000	0.065	0.407
-114.093	97.679	0.303	-0.342
-113.078	-123.593	-0.302	0.047
-112.064	43.484	0.041	0.037
-111.049	-39.423	-0.204	0.106
-110.034	-98.329	0.134	-0.034
-109.020	43.334	0.129	0.116
-108.005	97.898	0.359	-0.407
-106.991	569.544	-0.100	-0.238
-105.976	-102.011	-0.182	0.043
-104.962	-70.965	-0.195	-0.072
-103.947	-100.485	-0.276	0.067
-102.932	-200.000	0.070	0.549
-101.918	-83.094	-0.116	-0.037
-100.903	-200.000	0.006	-0.189
-99.889	-80.970	0.117	0.038
-98.874	-200.000	-0.012	0.402
-97.859	-200.000	0.041	-0.252
-96.845	23.397	0.183	0.148
-95.830	38.589	0.328	0.288
-94.816	60.295	-0.072	0.070
-93.801	-109.641	-0.158	-0.033
-92.786	648.629	-0.101	-0.254
-91.772	800.000	0.080	0.220
-90.757	-200.000	0.002	0.228
-89.743	-119.048	-0.277	-0.048
-88.728	36.264	0.243	0.211
-87.713	-184.242	-0.185	-0.003
-86.699	-152.824	0.244	0.017
-85.684	-200.000	0.033	-0.187
-84.670	-18.546	0.275	-0.169
-83.655	275.413	-0.116	0.202
-82.640	-81.089	-0.286	-0.093
-81.626	-47.478	-0.038	0.018
-80.611	35.927	0.127	-0.110
-79.597	-152.408	0.376	-0.027
-78.582	165.142	0.172	0.239
-77.567	30.458	-0.095	0.080
-76.553	-95.396	0.222	0.059
-75.538	-200.000	-0.037	0.385
-74.524	-32.213	0.160	-0.088
-73.509	-84.442	0.207	0.064
-72.494	462.689	-0.210	-0.461
-71.480	-14.849	0.262	-0.165
-70.465	157.926	0.159	0.216
-69.451	38.601	0.124	-0.109
-68.436	55.391	-0.215	-0.205
-67.422	201.436	-0.192	0.291
-66.407	624.439	-0.098	-0.243
-65.392	800.000	0.028	-0.089
-64.378	-18.147	-0.101	0.062
-63.363	-200.000	-0.037	0.181
-62.349	-200.000	0.033	0.265
-61.334	87.426	-0.905	-0.984
-60.319	232.548	0.340	0.549
-59.305	800.000	-0.247	-0.926
-58.290	111.726	0.745	0.883
-57.276	479.299	0.626	1.393
-56.261	-200.000	103.964	575.845
-55.246	509.274	1470.378	3356.708
-54.232	179.312	2672.956	3842.352
-53.217	111.390	2191.773	2595.703
-52.203	40.406	1712.011	1513.835
-51.188	32.929	1520.984	1293.868
-50.173	30.634	1493.850	1255.263
-49.159	50.803	1548.201	1440.141
-48.144	51.289	1565.151	1459.197
-47.130	33.053	1522.784	1296.044
-46.115	30.039	1507.561	1262.528
-45.100	29.960	1503.588	1258.617
-44.086	29.838	1501.837	1256.275
-43.071	29.811	1500.131	1254.615
-42.057	29.788	1498.155	1252.753
-41.042	29.811	1496.734	1251.672
-40.027	29.750	1495.495	1250.173
-39.013	29.786	1493.369	1248.587
-37.998	29.693	1492.551	1247.231
-36.984	29.730	1491.648	1246.673
-35.969	29.790	1489.654	1245.364
-34.954	29.704	1488.781	1244.003
-33.940	29.719	1487.217	1242.749
-32.925	29.859	1485.257	1242.001
-31.911	29.767	1484.492	1240.692
-30.896	29.901	1482.634	1239.990
-29.881	29.959	1481.008	1238.971
-28.867	29.872	1480.486	1237.901
-27.852	29.898	1478.773	1236.592
-26.838	29.945	1477.462	1235.762
-25.823	29.883	1476.347	1234.369
-24.809	29.795	1474.401	1232.107
-23.794	29.823	1473.329	1231.345
-22.779	29.791	1472.048	1230.016
-21.765	29.888	1470.813	1229.581
-20.750	29.920	1469.757	1228.858
-19.736	29.810	1468.784	1227.269
-18.721	29.789	1467.853	1226.301
-17.706	29.884	1466.424	1225.687
-16.692	29.817	1465.499	1224.421
-15.677	29.807	1464.587	1223.545
-14.663	29.736	1463.503	1222.122
-13.648	29.838	1462.074	1221.555
-12.633	29.827	1461.344	1220.824
-11.619	29.764	1460.568	1219.711
-10.604	29.707	1459.510	1218.404
-9.590	29.687	1458.838	1217.663
-8.575	29.745	1457.943	1217.251
-7.560	29.836	1456.615	1216.693
-6.546	29.713	1456.457	1215.705
-5.531	29.639	1455.552	1214.414
-4.517	29.729	1454.635	1214.189
-3.502	29.817	1453.234	1213.547
-2.487	29.762	1452.267	1212.332
-1.473	29.786	1450.937	1211.334
-0.458	29.759	1449.751	1210.116
0.556	31.673	1440.448	1199.994
1.571	28.858	1414.222	1160.302
2.586	25.267	1353.560	1088.698
3.600	23.571	1271.625	1013.029
4.615	21.857	1226.140	967.263
5.629	18.663	1170.038	906.090
6.644	11.198	1087.449	805.292
7.659	5.499	1048.262	748.985
8.673	4.573	1043.663	741.223
9.688	4.409	1040.247	737.950
10.702	4.346	1038.646	736.448
11.717	4.432	1036.649	735.378
12.731	7.078	1039.696	750.027
13.746	14.980	1049.880	794.990
14.761	20.767	1057.305	828.155
15.775	21.956	1058.128	834.384
16.790	21.663	1056.479	831.616
17.804	20.573	1054.708	824.979
18.819	19.803	1052.902	819.844
19.834	19.258	1051.925	816.429
20.848	19.309	1051.138	815.989
21.863	19.266	1050.404	815.142
22.877	18.955	1049.868	813.186
23.892	18.814	1048.954	811.738
24.907	18.825	1048.226	811.156
25.921	18.751	1047.290	810.008
26.936	18.719	1046.539	809.206
27.950	18.688	1045.793	808.411
28.965	18.699	1044.433	807.339
29.980	18.839	1043.187	806.965
30.994	19.101	1042.340	807.466
32.009	19.203	1041.316	807.082
33.023	19.138	1041.057	806.504
34.038	19.224	1039.997	806.015
35.053	19.068	1039.334	804.699
36.067	18.900	1038.014	802.823
37.082	18.915	1036.952	802.001
38.096	18.845	1036.894	801.558
39.111	18.937	1035.967	801.199
40.126	19.110	1035.062	801.232
41.140	19.022	1033.804	799.778
42.155	18.509	1033.143	796.811
43.169	18.550	1031.526	795.686
44.184	18.390	1030.164	793.824
45.199	18.440	1029.201	793.242
46.213	18.478	1028.026	792.442
47.228	18.452	1028.044	792.268
48.242	18.881	1026.497	792.982
49.257	18.781	1026.125	792.166
50.271	18.867	1024.810	791.475
51.286	18.928	1024.272	791.270
52.301	18.955	1023.495	790.724
53.315	18.986	1022.738	790.213
54.330	18.749	1021.930	788.431
55.344	18.603	1020.866	786.868
56.359	18.531	1019.991	785.795
57.374	18.452	1019.111	784.689
58.388	18.675	1018.176	784.918
59.403	18.423	1017.658	783.294
60.417	18.206	1016.752	781.541
61.432	18.361	1016.122	781.691
62.447	18.322	1015.296	780.811
63.461	18.205	1014.579	779.656
64.476	18.092	1013.958	778.597
65.490	18.200	1012.496	777.897
66.505	18.288	1011.561	777.507
67.520	18.210	1011.194	776.803
68.534	18.210	1010.454	776.166
69.549	18.402	1009.555	776.277
70.563	18.275	1008.705	774.981
71.578	18.187	1008.106	774.053
72.593	18.187	1007.140	773.242
73.607	18.063	1005.686	771.499
74.622	18.085	1004.758	770.819
75.636	17.952	1004.685	770.095
76.651	18.127	1003.115	769.611
77.666	18.093	1002.866	769.195
78.680	18.079	1001.974	768.383
79.695	18.230	1001.456	768.595
80.709	18.201	1000.962	768.019
81.724	18.271	1000.470	767.887
82.739	18.451	999.569	767.932
83.753	18.449	999.010	767.428
84.768	18.713	998.552	768.188
85.782	19.039	998.172	769.288
86.797	19.320	997.468	769.929
87.812	19.125	996.899	768.554
88.826	19.005	995.712	767.034
89.841	18.929	994.865	765.978
90.855	19.057	994.215	765.978
91.870	19.004	993.602	765.200
92.884	19.220	992.773	765.454
93.899	19.196	992.049	764.724
94.914	19.029	991.580	763.551
95.928	19.145	990.703	763.324
96.943	19.288	989.391	762.881
97.957	19.066	989.008	761.534
98.972	18.918	988.306	760.271
99.987	18.910	987.150	759.280
101.001	18.888	986.829	758.868
102.016	19.135	985.516	758.880
103.030	18.962	984.437	757.219
104.045	19.083	983.596	757.037
105.060	19.006	982.859	756.069
106.074	19.077	981.570	755.318
107.089	18.736	980.705	753.092
108.103	18.473	979.529	750.969
109.118	18.244	978.695	749.260
110.133	18.298	977.487	748.507
111.147	18.172	976.791	747.357
112.162	18.107	976.315	746.644
113.176	18.282	975.331	746.588
114.191	18.338	974.620	746.219
115.206	18.613	973.507	746.502
116.220	18.508	973.165	745.716
117.235	18.416	972.321	744.601
118.249	18.340	971.950	743.922
119.264	18.402	970.531	743.039
120.279	18.288	969.571	741.742
121.293	18.299	968.677	741.042
122.308	18.242	968.191	740.360
123.322	18.182	967.295	739.348
124.337	18.079	966.237	738.029
125.352	18.074	965.297	737.225
126.366	17.965	964.354	735.969
127.381	18.011	963.028	735.092
128.395	18.073	962.160	734.630
129.410	18.208	960.938	734.210
130.424	18.119	960.497	733.429
131.439	18.152	959.610	732.828
132.454	18.328	958.800	732.896
133.468	18.504	958.180	733.109
134.483	18.453	957.853	732.578
135.497	18.400	957.009	731.642
136.512	18.539	956.092	731.469
137.527	18.463	955.509	730.635
138.541	18.462	954.555	729.836
139.556	18.350	954.213	729.032
140.570	18.459	953.437	728.836
141.585	18.650	952.745	729.057
142.600	18.799	952.084	729.119
143.614	18.916	951.661	729.225
144.629	18.962	951.030	728.875
145.643	19.153	950.142	728.939
146.658	19.043	949.460	727.884
147.673	18.856	948.093	725.983
148.687	18.606	947.563	724.457
149.702	18.642	946.254	723.546
150.716	18.605	945.030	722.390
151.731	18.566	944.123	721.467
152.746	18.488	944.074	721.037
153.760	18.582	943.153	720.666
154.775	18.592	942.505	720.146
155.789	18.752	941.581	720.047
156.804	18.740	940.792	719.332
157.819	18.746	940.301	718.918
158.833	18.780	939.914	718.700
159.848	18.880	939.445	718.697
160.862	19.130	938.274	718.783
161.877	19.035	937.600	717.805
162.892	18.665	936.558	715.399
163.906	18.444	935.671	713.738
164.921	18.525	934.628	713.219
165.935	18.527	933.506	712.309
166.950	18.636	932.538	711.957
167.964	18.693	931.950	711.684
168.979	18.744	930.920	711.043
169.994	18.583	930.141	709.718
171.008	18.587	928.734	708.601
172.023	18.710	928.397	708.789
173.037	18.924	927.506	708.927
174.052	19.011	927.650	709.333
175.067	18.968	926.482	708.203
176.081	18.700	925.609	706.370
177.096	18.514	924.629	704.794
178.110	18.517	923.441	703.837
179.125	18.548	923.298	703.793
180.140	18.716	921.893	703.347
181.154	18.565	921.641	702.476
182.169	18.808	921.302	703.151
183.183	18.875	921.000	703.131
184.198	19.076	920.022	703.145
185.213	18.888	919.732	702.093
186.227	19.033	918.710	701.840
187.242	19.076	918.261	701.612
188.256	19.161	918.111	701.781
189.271	19.177	917.162	701.059
190.286	19.253	916.525	700.818
191.300	19.158	915.673	699.721
192.315	18.573	914.434	696.335
193.329	18.326	913.480	694.547
194.344	18.377	912.700	694.100
195.359	18.468	912.649	694.368
196.373	18.798	911.857	695.038
197.388	18.904	911.396	695.056
198.402	19.047	911.141	695.377
199.417	19.148	911.061	695.664
200.432	19.334	910.465	695.895
201.446	19.413	910.062	695.846
202.461	19.527	909.653	695.930
203.475	19.727	909.065	696.225
204.490	19.511	908.406	694.789
205.504	19.229	907.304	692.753
206.519	19.214	906.045	691.669
207.534	19.204	905.577	691.211
208.548	19.124	904.775	690.217
209.563	19.097	904.273	689.665
210.577	19.243	903.836	689.854
211.592	19.124	903.259	688.878
212.607	19.226	903.214	689.190
213.621	19.443	902.345	689.330
214.636	19.421	901.299	688.383
215.650	19.286	901.290	687.778
216.665	19.446	900.362	687.646
217.680	19.467	899.935	687.344
218.694	19.564	899.874	687.623
219.709	19.604	899.324	687.299
220.723	19.557	898.301	686.271
221.738	19.650	897.739	686.148
222.753	19.539	896.910	685.017
223.767	19.545	895.902	684.209
224.782	19.518	895.548	683.771
225.796	19.583	895.017	683.562
226.811	19.860	894.307	684.053
227.826	19.692	893.891	683.013
228.840	19.336	893.168	680.995
229.855	19.362	892.371	680.429
230.869	19.609	891.422	680.617
231.884	19.331	891.060	679.187
232.899	19.316	890.498	678.640
233.913	19.370	889.220	677.816
234.928	19.380	888.784	677.465
235.942	19.145	888.244	676.070
236.957	19.018	887.317	674.805
237.972	19.095	886.876	674.714
238.986	19.196	886.396	674.683
240.001	19.139	885.792	673.942
241.015	19.294	884.778	673.716
242.030	19.282	884.096	673.092
243.045	19.405	883.619	673.147
244.059	19.442	883.108	672.841
245.074	19.454	882.505	672.372
246.088	19.614	881.755	672.363
247.103	19.497	881.646	671.765
248.117	19.637	881.322	672.004
249.132	19.931	880.583	672.524
250.147	20.006	880.478	672.676
251.161	20.285	879.641	673.058
252.176	20.389	879.507	673.299
253.190	20.458	878.167	672.480
254.205	20.533	877.975	672.562
255.220	20.431	877.671	671.876
256.234	20.427	877.025	671.309
257.249	20.287	876.722	670.477
258.263	20.366	875.732	669.966
259.278	20.502	874.901	669.795
260.293	20.270	874.496	668.531
261.307	20.379	874.198	668.661
262.322	20.585	873.870	669.146
263.336	20.576	873.125	668.481
264.351	20.598	872.324	667.893
265.366	20.710	871.443	667.591
266.380	20.560	870.998	666.613
267.395	20.551	870.525	666.159
268.409	20.394	869.955	665.064
269.424	20.445	868.881	664.376
270.439	20.340	868.224	663.416
271.453	20.336	867.487	662.777
272.468	20.283	866.452	661.727
273.482	20.153	865.916	660.762
274.497	20.307	865.209	660.753
275.512	20.193	864.829	659.970
276.526	20.176	864.152	659.332
277.541	20.282	863.584	659.239
278.555	20.208	863.003	658.458
279.570	20.511	862.300	659.014
280.585	20.726	861.895	659.458
281.599	20.877	861.181	659.425
282.614	20.571	860.755	657.884
283.628	20.359	860.048	656.484
284.643	20.323	859.619	655.961
285.657	20.423	858.515	655.439
286.672	20.307	858.460	654.901
287.687	20.279	858.151	654.503
288.701	20.372	857.646	654.408
289.716	20.445	856.834	654.005
290.730	20.482	856.131	653.551
291.745	20.543	855.264	653.061
292.760	20.428	855.228	652.544
293.774	20.533	854.325	652.192
294.789	20.685	854.285	652.672
295.803	20.632	853.856	652.088
296.818	20.452	852.948	650.663
297.833	20.346	851.940	649.442
298.847	20.369	851.410	649.065
299.862	20.509	850.529	648.860
300.876	20.609	849.721	648.560
301.891	20.709	849.351	648.591
302.906	20.668	848.561	647.776
303.920	20.806	848.464	648.159
304.935	21.079	847.772	648.588
305.949	21.126	847.457	648.466
306.964	21.042	846.803	647.596
307.979	20.872	845.599	645.986
308.993	20.860	845.846	646.076
310.008	21.044	844.703	645.827
311.022	20.896	844.944	645.404
312.037	20.940	843.909	644.720
313.052	20.855	843.515	644.046
314.066	20.652	842.603	642.544
315.081	20.548	841.716	641.426
316.095	20.445	841.379	640.733
317.110	20.450	840.616	640.115
318.125	20.511	840.277	640.025
319.139	20.593	839.587	639.744
320.154	20.585	839.130	639.310
321.168	20.533	838.794	638.805
322.183	20.585	838.082	638.400
323.197	20.800	837.609	638.771
324.212	20.765	837.075	638.180
325.227	20.647	836.954	637.596
326.241	20.657	836.221	637.019
327.256	20.519	835.847	636.174
328.270	20.771	834.742	636.196
329.285	20.617	834.201	635.163
330.300	20.543	833.602	634.381
331.314	20.509	833.521	634.141
332.329	20.656	832.758	634.039
333.343	20.766	832.104	633.888
334.358	20.919	831.588	633.995
335.373	20.793	831.702	633.565
336.387	21.086	830.684	633.798
337.402	21.006	830.137	633.036
338.416	21.072	829.627	632.831
339.431	21.160	829.276	632.827
340.446	21.452	828.376	633.140
341.460	21.387	828.260	632.759
342.475	21.363	828.191	632.566
343.489	21.539	827.366	632.512
344.504	21.554	827.085	632.296
345.519	21.630	826.257	631.882
346.533	21.692	825.781	631.686
347.548	21.637	825.144	630.946
348.562	21.455	824.717	629.909
349.577	21.368	823.727	628.782
350.592	21.219	823.046	627.672
351.606	21.056	822.467	626.590
352.621	20.823	822.097	625.417
353.635	20.971	821.680	625.574
354.650	21.074	821.548	625.787
355.665	21.099	821.061	625.450
356.679	21.170	820.768	625.428
357.694	21.279	820.190	625.321
358.708	21.337	819.490	624.941
359.723	21.336	819.118	624.598
360.738	21.397	818.218	624.072
361.752	21.312	817.834	623.422
362.767	21.393	817.489	623.393
363.781	21.427	817.432	623.416
364.796	21.515	817.242	623.529
365.810	21.931	816.484	624.375
366.825	21.930	816.505	624.331
367.840	21.999	815.947	624.097
368.854	21.974	815.310	623.464
369.869	21.790	814.501	622.138
370.883	21.516	814.431	621.056
371.898	21.603	813.550	620.640
372.913	21.864	813.062	621.135
373.927	21.893	812.708	620.912
374.942	21.724	811.902	619.646
375.956	21.720	811.262	619.088
376.971	21.874	810.699	619.148
377.986	22.005	810.239	619.202
379.000	22.189	809.812	619.471
380.015	22.094	809.659	618.964
381.029	22.157	808.603	618.322
382.044	22.105	808.013	617.636
383.059	22.001	807.677	616.958
384.073	22.057	807.078	616.642
385.088	21.997	806.404	615.861
386.102	21.894	805.598	614.832
387.117	21.749	805.225	613.983
388.132	21.584	804.840	613.058
389.146	21.620	804.500	612.873
390.161	21.721	804.051	612.828
391.175	21.821	803.449	612.665
392.190	21.984	803.368	613.118
393.205	21.971	802.854	612.626
394.219	21.711	802.218	611.181
395.234	21.734	801.632	610.760
396.248	21.616	800.957	609.781
397.263	21.663	800.495	609.539
398.278	21.539	799.995	608.674
399.292	21.332	800.059	607.948
400.307	21.403	799.535	607.743
401.321	21.446	798.973	607.412
402.336	21.457	798.635	607.138
403.350	21.572	798.174	607.133
404.365	21.587	797.694	606.764
405.380	22.002	797.163	607.746
406.394	22.104	796.799	607.767
407.409	22.071	796.963	607.725
408.423	22.071	796.522	607.333
409.438	22.247	796.114	607.577
410.453	22.276	795.489	607.146
411.467	22.563	794.565	607.377
412.482	22.531	794.256	606.978
413.496	22.602	793.744	606.774
414.511	22.493	794.138	606.649
415.526	22.618	793.421	606.477
416.540	22.505	792.677	605.464
417.555	22.320	792.494	604.638
418.569	22.358	792.115	604.425
419.584	22.413	791.469	604.068
420.599	22.400	791.027	603.630
421.613	163.383	1368.287	1795.607
422.628	141.668	1452.396	1795.717
