DTS Sentinel unit serial number:	SN413079Multiplexer serial number:	ORYXHardware model number:	OX4-SRSoftware version number:	ORYX F/W v4.00 Oryx Data Collector v3.7.2.0data status	okinstallation	princeton_trtdifferential loss correction	single-endedforward channel	channel 3reverse channel	N/Adate	2019/09/18time	15:24:35forward acquisition time	60.00reverse acquisition time	0.00gamma	496.2192k internal	0.2300k external	0.2300temperature offset calibration	0.9981default loss term (dB/km)	0.3790temperature slope calibration	1.0000multiplexer offset coefficient	1.0000multiplexer slope coefficient	1.0000fibre end	0.00T internal ref (°C)	35.94T ext. ref 1 (°C)	0.76T ext. ref 2 (°C)	34.27length (m)	temperature (°C)	Stokes	anti-Stokes-747.200	-8.887	-0.326	0.223
-746.185	227.875	-0.240	0.399
-745.171	800.000	0.013	-0.039
-744.156	44.759	-0.112	0.105
-743.142	-124.050	0.094	0.015
-742.127	-119.024	-0.164	-0.029
-741.112	-124.654	0.393	-0.062
-740.098	84.356	-0.359	0.401
-739.083	800.000	-0.090	-0.267
-738.069	-18.693	-0.429	-0.273
-737.054	-200.000	-0.006	0.074
-736.039	-102.058	-0.219	0.054
-735.025	-152.360	0.307	-0.023
-734.010	-200.000	0.023	-0.325
-732.996	186.051	0.010	0.015
-731.981	704.904	-0.021	-0.056
-730.966	800.000	0.036	0.128
-729.952	-81.506	-0.119	0.040
-728.937	-98.847	0.236	-0.061
-727.923	-66.157	-0.185	0.075
-726.908	800.000	-0.059	-0.235
-725.894	-3.307	-0.172	0.122
-724.879	267.725	-0.030	0.053
-723.864	800.000	-0.084	0.271
-722.850	21.251	-0.154	-0.128
-721.835	604.379	-0.063	0.160
-720.821	-7.517	0.408	0.282
-719.806	177.237	0.093	0.138
-718.791	-63.417	-0.351	-0.147
-717.777	75.615	-0.151	-0.163
-716.762	-200.000	-0.002	0.039
-715.748	-120.168	-0.502	-0.088
-714.733	-158.598	-0.075	-0.004
-713.718	-85.731	-0.139	0.044
-712.704	-8.229	-0.208	-0.143
-711.689	197.092	0.155	0.241
-710.675	800.000	-0.086	-0.334
-709.660	-77.498	0.375	-0.132
-708.645	-125.953	0.148	-0.023
-707.631	-61.483	0.065	-0.028
-706.616	335.579	0.091	-0.179
-705.602	-141.795	0.178	-0.018
-704.587	-200.000	0.034	0.437
-703.572	-200.000	0.039	0.185
-702.558	800.000	0.032	0.101
-701.543	257.815	-0.060	0.106
-700.529	-175.494	-0.215	0.006
-699.514	-52.522	-0.198	-0.093
-698.499	-51.757	0.038	0.018
-697.485	227.327	-0.176	-0.291
-696.470	-123.836	0.252	0.041
-695.456	4.748	0.278	-0.208
-694.441	535.838	0.053	0.127
-693.426	-33.119	0.081	-0.046
-692.412	138.600	0.054	-0.073
-691.397	-121.321	0.190	0.032
-690.383	800.000	-0.041	0.119
-689.368	71.915	-0.058	-0.061
-688.354	-60.748	-0.076	0.033
-687.339	94.729	0.212	0.245
-686.324	416.048	0.084	-0.183
-685.310	-32.869	-0.105	0.059
-684.295	-63.050	-0.347	-0.146
-683.281	-200.000	-0.014	-0.110
-682.266	-103.885	-0.086	-0.020
-681.251	34.331	-0.309	0.275
-680.237	-32.277	0.054	0.031
-679.222	-118.529	-0.250	-0.045
-678.208	-200.000	0.018	0.224
-677.193	-200.000	-0.102	0.000
-676.178	166.812	-0.229	0.331
-675.164	-162.911	0.209	-0.010
-674.149	153.898	0.106	0.147
-673.135	-200.000	0.009	-0.204
-672.120	-27.194	-0.049	-0.029
-671.105	-93.398	-0.455	0.128
-670.091	429.217	-0.112	-0.245
-669.076	336.749	-0.084	-0.166
-668.062	450.312	0.088	0.198
-667.047	-200.000	0.015	0.081
-666.032	-79.024	-0.173	-0.060
-665.018	21.240	-0.105	-0.087
-664.003	-58.519	0.130	0.058
-662.989	512.359	-0.051	-0.120
-661.974	208.079	-0.147	-0.233
-660.959	5.089	-0.354	-0.265
-659.945	-114.606	-0.129	0.025
-658.930	65.238	-0.166	0.171
-657.916	334.552	0.158	-0.310
-656.901	-200.000	0.038	-0.436
-655.886	163.413	-0.177	-0.253
-654.872	-74.402	0.086	-0.031
-653.857	-119.922	0.273	0.048
-652.843	-32.355	-0.163	-0.092
-651.828	13.030	0.061	-0.048
-650.814	128.355	-0.058	-0.075
-649.799	-46.349	-0.289	-0.144
-648.784	-3.640	0.175	-0.124
-647.770	800.000	0.041	-0.143
-646.755	252.384	-0.084	0.146
-645.741	446.878	0.021	-0.048
-644.726	-59.548	-0.224	-0.098
-643.711	-200.000	-0.021	0.166
-642.697	800.000	0.148	0.496
-641.682	-173.909	-0.169	0.005
-640.668	-77.070	-0.353	-0.125
-639.653	104.625	-0.124	-0.148
-638.638	17.061	-0.394	0.318
-637.624	97.184	0.218	0.254
-636.609	-91.582	-0.225	-0.065
-635.595	800.000	-0.086	-0.264
-634.580	-73.877	-0.447	-0.165
-633.565	-147.221	-0.182	0.016
-632.551	800.000	0.014	-0.040
-631.536	-112.447	-0.295	-0.060
-630.522	-100.536	0.189	-0.048
-629.507	468.766	0.129	-0.294
-628.492	-182.487	-0.181	-0.003
-627.478	104.517	0.105	0.126
-626.463	-11.735	-0.189	0.126
-625.449	800.000	-0.020	0.078
-624.434	-9.035	-0.359	-0.244
-623.419	82.343	-0.032	0.035
-622.405	-200.000	0.025	0.329
-621.390	32.119	-0.153	0.134
-620.376	-11.089	0.276	-0.185
-619.361	-119.728	0.123	-0.021
-618.346	-200.000	-0.003	0.028
-617.332	-137.675	0.063	0.007
-616.317	-36.542	-0.168	0.092
-615.303	295.123	-0.158	0.294
-614.288	-33.002	0.155	-0.087
-613.273	-122.796	0.135	-0.022
-612.259	-51.168	0.115	-0.055
-611.244	800.000	-0.023	-0.088
-610.230	-104.524	-0.240	-0.056
-609.215	-200.000	-0.008	0.364
-608.201	800.000	-0.018	-0.067
-607.186	163.819	-0.099	-0.142
-606.171	-86.174	0.190	0.059
-605.157	-200.000	0.044	-0.241
-604.142	-200.000	-0.017	-0.734
-603.128	800.000	-0.033	0.114
-602.113	800.000	0.065	-0.199
-601.098	626.308	-0.126	-0.323
-600.084	-200.000	0.013	-0.088
-599.069	-84.220	0.296	0.095
-598.055	-35.733	-0.292	0.161
-597.040	-200.000	0.034	0.298
-596.025	-83.444	-0.215	-0.070
-595.011	0.162	-0.164	-0.119
-593.996	-200.000	-0.047	0.264
-592.982	-200.000	0.004	-0.086
-591.967	-134.666	-0.252	-0.031
-590.952	45.307	0.125	-0.117
-589.938	143.331	-0.311	-0.419
-588.923	312.768	-0.141	-0.269
-587.909	18.289	0.042	0.034
-586.894	-200.000	-0.021	0.254
-585.879	800.000	-0.046	0.188
-584.865	300.458	0.070	-0.131
-583.850	338.734	-0.022	-0.044
-582.836	-26.645	0.225	0.133
-581.821	89.399	-0.057	-0.064
-580.806	413.510	-0.115	0.248
-579.792	162.397	-0.164	0.233
-578.777	422.688	-0.121	-0.262
-577.763	-93.574	0.153	-0.043
-576.748	-2.113	0.175	-0.124
-575.733	489.425	0.073	0.169
-574.719	800.000	0.093	0.407
-573.704	-140.009	0.141	-0.015
-572.690	800.000	-0.064	-0.232
-571.675	-200.000	-0.040	0.219
-570.661	800.000	-0.087	-0.260
-569.646	-200.000	-0.030	0.205
-568.631	-13.429	-0.490	0.322
-567.617	20.586	0.224	0.183
-566.602	139.567	0.083	0.111
-565.588	-111.639	-0.114	0.023
-564.573	-200.000	0.004	0.136
-563.558	272.227	-0.069	-0.123
-562.544	-200.000	0.006	0.051
-561.529	-1.206	0.304	0.217
-560.515	212.520	-0.046	0.074
-559.500	258.829	0.052	-0.092
-558.485	800.000	-0.024	-0.068
-557.471	30.223	0.298	-0.258
-556.456	459.263	-0.069	-0.155
-555.442	-200.000	0.008	0.091
-554.427	-23.886	0.307	0.186
-553.412	-103.095	0.331	-0.079
-552.398	-76.963	-0.106	-0.038
-551.383	-148.706	-0.338	0.028
-550.369	-53.525	-0.158	0.073
-549.354	-53.617	-0.178	-0.082
-548.339	22.381	0.177	0.147
-547.325	-22.449	-0.258	0.158
-546.310	-112.329	0.407	-0.083
-545.296	-102.404	0.494	0.120
-544.281	800.000	-0.016	0.066
-543.266	-70.290	0.122	-0.047
-542.252	-184.384	-0.195	-0.003
-541.237	89.204	-0.189	0.213
-540.223	-52.205	-0.148	-0.069
-539.208	1.143	-0.227	-0.165
-538.193	-200.000	-0.053	0.310
-537.179	66.645	0.134	-0.138
-536.164	84.684	-0.231	-0.256
-535.150	77.798	-0.198	0.214
-534.135	-122.063	-0.258	-0.043
-533.121	-200.000	-0.062	-0.000
-532.106	-150.336	0.231	0.018
-531.091	606.819	-0.115	0.290
-530.077	-191.041	0.138	-0.001
-529.062	433.844	0.056	-0.123
-528.048	-157.751	-0.291	-0.017
-527.033	-63.696	0.202	0.084
-526.018	-54.185	-0.116	-0.053
-525.004	-135.149	-0.355	-0.043
-523.989	-100.308	-0.116	0.029
-522.975	-28.735	0.089	0.052
-521.960	-88.111	-0.239	0.072
-520.945	-200.000	-0.020	0.149
-519.931	800.000	-0.081	-0.335
-518.916	0.021	-0.141	0.102
-517.902	800.000	-0.073	-0.288
-516.887	-48.310	-0.085	-0.041
-515.872	-129.104	-0.144	-0.020
-514.858	203.808	-0.182	0.285
-513.843	220.535	-0.123	0.199
-512.829	51.848	0.051	0.049
-511.814	-94.931	0.113	-0.031
-510.799	12.116	-0.265	-0.206
-509.785	236.213	-0.178	-0.298
-508.770	171.472	0.095	-0.138
-507.756	53.010	0.216	-0.209
-506.741	-55.263	0.257	0.117
-505.726	-30.756	-0.282	0.161
-504.712	122.645	0.180	-0.227
-503.697	-191.765	-0.250	-0.002
-502.683	-86.483	-0.261	-0.081
-501.668	31.932	-0.170	0.148
-500.653	-182.922	0.137	-0.002
-499.639	-88.480	0.298	-0.090
-498.624	514.243	-0.010	-0.023
-497.610	-77.799	0.129	0.045
-496.595	-47.629	0.337	-0.165
-495.581	235.550	0.093	-0.155
-494.566	-53.975	-0.054	-0.025
-493.551	-67.291	0.247	-0.098
-492.537	-11.501	0.089	-0.059
-491.522	-70.465	0.208	0.080
-490.508	-200.000	0.009	-0.232
-489.493	-73.862	-0.070	-0.026
-488.478	179.065	0.143	0.211
-487.464	800.000	0.042	-0.146
-486.449	295.827	0.079	-0.146
-485.435	-35.215	-0.228	-0.125
-484.420	84.939	-0.145	0.161
-483.405	-200.000	-0.022	-0.199
-482.391	800.000	-0.087	0.333
-481.376	800.000	-0.043	0.130
-480.362	47.768	-0.453	0.427
-479.347	-74.828	0.143	0.052
-478.332	800.000	0.021	0.091
-477.318	-127.486	0.218	0.032
-476.303	-97.690	-0.213	0.056
-475.289	134.025	-0.123	-0.161
-474.274	-200.000	0.041	0.206
-473.259	800.000	0.123	0.358
-472.245	-193.874	-0.118	-0.001
-471.230	753.569	0.065	-0.177
-470.216	50.652	0.214	-0.204
-469.201	800.000	0.061	0.199
-468.186	-49.509	0.375	-0.180
-467.172	800.000	-0.050	-0.221
-466.157	80.059	-0.048	0.052
-465.143	-200.000	-0.063	-0.349
-464.128	51.915	0.187	-0.179
-463.113	-129.841	-0.220	0.030
-462.099	229.903	0.126	-0.207
-461.084	-3.836	-0.031	-0.022
-460.070	23.521	0.085	0.071
-459.055	191.255	-0.227	-0.345
-458.040	-34.867	-0.430	-0.237
-457.026	-67.730	0.390	0.154
-456.011	196.230	-0.175	-0.269
-454.997	486.711	-0.051	-0.117
-453.982	-200.000	-0.016	-0.300
-452.968	227.235	-0.073	0.120
-451.953	-100.981	0.154	-0.038
-450.938	104.935	0.018	0.021
-449.924	-54.745	-0.417	0.190
-448.909	-200.000	0.019	-0.240
-447.895	304.388	0.185	0.345
-446.880	-145.221	0.502	-0.046
-445.865	800.000	0.041	-0.133
-444.851	-76.964	-0.104	-0.037
-443.836	800.000	0.170	-0.487
-442.822	31.343	0.102	-0.089
-441.807	-163.750	0.350	-0.017
-440.792	-127.012	0.179	-0.027
-439.778	800.000	0.087	-0.251
-438.763	-200.000	-0.029	-0.193
-437.749	-62.446	-0.117	-0.049
-436.734	445.405	-0.018	-0.039
-435.719	-104.802	0.073	-0.017
-434.705	-194.735	-0.249	0.002
-433.690	-81.144	-0.158	-0.052
-432.676	-200.000	0.079	0.426
-431.661	-132.863	0.351	-0.045
-430.646	-200.000	0.001	0.118
-429.632	-180.483	-0.336	0.007
-428.617	-83.644	-0.114	-0.037
-427.603	229.228	-0.246	-0.405
-426.588	-164.168	-0.127	-0.006
-425.573	-24.890	0.219	0.131
-424.559	44.854	0.253	0.235
-423.544	-21.041	0.256	-0.158
-422.530	584.659	0.064	-0.159
-421.515	14.194	-0.321	0.252
-420.500	302.392	0.182	-0.339
-419.486	-0.856	-0.155	0.110
-418.471	352.437	-0.194	-0.387
-417.457	-52.915	0.269	0.125
-416.442	-57.302	-0.267	0.118
-415.428	86.669	-0.194	0.216
-414.413	25.811	0.313	0.263
-413.398	800.000	0.026	0.113
-412.384	-96.420	0.134	-0.036
-411.369	-200.000	-0.004	0.179
-410.355	254.271	-0.190	-0.327
-409.340	52.858	0.214	-0.206
-408.325	-87.676	0.309	-0.094
-407.311	161.285	-0.016	-0.023
-406.296	153.261	0.261	0.360
-405.282	-8.031	-0.136	0.092
-404.267	-200.000	-0.011	-0.112
-403.252	157.107	0.198	0.276
-402.238	-200.000	-0.022	-0.178
-401.223	-89.968	-0.258	0.076
-400.209	115.983	0.135	0.167
-399.194	229.232	0.080	0.132
-398.179	-200.000	0.044	0.223
-397.165	-124.757	-0.093	0.014
-396.150	-42.990	-0.301	-0.154
-395.136	-193.103	-0.046	-0.000
-394.121	-169.612	0.092	-0.003
-393.106	-98.897	0.170	-0.043
-392.092	24.216	0.094	0.078
-391.077	-200.000	0.016	0.238
-390.063	-107.508	0.429	-0.095
-389.048	-79.766	0.297	0.100
-388.033	3.977	-0.180	0.132
-387.019	182.781	0.134	0.200
-386.004	14.197	-0.170	-0.133
-384.990	800.000	-0.052	0.193
-383.975	534.839	0.063	-0.150
-382.960	-10.582	-0.186	0.124
-381.946	-84.302	0.135	0.043
-380.931	-148.339	-0.132	-0.011
-379.917	-57.713	-0.199	-0.088
-378.902	800.000	-0.006	-0.017
-377.888	-200.000	-0.060	-0.264
-376.873	-185.747	-0.258	0.004
-375.858	-123.670	-0.157	0.025
-374.844	800.000	-0.063	-0.249
-373.829	18.427	0.101	0.081
-372.815	800.000	0.088	-0.341
-371.800	-117.796	0.187	0.034
-370.785	17.101	0.056	0.045
-369.771	-73.891	0.190	0.069
-368.756	-70.035	0.252	0.096
-367.742	-64.868	0.424	-0.172
-366.727	-200.000	-0.032	-0.180
-365.712	-85.832	0.291	0.091
-364.698	144.169	-0.140	-0.188
-363.683	800.000	-0.122	-0.342
-362.669	-176.351	0.087	0.002
-361.654	-72.851	-0.259	-0.096
-360.639	-36.728	0.271	0.146
-359.625	41.653	0.078	0.071
-358.610	-196.272	-0.123	-0.001
-357.596	13.283	-0.212	-0.165
-356.581	162.927	0.111	-0.157
-355.566	-200.000	0.004	0.062
-354.552	-23.248	0.269	-0.163
-353.537	74.491	0.136	-0.143
-352.523	-86.437	-0.344	-0.106
-351.508	140.269	-0.086	0.115
-350.493	111.782	-0.333	-0.403
-349.479	-200.000	0.032	0.167
-348.464	800.000	0.120	-0.342
-347.450	-120.074	-0.220	-0.038
-346.435	310.430	-0.145	-0.273
-345.420	236.602	-0.016	0.027
-344.406	-27.341	0.244	0.143
-343.391	35.407	0.088	-0.078
-342.377	800.000	-0.044	-0.158
-341.362	800.000	0.031	-0.126
-340.348	55.320	0.121	-0.118
-339.333	-153.375	0.440	0.031
-338.318	352.191	-0.063	0.125
-337.304	-77.040	0.296	-0.104
-336.289	-158.528	0.318	0.018
-335.275	800.000	-0.050	0.199
-334.260	-34.718	-0.259	-0.142
-333.245	-154.884	0.307	0.020
-332.231	-200.000	-0.009	0.042
-331.216	-86.391	-0.554	0.171
-330.202	3.929	0.129	0.094
-329.187	247.322	-0.107	0.181
-328.172	-121.454	0.109	-0.018
-327.158	-70.524	-0.257	0.098
-326.143	429.929	0.185	0.402
-325.129	21.567	0.286	0.234
-324.114	432.181	-0.062	0.135
-323.099	-60.496	-0.259	0.110
-322.085	-169.585	-0.245	0.009
-321.070	40.068	0.097	0.087
-320.056	-66.514	0.149	-0.059
-319.041	-200.000	-0.009	0.152
-318.026	-23.859	0.222	0.133
-317.012	-67.283	0.188	0.074
-315.997	370.445	0.075	0.153
-314.983	637.804	0.082	-0.209
-313.968	127.934	-0.354	-0.452
-312.953	127.683	0.076	-0.097
-311.939	-12.913	-0.098	-0.064
-310.924	-80.210	-0.242	-0.081
-309.910	498.004	-0.186	-0.429
-308.895	800.000	0.105	-0.364
-307.880	17.669	-0.198	0.158
-306.866	101.973	0.101	-0.119
-305.851	-86.992	-0.195	0.060
-304.837	-36.221	0.238	0.129
-303.822	-60.583	0.253	-0.108
-302.807	104.286	0.063	0.074
-301.793	-200.000	0.028	-0.143
-300.778	-98.095	-0.118	-0.030
-299.764	-200.000	0.002	-0.178
-298.749	-76.191	0.097	-0.034
-297.735	53.608	-0.301	-0.290
-296.720	218.087	-0.054	0.087
-295.705	-200.000	-0.023	-0.126
-294.691	-61.516	-0.208	0.088
-293.676	-200.000	0.015	-0.086
-292.662	800.000	0.074	0.245
-291.647	-200.000	0.026	0.190
-290.632	-16.692	0.236	-0.150
-289.618	135.448	-0.090	-0.117
-288.603	5.681	0.114	0.084
-287.589	800.000	-0.044	0.183
-286.574	120.049	0.105	-0.130
-285.559	-46.732	0.140	-0.069
-284.545	-176.210	0.357	0.009
-283.530	-46.774	0.105	0.052
-282.516	-4.590	0.113	-0.078
-281.501	-164.592	0.166	-0.008
-280.486	-80.471	-0.239	0.080
-279.472	800.000	-0.130	0.490
-278.457	-144.203	0.243	0.023
-277.443	-93.024	0.262	-0.073
-276.428	-200.000	-0.006	-0.062
-275.413	-86.972	-0.103	0.031
-274.399	726.683	0.050	-0.135
-273.384	-153.107	-0.099	-0.007
-272.370	-175.323	0.225	-0.006
-271.355	288.217	-0.061	-0.110
-270.340	800.000	-0.037	-0.145
-269.326	-66.198	0.302	-0.120
-268.311	-131.935	0.302	0.039
-267.297	800.000	0.090	0.327
-266.282	726.702	0.072	-0.192
-265.267	-200.000	0.042	-0.270
-264.253	-200.000	0.007	-0.086
-263.238	-22.835	-0.097	0.059
-262.224	152.616	0.102	0.140
-261.209	40.396	-0.083	0.075
-260.195	249.423	-0.213	0.361
-259.180	-111.358	0.243	-0.050
-258.165	-167.791	-0.087	0.003
-257.151	142.133	-0.136	0.180
-256.136	289.329	0.072	0.130
-255.122	-35.386	-0.104	0.057
-254.107	-83.952	-0.040	-0.013
-253.092	-108.829	0.090	-0.019
-252.078	-1.049	0.117	-0.083
-251.063	31.772	-0.061	0.052
-250.049	775.937	-0.099	0.270
-249.034	-200.000	0.007	-0.109
-248.019	-200.000	0.067	0.397
-247.005	-43.568	-0.239	0.121
-245.990	-112.540	-0.310	-0.062
-244.976	723.444	0.115	-0.307
-243.961	800.000	-0.036	0.114
-242.946	-200.000	0.016	0.158
-241.932	-87.135	-0.238	0.072
-240.917	-200.000	0.003	-0.080
-239.903	76.330	0.069	0.073
-238.888	-75.749	0.208	0.074
-237.873	-77.427	0.146	-0.051
-236.859	434.388	0.108	-0.235
-235.844	98.669	0.050	-0.057
-234.830	-200.000	-0.008	-0.192
-233.815	-200.000	0.012	0.116
-232.800	-90.776	0.174	-0.050
-231.786	-200.000	0.004	-0.208
-230.771	138.691	-0.048	0.063
-229.757	-2.938	-0.018	0.012
-228.742	84.843	-0.130	0.142
-227.727	-200.000	0.003	0.049
-226.713	-27.314	-0.105	-0.061
-225.698	98.250	-0.270	0.311
-224.684	-200.000	-0.019	0.137
-223.669	402.042	0.151	0.318
-222.655	533.401	0.072	-0.171
-221.640	-87.579	0.161	-0.049
-220.625	147.411	-0.135	-0.181
-219.611	-143.614	-0.379	-0.036
-218.596	-200.000	0.025	0.330
-217.582	121.285	-0.265	0.330
-216.567	-125.064	0.054	-0.008
-215.552	10.056	-0.277	0.210
-214.538	-1.274	0.188	-0.133
-213.523	42.178	-0.188	0.171
-212.509	676.932	-0.067	0.174
-211.494	440.288	-0.109	-0.237
-210.479	-86.372	0.251	0.077
-209.465	318.507	-0.034	-0.064
-208.450	-200.000	0.004	0.141
-207.436	-200.000	-0.003	-0.332
-206.421	88.830	0.062	-0.069
-205.406	-200.000	0.004	-0.085
-204.392	301.539	0.117	-0.216
-203.377	800.000	-0.103	-0.301
-202.363	285.856	0.188	0.338
-201.348	-200.000	0.013	0.058
-200.333	147.301	0.235	-0.316
-199.319	-200.000	0.001	0.110
-198.304	400.732	-0.070	0.146
-197.290	29.862	-0.010	0.009
-196.275	-200.000	0.049	-0.339
-195.260	-176.632	0.144	-0.004
-194.246	423.765	0.170	0.365
-193.231	-67.625	-0.327	0.128
-192.217	58.514	-0.074	-0.073
-191.202	142.966	0.134	0.179
-190.187	4.851	-0.124	-0.091
-189.173	-200.000	-0.004	0.066
-188.158	-92.970	0.282	-0.079
-187.144	-63.605	-0.076	0.031
-186.129	-73.682	0.280	0.102
-185.114	-122.075	0.235	0.038
-184.100	92.114	0.078	0.087
-183.085	800.000	-0.067	-0.272
-182.071	-145.743	0.210	-0.019
-181.056	8.152	-0.189	-0.141
-180.042	-20.559	-0.187	0.115
-179.027	-97.132	-0.155	0.040
-178.012	467.661	0.084	0.187
-176.998	443.480	0.070	0.153
-175.983	156.842	0.198	0.273
-174.969	569.839	0.068	0.166
-173.954	-43.208	0.495	-0.250
-172.939	-200.000	0.000	0.362
-171.925	62.459	-0.190	0.190
-170.910	132.315	-0.088	0.113
-169.896	232.776	0.045	0.074
-168.881	-83.638	0.141	0.045
-167.866	-126.996	-0.232	-0.034
-166.852	251.004	0.107	0.181
-165.837	61.518	-0.179	0.177
-164.823	-200.000	0.043	-0.394
-163.808	-43.633	-0.145	0.073
-162.793	-163.617	-0.083	0.004
-161.779	152.832	0.055	0.075
-160.764	223.742	0.087	0.140
-159.750	-41.021	0.230	0.119
-158.735	-150.412	0.092	-0.007
-157.720	48.228	-0.106	-0.099
-156.706	-15.155	-0.071	0.045
-155.691	800.000	-0.066	0.250
-154.677	-36.040	-0.109	-0.059
-153.662	-91.206	0.051	-0.015
-152.647	800.000	-0.062	0.180
-151.633	61.090	0.229	0.226
-150.618	-50.883	0.136	0.064
-149.604	146.562	-0.094	0.126
-148.589	-200.000	0.025	0.227
-147.574	-200.000	-0.054	-0.314
-146.560	3.986	-0.247	-0.180
-145.545	310.375	-0.105	-0.195
-144.531	13.142	0.079	-0.061
-143.516	355.792	0.146	0.291
-142.502	-153.306	0.280	0.019
-141.487	800.000	-0.107	-0.373
-140.472	-200.000	0.012	-0.160
-139.458	23.864	-0.089	-0.073
-138.443	157.214	-0.017	-0.023
-137.429	36.228	0.114	-0.100
-136.414	193.050	0.162	-0.244
-135.399	138.487	0.069	0.090
-134.385	6.665	0.201	-0.149
-133.370	113.732	0.276	0.334
-132.356	800.000	-0.054	0.163
-131.341	219.144	-0.043	-0.069
-130.326	800.000	-0.090	-0.280
-129.312	800.000	0.058	0.206
-128.297	445.779	0.150	-0.328
-127.283	-200.000	0.069	-0.316
-126.268	-200.000	0.018	0.397
-125.253	451.022	-0.094	0.208
-124.239	156.986	-0.116	0.160
-123.224	800.000	-0.090	0.271
-122.210	-19.904	0.259	-0.159
-121.195	-8.321	-0.228	-0.153
-120.180	-200.000	0.046	0.254
-119.166	-91.987	0.090	-0.025
-118.151	-132.008	-0.191	0.025
-117.137	-78.379	-0.280	-0.096
-116.122	244.924	-0.201	-0.336
-115.107	-200.000	0.023	-0.118
-114.093	800.000	0.048	0.178
-113.078	226.533	0.095	0.153
-112.064	-26.683	-0.124	-0.072
-111.049	259.731	-0.075	-0.128
-110.034	-63.377	-0.207	0.085
-109.020	-22.254	-0.211	0.127
-108.005	-107.315	-0.126	0.027
-106.991	-111.762	0.216	-0.043
-105.976	135.164	-0.232	0.299
-104.962	66.820	-0.236	0.239
-103.947	-73.636	0.244	-0.089
-102.932	664.144	0.050	-0.128
-101.918	-64.088	0.080	0.032
-100.903	800.000	-0.114	0.469
-99.889	-101.394	0.203	-0.049
-98.874	-61.011	0.108	-0.045
-97.859	723.538	0.072	0.192
-96.845	800.000	0.047	0.196
-95.830	-88.324	-0.186	-0.055
-94.816	277.345	0.072	0.128
-93.801	27.821	0.356	-0.298
-92.786	-80.491	0.203	-0.067
-91.772	108.163	-0.206	-0.244
-90.757	-126.701	0.038	0.006
-89.743	-200.000	-0.019	-0.254
-88.728	-155.640	0.243	-0.016
-87.713	139.224	-0.210	-0.274
-86.699	-13.952	-0.118	-0.076
-85.684	800.000	0.033	0.112
-84.670	496.442	0.098	0.224
-83.655	52.098	0.269	-0.255
-82.640	-26.919	0.127	0.074
-81.626	563.809	-0.094	0.227
-80.611	-155.485	-0.307	-0.020
-79.597	-53.691	-0.150	-0.068
-78.582	-119.190	-0.224	-0.039
-77.567	-149.936	0.039	0.003
-76.553	306.251	0.090	0.166
-75.538	2.741	0.177	-0.127
-74.524	127.521	0.092	0.117
-73.509	-63.523	-0.195	0.080
-72.494	-200.000	0.009	0.191
-71.480	23.031	0.118	-0.096
-70.465	800.000	0.025	-0.092
-69.451	186.566	0.164	-0.242
-68.436	191.607	-0.222	0.333
-67.422	-20.363	0.292	-0.178
-66.407	426.330	-0.135	0.289
-65.392	7.043	-0.302	-0.224
-64.378	-40.124	0.276	-0.143
-63.363	524.407	-0.085	-0.198
-62.349	-169.001	-0.319	-0.012
-61.334	104.550	-0.799	-0.935
-60.319	69.284	0.348	0.355
-59.305	749.045	-0.285	-0.762
-58.290	148.743	0.980	1.316
-57.276	800.000	0.424	1.439
-56.261	-200.000	90.759	516.156
-55.246	454.285	1422.031	3127.966
-54.232	143.258	2633.957	3480.681
-53.217	109.237	2253.576	2678.335
-52.203	45.629	1772.602	1626.049
-51.188	38.760	1575.778	1396.723
-50.173	36.418	1547.359	1355.077
-49.159	53.541	1594.657	1518.830
-48.144	57.025	1614.306	1562.327
-47.130	39.471	1571.753	1397.984
-46.115	36.257	1556.191	1361.457
-45.100	35.945	1552.740	1356.189
-44.086	35.966	1550.871	1354.646
-43.071	35.889	1549.028	1352.442
-42.057	35.868	1547.506	1350.912
-41.042	35.854	1546.149	1349.577
-40.027	35.899	1544.545	1348.436
-39.013	35.923	1542.878	1347.096
-37.998	35.871	1541.855	1345.786
-36.984	35.910	1540.278	1344.631
-35.969	35.925	1538.644	1343.255
-34.954	35.974	1537.349	1342.410
-33.940	35.831	1536.304	1340.453
-32.925	35.954	1534.716	1339.868
-31.911	35.930	1533.194	1338.318
-30.896	35.932	1531.820	1337.077
-29.881	35.952	1530.802	1336.275
-28.867	36.080	1528.708	1335.284
-27.852	35.989	1527.302	1333.369
-26.838	36.095	1525.492	1332.475
-25.823	36.046	1524.385	1331.111
-24.809	35.977	1522.584	1329.009
-23.794	35.947	1521.268	1327.604
-22.779	35.999	1520.191	1326.972
-21.765	35.911	1519.678	1325.865
-20.750	35.994	1517.974	1324.897
-19.736	35.948	1516.753	1323.457
-18.721	35.953	1515.607	1322.440
-17.706	35.944	1514.750	1321.581
-16.692	36.017	1513.188	1320.668
-15.677	35.940	1512.506	1319.493
-14.663	35.932	1511.447	1318.459
-13.648	35.884	1510.753	1317.474
-12.633	35.866	1509.690	1316.367
-11.619	35.955	1508.591	1315.971
-10.604	35.892	1507.878	1314.865
-9.590	35.903	1506.811	1313.958
-8.575	35.887	1505.827	1312.938
-7.560	35.954	1505.038	1312.654
-6.546	35.923	1503.934	1311.429
-5.531	35.871	1502.773	1310.011
-4.517	35.851	1501.901	1309.059
-3.502	35.713	1501.507	1307.727
-2.487	35.843	1499.793	1307.066
-1.473	36.006	1498.125	1306.668
-0.458	35.937	1497.501	1305.603
0.556	35.289	1488.776	1298.082
1.571	33.142	1463.827	1261.908
2.586	29.680	1399.724	1184.401
3.600	26.864	1312.674	1093.692
4.615	24.504	1262.785	1038.326
5.629	20.375	1203.901	966.876
6.644	10.488	1113.767	843.228
7.659	2.244	1068.736	767.780
8.673	0.898	1062.731	756.673
9.688	0.707	1059.875	753.620
10.702	0.756	1058.320	752.690
11.717	0.699	1056.713	751.201
12.731	3.385	1059.194	766.266
13.746	12.075	1071.346	818.536
14.761	17.822	1078.115	852.427
15.775	17.765	1077.167	851.320
16.790	16.996	1075.151	845.819
17.804	15.949	1073.141	838.948
18.819	14.995	1071.138	832.561
19.834	14.621	1069.224	829.146
20.848	14.375	1068.520	827.303
21.863	14.002	1067.792	824.816
22.877	13.754	1067.040	822.930
23.892	13.583	1066.336	821.471
24.907	13.484	1065.185	820.019
25.921	13.523	1064.514	819.621
26.936	13.479	1064.179	819.073
27.950	13.578	1063.146	818.695
28.965	13.662	1062.272	818.366
29.980	13.657	1061.416	817.609
30.994	13.716	1060.410	817.050
32.009	13.825	1059.179	816.567
33.023	13.817	1058.652	816.050
34.038	13.800	1058.315	815.636
35.053	13.786	1057.140	814.590
36.067	13.782	1056.237	813.800
37.082	13.718	1055.376	812.754
38.096	13.661	1055.190	812.256
39.111	13.677	1054.261	811.547
40.126	13.739	1052.999	810.807
41.140	13.714	1052.118	809.936
42.155	13.694	1051.327	809.157
43.169	13.585	1049.927	807.476
44.184	13.494	1048.893	806.170
45.199	13.547	1047.828	805.538
46.213	13.548	1046.969	804.809
47.228	13.587	1045.929	804.126
48.242	13.523	1045.212	803.195
49.257	13.695	1043.885	802.936
50.271	13.632	1043.179	802.019
51.286	13.661	1042.370	801.466
52.301	13.562	1041.526	800.266
53.315	13.683	1040.222	799.778
54.330	13.564	1039.976	798.946
55.344	13.538	1038.819	797.858
56.359	13.405	1038.010	796.526
57.374	13.494	1036.762	795.926
58.388	13.563	1036.169	795.733
59.403	13.543	1035.444	795.013
60.417	13.469	1034.579	793.922
61.432	13.627	1033.579	793.840
62.447	13.441	1033.302	792.665
63.461	13.429	1032.465	791.898
64.476	13.362	1031.708	790.928
65.490	13.464	1030.665	790.543
66.505	13.508	1029.578	789.851
67.520	13.547	1028.620	789.231
68.534	13.541	1028.230	788.835
69.549	13.526	1027.286	787.966
70.563	13.437	1026.590	786.942
71.578	13.539	1026.055	786.947
72.593	13.545	1024.740	785.895
73.607	13.490	1024.020	785.015
74.622	13.462	1023.107	784.110
75.636	13.461	1022.439	783.524
76.651	13.406	1021.592	782.547
77.666	13.382	1020.711	781.689
78.680	13.460	1019.800	781.291
79.695	13.459	1019.683	781.126
80.709	13.458	1018.805	780.382
81.724	13.503	1018.027	779.929
82.739	13.433	1017.623	779.221
83.753	13.554	1016.640	778.968
84.768	13.544	1015.818	778.224
85.782	13.721	1014.878	778.263
86.797	13.728	1014.050	777.592
87.812	13.711	1013.392	776.938
88.826	13.586	1012.494	775.596
89.841	13.574	1012.091	775.164
90.855	13.683	1010.951	774.732
91.870	13.530	1010.213	773.384
92.884	13.694	1009.493	773.528
93.899	13.676	1008.933	772.948
94.914	13.670	1008.201	772.289
95.928	13.784	1007.386	772.129
96.943	13.732	1006.530	771.160
97.957	13.714	1006.035	770.630
98.972	13.794	1004.759	769.954
99.987	13.729	1003.917	768.942
101.001	13.746	1002.987	768.238
102.016	13.722	1002.569	767.741
103.030	13.743	1001.437	766.905
104.045	13.695	1000.603	765.974
105.060	13.732	999.524	765.251
106.074	13.740	998.428	764.383
107.089	13.662	997.500	763.245
108.103	13.620	997.121	762.696
109.118	13.559	996.215	761.651
110.133	13.446	995.724	760.688
111.147	13.552	994.096	759.865
112.162	13.603	993.549	759.615
113.176	13.579	992.592	758.706
114.191	13.667	991.428	758.150
115.206	13.620	990.772	757.367
116.220	13.670	990.161	757.064
117.235	13.724	989.029	756.375
118.249	13.564	988.295	755.017
119.264	13.714	987.362	754.920
120.279	13.500	986.898	753.527
121.293	13.614	985.641	753.020
122.308	13.675	984.715	752.521
123.322	13.588	984.071	751.568
124.337	13.556	983.421	750.859
125.352	13.521	982.327	749.799
126.366	13.426	981.231	748.469
127.381	13.652	979.539	748.130
128.395	13.572	979.004	747.293
129.410	13.604	977.707	746.382
130.424	13.625	976.755	745.683
131.439	13.628	976.012	745.066
132.454	13.601	975.282	744.318
133.468	13.576	974.682	743.684
134.483	13.651	974.058	743.479
135.497	13.664	972.945	742.620
136.512	13.676	972.454	742.236
137.527	13.680	971.595	741.531
138.541	13.622	970.916	740.689
139.556	13.722	969.833	740.243
140.570	13.681	969.144	739.471
141.585	13.681	968.358	738.803
142.600	13.844	967.361	738.705
143.614	13.746	966.820	737.787
144.629	13.841	966.008	737.525
145.643	13.820	965.302	736.829
146.658	13.787	964.684	736.143
147.673	13.604	963.583	734.430
148.687	13.740	962.490	734.133
149.702	13.670	962.023	733.400
150.716	13.690	960.908	732.577
151.731	13.635	960.011	731.582
152.746	13.783	959.293	731.623
153.760	13.702	958.521	730.615
154.775	13.673	957.814	729.883
155.789	13.636	957.404	729.342
156.804	13.856	956.215	729.340
157.819	13.845	955.300	728.529
158.833	13.869	954.926	728.285
159.848	13.889	954.363	727.880
160.862	13.835	953.537	726.948
161.877	13.958	952.669	726.759
162.892	13.735	952.371	725.495
163.906	13.773	951.093	724.620
164.921	13.818	950.165	724.046
165.935	13.736	949.634	723.219
166.950	13.664	948.999	722.359
167.964	13.920	947.611	722.353
168.979	13.955	946.374	721.495
169.994	13.953	945.111	720.463
171.008	14.021	944.771	720.435
172.023	13.906	943.739	719.086
173.037	13.930	943.545	718.976
174.052	14.082	942.192	718.542
175.067	13.898	941.922	717.474
176.081	13.958	940.799	716.815
177.096	13.931	939.901	715.953
178.110	13.836	939.513	715.182
179.125	13.895	938.575	714.661
180.140	13.949	937.993	714.385
181.154	13.842	937.101	713.185
182.169	13.894	936.675	713.021
183.183	14.018	935.875	712.880
184.198	14.053	935.210	712.459
185.213	14.027	934.481	711.729
186.227	14.043	933.638	711.093
187.242	14.102	933.385	711.090
188.256	14.131	932.731	710.651
189.271	14.280	931.622	710.382
190.286	14.193	931.257	709.670
191.300	14.128	930.139	708.476
192.315	13.988	929.712	707.492
193.329	14.031	929.073	707.127
194.344	14.007	928.400	706.452
195.359	13.916	928.184	705.837
196.373	14.228	926.868	706.097
197.388	14.143	926.700	705.546
198.402	14.124	926.393	705.169
199.417	14.291	925.599	705.212
200.432	14.385	925.253	705.284
201.446	14.305	924.961	704.661
202.461	14.343	924.510	704.412
203.475	14.486	923.912	704.501
204.490	14.282	923.215	703.046
205.504	14.316	922.286	702.420
206.519	14.393	921.215	701.865
207.534	14.339	920.845	701.295
208.548	14.484	919.780	701.030
209.563	14.333	919.289	699.960
210.577	14.338	918.764	699.518
211.592	14.286	918.124	698.750
212.607	14.271	917.637	698.257
213.621	14.483	916.717	698.381
214.636	14.517	916.043	697.949
215.650	14.571	915.489	697.691
216.665	14.513	914.781	696.850
217.680	14.450	914.595	696.379
218.694	14.541	913.741	696.047
219.709	14.622	913.246	695.948
220.723	14.665	912.460	695.469
221.738	14.595	912.281	694.977
222.753	14.510	911.429	693.913
223.767	14.580	910.880	693.726
224.782	14.647	910.016	693.286
225.796	14.692	908.867	692.536
226.811	14.694	908.246	692.008
227.826	14.619	907.812	691.303
228.840	14.641	907.123	690.811
229.855	14.670	906.256	690.209
230.869	14.645	905.438	689.423
231.884	14.691	905.142	689.323
232.899	14.625	904.504	688.505
233.913	14.697	903.727	688.148
234.928	14.614	902.909	687.123
235.942	14.537	902.149	686.170
236.957	14.586	901.512	685.827
237.972	14.718	900.573	685.593
238.986	14.705	900.405	685.349
240.001	14.815	899.373	684.955
241.015	14.783	898.507	684.102
242.030	14.649	898.219	683.276
243.045	14.692	897.502	682.845
244.059	14.810	897.070	682.938
245.074	14.874	896.296	682.549
246.088	14.760	895.720	681.587
247.103	14.859	895.166	681.506
248.117	14.710	894.763	680.533
249.132	14.920	894.122	680.839
250.147	14.866	893.709	680.247
251.161	15.109	892.269	680.079
252.176	15.001	891.594	679.064
253.190	15.077	891.017	678.874
254.205	15.284	890.022	678.893
255.220	15.104	889.842	677.966
256.234	15.159	889.280	677.699
257.249	15.228	888.825	677.572
258.263	15.193	888.146	676.856
259.278	15.174	887.806	676.459
260.293	15.234	887.018	676.039
261.307	15.401	886.301	676.105
262.322	15.339	885.634	675.290
263.336	15.303	884.958	674.568
264.351	15.414	884.510	674.615
265.366	15.328	884.155	673.936
266.380	15.239	883.776	673.232
267.395	15.352	882.730	672.830
268.409	15.398	881.852	672.284
269.424	15.279	881.411	671.410
270.439	15.457	880.306	671.222
271.453	15.511	879.558	670.811
272.468	15.263	879.359	669.606
273.482	15.206	878.726	668.838
274.497	15.215	878.140	668.367
275.512	15.438	876.811	668.185
276.526	15.354	876.632	667.656
277.541	15.578	875.436	667.575
278.555	15.413	875.509	666.919
279.570	15.452	874.656	666.364
280.585	15.600	874.041	666.425
281.599	15.650	873.354	666.038
282.614	15.591	872.800	665.325
283.628	15.501	872.329	664.551
284.643	15.508	871.797	664.113
285.657	15.503	871.270	663.634
286.672	15.650	870.460	663.538
287.687	15.584	870.039	662.896
288.701	15.728	869.360	662.888
289.716	15.644	869.058	662.268
290.730	15.564	868.580	661.533
291.745	15.639	867.909	661.257
292.760	15.595	867.118	660.422
293.774	15.752	865.912	660.062
294.789	15.820	865.399	659.877
295.803	15.700	865.308	659.281
296.818	15.764	864.177	658.612
297.833	15.611	863.980	657.805
298.847	15.844	862.914	657.846
299.862	15.768	862.318	657.037
300.876	15.830	861.826	656.843
301.891	15.770	861.010	655.931
302.906	15.813	860.606	655.733
303.920	15.877	859.908	655.393
304.935	15.839	859.438	654.828
305.949	16.013	858.419	654.668
306.964	16.069	857.954	654.476
307.979	16.169	856.909	654.008
308.993	16.019	856.653	653.174
310.008	16.046	856.420	653.043
311.022	16.023	855.809	652.431
312.037	16.076	855.349	652.225
313.052	16.118	854.757	651.881
314.066	15.987	854.111	650.823
315.081	16.031	853.251	650.278
316.095	15.954	852.937	649.685
317.110	15.915	852.429	649.092
318.125	15.936	851.753	648.598
319.139	16.085	851.330	648.794
320.154	16.033	850.932	648.233
321.168	16.102	850.184	647.873
322.183	16.011	849.884	647.234
323.197	16.074	849.357	647.019
324.212	16.182	848.624	646.816
325.227	16.093	848.282	646.158
326.241	16.091	847.609	645.579
327.256	16.222	846.928	645.504
328.270	16.208	846.274	644.898
329.285	16.114	845.924	644.213
330.300	16.262	844.996	644.016
331.314	16.296	844.283	643.543
332.329	16.199	844.204	643.058
333.343	16.233	843.520	642.610
334.358	16.293	842.696	642.152
335.373	16.377	842.197	642.035
336.387	16.291	841.910	641.432
337.402	16.292	841.219	640.853
338.416	16.384	840.768	640.801
339.431	16.314	840.430	640.222
340.446	16.313	839.734	639.630
341.460	16.426	838.938	639.395
342.475	16.455	838.564	639.162
343.489	16.483	837.834	638.658
344.504	16.604	836.942	638.378
345.519	16.566	836.575	637.899
346.533	16.518	836.324	637.467
347.548	16.641	835.463	637.218
348.562	16.607	834.951	636.644
349.577	16.590	834.416	636.115
350.592	16.525	834.246	635.686
351.606	16.342	833.903	634.679
352.621	16.497	833.125	634.613
353.635	16.610	832.803	634.735
354.650	16.575	832.247	634.127
355.665	16.615	831.736	633.828
356.679	16.493	831.754	633.329
357.694	16.702	831.058	633.527
358.708	16.752	830.441	633.185
359.723	16.620	830.086	632.367
360.738	16.604	829.701	631.958
361.752	16.839	828.545	631.899
362.767	16.835	828.322	631.657
363.781	16.648	828.242	630.844
364.796	16.759	827.542	630.668
365.810	16.834	826.826	630.346
366.825	16.975	826.380	630.473
367.840	16.914	826.049	629.938
368.854	16.944	825.731	629.753
369.869	16.989	825.294	629.530
370.883	16.850	824.775	628.563
371.898	16.858	824.319	628.190
372.913	16.796	823.603	627.358
373.927	16.933	823.022	627.368
374.942	16.887	822.498	626.741
375.956	16.970	821.759	626.431
376.971	16.989	821.012	625.875
377.986	17.088	820.585	625.859
379.000	17.126	819.978	625.480
380.015	17.156	819.620	625.263
381.029	17.084	819.407	624.780
382.044	17.163	818.371	624.225
383.059	17.196	817.847	623.891
384.073	17.143	817.605	623.457
385.088	17.240	816.803	623.148
386.102	17.220	816.467	622.763
387.117	17.022	816.012	621.635
388.132	17.243	815.423	621.938
389.146	17.245	814.825	621.435
390.161	17.294	814.481	621.295
391.175	17.183	814.419	620.788
392.190	17.200	813.854	620.366
393.205	17.207	813.495	620.062
394.219	17.364	812.470	619.797
395.234	17.290	812.526	619.518
396.248	17.215	811.878	618.695
397.263	17.287	811.344	618.496
398.278	17.416	810.651	618.381
399.292	17.252	810.526	617.637
400.307	17.217	810.040	617.082
401.321	17.237	809.930	617.017
402.336	17.263	809.370	616.628
403.350	17.200	809.306	616.298
404.365	17.392	808.363	616.220
405.380	17.420	807.891	615.909
406.394	17.368	807.547	615.403
407.409	17.490	806.739	615.176
408.423	17.470	806.693	615.013
409.438	17.552	806.219	614.892
410.453	17.549	805.748	614.467
411.467	17.388	805.768	613.850
412.482	17.705	804.624	614.066
413.496	17.431	804.299	612.777
414.511	17.731	803.698	613.341
415.526	17.657	803.644	612.981
416.540	17.670	803.078	612.543
417.555	17.559	803.279	612.242
418.569	17.721	802.245	611.980
419.584	17.694	801.585	611.325
420.599	17.785	801.253	611.347
421.613	101.912	1280.913	1432.668
422.628	87.478	1350.806	1432.793
