DTS Sentinel unit serial number:	SN413079Multiplexer serial number:	ORYXHardware model number:	OX4-SRSoftware version number:	ORYX F/W v4.00 Oryx Data Collector v3.7.2.0data status	okinstallation	princeton_trtdifferential loss correction	single-endedforward channel	channel 3reverse channel	N/Adate	2019/09/16time	03:44:34forward acquisition time	60.00reverse acquisition time	0.00gamma	496.2192k internal	0.2334k external	0.2334temperature offset calibration	0.9954default loss term (dB/km)	0.3790temperature slope calibration	1.0000multiplexer offset coefficient	1.0000multiplexer slope coefficient	1.0000fibre end	0.00T internal ref (°C)	27.56T ext. ref 1 (°C)	10.64T ext. ref 2 (°C)	21.69length (m)	temperature (°C)	Stokes	anti-Stokes-747.200	439.982	-0.141	0.309
-746.185	800.000	-0.097	-0.328
-745.171	385.848	0.322	0.669
-744.156	-87.524	-0.292	0.089
-743.142	-118.344	0.286	-0.051
-742.127	-128.591	-0.116	-0.017
-741.112	341.005	0.061	-0.120
-740.098	113.354	-0.166	0.202
-739.083	800.000	-0.048	-0.173
-738.069	-200.000	-0.004	0.203
-737.054	338.053	0.126	-0.247
-736.039	-154.253	-0.228	-0.015
-735.025	333.398	0.051	0.099
-734.010	-200.000	-0.049	-0.334
-732.996	25.274	-0.136	-0.114
-731.981	-160.781	-0.255	-0.014
-730.966	73.062	0.190	0.199
-729.952	223.266	-0.194	-0.315
-728.937	-200.000	0.030	-0.342
-727.923	55.549	-0.171	0.167
-726.908	-109.334	-0.219	-0.047
-725.894	-196.866	0.286	0.002
-724.879	43.743	0.152	-0.140
-723.864	78.208	0.185	-0.198
-722.850	-175.075	0.299	0.008
-721.835	-200.000	0.006	0.051
-720.821	224.284	0.099	0.161
-719.806	-200.000	-0.001	-0.343
-718.791	80.773	0.065	-0.070
-717.777	800.000	0.084	-0.323
-716.762	-74.875	0.250	-0.090
-715.748	-200.000	0.015	-0.160
-714.733	102.365	-0.461	-0.541
-713.718	-70.768	-0.336	-0.127
-712.704	-69.519	-0.240	0.092
-711.689	-96.922	0.263	0.069
-710.675	-107.698	0.081	0.018
-709.660	625.234	-0.075	-0.189
-708.645	-50.066	0.276	0.131
-707.631	-128.802	0.415	0.059
-706.616	36.717	-0.183	-0.162
-705.602	-84.596	-0.264	-0.084
-704.587	-200.000	0.035	-0.336
-703.572	535.244	0.067	-0.160
-702.558	-200.000	0.025	-0.171
-701.543	-115.432	-0.106	-0.020
-700.529	-200.000	0.001	-0.232
-699.514	-41.655	-0.333	-0.171
-698.499	99.956	0.116	0.134
-697.485	-169.091	0.096	-0.004
-696.470	-65.673	-0.163	0.065
-695.456	493.843	-0.144	0.333
-694.441	-12.682	-0.307	0.201
-693.426	-123.061	-0.328	-0.053
-692.412	800.000	-0.039	0.155
-691.397	-76.769	0.106	-0.037
-690.383	-200.000	0.015	0.125
-689.368	116.446	-0.030	-0.037
-688.354	-200.000	-0.022	0.104
-687.339	800.000	0.069	0.223
-686.324	-53.591	0.175	0.080
-685.310	197.231	-0.048	-0.074
-684.295	-169.218	0.229	0.009
-683.281	-65.340	-0.256	0.103
-682.266	35.862	-0.111	0.098
-681.251	80.174	-0.133	0.143
-680.237	49.754	0.115	-0.109
-679.222	-116.836	0.079	-0.014
-678.208	259.131	0.130	-0.225
-677.193	800.000	-0.064	-0.256
-676.178	-200.000	0.041	-0.323
-675.164	-92.757	0.310	-0.087
-674.149	240.172	-0.044	-0.074
-673.135	34.299	-0.145	0.127
-672.120	63.884	0.084	-0.084
-671.105	21.416	0.076	-0.062
-670.091	76.522	0.178	0.189
-669.076	78.424	-0.282	0.302
-668.062	454.463	-0.185	-0.411
-667.047	-49.842	-0.212	0.101
-666.032	73.727	0.212	0.223
-665.018	-100.543	0.383	-0.095
-664.003	28.956	0.094	-0.080
-662.989	74.439	0.109	0.115
-661.974	38.608	-0.116	-0.103
-660.959	131.431	0.048	-0.062
-659.945	152.807	0.034	0.047
-658.930	-82.019	-0.164	0.054
-657.916	-116.164	0.056	-0.010
-656.901	364.015	-0.181	-0.364
-655.886	-200.000	-0.046	-0.244
-654.872	-48.259	0.207	-0.100
-653.857	800.000	0.123	-0.345
-652.843	-129.004	-0.122	-0.017
-651.828	145.183	0.147	0.197
-650.814	387.776	-0.117	0.242
-649.799	-154.429	0.094	-0.006
-648.784	-136.852	0.152	-0.018
-647.770	446.369	-0.228	0.501
-646.755	-128.401	-0.311	-0.044
-645.741	-26.963	0.109	0.064
-644.726	-50.098	-0.227	-0.108
-643.711	-52.969	0.159	-0.073
-642.697	389.813	-0.071	0.147
-641.682	-200.000	-0.018	-0.182
-640.668	-25.199	-0.102	-0.061
-639.653	28.170	-0.092	-0.078
-638.638	-200.000	-0.005	-0.324
-637.624	-200.000	-0.046	-0.220
-636.609	351.599	-0.053	-0.104
-635.595	-200.000	-0.013	0.193
-634.580	-113.637	-0.303	0.059
-633.565	-1.023	0.044	0.031
-632.551	-200.000	-0.014	0.101
-631.536	92.929	-0.220	-0.248
-630.522	800.000	0.083	0.334
-629.507	-200.000	-0.045	0.215
-628.492	800.000	-0.021	-0.060
-627.478	168.499	0.199	0.284
-626.463	-153.050	-0.389	0.027
-625.449	-132.480	-0.319	0.041
-624.434	-147.983	-0.244	0.020
-623.419	50.910	-0.012	0.011
-622.405	238.313	0.092	0.152
-621.390	-98.319	0.536	-0.137
-620.376	-52.985	-0.216	0.099
-619.361	145.386	-0.093	0.124
-618.346	160.920	0.072	0.100
-617.332	-200.000	-0.005	-0.200
-616.317	-200.000	0.023	-0.175
-615.303	61.306	0.052	0.052
-614.288	-78.243	0.153	0.052
-613.273	11.020	-0.094	-0.072
-612.259	-54.179	-0.156	-0.071
-611.244	-40.292	0.303	0.157
-610.230	-84.032	0.120	-0.038
-609.215	18.089	-0.181	-0.145
-608.201	800.000	-0.030	-0.085
-607.186	245.255	0.089	-0.150
-606.171	-105.333	-0.288	0.066
-605.157	-200.000	-0.004	-0.471
-604.142	800.000	-0.049	0.143
-603.128	800.000	-0.095	-0.402
-602.113	139.047	-0.171	-0.225
-601.098	-100.410	-0.114	0.028
-600.084	85.872	-0.098	-0.108
-599.069	-97.203	0.216	0.056
-598.055	83.907	0.122	-0.133
-597.040	-135.101	0.202	-0.024
-596.025	-44.474	0.110	-0.055
-595.011	800.000	-0.064	-0.180
-593.996	-0.778	-0.027	0.019
-592.982	-170.837	-0.170	0.006
-591.967	-200.000	-0.053	0.239
-590.952	172.313	-0.109	-0.156
-589.938	-91.255	0.166	0.047
-588.923	362.819	-0.137	-0.274
-587.909	109.965	-0.101	0.121
-586.894	-107.678	-0.383	-0.084
-585.879	-93.151	0.346	0.096
-584.865	380.460	-0.087	0.177
-583.850	-200.000	-0.031	-0.323
-582.836	182.253	-0.143	-0.211
-581.821	108.050	0.193	-0.230
-580.806	241.801	-0.077	0.129
-579.792	-200.000	0.026	-0.269
-578.777	-104.571	-0.426	-0.098
-577.763	384.577	-0.073	-0.151
-576.748	157.187	0.141	0.194
-575.733	-200.000	0.008	0.125
-574.719	-200.000	-0.025	0.247
-573.704	800.000	-0.111	0.419
-572.690	-91.781	-0.074	-0.021
-571.675	800.000	-0.107	-0.378
-570.661	124.205	-0.216	0.272
-569.646	-36.109	0.028	0.015
-568.631	800.000	0.112	0.404
-567.617	-41.292	0.209	0.107
-566.602	78.572	0.189	-0.201
-565.588	111.584	0.198	0.239
-564.573	-194.077	-0.168	0.001
-563.558	-152.520	-0.406	0.029
-562.544	511.021	-0.067	-0.154
-561.529	-42.158	-0.239	0.122
-560.515	108.022	0.015	0.018
-559.500	-200.000	0.063	0.289
-558.485	-200.000	-0.039	0.264
-557.471	150.429	0.081	-0.110
-556.456	-132.251	-0.214	0.028
-555.442	-23.026	0.181	0.109
-554.427	-37.475	0.122	0.065
-553.412	-200.000	-0.000	-0.039
-552.398	46.069	-0.022	0.020
-551.383	-73.988	-0.055	-0.020
-550.369	45.437	0.238	0.219
-549.354	-113.727	-0.222	0.043
-548.339	-7.263	0.205	-0.138
-547.325	196.172	0.121	-0.184
-546.310	413.252	-0.071	-0.150
-545.296	456.380	-0.041	-0.090
-544.281	111.564	0.072	-0.087
-543.266	800.000	-0.067	-0.267
-542.252	36.833	0.371	0.327
-541.237	23.997	-0.079	0.065
-540.223	73.290	0.090	-0.094
-539.208	-200.000	-0.006	-0.260
-538.193	682.355	-0.127	0.331
-537.179	120.166	-0.224	-0.277
-536.164	373.348	-0.057	-0.116
-535.150	-23.955	0.392	0.234
-534.135	-97.540	0.280	-0.073
-533.121	-200.000	0.011	-0.102
-532.106	-200.000	0.014	-0.146
-531.091	-76.185	-0.477	0.168
-530.077	100.045	0.131	-0.151
-529.062	-200.000	-0.009	0.139
-528.048	-3.087	0.379	0.264
-527.033	-151.911	-0.062	0.005
-526.018	-200.000	-0.032	-0.189
-525.004	800.000	0.083	-0.235
-523.989	16.941	0.203	-0.160
-522.975	-121.275	-0.146	-0.024
-521.960	-200.000	-0.018	-0.317
-520.945	122.319	0.133	0.165
-519.931	261.441	-0.112	-0.193
-518.916	-200.000	-0.034	-0.160
-517.902	41.096	0.234	-0.211
-516.887	116.674	0.157	0.192
-515.872	-3.922	0.120	0.083
-514.858	39.193	0.144	-0.128
-513.843	-200.000	-0.031	0.218
-512.829	-14.005	-0.130	-0.084
-511.814	5.321	-0.133	0.097
-510.799	175.265	0.048	0.069
-509.785	-8.194	-0.197	-0.132
-508.770	12.443	0.119	-0.091
-507.756	-26.785	0.453	-0.263
-506.741	-22.320	-0.107	0.064
-505.726	-200.000	-0.000	-0.088
-504.712	11.377	0.239	0.182
-503.697	23.704	0.032	0.026
-502.683	800.000	0.077	0.236
-501.668	-83.920	0.332	-0.105
-500.653	43.848	0.085	-0.077
-499.639	0.705	-0.272	0.194
-498.624	298.626	-0.079	-0.144
-497.610	-46.239	0.210	-0.103
-496.595	800.000	0.039	0.148
-495.581	125.663	-0.197	-0.248
-494.566	-200.000	0.027	0.137
-493.551	800.000	-0.080	0.318
-492.537	-200.000	-0.077	-0.372
-491.522	58.197	-0.260	0.254
-490.508	-93.128	0.102	-0.028
-489.493	42.107	-0.067	-0.061
-488.478	-79.567	-0.370	-0.124
-487.464	-149.649	0.168	-0.013
-486.449	115.964	0.061	0.074
-485.435	-8.813	0.117	0.078
-484.420	-106.040	-0.146	-0.033
-483.405	-41.862	-0.375	0.191
-482.391	-200.000	-0.021	0.141
-481.376	-146.441	0.154	0.013
-480.362	221.426	-0.107	-0.171
-479.347	-165.899	-0.197	-0.008
-478.332	-200.000	-0.019	-0.116
-477.318	800.000	-0.092	-0.317
-476.303	800.000	0.081	-0.329
-475.289	-63.679	0.339	-0.138
-474.274	-46.412	0.219	0.107
-473.259	-81.642	-0.404	0.132
-472.245	800.000	0.120	-0.383
-471.230	226.327	0.184	-0.297
-470.216	-200.000	-0.004	0.226
-469.201	800.000	0.112	0.320
-468.186	-1.883	-0.311	-0.218
-467.172	-116.832	0.466	0.085
-466.157	244.406	0.039	-0.065
-465.143	-200.000	-0.027	-0.208
-464.128	-113.115	0.115	0.022
-463.113	-107.580	0.164	-0.036
-462.099	-95.741	0.048	0.013
-461.084	-200.000	0.013	0.114
-460.070	197.722	0.022	0.034
-459.055	-200.000	0.017	-0.245
-458.040	61.479	0.076	0.076
-457.026	-133.182	0.239	-0.030
-456.011	142.072	-0.154	-0.203
-454.997	-69.549	-0.205	0.078
-453.982	289.642	-0.023	0.041
-452.968	-38.420	0.199	0.105
-451.953	800.000	-0.069	0.264
-450.938	-139.353	-0.058	-0.006
-449.924	163.681	0.074	0.103
-448.909	77.754	-0.240	0.254
-447.895	-96.410	0.436	-0.115
-446.880	-99.146	-0.359	-0.090
-445.865	-97.526	0.015	0.004
-444.851	-200.000	0.027	-0.136
-443.836	506.070	0.052	0.119
-442.822	-73.435	-0.185	0.067
-441.807	17.510	-0.148	0.117
-440.792	223.844	-0.069	-0.110
-439.778	-118.879	-0.093	-0.016
-438.763	-200.000	-0.005	-0.060
-437.749	389.684	0.060	0.123
-436.734	245.378	-0.103	-0.173
-435.719	50.569	-0.145	-0.136
-434.705	-148.427	0.294	0.024
-433.690	-200.000	0.063	0.325
-432.676	-99.755	0.398	-0.099
-431.661	-200.000	0.093	-0.414
-430.646	800.000	-0.094	-0.310
-429.632	-85.791	0.218	-0.067
-428.617	-137.632	0.245	-0.027
-427.603	51.041	0.125	-0.117
-426.588	-74.195	0.070	0.025
-425.573	234.547	0.058	0.095
-424.559	-200.000	-0.030	-0.196
-423.544	617.389	0.158	0.394
-422.530	-18.142	-0.095	0.059
-421.515	76.586	0.203	-0.213
-420.500	-103.438	0.165	-0.039
-419.486	-200.000	0.047	-0.240
-418.471	-83.139	0.265	-0.085
-417.457	800.000	-0.046	-0.156
-416.442	65.276	-0.121	0.121
-415.428	-200.000	-0.048	0.349
-414.413	163.995	-0.224	0.313
-413.398	-88.125	-0.256	0.076
-412.384	800.000	-0.059	-0.245
-411.369	168.746	0.113	-0.159
-410.355	-121.144	-0.254	0.042
-409.340	-84.471	-0.507	0.159
-408.325	261.036	0.092	-0.158
-407.311	-200.000	-0.004	0.277
-406.296	-200.000	-0.020	0.289
-405.282	-42.293	0.113	-0.057
-404.267	353.442	0.129	-0.253
-403.252	-94.169	-0.024	-0.006
-402.238	800.000	0.056	-0.232
-401.223	800.000	0.078	-0.295
-400.209	194.782	-0.091	-0.136
-399.194	-84.906	0.506	0.157
-398.179	395.779	-0.161	0.334
-397.165	-71.140	0.293	0.109
-396.150	-200.000	-0.048	0.292
-395.136	-71.034	-0.543	0.203
-394.121	-200.000	-0.021	0.276
-393.106	-30.636	0.400	0.224
-392.092	-124.506	-0.417	-0.064
-391.077	-117.124	0.318	0.057
-390.063	-143.694	-0.201	0.019
-389.048	-10.834	0.146	-0.096
-388.033	800.000	-0.020	-0.064
-387.019	-119.641	0.379	-0.065
-386.004	-54.511	0.191	0.086
-384.990	44.602	0.124	-0.113
-383.975	214.251	-0.069	0.108
-382.960	-91.406	-0.120	-0.034
-381.946	-148.865	0.040	-0.003
-380.931	-86.509	0.292	-0.089
-379.917	108.278	-0.196	-0.231
-378.902	417.808	-0.073	-0.154
-377.888	800.000	0.023	-0.068
-376.873	121.555	-0.235	0.290
-375.858	800.000	0.118	-0.349
-374.844	-121.998	0.090	-0.015
-373.829	-200.000	-0.036	0.206
-372.815	-104.226	0.096	-0.022
-371.800	147.757	0.084	0.113
-370.785	-78.317	-0.297	0.101
-369.771	-92.097	-0.236	-0.066
-368.756	191.087	-0.096	0.144
-367.742	80.463	0.219	-0.233
-366.727	-168.611	0.345	0.013
-365.712	428.719	0.045	-0.097
-364.698	65.197	-0.185	0.185
-363.683	-67.478	-0.100	0.039
-362.669	-101.000	0.097	-0.024
-361.654	95.233	0.163	0.184
-360.639	800.000	0.083	0.236
-359.625	-133.507	0.501	-0.062
-358.610	-152.081	-0.049	0.004
-357.596	-200.000	-0.037	-0.303
-356.581	-15.485	-0.025	0.016
-355.566	128.327	0.214	-0.269
-354.552	230.416	-0.240	-0.389
-353.537	50.735	-0.050	0.047
-352.523	298.422	-0.111	-0.202
-351.508	-200.000	0.019	0.088
-350.493	409.558	-0.165	-0.346
-349.479	26.213	-0.348	0.288
-348.464	-33.205	-0.116	-0.063
-347.450	73.792	0.265	0.275
-346.435	-27.862	0.212	0.121
-345.420	800.000	0.049	0.147
-344.406	-177.466	0.414	0.010
-343.391	800.000	0.024	-0.076
-342.377	224.379	-0.208	0.332
-341.362	-83.017	0.087	-0.028
-340.348	-107.341	0.075	0.016
-339.333	136.303	-0.084	0.108
-338.318	-0.724	0.224	-0.157
-337.304	-140.871	-0.212	0.022
-336.289	800.000	-0.040	-0.132
-335.275	272.829	0.055	0.096
-334.260	-128.732	-0.256	-0.036
-333.245	-107.354	-0.067	0.015
-332.231	-72.388	0.132	-0.048
-331.216	276.771	0.091	0.160
-330.202	441.910	0.175	-0.380
-329.187	34.436	0.101	0.087
-328.172	139.506	0.087	-0.114
-327.158	-200.000	-0.007	-0.130
-326.143	-200.000	-0.013	-0.398
-325.129	27.909	0.228	0.190
-324.114	29.754	-0.357	0.301
-323.099	800.000	-0.017	0.070
-322.085	38.918	-0.264	0.233
-321.070	-119.314	0.130	-0.022
-320.056	-9.134	-0.198	0.131
-319.041	431.577	-0.091	0.195
-318.026	-18.353	0.171	-0.106
-317.012	-99.416	-0.153	0.038
-315.997	221.396	0.189	0.301
-314.983	125.457	0.118	0.147
-313.968	-25.216	-0.045	0.027
-312.953	405.298	-0.041	0.086
-311.939	80.882	0.116	-0.124
-310.924	-200.000	0.018	0.182
-309.910	-200.000	0.033	0.241
-308.895	-180.128	-0.175	-0.004
-307.880	-200.000	0.020	-0.104
-306.866	-194.496	-0.351	-0.003
-305.851	-152.439	0.201	-0.014
-304.837	-200.000	-0.051	0.251
-303.822	800.000	0.063	0.191
-302.807	-105.150	-0.230	-0.052
-301.793	-158.678	0.082	-0.005
-300.778	48.157	-0.154	-0.142
-299.764	-200.000	-0.027	0.196
-298.749	-200.000	-0.011	-0.227
-297.735	-119.545	-0.230	-0.039
-296.720	-114.102	-0.333	0.064
-295.705	800.000	-0.048	0.201
-294.691	-106.574	0.428	0.094
-293.676	1.806	-0.229	-0.163
-292.662	85.683	0.169	-0.183
-291.647	-200.000	0.017	0.118
-290.632	96.949	-0.090	0.101
-289.618	49.556	0.173	0.161
-288.603	595.500	0.138	0.336
-287.589	173.003	0.044	0.062
-286.574	-29.337	0.109	-0.062
-285.559	-46.913	-0.130	-0.063
-284.545	-167.528	-0.125	0.005
-283.530	800.000	-0.065	0.188
-282.516	-128.974	0.325	-0.045
-281.501	-95.643	-0.103	0.027
-280.486	243.804	0.082	0.135
-279.472	-200.000	-0.022	0.297
-278.457	-27.063	0.140	0.081
-277.443	174.404	-0.163	-0.232
-276.428	75.307	0.127	-0.133
-275.413	-200.000	-0.043	-0.213
-274.399	-200.000	0.010	0.167
-273.384	-110.356	0.235	-0.048
-272.370	800.000	-0.168	0.463
-271.355	596.413	0.052	-0.127
-270.340	87.839	0.113	-0.123
-269.326	74.141	-0.116	-0.120
-268.311	20.580	-0.359	0.286
-267.297	66.988	-0.129	0.130
-266.282	-54.464	0.269	-0.120
-265.267	-200.000	-0.041	-0.246
-264.253	-91.190	-0.129	-0.037
-263.238	-26.664	-0.205	0.119
-262.224	-61.018	0.192	0.080
-261.209	-86.341	0.226	-0.069
-260.195	-200.000	0.074	0.395
-259.180	-63.654	0.153	0.062
-258.165	-200.000	-0.012	0.088
-257.151	800.000	-0.109	0.352
-256.136	800.000	0.023	0.066
-255.122	-110.618	0.452	-0.092
-254.107	206.411	-0.221	-0.340
-253.092	800.000	0.040	-0.147
-252.078	-60.750	-0.124	-0.052
-251.063	384.235	0.147	0.298
-250.049	544.720	-0.109	-0.257
-249.034	-200.000	0.032	-0.279
-248.019	302.121	0.165	-0.300
-247.005	335.461	0.161	0.308
-245.990	800.000	-0.073	0.199
-244.976	-141.838	-0.307	-0.030
-243.961	6.090	-0.246	-0.180
-242.946	-200.000	-0.054	-0.311
-241.932	143.572	-0.115	-0.151
-240.917	-200.000	-0.005	-0.074
-239.903	800.000	0.132	0.415
-238.888	800.000	0.125	-0.341
-237.873	714.115	0.095	-0.247
-236.859	20.304	-0.180	0.143
-235.844	203.315	0.031	-0.047
-234.830	-9.729	0.221	-0.145
-233.815	-18.197	-0.133	-0.082
-232.800	-103.867	-0.249	-0.057
-231.786	76.246	-0.302	0.315
-230.771	-122.925	0.325	-0.052
-229.757	800.000	0.072	-0.200
-228.742	474.202	0.071	-0.157
-227.727	-58.473	0.180	-0.077
-226.713	-37.945	0.050	0.026
-225.698	492.929	-0.129	-0.292
-224.684	800.000	-0.033	-0.107
-223.669	39.416	-0.137	-0.121
-222.655	-200.000	-0.003	0.106
-221.640	-114.890	-0.182	-0.034
-220.625	-200.000	0.017	0.136
-219.611	-200.000	-0.018	0.426
-218.596	-170.666	-0.659	-0.022
-217.582	-200.000	-0.019	0.118
-216.567	-64.352	0.287	0.115
-215.552	-200.000	-0.009	-0.184
-214.538	-6.792	0.049	0.033
-213.523	11.547	-0.161	-0.121
-212.509	-200.000	-0.054	0.303
-211.494	-101.943	0.438	0.104
-210.479	149.750	-0.153	-0.204
-209.465	51.424	-0.112	0.105
-208.450	-200.000	0.006	-0.090
-207.436	752.832	-0.026	-0.069
-206.421	139.551	-0.084	-0.108
-205.406	52.710	-0.291	-0.274
-204.392	3.999	-0.196	0.141
-203.377	8.693	0.336	0.249
-202.363	800.000	-0.073	0.272
-201.348	-200.000	0.036	0.205
-200.333	41.996	-0.069	-0.062
-199.319	116.579	-0.176	-0.212
-198.304	-45.238	-0.248	0.121
-197.290	80.690	-0.130	-0.138
-196.275	-200.000	-0.035	-0.355
-195.260	36.593	-0.115	-0.100
-194.246	-64.501	0.143	-0.057
-193.231	-140.639	-0.115	0.012
-192.217	-2.555	-0.213	-0.147
-191.202	-130.903	0.206	-0.027
-190.187	228.010	0.170	0.273
-189.173	32.965	0.301	0.256
-188.158	-200.000	-0.272	0.000
-187.144	368.588	0.214	-0.425
-186.129	76.664	0.124	0.130
-185.114	800.000	0.036	-0.127
-184.100	-200.000	0.024	-0.233
-183.085	25.251	-0.032	-0.026
-182.071	87.946	-0.117	0.128
-181.056	-200.000	0.034	-0.231
-180.042	800.000	0.055	-0.214
-179.027	-20.209	0.069	0.042
-178.012	-146.392	0.205	0.018
-176.998	-55.369	0.174	0.077
-175.983	-138.125	0.096	0.010
-174.969	-200.000	0.039	0.483
-173.954	-200.000	-0.063	-0.364
-172.939	-200.000	0.029	-0.138
-171.925	88.383	-0.117	0.128
-170.910	0.927	-0.191	0.135
-169.896	-52.646	0.053	0.024
-168.881	210.894	0.015	-0.023
-167.866	43.016	-0.109	-0.097
-166.852	-48.459	-0.157	0.074
-165.837	800.000	-0.043	0.145
-164.823	-18.974	-0.242	0.148
-163.808	-200.000	0.008	0.083
-162.793	267.098	-0.068	-0.116
-161.779	-6.356	0.419	0.281
-160.764	608.940	-0.037	0.092
-159.750	-91.455	-0.248	0.070
-158.735	355.948	0.100	0.195
-157.720	8.410	0.106	0.078
-156.706	-170.464	-0.189	-0.006
-155.691	415.951	0.065	0.136
-154.677	-200.000	0.053	-0.229
-153.662	562.524	0.082	0.195
-152.647	800.000	0.033	0.103
-151.633	-123.565	0.399	0.062
-150.618	-94.724	-0.126	0.034
-149.604	159.735	0.202	0.277
-148.589	-200.000	-0.084	-0.361
-147.574	-133.123	-0.002	-0.000
-146.560	-200.000	0.024	0.583
-145.545	512.372	-0.159	-0.363
-144.531	429.059	-0.080	-0.169
-143.516	-22.572	0.273	0.162
-142.502	668.256	0.176	0.447
-141.487	744.401	-0.134	0.354
-140.472	800.000	-0.062	0.248
-139.458	-34.206	-0.165	-0.089
-138.443	498.339	-0.125	0.282
-137.429	-96.626	-0.148	0.038
-136.414	-70.518	0.262	-0.097
-135.399	10.711	0.175	0.131
-134.385	453.975	0.112	-0.243
-133.370	800.000	-0.082	0.223
-132.356	-137.348	-0.206	-0.023
-131.341	298.309	0.086	-0.156
-130.326	-200.000	-0.032	-0.335
-129.312	-14.120	0.282	0.179
-128.297	-200.000	0.083	0.606
-127.283	-200.000	0.035	0.275
-126.268	624.877	-0.103	-0.254
-125.253	-1.620	-0.175	-0.121
-124.239	-109.643	0.196	0.041
-123.224	54.502	-0.182	-0.172
-122.210	-200.000	-0.053	-0.325
-121.195	20.444	-0.331	0.263
-120.180	162.478	0.128	0.176
-119.166	-0.192	-0.091	-0.063
-118.151	800.000	-0.084	0.240
-117.137	-200.000	0.042	-0.333
-116.122	-146.606	0.120	-0.010
-115.107	279.559	0.059	0.103
-114.093	0.348	0.205	0.144
-113.078	-73.893	-0.305	-0.109
-112.064	128.340	0.299	0.373
-111.049	-200.000	-0.049	-0.317
-110.034	-42.429	0.218	0.109
-109.020	280.940	-0.138	0.243
-108.005	28.033	0.240	-0.198
-106.991	800.000	0.040	-0.111
-105.976	-145.641	0.220	0.019
-104.962	-126.582	-0.211	-0.031
-103.947	0.372	-0.209	0.146
-102.932	-200.000	0.034	0.177
-101.918	644.726	0.139	0.347
-100.903	223.771	0.077	0.122
-99.889	72.889	-0.114	-0.117
-98.874	29.855	0.039	-0.033
-97.859	47.011	0.139	0.127
-96.845	12.078	0.156	-0.117
-95.830	-106.930	-0.480	-0.104
-94.816	177.428	-0.167	0.238
-93.801	-84.142	-0.362	-0.113
-92.786	800.000	-0.028	-0.086
-91.772	-90.955	0.442	0.124
-90.757	527.756	0.059	-0.137
-89.743	59.440	-0.246	0.238
-88.728	-60.944	0.028	0.012
-87.713	-200.000	-0.050	-0.302
-86.699	-133.513	-0.207	-0.025
-85.684	-200.000	-0.064	-0.385
-84.670	-0.573	0.031	0.022
-83.655	-73.141	0.189	-0.068
-82.640	259.346	0.204	-0.345
-81.626	-200.000	-0.041	0.273
-80.611	-107.592	0.189	0.041
-79.597	-103.808	0.282	0.065
-78.582	-49.771	-0.115	-0.054
-77.567	-200.000	-0.027	0.370
-76.553	80.406	-0.127	0.133
-75.538	-107.484	-0.357	-0.077
-74.524	-43.243	-0.251	0.124
-73.509	-0.516	-0.030	-0.021
-72.494	-92.709	-0.118	-0.032
-71.480	-0.009	0.053	-0.037
-70.465	63.926	-0.315	0.310
-69.451	372.776	0.023	0.046
-68.436	116.174	0.253	0.304
-67.422	650.453	0.035	-0.088
-66.407	485.159	0.073	0.162
-65.392	-200.000	-0.014	0.061
-64.378	415.120	-0.111	0.232
-63.363	-101.378	-0.157	0.037
-62.349	521.037	-0.162	0.372
-61.334	69.415	-1.020	-1.028
-60.319	709.039	0.290	0.749
-59.305	228.192	-0.470	-0.749
-58.290	255.086	0.816	1.368
-57.276	-200.000	0.277	1.557
-56.261	-200.000	112.793	646.367
-55.246	476.712	1504.644	3328.007
-54.232	148.141	2669.344	3523.671
-53.217	103.743	2173.468	2497.282
-52.203	38.021	1703.839	1482.378
-51.188	30.633	1522.061	1273.801
-50.173	28.437	1497.975	1238.770
-49.159	52.899	1554.925	1454.757
-48.144	51.509	1570.645	1459.862
-47.130	30.986	1527.651	1280.702
-46.115	27.857	1512.486	1246.613
-45.100	27.566	1509.509	1242.130
-44.086	27.581	1507.307	1240.371
-43.071	27.477	1505.667	1238.263
-42.057	27.444	1504.020	1236.637
-41.042	27.616	1502.212	1236.264
-40.027	27.597	1501.075	1235.154
-39.013	27.580	1499.260	1233.496
-37.998	27.514	1498.152	1232.090
-36.984	27.550	1497.194	1231.492
-35.969	27.572	1495.415	1230.134
-34.954	27.564	1494.067	1228.919
-33.940	27.478	1492.851	1227.290
-32.925	27.610	1491.288	1226.848
-31.911	27.601	1489.725	1225.453
-30.896	27.508	1488.992	1224.177
-29.881	27.629	1487.684	1223.861
-28.867	27.561	1486.509	1222.394
-27.852	27.612	1484.853	1221.323
-26.838	27.547	1483.735	1219.921
-25.823	27.554	1482.565	1218.958
-24.809	27.634	1480.334	1217.607
-23.794	27.569	1479.265	1216.244
-22.779	27.598	1478.070	1215.408
-21.765	27.669	1476.731	1214.730
-20.750	27.538	1476.209	1213.380
-19.736	27.581	1475.021	1212.646
-18.721	27.534	1473.982	1211.428
-17.706	27.628	1472.142	1210.491
-16.692	27.518	1471.592	1209.265
-15.677	27.641	1470.337	1208.996
-14.663	27.472	1469.841	1207.424
-13.648	27.597	1468.809	1207.358
-12.633	27.582	1467.912	1206.471
-11.619	27.619	1467.049	1205.957
-10.604	27.482	1466.337	1204.418
-9.590	27.592	1465.301	1204.250
-8.575	27.609	1464.512	1203.666
-7.560	27.528	1463.672	1202.392
-6.546	27.558	1462.623	1201.679
-5.531	27.518	1462.058	1200.903
-4.517	27.513	1460.865	1199.840
-3.502	27.523	1459.660	1198.871
-2.487	27.592	1458.566	1198.381
-1.473	27.549	1457.602	1197.259
-0.458	27.544	1456.365	1196.163
0.556	25.951	1446.638	1184.972
1.571	22.924	1421.235	1144.487
2.586	19.429	1361.757	1074.762
3.600	17.988	1279.208	1001.081
4.615	17.049	1233.758	960.117
5.629	16.317	1181.567	915.453
6.644	13.623	1105.320	842.624
7.659	10.972	1071.521	803.700
8.673	10.751	1066.032	798.427
9.688	10.670	1062.902	795.618
10.702	10.589	1061.431	794.050
11.717	10.560	1059.845	792.651
12.731	11.569	1058.930	796.822
13.746	14.562	1062.020	813.696
14.761	17.133	1065.471	828.831
15.775	17.818	1065.433	832.070
16.790	17.064	1063.842	827.080
17.804	15.915	1061.606	819.680
18.819	15.024	1059.513	813.660
19.834	14.603	1057.987	810.373
20.848	14.295	1056.749	807.860
21.863	14.010	1056.669	806.340
22.877	13.823	1055.545	804.508
23.892	13.627	1054.520	802.705
24.907	13.590	1053.802	801.911
25.921	13.509	1053.031	800.860
26.936	13.389	1052.612	799.888
27.950	13.597	1051.185	799.741
28.965	13.557	1050.459	798.924
29.980	13.627	1049.087	798.145
30.994	13.817	1047.711	797.943
32.009	13.798	1046.790	797.079
33.023	13.783	1046.385	796.629
34.038	13.760	1045.385	795.684
35.053	13.743	1044.264	794.681
36.067	13.698	1043.745	794.002
37.082	13.562	1042.931	792.661
38.096	13.703	1041.937	792.508
39.111	13.714	1041.168	791.905
40.126	13.781	1040.305	791.499
41.140	13.765	1038.891	790.279
42.155	13.535	1038.039	788.466
43.169	13.526	1037.053	787.603
44.184	13.548	1035.786	786.677
45.199	13.409	1034.780	785.181
46.213	13.490	1033.495	784.524
47.228	13.544	1032.932	784.283
48.242	13.556	1032.050	783.597
49.257	13.501	1031.407	782.780
50.271	13.539	1030.261	782.019
51.286	13.571	1029.359	781.419
52.301	13.603	1028.574	780.906
53.315	13.630	1027.854	780.415
54.330	13.639	1026.989	779.733
55.344	13.602	1025.960	778.709
56.359	13.487	1024.850	777.259
57.374	13.679	1023.990	777.436
58.388	13.686	1023.154	776.767
59.403	13.469	1022.601	775.259
60.417	13.445	1021.670	774.375
61.432	13.470	1020.812	773.772
62.447	13.420	1020.320	773.098
63.461	13.435	1019.517	772.488
64.476	13.355	1018.401	771.205
65.490	13.396	1017.579	770.703
66.505	13.377	1017.010	770.117
67.520	13.394	1016.005	769.367
68.534	13.425	1015.077	768.738
69.549	13.420	1014.705	768.365
70.563	13.428	1014.148	767.913
71.578	13.508	1012.865	767.246
72.593	13.520	1011.618	766.289
73.607	13.481	1010.997	765.570
74.622	13.272	1010.142	763.888
75.636	13.082	1009.700	762.608
76.651	13.319	1008.599	762.803
77.666	13.394	1007.741	762.434
78.680	13.382	1007.173	761.881
79.695	13.364	1006.401	761.148
80.709	13.320	1005.942	760.527
81.724	13.473	1005.366	760.731
82.739	13.433	1004.736	760.001
83.753	13.631	1003.797	760.134
84.768	13.599	1002.879	759.222
85.782	13.730	1002.198	759.238
86.797	13.817	1001.246	758.848
87.812	13.795	1000.457	758.082
88.826	13.615	999.630	756.568
89.841	13.663	998.874	756.149
90.855	13.682	997.994	755.504
91.870	13.694	997.124	754.833
92.884	13.738	996.306	754.346
93.899	13.724	996.161	754.104
94.914	13.821	995.000	753.601
95.928	13.824	994.455	753.135
96.943	13.788	993.898	752.481
97.957	13.759	992.860	751.497
98.972	13.647	992.356	750.543
99.987	13.826	991.030	750.284
101.001	13.595	990.834	749.023
102.016	13.725	989.461	748.510
103.030	13.625	988.734	747.440
104.045	13.791	987.796	747.414
105.060	13.728	986.701	746.233
106.074	13.621	985.812	745.014
107.089	13.639	984.821	744.282
108.103	13.527	984.016	743.106
109.118	13.443	983.018	741.907
110.133	13.498	982.269	741.527
111.147	13.548	981.411	741.035
112.162	13.615	980.283	740.419
113.176	13.583	979.566	739.667
114.191	13.564	978.649	738.822
115.206	13.635	977.909	738.516
116.220	13.542	977.555	737.772
117.235	13.506	976.227	736.543
118.249	13.609	975.434	736.338
119.264	13.511	974.950	735.471
120.279	13.461	974.455	734.811
121.293	13.523	973.202	734.075
122.308	13.455	972.393	733.098
123.322	13.444	971.562	732.357
124.337	13.392	970.749	731.452
125.352	13.357	969.801	730.519
126.366	13.357	968.536	729.499
127.381	13.428	967.289	728.807
128.395	13.272	966.596	727.536
129.410	13.538	964.887	727.354
130.424	13.577	964.046	726.825
131.439	13.565	963.339	726.176
132.454	13.574	962.801	725.745
133.468	13.682	961.814	725.412
134.483	13.603	961.406	724.692
135.497	13.611	960.677	724.116
136.512	13.529	960.383	723.470
137.527	13.449	959.616	722.478
138.541	13.759	958.040	722.578
139.556	13.720	957.238	721.741
140.570	13.684	956.998	721.341
141.585	13.552	956.570	720.379
142.600	13.591	955.817	719.917
143.614	13.881	954.424	720.065
144.629	13.777	954.112	719.311
145.643	13.842	953.862	719.342
146.658	13.796	952.474	718.031
147.673	13.767	951.630	717.206
148.687	13.827	950.522	716.568
149.702	13.811	949.524	715.682
150.716	13.788	948.620	714.840
151.731	13.556	948.152	713.426
152.746	13.688	947.330	713.311
153.760	13.715	946.426	712.683
154.775	13.695	946.010	712.220
155.789	13.806	945.019	711.887
156.804	13.794	944.463	711.357
157.819	13.748	943.598	710.445
158.833	13.938	942.822	710.610
159.848	13.939	942.345	710.193
160.862	13.957	941.640	709.676
161.877	13.847	940.990	708.654
162.892	13.721	939.996	707.301
163.906	13.841	939.147	707.114
164.921	13.699	938.419	705.900
165.935	13.798	937.319	705.427
166.950	13.769	935.933	704.199
167.964	13.830	935.268	703.896
168.979	13.840	934.162	703.043
169.994	13.814	933.217	702.160
171.008	13.973	932.388	702.147
172.023	13.848	931.861	701.162
173.037	14.037	930.723	701.039
174.052	13.943	930.347	700.299
175.067	13.892	929.824	699.629
176.081	13.835	928.875	698.612
177.096	13.789	927.732	697.496
178.110	13.911	926.924	697.338
179.125	13.869	926.568	696.832
180.140	13.971	925.543	696.427
181.154	14.070	925.070	696.424
182.169	13.899	924.359	695.112
183.183	13.861	924.074	694.678
184.198	13.932	923.357	694.374
185.213	14.115	922.308	694.290
186.227	14.110	921.480	693.583
187.242	14.279	920.724	693.658
188.256	14.229	920.560	693.266
189.271	14.130	920.260	692.565
190.286	14.173	919.037	691.762
191.300	14.114	918.323	690.918
192.315	14.076	917.284	689.919
193.329	13.885	916.984	688.838
194.344	13.855	916.303	688.142
195.359	13.861	915.849	687.763
196.373	14.039	915.191	687.947
197.388	13.854	915.098	687.051
198.402	14.108	914.445	687.549
199.417	14.298	913.904	687.868
200.432	14.401	913.295	687.774
201.446	14.430	912.864	687.504
202.461	14.289	912.779	686.801
203.475	14.433	911.922	686.687
204.490	14.427	911.726	686.454
205.504	14.310	910.482	684.975
206.519	14.229	909.799	684.071
207.534	14.396	908.667	683.845
208.548	14.432	907.790	683.267
209.563	14.290	907.565	682.457
210.577	14.462	906.537	682.329
211.592	14.260	906.305	681.265
212.607	14.464	905.601	681.513
213.621	14.592	904.638	681.248
214.636	14.500	904.195	680.479
215.650	14.444	903.896	679.964
216.665	14.518	902.900	679.460
217.680	14.543	902.392	679.116
218.694	14.587	902.182	679.079
219.709	14.713	901.063	678.688
220.723	14.672	900.714	678.198
221.738	14.669	900.372	677.867
222.753	14.551	899.547	676.710
223.767	14.429	899.020	675.757
224.782	14.485	898.071	675.211
225.796	14.632	896.916	674.877
226.811	14.907	896.052	675.279
227.826	14.605	895.871	673.864
228.840	14.614	895.215	673.349
229.855	14.582	894.553	672.659
230.869	14.684	893.753	672.412
231.884	14.881	892.778	672.408
232.899	14.764	892.229	671.465
233.913	14.673	892.015	670.879
234.928	14.695	891.082	670.207
235.942	14.602	890.380	669.248
236.957	14.702	889.399	668.850
237.972	14.691	888.850	668.335
238.986	14.687	888.363	667.894
240.001	14.617	887.980	667.266
241.015	14.790	886.963	667.135
242.030	14.704	886.440	666.338
243.045	14.825	885.548	666.092
244.059	14.770	885.338	665.655
245.074	14.611	884.511	664.341
246.088	14.772	883.743	664.349
247.103	14.816	883.300	664.130
248.117	14.795	883.062	663.810
249.132	14.879	882.188	663.426
250.147	14.954	881.828	663.393
251.161	15.153	881.035	663.528
252.176	15.026	880.381	662.473
253.190	15.197	879.367	662.326
254.205	15.244	878.852	662.066
255.220	15.258	878.211	661.582
256.234	15.281	877.356	660.970
257.249	15.311	876.630	660.482
258.263	15.279	876.756	660.392
259.278	15.314	875.738	659.704
260.293	15.340	875.194	659.337
261.307	15.376	874.759	659.095
262.322	15.339	874.177	658.451
263.336	15.404	873.634	658.238
264.351	15.491	872.842	657.926
265.366	15.524	872.305	657.591
266.380	15.528	871.624	657.035
267.395	15.465	871.197	656.410
268.409	15.504	870.317	655.839
269.424	15.416	869.527	654.845
270.439	15.394	868.844	654.187
271.453	15.372	868.256	653.601
272.468	15.355	867.426	652.850
273.482	15.438	866.671	652.549
274.497	15.492	866.190	652.338
275.512	15.498	865.723	651.950
276.526	15.576	865.131	651.749
277.541	15.537	864.106	650.769
278.555	15.512	863.652	650.273
279.570	15.431	863.471	649.767
280.585	15.610	862.748	649.856
281.599	15.500	862.355	649.077
282.614	15.682	861.564	649.127
283.628	15.638	860.718	648.262
284.643	15.529	860.105	647.323
285.657	15.665	859.750	647.522
286.672	15.682	859.214	647.128
287.687	15.643	859.009	646.768
288.701	15.619	858.507	646.237
289.716	15.663	857.722	645.761
290.730	15.775	857.253	645.781
291.745	15.757	856.226	644.879
292.760	15.643	855.940	644.169
293.774	15.783	855.468	644.295
294.789	15.870	854.565	643.890
295.803	15.810	854.065	643.227
296.818	15.770	853.343	642.474
297.833	15.811	852.570	641.992
298.847	15.817	851.745	641.337
299.862	15.687	851.518	640.614
300.876	15.686	850.746	639.971
301.891	15.848	849.834	639.846
302.906	15.940	849.283	639.722
303.920	16.052	848.526	639.521
304.935	16.045	848.036	639.068
305.949	16.075	847.465	638.696
306.964	16.106	846.988	638.398
307.979	15.893	846.443	637.123
308.993	16.156	845.887	637.642
310.008	16.172	845.350	637.242
311.022	16.186	844.897	636.898
312.037	16.153	844.490	636.409
313.052	16.050	843.832	635.470
314.066	15.988	843.228	634.725
315.081	16.146	842.552	634.754
316.095	15.865	841.915	633.163
317.110	16.022	841.659	633.504
318.125	15.957	841.338	632.963
319.139	16.094	840.739	632.967
320.154	16.007	839.974	632.013
321.168	16.083	839.626	631.976
322.183	16.020	839.288	631.432
323.197	16.047	838.533	630.907
324.212	16.075	837.984	630.543
325.227	16.105	837.916	630.551
326.241	16.137	837.284	630.139
327.256	16.206	836.080	629.434
328.270	16.038	835.975	628.673
329.285	16.166	835.624	628.832
330.300	16.214	834.195	627.878
331.314	16.141	833.714	627.188
332.329	16.052	833.444	626.599
333.343	16.138	832.729	626.326
334.358	16.312	832.514	626.753
335.373	16.269	831.776	625.984
336.387	16.329	831.241	625.747
337.402	16.312	830.516	625.084
338.416	16.432	830.333	625.335
339.431	16.364	829.951	624.742
340.446	16.496	828.996	624.452
341.460	16.551	828.674	624.357
342.475	16.503	827.856	623.509
343.489	16.500	827.678	623.310
344.504	16.529	827.019	622.867
345.519	16.552	826.593	622.576
346.533	16.725	825.804	622.561
347.548	16.477	825.794	621.587
348.562	16.448	824.906	620.755
349.577	16.580	824.404	620.807
350.592	16.550	823.542	619.994
351.606	16.355	823.669	619.321
352.621	16.541	823.125	619.539
353.635	16.363	822.674	618.491
354.650	16.490	822.288	618.613
355.665	16.615	821.549	618.459
356.679	16.727	821.205	618.554
357.694	16.574	820.770	617.612
358.708	16.773	819.976	617.687
359.723	16.650	819.510	616.832
360.738	16.758	818.991	616.782
361.752	16.693	818.928	616.443
362.767	16.716	818.183	615.909
363.781	16.832	817.591	615.831
364.796	16.949	817.328	616.005
365.810	16.828	817.055	615.304
366.825	16.851	816.253	614.729
367.840	16.974	816.163	615.054
368.854	17.028	815.747	614.881
369.869	16.912	815.311	614.077
370.883	16.952	814.979	613.918
371.898	16.954	813.813	612.992
372.913	16.942	813.268	612.485
373.927	17.044	812.521	612.235
374.942	17.033	812.083	611.812
375.956	16.994	811.694	611.323
376.971	16.924	811.254	610.688
377.986	16.993	810.635	610.416
379.000	17.238	810.021	610.777
380.015	17.252	809.515	610.394
381.029	17.022	809.209	609.282
382.044	17.160	808.372	609.092
383.059	17.121	808.138	608.723
384.073	17.122	807.592	608.264
385.088	17.289	806.820	608.223
386.102	17.124	806.121	607.054
387.117	17.148	805.839	606.875
388.132	17.084	805.499	606.337
389.146	17.086	805.007	605.920
390.161	17.154	804.966	606.075
391.175	17.237	804.290	605.808
392.190	17.182	803.992	605.337
393.205	17.373	803.225	605.384
394.219	17.224	802.665	604.380
395.234	17.377	802.198	604.518
396.248	17.273	801.443	603.526
397.263	17.239	801.050	603.055
398.278	17.115	800.801	602.374
399.292	17.130	800.440	602.103
400.307	17.241	799.873	602.017
401.321	17.123	799.560	601.310
402.336	17.173	799.226	601.184
403.350	17.225	798.920	601.085
404.365	17.296	798.304	600.817
405.380	17.460	797.418	600.676
406.394	17.464	797.309	600.554
407.409	17.548	797.030	600.588
408.423	17.498	796.695	600.108
409.438	17.577	796.367	600.085
410.453	17.605	795.860	599.748
411.467	17.635	795.489	599.521
412.482	17.698	795.074	599.378
413.496	17.551	794.586	598.439
414.511	17.759	793.872	598.580
415.526	17.727	793.412	598.068
416.540	17.848	793.165	598.252
417.555	17.782	792.929	597.791
418.569	17.716	792.292	597.025
419.584	17.789	791.831	596.879
420.599	17.706	791.242	596.093
421.613	111.358	1293.121	1475.944
422.628	95.678	1366.228	1476.006
