DTS Sentinel unit serial number:	SN413079Multiplexer serial number:	ORYXHardware model number:	OX4-SRSoftware version number:	ORYX F/W v4.00 Oryx Data Collector v3.7.2.0data status	okinstallation	princeton_trtdifferential loss correction	single-endedforward channel	channel 3reverse channel	N/Adate	2019/09/12time	03:46:11forward acquisition time	60.00reverse acquisition time	0.00gamma	496.2192k internal	0.2322k external	0.2322temperature offset calibration	1.0071default loss term (dB/km)	0.3790temperature slope calibration	1.0000multiplexer offset coefficient	1.0000multiplexer slope coefficient	1.0000fibre end	0.00T internal ref (°C)	32.16T ext. ref 1 (°C)	2.16T ext. ref 2 (°C)	27.10length (m)	temperature (°C)	Stokes	anti-Stokes-747.200	81.466	0.162	0.177
-746.185	-200.000	0.192	0.001
-745.171	-55.698	-0.359	-0.162
-744.156	83.486	-0.129	0.142
-743.142	7.919	-0.207	-0.157
-742.127	261.245	-0.081	0.142
-741.112	-105.104	-0.194	0.045
-740.098	-81.510	-0.099	0.033
-739.083	800.000	-0.057	0.189
-738.069	156.713	0.027	0.037
-737.054	-49.202	-0.192	-0.093
-736.039	-153.634	-0.158	-0.011
-735.025	-36.739	0.297	-0.161
-734.010	580.046	-0.099	-0.245
-732.996	-58.357	0.241	0.106
-731.981	-200.000	0.058	-0.262
-730.966	185.226	-0.056	-0.084
-729.952	-200.000	0.011	-0.145
-728.937	605.754	-0.058	0.147
-727.923	-106.780	0.277	0.062
-726.908	-134.566	-0.235	-0.029
-725.894	442.846	-0.028	-0.062
-724.879	133.913	-0.179	-0.234
-723.864	-19.981	-0.220	-0.137
-722.850	-42.035	-0.080	0.041
-721.835	-200.000	0.016	-0.190
-720.821	313.125	0.052	-0.098
-719.806	618.985	0.226	-0.573
-718.791	-200.000	-0.012	0.148
-717.777	-151.376	-0.347	0.026
-716.762	66.580	0.187	0.192
-715.748	-185.198	0.292	0.005
-714.733	-152.768	-0.219	-0.016
-713.718	221.390	0.047	-0.076
-712.704	-74.985	0.023	-0.008
-711.689	-200.000	-0.001	-0.236
-710.675	30.013	0.200	0.172
-709.660	-200.000	-0.021	0.289
-708.645	-108.452	-0.394	0.086
-707.631	800.000	0.063	-0.230
-706.616	-167.227	-0.450	0.018
-705.602	-62.118	-0.509	-0.214
-704.587	9.004	-0.174	-0.132
-703.572	-200.000	0.017	0.179
-702.558	-117.342	0.193	-0.035
-701.543	-136.611	-0.240	-0.028
-700.529	284.167	-0.132	-0.240
-699.514	-200.000	0.021	-0.133
-698.499	53.336	0.028	-0.027
-697.485	-94.852	-0.172	-0.047
-696.470	26.531	-0.262	-0.221
-695.456	-92.723	-0.072	0.020
-694.441	81.288	0.135	-0.147
-693.426	-81.095	-0.192	0.064
-692.412	620.345	-0.086	0.219
-691.397	643.940	0.015	-0.039
-690.383	-145.417	-0.082	0.007
-689.368	130.810	-0.065	-0.085
-688.354	-42.154	0.345	0.178
-687.339	233.385	-0.225	0.374
-686.324	114.981	-0.235	-0.290
-685.310	-137.630	0.026	-0.003
-684.295	-49.355	0.212	-0.102
-683.281	-200.000	-0.019	0.257
-682.266	-69.348	0.176	0.068
-681.251	22.801	-0.036	-0.030
-680.237	83.091	-0.249	-0.273
-679.222	-80.331	0.140	-0.047
-678.208	-107.844	-0.277	0.061
-677.193	-99.614	-0.158	-0.040
-676.178	81.184	-0.366	0.398
-675.164	769.271	0.009	-0.024
-674.149	-24.058	-0.172	-0.104
-673.135	612.279	0.063	-0.159
-672.120	199.381	-0.115	0.178
-671.105	-56.053	0.294	0.132
-670.091	-0.797	0.093	0.066
-669.076	800.000	-0.055	0.204
-668.062	-12.010	0.217	-0.143
-667.047	800.000	0.020	0.078
-666.032	800.000	-0.100	-0.285
-665.018	-6.679	0.184	0.126
-664.003	-200.000	0.019	0.349
-662.989	75.120	0.116	0.123
-661.974	-2.299	0.198	0.140
-660.959	179.990	0.091	-0.135
-659.945	-200.000	-0.022	-0.418
-658.930	-88.865	-0.229	0.068
-657.916	137.504	0.134	-0.176
-656.901	2.116	0.186	0.135
-655.886	57.048	0.092	-0.090
-654.872	800.000	0.026	0.090
-653.857	-13.810	0.175	0.114
-652.843	77.609	-0.213	-0.228
-651.828	-104.597	-0.143	-0.033
-650.814	800.000	-0.065	0.218
-649.799	169.414	0.065	-0.094
-648.784	-96.705	-0.235	0.062
-647.770	18.556	0.114	0.091
-646.755	652.299	-0.103	0.267
-645.741	800.000	0.103	-0.329
-644.726	252.904	-0.103	0.178
-643.711	-200.000	0.023	0.189
-642.697	-10.845	0.264	0.176
-641.682	-25.572	0.092	-0.055
-640.668	-91.715	0.180	-0.052
-639.653	-110.948	-0.158	0.033
-638.638	800.000	-0.042	-0.142
-637.624	2.743	-0.056	-0.041
-636.609	276.087	0.033	0.058
-635.595	-200.000	-0.032	0.232
-634.580	-78.504	-0.181	-0.062
-633.565	-84.254	0.172	0.055
-632.551	88.378	-0.286	-0.320
-631.536	20.713	-0.185	-0.151
-630.522	800.000	0.030	-0.104
-629.507	426.710	-0.051	-0.110
-628.492	105.439	0.284	-0.337
-627.478	45.631	0.154	-0.143
-626.463	-197.944	0.201	-0.001
-625.449	-72.598	-0.423	0.157
-624.434	-46.888	0.341	-0.168
-623.419	-70.074	-0.241	-0.092
-622.405	294.077	-0.190	-0.348
-621.390	160.540	0.084	-0.119
-620.376	-200.000	0.008	0.090
-619.361	-70.997	-0.310	-0.117
-618.346	267.980	-0.175	-0.308
-617.332	257.796	-0.168	0.291
-616.317	800.000	-0.043	0.132
-615.303	-87.234	0.132	0.040
-614.288	-103.772	-0.101	-0.024
-613.273	800.000	-0.056	0.156
-612.259	-200.000	-0.013	-0.153
-611.244	-140.748	0.282	-0.029
-610.230	800.000	0.033	0.093
-609.215	-151.810	-0.247	-0.018
-608.201	-154.003	-0.132	0.009
-607.186	339.472	-0.063	0.124
-606.171	171.258	0.193	0.279
-605.157	702.649	0.083	-0.220
-604.142	-43.375	-0.075	0.038
-603.128	141.486	0.177	0.236
-602.113	-104.351	-0.149	-0.035
-601.098	800.000	-0.024	-0.086
-600.084	-31.554	-0.152	-0.086
-599.069	-129.699	-0.282	-0.039
-598.055	-164.293	0.225	-0.010
-597.040	-68.978	-0.341	-0.132
-596.025	-55.114	-0.125	0.057
-595.011	-104.330	-0.061	-0.014
-593.996	800.000	-0.026	0.071
-592.982	-147.712	-0.287	-0.024
-591.967	136.620	-0.194	-0.255
-590.952	249.812	-0.073	0.125
-589.938	-124.647	0.424	0.066
-588.923	24.423	0.336	0.279
-587.909	-63.714	-0.342	-0.141
-586.894	-59.587	-0.283	-0.122
-585.879	-103.564	0.165	-0.039
-584.865	88.859	-0.094	-0.105
-583.850	219.201	-0.064	0.102
-582.836	800.000	0.062	-0.269
-581.821	-81.914	0.215	-0.071
-580.806	-121.271	0.174	-0.029
-579.792	-200.000	-0.031	-0.177
-578.777	-170.333	0.295	-0.010
-577.763	-55.514	-0.126	-0.057
-576.748	-200.000	-0.001	0.199
-575.733	73.425	0.115	0.121
-574.719	341.012	0.075	0.147
-573.704	-200.000	-0.004	-0.360
-572.690	-155.268	0.275	-0.018
-571.675	-24.985	-0.461	0.275
-570.661	-182.578	0.177	0.003
-569.646	-58.360	-0.106	-0.046
-568.631	-42.168	-0.371	-0.190
-567.617	-200.000	-0.055	-0.241
-566.602	225.955	-0.226	-0.367
-565.588	800.000	0.074	0.229
-564.573	439.643	0.046	-0.101
-563.558	479.391	-0.163	0.370
-562.544	-195.753	-0.104	-0.001
-561.529	-0.032	0.052	-0.037
-560.515	-38.576	-0.262	-0.139
-559.500	-87.060	0.552	-0.169
-558.485	-23.190	-0.224	-0.135
-557.471	-52.056	-0.138	-0.064
-556.456	-200.000	0.010	-0.247
-555.442	140.032	-0.067	-0.089
-554.427	-37.328	-0.139	0.074
-553.412	-200.000	-0.024	-0.298
-552.398	800.000	0.055	-0.210
-551.383	-143.600	-0.048	-0.005
-550.369	-8.688	-0.133	-0.089
-549.354	115.392	0.073	0.090
-548.339	27.390	0.107	-0.090
-547.325	-200.000	0.009	-0.072
-546.310	-120.814	0.203	0.034
-545.296	800.000	0.022	0.076
-544.281	-200.000	0.012	0.190
-543.266	-200.000	0.007	0.035
-542.252	-28.735	-0.063	-0.036
-541.237	-200.000	-0.014	-0.133
-540.223	-139.130	0.145	-0.016
-539.208	-57.938	-0.213	-0.093
-538.193	-108.569	-0.412	0.089
-537.179	-108.180	-0.380	-0.082
-536.164	-115.703	0.294	0.055
-535.150	-46.341	-0.338	0.167
-534.135	284.452	-0.090	0.163
-533.121	237.208	0.188	-0.312
-532.106	-66.487	-0.211	0.084
-531.091	32.431	0.242	-0.210
-530.077	800.000	-0.062	-0.198
-529.062	-140.052	-0.150	0.016
-528.048	-200.000	0.019	-0.395
-527.033	215.907	0.025	-0.040
-526.018	112.810	-0.095	0.115
-525.004	-200.000	0.008	-0.068
-523.989	-200.000	0.025	-0.205
-522.975	-200.000	-0.017	0.085
-521.960	-55.227	-0.099	-0.045
-520.945	730.324	-0.006	0.017
-519.931	142.728	-0.113	-0.150
-518.916	-64.832	0.131	-0.053
-517.902	171.150	0.149	-0.215
-516.887	61.456	0.199	-0.198
-515.872	599.806	0.055	-0.138
-514.858	-200.000	0.033	0.313
-513.843	800.000	0.076	-0.227
-512.829	-3.041	0.199	0.139
-511.814	-60.485	0.273	0.116
-510.799	198.711	0.176	-0.269
-509.785	-7.484	0.204	-0.139
-508.770	267.502	0.121	-0.213
-507.756	7.102	0.249	0.186
-506.741	2.229	-0.129	-0.093
-505.726	85.426	0.069	0.076
-504.712	539.715	-0.133	0.317
-503.697	-43.473	-0.135	0.068
-502.683	-80.429	-0.123	-0.041
-501.668	-85.763	0.293	0.091
-500.653	-191.461	-0.248	0.002
-499.639	-152.460	-0.355	0.025
-498.624	-13.655	0.287	-0.186
-497.610	-36.968	-0.210	0.113
-496.595	-180.199	-0.247	-0.005
-495.581	-75.094	0.249	0.089
-494.566	-57.649	0.111	0.048
-493.551	277.641	-0.161	-0.287
-492.537	800.000	0.037	0.160
-491.522	-151.011	-0.193	-0.015
-490.508	-200.000	-0.000	0.267
-489.493	-200.000	-0.012	0.115
-488.478	577.128	-0.062	-0.151
-487.464	-152.747	0.258	0.018
-486.449	254.151	-0.097	0.166
-485.435	96.625	0.021	-0.024
-484.420	-75.432	0.092	-0.033
-483.405	-83.718	-0.308	0.098
-482.391	387.688	0.093	0.192
-481.376	-80.662	0.187	-0.062
-480.362	800.000	0.134	-0.405
-479.347	-86.140	0.031	0.010
-478.332	448.152	0.111	0.245
-477.318	800.000	-0.035	-0.148
-476.303	-109.835	-0.451	-0.095
-475.289	-200.000	-0.011	0.160
-474.274	-41.833	-0.149	-0.076
-473.259	-136.329	-0.228	-0.027
-472.245	146.665	0.237	0.318
-471.230	-174.656	-0.230	-0.007
-470.216	312.601	0.125	-0.234
-469.201	44.379	0.265	0.243
-468.186	800.000	-0.069	0.299
-467.172	-200.000	0.001	0.076
-466.157	134.337	0.140	-0.181
-465.143	-200.000	-0.021	0.168
-464.128	354.367	0.030	-0.059
-463.113	334.032	0.058	0.113
-462.099	80.743	-0.224	0.242
-461.084	-99.429	-0.154	0.039
-460.070	-126.536	0.349	-0.052
-459.055	731.608	-0.033	0.089
-458.040	82.438	-0.075	-0.081
-457.026	-136.720	-0.208	0.024
-456.011	-139.152	0.242	-0.026
-454.997	-45.945	-0.183	-0.090
-453.982	-47.019	-0.081	-0.039
-452.968	-25.258	-0.143	-0.085
-451.953	-142.138	-0.334	-0.033
-450.938	-127.256	-0.167	-0.024
-449.924	800.000	0.020	0.062
-448.909	800.000	-0.025	-0.070
-447.895	489.001	0.048	-0.111
-446.880	266.588	-0.061	0.106
-445.865	-56.244	0.214	0.095
-444.851	169.194	0.101	0.143
-443.836	191.721	0.111	0.166
-442.822	90.865	0.352	0.394
-441.807	-200.000	-0.030	0.238
-440.792	-188.386	0.332	-0.004
-439.778	14.086	-0.170	0.133
-438.763	389.890	0.115	0.237
-437.749	800.000	0.036	0.103
-436.734	-187.026	0.195	-0.003
-435.719	127.063	-0.167	0.212
-434.705	-65.919	0.343	0.137
-433.690	-129.217	-0.369	-0.051
-432.676	51.156	-0.162	0.153
-431.661	-117.691	0.035	-0.006
-430.646	189.341	-0.085	-0.127
-429.632	-185.026	0.018	0.000
-428.617	-200.000	0.052	-0.378
-427.603	119.460	0.168	-0.207
-426.588	-125.590	-0.218	0.033
-425.573	132.888	-0.091	0.117
-424.559	150.517	-0.199	0.270
-423.544	-200.000	-0.026	0.159
-422.530	-200.000	0.019	0.155
-421.515	-200.000	0.019	0.315
-420.500	56.839	-0.193	-0.187
-419.486	438.513	0.072	0.157
-418.471	583.874	-0.080	-0.197
-417.457	328.636	0.085	0.164
-416.442	-200.000	-0.035	0.214
-415.428	155.883	0.134	-0.184
-414.413	-200.000	0.051	-0.268
-413.398	-200.000	-0.039	-0.189
-412.384	-48.776	0.140	-0.067
-411.369	151.076	0.075	0.102
-410.355	-22.685	-0.094	-0.057
-409.340	-11.715	0.116	-0.076
-408.325	98.965	0.099	-0.114
-407.311	-111.158	-0.155	-0.032
-406.296	7.137	0.133	0.099
-405.282	110.984	0.113	0.135
-404.267	-22.862	-0.166	-0.100
-403.252	-66.361	-0.312	0.124
-402.238	-65.029	0.314	0.126
-401.223	800.000	0.108	-0.383
-400.209	352.459	0.137	0.271
-399.194	-16.534	0.104	-0.066
-398.179	-115.012	0.171	0.032
-397.165	800.000	-0.032	-0.129
-396.150	274.302	0.130	-0.229
-395.136	-200.000	-0.001	0.033
-394.121	224.787	-0.194	0.313
-393.106	299.103	-0.049	0.089
-392.092	250.393	0.141	-0.239
-391.077	-114.923	-0.295	-0.056
-390.063	-200.000	-0.037	0.224
-389.048	-200.000	0.023	0.137
-388.033	-136.748	0.183	0.021
-387.019	476.599	0.060	0.135
-386.004	-200.000	0.033	-0.237
-384.990	-200.000	-0.052	0.230
-383.975	72.416	0.213	0.222
-382.960	77.495	0.090	-0.096
-381.946	-109.506	0.159	-0.034
-380.931	-113.186	0.370	-0.073
-379.917	2.425	0.083	0.060
-378.902	-200.000	0.026	0.179
-377.888	753.515	-0.031	0.083
-376.873	-86.056	0.017	-0.005
-375.858	-63.009	-0.186	-0.076
-374.844	-152.860	-0.183	0.013
-373.829	-145.516	0.121	0.011
-372.815	135.073	-0.265	0.343
-371.800	31.131	0.342	-0.292
-370.785	0.373	-0.119	-0.085
-369.771	12.734	0.221	-0.170
-368.756	-167.622	-0.132	-0.005
-367.742	-200.000	0.001	-0.158
-366.727	488.284	0.097	0.220
-365.712	-64.812	0.134	0.054
-364.698	45.662	-0.253	-0.233
-363.683	-172.578	-0.100	-0.003
-362.669	-109.934	0.357	0.075
-361.654	128.465	-0.092	0.117
-360.639	-200.000	0.021	-0.263
-359.625	19.720	-0.087	-0.070
-358.610	345.143	0.196	-0.383
-357.596	260.995	-0.088	-0.151
-356.581	-45.124	0.200	0.099
-355.566	777.874	0.028	0.075
-354.552	800.000	0.029	0.097
-353.537	800.000	0.035	-0.130
-352.523	83.260	0.050	0.055
-351.508	250.527	0.166	0.281
-350.493	-131.609	0.178	-0.023
-349.479	14.960	-0.079	-0.061
-348.464	-164.496	-0.582	0.026
-347.450	71.298	0.169	-0.174
-346.435	-200.000	0.019	-0.163
-345.420	-123.069	0.136	-0.022
-344.406	-36.735	0.051	-0.027
-343.391	-200.000	-0.012	0.284
-342.377	-126.903	0.102	-0.015
-341.362	-80.733	-0.172	-0.057
-340.348	106.914	0.317	0.375
-339.333	-52.968	0.065	-0.030
-338.318	-110.130	-0.276	-0.057
-337.304	-175.791	0.233	0.006
-336.289	-200.000	-0.005	0.040
-335.275	245.791	-0.107	0.179
-334.260	-160.340	0.227	-0.012
-333.245	90.524	-0.114	-0.127
-332.231	48.770	0.109	0.102
-331.216	-114.706	0.408	0.078
-330.202	-200.000	0.021	-0.286
-329.187	-84.817	-0.366	-0.114
-328.172	-39.629	-0.123	-0.064
-327.158	-84.693	-0.061	0.019
-326.143	41.295	-0.102	0.092
-325.129	11.343	-0.166	0.127
-324.114	-134.555	-0.263	-0.032
-323.099	82.421	0.165	0.178
-322.085	-200.000	0.027	0.158
-321.070	-200.000	0.020	-0.100
-320.056	83.150	-0.266	-0.288
-319.041	-100.685	0.166	0.041
-318.026	-142.739	0.126	-0.012
-317.012	436.112	0.038	-0.081
-315.997	-51.820	0.074	-0.034
-314.983	-50.567	-0.309	-0.145
-313.968	754.587	-0.170	-0.456
-312.953	-86.331	0.044	0.013
-311.939	4.225	0.224	0.163
-310.924	235.749	0.148	0.243
-309.910	-17.152	-0.098	-0.062
-308.895	-14.480	-0.148	-0.094
-307.880	-166.951	-0.197	-0.008
-306.866	-60.309	0.182	0.077
-305.851	-200.000	-0.027	0.233
-304.837	-200.000	-0.034	0.349
-303.822	-3.314	0.187	-0.129
-302.807	-49.905	-0.106	0.050
-301.793	-116.792	0.148	0.027
-300.778	245.212	0.126	-0.210
-299.764	-137.553	0.148	0.017
-298.749	800.000	0.054	0.229
-297.735	-101.457	-0.091	0.022
-296.720	-42.395	0.088	-0.044
-295.705	76.126	-0.228	0.240
-294.691	303.269	-0.095	0.176
-293.676	-120.171	-0.382	0.065
-292.662	-18.095	-0.314	0.195
-291.647	-200.000	0.024	-0.191
-290.632	70.509	-0.119	0.122
-289.618	258.974	0.183	-0.313
-288.603	673.155	0.064	0.164
-287.589	4.223	-0.101	-0.074
-286.574	273.801	-0.033	-0.059
-285.559	-84.626	0.118	-0.037
-284.545	432.601	0.101	-0.218
-283.530	174.855	0.112	0.161
-282.516	-200.000	0.031	0.210
-281.501	120.604	-0.130	-0.160
-280.486	-200.000	0.013	-0.061
-279.472	389.976	-0.108	0.222
-278.457	-138.492	0.277	-0.030
-277.443	-200.000	-0.011	0.248
-276.428	127.944	0.224	-0.282
-275.413	585.165	0.009	-0.021
-274.399	135.046	-0.153	-0.197
-273.384	565.831	0.032	0.077
-272.370	-122.883	0.129	0.021
-271.355	394.355	0.022	0.046
-270.340	-41.828	-0.411	-0.209
-269.326	-91.050	-0.361	0.103
-268.311	-124.616	-0.217	-0.033
-267.297	417.274	-0.168	0.356
-266.282	-135.381	-0.339	0.040
-265.267	-43.019	0.298	0.150
-264.253	771.904	-0.073	-0.197
-263.238	-200.000	-0.040	-0.306
-262.224	-112.784	-0.238	-0.047
-261.209	-69.511	-0.329	-0.125
-260.195	-98.136	0.390	-0.099
-259.180	488.997	0.074	-0.168
-258.165	-23.550	-0.193	-0.115
-257.151	417.887	-0.108	0.230
-256.136	-52.146	-0.133	-0.061
-255.122	-18.596	0.136	-0.084
-254.107	-200.000	0.015	0.105
-253.092	800.000	0.092	0.339
-252.078	3.447	-0.086	-0.062
-251.063	-200.000	0.021	-0.203
-250.049	120.679	-0.186	-0.230
-249.034	41.075	0.162	-0.145
-248.019	-7.196	-0.086	0.058
-247.005	-180.631	-0.074	-0.002
-245.990	198.399	0.097	-0.148
-244.976	60.249	0.139	0.137
-243.961	72.410	0.124	0.128
-242.946	137.629	0.186	0.241
-241.932	68.992	0.211	-0.215
-240.917	68.382	-0.119	0.120
-239.903	-200.000	-0.031	0.151
-238.888	-29.302	-0.228	0.129
-237.873	-200.000	-0.023	-0.131
-236.859	-66.491	0.363	0.143
-235.844	-200.000	-0.008	-0.117
-234.830	-200.000	0.040	-0.231
-233.815	-200.000	-0.017	-0.263
-232.800	45.316	0.058	0.053
-231.786	800.000	0.122	0.483
-230.771	604.888	-0.081	0.200
-229.757	308.965	0.152	-0.282
-228.742	471.816	-0.083	0.184
-227.727	-132.140	0.197	0.025
-226.713	-200.000	-0.012	0.113
-225.698	100.845	-0.115	0.132
-224.684	-38.151	0.107	0.056
-223.669	-157.082	0.185	-0.011
-222.655	-47.665	0.061	-0.029
-221.640	-200.000	0.001	0.350
-220.625	83.830	0.286	0.309
-219.611	-54.455	-0.148	-0.066
-218.596	-22.583	-0.007	0.004
-217.582	128.673	0.280	0.354
-216.567	736.139	-0.153	-0.405
-215.552	-161.824	0.286	0.014
-214.538	-143.940	0.480	0.045
-213.523	378.375	-0.123	0.249
-212.509	-99.167	-0.235	-0.059
-211.494	800.000	-0.091	0.304
-210.479	-200.000	0.036	0.423
-209.465	-104.887	-0.135	-0.031
-208.450	800.000	0.060	-0.198
-207.436	-200.000	-0.001	0.080
-206.421	-200.000	-0.006	-0.125
-205.406	58.794	-0.233	-0.227
-204.392	364.149	-0.088	-0.176
-203.377	-123.971	-0.389	0.061
-202.363	-200.000	-0.018	-0.148
-201.348	-22.526	0.337	0.202
-200.333	-90.374	0.264	0.076
-199.319	-93.906	-0.154	-0.042
-198.304	98.981	-0.098	-0.111
-197.290	-170.818	-0.305	0.010
-196.275	-49.866	-0.366	-0.172
-195.260	-200.000	0.001	-0.018
-194.246	245.639	-0.200	-0.332
-193.231	44.650	0.256	-0.232
-192.217	-92.082	0.133	-0.037
-191.202	-194.277	-0.146	0.001
-190.187	-200.000	-0.030	0.234
-189.173	19.149	0.251	0.199
-188.158	293.955	0.044	0.080
-187.144	-134.118	-0.161	0.020
-186.129	205.402	0.167	-0.256
-185.114	139.523	-0.046	0.060
-184.100	14.369	0.268	-0.207
-183.085	-56.551	-0.141	0.062
-182.071	253.493	-0.192	0.325
-181.056	-44.140	0.336	0.167
-180.042	-44.975	0.296	-0.146
-179.027	493.999	-0.087	-0.198
-178.012	70.783	0.213	0.218
-176.998	-200.000	0.001	0.412
-175.983	0.738	0.299	-0.211
-174.969	-1.551	0.299	0.209
-173.954	-200.000	-0.070	-0.409
-172.939	215.828	-0.126	0.198
-171.925	-200.000	0.061	0.367
-170.910	549.644	0.037	-0.088
-169.896	-200.000	0.000	0.025
-168.881	42.769	-0.170	0.153
-167.866	-200.000	0.002	0.128
-166.852	99.235	0.156	-0.179
-165.837	-98.995	0.257	0.064
-164.823	800.000	0.059	-0.235
-163.808	800.000	0.074	-0.215
-162.793	1.827	0.335	-0.239
-161.779	162.854	0.009	0.012
-160.764	-200.000	-0.036	0.247
-159.750	-35.281	-0.310	0.167
-158.735	-200.000	-0.017	0.080
-157.720	54.957	-0.152	-0.145
-156.706	-66.400	0.167	0.066
-155.691	-200.000	0.014	0.289
-154.677	-200.000	0.057	-0.256
-153.662	800.000	-0.064	0.208
-152.647	-200.000	0.009	-0.324
-151.633	-200.000	0.006	-0.221
-150.618	114.771	0.141	-0.170
-149.604	184.248	0.082	-0.120
-148.589	-48.898	-0.265	0.126
-147.574	-102.939	0.245	0.057
-146.560	138.019	0.209	0.271
-145.545	-200.000	0.345	-0.001
-144.531	-127.122	-0.334	0.048
-143.516	800.000	0.108	0.346
-142.502	-200.000	0.023	0.253
-141.487	293.464	-0.083	-0.149
-140.472	-54.084	0.252	0.113
-139.458	-200.000	-0.016	-0.097
-138.443	43.046	-0.179	0.161
-137.429	-141.103	-0.165	-0.017
-136.414	-43.477	0.191	-0.095
-135.399	286.990	0.315	-0.562
-134.385	-125.823	0.088	-0.013
-133.370	-54.381	-0.078	-0.035
-132.356	-106.415	0.245	0.054
-131.341	-26.505	-0.309	-0.179
-130.326	706.068	0.082	0.213
-129.312	800.000	0.157	0.508
-128.297	-200.000	-0.004	0.457
-127.283	227.326	0.135	0.216
-126.268	-81.945	0.090	0.029
-125.253	226.133	-0.059	-0.094
-124.239	-200.000	0.215	0.001
-123.224	-29.495	0.154	0.087
-122.210	263.859	-0.158	0.272
-121.195	-37.245	0.082	0.043
-120.180	-200.000	0.011	-0.083
-119.166	800.000	0.050	-0.154
-118.151	800.000	0.121	-0.340
-117.137	116.562	-0.202	-0.244
-116.122	750.822	-0.113	-0.300
-115.107	4.204	-0.067	-0.049
-114.093	-200.000	0.085	0.375
-113.078	36.742	0.054	0.047
-112.064	-24.517	0.114	-0.067
-111.049	-139.778	0.318	-0.033
-110.034	225.142	-0.065	-0.103
-109.020	195.374	0.055	0.082
-108.005	-200.000	0.047	-0.262
-106.991	-200.000	0.018	0.228
-105.976	-68.847	-0.184	-0.070
-104.962	309.494	-0.075	0.138
-103.947	283.461	0.028	-0.050
-102.932	40.567	0.228	0.203
-101.918	7.000	0.294	0.216
-100.903	380.720	-0.083	-0.168
-99.889	-200.000	0.048	0.246
-98.874	126.546	0.104	0.130
-97.859	-84.949	0.053	-0.016
-96.845	98.757	0.195	0.222
-95.830	142.238	-0.106	0.138
-94.816	-2.155	0.189	0.131
-93.801	423.260	0.085	-0.181
-92.786	72.091	-0.138	-0.141
-91.772	800.000	0.115	0.476
-90.757	-120.682	0.100	0.017
-89.743	-200.000	-0.009	0.061
-88.728	-126.819	-0.383	0.056
-87.713	-57.630	-0.137	-0.059
-86.699	800.000	0.122	0.338
-85.684	-126.334	-0.263	0.039
-84.670	-72.912	0.121	0.044
-83.655	800.000	-0.087	-0.263
-82.640	278.651	-0.154	-0.270
-81.626	-136.731	-0.166	0.019
-80.611	306.565	0.084	0.153
-79.597	-126.443	0.058	0.008
-78.582	-200.000	-0.055	0.324
-77.567	-88.975	-0.105	0.031
-76.553	-200.000	-0.135	-0.000
-75.538	800.000	0.067	-0.206
-74.524	-84.562	-0.392	0.122
-73.509	-200.000	0.015	0.208
-72.494	137.715	0.299	-0.386
-71.480	-22.382	0.168	0.100
-70.465	-87.467	-0.173	0.052
-69.451	3.783	-0.113	-0.081
-68.436	26.103	-0.141	-0.116
-67.422	-81.326	0.163	-0.053
-66.407	179.997	-0.183	0.264
-65.392	-30.206	0.019	0.011
-64.378	-135.942	0.224	-0.026
-63.363	-200.000	0.005	-0.195
-62.349	-200.000	-0.045	0.243
-61.334	13.416	-0.986	-0.752
-60.319	53.039	0.380	0.358
-59.305	427.228	-0.300	-0.637
-58.290	142.075	0.720	0.939
-57.276	223.766	0.950	1.509
-56.261	-200.000	95.493	596.181
-55.246	573.432	1363.352	3269.883
-54.232	162.872	2538.766	3506.192
-53.217	112.764	2156.515	2569.055
-52.203	42.822	1703.433	1526.577
-51.188	35.337	1516.661	1308.326
-50.173	32.970	1490.002	1269.391
-49.159	52.038	1538.976	1441.791
-48.144	54.101	1556.574	1472.317
-47.130	35.520	1516.561	1309.276
-46.115	32.453	1501.867	1275.792
-45.100	32.225	1498.679	1271.491
-44.086	32.234	1496.748	1269.859
-43.071	32.187	1494.692	1267.747
-42.057	32.083	1493.268	1265.791
-41.042	32.131	1491.993	1264.983
-40.027	32.188	1490.420	1263.986
-39.013	32.110	1488.969	1262.179
-37.998	32.154	1487.820	1261.451
-36.984	32.238	1486.081	1260.486
-35.969	32.214	1484.919	1259.294
-34.954	32.201	1483.476	1257.934
-33.940	32.189	1482.091	1256.627
-32.925	32.171	1480.804	1255.364
-31.911	32.240	1479.318	1254.514
-30.896	32.116	1478.201	1252.693
-29.881	32.200	1477.092	1252.261
-28.867	32.277	1475.304	1251.209
-27.852	32.116	1474.599	1249.487
-26.838	32.300	1472.548	1248.923
-25.823	32.080	1471.713	1246.707
-24.809	32.240	1469.006	1245.421
-23.794	32.132	1467.921	1243.742
-22.779	32.176	1466.679	1242.927
-21.765	32.153	1465.770	1241.959
-20.750	32.164	1464.709	1241.086
-19.736	32.092	1463.300	1239.361
-18.721	32.194	1462.192	1239.046
-17.706	32.138	1461.349	1237.917
-16.692	32.148	1460.123	1236.896
-15.677	32.100	1459.298	1235.831
-14.663	32.165	1457.795	1234.937
-13.648	32.068	1457.358	1233.879
-12.633	32.115	1456.343	1233.283
-11.619	32.187	1455.401	1232.904
-10.604	32.123	1454.957	1232.061
-9.590	32.149	1453.440	1230.896
-8.575	32.181	1452.769	1230.488
-7.560	32.151	1451.751	1229.381
-6.546	32.146	1450.928	1228.603
-5.531	32.121	1450.265	1227.828
-4.517	32.134	1449.309	1227.056
-3.502	31.957	1448.285	1224.988
-2.487	32.030	1446.950	1224.283
-1.473	32.119	1445.958	1223.979
-0.458	32.068	1444.963	1222.752
0.556	32.760	1435.015	1212.017
1.571	29.895	1410.469	1173.057
2.586	26.688	1357.165	1109.029
3.600	25.398	1279.078	1037.678
4.615	23.967	1231.013	990.633
5.629	20.655	1173.160	926.386
6.644	11.032	1086.504	810.198
7.659	3.449	1044.362	742.304
8.673	2.325	1039.400	733.325
9.688	2.203	1035.590	729.991
10.702	2.102	1034.154	728.430
11.717	2.010	1032.844	727.007
12.731	5.727	1036.310	747.125
13.746	15.518	1050.229	804.191
14.761	23.106	1060.110	848.219
15.775	25.245	1062.055	859.966
16.790	25.462	1062.091	860.956
17.804	25.282	1060.860	859.022
18.819	25.188	1060.426	858.145
19.834	25.401	1059.533	858.363
20.848	25.437	1059.243	858.227
21.863	25.479	1058.947	858.112
22.877	25.407	1058.800	857.571
23.892	25.475	1057.573	856.825
24.907	25.316	1056.982	855.513
25.921	25.363	1056.548	855.312
26.936	25.472	1055.268	854.718
27.950	25.374	1054.675	853.697
28.965	25.342	1053.625	852.618
29.980	25.332	1051.768	850.995
30.994	25.256	1050.424	849.471
32.009	25.491	1049.393	849.671
33.023	25.603	1049.082	849.876
34.038	25.358	1048.178	847.913
35.053	25.347	1047.254	847.036
36.067	25.467	1046.546	846.956
37.082	25.434	1045.821	846.135
38.096	25.487	1044.987	845.640
39.111	25.518	1044.486	845.304
40.126	25.705	1044.046	845.752
41.140	25.752	1042.380	844.546
42.155	25.369	1040.982	841.547
43.169	25.006	1040.211	839.150
44.184	25.100	1038.860	838.421
45.199	25.186	1037.906	837.979
46.213	25.058	1036.810	836.427
47.228	24.980	1036.424	835.674
48.242	25.273	1035.244	836.015
49.257	25.250	1035.101	835.720
50.271	25.308	1034.279	835.251
51.286	25.462	1033.434	835.210
52.301	25.586	1032.635	835.066
53.315	25.528	1032.138	834.323
54.330	25.509	1031.340	833.512
55.344	25.552	1030.094	832.631
56.359	25.420	1029.731	831.656
57.374	25.394	1028.824	830.729
58.388	25.256	1027.725	829.130
59.403	25.245	1027.229	828.607
60.417	25.185	1026.396	827.585
61.432	25.051	1025.777	826.392
62.447	25.097	1024.902	825.826
63.461	25.208	1024.412	825.868
64.476	25.266	1023.507	825.335
65.490	25.268	1022.397	824.373
66.505	25.123	1021.473	822.893
67.520	25.146	1020.965	822.516
68.534	25.228	1020.020	822.059
69.549	25.121	1019.086	820.740
70.563	24.770	1017.852	818.071
71.578	24.582	1017.477	816.835
72.593	24.778	1016.385	816.783
73.607	24.668	1015.281	815.324
74.622	24.670	1014.137	814.340
75.636	24.824	1013.955	814.824
76.651	25.005	1013.313	815.058
77.666	24.921	1012.445	813.908
78.680	24.958	1011.740	813.435
79.695	24.906	1010.651	812.254
80.709	24.984	1010.330	812.277
81.724	25.045	1009.437	811.763
82.739	25.043	1009.221	811.507
83.753	25.127	1007.925	810.775
84.768	25.333	1007.376	811.193
85.782	25.621	1006.889	812.028
86.797	25.778	1006.280	812.172
87.812	25.702	1005.282	810.953
88.826	25.509	1004.818	809.639
89.841	25.557	1003.323	808.578
90.855	25.692	1002.805	808.695
91.870	25.685	1002.138	808.053
92.884	25.747	1000.956	807.307
93.899	25.657	1000.165	806.194
94.914	25.698	998.916	805.301
95.928	25.648	998.526	804.691
96.943	25.557	998.099	803.869
97.957	25.421	996.590	801.978
98.972	25.173	995.607	800.009
99.987	25.067	994.304	798.421
101.001	25.115	993.991	798.310
102.016	25.481	993.460	799.439
103.030	25.364	992.372	797.975
104.045	25.346	991.253	796.926
105.060	25.206	990.239	795.419
106.074	25.081	989.023	793.817
107.089	25.112	988.613	793.555
108.103	25.484	988.278	794.861
109.118	25.451	987.303	793.863
110.133	25.344	985.909	792.198
111.147	25.266	985.146	791.172
112.162	25.068	984.223	789.489
113.176	24.730	983.060	786.999
114.191	24.915	982.401	787.215
115.206	25.000	981.946	787.153
116.220	24.687	980.468	784.528
117.235	24.587	979.509	783.252
118.249	24.807	978.718	783.514
119.264	24.856	977.859	782.972
120.279	24.709	977.510	781.979
121.293	24.724	976.832	781.433
122.308	24.812	975.951	781.045
123.322	24.790	975.218	780.293
124.337	24.761	974.042	779.153
125.352	24.780	972.757	778.143
126.366	24.355	971.105	774.906
127.381	24.025	969.821	772.381
128.395	24.570	969.833	774.687
129.410	25.219	969.286	776.990
130.424	25.406	968.777	777.324
131.439	25.390	967.378	776.064
132.454	25.318	966.631	775.083
133.468	25.377	965.865	774.659
134.483	25.229	964.909	773.185
135.497	25.296	964.552	773.118
136.512	25.633	964.066	774.112
137.527	25.663	962.918	773.250
138.541	25.445	962.560	771.956
139.556	25.606	961.879	772.032
140.570	25.542	960.955	770.950
141.585	25.714	960.026	770.873
142.600	25.714	959.536	770.412
143.614	25.533	958.533	768.763
144.629	25.646	957.741	768.542
145.643	25.917	957.024	769.057
146.658	25.807	955.640	767.408
147.673	25.774	954.158	766.010
148.687	25.590	953.587	764.700
149.702	25.521	952.433	763.413
150.716	25.403	951.844	762.375
151.731	25.398	950.574	761.268
152.746	25.399	950.250	760.943
153.760	25.712	949.412	761.532
154.775	25.795	948.777	761.306
155.789	25.897	947.885	760.955
156.804	25.691	946.627	759.007
157.819	25.756	946.036	758.738
158.833	25.639	945.409	757.676
159.848	25.890	944.647	758.057
160.862	25.946	943.749	757.504
161.877	25.798	942.952	756.173
162.892	25.642	942.069	754.745
163.906	25.784	941.264	754.629
164.921	25.677	940.156	753.228
165.935	25.603	939.546	752.363
166.950	25.675	938.440	751.712
167.964	25.850	937.481	751.607
168.979	25.777	936.407	750.372
169.994	25.592	935.235	748.597
171.008	25.560	934.439	747.763
172.023	25.702	933.719	747.708
173.037	25.688	933.304	747.254
174.052	25.659	931.625	745.722
175.067	25.510	930.678	744.281
176.081	25.401	930.283	743.449
177.096	25.519	929.307	743.092
178.110	25.575	928.138	742.321
179.125	25.325	927.210	740.482
180.140	24.985	926.415	738.381
181.154	24.932	926.052	737.806
182.169	25.129	925.506	738.120
183.183	25.276	925.194	738.410
184.198	25.627	924.767	739.445
185.213	25.700	924.063	739.120
186.227	25.647	923.260	738.191
187.242	25.607	922.703	737.517
188.256	25.722	922.272	737.581
189.271	25.679	921.030	736.346
190.286	25.824	920.682	736.595
191.300	25.781	919.432	735.356
192.315	25.227	918.017	731.897
193.329	24.486	916.321	727.464
194.344	23.901	916.016	724.772
195.359	24.631	915.951	727.628
196.373	25.390	916.310	730.942
197.388	25.648	916.216	731.850
198.402	25.632	915.792	731.385
199.417	25.655	915.072	730.837
200.432	25.513	914.795	729.976
201.446	25.506	913.689	728.998
202.461	25.275	913.142	727.560
203.475	25.344	912.455	727.231
204.490	24.809	911.137	723.951
205.504	23.608	908.969	717.314
206.519	24.008	909.172	719.025
207.534	25.101	909.321	723.492
208.548	25.218	908.839	723.519
209.563	25.576	908.756	724.833
210.577	25.617	907.936	724.280
211.592	25.311	907.223	722.415
212.607	25.762	906.738	723.777
213.621	25.844	906.380	723.757
214.636	25.847	905.759	723.211
215.650	25.687	905.603	722.378
216.665	25.715	904.625	721.646
217.680	25.753	904.121	721.332
218.694	25.935	903.441	721.454
219.709	25.647	902.349	719.367
220.723	25.154	901.897	716.973
221.738	25.354	901.301	717.236
222.753	25.729	900.522	718.050
223.767	25.536	900.115	716.889
224.782	25.646	899.420	716.712
225.796	25.828	899.112	717.126
226.811	25.947	898.507	717.054
227.826	25.689	897.004	714.768
228.840	24.666	895.867	709.738
229.855	24.692	894.993	709.088
230.869	25.022	894.937	710.287
231.884	24.665	893.963	708.039
232.899	24.533	893.334	706.956
233.913	25.414	893.304	710.354
234.928	25.536	893.221	710.706
235.942	25.484	892.604	709.948
236.957	25.490	892.026	709.447
237.972	25.442	890.372	707.884
238.986	25.016	890.566	706.295
240.001	25.258	889.962	706.706
241.015	25.309	888.865	705.973
242.030	25.370	888.223	705.639
243.045	25.621	888.013	706.395
244.059	25.655	887.367	705.953
245.074	25.772	886.842	705.932
246.088	25.580	886.553	704.888
247.103	25.336	885.124	702.734
248.117	25.207	884.738	701.859
249.132	25.956	884.956	704.901
250.147	26.223	884.692	705.671
251.161	26.247	884.108	705.239
252.176	26.538	883.914	706.155
253.190	26.538	883.020	705.377
254.205	26.491	882.725	704.899
255.220	26.707	882.314	705.347
256.234	26.805	881.293	704.852
257.249	26.487	881.082	703.381
258.263	26.512	880.169	702.688
259.278	26.496	879.301	701.874
260.293	26.540	879.239	701.932
261.307	26.696	878.501	701.886
262.322	26.554	877.965	700.846
263.336	26.423	877.351	699.784
264.351	25.877	875.844	696.412
265.366	24.917	873.525	690.805
266.380	24.452	872.784	688.366
267.395	25.375	873.185	692.179
268.409	26.082	873.353	694.974
269.424	26.032	873.075	694.498
270.439	26.180	872.818	694.805
271.453	26.373	871.603	694.518
272.468	26.367	871.373	694.249
273.482	26.370	871.103	693.982
274.497	26.686	870.313	694.504
275.512	26.448	869.450	692.842
276.526	25.885	867.727	689.257
277.541	25.997	867.907	689.767
278.555	26.382	867.454	690.815
279.570	26.242	866.537	689.491
280.585	26.006	866.032	688.127
281.599	26.087	865.446	687.909
282.614	26.098	865.457	687.898
283.628	25.812	863.830	685.457
284.643	25.489	862.930	683.453
285.657	25.872	862.988	684.897
286.672	25.653	862.378	683.520
287.687	25.169	861.498	680.926
288.701	25.651	861.314	682.547
289.716	25.952	861.132	683.486
290.730	25.649	860.172	681.514
291.745	25.518	859.479	680.410
292.760	25.475	858.375	679.314
293.774	25.307	857.942	678.276
294.789	26.224	858.540	682.153
295.803	26.837	858.769	684.588
296.818	26.831	858.462	684.261
297.833	26.945	857.869	684.156
298.847	26.468	856.754	681.411
299.862	26.436	855.415	680.165
300.876	26.462	855.544	680.307
301.891	26.854	854.866	681.178
302.906	26.701	854.302	680.095
303.920	26.475	853.221	678.326
304.935	26.272	852.838	677.204
305.949	26.708	852.279	678.331
306.964	26.904	851.942	678.737
307.979	26.677	851.147	677.195
308.993	26.606	850.759	676.562
310.008	26.861	850.550	677.286
311.022	27.047	849.995	677.477
312.037	26.847	849.450	676.238
313.052	26.584	848.992	674.833
314.066	26.464	847.818	673.394
315.081	25.914	846.178	669.988
316.095	25.106	845.686	666.538
317.110	25.568	845.783	668.270
318.125	26.599	845.637	671.925
319.139	26.102	844.534	669.148
320.154	24.954	843.075	663.680
321.168	24.509	841.699	660.892
322.183	25.107	842.392	663.592
323.197	26.093	842.720	667.441
324.212	26.329	842.407	668.005
325.227	26.550	841.958	668.407
326.241	26.605	841.950	668.546
327.256	26.586	841.026	667.682
328.270	26.441	840.581	666.734
329.285	26.348	839.688	665.626
330.300	26.187	839.013	664.439
331.314	26.051	837.968	663.054
332.329	26.070	837.725	662.870
333.343	26.445	837.721	664.186
334.358	26.791	837.366	665.117
335.373	26.800	836.611	664.490
336.387	26.793	836.047	663.957
337.402	26.923	836.162	664.466
338.416	27.198	835.474	664.869
339.431	27.307	834.758	664.638
340.446	27.088	834.627	663.675
341.460	27.362	833.781	663.941
342.475	27.380	833.154	663.449
343.489	27.113	832.713	662.068
344.504	27.174	831.413	661.198
345.519	27.341	831.710	661.982
346.533	27.592	831.281	662.495
347.548	27.644	831.016	662.413
348.562	27.641	830.447	661.890
349.577	27.410	830.008	660.643
350.592	27.461	829.435	660.313
351.606	27.505	828.863	659.961
352.621	27.378	828.785	659.379
353.635	27.434	827.815	658.754
354.650	27.264	827.388	657.739
355.665	26.871	826.656	655.679
356.679	26.018	824.498	650.834
357.694	25.753	824.289	649.654
358.708	26.401	824.330	651.965
359.723	26.243	823.975	651.057
360.738	26.532	823.461	651.634
361.752	27.031	823.376	653.305
362.767	27.253	822.949	653.707
363.781	27.387	823.166	654.304
364.796	27.834	822.843	655.594
365.810	27.851	822.041	654.957
366.825	28.076	821.987	655.663
367.840	27.946	821.736	654.941
368.854	27.727	821.017	653.526
369.869	27.234	820.090	650.966
370.883	27.081	819.401	649.815
371.898	27.320	818.801	650.136
372.913	27.107	818.388	648.988
373.927	26.950	817.777	647.885
374.942	27.424	817.126	649.002
375.956	27.385	816.773	648.524
376.971	27.589	816.018	648.594
377.986	27.507	815.808	648.078
379.000	27.708	815.516	648.503
380.015	28.035	814.544	648.835
381.029	27.687	813.929	647.052
382.044	27.689	813.411	646.590
383.059	27.905	812.611	646.663
384.073	27.926	812.481	646.577
385.088	27.826	812.043	645.816
386.102	27.830	811.348	645.222
387.117	27.790	810.137	644.059
388.132	27.636	809.786	643.181
389.146	27.427	809.265	641.972
390.161	26.939	808.477	639.571
391.175	26.918	807.880	638.970
392.190	27.427	808.208	640.963
393.205	27.487	807.636	640.666
394.219	26.366	806.176	635.512
395.234	24.849	803.912	628.351
396.248	24.160	802.359	624.665
397.263	25.262	803.131	629.075
398.278	27.026	805.108	636.760
399.292	27.568	804.648	638.240
400.307	27.152	803.973	636.192
401.321	27.136	803.545	635.742
402.336	27.190	803.446	635.793
403.350	27.480	803.417	636.730
404.365	27.945	803.261	638.175
405.380	27.999	803.074	638.159
406.394	28.534	803.046	639.947
407.409	28.636	802.476	639.790
408.423	28.672	801.743	639.276
409.438	28.410	801.423	638.052
410.453	28.433	800.776	637.559
411.467	28.494	800.498	637.494
412.482	28.453	800.198	637.056
413.496	28.550	799.370	636.678
414.511	28.639	799.025	636.656
415.526	28.709	798.507	636.428
416.540	28.538	798.540	635.806
417.555	28.578	797.625	635.159
418.569	28.215	796.637	633.064
419.584	28.148	796.617	632.759
420.599	28.169	796.096	632.360
421.613	111.364	1285.652	1458.243
422.628	95.966	1356.972	1458.337
