DTS Sentinel unit serial number:	SN413079Multiplexer serial number:	ORYXHardware model number:	OX4-SRSoftware version number:	ORYX F/W v4.00 Oryx Data Collector v3.7.2.0data status	okinstallation	princeton_trtdifferential loss correction	single-endedforward channel	channel 3reverse channel	N/Adate	2019/09/15time	22:40:35forward acquisition time	60.00reverse acquisition time	0.00gamma	496.2192k internal	0.2333k external	0.2333temperature offset calibration	0.9949default loss term (dB/km)	0.3790temperature slope calibration	1.0000multiplexer offset coefficient	1.0000multiplexer slope coefficient	1.0000fibre end	0.00T internal ref (°C)	28.94T ext. ref 1 (°C)	8.82T ext. ref 2 (°C)	22.43length (m)	temperature (°C)	Stokes	anti-Stokes-747.200	146.371	-0.157	0.213
-746.185	336.255	-0.192	0.374
-745.171	-174.556	-0.197	-0.006
-744.156	800.000	-0.067	0.204
-743.142	-200.000	-0.003	0.202
-742.127	-38.023	-0.200	0.107
-741.112	-22.938	0.188	0.114
-740.098	-200.000	-0.055	0.489
-739.083	-200.000	-0.024	0.317
-738.069	47.557	0.192	0.180
-737.054	-167.565	-0.174	0.007
-736.039	-103.524	-0.335	0.079
-735.025	-200.000	0.017	0.225
-734.010	-50.791	0.257	0.122
-732.996	-22.157	-0.202	-0.123
-731.981	-200.000	-0.026	-0.148
-730.966	-200.000	-0.030	-0.137
-729.952	80.859	-0.077	-0.083
-728.937	800.000	-0.018	0.059
-727.923	172.538	-0.102	-0.147
-726.908	-103.666	0.145	-0.034
-725.894	373.926	0.069	-0.141
-724.879	72.414	0.139	-0.146
-723.864	-200.000	-0.055	-0.430
-722.850	-200.000	0.007	-0.134
-721.835	800.000	0.063	0.176
-720.821	66.877	-0.204	-0.209
-719.806	-187.520	-0.093	-0.001
-718.791	26.261	-0.294	0.247
-717.777	800.000	0.022	-0.066
-716.762	24.059	0.171	-0.141
-715.748	-200.000	-0.043	-0.249
-714.733	-200.000	-0.061	-0.303
-713.718	176.028	-0.114	0.166
-712.704	-200.000	0.055	0.296
-711.689	-147.884	0.189	-0.016
-710.675	248.723	0.034	0.058
-709.660	88.001	0.016	-0.018
-708.645	-6.423	0.201	0.138
-707.631	-120.535	-0.266	-0.045
-706.616	55.188	0.170	-0.165
-705.602	264.008	-0.024	0.042
-704.587	20.386	-0.305	-0.247
-703.572	-142.352	-0.131	-0.013
-702.558	800.000	-0.046	0.192
-701.543	-36.842	-0.081	-0.043
-700.529	800.000	0.100	-0.278
-699.514	-200.000	0.020	0.104
-698.499	-200.000	0.019	-0.131
-697.485	74.046	0.396	0.417
-696.470	-32.276	0.110	-0.062
-695.456	-97.484	0.246	0.064
-694.441	-31.508	-0.159	0.090
-693.426	-44.915	-0.174	-0.087
-692.412	-68.850	0.074	0.029
-691.397	178.655	-0.141	0.207
-690.383	424.453	-0.058	-0.126
-689.368	200.730	-0.042	-0.065
-688.354	288.696	-0.096	0.175
-687.339	-124.977	0.260	0.040
-686.324	-92.348	-0.188	0.053
-685.310	66.238	-0.100	-0.102
-684.295	358.471	-0.091	-0.182
-683.281	-123.628	-0.264	0.042
-682.266	800.000	-0.150	0.492
-681.251	-200.000	-0.053	0.449
-680.237	800.000	0.027	0.083
-679.222	-30.663	-0.019	-0.011
-678.208	-53.165	-0.153	-0.070
-677.193	27.067	0.091	0.076
-676.178	-200.000	0.005	-0.120
-675.164	250.275	-0.034	0.058
-674.149	800.000	-0.014	0.053
-673.135	145.195	-0.199	0.267
-672.120	-51.144	-0.118	0.056
-671.105	-127.266	-0.091	0.013
-670.091	-198.676	-0.182	0.001
-669.076	18.406	-0.252	0.202
-668.062	-120.835	0.122	0.021
-667.047	-146.736	-0.206	0.018
-666.032	-36.840	-0.023	-0.012
-665.018	61.451	-0.260	-0.259
-664.003	-200.000	-0.021	-0.266
-662.989	-34.000	0.120	-0.066
-661.974	-200.000	-0.028	-0.145
-660.959	-162.222	-0.052	0.003
-659.945	800.000	0.066	0.188
-658.930	-176.307	-0.265	0.007
-657.916	-111.584	0.166	-0.034
-656.901	-24.534	0.098	0.059
-655.886	19.169	-0.063	0.050
-654.872	-0.061	0.121	-0.086
-653.857	-46.708	0.163	-0.080
-652.843	48.036	-0.294	-0.275
-651.828	-123.389	0.210	0.034
-650.814	519.795	-0.058	0.136
-649.799	20.500	0.137	-0.111
-648.784	121.722	0.114	0.142
-647.770	23.221	-0.286	0.235
-646.755	798.735	0.058	-0.160
-645.741	-95.416	-0.129	-0.035
-644.726	-110.826	-0.402	0.083
-643.711	-22.069	0.233	0.141
-642.697	-200.000	-0.010	0.306
-641.682	83.741	0.091	-0.099
-640.668	-130.696	0.118	-0.016
-639.653	33.704	-0.311	-0.271
-638.638	-19.686	0.151	-0.094
-637.624	-200.000	-0.023	0.175
-636.609	237.276	-0.030	0.049
-635.595	39.414	0.184	0.165
-634.580	800.000	0.074	-0.315
-633.565	481.195	-0.087	-0.199
-632.551	194.911	-0.063	0.096
-631.536	-200.000	-0.018	-0.180
-630.522	-200.000	0.010	0.332
-629.507	-91.971	-0.206	0.058
-628.492	-79.815	0.288	0.097
-627.478	44.060	-0.037	0.034
-626.463	800.000	-0.087	-0.263
-625.449	800.000	-0.029	-0.084
-624.434	187.511	-0.087	-0.129
-623.419	800.000	0.032	-0.132
-622.405	800.000	0.059	-0.163
-621.390	86.600	0.178	-0.196
-620.376	-200.000	-0.009	0.228
-619.361	207.669	0.099	-0.155
-618.346	-91.337	0.115	-0.033
-617.332	-71.743	0.182	-0.068
-616.317	-18.796	-0.214	-0.134
-615.303	-200.000	0.024	-0.174
-614.288	252.290	-0.120	0.204
-613.273	-104.939	-0.068	0.016
-612.259	-88.189	0.023	-0.007
-611.244	800.000	-0.047	-0.153
-610.230	787.429	-0.055	-0.152
-609.215	-200.000	0.002	-0.229
-608.201	3.362	0.272	-0.198
-607.186	317.577	-0.050	-0.095
-606.171	-200.000	-0.020	-0.149
-605.157	-83.258	-0.351	0.113
-604.142	770.931	-0.147	-0.401
-603.128	-68.736	0.284	0.110
-602.113	-200.000	0.016	0.134
-601.098	74.448	0.085	0.089
-600.084	100.385	0.099	0.115
-599.069	236.220	-0.157	0.260
-598.055	258.216	0.089	-0.153
-597.040	310.105	-0.084	-0.156
-596.025	-13.851	0.185	-0.120
-595.011	-200.000	-0.007	0.142
-593.996	800.000	-0.103	0.300
-592.982	800.000	-0.065	0.267
-591.967	-124.244	-0.174	-0.027
-590.952	178.326	0.039	0.056
-589.938	-146.843	-0.063	-0.005
-588.923	-81.189	-0.253	-0.084
-587.909	409.649	0.155	-0.329
-586.894	800.000	-0.028	0.094
-585.879	269.890	0.190	-0.333
-584.865	101.163	0.230	-0.267
-583.850	-74.112	0.168	-0.061
-582.836	29.954	0.154	0.131
-581.821	-115.245	0.112	0.021
-580.806	800.000	-0.215	0.697
-579.792	800.000	-0.081	0.240
-578.777	23.732	0.175	-0.144
-577.763	35.233	0.082	-0.072
-576.748	138.123	-0.135	-0.177
-575.733	430.558	0.057	-0.124
-574.719	-96.196	-0.114	-0.030
-573.704	-125.134	0.242	0.037
-572.690	-68.312	-0.116	-0.045
-571.675	-59.291	-0.085	-0.036
-570.661	-44.301	-0.121	-0.061
-569.646	55.285	0.230	-0.222
-568.631	-200.000	-0.003	-0.186
-567.617	-2.587	-0.064	0.045
-566.602	800.000	0.010	-0.029
-565.588	-23.751	0.193	0.116
-564.573	-177.451	0.266	0.007
-563.558	-23.100	0.195	0.117
-562.544	32.626	-0.240	0.207
-561.529	-159.507	-0.129	-0.007
-560.515	13.890	-0.101	-0.079
-559.500	93.499	-0.224	-0.253
-558.485	-65.164	0.013	0.005
-557.471	-200.000	-0.013	0.131
-556.456	-6.919	-0.347	-0.235
-555.442	800.000	-0.027	0.080
-554.427	-122.109	0.204	0.033
-553.412	19.377	-0.185	-0.148
-552.398	-200.000	0.020	-0.215
-551.383	-59.767	0.087	-0.037
-550.369	-11.300	-0.414	0.272
-549.354	328.091	-0.065	0.125
-548.339	800.000	-0.044	0.158
-547.325	-50.429	-0.092	0.043
-546.310	-200.000	0.000	0.093
-545.296	-52.522	-0.080	-0.037
-544.281	-12.640	0.137	-0.089
-543.266	-2.047	0.229	0.161
-542.252	-41.628	-0.152	-0.078
-541.237	-85.313	0.140	-0.044
-540.223	-63.240	-0.072	-0.030
-539.208	-141.837	-0.179	-0.018
-538.193	800.000	0.057	-0.201
-537.179	-164.799	0.412	-0.018
-536.164	-200.000	0.056	-0.275
-535.150	-1.117	0.047	-0.033
-534.135	-103.965	-0.344	0.080
-533.121	800.000	-0.072	-0.273
-532.106	161.719	-0.106	-0.148
-531.091	266.858	-0.032	-0.056
-530.077	-102.861	-0.247	-0.059
-529.062	-200.000	-0.045	-0.228
-528.048	800.000	-0.034	-0.146
-527.033	-200.000	0.066	0.349
-526.018	151.204	-0.112	0.152
-525.004	43.865	0.041	-0.037
-523.989	100.783	0.024	-0.028
-522.975	9.315	-0.231	0.174
-521.960	432.391	-0.062	0.135
-520.945	-30.687	0.242	-0.137
-519.931	480.381	-0.191	-0.433
-518.916	-23.650	-0.199	-0.119
-517.902	48.570	-0.115	-0.108
-516.887	-198.726	-0.332	-0.002
-515.872	800.000	-0.065	-0.280
-514.858	-200.000	-0.020	0.194
-513.843	223.434	0.137	0.220
-512.829	-200.000	0.017	-0.113
-511.814	-200.000	-0.030	-0.144
-510.799	145.964	-0.092	0.123
-509.785	800.000	-0.070	0.260
-508.770	-100.459	-0.140	0.035
-507.756	302.597	-0.084	0.154
-506.741	-138.009	0.239	-0.026
-505.726	-22.576	0.345	0.208
-504.712	-82.502	-0.183	0.059
-503.697	800.000	0.036	-0.105
-502.683	130.498	0.179	-0.228
-501.668	144.753	0.076	-0.101
-500.653	68.528	-0.144	0.147
-499.639	-18.228	0.254	0.158
-498.624	-130.233	-0.245	0.033
-497.610	800.000	0.072	-0.299
-496.595	-162.978	0.241	-0.012
-495.581	133.665	-0.209	-0.270
-494.566	-200.000	-0.033	-0.247
-493.551	-200.000	-0.013	-0.109
-492.537	-132.389	0.077	0.010
-491.522	800.000	0.036	0.133
-490.508	-126.893	-0.157	-0.023
-489.493	329.331	-0.111	0.212
-488.478	-200.000	-0.034	0.165
-487.464	-41.355	-0.265	-0.136
-486.449	800.000	0.100	0.289
-485.435	147.778	0.075	-0.101
-484.420	-89.825	-0.052	-0.015
-483.405	-80.963	-0.071	-0.023
-482.391	-35.890	0.212	-0.114
-481.376	-200.000	-0.033	0.150
-480.362	239.060	-0.081	-0.133
-479.347	-87.973	-0.089	0.027
-478.332	-24.952	-0.057	-0.034
-477.318	50.563	0.118	-0.111
-476.303	6.276	0.150	-0.111
-475.289	27.361	0.170	-0.142
-474.274	-118.704	-0.278	0.049
-473.259	30.571	-0.208	0.177
-472.245	-200.000	0.013	-0.234
-471.230	-200.000	0.000	-0.427
-470.216	261.330	0.229	-0.394
-469.201	-98.525	-0.201	-0.051
-468.186	-152.902	-0.075	0.005
-467.172	-200.000	-0.003	0.036
-466.157	-29.537	-0.073	0.042
-465.143	800.000	0.102	0.328
-464.128	-21.803	-0.349	0.211
-463.113	467.504	0.064	-0.142
-462.099	-31.669	-0.195	0.109
-461.084	45.380	-0.250	0.229
-460.070	-29.797	-0.352	-0.199
-459.055	308.343	0.116	0.215
-458.040	-11.354	-0.361	-0.236
-457.026	166.473	0.059	-0.083
-456.011	37.871	0.032	-0.028
-454.997	403.593	0.110	0.230
-453.982	109.220	0.295	-0.351
-452.968	88.800	0.144	-0.159
-451.953	-22.328	-0.022	-0.013
-450.938	-16.841	-0.182	-0.114
-449.924	-97.729	-0.316	-0.081
-448.909	160.806	-0.149	-0.206
-447.895	16.326	-0.064	0.050
-446.880	-6.044	0.128	0.087
-445.865	-13.345	-0.148	0.095
-444.851	-167.731	-0.086	0.003
-443.836	71.387	0.190	0.196
-442.822	-44.914	0.243	0.121
-441.807	207.709	-0.115	0.178
-440.792	313.934	0.225	-0.421
-439.778	-191.917	0.208	0.002
-438.763	44.524	0.174	0.159
-437.749	51.686	-0.328	-0.310
-436.734	-9.611	0.298	0.197
-435.719	800.000	-0.096	0.360
-434.705	150.132	-0.151	-0.204
-433.690	-106.917	-0.210	0.046
-432.676	-200.000	0.001	-0.139
-431.661	-94.291	0.292	-0.079
-430.646	461.576	0.119	0.264
-429.632	38.284	-0.152	-0.135
-428.617	-139.766	0.218	0.023
-427.603	-44.911	-0.173	-0.085
-426.588	800.000	0.123	-0.440
-425.573	95.262	-0.227	-0.257
-424.559	59.585	-0.069	0.067
-423.544	-107.068	-0.076	0.017
-422.530	-200.000	-0.006	0.322
-421.515	28.219	0.025	0.021
-420.500	-78.848	0.105	-0.036
-419.486	440.546	0.167	0.363
-418.471	193.513	0.127	0.190
-417.457	-148.741	0.132	-0.011
-416.442	-30.492	0.182	0.102
-415.428	-59.111	-0.130	0.056
-414.413	107.218	-0.127	0.149
-413.398	-126.708	0.132	0.019
-412.384	800.000	-0.049	0.191
-411.369	13.478	0.079	-0.061
-410.355	800.000	0.114	-0.338
-409.340	-94.153	-0.427	-0.116
-408.325	-196.769	0.275	-0.002
-407.311	128.672	-0.067	-0.085
-406.296	276.341	0.168	0.297
-405.282	-200.000	0.014	0.315
-404.267	12.017	-0.174	-0.133
-403.252	800.000	0.061	0.261
-402.238	234.774	-0.057	-0.093
-401.223	-200.000	0.057	-0.264
-400.209	-13.101	0.266	0.171
-399.194	-200.000	-0.000	0.040
-398.179	800.000	0.038	-0.129
-397.165	405.309	0.068	0.142
-396.150	-7.232	-0.258	0.173
-395.136	-33.656	0.112	-0.061
-394.121	117.981	-0.094	-0.115
-393.106	247.394	-0.203	0.341
-392.092	-5.881	0.139	0.095
-391.077	-200.000	-0.040	0.647
-390.063	800.000	0.014	0.044
-389.048	-200.000	-0.001	0.562
-388.033	16.597	0.210	-0.165
-387.019	-69.437	-0.133	-0.051
-386.004	-127.797	-0.218	-0.031
-384.990	-101.322	-0.084	-0.020
-383.975	-167.314	-0.148	0.006
-382.960	90.752	0.025	0.027
-381.946	800.000	0.050	0.167
-380.931	-141.195	0.027	-0.003
-379.917	-200.000	-0.080	-0.579
-378.902	396.081	-0.141	0.292
-377.888	-79.161	0.139	-0.047
-376.873	800.000	-0.034	0.130
-375.858	98.764	-0.443	0.507
-374.844	-29.632	0.090	0.051
-373.829	549.444	0.003	0.006
-372.815	424.434	0.089	0.189
-371.800	282.645	-0.112	0.200
-370.785	-200.000	0.000	-0.121
-369.771	203.932	-0.010	0.015
-368.756	-120.863	0.198	0.033
-367.742	-29.260	0.053	-0.030
-366.727	78.626	0.066	-0.069
-365.712	800.000	0.061	-0.189
-364.698	800.000	-0.038	0.149
-363.683	-200.000	-0.002	0.113
-362.669	-200.000	-0.026	-0.185
-361.654	-29.121	-0.068	-0.039
-360.639	-195.350	-0.273	0.002
-359.625	455.468	0.101	-0.222
-358.610	-7.322	-0.140	-0.094
-357.596	-93.892	0.172	-0.047
-356.581	-74.394	0.160	-0.057
-355.566	-200.000	-0.020	-0.183
-354.552	800.000	0.046	-0.185
-353.537	203.640	0.126	-0.193
-352.523	-200.000	0.002	-0.282
-351.508	160.375	0.149	-0.206
-350.493	-118.873	0.069	-0.012
-349.479	-143.443	-0.077	-0.007
-348.464	-200.000	-0.070	-0.649
-347.450	299.615	-0.144	0.263
-346.435	75.287	0.122	0.127
-345.420	800.000	-0.096	0.332
-344.406	209.609	0.062	-0.096
-343.391	-200.000	-0.001	0.186
-342.377	-60.753	-0.260	-0.109
-341.362	36.048	-0.299	0.260
-340.348	559.471	-0.057	-0.135
-339.333	154.122	0.372	-0.506
-338.318	-170.574	-0.240	0.008
-337.304	521.703	0.051	0.119
-336.289	-84.722	0.119	0.037
-335.275	200.715	-0.118	0.179
-334.260	42.657	-0.072	0.065
-333.245	507.808	-0.112	0.256
-332.231	-116.987	0.229	0.041
-331.216	-55.720	-0.108	0.048
-330.202	320.383	-0.198	0.372
-329.187	-82.395	-0.122	-0.039
-328.172	694.673	-0.072	0.187
-327.158	9.864	0.168	-0.126
-326.143	-200.000	0.027	0.129
-325.129	54.837	-0.250	-0.239
-324.114	-115.119	-0.079	0.015
-323.099	247.266	-0.112	-0.188
-322.085	190.348	0.062	-0.092
-321.070	-154.519	-0.276	0.018
-320.056	303.488	0.127	0.233
-319.041	-200.000	-0.008	-0.207
-318.026	-135.238	-0.100	0.012
-317.012	-25.165	-0.142	-0.083
-315.997	297.724	-0.163	-0.296
-314.983	19.344	-0.247	0.196
-313.968	-200.000	-0.009	-0.235
-312.953	-200.000	0.003	-0.148
-311.939	28.436	0.137	0.115
-310.924	-13.116	0.207	0.133
-309.910	800.000	0.049	-0.188
-308.895	-200.000	0.047	0.483
-307.880	-17.055	0.194	-0.121
-306.866	-23.437	0.084	0.050
-305.851	-200.000	0.019	-0.210
-304.837	5.776	0.429	0.314
-303.822	-131.047	-0.311	0.041
-302.807	-200.000	0.025	0.178
-301.793	185.042	-0.184	-0.270
-300.778	-162.588	-0.083	-0.004
-299.764	-79.457	0.341	0.114
-298.749	-8.295	0.056	-0.037
-297.735	-43.526	-0.171	0.085
-296.720	161.094	0.081	-0.112
-295.705	-101.919	0.087	-0.021
-294.691	-157.080	-0.202	0.012
-293.676	741.170	0.089	0.236
-292.662	-30.962	0.222	-0.124
-291.647	271.884	0.137	0.238
-290.632	-200.000	-0.032	0.158
-289.618	-200.000	-0.011	-0.140
-288.603	44.329	-0.412	0.374
-287.589	99.623	0.265	-0.303
-286.574	-90.795	-0.132	-0.038
-285.559	-16.651	-0.213	0.133
-284.545	-200.000	0.025	-0.449
-283.530	-56.196	-0.134	-0.059
-282.516	799.035	0.058	-0.158
-281.501	-200.000	-0.012	0.339
-280.486	-200.000	0.053	-0.495
-279.472	-33.099	-0.228	0.125
-278.457	678.337	-0.085	-0.218
-277.443	800.000	-0.080	0.341
-276.428	-22.043	0.288	-0.173
-275.413	-200.000	-0.001	0.103
-274.399	-95.439	0.226	-0.060
-273.384	-200.000	0.012	0.408
-272.370	-84.869	0.219	0.068
-271.355	-200.000	0.061	-0.315
-270.340	-200.000	-0.000	0.002
-269.326	-200.000	-0.023	-0.141
-268.311	553.156	0.070	-0.165
-267.297	-87.337	0.090	0.027
-266.282	-116.692	0.321	0.058
-265.267	130.797	-0.186	0.236
-264.253	-107.978	0.107	-0.023
-263.238	50.162	0.078	0.072
-262.224	-44.934	0.219	0.108
-261.209	190.050	0.053	0.079
-260.195	-32.440	-0.158	-0.087
-259.180	800.000	-0.031	0.109
-258.165	51.876	-0.230	-0.216
-257.151	146.121	0.163	-0.216
-256.136	13.753	0.281	-0.215
-255.122	122.673	0.144	0.177
-254.107	-100.038	-0.091	0.022
-253.092	-136.478	0.467	0.054
-252.078	-200.000	-0.005	0.078
-251.063	-129.423	0.075	-0.010
-250.049	31.146	-0.491	0.415
-249.034	-44.933	0.217	-0.107
-248.019	694.755	0.024	-0.061
-247.005	-119.311	0.104	0.018
-245.990	631.996	-0.113	-0.282
-244.976	82.888	0.241	-0.258
-243.961	-200.000	0.037	0.237
-242.946	116.586	-0.076	0.092
-241.932	7.223	-0.167	0.123
-240.917	-102.156	0.197	-0.047
-239.903	13.727	0.112	-0.086
-238.888	-79.136	0.192	0.064
-237.873	-78.642	0.248	0.084
-236.859	-129.316	-0.151	0.021
-235.844	-200.000	0.016	0.110
-234.830	179.416	-0.128	0.184
-233.815	245.553	0.112	0.185
-232.800	161.518	0.198	-0.273
-231.786	-200.000	-0.008	-0.139
-230.771	168.004	0.283	0.397
-229.757	54.673	-0.313	-0.297
-228.742	-83.193	-0.220	-0.070
-227.727	85.944	0.239	-0.259
-226.713	800.000	-0.061	-0.175
-225.698	99.549	0.254	0.290
-224.684	32.188	-0.227	0.193
-223.669	-200.000	0.022	0.200
-222.655	-146.204	-0.309	0.027
-221.640	-30.167	-0.192	-0.108
-220.625	-200.000	0.005	-0.093
-219.611	120.180	-0.082	0.100
-218.596	-29.156	0.141	0.080
-217.582	18.623	0.270	0.213
-216.567	-109.855	0.150	-0.031
-215.552	355.239	0.063	-0.123
-214.538	-131.017	-0.151	-0.020
-213.523	-63.153	-0.297	-0.121
-212.509	108.448	-0.181	0.212
-211.494	-200.000	0.029	0.322
-210.479	227.957	-0.125	-0.200
-209.465	163.882	0.158	-0.220
-208.450	-200.000	-0.025	-0.260
-207.436	28.707	0.252	0.210
-206.421	-131.222	-0.384	-0.050
-205.406	-163.725	0.125	0.006
-204.392	43.790	0.219	0.198
-203.377	800.000	0.084	-0.246
-202.363	-69.483	-0.024	-0.009
-201.348	761.315	-0.094	0.251
-200.333	-50.096	0.120	-0.056
-199.319	-12.772	-0.297	-0.190
-198.304	60.975	0.049	0.048
-197.290	30.766	-0.179	-0.151
-196.275	-75.371	-0.078	-0.027
-195.260	486.197	0.163	-0.366
-194.246	-200.000	0.009	-0.096
-193.231	-84.664	0.295	0.091
-192.217	-200.000	-0.004	-0.031
-191.202	-200.000	0.004	0.548
-190.187	-156.621	0.434	-0.026
-189.173	429.844	0.115	0.245
-188.158	642.838	0.034	-0.084
-187.144	-57.343	0.264	0.114
-186.129	82.942	-0.279	0.299
-185.114	-99.809	-0.116	-0.029
-184.100	131.930	-0.096	0.122
-183.085	401.242	-0.132	0.273
-182.071	-42.054	0.544	-0.274
-181.056	18.312	-0.251	-0.197
-180.042	-90.385	0.303	0.086
-179.027	-25.866	0.381	0.221
-178.012	212.094	0.079	-0.122
-176.998	-91.869	0.233	-0.065
-175.983	110.082	0.082	0.096
-174.969	-182.365	-0.327	-0.006
-173.954	38.038	0.144	-0.126
-172.939	76.929	-0.090	-0.094
-171.925	-200.000	-0.029	-0.132
-170.910	800.000	-0.035	0.104
-169.896	271.333	0.120	0.207
-168.881	653.002	0.055	0.138
-167.866	-140.914	-0.090	-0.009
-166.852	-18.188	0.148	-0.091
-165.837	-134.508	0.314	0.038
-164.823	-74.768	-0.195	-0.069
-163.808	-186.120	0.295	0.004
-162.793	-200.000	0.024	0.231
-161.779	173.417	-0.102	-0.144
-160.764	800.000	-0.041	0.118
-159.750	-108.529	0.130	0.027
-158.735	800.000	-0.065	0.197
-157.720	-200.000	-0.056	0.335
-156.706	-6.450	0.350	0.235
-155.691	59.217	0.164	-0.159
-154.677	120.638	0.068	0.083
-153.662	-31.016	-0.348	-0.193
-152.647	167.469	0.147	0.205
-151.633	-17.999	-0.273	0.168
-150.618	-77.379	-0.173	-0.059
-149.604	800.000	-0.075	-0.248
-148.589	6.178	0.167	-0.121
-147.574	25.810	0.136	-0.111
-146.560	-8.679	-0.069	-0.046
-145.545	-83.296	-0.102	0.032
-144.531	-28.462	-0.121	0.069
-143.516	194.524	-0.153	-0.228
-142.502	3.454	0.248	-0.178
-141.487	800.000	-0.037	0.158
-140.472	284.980	0.154	-0.272
-139.458	800.000	-0.025	0.090
-138.443	55.195	0.216	0.205
-137.429	-40.218	-0.288	0.147
-136.414	456.394	-0.085	-0.185
-135.399	-89.921	-0.242	-0.069
-134.385	-2.270	0.110	-0.075
-133.370	53.487	0.127	0.119
-132.356	63.064	-0.112	0.110
-131.341	122.745	0.090	-0.110
-130.326	-66.448	-0.037	0.014
-129.312	43.004	-0.012	-0.011
-128.297	-200.000	0.040	-0.196
-127.283	-143.192	0.050	0.005
-126.268	603.922	0.080	-0.196
-125.253	-106.351	-0.104	-0.023
-124.239	289.329	-0.104	0.185
-123.224	283.263	-0.099	-0.174
-122.210	-57.361	0.092	-0.040
-121.195	-71.880	0.159	-0.058
-120.180	-61.960	0.055	0.023
-119.166	269.077	-0.183	0.314
-118.151	-152.132	-0.229	0.016
-117.137	-45.599	0.199	-0.097
-116.122	261.697	0.140	0.238
-115.107	-200.000	-0.026	0.171
-114.093	105.143	-0.132	0.153
-113.078	312.114	0.207	-0.381
-112.064	-91.183	0.251	-0.071
-111.049	-4.132	0.061	-0.041
-110.034	-103.662	0.173	-0.040
-109.020	-86.746	0.044	0.013
-108.005	155.237	-0.244	0.329
-106.991	177.079	0.238	-0.339
-105.976	181.761	-0.144	-0.208
-104.962	-79.382	0.227	0.076
-103.947	-41.218	-0.316	-0.160
-102.932	-167.413	-0.383	-0.015
-101.918	-155.085	-0.087	0.006
-100.903	-200.000	-0.054	0.318
-99.889	-107.540	0.301	-0.065
-98.874	-24.911	0.026	0.015
-97.859	330.888	0.105	0.199
-96.845	58.627	0.207	-0.199
-95.830	-200.000	0.040	0.213
-94.816	325.135	0.101	0.190
-93.801	-8.899	-0.361	-0.237
-92.786	563.841	-0.107	0.253
-91.772	7.236	-0.162	0.119
-90.757	13.764	0.055	0.042
-89.743	-60.351	-0.470	0.196
-88.728	-87.915	0.111	0.033
-87.713	-200.000	0.005	-0.030
-86.699	39.805	-0.101	0.089
-85.684	-170.257	0.274	0.009
-84.670	-142.132	-0.178	-0.017
-83.655	36.790	0.129	-0.112
-82.640	-93.730	-0.165	-0.045
-81.626	-94.401	-0.152	-0.041
-80.611	-41.687	-0.310	0.156
-79.597	262.877	0.112	-0.191
-78.582	49.002	0.330	0.304
-77.567	-101.577	-0.398	0.095
-76.553	-43.953	0.234	-0.115
-75.538	47.751	0.180	0.165
-74.524	-88.009	0.153	-0.045
-73.509	-62.076	0.252	0.103
-72.494	604.092	-0.059	0.145
-71.480	-41.170	-0.203	-0.103
-70.465	538.142	0.050	-0.117
-69.451	-16.714	-0.170	0.105
-68.436	-200.000	-0.023	0.119
-67.422	174.161	0.074	0.105
-66.407	35.026	0.282	0.242
-65.392	-200.000	0.033	0.366
-64.378	206.602	0.060	0.092
-63.363	-22.426	-0.279	0.166
-62.349	71.413	0.212	0.215
-61.334	41.401	-1.048	-0.929
-60.319	110.928	0.616	0.726
-59.305	351.859	-0.674	-1.307
-58.290	292.465	0.659	1.175
-57.276	301.081	0.919	1.662
-56.261	-200.000	109.728	633.259
-55.246	474.445	1490.455	3291.748
-54.232	149.418	2657.469	3522.366
-53.217	106.315	2160.579	2506.044
-52.203	39.343	1695.996	1486.325
-51.188	32.096	1515.660	1279.085
-50.173	29.808	1490.747	1242.660
-49.159	52.871	1547.108	1448.018
-48.144	52.962	1563.770	1464.171
-47.130	32.298	1520.853	1284.649
-46.115	29.215	1505.753	1250.947
-45.100	29.064	1502.811	1247.427
-44.086	29.034	1500.224	1245.027
-43.071	28.912	1498.448	1242.681
-42.057	28.851	1497.118	1241.117
-41.042	28.976	1495.389	1240.476
-40.027	28.898	1494.560	1239.216
-39.013	28.864	1492.905	1237.568
-37.998	28.834	1491.764	1236.367
-36.984	28.937	1490.458	1235.929
-35.969	29.016	1488.862	1235.089
-34.954	28.990	1487.832	1234.009
-33.940	28.942	1486.682	1232.687
-32.925	28.881	1485.387	1231.156
-31.911	29.073	1483.434	1230.769
-30.896	28.992	1482.492	1229.400
-29.881	28.967	1481.713	1228.538
-28.867	28.954	1480.029	1227.008
-27.852	29.023	1478.389	1226.057
-26.838	28.973	1477.382	1224.840
-25.823	29.041	1475.597	1223.764
-24.809	29.006	1473.886	1222.065
-23.794	28.887	1472.747	1220.281
-22.779	28.885	1471.521	1219.201
-21.765	28.975	1470.374	1218.798
-20.750	28.982	1469.565	1218.127
-19.736	28.961	1468.179	1216.790
-18.721	28.894	1467.668	1215.880
-17.706	28.942	1465.936	1214.711
-16.692	28.829	1464.847	1213.017
-15.677	28.923	1464.004	1212.889
-14.663	28.963	1462.770	1212.083
-13.648	28.928	1462.215	1211.343
-12.633	29.001	1460.708	1210.528
-11.619	28.950	1460.214	1209.737
-10.604	28.869	1460.098	1209.058
-9.590	28.940	1458.710	1208.326
-8.575	28.951	1457.641	1207.465
-7.560	29.002	1456.576	1206.868
-6.546	28.896	1456.060	1205.701
-5.531	28.825	1455.350	1204.597
-4.517	28.857	1454.104	1203.730
-3.502	28.861	1453.325	1203.064
-2.487	28.894	1451.828	1201.992
-1.473	28.877	1451.218	1201.329
-0.458	28.860	1450.098	1200.244
0.556	27.083	1440.274	1188.440
1.571	23.909	1414.681	1146.788
2.586	20.060	1353.206	1073.070
3.600	18.187	1269.766	995.918
4.615	17.247	1224.180	954.800
5.629	16.045	1171.547	907.202
6.644	12.560	1095.104	830.371
7.659	9.439	1060.239	788.588
8.673	9.027	1055.104	782.693
9.688	8.781	1051.814	778.984
10.702	8.760	1050.081	777.529
11.717	8.723	1048.303	775.964
12.731	10.350	1047.896	783.471
13.746	13.890	1053.311	804.631
14.761	17.115	1056.888	822.953
15.775	17.679	1056.853	825.583
16.790	16.828	1055.015	819.957
17.804	15.894	1052.530	813.446
18.819	15.039	1050.380	807.586
19.834	14.503	1048.927	803.817
20.848	14.189	1048.340	801.782
21.863	13.813	1047.715	799.423
22.877	13.626	1046.916	797.839
23.892	13.558	1046.147	796.859
24.907	13.309	1045.182	794.853
25.921	13.449	1044.514	794.950
26.936	13.400	1043.711	794.034
27.950	13.596	1042.654	794.099
28.965	13.474	1041.490	792.558
29.980	13.564	1040.558	792.208
30.994	13.595	1039.417	791.416
32.009	13.652	1038.316	790.782
33.023	13.653	1037.669	790.221
34.038	13.699	1036.449	789.445
35.053	13.688	1035.815	788.838
36.067	13.648	1034.817	787.819
37.082	13.562	1034.247	786.905
38.096	13.677	1033.399	786.737
39.111	13.621	1032.466	785.692
40.126	13.741	1031.418	785.391
41.140	13.636	1030.185	783.890
42.155	13.546	1029.121	782.584
43.169	13.493	1027.878	781.320
44.184	13.345	1027.303	780.113
45.199	13.328	1026.344	779.239
46.213	13.371	1025.047	778.386
47.228	13.387	1024.170	777.726
48.242	13.485	1023.228	777.402
49.257	13.623	1021.905	776.976
50.271	13.506	1021.554	776.094
51.286	13.491	1020.581	775.216
52.301	13.706	1019.706	775.485
53.315	13.608	1018.938	774.376
54.330	13.573	1017.987	773.422
55.344	13.570	1016.859	772.483
56.359	13.438	1016.265	771.347
57.374	13.495	1014.867	770.484
58.388	13.426	1014.650	769.927
59.403	13.302	1013.911	768.724
60.417	13.287	1013.184	768.036
61.432	13.338	1012.542	767.717
62.447	13.412	1011.431	767.151
63.461	13.256	1010.925	765.973
64.476	13.265	1009.820	765.111
65.490	13.212	1009.082	764.238
66.505	13.362	1008.132	764.147
67.520	13.432	1006.998	763.540
68.534	13.424	1005.989	762.672
69.549	13.311	1005.371	761.614
70.563	13.303	1004.816	761.090
71.578	13.349	1004.299	760.842
72.593	13.203	1003.714	759.663
73.607	13.284	1002.250	758.860
74.622	13.135	1001.807	757.773
75.636	13.235	1000.672	757.306
76.651	13.307	999.485	756.667
77.666	13.231	999.327	756.135
78.680	13.310	998.353	755.690
79.695	13.219	998.051	754.983
80.709	13.346	997.436	755.028
81.724	13.340	996.278	754.058
82.739	13.424	995.452	753.751
83.753	13.455	995.031	753.504
84.768	13.460	994.662	753.179
85.782	13.626	993.489	752.979
86.797	13.676	992.864	752.668
87.812	13.716	992.075	752.182
88.826	13.558	991.316	750.827
89.841	13.537	990.218	749.832
90.855	13.527	989.512	749.186
91.870	13.653	988.700	749.072
92.884	13.752	988.127	749.020
93.899	13.683	987.078	747.849
94.914	13.668	986.588	747.345
95.928	13.774	986.007	747.313
96.943	13.817	985.283	746.892
97.957	13.608	984.573	745.350
98.972	13.637	983.548	744.638
99.987	13.587	983.101	744.008
101.001	13.714	982.576	744.118
102.016	13.643	981.471	742.893
103.030	13.682	980.335	742.144
104.045	13.750	979.281	741.582
105.060	13.641	978.538	740.470
106.074	13.505	977.639	739.114
107.089	13.557	976.731	738.597
108.103	13.442	975.748	737.273
109.118	13.419	975.270	736.749
110.133	13.426	973.857	735.646
111.147	13.281	973.356	734.556
112.162	13.491	971.959	734.368
113.176	13.443	971.412	733.678
114.191	13.650	970.509	733.847
115.206	13.416	970.151	732.478
116.220	13.625	968.994	732.463
117.235	13.566	967.812	731.245
118.249	13.520	967.425	730.686
119.264	13.487	966.612	729.859
120.279	13.503	965.517	729.036
121.293	13.439	965.103	728.382
122.308	13.380	963.860	727.117
123.322	13.519	962.932	726.964
124.337	13.545	961.792	726.155
125.352	13.286	961.406	724.662
126.366	13.396	960.090	724.089
127.381	13.342	959.322	723.207
128.395	13.383	958.277	722.534
129.410	13.326	956.882	721.172
130.424	13.438	956.539	721.336
131.439	13.376	955.533	720.243
132.454	13.525	954.515	720.062
133.468	13.582	953.814	719.718
134.483	13.570	953.236	719.165
135.497	13.493	952.781	718.425
136.512	13.519	952.030	717.905
137.527	13.427	951.607	717.127
138.541	13.565	950.378	716.733
139.556	13.568	949.608	716.103
140.570	13.464	949.032	715.155
141.585	13.493	948.011	714.446
142.600	13.599	947.473	714.434
143.614	13.670	946.761	714.140
144.629	13.708	946.354	713.936
145.643	13.677	945.458	713.063
146.658	13.684	944.286	712.146
147.673	13.708	943.091	711.283
148.687	13.613	942.183	710.128
149.702	13.498	941.823	709.304
150.716	13.654	940.628	709.006
151.731	13.615	940.013	708.314
152.746	13.706	939.042	707.909
153.760	13.733	938.543	707.585
154.775	13.644	937.936	706.684
155.789	13.734	937.221	706.469
156.804	13.697	936.690	705.845
157.819	13.818	935.505	705.406
158.833	13.711	935.179	704.644
159.848	13.648	934.733	703.978
160.862	13.780	933.613	703.633
161.877	13.745	932.901	702.885
162.892	13.784	932.185	702.447
163.906	13.654	931.297	701.168
164.921	13.659	930.199	700.301
165.935	13.752	928.922	699.668
166.950	13.746	928.172	699.018
167.964	13.802	927.422	698.626
168.979	13.655	926.609	697.331
169.994	13.667	925.553	696.524
171.008	13.836	924.474	696.362
172.023	13.846	923.878	695.892
173.037	13.834	923.811	695.732
174.052	13.837	923.050	695.109
175.067	13.836	922.442	694.586
176.081	13.832	921.176	693.556
177.096	13.676	920.852	692.595
178.110	13.803	919.651	692.162
179.125	13.652	919.099	691.054
180.140	13.858	918.222	691.191
181.154	13.868	917.451	690.593
182.169	13.932	916.785	690.299
183.183	13.979	916.122	689.930
184.198	14.101	915.141	689.639
185.213	14.032	914.932	689.132
186.227	14.113	913.806	688.560
187.242	14.008	913.952	688.173
188.256	14.171	912.787	687.909
189.271	14.050	912.422	687.073
190.286	14.173	911.621	686.917
191.300	14.047	910.618	685.581
192.315	13.756	910.124	683.948
193.329	13.741	909.075	683.040
194.344	13.625	908.751	682.257
195.359	13.773	908.286	682.456
196.373	13.818	907.725	682.160
197.388	14.022	906.937	682.346
198.402	14.094	906.678	682.384
199.417	14.088	906.462	682.139
200.432	14.271	905.597	682.178
201.446	14.254	905.614	682.061
202.461	14.294	904.733	681.499
203.475	14.336	904.372	681.337
204.490	14.229	903.880	680.468
205.504	14.269	903.010	679.919
206.519	14.204	901.919	678.772
207.534	14.139	901.506	678.136
208.548	14.234	900.686	677.846
209.563	14.138	900.104	676.959
210.577	14.218	899.125	676.485
211.592	14.295	898.595	676.340
212.607	14.370	898.055	676.176
213.621	14.286	897.669	675.488
214.636	14.367	897.101	675.330
215.650	14.378	896.166	674.611
216.665	14.367	895.678	674.139
217.680	14.488	895.007	674.062
218.694	14.467	894.466	673.512
219.709	14.437	894.134	673.079
220.723	14.485	893.605	672.816
221.738	14.421	892.783	671.880
222.753	14.549	891.618	671.456
223.767	14.479	891.277	670.860
224.782	14.512	890.205	670.125
225.796	14.540	889.779	669.858
226.811	14.670	889.023	669.752
227.826	14.694	888.285	669.231
228.840	14.613	887.640	668.363
229.855	14.597	887.022	667.777
230.869	14.714	886.041	667.445
231.884	14.657	885.635	666.851
232.899	14.510	885.128	665.824
233.913	14.461	884.536	665.128
234.928	14.465	883.543	664.335
235.942	14.625	883.101	664.580
236.957	14.672	881.913	663.817
237.972	14.497	881.478	662.735
238.986	14.530	881.045	662.482
240.001	14.459	880.559	661.775
241.015	14.491	879.785	661.261
242.030	14.606	878.900	660.995
243.045	14.526	878.462	660.289
244.059	14.745	877.821	660.614
245.074	14.547	877.418	659.470
246.088	14.784	875.926	659.225
247.103	14.742	876.147	659.168
248.117	14.789	875.477	658.790
249.132	14.801	875.049	658.459
250.147	14.801	874.628	658.083
251.161	14.897	873.989	657.923
252.176	14.975	873.121	657.516
253.190	15.108	872.066	657.188
254.205	14.999	871.633	656.374
255.220	15.018	871.374	656.195
256.234	15.058	870.572	655.692
257.249	15.183	869.883	655.604
258.263	15.267	869.233	655.382
259.278	15.063	868.830	654.223
260.293	15.169	868.535	654.357
261.307	15.171	867.684	653.666
262.322	15.265	867.323	653.705
263.336	15.303	866.726	653.342
264.351	15.394	865.898	653.017
265.366	15.348	865.213	652.264
266.380	15.310	864.901	651.821
267.395	15.335	864.106	651.262
268.409	15.261	863.855	650.729
269.424	15.266	863.078	650.104
270.439	15.364	862.123	649.710
271.453	15.333	861.560	649.107
272.468	15.278	860.580	648.098
273.482	15.341	860.149	647.960
274.497	15.285	859.409	647.130
275.512	15.285	858.759	646.582
276.526	15.442	857.855	646.450
277.541	15.322	857.457	645.627
278.555	15.334	857.184	645.413
279.570	15.347	856.614	644.976
280.585	15.515	855.509	644.732
281.599	15.508	855.112	644.351
282.614	15.479	854.474	643.701
283.628	15.410	854.123	643.114
284.643	15.520	853.470	642.986
285.657	15.449	852.991	642.297
286.672	15.518	852.437	642.089
287.687	15.435	852.001	641.387
288.701	15.433	851.739	641.122
289.716	15.574	850.574	640.726
290.730	15.597	850.031	640.351
291.745	15.592	849.263	639.694
292.760	15.468	848.680	638.729
293.774	15.417	848.634	638.443
294.789	15.535	847.995	638.353
295.803	15.766	847.156	638.541
296.818	15.650	846.433	637.500
297.833	15.614	846.045	637.016
298.847	15.639	845.349	636.533
299.862	15.627	844.747	635.975
300.876	15.665	843.907	635.433
301.891	15.843	843.116	635.451
302.906	15.661	843.070	634.673
303.920	15.783	842.136	634.376
304.935	15.886	841.630	634.326
305.949	16.020	840.904	634.225
306.964	15.947	840.521	633.608
307.979	15.767	839.986	632.468
308.993	15.887	839.245	632.307
310.008	15.885	838.620	631.773
311.022	15.984	838.039	631.650
312.037	15.921	837.966	631.303
313.052	15.930	837.312	630.788
314.066	15.972	836.582	630.340
315.081	15.824	836.209	629.450
316.095	15.861	835.481	628.982
317.110	15.948	834.664	628.640
318.125	15.923	834.361	628.262
319.139	15.759	833.811	627.180
320.154	15.858	833.445	627.218
321.168	15.687	833.030	626.213
322.183	15.916	832.191	626.380
323.197	16.048	831.458	626.262
324.212	15.935	830.806	625.296
325.227	15.965	830.582	625.182
326.241	16.036	829.955	624.921
327.256	15.894	829.450	623.960
328.270	15.989	828.836	623.793
329.285	15.894	828.466	623.106
330.300	15.947	827.885	622.812
331.314	16.066	827.253	622.720
332.329	16.037	826.796	622.212
333.343	16.083	826.064	621.778
334.358	16.011	825.689	621.174
335.373	16.108	824.980	620.944
336.387	16.152	824.474	620.671
337.402	16.285	823.854	620.636
338.416	16.139	823.522	619.795
339.431	16.175	823.157	619.599
340.446	16.276	822.031	619.067
341.460	16.494	821.085	619.096
342.475	16.397	820.939	618.578
343.489	16.409	820.534	618.261
344.504	16.393	820.137	617.850
345.519	16.511	819.353	617.637
346.533	16.639	818.792	617.625
347.548	16.492	818.539	616.845
348.562	16.438	818.174	616.315
349.577	16.575	817.412	616.189
350.592	16.499	816.680	615.304
351.606	16.347	816.244	614.369
352.621	16.430	816.103	614.509
353.635	16.401	815.649	614.007
354.650	16.548	814.998	613.998
355.665	16.583	814.722	613.863
356.679	16.315	814.402	612.593
357.694	16.493	813.860	612.777
358.708	16.651	812.743	612.455
359.723	16.606	812.202	611.829
360.738	16.644	811.806	611.615
361.752	16.650	811.443	611.309
362.767	16.645	811.234	611.078
363.781	16.736	811.148	611.289
364.796	16.753	810.443	610.763
365.810	16.797	810.190	610.678
366.825	16.778	809.759	610.231
367.840	16.929	809.337	610.404
368.854	16.921	808.769	609.893
369.869	16.796	808.639	609.291
370.883	16.795	807.935	608.701
371.898	16.755	807.636	608.280
372.913	16.694	806.878	607.437
373.927	16.994	806.001	607.797
374.942	16.846	805.548	606.872
375.956	16.843	804.912	606.330
376.971	16.822	804.642	605.994
377.986	17.022	803.846	606.058
379.000	17.204	802.893	605.935
380.015	17.107	802.640	605.344
381.029	17.030	802.424	604.854
382.044	16.969	801.883	604.175
383.059	17.139	800.719	603.850
384.073	17.203	800.509	603.863
385.088	17.008	800.329	602.981
386.102	17.059	799.505	602.487
387.117	17.117	799.055	602.302
388.132	17.011	798.791	601.673
389.146	17.075	798.397	601.550
390.161	16.905	798.141	600.702
391.175	17.165	797.301	600.937
392.190	17.178	796.934	600.653
393.205	17.169	796.422	600.182
394.219	17.086	796.098	599.590
395.234	17.173	795.435	599.347
396.248	17.071	795.067	598.655
397.263	17.023	794.558	598.050
398.278	16.977	794.102	597.495
399.292	16.979	793.553	597.035
400.307	17.036	793.461	597.113
401.321	17.108	792.820	596.830
402.336	17.238	792.289	596.835
403.350	17.060	792.048	595.973
404.365	17.255	791.426	596.137
405.380	17.231	791.009	595.687
406.394	17.270	790.850	595.651
407.409	17.402	790.298	595.644
408.423	17.419	789.664	595.174
409.438	17.359	789.577	594.848
410.453	17.410	788.962	594.509
411.467	17.477	788.396	594.265
412.482	17.433	788.272	593.963
413.496	17.516	787.926	593.939
414.511	17.618	787.611	594.005
415.526	17.646	787.225	593.759
416.540	17.434	786.947	592.760
417.555	17.625	786.220	592.822
418.569	17.559	785.947	592.336
419.584	17.486	785.480	591.678
420.599	17.649	784.688	591.596
421.613	110.821	1292.777	1474.478
422.628	95.010	1366.781	1474.591
