DTS Sentinel unit serial number:	SN413079Multiplexer serial number:	ORYXHardware model number:	OX4-SRSoftware version number:	ORYX F/W v4.00 Oryx Data Collector v3.7.2.0data status	okinstallation	princeton_trtdifferential loss correction	single-endedforward channel	channel 3reverse channel	N/Adate	2019/09/18time	16:40:35forward acquisition time	60.00reverse acquisition time	0.00gamma	496.2192k internal	0.2292k external	0.2292temperature offset calibration	0.9984default loss term (dB/km)	0.3790temperature slope calibration	1.0000multiplexer offset coefficient	1.0000multiplexer slope coefficient	1.0000fibre end	0.00T internal ref (°C)	39.69T ext. ref 1 (°C)	0.85T ext. ref 2 (°C)	36.61length (m)	temperature (°C)	Stokes	anti-Stokes-747.200	76.399	0.094	-0.102
-746.185	76.623	0.254	0.276
-745.171	547.103	-0.134	0.329
-744.156	503.341	0.093	0.221
-743.142	800.000	-0.135	0.490
-742.127	800.000	-0.042	0.182
-741.112	78.876	0.020	0.021
-740.098	800.000	-0.058	0.214
-739.083	-112.361	-0.167	-0.034
-738.069	249.310	-0.261	0.452
-737.054	-82.392	-0.113	-0.037
-736.039	570.322	0.050	0.125
-735.025	221.454	-0.099	0.162
-734.010	-33.292	0.155	0.088
-732.996	-200.000	-0.038	-0.228
-731.981	252.868	-0.102	0.178
-730.966	80.485	-0.326	0.359
-729.952	-200.000	0.012	0.321
-728.937	421.098	-0.077	-0.170
-727.923	-98.422	-0.350	0.092
-726.908	-83.644	-0.291	-0.095
-725.894	-200.000	0.037	0.287
-724.879	501.660	-0.065	-0.155
-723.864	-153.674	-0.101	-0.007
-722.850	-81.685	-0.248	-0.083
-721.835	-54.891	-0.349	-0.161
-720.821	800.000	0.062	0.178
-719.806	-159.050	-0.299	-0.017
-718.791	-97.935	-0.310	-0.082
-717.777	-115.565	-0.444	-0.085
-716.762	22.766	-0.216	0.181
-715.748	-92.895	-0.330	0.094
-714.733	-200.000	0.027	-0.144
-713.718	800.000	-0.047	-0.167
-712.704	-59.646	0.131	0.057
-711.689	91.013	0.289	-0.331
-710.675	800.000	-0.073	-0.212
-709.660	156.341	-0.104	0.147
-708.645	800.000	-0.082	0.295
-707.631	396.420	0.087	0.185
-706.616	36.939	0.158	0.143
-705.602	372.143	0.102	-0.212
-704.587	-59.042	0.233	-0.103
-703.572	-43.014	-0.104	-0.054
-702.558	-12.618	0.091	0.060
-701.543	-60.349	-0.291	0.126
-700.529	-200.000	0.047	-0.238
-699.514	-200.000	-0.034	-0.303
-698.499	-145.188	0.258	-0.024
-697.485	-144.794	0.391	0.037
-696.470	-200.000	0.013	-0.224
-695.456	12.024	0.039	0.030
-694.441	-200.000	0.007	0.435
-693.426	712.374	-0.114	0.307
-692.412	800.000	0.107	0.379
-691.397	-200.000	0.027	0.160
-690.383	77.622	-0.298	0.324
-689.368	235.280	-0.138	0.232
-688.354	15.641	-0.072	0.058
-687.339	-109.773	0.187	0.040
-686.324	413.460	-0.139	0.301
-685.310	-38.788	-0.184	0.099
-684.295	16.763	-0.186	0.151
-683.281	-101.067	0.136	0.034
-682.266	93.750	-0.250	-0.289
-681.251	177.862	-0.063	-0.093
-680.237	113.055	0.075	0.092
-679.222	-200.000	0.008	0.038
-678.208	-129.758	0.123	0.017
-677.193	26.947	0.110	0.094
-676.178	-200.000	0.013	0.068
-675.164	16.601	0.119	0.096
-674.149	191.803	0.135	-0.208
-673.135	-200.000	-0.007	0.202
-672.120	-99.382	-0.183	-0.047
-671.105	-200.000	-0.004	-0.235
-670.091	-45.585	-0.191	0.097
-669.076	800.000	-0.052	-0.213
-668.062	46.578	0.108	0.102
-667.047	-200.000	-0.040	-0.203
-666.032	95.104	-0.247	0.287
-665.018	-16.099	0.127	-0.082
-664.003	108.213	-0.159	0.194
-662.989	225.782	-0.092	0.153
-661.974	57.917	0.069	-0.068
-660.959	-96.935	0.133	0.036
-659.945	254.771	-0.057	0.099
-658.930	-124.672	0.278	0.044
-657.916	54.169	0.043	0.043
-656.901	166.384	0.145	-0.209
-655.886	-200.000	0.011	-0.097
-654.872	-13.424	-0.210	0.139
-653.857	226.797	-0.219	-0.363
-652.843	-200.000	-0.003	-0.120
-651.828	-147.044	0.162	-0.014
-650.814	-43.961	0.372	0.191
-649.799	800.000	-0.060	0.242
-648.784	-200.000	0.033	0.293
-647.770	561.257	-0.056	0.137
-646.755	-200.000	0.002	0.243
-645.741	-200.000	-0.014	0.095
-644.726	-106.261	0.252	-0.058
-643.711	687.718	-0.104	-0.278
-642.697	65.856	0.079	-0.082
-641.682	-200.000	-0.003	-0.077
-640.668	-141.446	0.168	-0.017
-639.653	-200.000	-0.006	0.056
-638.638	30.067	-0.143	-0.125
-637.624	117.842	0.223	-0.280
-636.609	8.706	-0.026	0.020
-635.595	-69.243	0.294	0.115
-634.580	28.398	-0.202	0.174
-633.565	800.000	0.097	-0.287
-632.551	57.178	0.068	0.068
-631.536	-200.000	0.037	0.256
-630.522	-169.120	-0.105	-0.004
-629.507	-116.224	-0.199	0.038
-628.492	-32.986	0.274	-0.155
-627.478	-200.000	-0.023	-0.153
-626.463	32.778	-0.025	-0.022
-625.449	-200.000	0.103	-0.483
-624.434	-12.902	-0.230	0.153
-623.419	168.855	0.099	-0.144
-622.405	-135.907	0.208	0.025
-621.390	14.711	0.085	0.067
-620.376	-111.159	0.024	0.005
-619.361	115.245	-0.078	0.097
-618.346	800.000	0.070	0.208
-617.332	131.117	-0.080	0.105
-616.317	-164.115	-0.261	-0.012
-615.303	-144.247	0.171	0.016
-614.288	-119.966	0.387	-0.068
-613.273	86.885	0.189	-0.212
-612.259	602.440	0.114	-0.288
-611.244	64.099	0.246	-0.252
-610.230	84.767	-0.193	-0.215
-609.215	-119.013	0.229	-0.041
-608.201	800.000	-0.079	0.225
-607.186	-200.000	-0.010	-0.123
-606.171	152.042	-0.264	0.367
-605.157	-11.144	-0.268	-0.180
-604.142	-200.000	0.018	-0.177
-603.128	-200.000	0.079	0.472
-602.113	2.275	-0.088	0.065
-601.098	13.139	0.331	-0.261
-600.084	21.309	0.248	-0.205
-599.069	800.000	-0.098	-0.291
-598.055	800.000	-0.035	-0.139
-597.040	159.513	0.084	0.119
-596.025	175.812	-0.211	-0.312
-595.011	204.407	-0.264	-0.417
-593.996	99.183	-0.090	-0.106
-592.982	-132.072	-0.155	-0.021
-591.967	143.587	0.045	-0.061
-590.952	-200.000	-0.025	0.313
-589.938	126.984	0.238	0.307
-588.923	377.616	0.105	-0.219
-587.909	139.886	0.054	0.072
-586.894	500.558	-0.103	0.243
-585.879	-154.511	-0.030	-0.002
-584.865	185.279	0.031	0.047
-583.850	100.484	-0.247	-0.291
-582.836	800.000	-0.062	-0.214
-581.821	-41.568	0.239	-0.125
-580.806	195.929	-0.019	-0.029
-579.792	800.000	0.124	-0.437
-578.777	-200.000	-0.003	-0.392
-577.763	-111.387	0.349	-0.072
-576.748	-83.032	0.036	0.012
-575.733	-200.000	0.065	-0.300
-574.719	-200.000	-0.001	-0.242
-573.704	-200.000	-0.031	0.367
-572.690	-66.572	0.137	0.055
-571.675	338.426	0.014	-0.028
-570.661	26.225	-0.084	0.071
-569.646	244.250	0.126	0.216
-568.631	800.000	0.075	0.217
-567.617	-98.147	-0.350	-0.091
-566.602	250.074	0.085	-0.146
-565.588	150.447	0.175	0.242
-564.573	520.069	0.190	-0.454
-563.558	-31.237	0.076	-0.044
-562.544	800.000	0.055	-0.213
-561.529	-200.000	0.051	-0.260
-560.515	-135.085	0.114	0.014
-559.500	382.784	-0.047	0.097
-558.485	-200.000	0.009	-0.190
-557.471	-143.466	0.153	0.015
-556.456	72.183	-0.073	-0.077
-555.442	426.546	-0.087	0.191
-554.427	-200.000	-0.028	-0.148
-553.412	-200.000	0.017	0.187
-552.398	-47.427	0.127	-0.063
-551.383	169.992	0.194	0.282
-550.369	-1.337	0.183	0.131
-549.354	800.000	0.043	-0.151
-548.339	-73.816	-0.239	0.088
-547.325	-200.000	-0.040	-0.273
-546.310	152.307	0.142	0.197
-545.296	90.535	-0.303	-0.345
-544.281	-28.254	-0.145	0.085
-543.266	-9.534	-0.062	0.042
-542.252	-200.000	0.050	-0.256
-541.237	62.493	-0.032	0.033
-540.223	-84.499	-0.143	0.046
-539.208	-137.546	0.224	0.026
-538.193	-200.000	-0.005	-0.035
-537.179	-63.080	0.215	-0.090
-536.164	58.227	0.013	0.013
-535.150	-85.571	-0.167	-0.053
-534.135	251.626	-0.173	-0.299
-533.121	23.368	-0.097	0.081
-532.106	-200.000	0.037	0.323
-531.091	366.528	-0.145	0.296
-530.077	-200.000	0.010	0.051
-529.062	-200.000	-0.003	-0.501
-528.048	215.068	-0.108	0.174
-527.033	-200.000	-0.003	0.082
-526.018	534.242	-0.105	0.252
-525.004	-70.024	-0.495	0.191
-523.989	67.904	0.124	0.129
-522.975	-140.260	-0.302	0.032
-521.960	304.297	-0.070	0.131
-520.945	479.851	-0.081	0.187
-519.931	670.575	0.082	-0.216
-518.916	-108.102	-0.006	-0.001
-517.902	201.437	0.112	0.175
-516.887	-25.369	-0.056	-0.034
-515.872	169.663	0.081	-0.117
-514.858	800.000	0.045	0.186
-513.843	800.000	-0.124	0.468
-512.829	130.819	0.307	0.399
-511.814	-172.560	-0.456	-0.015
-510.799	-31.424	-0.126	0.072
-509.785	-17.972	0.134	0.085
-508.770	266.584	-0.071	-0.126
-507.756	152.608	-0.059	-0.082
-506.741	167.450	0.070	0.102
-505.726	45.678	0.300	0.281
-504.712	71.615	-0.087	0.091
-503.697	269.005	0.114	0.202
-502.683	-120.158	-0.203	0.035
-501.668	-145.767	0.303	0.027
-500.653	-200.000	-0.026	0.202
-499.639	332.122	-0.008	0.015
-498.624	373.465	0.178	-0.366
-497.610	800.000	0.083	-0.247
-496.595	233.835	0.066	0.110
-495.581	800.000	0.093	-0.271
-494.566	800.000	0.067	-0.236
-493.551	82.051	-0.220	0.242
-492.537	-200.000	-0.008	0.091
-491.522	-200.000	-0.021	0.132
-490.508	689.375	0.098	-0.260
-489.493	206.936	-0.051	0.080
-488.478	-156.565	0.150	-0.009
-487.464	153.774	-0.208	-0.289
-486.449	-200.000	0.059	-0.284
-485.435	-165.745	-0.069	-0.003
-484.420	556.226	0.045	-0.109
-483.405	800.000	-0.050	-0.151
-482.391	800.000	0.057	0.185
-481.376	-76.232	0.146	-0.052
-480.362	-200.000	-0.026	-0.130
-479.347	20.294	0.095	0.078
-478.332	-18.007	0.178	-0.113
-477.318	-75.145	0.069	-0.025
-476.303	123.139	-0.115	-0.146
-475.289	-9.262	-0.107	0.073
-474.274	69.606	-0.282	0.294
-473.259	352.746	0.028	0.055
-472.245	19.869	-0.084	0.068
-471.230	79.109	-0.127	0.138
-470.216	-200.000	0.010	0.045
-469.201	-92.702	0.208	-0.059
-468.186	800.000	-0.033	-0.121
-467.172	800.000	-0.073	-0.232
-466.157	199.124	-0.205	-0.318
-465.143	-146.946	0.107	0.009
-464.128	-142.725	0.239	-0.024
-463.113	63.480	0.126	-0.128
-462.099	134.774	-0.120	0.157
-461.084	-200.000	0.000	-0.072
-460.070	-57.787	-0.471	-0.209
-459.055	-11.532	-0.272	-0.181
-458.040	-72.659	-0.038	0.014
-457.026	-103.807	-0.172	0.041
-456.011	474.332	0.146	-0.334
-454.997	800.000	0.047	-0.160
-453.982	151.568	-0.027	0.037
-452.968	80.569	-0.026	0.028
-451.953	162.998	0.033	-0.047
-450.938	12.503	-0.251	0.196
-449.924	-79.198	0.088	0.030
-448.909	31.404	-0.062	0.054
-447.895	-70.261	0.028	0.011
-446.880	283.523	-0.154	0.280
-445.865	-200.000	-0.012	-0.237
-444.851	-120.618	-0.274	-0.047
-443.836	-200.000	-0.015	0.085
-442.822	-160.865	0.536	0.029
-441.807	269.274	-0.089	-0.159
-440.792	-56.931	-0.277	0.124
-439.778	88.929	0.083	0.094
-438.763	-9.318	-0.062	-0.042
-437.749	194.746	0.140	0.214
-436.734	218.605	0.100	-0.162
-435.719	-73.198	0.090	-0.033
-434.705	5.196	0.088	0.066
-433.690	-128.704	-0.213	-0.030
-432.676	-200.000	-0.024	-0.252
-431.661	-200.000	0.023	0.269
-430.646	-49.338	-0.170	-0.082
-429.632	16.375	-0.034	0.027
-428.617	727.678	0.056	0.152
-427.603	-200.000	0.021	0.274
-426.588	-200.000	0.033	0.241
-425.573	-200.000	0.020	0.280
-424.559	61.361	0.201	-0.202
-423.544	-52.659	-0.143	-0.067
-422.530	-200.000	0.010	0.158
-421.515	-118.227	-0.147	-0.026
-420.500	-155.953	0.166	0.011
-419.486	-44.302	-0.239	-0.121
-418.471	244.333	-0.058	-0.098
-417.457	-48.145	-0.287	0.140
-416.442	-122.150	-0.182	0.030
-415.428	-200.000	-0.045	-0.328
-414.413	-54.646	0.217	-0.099
-413.398	-124.237	-0.101	0.016
-412.384	126.948	0.229	-0.293
-411.369	-200.000	-0.033	-0.181
-410.355	-101.145	0.303	-0.075
-409.340	-200.000	0.039	0.269
-408.325	-200.000	-0.005	0.068
-407.311	130.965	-0.020	0.025
-406.296	26.179	0.265	-0.223
-405.282	-154.206	-0.019	-0.001
-404.267	-114.184	0.302	0.059
-403.252	-27.842	0.123	0.072
-402.238	-200.000	-0.017	0.103
-401.223	27.858	-0.106	-0.090
-400.209	179.038	0.135	-0.199
-399.194	800.000	0.105	0.308
-398.179	30.328	-0.008	-0.007
-397.165	-148.560	-0.169	-0.014
-396.150	-114.836	-0.195	-0.038
-395.136	-23.517	0.234	-0.142
-394.121	442.754	-0.091	0.201
-393.106	359.932	0.022	-0.044
-392.092	-200.000	-0.053	0.252
-391.077	-71.316	-0.318	0.120
-390.063	-152.601	0.207	-0.015
-389.048	800.000	-0.068	-0.225
-388.033	98.815	0.010	0.011
-387.019	496.989	0.132	-0.306
-386.004	-70.883	0.052	-0.020
-384.990	12.416	-0.275	0.214
-383.975	2.886	-0.022	-0.016
-382.960	800.000	0.046	-0.144
-381.946	15.170	0.017	0.013
-380.931	386.134	0.205	0.427
-379.917	-144.706	-0.126	0.012
-378.902	-200.000	-0.023	-0.172
-377.888	362.369	-0.099	-0.200
-376.873	800.000	-0.018	0.081
-375.858	8.999	-0.151	0.115
-374.844	47.687	0.103	0.097
-373.829	-106.104	-0.332	0.075
-372.815	-28.148	0.215	0.125
-371.800	-116.989	0.066	0.012
-370.785	98.678	0.027	0.031
-369.771	290.624	-0.074	-0.136
-368.756	314.255	-0.079	0.150
-367.742	-125.296	0.137	-0.021
-366.727	316.297	-0.055	-0.104
-365.712	210.839	0.099	-0.157
-364.698	-33.364	-0.256	0.143
-363.683	-200.000	0.003	-0.038
-362.669	-48.254	-0.079	-0.038
-361.654	77.055	-0.262	0.281
-360.639	-129.788	0.299	-0.042
-359.625	44.068	-0.055	0.051
-358.610	39.548	-0.073	-0.066
-357.596	194.901	0.056	-0.085
-356.581	-165.150	0.249	-0.011
-355.566	57.279	0.050	0.049
-354.552	4.431	0.073	-0.054
-353.537	-120.452	-0.090	0.015
-352.523	-72.706	0.111	0.041
-351.508	800.000	-0.086	-0.267
-350.493	-94.075	0.111	0.031
-349.479	65.593	-0.090	-0.092
-348.464	89.983	-0.299	-0.337
-347.450	193.487	0.073	0.111
-346.435	110.803	0.087	0.105
-345.420	-200.000	-0.007	0.126
-344.406	800.000	0.111	-0.340
-343.391	-169.285	-0.362	0.013
-342.377	-58.296	-0.230	-0.101
-341.362	800.000	-0.065	0.251
-340.348	80.190	0.066	0.072
-339.333	-36.034	0.194	0.106
-338.318	-28.195	0.116	0.068
-337.304	-65.867	-0.349	0.141
-336.289	-76.122	-0.352	0.125
-335.275	-12.516	0.266	0.175
-334.260	772.780	0.177	0.487
-333.245	-200.000	0.023	0.111
-332.231	-200.000	0.200	-0.000
-331.216	-200.000	0.012	0.218
-330.202	-95.035	0.124	0.034
-329.187	-141.298	0.111	-0.011
-328.172	-200.000	0.049	-0.260
-327.158	800.000	-0.087	-0.356
-326.143	-200.000	-0.008	0.153
-325.129	92.668	-0.060	-0.069
-324.114	196.428	0.133	0.204
-323.099	-200.000	-0.042	0.202
-322.085	150.249	0.123	-0.168
-321.070	-118.190	0.118	0.021
-320.056	-60.876	0.330	-0.140
-319.041	-103.254	-0.345	0.082
-318.026	-200.000	-0.011	-0.295
-317.012	-86.820	-0.241	-0.074
-315.997	800.000	0.171	-0.504
-314.983	-151.797	0.068	0.005
-313.968	-61.313	0.079	-0.034
-312.953	-184.677	-0.242	-0.004
-311.939	141.432	0.133	-0.177
-310.924	121.819	0.008	0.011
-309.910	-200.000	-0.035	0.360
-308.895	220.171	-0.051	-0.083
-307.880	91.928	0.068	-0.077
-306.866	-1.315	-0.067	0.047
-305.851	800.000	-0.072	-0.243
-304.837	90.888	0.186	0.210
-303.822	-76.416	-0.156	0.055
-302.807	-180.064	0.204	-0.004
-301.793	-124.135	-0.141	0.022
-300.778	123.583	-0.034	-0.043
-299.764	150.121	0.212	-0.289
-298.749	-71.079	0.159	-0.060
-297.735	6.263	0.058	0.044
-296.720	254.340	0.194	-0.334
-295.705	129.268	-0.167	-0.215
-294.691	325.174	0.034	-0.065
-293.676	-53.425	-0.144	-0.066
-292.662	355.282	0.124	-0.249
-291.647	266.913	0.094	-0.165
-290.632	-109.342	-0.228	-0.049
-289.618	-140.628	0.249	-0.026
-288.603	-37.103	-0.181	0.097
-287.589	-111.021	-0.009	0.002
-286.574	21.848	-0.112	0.092
-285.559	-159.584	0.269	0.015
-284.545	-200.000	0.000	0.162
-283.530	79.527	-0.203	0.218
-282.516	-61.022	0.215	0.091
-281.501	-200.000	0.007	-0.094
-280.486	-129.583	0.239	-0.033
-279.472	84.615	0.094	0.103
-278.457	85.580	-0.170	0.188
-277.443	-15.249	0.363	-0.234
-276.428	-200.000	-0.130	0.001
-275.413	104.602	-0.197	0.233
-274.399	-12.454	-0.497	-0.326
-273.384	-108.137	-0.064	-0.014
-272.370	-112.574	0.230	0.046
-271.355	-133.189	0.078	-0.010
-270.340	-79.949	0.154	0.052
-269.326	-188.112	-0.210	0.003
-268.311	-200.000	0.104	0.462
-267.297	-114.879	0.138	0.026
-266.282	-3.647	0.168	0.117
-265.267	-33.983	-0.385	0.213
-264.253	29.275	0.107	0.092
-263.238	115.340	0.156	-0.192
-262.224	-75.482	-0.109	-0.039
-261.209	730.289	0.044	-0.117
-260.195	-78.208	0.239	-0.083
-259.180	223.418	0.049	0.079
-258.165	800.000	0.040	0.157
-257.151	-150.966	0.116	0.009
-256.136	-144.678	0.181	0.017
-255.122	-10.620	-0.174	0.115
-254.107	132.137	-0.207	-0.268
-253.092	-108.597	0.209	-0.045
-252.078	-200.000	0.009	0.093
-251.063	-66.467	-0.252	0.101
-250.049	136.303	0.112	-0.147
-249.034	-56.798	0.155	0.069
-248.019	-200.000	-0.038	0.390
-247.005	-168.979	0.167	0.006
-245.990	12.146	-0.181	0.140
-244.976	-160.594	0.181	0.010
-243.961	203.886	0.054	0.083
-242.946	75.034	0.156	0.165
-241.932	800.000	0.046	-0.150
-240.917	-178.504	0.210	-0.005
-239.903	-200.000	0.011	0.162
-238.888	-153.415	0.192	0.013
-237.873	-42.434	-0.208	-0.106
-236.859	-46.793	0.364	0.179
-235.844	-85.129	0.163	-0.051
-234.830	800.000	-0.084	-0.327
-233.815	-156.360	-0.377	-0.024
-232.800	19.789	0.110	0.089
-231.786	-106.290	0.154	0.035
-230.771	60.635	0.076	-0.075
-229.757	-151.502	-0.183	0.014
-228.742	-19.356	-0.067	0.042
-227.727	-200.000	-0.055	0.318
-226.713	-71.739	-0.071	0.027
-225.698	-137.040	0.153	-0.018
-224.684	47.532	-0.195	-0.182
-223.669	-51.909	0.310	-0.145
-222.655	800.000	0.187	-0.563
-221.640	-69.411	0.292	0.112
-220.625	-200.000	-0.033	0.205
-219.611	313.681	-0.089	-0.168
-218.596	651.861	0.088	0.225
-217.582	263.015	-0.133	-0.231
-216.567	0.161	0.251	-0.179
-215.552	-17.539	-0.200	0.126
-214.538	141.577	-0.067	-0.089
-213.523	-55.729	-0.187	-0.084
-212.509	-200.000	-0.006	0.090
-211.494	-108.503	-0.167	-0.036
-210.479	-200.000	-0.038	0.322
-209.465	135.462	0.079	-0.103
-208.450	-181.455	-0.229	0.004
-207.436	-70.187	0.385	0.147
-206.421	800.000	-0.048	0.163
-205.406	598.565	-0.022	0.055
-204.392	-200.000	-0.002	-0.170
-203.377	-200.000	-0.024	-0.230
-202.363	189.065	-0.168	0.253
-201.348	-188.619	0.148	-0.002
-200.333	-6.579	0.181	-0.124
-199.319	160.541	-0.160	0.223
-198.304	47.021	-0.246	0.229
-197.290	-84.009	-0.076	-0.024
-196.275	430.501	-0.153	-0.332
-195.260	773.642	-0.022	-0.061
-194.246	-16.312	0.312	0.199
-193.231	-110.595	0.199	0.041
-192.217	-68.392	0.245	-0.095
-191.202	-148.809	-0.243	0.020
-190.187	800.000	0.036	-0.101
-189.173	800.000	0.063	0.181
-188.158	-103.123	0.180	0.043
-187.144	523.038	0.030	-0.071
-186.129	-32.125	-0.440	0.246
-185.114	-10.039	-0.072	-0.048
-184.100	176.541	-0.052	-0.076
-183.085	-151.302	-0.166	0.012
-182.071	20.566	-0.017	-0.014
-181.056	-12.078	-0.223	-0.146
-180.042	-30.050	-0.275	0.157
-179.027	-79.267	-0.207	0.070
-178.012	-200.000	0.014	0.409
-176.998	205.738	-0.334	0.519
-175.983	275.948	0.177	-0.315
-174.969	-57.362	0.197	0.087
-173.954	800.000	-0.064	0.178
-172.939	29.883	-0.222	-0.190
-171.925	-24.900	-0.137	0.082
-170.910	122.382	-0.055	-0.068
-169.896	-153.529	-0.433	0.030
-168.881	-144.037	0.389	-0.037
-167.866	609.773	-0.100	0.250
-166.852	-51.122	-0.187	0.087
-165.837	-148.217	-0.319	-0.026
-164.823	-200.000	-0.021	0.378
-163.808	-99.153	-0.182	-0.046
-162.793	35.779	0.226	0.199
-161.779	-200.000	0.010	0.153
-160.764	-82.848	-0.145	0.047
-159.750	-127.149	0.334	-0.049
-158.735	-200.000	-0.012	-0.202
-157.720	147.823	-0.222	0.299
-156.706	60.991	-0.106	0.105
-155.691	13.472	-0.104	0.081
-154.677	27.413	-0.092	-0.077
-153.662	-198.766	-0.433	0.002
-152.647	-120.406	0.188	-0.032
-151.633	-173.484	0.262	0.008
-150.618	-200.000	0.080	-0.375
-149.604	69.951	-0.118	0.122
-148.589	-90.852	0.263	-0.076
-147.574	-197.987	-0.245	-0.001
-146.560	-37.315	-0.161	0.086
-145.545	-200.000	-0.012	0.208
-144.531	65.414	0.030	-0.030
-143.516	5.130	0.115	-0.085
-142.502	746.060	-0.015	0.039
-141.487	369.951	-0.082	-0.167
-140.472	-181.359	-0.359	0.007
-139.458	-15.156	-0.293	0.187
-138.443	-42.412	-0.252	0.128
-137.429	-181.452	-0.123	0.002
-136.414	-15.491	0.158	-0.101
-135.399	-17.030	-0.226	0.142
-134.385	-200.000	0.037	0.244
-133.370	154.736	0.053	-0.073
-132.356	13.002	0.152	-0.118
-131.341	-90.773	0.143	0.041
-130.326	800.000	0.057	-0.178
-129.312	93.219	-0.274	0.310
-128.297	-200.000	0.018	0.151
-127.283	144.178	0.306	-0.407
-126.268	800.000	0.031	0.100
-125.253	573.412	-0.107	-0.260
-124.239	19.482	0.127	0.102
-123.224	58.194	0.050	-0.049
-122.210	-126.810	-0.349	-0.051
-121.195	-42.930	0.089	0.045
-120.180	-200.000	-0.018	-0.250
-119.166	238.596	-0.101	0.167
-118.151	167.969	-0.062	0.089
-117.137	150.242	-0.142	0.193
-116.122	-200.000	0.001	-0.130
-115.107	-173.519	0.159	0.005
-114.093	763.983	-0.090	-0.245
-113.078	19.133	0.238	-0.191
-112.064	103.734	0.089	0.104
-111.049	489.596	-0.080	-0.182
-110.034	212.345	0.077	0.121
-109.020	134.685	0.089	0.116
-108.005	-91.547	-0.340	-0.097
-106.991	98.617	-0.128	0.147
-105.976	31.631	-0.131	0.113
-104.962	800.000	0.105	0.419
-103.947	-138.421	0.310	0.034
-102.932	93.786	0.116	-0.132
-101.918	800.000	-0.008	-0.028
-100.903	-200.000	0.019	-0.162
-99.889	180.012	0.090	0.131
-98.874	-0.967	-0.082	0.058
-97.859	-99.269	0.444	-0.112
-96.845	27.249	-0.075	-0.063
-95.830	-42.319	-0.164	-0.084
-94.816	-200.000	0.012	0.090
-93.801	0.339	-0.255	-0.182
-92.786	-116.025	-0.084	-0.016
-91.772	-0.874	0.125	0.088
-90.757	14.289	0.245	-0.191
-89.743	307.677	0.106	-0.197
-88.728	184.382	-0.079	0.116
-87.713	800.000	-0.049	0.145
-86.699	800.000	0.015	-0.042
-85.684	227.783	0.193	-0.314
-84.670	-200.000	0.247	-0.000
-83.655	75.141	-0.323	0.340
-82.640	237.848	-0.102	0.169
-81.626	6.907	0.019	0.014
-80.611	-21.267	0.246	-0.150
-79.597	17.997	-0.123	-0.097
-78.582	45.437	-0.242	0.223
-77.567	-134.140	-0.389	-0.048
-76.553	372.536	0.092	-0.186
-75.538	124.973	0.129	-0.162
-74.524	465.039	-0.067	-0.149
-73.509	-36.652	0.192	-0.103
-72.494	-187.728	0.054	-0.001
-71.480	135.650	0.167	0.217
-70.465	85.740	0.243	-0.266
-69.451	-13.650	-0.134	-0.086
-68.436	-200.000	0.034	0.331
-67.422	-52.779	-0.287	0.132
-66.407	154.504	0.163	-0.223
-65.392	148.236	0.108	0.146
-64.378	5.751	0.081	-0.060
-63.363	-200.000	-0.006	-0.165
-62.349	-32.085	0.284	0.158
-61.334	-28.133	-0.924	-0.533
-60.319	-200.000	0.031	0.227
-59.305	-200.000	-0.073	-0.892
-58.290	185.746	0.440	0.652
-57.276	327.111	0.714	1.363
-56.261	-200.000	77.042	517.583
-55.246	494.252	1356.128	3100.716
-54.232	140.472	2612.133	3435.133
-53.217	112.300	2286.331	2754.170
-52.203	50.036	1804.198	1695.914
-51.188	42.971	1600.599	1453.723
-50.173	40.399	1569.702	1407.365
-49.159	56.237	1607.440	1555.091
-48.144	61.415	1627.496	1611.569
-47.130	43.620	1590.228	1448.726
-46.115	40.087	1575.369	1409.998
-45.100	39.871	1571.912	1405.314
-44.086	39.818	1569.986	1403.160
-43.071	39.688	1568.277	1400.648
-42.057	39.723	1566.234	1399.018
-41.042	39.593	1564.971	1396.917
-40.027	39.727	1563.164	1396.191
-39.013	39.697	1561.148	1394.124
-37.998	39.614	1560.464	1392.876
-36.984	39.667	1559.219	1392.081
-35.969	39.794	1557.492	1391.376
-34.954	39.771	1555.689	1389.552
-33.940	39.588	1554.858	1387.469
-32.925	39.714	1552.925	1386.575
-31.911	39.688	1551.499	1385.063
-30.896	39.635	1550.695	1383.919
-29.881	39.739	1549.023	1383.099
-28.867	39.701	1547.844	1381.725
-27.852	39.747	1545.899	1380.252
-26.838	39.803	1544.202	1379.077
-25.823	39.697	1543.110	1377.303
-24.809	39.722	1541.465	1375.960
-23.794	39.657	1539.918	1374.070
-22.779	39.704	1538.923	1373.452
-21.765	39.751	1537.767	1372.696
-20.750	39.727	1536.148	1371.026
-19.736	39.780	1535.271	1370.559
-18.721	39.698	1534.187	1368.967
-17.706	39.758	1532.964	1368.238
-16.692	39.691	1531.603	1366.506
-15.677	39.749	1530.440	1365.815
-14.663	39.676	1529.836	1364.714
-13.648	39.604	1528.526	1362.997
-12.633	39.687	1527.600	1362.693
-11.619	39.691	1526.782	1361.935
-10.604	39.632	1525.907	1360.692
-9.590	39.631	1525.288	1360.078
-8.575	39.604	1524.137	1358.815
-7.560	39.638	1523.310	1358.259
-6.546	39.689	1522.151	1357.519
-5.531	39.671	1521.250	1356.535
-4.517	39.566	1520.544	1355.134
-3.502	39.577	1519.597	1354.311
-2.487	39.628	1518.423	1353.559
-1.473	39.698	1516.985	1352.706
-0.458	39.688	1515.675	1351.411
0.556	39.032	1507.131	1343.552
1.571	36.727	1479.999	1303.740
2.586	32.126	1413.868	1215.674
3.600	28.529	1323.871	1116.345
4.615	25.480	1273.025	1055.504
5.629	21.099	1213.055	981.115
6.644	10.823	1120.804	852.762
7.659	2.503	1073.625	774.827
8.673	1.052	1067.882	763.309
9.688	0.795	1065.128	759.985
10.702	0.749	1063.204	758.315
11.717	0.804	1061.267	757.141
12.731	3.274	1064.617	771.855
13.746	11.624	1076.588	822.647
14.761	17.546	1083.459	857.736
15.775	17.855	1082.932	858.801
16.790	17.166	1080.565	853.385
17.804	16.162	1078.485	846.632
18.819	15.145	1076.602	839.978
19.834	14.635	1075.200	836.257
20.848	14.293	1073.907	833.464
21.863	14.164	1072.864	831.935
22.877	13.812	1072.385	829.730
23.892	13.616	1071.889	828.296
24.907	13.518	1070.890	826.964
25.921	13.494	1070.024	826.097
26.936	13.498	1069.284	825.477
27.950	13.619	1068.521	825.416
28.965	13.692	1067.900	825.227
29.980	13.778	1066.806	824.735
30.994	13.818	1065.235	823.647
32.009	13.911	1064.854	823.740
33.023	13.808	1064.291	822.720
34.038	13.740	1063.758	821.899
35.053	13.774	1062.530	821.046
36.067	13.723	1061.323	819.791
37.082	13.660	1060.661	818.893
38.096	13.664	1060.242	818.516
39.111	13.801	1058.837	818.037
40.126	13.710	1058.051	816.907
41.140	13.724	1057.304	816.327
42.155	13.672	1055.831	814.864
43.169	13.477	1055.357	813.469
44.184	13.524	1054.192	812.729
45.199	13.626	1052.759	812.051
46.213	13.483	1052.113	810.780
47.228	13.486	1051.388	810.164
48.242	13.638	1049.964	809.738
49.257	13.628	1048.780	808.707
50.271	13.623	1048.022	808.025
51.286	13.575	1047.287	807.154
52.301	13.573	1047.063	806.898
53.315	13.604	1045.792	806.001
54.330	13.655	1044.868	805.464
55.344	13.649	1043.901	804.619
56.359	13.588	1043.034	803.580
57.374	13.501	1042.344	802.560
58.388	13.497	1041.238	801.615
59.403	13.544	1040.495	801.200
60.417	13.428	1039.773	800.014
61.432	13.465	1039.233	799.706
62.447	13.569	1037.637	798.906
63.461	13.510	1037.510	798.457
64.476	13.478	1036.360	797.345
65.490	13.519	1035.593	796.881
66.505	13.448	1034.829	795.883
67.520	13.552	1033.876	795.579
68.534	13.657	1032.826	795.203
69.549	13.627	1032.444	794.694
70.563	13.486	1031.675	793.356
71.578	13.523	1031.006	792.951
72.593	13.501	1030.554	792.426
73.607	13.360	1029.228	790.661
74.622	13.499	1028.253	790.509
75.636	13.380	1027.173	789.042
76.651	13.358	1026.611	788.436
77.666	13.437	1026.033	788.294
78.680	13.364	1025.376	787.376
79.695	13.342	1024.694	786.676
80.709	13.436	1024.032	786.545
81.724	13.486	1023.131	786.021
82.739	13.532	1022.029	785.325
83.753	13.475	1021.539	784.605
84.768	13.559	1020.614	784.226
85.782	13.642	1020.302	784.310
86.797	13.671	1019.114	783.465
87.812	13.750	1018.210	783.073
88.826	13.682	1017.126	781.847
89.841	13.558	1016.831	780.968
90.855	13.709	1015.414	780.519
91.870	13.656	1015.014	779.893
92.884	13.597	1014.741	779.336
93.899	13.716	1013.445	778.835
94.914	13.736	1012.301	777.979
95.928	13.712	1012.308	777.803
96.943	13.855	1011.296	777.626
97.957	13.533	1010.964	775.796
98.972	13.800	1009.620	775.945
99.987	13.630	1009.122	774.697
101.001	13.657	1008.462	774.247
102.016	13.655	1007.064	773.098
103.030	13.612	1006.647	772.509
104.045	13.810	1005.271	772.307
105.060	13.620	1004.648	770.877
106.074	13.642	1003.473	770.009
107.089	13.722	1002.391	769.481
108.103	13.636	1001.879	768.622
109.118	13.543	1000.839	767.325
110.133	13.614	999.891	766.856
111.147	13.597	999.372	766.312
112.162	13.505	998.480	765.133
113.176	13.605	997.641	764.889
114.191	13.583	996.771	764.053
115.206	13.596	995.464	763.044
116.220	13.608	994.961	762.644
117.235	13.562	994.473	761.991
118.249	13.622	993.183	761.210
119.264	13.556	992.439	760.271
120.279	13.637	991.694	760.004
121.293	13.570	990.810	758.951
122.308	13.545	990.149	758.263
123.322	13.654	989.188	757.957
124.337	13.580	988.247	756.834
125.352	13.600	987.041	755.934
126.366	13.443	986.164	754.480
127.381	13.608	984.797	754.117
128.395	13.535	984.067	753.158
129.410	13.542	983.250	752.499
130.424	13.650	982.217	752.133
131.439	13.686	981.270	751.505
132.454	13.599	980.662	750.576
133.468	13.786	979.728	750.645
134.483	13.682	979.007	749.555
135.497	13.802	978.410	749.572
136.512	13.685	977.668	748.407
137.527	13.636	976.925	747.553
138.541	13.690	976.065	747.074
139.556	13.566	975.772	746.224
140.570	13.717	974.174	745.614
141.585	13.685	973.641	744.999
142.600	13.766	972.965	744.776
143.614	13.689	972.813	744.250
144.629	13.810	971.203	743.493
145.643	13.824	970.329	742.822
146.658	13.832	969.436	742.108
147.673	13.785	968.630	741.217
148.687	13.776	967.756	740.444
149.702	13.742	966.564	739.314
150.716	13.654	966.168	738.554
151.731	13.747	965.283	738.224
152.746	13.726	964.330	737.335
153.760	13.699	963.606	736.596
154.775	13.793	962.866	736.382
155.789	13.865	961.718	735.761
156.804	13.769	961.096	734.796
157.819	13.785	960.680	734.482
158.833	13.817	960.112	734.127
159.848	13.792	959.472	733.458
160.862	13.915	958.596	733.268
161.877	13.874	957.946	732.523
162.892	13.840	957.284	731.807
163.906	13.790	956.187	730.679
164.921	13.839	955.477	730.289
165.935	13.776	954.582	729.262
166.950	13.845	953.060	728.340
167.964	13.840	952.294	727.668
168.979	13.899	951.606	727.333
169.994	13.819	950.554	726.117
171.008	13.904	949.890	725.918
172.023	13.945	948.753	725.161
173.037	13.907	948.477	724.721
174.052	13.964	947.740	724.343
175.067	13.908	947.020	723.483
176.081	13.940	946.208	722.938
177.096	13.799	945.488	721.713
178.110	13.764	944.663	720.866
179.125	13.898	943.715	720.663
180.140	13.944	943.045	720.287
181.154	13.882	942.289	719.377
182.169	13.916	941.576	718.917
183.183	13.896	940.925	718.268
184.198	14.071	940.010	718.260
185.213	14.112	939.477	717.966
186.227	14.106	938.869	717.416
187.242	14.146	938.226	717.030
188.256	14.188	937.721	716.764
189.271	14.162	936.712	715.819
190.286	14.276	935.958	715.665
191.300	14.096	935.382	714.390
192.315	13.962	934.559	713.123
193.329	13.812	934.303	712.220
194.344	14.002	933.443	712.315
195.359	14.161	932.932	712.546
196.373	14.058	932.168	711.460
197.388	14.046	931.751	711.024
198.402	14.127	931.279	710.949
199.417	14.257	930.434	710.795
200.432	14.169	930.616	710.497
201.446	14.304	929.708	710.316
202.461	14.372	929.139	710.107
203.475	14.339	928.816	709.659
204.490	14.267	928.158	708.786
205.504	14.296	927.079	708.024
206.519	14.378	926.233	707.660
207.534	14.369	925.113	706.706
208.548	14.496	924.723	706.882
209.563	14.444	923.967	706.021
210.577	14.341	923.313	705.026
211.592	14.303	923.036	704.591
212.607	14.402	922.335	704.409
213.621	14.422	921.997	704.175
214.636	14.488	921.159	703.751
215.650	14.573	920.580	703.606
216.665	14.411	919.921	702.356
217.680	14.551	919.663	702.689
218.694	14.536	918.926	702.000
219.709	14.600	918.344	701.760
220.723	14.545	917.680	700.961
221.738	14.598	917.314	700.843
222.753	14.635	916.109	700.014
223.767	14.654	915.590	699.637
224.782	14.599	914.662	698.636
225.796	14.609	914.075	698.164
226.811	14.704	913.115	697.766
227.826	14.681	912.644	697.251
228.840	14.604	912.054	696.415
229.855	14.740	910.716	695.901
230.869	14.795	910.462	695.873
231.884	14.632	909.831	694.650
232.899	14.625	909.091	693.997
233.913	14.610	908.764	693.621
234.928	14.643	907.711	692.895
235.942	14.633	907.148	692.363
236.957	14.685	906.175	691.775
237.972	14.552	905.761	690.846
238.986	14.651	905.242	690.796
240.001	14.731	904.310	690.354
241.015	14.760	903.544	689.830
242.030	14.739	902.889	689.183
243.045	14.891	902.082	689.131
244.059	14.684	901.964	688.129
245.074	14.804	901.104	687.902
246.088	14.784	900.308	687.154
247.103	14.799	900.034	686.944
248.117	14.870	899.000	686.385
249.132	14.928	898.975	686.546
250.147	14.947	898.081	685.878
251.161	14.955	897.569	685.460
252.176	14.998	896.656	684.878
253.190	15.086	895.863	684.574
254.205	15.192	895.041	684.316
255.220	15.168	895.137	684.230
256.234	15.174	894.079	683.386
257.249	15.090	893.652	682.659
258.263	15.256	892.844	682.655
259.278	15.191	892.224	681.858
260.293	15.251	891.627	681.584
261.307	15.231	891.364	681.241
262.322	15.149	891.014	680.580
263.336	15.466	889.780	680.863
264.351	15.339	889.507	680.079
265.366	15.364	888.645	679.462
266.380	15.453	887.709	679.048
267.395	15.308	887.397	678.163
268.409	15.355	886.850	677.871
269.424	15.346	886.017	677.139
270.439	15.397	885.287	676.728
271.453	15.338	884.892	676.128
272.468	15.258	884.149	675.179
273.482	15.406	883.377	675.126
274.497	15.434	882.721	674.675
275.512	15.381	882.237	674.035
276.526	15.190	881.645	672.753
277.541	15.405	880.865	672.963
278.555	15.487	879.821	672.432
279.570	15.605	879.337	672.475
280.585	15.462	879.163	671.714
281.599	15.550	878.431	671.446
282.614	15.699	877.696	671.421
283.628	15.603	876.834	670.318
284.643	15.613	876.629	670.143
285.657	15.561	876.003	669.396
286.672	15.536	875.808	669.086
287.687	15.774	874.577	669.034
288.701	15.595	874.492	668.199
289.716	15.626	873.818	667.749
290.730	15.592	873.248	667.119
291.745	15.777	872.449	667.185
292.760	15.635	871.739	666.019
293.774	15.806	870.953	666.035
294.789	15.775	870.991	665.881
295.803	15.732	870.325	665.143
296.818	15.717	869.514	664.408
297.833	15.800	868.519	663.913
298.847	15.705	867.941	663.041
299.862	15.793	867.340	662.869
300.876	15.753	866.931	662.340
301.891	15.999	865.932	662.486
302.906	15.901	865.455	661.675
303.920	15.763	865.164	660.854
304.935	15.936	864.296	660.812
305.949	16.014	863.288	660.290
306.964	15.931	863.496	660.063
307.979	15.899	862.430	659.064
308.993	15.937	862.140	658.934
310.008	16.096	861.231	658.800
311.022	16.050	860.606	658.086
312.037	16.037	860.356	657.784
313.052	16.089	859.768	657.481
314.066	16.032	859.116	656.703
315.081	16.070	858.287	656.157
316.095	15.954	858.124	655.522
317.110	16.061	857.282	655.238
318.125	15.924	857.084	654.496
319.139	15.978	856.490	654.195
320.154	16.037	855.947	653.951
321.168	15.966	855.597	653.350
322.183	16.039	854.747	652.925
323.197	16.103	854.040	652.578
324.212	16.092	853.957	652.411
325.227	16.196	852.830	651.894
326.241	16.145	852.897	651.692
327.256	16.162	851.931	650.962
328.270	16.160	851.533	650.592
329.285	16.269	850.776	650.375
330.300	16.202	850.172	649.601
331.314	16.229	849.423	649.073
332.329	16.113	849.365	648.526
333.343	16.197	848.236	647.929
334.358	16.184	847.969	647.618
335.373	16.230	847.215	647.160
336.387	16.364	846.530	647.095
337.402	16.201	846.759	646.587
338.416	16.244	845.670	645.862
339.431	16.358	845.085	645.794
340.446	16.295	844.678	645.188
341.460	16.474	843.928	645.238
342.475	16.394	843.572	644.606
343.489	16.454	842.890	644.254
344.504	16.522	842.106	643.860
345.519	16.655	841.450	643.805
346.533	16.641	841.265	643.555
347.548	16.649	840.877	643.231
348.562	16.496	840.854	642.576
349.577	16.588	840.008	642.220
350.592	16.580	839.215	641.527
351.606	16.655	838.545	641.241
352.621	16.509	838.149	640.331
353.635	16.524	837.714	639.996
354.650	16.677	837.296	640.198
355.665	16.688	836.957	639.928
356.679	16.522	836.569	638.943
357.694	16.593	836.178	638.859
358.708	16.741	835.274	638.669
359.723	16.733	834.583	638.054
360.738	16.725	834.497	637.903
361.752	16.709	833.592	637.094
362.767	16.706	833.422	636.896
363.781	16.678	832.863	636.309
364.796	16.666	832.670	636.059
365.810	16.911	831.636	636.132
366.825	16.752	831.538	635.402
367.840	16.745	831.349	635.179
368.854	16.928	831.052	635.579
369.869	16.833	830.182	634.504
370.883	16.809	829.855	634.106
371.898	16.878	829.179	633.791
372.913	16.973	828.344	633.454
373.927	16.962	827.993	633.085
374.942	16.978	827.252	632.523
375.956	16.909	827.000	632.017
376.971	16.988	826.247	631.680
377.986	17.068	825.314	631.208
379.000	17.287	824.541	631.377
380.015	17.126	824.776	630.903
381.029	17.090	824.081	630.181
382.044	17.238	823.314	630.088
383.059	17.163	822.672	629.262
384.073	17.313	822.152	629.366
385.088	17.250	821.854	628.845
386.102	17.105	821.465	627.957
387.117	17.136	820.641	627.387
388.132	16.992	820.445	626.648
389.146	17.164	819.954	626.852
390.161	17.208	819.255	626.427
391.175	17.294	818.945	626.451
392.190	17.394	818.519	626.439
393.205	17.257	818.576	625.920
394.219	17.219	818.090	625.354
395.234	17.214	817.507	624.836
396.248	17.253	816.972	624.512
397.263	17.203	816.252	623.727
398.278	17.211	815.708	623.282
399.292	17.215	815.678	623.220
400.307	17.222	814.772	622.497
401.321	17.380	814.233	622.609
402.336	17.132	814.513	621.861
403.350	17.237	813.951	621.762
404.365	17.237	813.417	621.297
405.380	17.457	812.614	621.431
406.394	17.423	812.331	621.037
407.409	17.536	811.750	620.951
408.423	17.572	811.379	620.743
409.438	17.302	811.213	619.579
410.453	17.526	810.761	619.993
411.467	17.510	810.204	619.456
412.482	17.545	809.411	618.921
413.496	17.546	809.004	618.556
414.511	17.733	808.651	618.911
415.526	17.661	808.086	618.164
416.540	17.746	808.052	618.392
417.555	17.648	807.607	617.639
418.569	17.644	807.074	617.163
419.584	17.631	806.619	616.714
420.599	17.797	806.054	616.826
421.613	94.828	1268.502	1387.102
422.628	81.271	1335.885	1387.220
