DTS Sentinel unit serial number:	SN413079Multiplexer serial number:	ORYXHardware model number:	OX4-SRSoftware version number:	ORYX F/W v4.00 Oryx Data Collector v3.7.2.0data status	okinstallation	princeton_trtdifferential loss correction	single-endedforward channel	channel 3reverse channel	N/Adate	2019/09/17time	14:48:35forward acquisition time	60.00reverse acquisition time	0.00gamma	496.2192k internal	0.2297k external	0.2297temperature offset calibration	0.9955default loss term (dB/km)	0.3790temperature slope calibration	1.0000multiplexer offset coefficient	1.0000multiplexer slope coefficient	1.0000fibre end	0.00T internal ref (°C)	37.03T ext. ref 1 (°C)	0.39T ext. ref 2 (°C)	34.10length (m)	temperature (°C)	Stokes	anti-Stokes-747.200	-24.947	0.205	0.124
-746.185	-64.368	0.306	-0.127
-745.171	800.000	-0.058	-0.202
-744.156	98.897	0.061	-0.071
-743.142	204.922	0.070	-0.111
-742.127	-131.965	0.234	-0.031
-741.112	-111.223	-0.235	-0.049
-740.098	3.485	-0.268	0.200
-739.083	800.000	0.101	-0.304
-738.069	18.164	-0.399	0.325
-737.054	159.363	-0.094	-0.133
-736.039	92.230	0.052	-0.060
-735.025	228.658	0.115	0.191
-734.010	98.696	-0.193	-0.228
-732.996	-122.144	0.269	0.045
-731.981	104.864	-0.266	0.320
-730.966	-200.000	-0.012	0.097
-729.952	-158.437	-0.276	0.016
-728.937	1.673	-0.336	-0.247
-727.923	-93.385	-0.143	-0.040
-726.908	-32.275	0.033	0.019
-725.894	800.000	-0.034	-0.139
-724.879	-3.482	-0.347	0.247
-723.864	-200.000	-0.009	-0.342
-722.850	79.354	-0.209	0.228
-721.835	-200.000	-0.015	-0.336
-720.821	-200.000	-0.044	-0.300
-719.806	-122.585	-0.271	0.045
-718.791	-200.000	0.003	0.152
-717.777	-82.329	0.029	-0.010
-716.762	480.182	-0.171	-0.396
-715.748	-200.000	-0.017	-0.176
-714.733	233.372	0.144	-0.242
-713.718	78.557	-0.165	-0.180
-712.704	209.481	0.081	-0.129
-711.689	-40.089	-0.273	-0.145
-710.675	10.399	-0.086	-0.067
-709.660	-200.000	0.025	0.192
-708.645	37.046	0.065	0.058
-707.631	428.779	-0.065	0.144
-706.616	-163.197	0.253	0.012
-705.602	-99.209	-0.085	-0.022
-704.587	23.059	0.101	-0.084
-703.572	81.319	0.074	-0.082
-702.558	538.282	0.119	-0.289
-701.543	4.329	0.230	-0.172
-700.529	-200.000	-0.008	0.206
-699.514	800.000	0.203	0.610
-698.499	-136.786	-0.119	-0.014
-697.485	12.445	0.155	-0.122
-696.470	-106.060	0.146	-0.034
-695.456	438.281	0.009	-0.021
-694.441	-200.000	-0.039	-0.328
-693.426	-140.508	-0.242	-0.026
-692.412	159.144	-0.112	-0.158
-691.397	65.325	-0.147	-0.152
-690.383	441.650	0.109	-0.244
-689.368	-182.525	-0.230	-0.004
-688.354	-200.000	0.013	-0.196
-687.339	510.967	-0.178	0.423
-686.324	800.000	-0.027	-0.083
-685.310	-200.000	-0.043	-0.219
-684.295	-200.000	-0.053	-0.378
-683.281	-77.664	0.191	0.068
-682.266	-125.621	-0.101	0.016
-681.251	-200.000	0.001	0.145
-680.237	499.809	0.123	-0.289
-679.222	800.000	-0.021	0.063
-678.208	-13.196	-0.114	-0.075
-677.193	80.168	0.016	-0.017
-676.178	150.179	-0.113	-0.156
-675.164	-200.000	0.001	-0.192
-674.149	-200.000	0.070	0.335
-673.135	-200.000	0.020	0.232
-672.120	-80.001	-0.184	-0.063
-671.105	171.575	0.084	0.123
-670.091	178.725	-0.099	0.148
-669.076	95.397	0.093	-0.108
-668.062	95.999	-0.037	0.043
-667.047	-62.196	-0.099	-0.042
-666.032	47.042	0.040	0.038
-665.018	-164.054	-0.188	0.009
-664.003	-103.107	0.063	0.015
-662.989	30.015	-0.318	-0.276
-661.974	-17.192	-0.173	-0.111
-660.959	3.724	0.124	-0.092
-659.945	524.333	-0.012	0.028
-658.930	-4.863	-0.255	-0.179
-657.916	333.767	0.067	-0.132
-656.901	541.719	0.145	-0.352
-655.886	57.677	-0.072	0.072
-654.872	-70.777	0.155	0.059
-653.857	41.590	-0.054	-0.050
-652.843	-188.637	0.142	-0.002
-651.828	541.053	0.083	-0.202
-650.814	-39.670	0.064	-0.034
-649.799	-117.076	-0.406	0.075
-648.784	52.231	-0.272	0.264
-647.770	63.263	0.245	-0.250
-646.755	-200.000	0.014	-0.118
-645.741	-200.000	0.001	-0.103
-644.726	-100.521	-0.261	0.066
-643.711	-40.858	0.347	0.183
-642.697	-200.000	-0.025	-0.260
-641.682	126.502	-0.287	-0.370
-640.668	-104.043	-0.146	-0.035
-639.653	-200.000	0.009	-0.184
-638.638	414.401	0.086	0.186
-637.624	-200.000	-0.054	0.293
-636.609	-56.040	0.175	-0.079
-635.595	-118.760	-0.095	-0.017
-634.580	19.211	0.221	0.181
-633.565	152.085	-0.278	0.386
-632.551	484.981	-0.097	-0.225
-631.536	-6.287	-0.287	0.199
-630.522	203.295	-0.158	-0.248
-629.507	73.090	0.091	0.097
-628.492	-200.000	-0.019	0.156
-627.478	-129.460	-0.269	0.038
-626.463	-41.437	0.102	0.053
-625.449	-107.657	0.137	-0.030
-624.434	118.010	-0.271	-0.339
-623.419	24.290	-0.169	-0.142
-622.405	800.000	-0.124	-0.420
-621.390	-76.388	0.125	-0.045
-620.376	214.064	0.202	-0.326
-619.361	-170.124	-0.232	-0.008
-618.346	-168.040	-0.191	0.008
-617.332	120.416	-0.271	0.342
-616.317	151.400	0.070	-0.097
-615.303	-162.040	0.268	-0.014
-614.288	-11.121	0.349	-0.234
-613.273	495.257	-0.041	-0.096
-612.259	-7.535	-0.099	-0.068
-611.244	236.016	0.119	-0.199
-610.230	-111.027	0.197	-0.041
-609.215	-130.011	0.077	-0.011
-608.201	152.616	-0.010	0.014
-607.186	800.000	-0.145	0.476
-606.171	-200.000	-0.041	0.182
-605.157	98.429	0.094	-0.110
-604.142	180.032	-0.155	-0.231
-603.128	-20.421	-0.213	-0.133
-602.113	-41.314	-0.148	-0.077
-601.098	0.494	0.168	-0.122
-600.084	174.358	-0.069	-0.102
-599.069	102.429	-0.165	-0.196
-598.055	-21.475	-0.131	0.081
-597.040	-200.000	0.015	0.453
-596.025	-200.000	0.021	0.145
-595.011	-129.438	-0.202	0.028
-593.996	-200.000	0.001	0.147
-592.982	800.000	-0.036	0.105
-591.967	-26.228	-0.342	-0.204
-590.952	-200.000	0.027	-0.136
-589.938	8.086	-0.303	0.231
-588.923	248.476	0.128	-0.220
-587.909	-122.324	0.237	0.039
-586.894	551.631	-0.058	-0.142
-585.879	-117.617	0.210	-0.038
-584.865	38.152	0.136	0.123
-583.850	666.887	0.041	-0.108
-582.836	-35.857	0.092	0.051
-581.821	-200.000	0.083	-0.375
-580.806	-200.000	0.029	-0.191
-579.792	-28.403	-0.291	0.170
-578.777	-105.350	0.146	0.034
-577.763	-200.000	0.037	0.173
-576.748	-181.758	0.329	-0.006
-575.733	652.156	0.123	-0.321
-574.719	22.765	0.083	0.069
-573.704	-93.283	0.174	-0.049
-572.690	50.653	0.201	-0.193
-571.675	-85.542	0.280	0.088
-570.661	-142.120	-0.157	-0.016
-569.646	-167.038	0.104	-0.004
-568.631	706.976	0.011	0.030
-567.617	240.181	0.022	0.037
-566.602	229.479	-0.123	-0.204
-565.588	4.685	0.246	0.183
-564.573	-106.227	0.128	0.029
-563.558	315.070	-0.115	0.220
-562.544	-79.922	-0.032	-0.011
-561.529	506.640	0.093	0.218
-560.515	-0.680	-0.152	0.109
-559.500	-62.128	-0.237	-0.100
-558.485	1.683	-0.316	0.231
-557.471	424.208	-0.114	-0.250
-556.456	-10.614	0.132	0.089
-555.442	171.393	0.113	0.165
-554.427	-200.000	0.009	-0.080
-553.412	199.184	0.083	-0.130
-552.398	-152.383	-0.178	0.013
-551.383	-48.838	-0.228	-0.111
-550.369	-39.147	-0.243	-0.129
-549.354	233.609	0.048	-0.080
-548.339	36.731	0.221	0.198
-547.325	-200.000	-0.021	-0.195
-546.310	-120.253	0.444	-0.077
-545.296	-200.000	-0.010	-0.297
-544.281	456.435	-0.067	-0.152
-543.266	-200.000	0.068	0.462
-542.252	92.143	-0.013	0.015
-541.237	-200.000	-0.018	-0.259
-540.223	-88.545	-0.023	0.007
-539.208	52.692	0.116	-0.113
-538.193	61.240	-0.314	-0.317
-537.179	503.490	-0.081	0.190
-536.164	252.449	0.142	0.246
-535.150	772.103	0.167	0.462
-534.135	-136.518	-0.238	0.028
-533.121	22.372	-0.155	0.128
-532.106	-116.130	-0.323	0.061
-531.091	535.977	0.081	-0.194
-530.077	-64.273	0.175	-0.072
-529.062	49.265	-0.113	0.107
-528.048	227.634	-0.088	0.145
-527.033	390.099	0.107	-0.225
-526.018	-174.002	-0.368	0.011
-525.004	454.024	-0.153	-0.343
-523.989	-59.694	0.239	-0.104
-522.975	-200.000	-0.073	-0.329
-521.960	-200.000	0.046	-0.221
-520.945	14.392	-0.198	0.156
-519.931	-49.631	0.219	0.106
-518.916	-200.000	-0.003	0.079
-517.902	-9.242	-0.118	0.080
-516.887	-80.154	0.070	-0.024
-515.872	48.703	-0.194	0.184
-514.858	184.610	0.069	0.104
-513.843	-93.726	0.068	0.019
-512.829	-77.314	0.136	-0.048
-511.814	-200.000	0.007	0.179
-510.799	53.717	-0.112	-0.108
-509.785	-200.000	0.006	0.266
-508.770	800.000	0.014	0.039
-507.756	-8.501	-0.099	-0.067
-506.741	-8.473	-0.116	0.079
-505.726	-78.111	-0.199	0.069
-504.712	-56.834	-0.130	0.058
-503.697	184.983	0.224	0.336
-502.683	-200.000	-0.042	-0.353
-501.668	800.000	-0.060	-0.170
-500.653	390.520	0.030	-0.064
-499.639	396.894	0.072	0.153
-498.624	107.432	-0.050	0.060
-497.610	-58.860	0.068	-0.030
-496.595	800.000	-0.027	-0.092
-495.581	-109.982	0.328	0.070
-494.566	-73.905	-0.324	-0.119
-493.551	-47.219	0.099	-0.049
-492.537	-91.230	-0.178	-0.052
-491.522	11.926	0.212	0.165
-490.508	-200.000	-0.030	0.222
-489.493	-37.403	0.116	0.062
-488.478	-200.000	0.004	0.124
-487.464	-169.370	0.085	-0.003
-486.449	589.199	0.061	0.153
-485.435	-59.646	-0.239	0.104
-484.420	233.556	-0.128	-0.213
-483.405	-15.396	-0.130	0.084
-482.391	20.671	-0.076	0.062
-481.376	-199.864	0.184	-0.001
-480.362	410.728	-0.039	0.083
-479.347	-200.000	-0.042	-0.357
-478.332	-94.532	-0.133	-0.037
-477.318	-103.400	-0.222	0.053
-476.303	-86.127	0.177	-0.055
-475.289	151.414	-0.108	0.149
-474.274	800.000	-0.062	0.202
-473.259	107.520	0.263	-0.316
-472.245	-200.000	0.002	0.263
-471.230	-200.000	0.005	0.081
-470.216	-90.271	-0.207	0.061
-469.201	-13.822	0.143	-0.093
-468.186	-200.000	-0.031	0.208
-467.172	755.511	-0.064	0.175
-466.157	291.751	0.161	-0.297
-465.143	800.000	0.097	-0.364
-464.128	-200.000	-0.001	-0.132
-463.113	30.968	0.093	0.081
-462.099	255.363	0.175	-0.304
-461.084	-71.214	0.225	-0.085
-460.070	800.000	-0.110	-0.348
-459.055	800.000	-0.082	-0.300
-458.040	-92.034	0.344	-0.098
-457.026	-53.851	0.204	0.094
-456.011	800.000	0.031	0.128
-454.997	-74.614	0.236	0.086
-453.982	71.584	-0.117	-0.123
-452.968	573.402	0.045	-0.110
-451.953	-146.067	-0.280	0.025
-450.938	-36.251	-0.332	-0.181
-449.924	-200.000	0.027	0.138
-448.909	-164.652	0.239	0.011
-447.895	-151.092	-0.268	-0.020
-446.880	64.546	0.164	0.167
-445.865	-125.905	0.073	0.011
-444.851	-200.000	-0.013	0.140
-443.836	-34.507	-0.267	0.148
-442.822	-200.000	-0.023	0.140
-441.807	-40.853	-0.069	-0.036
-440.792	82.434	0.104	-0.114
-439.778	-58.684	0.111	0.049
-438.763	-95.769	0.131	-0.035
-437.749	-41.932	0.203	0.105
-436.734	800.000	-0.096	-0.336
-435.719	34.548	-0.163	-0.144
-434.705	229.826	0.020	-0.033
-433.690	72.030	0.071	-0.075
-432.676	781.101	0.031	-0.086
-431.661	-61.868	-0.342	0.144
-430.646	-106.534	0.123	-0.028
-429.632	800.000	-0.038	0.150
-428.617	-63.573	0.070	-0.029
-427.603	-126.447	-0.110	0.016
-426.588	-4.078	0.236	-0.165
-425.573	-19.249	-0.174	0.109
-424.559	-123.590	-0.286	-0.046
-423.544	-35.635	-0.145	-0.079
-422.530	-200.000	-0.042	0.320
-421.515	28.288	-0.293	-0.250
-420.500	-180.163	0.330	-0.007
-419.486	126.387	0.120	0.154
-418.471	165.645	-0.084	0.120
-417.457	-143.049	-0.376	-0.037
-416.442	103.188	0.065	-0.076
-415.428	-111.298	0.120	-0.025
-414.413	-200.000	-0.018	-0.145
-413.398	4.064	0.113	-0.083
-412.384	-200.000	0.040	-0.263
-411.369	356.957	0.267	0.537
-410.355	-174.414	-0.395	-0.011
-409.340	230.200	-0.105	-0.173
-408.325	192.148	0.170	-0.259
-407.311	-200.000	0.019	0.257
-406.296	298.022	0.157	0.290
-405.282	340.514	-0.052	0.102
-404.267	443.417	0.109	0.240
-403.252	34.249	-0.257	0.226
-402.238	396.011	-0.161	0.339
-401.223	52.174	0.045	0.043
-400.209	-200.000	0.019	0.343
-399.194	-140.386	-0.322	0.034
-398.179	27.084	-0.104	-0.088
-397.165	-71.719	0.123	0.046
-396.150	-81.558	-0.449	0.149
-395.136	-200.000	0.030	-0.146
-394.121	398.039	-0.036	-0.076
-393.106	392.989	-0.095	-0.200
-392.092	-109.864	-0.121	-0.026
-391.077	-95.196	-0.333	0.091
-390.063	-5.647	-0.117	-0.081
-389.048	42.632	-0.192	-0.176
-388.033	800.000	-0.095	-0.296
-387.019	-135.145	0.267	-0.032
-386.004	-20.511	0.190	-0.117
-384.990	274.583	0.058	0.104
-383.975	19.405	0.106	-0.086
-382.960	-73.046	0.123	-0.045
-381.946	2.862	0.114	-0.083
-380.931	-24.495	0.125	0.075
-379.917	-28.638	-0.166	-0.096
-378.902	7.200	-0.197	0.148
-377.888	-200.000	-0.015	0.256
-376.873	-11.044	0.125	-0.083
-375.858	701.705	-0.144	0.381
-374.844	-168.973	0.354	0.013
-373.829	-124.903	-0.292	-0.045
-372.815	-200.000	-0.011	0.181
-371.800	-146.637	0.110	0.010
-370.785	89.310	-0.093	-0.105
-369.771	29.114	0.146	0.125
-368.756	74.234	0.195	0.206
-367.742	-70.207	0.287	0.110
-366.727	-90.901	-0.203	0.059
-365.712	208.571	-0.133	-0.210
-364.698	303.263	-0.137	0.256
-363.683	39.044	-0.260	-0.234
-362.669	-71.466	0.177	0.067
-361.654	-15.949	-0.138	0.088
-360.639	-107.292	-0.409	-0.091
-359.625	31.446	0.025	-0.022
-358.610	-1.492	0.304	0.216
-357.596	720.592	0.032	0.085
-356.581	-200.000	-0.042	0.199
-355.566	-98.942	0.184	0.047
-354.552	-200.000	0.051	0.263
-353.537	800.000	0.087	-0.353
-352.523	27.582	-0.130	0.110
-351.508	-7.698	0.274	-0.186
-350.493	-200.000	-0.014	-0.317
-349.479	-71.479	-0.239	-0.090
-348.464	-31.871	0.116	0.065
-347.450	-113.777	0.327	-0.064
-346.435	-200.000	0.009	0.107
-345.420	-200.000	0.024	-0.255
-344.406	-94.285	-0.093	0.026
-343.391	-200.000	0.006	0.252
-342.377	-52.775	-0.276	-0.128
-341.362	-22.450	-0.266	-0.162
-340.348	283.724	-0.156	0.282
-339.333	-172.421	-0.189	0.006
-338.318	6.874	-0.049	0.037
-337.304	-200.000	0.004	0.264
-336.289	-23.770	0.202	-0.122
-335.275	344.411	-0.197	-0.388
-334.260	115.035	0.171	0.210
-333.245	800.000	-0.019	0.055
-332.231	120.159	0.100	0.125
-331.216	-31.244	0.074	0.042
-330.202	-174.636	0.270	0.008
-329.187	-50.318	-0.115	0.054
-328.172	60.704	0.224	-0.223
-327.158	-166.459	-0.093	-0.004
-326.143	195.428	0.138	-0.211
-325.129	94.116	0.203	-0.232
-324.114	373.346	0.134	-0.273
-323.099	-200.000	0.017	0.415
-322.085	-200.000	0.027	-0.138
-321.070	749.443	0.027	-0.073
-320.056	69.990	-0.218	-0.226
-319.041	-24.366	-0.105	-0.063
-318.026	4.017	0.276	-0.203
-317.012	37.131	-0.095	-0.084
-315.997	-124.750	0.085	-0.013
-314.983	-106.446	0.129	0.029
-313.968	113.233	0.099	-0.121
-312.953	-76.186	-0.212	0.075
-311.939	-200.000	-0.027	0.208
-310.924	800.000	0.041	0.129
-309.910	416.994	-0.143	0.306
-308.895	-87.955	-0.079	-0.024
-307.880	-200.000	0.001	-0.366
-306.866	240.276	-0.151	-0.253
-305.851	-200.000	0.017	0.128
-304.837	800.000	-0.078	-0.292
-303.822	-162.490	0.218	0.011
-302.807	692.860	0.043	-0.114
-301.793	744.274	0.129	0.348
-300.778	-71.936	0.213	-0.079
-299.764	-200.000	-0.010	0.232
-298.749	-200.000	-0.021	0.254
-297.735	800.000	0.013	-0.038
-296.720	-200.000	0.010	0.269
-295.705	-129.266	0.178	-0.025
-294.691	-15.686	0.149	-0.095
-293.676	-200.000	0.046	-0.308
-292.662	-102.749	-0.023	-0.006
-291.647	-200.000	0.017	-0.273
-290.632	-117.569	0.218	-0.040
-289.618	489.364	0.144	-0.329
-288.603	-115.086	-0.166	0.032
-287.589	-200.000	-0.002	0.100
-286.574	-84.346	-0.268	-0.085
-285.559	-200.000	0.024	0.368
-284.545	481.513	-0.066	-0.150
-283.530	-134.925	-0.295	0.036
-282.516	19.170	-0.245	0.197
-281.501	-82.245	0.245	-0.080
-280.486	47.285	-0.259	-0.242
-279.472	800.000	0.061	-0.217
-278.457	213.629	0.127	0.202
-277.443	-200.000	0.022	0.494
-276.428	54.121	0.174	0.168
-275.413	800.000	-0.079	0.219
-274.399	-25.358	0.007	0.004
-273.384	29.319	0.123	0.105
-272.370	800.000	-0.056	-0.242
-271.355	24.567	0.336	0.279
-270.340	231.860	0.233	0.383
-269.326	-141.122	-0.145	-0.015
-268.311	-64.194	-0.287	0.117
-267.297	324.451	-0.049	0.095
-266.282	-41.896	0.265	-0.136
-265.267	800.000	-0.043	0.137
-264.253	800.000	0.020	-0.064
-263.238	-74.502	0.366	0.132
-262.224	415.364	-0.079	-0.168
-261.209	282.402	-0.061	-0.110
-260.195	-81.325	-0.267	-0.088
-259.180	-150.542	-0.201	0.015
-258.165	64.607	0.233	0.236
-257.151	-14.052	-0.101	-0.065
-256.136	61.284	-0.097	-0.097
-255.122	-3.009	-0.076	0.053
-254.107	-67.668	-0.116	0.045
-253.092	800.000	0.019	0.058
-252.078	-200.000	0.070	-0.326
-251.063	15.380	0.296	0.233
-250.049	-107.112	-0.122	-0.027
-249.034	800.000	0.022	0.070
-248.019	66.404	0.153	0.156
-247.005	-81.066	0.161	0.053
-245.990	-0.278	0.225	-0.160
-244.976	-200.000	0.008	-0.198
-243.961	-200.000	0.012	-0.146
-242.946	4.432	0.201	0.147
-241.932	800.000	0.032	0.092
-240.917	435.271	-0.139	-0.304
-239.903	-61.926	0.201	0.084
-238.888	800.000	-0.041	-0.135
-237.873	560.844	-0.014	0.035
-236.859	284.465	-0.035	0.064
-235.844	61.397	0.227	-0.226
-234.830	800.000	0.018	-0.079
-233.815	-200.000	0.042	-0.216
-232.800	-200.000	0.033	-0.230
-231.786	49.327	-0.214	0.202
-230.771	112.906	-0.195	-0.237
-229.757	29.773	-0.060	0.051
-228.742	800.000	0.034	0.116
-227.727	-147.426	-0.307	-0.026
-226.713	10.636	0.110	0.084
-225.698	-30.456	-0.266	-0.151
-224.684	396.377	0.209	0.438
-223.669	-89.187	-0.106	-0.031
-222.655	135.586	0.134	0.174
-221.640	5.553	-0.154	-0.114
-220.625	55.917	-0.051	-0.050
-219.611	7.036	0.241	-0.180
-218.596	-106.744	-0.234	-0.052
-217.582	405.143	0.074	0.156
-216.567	-57.094	0.201	0.089
-215.552	-200.000	-0.030	-0.407
-214.538	-21.512	0.277	-0.169
-213.523	-35.054	-0.107	0.058
-212.509	217.608	-0.146	-0.233
-211.494	-134.601	-0.178	-0.022
-210.479	-64.584	0.282	-0.115
-209.465	78.345	0.260	0.278
-208.450	-200.000	-0.010	-0.082
-207.436	696.706	0.140	0.367
-206.421	-126.412	-0.298	-0.044
-205.406	-200.000	-0.019	0.126
-204.392	-121.101	0.184	-0.031
-203.377	-70.374	-0.294	-0.111
-202.363	-177.568	0.182	0.004
-201.348	117.978	-0.041	-0.051
-200.333	-83.185	0.104	-0.033
-199.319	-200.000	-0.019	-0.293
-198.304	145.846	0.278	0.373
-197.290	677.334	-0.051	0.133
-196.275	66.453	-0.127	-0.129
-195.260	33.182	0.162	-0.140
-194.246	253.443	0.043	0.074
-193.231	66.384	0.040	-0.041
-192.217	-200.000	-0.018	0.203
-191.202	-102.116	-0.450	-0.108
-190.187	-200.000	0.076	-0.381
-189.173	-200.000	0.018	0.245
-188.158	-194.253	-0.073	-0.001
-187.144	-19.843	0.366	0.226
-186.129	60.633	-0.186	0.184
-185.114	-48.699	0.307	0.147
-184.100	42.905	0.210	-0.191
-183.085	194.869	0.108	0.164
-182.071	-50.202	-0.263	-0.124
-181.056	-22.587	0.142	0.086
-180.042	800.000	0.055	-0.192
-179.027	-36.240	-0.227	-0.122
-178.012	-65.027	-0.084	-0.034
-176.998	-73.665	-0.131	-0.048
-175.983	-111.689	-0.371	0.075
-174.969	-200.000	-0.008	-0.068
-173.954	213.604	-0.020	-0.032
-172.939	150.502	0.154	0.209
-171.925	47.197	-0.195	0.181
-170.910	127.511	0.160	0.203
-169.896	91.796	0.201	0.225
-168.881	135.597	0.124	-0.162
-167.866	582.292	-0.123	-0.301
-166.852	-77.323	-0.015	0.005
-165.837	-113.097	-0.123	0.024
-164.823	73.601	0.088	-0.092
-163.808	-118.548	0.211	0.037
-162.793	-200.000	-0.031	0.485
-161.779	-200.000	-0.025	-0.142
-160.764	-138.318	0.113	-0.013
-159.750	8.203	0.228	0.171
-158.735	48.156	0.214	-0.200
-157.720	-61.832	0.154	-0.065
-156.706	-83.170	0.450	0.144
-155.691	16.150	0.357	0.281
-154.677	-22.944	-0.101	0.061
-153.662	32.935	-0.026	-0.023
-152.647	-200.000	0.007	0.072
-151.633	-39.002	0.176	0.092
-150.618	118.850	-0.075	-0.092
-149.604	-200.000	-0.018	0.205
-148.589	800.000	0.063	-0.271
-147.574	197.813	0.059	-0.089
-146.560	472.399	0.035	0.078
-145.545	-8.876	-0.495	-0.331
-144.531	-196.954	0.359	0.002
-143.516	-22.122	0.229	0.139
-142.502	800.000	0.038	0.104
-141.487	-200.000	-0.008	0.122
-140.472	96.923	0.071	0.081
-139.458	-200.000	0.088	0.421
-138.443	-32.665	-0.429	0.238
-137.429	-65.620	-0.218	0.087
-136.414	144.553	-0.094	0.125
-135.399	-125.423	-0.027	0.004
-134.385	-200.000	-0.022	0.128
-133.370	-78.546	0.467	0.159
-132.356	-62.551	0.068	0.028
-131.341	325.563	-0.062	-0.118
-130.326	-200.000	0.010	-0.070
-129.312	-200.000	0.033	-0.159
-128.297	-136.482	0.126	-0.015
-127.283	280.547	0.116	0.207
-126.268	-124.989	0.179	0.027
-125.253	-15.439	-0.169	-0.108
-124.239	800.000	0.111	-0.350
-123.224	-21.345	-0.260	0.158
-122.210	344.536	0.110	0.215
-121.195	156.129	-0.235	-0.323
-120.180	-200.000	0.001	0.065
-119.166	-57.077	0.252	0.111
-118.151	-200.000	0.028	-0.376
-117.137	800.000	-0.102	0.359
-116.122	-34.728	0.009	0.005
-115.107	800.000	0.057	0.165
-114.093	-66.536	0.149	-0.059
-113.078	-71.797	0.227	0.084
-112.064	-139.766	-0.067	0.007
-111.049	133.121	0.055	0.071
-110.034	65.002	0.198	0.199
-109.020	800.000	-0.056	-0.199
-108.005	93.179	0.045	-0.050
-106.991	-200.000	-0.050	0.303
-105.976	-112.262	0.067	0.013
-104.962	-200.000	-0.005	0.047
-103.947	-106.351	-0.123	-0.027
-102.932	315.838	0.153	-0.287
-101.918	-198.195	0.109	-0.001
-100.903	-200.000	-0.006	-0.292
-99.889	749.534	-0.028	0.075
-98.874	-104.431	0.382	0.088
-97.859	-21.958	-0.048	-0.029
-96.845	254.841	0.067	-0.114
-95.830	-11.899	-0.237	-0.155
-94.816	-69.801	0.168	-0.064
-93.801	-118.577	-0.101	0.018
-92.786	-137.580	0.235	-0.026
-91.772	728.587	0.083	-0.222
-90.757	383.284	0.016	-0.033
-89.743	-200.000	-0.001	-0.101
-88.728	-200.000	0.040	-0.281
-87.713	74.073	0.182	-0.191
-86.699	285.996	0.123	-0.220
-85.684	-72.448	0.272	0.100
-84.670	302.458	0.093	0.171
-83.655	26.058	-0.079	0.066
-82.640	800.000	-0.019	0.084
-81.626	-152.105	0.166	0.012
-80.611	21.757	-0.073	0.059
-79.597	-86.601	0.294	0.090
-78.582	-6.842	0.354	0.239
-77.567	800.000	-0.021	-0.069
-76.553	87.695	-0.265	0.292
-75.538	-71.967	-0.086	-0.032
-74.524	-191.629	0.180	-0.002
-73.509	-200.000	-0.010	0.233
-72.494	800.000	0.144	0.523
-71.480	250.894	0.208	-0.352
-70.465	-77.214	0.254	-0.088
-69.451	39.846	-0.226	-0.202
-68.436	182.897	0.119	-0.174
-67.422	800.000	0.093	-0.283
-66.407	84.302	0.154	0.168
-65.392	-91.286	-0.227	-0.065
-64.378	-11.574	-0.051	-0.033
-63.363	-200.000	-0.012	0.128
-62.349	-80.126	-0.297	0.099
-61.334	135.549	-0.634	-0.821
-60.319	125.178	0.372	0.466
-59.305	800.000	0.110	-0.471
-58.290	108.218	0.718	0.852
-57.276	800.000	0.397	1.625
-56.261	-200.000	87.857	500.180
-55.246	424.136	1420.840	3038.569
-54.232	141.006	2639.165	3469.664
-53.217	106.772	2267.679	2676.072
-52.203	46.449	1781.632	1643.064
-51.188	39.841	1584.561	1414.138
-50.173	37.575	1555.210	1371.934
-49.159	53.696	1600.108	1527.159
-48.144	57.436	1619.513	1572.395
-47.130	40.569	1578.421	1413.625
-46.115	37.332	1562.923	1376.799
-45.100	37.146	1559.066	1372.031
-44.086	37.059	1557.370	1369.867
-43.071	37.043	1555.506	1368.063
-42.057	37.002	1553.848	1366.263
-41.042	36.964	1552.554	1364.799
-40.027	37.103	1550.655	1364.052
-39.013	36.946	1549.440	1361.827
-37.998	36.966	1547.750	1360.432
-36.984	37.047	1546.455	1359.807
-35.969	36.945	1545.489	1358.187
-34.954	37.023	1543.585	1357.006
-33.940	37.027	1542.435	1355.969
-32.925	37.051	1541.249	1355.042
-31.911	37.160	1539.634	1354.330
-30.896	37.225	1537.949	1353.242
-29.881	37.175	1536.274	1351.370
-28.867	37.125	1535.591	1350.370
-27.852	37.178	1533.734	1349.047
-26.838	37.037	1532.715	1347.118
-25.823	36.998	1530.898	1345.198
-24.809	37.104	1529.047	1344.255
-23.794	37.003	1528.273	1342.821
-22.779	37.088	1526.855	1342.108
-21.765	37.071	1525.492	1340.739
-20.750	37.016	1524.652	1339.565
-19.736	37.081	1523.029	1338.540
-18.721	37.078	1521.939	1337.504
-17.706	37.101	1521.002	1336.785
-16.692	37.124	1519.743	1335.786
-15.677	37.088	1519.153	1334.970
-14.663	36.894	1518.354	1332.875
-13.648	36.972	1517.002	1332.175
-12.633	37.114	1515.201	1331.511
-11.619	36.993	1514.826	1330.299
-10.604	36.966	1514.114	1329.437
-9.590	36.816	1513.898	1328.168
-8.575	36.897	1512.255	1327.228
-7.560	37.005	1511.388	1327.153
-6.546	37.045	1510.182	1326.313
-5.531	36.947	1509.583	1325.064
-4.517	37.074	1508.275	1324.732
-3.502	37.035	1507.191	1323.465
-2.487	36.934	1506.513	1322.126
-1.473	37.024	1504.890	1321.263
-0.458	37.074	1504.013	1320.778
0.556	35.740	1494.735	1311.501
1.571	33.227	1467.956	1271.032
2.586	29.229	1402.732	1188.718
3.600	26.609	1314.744	1098.189
4.615	24.533	1265.608	1044.920
5.629	20.950	1207.144	976.529
6.644	10.821	1115.362	849.508
7.659	2.059	1069.332	770.306
8.673	0.711	1062.919	758.852
9.688	0.326	1059.898	754.703
10.702	0.343	1058.263	753.557
11.717	0.181	1057.057	751.823
12.731	3.178	1060.123	768.928
13.746	12.438	1072.973	824.836
14.761	18.258	1080.018	859.494
15.775	17.805	1078.121	855.634
16.790	16.621	1075.915	847.881
17.804	15.660	1073.515	841.106
18.819	14.865	1071.353	835.365
19.834	14.231	1070.365	831.355
20.848	13.985	1068.967	828.970
21.863	13.697	1068.558	827.142
22.877	13.462	1067.829	825.332
23.892	13.305	1066.525	823.472
24.907	13.338	1065.233	822.564
25.921	13.227	1065.315	822.004
26.936	13.247	1064.352	821.287
27.950	13.266	1063.710	820.815
28.965	13.290	1063.062	820.361
29.980	13.380	1061.984	819.900
30.994	13.325	1061.149	818.913
32.009	13.502	1060.253	819.023
33.023	13.581	1059.277	818.590
34.038	13.403	1058.856	817.312
35.053	13.407	1058.037	816.625
36.067	13.372	1056.754	815.394
37.082	13.329	1056.391	814.829
38.096	13.411	1055.500	814.469
39.111	13.391	1054.841	813.791
40.126	13.526	1053.480	813.336
41.140	13.362	1052.577	811.760
42.155	13.290	1051.596	810.579
43.169	13.142	1051.096	809.396
44.184	13.288	1049.927	809.137
45.199	13.264	1048.669	807.981
46.213	13.329	1047.776	807.539
47.228	13.221	1046.787	806.178
48.242	13.314	1045.230	805.360
49.257	13.393	1044.685	805.254
50.271	13.194	1043.908	803.617
51.286	13.293	1042.797	803.168
52.301	13.311	1042.445	802.914
53.315	13.300	1041.006	801.683
54.330	13.176	1040.776	800.834
55.344	13.270	1039.348	800.121
56.359	13.193	1038.695	799.173
57.374	13.233	1037.500	798.377
58.388	13.319	1036.815	798.193
59.403	13.204	1036.001	796.942
60.417	13.198	1035.243	796.259
61.432	13.188	1034.302	795.417
62.447	13.144	1033.765	794.722
63.461	13.253	1032.510	794.211
64.476	13.049	1031.863	792.663
65.490	13.121	1030.979	792.259
66.505	13.173	1029.981	791.673
67.520	13.193	1029.151	791.058
68.534	13.128	1028.755	790.373
69.549	13.136	1028.045	789.796
70.563	13.201	1027.106	789.316
71.578	13.173	1026.356	788.538
72.593	13.137	1025.148	787.368
73.607	13.190	1024.184	786.809
74.622	12.993	1023.517	785.289
75.636	13.197	1022.764	785.614
76.651	13.128	1021.480	784.231
77.666	13.137	1021.223	784.007
78.680	13.119	1020.378	783.203
79.695	13.033	1020.000	782.436
80.709	13.122	1019.128	782.118
81.724	13.144	1018.361	781.566
82.739	13.215	1017.271	780.997
83.753	13.176	1017.108	780.616
84.768	13.309	1016.187	780.467
85.782	13.292	1015.644	779.903
86.797	13.370	1014.188	779.080
87.812	13.310	1013.718	778.369
88.826	13.355	1012.807	777.810
89.841	13.310	1012.108	776.993
90.855	13.277	1011.208	776.082
91.870	13.380	1010.267	775.771
92.884	13.342	1009.875	775.224
93.899	13.386	1009.130	774.791
94.914	13.417	1008.121	774.093
95.928	13.437	1007.791	773.866
96.943	13.438	1006.564	772.857
97.957	13.370	1005.905	771.966
98.972	13.481	1004.657	771.457
99.987	13.366	1004.624	770.829
101.001	13.366	1003.629	769.995
102.016	13.392	1002.832	769.440
103.030	13.334	1001.938	768.414
104.045	13.396	1000.735	767.713
105.060	13.353	999.924	766.822
106.074	13.489	998.698	766.442
107.089	13.205	998.054	764.566
108.103	13.259	997.166	764.068
109.118	13.357	995.894	763.478
110.133	13.199	995.429	762.325
111.147	13.145	994.644	761.410
112.162	13.231	993.879	761.152
113.176	13.104	993.156	759.946
114.191	13.272	991.990	759.759
115.206	13.307	990.705	758.867
116.220	13.229	990.436	758.238
117.235	13.178	989.248	757.027
118.249	13.207	988.332	756.393
119.264	13.393	987.114	756.243
120.279	13.277	986.419	755.113
121.293	13.162	985.989	754.194
122.308	13.299	984.916	753.933
123.322	13.144	984.527	752.858
124.337	13.203	983.083	751.956
125.352	13.221	981.772	750.969
126.366	13.273	980.589	750.233
127.381	13.108	980.024	748.985
128.395	13.159	978.961	748.338
129.410	13.223	977.755	747.643
130.424	13.198	977.144	746.993
131.439	13.279	976.161	746.542
132.454	13.321	975.535	746.187
133.468	13.355	974.797	745.709
134.483	13.339	973.705	744.739
135.497	13.225	973.558	744.046
136.512	13.327	972.948	743.973
137.527	13.303	971.535	742.718
138.541	13.381	970.749	742.404
139.556	13.314	970.200	741.617
140.570	13.369	969.083	740.943
141.585	13.439	968.143	740.470
142.600	13.361	968.149	740.062
143.614	13.409	967.090	739.402
144.629	13.489	966.287	739.081
145.643	13.411	965.535	738.092
146.658	13.429	964.846	737.580
147.673	13.332	963.867	736.336
148.687	13.316	962.867	735.435
149.702	13.247	962.188	734.542
150.716	13.424	961.017	734.368
151.731	13.198	960.534	732.932
152.746	13.316	959.542	732.635
153.760	13.358	958.782	732.174
154.775	13.254	958.544	731.468
155.789	13.378	957.000	730.772
156.804	13.466	956.442	730.672
157.819	13.426	955.392	729.629
158.833	13.500	955.000	729.590
159.848	13.549	954.375	729.262
160.862	13.577	953.557	728.697
161.877	13.426	953.024	727.560
162.892	13.355	952.228	726.577
163.906	13.327	951.595	725.907
164.921	13.512	950.281	725.651
165.935	13.451	949.406	724.652
166.950	13.472	948.255	723.802
167.964	13.285	947.699	722.494
168.979	13.545	946.668	722.782
169.994	13.481	945.460	721.516
171.008	13.631	944.588	721.441
172.023	13.531	944.130	720.590
173.037	13.535	943.559	720.109
174.052	13.462	942.963	719.274
175.067	13.555	941.732	718.672
176.081	13.613	940.814	718.160
177.096	13.403	940.279	716.779
178.110	13.474	939.413	716.364
179.125	13.649	938.308	716.213
180.140	13.643	938.005	715.894
181.154	13.565	937.244	714.910
182.169	13.657	936.605	714.758
183.183	13.694	935.868	714.293
184.198	13.775	934.513	713.542
185.213	13.844	934.050	713.423
186.227	13.714	934.023	712.780
187.242	13.731	933.415	712.324
188.256	13.770	932.393	711.652
189.271	13.871	931.978	711.705
190.286	13.799	931.170	710.714
191.300	13.700	930.625	709.813
192.315	13.673	929.494	708.774
193.329	13.607	928.883	707.961
194.344	13.758	927.758	707.687
195.359	13.622	927.835	707.099
196.373	13.737	927.256	707.087
197.388	13.774	926.996	706.985
198.402	13.898	926.113	706.776
199.417	13.962	925.574	706.577
200.432	13.889	925.590	706.212
201.446	14.033	924.558	705.974
202.461	14.120	923.948	705.817
203.475	14.076	923.329	705.093
204.490	14.143	922.901	704.989
205.504	14.015	922.044	703.731
206.519	13.933	921.089	702.594
207.534	13.906	920.079	701.645
208.548	14.044	919.277	701.556
209.563	13.952	919.160	701.014
210.577	14.000	918.427	700.594
211.592	14.110	917.981	700.660
212.607	14.031	917.447	699.855
213.621	14.166	916.714	699.801
214.636	14.112	915.968	698.942
215.650	14.206	915.278	698.751
216.665	14.070	914.996	697.901
217.680	14.262	914.146	697.998
218.694	14.292	913.527	697.590
219.709	14.282	913.230	697.259
220.723	14.171	912.534	696.200
221.738	14.202	911.560	695.527
222.753	14.215	911.216	695.254
223.767	14.146	910.533	694.387
224.782	14.314	909.599	694.312
225.796	14.409	908.753	694.000
226.811	14.453	907.839	693.424
227.826	14.376	906.963	692.374
228.840	14.295	906.684	691.763
229.855	14.314	905.936	691.211
230.869	14.374	905.095	690.756
231.884	14.195	904.785	689.717
232.899	14.370	903.754	689.592
233.913	14.288	903.226	688.792
234.928	14.151	902.991	687.983
235.942	14.300	901.872	687.685
236.957	14.303	901.058	687.018
237.972	14.365	900.424	686.730
238.986	14.356	899.892	686.224
240.001	14.435	898.919	685.748
241.015	14.380	898.692	685.286
242.030	14.397	897.678	684.525
243.045	14.465	897.110	684.308
244.059	14.370	896.598	683.467
245.074	14.311	896.021	682.727
246.088	14.488	894.973	682.591
247.103	14.484	894.625	682.248
248.117	14.427	894.159	681.599
249.132	14.495	893.661	681.437
250.147	14.605	892.965	681.297
251.161	14.552	892.327	680.532
252.176	14.672	891.309	680.187
253.190	14.721	890.880	679.998
254.205	14.815	890.114	679.735
255.220	14.734	889.572	678.931
256.234	14.768	888.935	678.525
257.249	14.786	888.210	677.982
258.263	14.942	887.432	677.960
259.278	14.880	887.052	677.359
260.293	14.885	886.530	676.922
261.307	14.979	885.914	676.773
262.322	14.963	885.179	676.085
263.336	15.037	884.775	676.016
264.351	15.041	883.946	675.339
265.366	15.042	883.611	675.027
266.380	15.015	882.805	674.243
267.395	15.004	882.118	673.616
268.409	14.898	881.695	672.806
269.424	14.980	880.829	672.414
270.439	15.058	879.843	671.914
271.453	15.053	879.360	671.467
272.468	15.028	878.837	670.906
273.482	15.039	878.209	670.412
274.497	15.025	877.568	669.809
275.512	15.037	876.710	669.143
276.526	15.014	876.050	668.489
277.541	15.120	875.339	668.309
278.555	15.113	874.617	667.672
279.570	15.194	874.047	667.499
280.585	15.237	873.165	666.940
281.599	15.349	873.139	667.303
282.614	15.321	872.340	666.524
283.628	15.241	871.855	665.776
284.643	15.158	871.116	664.824
285.657	15.184	870.943	664.736
286.672	15.248	870.402	664.517
287.687	15.270	869.645	663.970
288.701	15.288	869.102	663.568
289.716	15.235	868.587	662.905
290.730	15.191	868.397	662.526
291.745	15.252	867.417	661.962
292.760	15.142	866.983	661.137
293.774	15.307	866.029	661.002
294.789	15.300	865.520	660.529
295.803	15.390	864.635	660.148
296.818	15.440	864.181	659.939
297.833	15.389	863.696	659.311
298.847	15.435	862.807	658.755
299.862	15.566	862.133	658.694
300.876	15.435	861.588	657.708
301.891	15.531	860.863	657.472
302.906	15.468	860.368	656.788
303.920	15.550	859.781	656.601
304.935	15.682	858.914	656.399
305.949	15.533	858.457	655.408
306.964	15.570	857.530	654.790
307.979	15.572	856.937	654.284
308.993	15.551	856.989	654.184
310.008	15.666	856.356	654.092
311.022	15.705	855.810	653.770
312.037	15.713	855.090	653.190
313.052	15.669	854.891	652.809
314.066	15.581	854.074	651.788
315.081	15.609	853.403	651.328
316.095	15.678	852.875	651.135
317.110	15.645	852.124	650.374
318.125	15.670	851.255	649.749
319.139	15.730	851.011	649.739
320.154	15.609	850.281	648.659
321.168	15.673	849.914	648.564
322.183	15.708	849.384	648.240
323.197	15.737	848.838	647.876
324.212	15.728	848.531	647.549
325.227	15.742	848.060	647.186
326.241	15.754	847.307	646.603
327.256	15.671	846.774	645.819
328.270	15.664	846.189	645.289
329.285	15.746	845.550	645.060
330.300	15.834	844.772	644.747
331.314	15.791	844.290	644.156
332.329	15.672	843.734	643.218
333.343	15.891	842.980	643.425
334.358	15.856	842.941	643.205
335.373	16.017	842.206	643.203
336.387	15.941	841.294	642.158
337.402	16.106	840.742	642.310
338.416	15.983	840.820	641.843
339.431	16.059	839.950	641.412
340.446	15.981	839.386	640.626
341.460	16.058	838.755	640.383
342.475	16.153	838.339	640.368
343.489	16.125	837.245	639.369
344.504	16.110	836.942	639.026
345.519	16.226	836.042	638.721
346.533	16.276	835.948	638.782
347.548	16.294	835.670	638.582
348.562	16.228	834.926	637.706
349.577	16.253	834.799	637.645
350.592	16.115	833.878	636.367
351.606	16.140	833.596	636.187
352.621	16.262	832.821	636.001
353.635	16.248	832.263	635.465
354.650	16.252	832.136	635.327
355.665	16.178	831.701	634.660
356.679	16.144	831.237	634.123
357.694	16.336	830.705	634.382
358.708	16.394	830.004	634.010
359.723	16.366	829.342	633.342
360.738	16.280	828.907	632.631
361.752	16.242	828.513	632.131
362.767	16.334	828.221	632.198
363.781	16.338	827.940	631.940
364.796	16.472	826.995	631.664
365.810	16.501	826.648	631.453
366.825	16.496	826.578	631.325
367.840	16.521	826.485	631.293
368.854	16.564	825.707	630.801
369.869	16.608	825.109	630.453
370.883	16.552	824.579	629.784
371.898	16.278	824.212	628.427
372.913	16.582	823.312	628.816
373.927	16.705	822.356	628.487
374.942	16.796	821.595	628.185
375.956	16.619	821.429	627.350
376.971	16.641	820.629	626.762
377.986	16.729	820.536	626.963
379.000	16.753	819.973	626.565
380.015	16.965	819.278	626.764
381.029	16.762	819.223	625.915
382.044	16.734	818.664	625.328
383.059	16.811	817.687	624.813
384.073	16.867	817.130	624.539
385.088	16.905	816.775	624.352
386.102	16.828	816.296	623.646
387.117	16.713	815.852	622.827
388.132	16.791	815.252	622.601
389.146	16.768	814.947	622.228
390.161	16.665	814.683	621.593
391.175	16.723	814.298	621.458
392.190	16.846	813.789	621.467
393.205	16.853	812.948	620.793
394.219	16.908	812.647	620.711
395.234	16.756	812.444	619.943
396.248	16.884	811.850	619.903
397.263	16.669	811.780	619.009
398.278	16.810	810.533	618.519
399.292	16.855	810.006	618.227
400.307	16.866	809.961	618.178
401.321	16.819	809.494	617.597
402.336	16.853	809.392	617.585
403.350	16.917	808.924	617.407
404.365	16.939	808.406	617.038
405.380	17.078	807.796	617.024
406.394	17.076	807.391	616.652
407.409	17.128	806.614	616.194
408.423	17.082	806.275	615.713
409.438	17.070	805.879	615.312
410.453	17.158	805.426	615.230
411.467	17.336	805.226	615.668
412.482	17.375	804.131	614.915
413.496	17.134	804.042	613.924
414.511	17.225	803.624	613.880
415.526	17.255	803.386	613.751
416.540	17.356	802.572	613.438
417.555	17.366	802.374	613.268
418.569	17.343	802.087	612.912
419.584	17.315	801.835	612.564
420.599	17.341	801.333	612.221
421.613	99.425	1277.304	1421.657
422.628	85.245	1346.662	1421.791
