DTS Sentinel unit serial number:	SN413079Multiplexer serial number:	ORYXHardware model number:	OX4-SRSoftware version number:	ORYX F/W v4.00 Oryx Data Collector v3.7.2.0data status	okinstallation	princeton_trtdifferential loss correction	single-endedforward channel	channel 3reverse channel	N/Adate	2019/09/17time	11:20:35forward acquisition time	60.00reverse acquisition time	0.00gamma	496.2192k internal	0.2323k external	0.2323temperature offset calibration	0.9949default loss term (dB/km)	0.3790temperature slope calibration	1.0000multiplexer offset coefficient	1.0000multiplexer slope coefficient	1.0000fibre end	0.00T internal ref (°C)	30.55T ext. ref 1 (°C)	0.31T ext. ref 2 (°C)	26.28length (m)	temperature (°C)	Stokes	anti-Stokes-747.200	134.148	-0.116	0.151
-746.185	-6.253	-0.052	0.036
-745.171	73.991	0.045	0.048
-744.156	-100.446	-0.136	-0.034
-743.142	-77.643	0.174	-0.061
-742.127	513.081	-0.139	0.328
-741.112	-53.689	-0.149	-0.069
-740.098	-175.270	0.184	-0.005
-739.083	112.661	0.165	0.201
-738.069	800.000	-0.065	0.194
-737.054	104.189	-0.114	-0.135
-736.039	329.448	0.008	0.016
-735.025	-165.133	-0.363	0.016
-734.010	46.866	-0.318	-0.298
-732.996	214.010	0.174	-0.278
-731.981	-200.000	-0.037	-0.169
-730.966	800.000	-0.180	-0.546
-729.952	14.817	0.090	-0.071
-728.937	-200.000	-0.029	-0.148
-727.923	166.541	0.220	0.314
-726.908	-174.199	-0.291	0.009
-725.894	724.548	0.030	-0.080
-724.879	-116.488	-0.240	-0.045
-723.864	-170.776	-0.357	-0.012
-722.850	298.442	0.212	-0.393
-721.835	-188.457	0.170	0.002
-720.821	-172.975	-0.055	0.002
-719.806	-35.879	-0.306	0.167
-718.791	-20.429	-0.070	0.043
-717.777	-175.884	0.378	-0.010
-716.762	-51.440	-0.114	-0.054
-715.748	-119.052	-0.190	-0.034
-714.733	-96.744	-0.044	-0.012
-713.718	-26.661	-0.369	-0.218
-712.704	107.944	-0.029	0.035
-711.689	-200.000	-0.044	-0.610
-710.675	307.788	0.124	0.234
-709.660	182.521	0.237	0.353
-708.645	-58.813	-0.260	-0.113
-707.631	-200.000	-0.054	-0.386
-706.616	3.445	0.098	0.072
-705.602	-77.452	0.036	0.013
-704.587	44.084	0.039	0.036
-703.572	-29.600	-0.147	0.084
-702.558	-200.000	0.028	-0.276
-701.543	119.392	-0.026	0.033
-700.529	-23.209	-0.091	-0.055
-699.514	172.871	0.155	0.226
-698.499	-116.299	0.223	-0.042
-697.485	-200.000	0.028	-0.160
-696.470	-113.216	-0.243	0.048
-695.456	-200.000	-0.051	-0.369
-694.441	800.000	-0.048	-0.155
-693.426	-108.718	0.160	-0.034
-692.412	-200.000	-0.022	0.184
-691.397	-134.557	0.110	0.014
-690.383	237.239	0.042	0.069
-689.368	476.187	0.044	0.101
-688.354	-101.367	0.063	0.015
-687.339	-39.880	0.268	0.141
-686.324	-200.000	0.053	-0.268
-685.310	19.745	0.129	-0.104
-684.295	800.000	-0.102	-0.381
-683.281	-60.980	-0.305	0.130
-682.266	37.963	-0.272	-0.244
-681.251	-183.768	-0.178	-0.003
-680.237	-135.890	0.302	0.036
-679.222	-200.000	-0.035	0.180
-678.208	88.779	-0.112	-0.125
-677.193	-48.934	0.087	-0.042
-676.178	56.590	-0.194	-0.190
-675.164	-73.093	0.212	0.078
-674.149	-18.390	0.123	-0.077
-673.135	88.560	-0.134	-0.150
-672.120	593.440	0.102	-0.255
-671.105	114.358	0.092	-0.113
-670.091	35.703	-0.117	0.104
-669.076	116.213	0.319	0.393
-668.062	-200.000	-0.095	0.520
-667.047	-154.024	0.233	0.016
-666.032	457.839	0.038	0.084
-665.018	-76.652	0.058	0.020
-664.003	536.782	-0.140	-0.335
-662.989	-140.919	0.213	-0.022
-661.974	-45.206	0.241	0.120
-660.959	-200.000	-0.017	0.329
-659.945	-200.000	-0.001	-0.237
-658.930	-84.473	-0.245	0.078
-657.916	57.223	-0.174	0.171
-656.901	-125.479	-0.248	0.038
-655.886	-108.606	-0.115	-0.025
-654.872	107.954	-0.179	-0.215
-653.857	-148.631	-0.343	0.028
-652.843	171.798	-0.093	-0.134
-651.828	800.000	-0.142	-0.410
-650.814	-67.180	0.206	0.082
-649.799	800.000	-0.093	-0.315
-648.784	-144.813	-0.118	-0.011
-647.770	-78.820	-0.426	-0.146
-646.755	168.344	-0.074	0.106
-645.741	496.500	0.073	0.168
-644.726	186.151	0.130	0.194
-643.711	-65.507	-0.502	-0.203
-642.697	-200.000	0.045	-0.213
-641.682	171.548	-0.034	-0.049
-640.668	-46.693	-0.047	-0.023
-639.653	800.000	0.015	-0.056
-638.638	-118.843	0.191	0.034
-637.624	22.146	-0.203	0.167
-636.609	-85.989	0.273	-0.085
-635.595	56.111	-0.195	-0.190
-634.580	-119.378	-0.564	-0.099
-633.565	100.110	-0.171	-0.200
-632.551	-128.381	-0.454	-0.065
-631.536	223.411	-0.069	-0.112
-630.522	-14.117	-0.041	0.027
-629.507	-90.794	-0.075	-0.022
-628.492	-19.872	0.127	0.079
-627.478	-200.000	-0.068	0.309
-626.463	-126.187	-0.038	0.006
-625.449	480.984	0.158	-0.361
-624.434	112.484	-0.059	-0.072
-623.419	-200.000	0.049	-0.374
-622.405	-200.000	-0.015	0.146
-621.390	-200.000	0.025	0.356
-620.376	38.708	-0.209	0.188
-619.361	54.691	-0.282	-0.273
-618.346	-33.685	0.125	-0.069
-617.332	800.000	-0.132	-0.389
-616.317	29.555	-0.078	0.067
-615.303	-77.665	-0.415	-0.144
-614.288	-200.000	0.032	-0.208
-613.273	-166.727	-0.358	-0.015
-612.259	-81.738	-0.182	-0.060
-611.244	-137.234	-0.145	-0.017
-610.230	-76.130	0.181	-0.064
-609.215	-200.000	-0.030	-0.296
-608.201	426.728	-0.174	0.377
-607.186	-58.718	0.123	-0.054
-606.171	-80.411	0.124	0.042
-605.157	128.679	-0.078	0.100
-604.142	-73.906	-0.143	0.052
-603.128	241.535	-0.163	0.274
-602.113	32.904	0.056	0.048
-601.098	-176.840	-0.142	-0.004
-600.084	-60.842	-0.129	-0.055
-599.069	343.302	0.053	-0.105
-598.055	558.060	-0.025	-0.061
-597.040	-83.754	0.188	-0.060
-596.025	70.628	0.222	-0.230
-595.011	506.453	-0.087	-0.202
-593.996	-127.269	-0.169	-0.025
-592.982	-67.908	0.094	-0.037
-591.967	-102.062	0.210	0.051
-590.952	-80.938	0.215	-0.072
-589.938	735.665	-0.186	0.500
-588.923	-200.000	0.024	0.219
-587.909	-200.000	-0.442	-0.001
-586.894	776.601	-0.047	-0.129
-585.879	397.898	-0.055	-0.116
-584.865	10.710	-0.109	-0.083
-583.850	445.966	0.039	-0.087
-582.836	-70.413	-0.227	0.086
-581.821	50.003	-0.328	-0.310
-580.806	53.541	-0.263	-0.254
-579.792	-200.000	-0.057	0.369
-578.777	128.855	0.166	0.212
-577.763	-200.000	-0.017	0.290
-576.748	-62.914	0.116	0.048
-575.733	405.921	0.130	-0.275
-574.719	41.278	-0.189	-0.171
-573.704	-200.000	-0.021	-0.273
-572.690	-89.498	0.123	0.036
-571.675	-55.038	0.125	-0.057
-570.661	-118.568	0.272	0.048
-569.646	372.299	0.117	0.239
-568.631	-132.590	-0.023	-0.003
-567.617	-28.965	0.297	-0.171
-566.602	-4.429	-0.145	-0.100
-565.588	-200.000	0.004	-0.224
-564.573	-79.505	-0.149	-0.051
-563.558	-83.177	0.268	-0.086
-562.544	800.000	0.083	-0.331
-561.529	19.486	-0.139	-0.112
-560.515	-23.254	0.354	0.213
-559.500	544.978	-0.085	0.203
-558.485	-78.831	-0.171	0.058
-557.471	45.898	0.055	-0.051
-556.456	-39.499	0.242	0.127
-555.442	-200.000	0.066	-0.361
-554.427	-126.796	-0.146	-0.022
-553.412	56.073	0.104	-0.101
-552.398	-200.000	0.003	-0.230
-551.383	96.505	0.186	-0.214
-550.369	-69.476	0.235	0.090
-549.354	-66.015	0.277	0.111
-548.339	-120.148	-0.268	-0.046
-547.325	109.384	0.184	-0.221
-546.310	-200.000	-0.029	-0.456
-545.296	-114.316	-0.400	-0.077
-544.281	31.084	0.144	-0.123
-543.266	-200.000	0.040	-0.264
-542.252	800.000	0.016	-0.048
-541.237	-4.472	0.088	-0.061
-540.223	80.161	0.017	0.019
-539.208	102.599	-0.185	-0.217
-538.193	-156.589	-0.170	-0.011
-537.179	394.032	-0.112	-0.233
-536.164	-128.492	0.224	-0.032
-535.150	71.436	-0.170	-0.177
-534.135	146.607	0.115	-0.155
-533.121	354.280	0.155	-0.309
-532.106	-200.000	0.033	0.266
-531.091	0.410	-0.039	0.028
-530.077	-10.296	-0.318	0.211
-529.062	147.744	0.078	-0.105
-528.048	800.000	0.036	-0.128
-527.033	99.721	-0.213	0.248
-526.018	217.362	-0.052	-0.083
-525.004	91.627	0.092	-0.104
-523.989	800.000	-0.047	-0.152
-522.975	730.072	-0.047	-0.125
-521.960	18.719	0.277	0.222
-520.945	-115.340	-0.082	0.015
-519.931	7.061	-0.139	-0.104
-518.916	-19.778	-0.179	-0.111
-517.902	-130.421	-0.310	0.042
-516.887	266.542	0.131	-0.230
-515.872	117.245	0.190	0.234
-514.858	-6.178	-0.143	-0.098
-513.843	-10.405	-0.153	-0.101
-512.829	-200.000	-0.010	0.151
-511.814	-48.035	-0.141	-0.068
-510.799	-180.195	0.074	-0.002
-509.785	717.742	0.151	0.402
-508.770	735.698	-0.015	-0.039
-507.756	413.161	-0.042	0.090
-506.741	184.612	-0.066	0.097
-505.726	-200.000	0.008	-0.070
-504.712	-15.353	-0.151	-0.097
-503.697	-200.000	0.063	-0.463
-502.683	-33.263	-0.197	-0.109
-501.668	176.055	0.200	0.291
-500.653	-200.000	-0.020	0.150
-499.639	659.841	-0.045	-0.115
-498.624	-200.000	0.011	0.064
-497.610	-91.596	0.118	-0.034
-496.595	661.046	0.100	-0.257
-495.581	-125.069	0.383	-0.059
-494.566	800.000	0.055	-0.238
-493.551	800.000	-0.041	0.155
-492.537	36.789	-0.215	-0.190
-491.522	-200.000	0.001	-0.047
-490.508	197.866	-0.114	-0.174
-489.493	607.369	0.030	0.075
-488.478	346.839	-0.055	-0.108
-487.464	531.296	0.034	0.079
-486.449	-200.000	0.001	0.210
-485.435	-43.149	-0.345	-0.175
-484.420	214.767	-0.171	0.271
-483.405	-128.090	-0.341	-0.049
-482.391	-141.795	0.349	-0.035
-481.376	-129.086	0.143	0.020
-480.362	-24.378	0.071	0.042
-479.347	687.552	-0.022	0.058
-478.332	-46.735	-0.095	-0.046
-477.318	48.814	-0.117	-0.110
-476.303	-99.338	0.120	-0.030
-475.289	-150.915	0.425	-0.032
-474.274	-158.921	-0.549	-0.031
-473.259	800.000	0.043	0.143
-472.245	-122.188	-0.117	-0.019
-471.230	-2.912	0.096	0.067
-470.216	488.309	-0.040	0.090
-469.201	34.915	0.107	0.094
-468.186	-200.000	-0.019	-0.363
-467.172	112.086	-0.149	-0.179
-466.157	-66.651	-0.102	0.040
-465.143	-88.265	-0.050	0.015
-464.128	-200.000	0.000	-0.247
-463.113	800.000	-0.053	0.176
-462.099	-112.181	-0.321	0.064
-461.084	112.818	-0.039	-0.047
-460.070	282.147	-0.108	0.194
-459.055	520.450	-0.043	0.100
-458.040	60.940	-0.117	-0.116
-457.026	207.745	-0.085	-0.133
-456.011	267.768	0.038	0.067
-454.997	-200.000	0.007	-0.184
-453.982	800.000	0.031	-0.126
-452.968	-200.000	0.018	0.225
-451.953	-118.622	0.175	-0.031
-450.938	-105.049	0.118	0.027
-449.924	70.740	0.244	-0.252
-448.909	-200.000	0.085	-0.417
-447.895	302.737	0.096	-0.177
-446.880	-109.178	0.135	0.029
-445.865	800.000	0.038	0.148
-444.851	-133.755	-0.263	-0.033
-443.836	136.339	-0.128	-0.166
-442.822	170.675	0.142	-0.204
-441.807	-122.589	-0.156	-0.025
-440.792	540.792	0.129	0.306
-439.778	-200.000	-0.010	0.166
-438.763	800.000	0.080	0.252
-437.749	32.938	0.252	0.218
-436.734	-200.000	0.023	-0.363
-435.719	-70.134	0.081	0.031
-434.705	119.922	-0.049	-0.060
-433.690	-135.688	0.191	-0.023
-432.676	-25.751	-0.328	0.193
-431.661	800.000	-0.012	0.035
-430.646	-83.469	0.450	0.144
-429.632	-88.193	0.133	0.040
-428.617	-200.000	-0.084	0.428
-427.603	74.486	0.168	-0.176
-426.588	-200.000	0.020	-0.471
-425.573	339.552	0.121	0.235
-424.559	-200.000	0.007	0.264
-423.544	-75.676	-0.325	-0.115
-422.530	800.000	-0.030	-0.084
-421.515	-17.436	0.135	-0.084
-420.500	144.681	0.090	0.120
-419.486	353.156	0.043	-0.085
-418.471	-200.000	0.056	0.267
-417.457	-200.000	0.007	0.154
-416.442	-200.000	0.022	-0.244
-415.428	75.900	0.159	-0.167
-414.413	-100.328	0.329	0.081
-413.398	800.000	-0.048	0.210
-412.384	371.599	0.092	0.186
-411.369	94.524	-0.139	-0.158
-410.355	112.811	0.154	0.186
-409.340	-43.710	0.082	0.041
-408.325	-40.537	-0.095	-0.049
-407.311	242.660	0.229	0.381
-406.296	800.000	-0.084	0.303
-405.282	-200.000	0.028	0.227
-404.267	18.534	0.207	0.165
-403.252	-63.663	-0.340	-0.139
-402.238	-200.000	0.015	0.166
-401.223	148.981	-0.089	-0.119
-400.209	91.664	-0.330	0.370
-399.194	225.925	-0.125	-0.202
-398.179	800.000	-0.085	-0.284
-397.165	-200.000	-0.029	0.212
-396.150	-142.840	-0.174	-0.017
-395.136	104.002	-0.117	-0.137
-394.121	252.489	-0.185	-0.314
-393.106	483.989	-0.061	-0.138
-392.092	-68.135	-0.052	0.020
-391.077	-200.000	-0.003	0.292
-390.063	392.987	-0.122	0.254
-389.048	-200.000	-0.027	-0.218
-388.033	-96.651	0.173	0.045
-387.019	-84.684	-0.342	-0.107
-386.004	101.835	0.027	-0.032
-384.990	-200.000	0.007	0.286
-383.975	-94.840	-0.270	-0.073
-382.960	512.081	-0.075	-0.174
-381.946	377.003	0.076	-0.154
-380.931	-162.106	-0.405	-0.020
-379.917	-200.000	0.023	0.135
-378.902	-200.000	-0.018	0.284
-377.888	-200.000	0.013	0.103
-376.873	345.288	0.064	-0.125
-375.858	440.102	0.110	-0.240
-374.844	143.767	0.022	0.030
-373.829	539.549	-0.038	-0.089
-372.815	55.214	0.224	0.216
-371.800	-200.000	0.005	0.126
-370.785	-62.828	-0.256	-0.106
-369.771	127.612	0.185	0.234
-368.756	76.895	0.066	0.069
-367.742	238.159	-0.175	0.289
-366.727	-60.646	-0.248	0.105
-365.712	-200.000	0.070	-0.329
-364.698	-200.000	0.090	0.472
-363.683	800.000	0.026	0.086
-362.669	800.000	0.030	-0.107
-361.654	577.235	-0.065	0.158
-360.639	41.716	-0.284	0.256
-359.625	-30.932	0.094	0.053
-358.610	-86.157	-0.486	0.149
-357.596	-156.736	-0.195	0.012
-356.581	800.000	-0.090	-0.295
-355.566	138.729	0.245	0.320
-354.552	800.000	-0.047	0.202
-353.537	800.000	0.064	-0.227
-352.523	-200.000	0.029	0.135
-351.508	81.175	-0.132	-0.142
-350.493	-200.000	-0.018	0.350
-349.479	389.386	0.228	-0.471
-348.464	290.699	0.122	0.220
-347.450	-99.751	0.343	0.085
-346.435	324.503	-0.141	-0.268
-345.420	91.849	0.154	0.172
-344.406	-38.955	0.087	0.045
-343.391	-77.289	-0.066	-0.023
-342.377	-78.129	0.171	-0.059
-341.362	18.613	0.175	0.139
-340.348	-115.741	0.404	-0.075
-339.333	-200.000	0.009	0.300
-338.318	108.997	0.258	0.307
-337.304	-100.451	0.348	0.086
-336.289	800.000	-0.048	0.206
-335.275	-200.000	0.044	-0.243
-334.260	10.405	0.250	-0.189
-333.245	-100.591	-0.049	-0.012
-332.231	-11.773	-0.047	-0.031
-331.216	-87.569	0.232	0.070
-330.202	-126.190	-0.136	-0.020
-329.187	-115.310	0.144	-0.027
-328.172	-200.000	0.023	0.166
-327.158	96.761	0.226	-0.257
-326.143	800.000	-0.095	-0.299
-325.129	-29.261	-0.159	-0.091
-324.114	-200.000	0.017	-0.268
-323.099	-49.817	0.496	-0.234
-322.085	-57.156	0.199	-0.087
-321.070	-43.241	-0.321	-0.162
-320.056	181.990	0.147	-0.215
-319.041	104.775	-0.124	0.145
-318.026	-75.243	0.151	-0.054
-317.012	-141.628	-0.185	0.018
-315.997	516.140	0.056	0.130
-314.983	3.295	-0.148	0.107
-313.968	334.041	-0.167	-0.321
-312.953	17.907	-0.306	0.242
-311.939	135.323	-0.224	0.289
-310.924	-200.000	-0.016	0.104
-309.910	-25.253	0.169	-0.100
-308.895	-200.000	0.013	-0.174
-307.880	-139.721	-0.247	0.026
-306.866	134.259	0.200	-0.258
-305.851	800.000	0.096	0.352
-304.837	800.000	0.013	0.047
-303.822	-136.776	0.356	0.041
-302.807	139.735	-0.128	0.167
-301.793	158.665	0.059	0.082
-300.778	-200.000	0.018	0.147
-299.764	800.000	-0.089	-0.327
-298.749	800.000	-0.102	-0.341
-297.735	9.621	0.246	0.185
-296.720	597.485	-0.108	0.266
-295.705	-200.000	0.045	0.273
-294.691	800.000	0.118	0.374
-293.676	258.434	0.193	0.329
-292.662	318.677	0.090	-0.169
-291.647	-60.611	-0.066	0.028
-290.632	-200.000	0.040	0.242
-289.618	-200.000	-0.002	-0.250
-288.603	-200.000	-0.021	0.181
-287.589	184.225	-0.155	-0.228
-286.574	507.313	-0.123	-0.282
-285.559	-126.650	-0.268	0.039
-284.545	25.828	0.150	0.124
-283.530	57.485	0.095	0.092
-282.516	-56.421	0.183	0.081
-281.501	-20.667	-0.245	-0.149
-280.486	-200.000	0.082	0.000
-279.472	76.784	0.280	0.295
-278.457	422.211	0.077	0.163
-277.443	-51.035	-0.171	0.079
-276.428	800.000	0.017	0.070
-275.413	403.174	0.053	-0.111
-274.399	-28.398	0.023	-0.013
-273.384	-200.000	-0.024	-0.168
-272.370	-160.444	0.303	0.016
-271.355	-200.000	0.065	0.363
-270.340	-22.905	-0.098	-0.058
-269.326	-111.637	0.374	0.075
-268.311	-85.291	-0.156	-0.048
-267.297	541.428	-0.084	-0.198
-266.282	-93.878	-0.096	-0.026
-265.267	466.656	-0.145	-0.322
-264.253	-70.259	-0.131	-0.049
-263.238	800.000	0.019	0.078
-262.224	800.000	-0.004	-0.011
-261.209	-13.809	0.219	0.140
-260.195	-74.086	-0.213	-0.076
-259.180	-120.909	-0.284	-0.047
-258.165	108.980	0.192	0.227
-257.151	-149.434	0.380	0.030
-256.136	-200.000	-0.041	-0.316
-255.122	567.011	0.131	0.316
-254.107	243.570	0.141	0.234
-253.092	7.323	-0.104	-0.077
-252.078	586.942	0.125	0.305
-251.063	299.167	0.031	-0.057
-250.049	-200.000	0.008	-0.239
-249.034	-2.294	0.199	0.138
-248.019	65.919	-0.135	0.135
-247.005	800.000	0.034	0.123
-245.990	-25.856	-0.375	-0.219
-244.976	175.745	-0.151	-0.217
-243.961	60.371	-0.083	-0.081
-242.946	800.000	0.030	-0.089
-241.932	-59.684	0.035	-0.015
-240.917	12.505	-0.112	0.086
-239.903	7.728	0.190	0.141
-238.888	182.201	-0.105	-0.154
-237.873	39.341	0.404	0.358
-236.859	-64.551	0.436	0.175
-235.844	61.580	-0.049	0.048
-234.830	-174.144	-0.316	0.009
-233.815	366.863	-0.111	-0.221
-232.800	-140.592	0.175	-0.018
-231.786	-200.000	0.002	0.224
-230.771	277.017	-0.177	0.312
-229.757	800.000	-0.057	-0.173
-228.742	226.423	0.060	-0.096
-227.727	-200.000	-0.037	0.262
-226.713	-138.356	0.248	0.027
-225.698	800.000	0.038	-0.115
-224.684	-200.000	0.008	0.163
-223.669	-69.932	-0.210	-0.079
-222.655	800.000	-0.067	0.245
-221.640	-100.180	0.443	0.109
-220.625	27.557	-0.395	0.329
-219.611	-119.502	0.171	-0.029
-218.596	722.278	-0.103	-0.270
-217.582	280.124	0.112	-0.199
-216.567	395.412	0.041	-0.085
-215.552	11.519	0.153	-0.116
-214.538	10.354	0.304	-0.229
-213.523	130.963	-0.314	0.398
-212.509	-98.130	0.454	0.115
-211.494	596.556	0.096	-0.235
-210.479	3.048	0.336	0.241
-209.465	-38.029	-0.349	0.184
-208.450	31.467	-0.141	0.119
-207.436	90.625	0.127	0.140
-206.421	-200.000	0.032	-0.177
-205.406	-40.100	-0.098	-0.051
-204.392	-200.000	0.015	-0.200
-203.377	-109.598	0.110	-0.023
-202.363	-63.278	0.108	0.044
-201.348	87.359	0.132	-0.145
-200.333	-200.000	-0.008	-0.153
-199.319	800.000	0.058	0.181
-198.304	-52.563	-0.530	0.242
-197.290	-120.027	-0.412	-0.070
-196.275	-83.729	0.127	-0.040
-195.260	-200.000	-0.003	0.441
-194.246	800.000	-0.039	0.152
-193.231	29.415	-0.225	-0.189
-192.217	87.564	0.134	0.146
-191.202	94.152	0.085	-0.096
-190.187	800.000	0.071	0.204
-189.173	326.045	0.058	0.110
-188.158	-15.417	0.295	-0.186
-187.144	225.800	-0.106	0.169
-186.129	208.264	0.222	0.343
-185.114	-25.516	0.253	-0.147
-184.100	362.081	-0.032	0.064
-183.085	-200.000	-0.004	-0.088
-182.071	667.279	0.111	0.283
-181.056	745.540	-0.094	0.250
-180.042	-12.368	0.182	-0.117
-179.027	235.203	0.199	0.325
-178.012	800.000	-0.058	-0.186
-176.998	-6.807	0.182	0.122
-175.983	-182.332	0.360	0.007
-174.969	-200.000	0.007	-0.223
-173.954	800.000	0.085	0.291
-172.939	252.975	0.084	-0.142
-171.925	57.476	0.062	-0.060
-170.910	645.353	-0.034	0.087
-169.896	-34.230	-0.530	-0.288
-168.881	-200.000	0.017	-0.159
-167.866	201.140	0.145	0.221
-166.852	-200.000	-0.023	-0.126
-165.837	-34.067	0.115	-0.063
-164.823	-200.000	0.032	0.327
-163.808	643.371	0.027	-0.067
-162.793	18.076	0.167	-0.132
-161.779	-200.000	0.010	-0.087
-160.764	800.000	-0.062	-0.209
-159.750	-200.000	-0.010	-0.180
-158.735	250.619	0.012	-0.021
-157.720	5.139	0.247	0.179
-156.706	169.259	0.041	-0.058
-155.691	-30.074	-0.041	0.023
-154.677	-200.000	-0.041	0.202
-153.662	332.257	0.050	0.096
-152.647	4.533	0.146	-0.106
-151.633	67.925	0.191	0.193
-150.618	113.263	-0.095	-0.113
-149.604	-31.513	0.200	-0.111
-148.589	-105.256	0.120	-0.027
-147.574	-200.000	-0.001	-0.231
-146.560	-200.000	0.018	-0.230
-145.545	24.563	0.225	0.184
-144.531	-200.000	0.027	-0.203
-143.516	-200.000	-0.026	0.442
-142.502	-57.742	-0.127	-0.055
-141.487	-200.000	-0.008	0.100
-140.472	-13.671	-0.038	-0.024
-139.458	800.000	-0.126	0.370
-138.443	-200.000	-0.011	-0.087
-137.429	-200.000	0.030	-0.305
-136.414	424.116	0.097	0.207
-135.399	-200.000	-0.001	-0.396
-134.385	-200.000	-0.022	-0.131
-133.370	474.703	-0.032	0.071
-132.356	-93.110	0.059	-0.016
-131.341	-129.300	0.495	-0.068
-130.326	-7.028	0.538	0.360
-129.312	-87.999	-0.292	-0.086
-128.297	83.448	0.159	-0.171
-127.283	-118.611	0.212	0.037
-126.268	196.840	-0.085	-0.128
-125.253	80.747	-0.176	-0.188
-124.239	-200.000	0.003	0.262
-123.224	-111.002	0.049	0.010
-122.210	800.000	-0.049	0.154
-121.195	-114.624	-0.169	-0.032
-120.180	58.309	0.380	0.368
-119.166	91.004	0.165	0.182
-118.151	278.655	0.204	-0.359
-117.137	-200.000	0.213	-0.000
-116.122	-14.319	0.247	-0.157
-115.107	-62.590	-0.102	0.042
-114.093	-147.959	-0.210	-0.017
-113.078	498.967	0.142	0.322
-112.064	-200.000	-0.011	-0.108
-111.049	-77.817	-0.146	0.050
-110.034	149.546	0.254	0.339
-109.020	-200.000	0.034	0.439
-108.005	-48.762	0.072	0.034
-106.991	38.305	-0.317	-0.278
-105.976	448.978	0.255	-0.554
-104.962	-133.414	0.163	-0.020
-103.947	25.474	0.169	-0.139
-102.932	-200.000	0.003	0.099
-101.918	-94.175	0.421	-0.113
-100.903	-114.931	-0.212	0.040
-99.889	433.521	0.096	0.205
-98.874	-157.468	0.264	-0.016
-97.859	-200.000	-0.063	0.350
-96.845	90.853	0.169	-0.186
-95.830	154.651	-0.151	-0.205
-94.816	500.043	-0.226	0.513
-93.801	267.629	-0.141	0.243
-92.786	-155.366	0.136	-0.009
-91.772	-93.713	-0.220	-0.060
-90.757	69.689	-0.131	-0.133
-89.743	-200.000	-0.001	0.311
-88.728	-95.692	0.261	0.069
-87.713	-63.161	-0.084	0.034
-86.699	294.249	-0.162	0.291
-85.684	645.031	-0.021	-0.052
-84.670	163.851	0.129	-0.179
-83.655	-89.001	0.533	-0.155
-82.640	6.446	0.113	-0.083
-81.626	-110.537	-0.178	-0.036
-80.611	202.538	-0.161	-0.245
-79.597	-200.000	-0.032	-0.211
-78.582	-200.000	0.028	0.229
-77.567	-42.009	-0.161	-0.081
-76.553	-87.409	0.151	0.045
-75.538	20.335	0.448	-0.356
-74.524	800.000	0.097	-0.340
-73.509	278.077	0.137	0.241
-72.494	30.663	0.297	0.250
-71.480	-28.897	-0.301	0.170
-70.465	132.959	-0.168	0.214
-69.451	-115.224	0.035	-0.007
-68.436	-200.000	-0.017	0.165
-67.422	-7.990	0.063	0.042
-66.407	157.624	0.062	-0.085
-65.392	-30.339	0.212	0.118
-64.378	-146.885	-0.043	-0.004
-63.363	800.000	0.140	0.470
-62.349	-146.487	0.224	-0.019
-61.334	236.094	-0.798	-1.298
-60.319	262.362	0.520	0.887
-59.305	225.628	-0.509	-0.810
-58.290	75.298	1.030	1.068
-57.276	324.016	0.819	1.537
-56.261	-200.000	101.732	580.692
-55.246	480.856	1440.050	3212.398
-54.232	151.308	2625.675	3513.746
-53.217	108.791	2184.787	2566.868
-52.203	41.322	1709.367	1519.695
-51.188	33.695	1517.592	1297.258
-50.173	31.208	1490.934	1257.685
-49.159	51.357	1542.477	1439.724
-48.144	52.422	1560.063	1463.384
-47.130	34.058	1518.080	1299.951
-46.115	30.874	1503.355	1265.694
-45.100	30.693	1500.003	1261.594
-44.086	30.616	1497.514	1258.929
-43.071	30.662	1495.702	1257.667
-42.057	30.530	1494.184	1255.448
-41.042	30.645	1492.679	1254.913
-40.027	30.530	1491.241	1252.875
-39.013	30.554	1489.679	1251.676
-37.998	30.568	1488.081	1250.378
-36.984	30.541	1487.205	1249.414
-35.969	30.419	1485.753	1247.326
-34.954	30.561	1484.056	1246.800
-33.940	30.467	1483.477	1245.633
-32.925	30.444	1482.202	1244.362
-31.911	30.558	1480.682	1243.797
-30.896	30.637	1479.239	1243.066
-29.881	30.683	1477.989	1242.270
-28.867	30.577	1476.749	1240.473
-27.852	30.537	1475.437	1239.053
-26.838	30.622	1473.688	1238.104
-25.823	30.644	1472.243	1236.989
-24.809	30.712	1469.832	1235.366
-23.794	30.649	1469.045	1234.237
-22.779	30.547	1468.613	1233.149
-21.765	30.599	1467.156	1232.222
-20.750	30.546	1466.017	1230.863
-19.736	30.539	1465.067	1229.970
-18.721	30.597	1463.909	1229.330
-17.706	30.502	1462.825	1227.742
-16.692	30.518	1461.539	1226.722
-15.677	30.611	1460.308	1226.255
-14.663	30.552	1459.405	1225.060
-13.648	30.494	1458.956	1224.249
-12.633	30.542	1457.421	1223.227
-11.619	30.557	1456.615	1222.604
-10.604	30.446	1456.069	1221.366
-9.590	30.484	1455.496	1221.087
-8.575	30.491	1454.397	1220.163
-7.560	30.625	1453.018	1219.840
-6.546	30.475	1452.247	1218.158
-5.531	30.527	1451.714	1218.005
-4.517	30.552	1450.449	1217.055
-3.502	30.415	1450.232	1215.930
-2.487	30.421	1448.847	1214.759
-1.473	30.413	1447.968	1213.924
-0.458	30.490	1446.831	1213.424
0.556	28.926	1437.148	1203.069
1.571	26.182	1411.762	1164.049
2.586	22.809	1350.489	1092.588
3.600	20.930	1269.583	1016.099
4.615	19.704	1225.257	973.637
5.629	17.155	1169.447	915.483
6.644	8.724	1083.361	805.749
7.659	1.517	1042.568	740.344
8.673	0.510	1036.768	731.282
9.688	0.300	1033.692	728.029
10.702	0.238	1032.198	726.615
11.717	0.193	1030.410	725.077
12.731	2.865	1032.934	739.676
13.746	11.132	1044.506	788.033
14.761	17.111	1051.408	822.209
15.775	17.443	1050.637	823.140
16.790	16.618	1048.816	817.655
17.804	15.546	1046.425	810.546
18.819	14.747	1044.424	805.078
19.834	14.354	1043.133	802.120
20.848	13.881	1042.679	799.420
21.863	13.714	1041.601	797.723
22.877	13.473	1040.838	795.906
23.892	13.213	1040.248	794.138
24.907	13.223	1039.265	793.362
25.921	13.164	1038.470	792.405
26.936	13.134	1037.829	791.703
27.950	13.143	1037.922	791.747
28.965	13.272	1036.378	791.116
29.980	13.377	1035.560	790.925
30.994	13.278	1034.763	789.770
32.009	13.369	1033.886	789.465
33.023	13.444	1032.468	788.672
34.038	13.438	1032.275	788.425
35.053	13.381	1031.460	787.463
36.067	13.330	1030.505	786.420
37.082	13.394	1029.776	786.096
38.096	13.407	1028.442	785.074
39.111	13.356	1028.391	784.721
40.126	13.510	1026.847	784.204
41.140	13.235	1026.089	782.255
42.155	13.296	1025.135	781.746
43.169	13.219	1024.269	780.651
44.184	13.200	1022.992	779.519
45.199	13.200	1022.216	778.862
46.213	13.325	1020.867	778.352
47.228	13.092	1020.389	776.824
48.242	13.235	1019.151	776.483
49.257	13.307	1018.086	775.941
50.271	13.238	1017.559	775.148
51.286	13.352	1016.184	774.563
52.301	13.291	1015.446	773.646
53.315	13.161	1015.285	772.848
54.330	13.347	1013.897	772.594
55.344	13.331	1012.900	771.690
56.359	13.202	1011.878	770.241
57.374	13.262	1011.236	769.964
58.388	13.326	1010.362	769.530
59.403	13.332	1009.627	768.930
60.417	13.403	1008.590	768.403
61.432	13.220	1008.168	767.164
62.447	13.160	1008.025	766.709
63.461	13.165	1006.725	765.672
64.476	13.212	1005.670	765.020
65.490	13.147	1004.973	764.121
66.505	13.054	1004.455	763.230
67.520	13.046	1003.531	762.426
68.534	13.216	1002.985	762.724
69.549	13.126	1002.220	761.664
70.563	13.126	1001.398	760.969
71.578	13.138	1001.028	760.679
72.593	13.094	1000.042	759.659
73.607	13.084	999.192	758.898
74.622	13.057	998.048	757.840
75.636	13.068	997.457	757.376
76.651	13.055	996.813	756.760
77.666	13.050	995.701	755.826
78.680	13.034	995.611	755.616
79.695	13.010	995.085	755.039
80.709	13.066	993.938	754.358
81.724	13.093	993.186	753.846
82.739	13.187	992.289	753.527
83.753	13.126	991.585	752.647
84.768	13.298	990.693	752.686
85.782	13.214	990.429	752.036
86.797	13.333	989.525	751.824
87.812	13.324	989.028	751.338
88.826	13.168	988.087	749.852
89.841	13.344	986.610	749.461
90.855	13.324	986.555	749.263
91.870	13.330	985.721	748.589
92.884	13.357	984.746	747.906
93.899	13.282	984.430	747.259
94.914	13.368	983.374	746.782
95.928	13.381	982.955	746.456
96.943	13.421	981.982	745.830
97.957	13.420	981.201	745.166
98.972	13.395	980.499	744.455
99.987	13.344	979.414	743.335
101.001	13.369	978.999	743.068
102.016	13.307	978.138	742.071
103.030	13.385	977.105	741.568
104.045	13.361	976.140	740.664
105.060	13.459	975.214	740.333
106.074	13.408	974.267	739.324
107.089	13.342	973.245	738.187
108.103	13.301	972.826	737.622
109.118	13.220	971.701	736.341
110.133	13.228	970.743	735.588
111.147	13.285	969.762	735.031
112.162	13.197	969.475	734.358
113.176	13.229	968.278	733.528
114.191	13.270	967.187	732.819
115.206	13.357	966.367	732.518
116.220	13.256	965.521	731.366
117.235	13.242	965.156	730.960
118.249	13.283	964.199	730.352
119.264	13.192	962.958	728.946
120.279	13.197	962.401	728.484
121.293	13.252	961.357	727.869
122.308	13.292	960.699	727.486
123.322	13.277	959.945	726.781
124.337	13.095	959.631	725.680
125.352	13.242	957.681	724.786
126.366	13.205	956.873	723.949
127.381	13.199	955.995	723.196
128.395	13.171	955.171	722.385
129.410	13.197	954.034	721.575
130.424	13.240	953.117	721.005
131.439	13.242	952.283	720.320
132.454	13.314	951.636	720.079
133.468	13.272	950.622	719.067
134.483	13.342	950.044	718.869
135.497	13.298	949.540	718.234
136.512	13.338	948.700	717.707
137.527	13.205	947.965	716.513
138.541	13.265	946.809	715.832
139.556	13.320	946.516	715.787
140.570	13.215	945.817	714.740
141.585	13.437	944.974	715.002
142.600	13.463	943.910	714.244
143.614	13.517	943.460	714.071
144.629	13.493	942.660	713.301
145.643	13.528	942.464	713.239
146.658	13.446	941.319	711.958
147.673	13.463	940.154	711.085
148.687	13.368	939.354	710.010
149.702	13.229	938.544	708.741
150.716	13.513	937.565	709.155
151.731	13.442	936.721	708.150
152.746	13.380	936.155	707.394
153.760	13.358	935.665	706.869
154.775	13.380	934.696	706.168
155.789	13.481	934.230	706.185
156.804	13.506	933.247	705.486
157.819	13.619	931.786	704.797
158.833	13.502	931.956	704.365
159.848	13.626	930.866	704.005
160.862	13.616	930.054	703.289
161.877	13.526	929.540	702.456
162.892	13.452	928.964	701.645
163.906	13.465	927.991	700.902
164.921	13.373	927.255	699.897
165.935	13.312	926.111	698.713
166.950	13.546	925.047	698.835
167.964	13.505	924.560	698.232
168.979	13.541	923.284	697.360
169.994	13.602	922.154	696.698
171.008	13.523	921.477	695.794
172.023	13.515	920.666	695.087
173.037	13.726	919.879	695.316
174.052	13.720	919.227	694.738
175.067	13.638	918.878	694.066
176.081	13.585	917.742	692.926
177.096	13.503	917.304	692.191
178.110	13.646	916.330	691.994
179.125	13.577	915.628	691.114
180.140	13.592	914.688	690.407
181.154	13.581	914.029	689.802
182.169	13.658	913.510	689.669
183.183	13.634	913.486	689.488
184.198	13.809	911.818	688.895
185.213	13.685	911.318	687.943
186.227	13.733	910.905	687.770
187.242	13.768	910.191	687.315
188.256	13.802	909.577	686.931
189.271	13.793	908.686	686.161
190.286	13.937	907.674	685.933
191.300	13.807	907.044	684.858
192.315	13.773	906.257	684.061
193.329	13.689	905.700	683.234
194.344	13.712	904.812	682.598
195.359	13.732	904.566	682.435
196.373	13.656	904.343	681.892
197.388	13.860	903.441	681.991
198.402	13.848	903.267	681.752
199.417	13.970	902.718	681.777
200.432	13.918	902.252	681.153
201.446	13.981	901.744	680.966
202.461	14.100	901.373	681.113
203.475	14.174	900.335	680.572
204.490	14.136	900.087	680.169
205.504	13.941	899.278	678.699
206.519	13.997	898.415	678.219
207.534	14.064	897.433	677.687
208.548	14.051	896.484	676.858
209.563	14.098	895.807	676.481
210.577	13.992	895.792	675.977
211.592	13.987	894.891	675.217
212.607	14.034	894.486	675.043
213.621	14.145	893.928	675.013
214.636	14.202	893.059	674.527
215.650	14.125	892.290	673.576
216.665	14.187	891.962	673.520
217.680	14.198	891.344	673.036
218.694	14.285	890.966	673.043
219.709	14.198	890.611	672.365
220.723	14.304	889.683	672.031
221.738	14.286	888.998	671.384
222.753	14.259	888.458	670.807
223.767	14.283	887.744	670.305
224.782	14.252	887.313	669.794
225.796	14.388	886.284	669.508
226.811	14.417	885.430	668.918
227.826	14.326	884.880	668.080
228.840	14.286	884.302	667.423
229.855	14.338	883.472	666.946
230.869	14.342	883.102	666.623
231.884	14.398	882.456	666.299
232.899	14.359	881.431	665.310
233.913	14.398	880.714	664.868
234.928	14.446	880.480	664.824
235.942	14.443	879.574	664.068
236.957	14.345	878.871	663.089
237.972	14.285	878.271	662.338
238.986	14.540	877.436	662.665
240.001	14.387	876.953	661.634
241.015	14.418	876.279	661.190
242.030	14.407	875.552	660.539
243.045	14.570	874.821	660.572
244.059	14.441	874.507	659.766
245.074	14.596	873.429	659.509
246.088	14.524	873.204	658.995
247.103	14.473	872.580	658.264
248.117	14.641	871.999	658.431
249.132	14.587	871.496	657.778
250.147	14.713	870.512	657.474
251.161	14.655	870.311	657.037
252.176	14.782	869.470	656.842
253.190	14.782	868.600	656.129
254.205	14.884	868.248	656.205
255.220	14.835	867.866	655.664
256.234	14.832	867.115	655.026
257.249	14.845	866.603	654.634
258.263	14.903	865.964	654.322
259.278	14.815	865.431	653.515
260.293	14.872	864.858	653.250
261.307	14.989	864.192	653.146
262.322	15.021	863.751	652.878
263.336	14.943	863.039	651.978
264.351	14.934	862.516	651.490
265.366	15.047	861.639	651.210
266.380	15.061	861.426	651.047
267.395	15.162	860.541	650.712
268.409	15.051	859.870	649.715
269.424	15.006	859.221	648.993
270.439	15.045	858.730	648.718
271.453	15.008	858.166	648.090
272.468	15.088	857.063	647.509
273.482	15.093	856.348	646.929
274.497	15.150	855.896	646.752
275.512	15.145	855.107	646.080
276.526	15.025	854.606	645.181
277.541	15.004	853.862	644.480
278.555	15.067	853.650	644.507
279.570	15.104	852.534	643.748
280.585	15.221	852.129	643.837
281.599	15.073	852.139	643.218
282.614	15.207	850.977	642.799
283.628	15.237	850.413	642.432
284.643	15.152	850.057	641.778
285.657	15.343	849.127	641.752
286.672	15.331	848.919	641.491
287.687	15.320	848.210	640.856
288.701	15.342	847.726	640.519
289.716	15.350	847.470	640.297
290.730	15.360	846.367	639.446
291.745	15.264	845.899	638.670
292.760	15.354	845.479	638.640
293.774	15.299	844.824	637.880
294.789	15.386	844.340	637.790
295.803	15.401	843.593	637.223
296.818	15.415	842.669	636.525
297.833	15.551	842.148	636.589
298.847	15.465	841.728	635.889
299.862	15.427	840.742	634.946
300.876	15.430	840.117	634.426
301.891	15.514	839.588	634.288
302.906	15.550	838.830	633.795
303.920	15.620	838.317	633.616
304.935	15.497	837.669	632.608
305.949	15.649	837.077	632.677
306.964	15.756	836.594	632.658
307.979	15.610	836.082	631.665
308.993	15.668	835.666	631.513
310.008	15.656	834.857	630.801
311.022	15.714	834.243	630.500
312.037	15.716	834.030	630.291
313.052	15.666	833.440	629.603
314.066	15.836	832.665	629.595
315.081	15.784	832.346	629.105
316.095	15.634	831.493	627.845
317.110	15.617	831.279	627.563
318.125	15.652	830.497	627.047
319.139	15.600	830.248	626.610
320.154	15.782	829.596	626.743
321.168	15.804	829.069	626.368
322.183	15.724	828.602	625.663
323.197	15.842	828.307	625.824
324.212	15.837	827.383	625.052
325.227	15.790	826.974	624.512
326.241	15.720	826.438	623.792
327.256	15.885	825.784	623.855
328.270	15.821	825.223	623.140
329.285	15.752	824.759	622.479
330.300	15.860	824.160	622.371
331.314	15.787	823.347	621.432
332.329	15.849	822.758	621.163
333.343	15.975	822.300	621.226
334.358	15.953	821.700	620.636
335.373	15.938	821.286	620.213
336.387	16.038	820.455	619.901
337.402	16.121	820.222	619.973
338.416	16.116	819.742	619.537
339.431	16.042	819.054	618.692
340.446	16.141	818.338	618.458
341.460	16.169	817.710	618.033
342.475	16.040	817.680	617.482
343.489	16.175	816.891	617.325
344.504	16.132	816.443	616.776
345.519	16.274	815.853	616.794
346.533	16.233	815.213	616.105
347.548	16.287	814.502	615.711
348.562	16.276	813.897	615.159
349.577	16.176	814.295	615.040
350.592	16.206	813.287	614.334
351.606	16.282	812.642	614.069
352.621	16.163	812.336	613.349
353.635	16.277	811.553	613.119
354.650	16.314	811.384	613.073
355.665	16.275	810.942	612.542
356.679	16.338	810.628	612.480
357.694	16.248	809.988	611.614
358.708	16.260	809.377	611.142
359.723	16.377	808.530	610.872
360.738	16.427	808.358	610.870
361.752	16.390	807.870	610.312
362.767	16.451	807.322	610.067
363.781	16.415	807.267	609.838
364.796	16.415	806.915	609.518
365.810	16.568	806.418	609.642
366.825	16.673	805.784	609.485
367.840	16.600	805.565	609.003
368.854	16.607	805.083	608.613
369.869	16.629	804.612	608.280
370.883	16.525	803.940	607.346
371.898	16.568	803.421	607.055
372.913	16.773	803.058	607.462
373.927	16.612	802.364	606.306
374.942	16.692	801.505	605.891
375.956	16.596	801.434	605.437
376.971	16.778	800.624	605.423
377.986	16.731	800.014	604.739
379.000	16.852	799.424	604.672
380.015	16.843	799.213	604.426
381.029	16.826	798.479	603.758
382.044	16.829	797.856	603.244
383.059	17.028	797.171	603.379
384.073	16.833	796.668	602.255
385.088	16.801	796.247	601.770
386.102	16.773	796.227	601.601
387.117	16.753	795.688	601.070
388.132	16.691	794.907	600.208
389.146	16.856	794.455	600.395
390.161	16.836	794.354	600.198
391.175	17.003	793.551	600.129
392.190	17.016	793.325	599.950
393.205	16.845	793.036	599.074
394.219	16.946	792.586	599.037
395.234	16.979	792.199	598.808
396.248	16.794	791.661	597.695
397.263	16.823	791.056	597.288
398.278	16.761	790.730	596.771
399.292	16.922	790.055	596.775
400.307	16.761	790.007	596.120
401.321	16.889	789.543	596.167
402.336	16.964	788.739	595.769
403.350	16.904	788.773	595.533
404.365	17.033	788.254	595.539
405.380	17.093	787.717	595.291
406.394	17.027	787.267	594.668
407.409	17.097	787.113	594.745
408.423	17.051	786.596	594.141
409.438	17.120	786.257	594.075
410.453	17.199	785.353	593.613
411.467	17.206	785.239	593.500
412.482	17.228	784.674	593.096
413.496	17.279	784.127	592.809
414.511	17.234	783.769	592.328
415.526	17.198	783.464	591.922
416.540	17.383	783.142	592.270
417.555	17.217	782.774	591.361
418.569	17.469	781.841	591.479
419.584	17.480	781.465	591.181
420.599	17.351	781.298	590.554
421.613	108.849	1288.184	1465.788
422.628	93.176	1362.008	1465.880
