DTS Sentinel unit serial number:	SN413079Multiplexer serial number:	ORYXHardware model number:	OX4-SRSoftware version number:	ORYX F/W v4.00 Oryx Data Collector v3.7.2.0data status	okinstallation	princeton_trtdifferential loss correction	single-endedforward channel	channel 3reverse channel	N/Adate	2019/09/12time	07:54:11forward acquisition time	60.00reverse acquisition time	0.00gamma	496.2192k internal	0.2314k external	0.2314temperature offset calibration	1.0032default loss term (dB/km)	0.3790temperature slope calibration	1.0000multiplexer offset coefficient	1.0000multiplexer slope coefficient	1.0000fibre end	0.00T internal ref (°C)	32.94T ext. ref 1 (°C)	1.64T ext. ref 2 (°C)	29.12length (m)	temperature (°C)	Stokes	anti-Stokes-747.200	-200.000	0.016	-0.331
-746.185	-123.371	0.202	-0.033
-745.171	-129.203	-0.304	0.043
-744.156	301.297	0.073	-0.137
-743.142	800.000	0.047	-0.166
-742.127	-8.096	-0.227	0.155
-741.112	71.943	0.082	-0.087
-740.098	274.723	-0.132	-0.236
-739.083	-116.044	-0.184	0.035
-738.069	567.254	-0.124	0.306
-737.054	-200.000	-0.027	0.250
-736.039	-135.992	-0.227	0.027
-735.025	-200.000	0.014	0.099
-734.010	797.942	-0.066	0.185
-732.996	107.498	-0.099	-0.119
-731.981	-123.547	0.286	-0.046
-730.966	126.848	0.111	-0.142
-729.952	-34.085	-0.148	-0.082
-728.937	-200.000	0.014	0.143
-727.923	425.797	-0.092	-0.201
-726.908	-200.000	0.030	0.173
-725.894	342.402	0.050	-0.099
-724.879	-164.265	-0.305	0.014
-723.864	201.199	0.180	-0.281
-722.850	-50.241	-0.107	-0.051
-721.835	27.339	0.141	-0.120
-720.821	-190.529	-0.196	-0.002
-719.806	36.460	0.093	0.083
-718.791	-26.120	-0.131	-0.078
-717.777	-123.944	-0.376	0.060
-716.762	-43.949	0.296	-0.151
-715.748	-200.000	-0.007	-0.230
-714.733	-56.952	0.325	-0.145
-713.718	-200.000	0.006	0.160
-712.704	62.296	-0.105	-0.106
-711.689	99.552	-0.218	0.255
-710.675	800.000	0.070	-0.305
-709.660	-137.948	0.308	0.035
-708.645	-200.000	0.020	0.184
-707.631	18.653	0.497	-0.403
-706.616	-144.110	-0.203	-0.019
-705.602	2.132	0.120	0.088
-704.587	-62.130	0.273	0.115
-703.572	-200.000	-0.008	0.197
-702.558	33.656	0.238	0.209
-701.543	-103.657	-0.105	-0.025
-700.529	96.699	0.184	0.213
-699.514	-200.000	-0.013	-0.123
-698.499	148.509	-0.171	-0.234
-697.485	-150.144	-0.425	0.033
-696.470	569.382	-0.036	-0.089
-695.456	-200.000	-0.006	0.081
-694.441	-118.592	-0.113	0.020
-693.426	-200.000	-0.046	-0.384
-692.412	-114.102	-0.230	-0.045
-691.397	-96.759	0.205	0.055
-690.383	-13.824	0.231	0.151
-689.368	110.297	-0.128	-0.155
-688.354	-200.000	0.020	-0.383
-687.339	-70.504	-0.107	-0.041
-686.324	-40.736	0.224	-0.118
-685.310	97.102	0.043	-0.050
-684.295	110.161	-0.109	0.133
-683.281	-200.000	-0.013	0.185
-682.266	-126.870	-0.485	0.072
-681.251	-74.114	-0.253	-0.093
-680.237	585.127	0.066	-0.164
-679.222	-106.969	0.272	-0.061
-678.208	-89.151	-0.371	-0.111
-677.193	-200.000	-0.033	0.183
-676.178	175.200	0.225	-0.329
-675.164	639.929	0.026	-0.068
-674.149	513.079	0.136	-0.321
-673.135	-200.000	-0.033	-0.363
-672.120	-200.000	0.012	0.139
-671.105	-181.890	-0.272	-0.005
-670.091	68.776	-0.235	0.244
-669.076	-94.764	-0.066	-0.018
-668.062	32.064	-0.065	-0.057
-667.047	-200.000	0.002	-0.124
-666.032	800.000	0.047	0.165
-665.018	196.857	0.197	-0.304
-664.003	800.000	-0.025	0.106
-662.989	800.000	0.022	0.095
-661.974	800.000	-0.083	0.254
-660.959	-45.533	-0.240	0.120
-659.945	-84.036	0.072	-0.023
-658.930	-86.908	0.006	-0.002
-657.916	-42.072	-0.463	0.240
-656.901	14.535	0.248	-0.196
-655.886	168.641	-0.115	0.166
-654.872	-62.479	-0.340	-0.143
-653.857	-17.969	-0.236	-0.149
-652.843	-93.095	-0.113	-0.032
-651.828	-71.954	0.229	0.086
-650.814	63.911	-0.158	-0.161
-649.799	-200.000	0.008	0.092
-648.784	-47.418	-0.046	0.023
-647.770	-4.531	0.013	-0.009
-646.755	-162.610	-0.120	-0.006
-645.741	68.268	0.054	0.055
-644.726	-68.935	-0.206	0.080
-643.711	-200.000	-0.080	-0.375
-642.697	48.297	0.232	-0.219
-641.682	40.958	0.045	-0.041
-640.668	-87.504	-0.312	0.095
-639.653	98.756	0.085	0.099
-638.638	-64.487	-0.113	0.046
-637.624	-97.284	-0.123	-0.032
-636.609	-97.469	-0.209	-0.055
-635.595	-200.000	0.013	-0.123
-634.580	-120.528	-0.273	-0.047
-633.565	-95.537	-0.257	-0.070
-632.551	-99.918	-0.437	-0.110
-631.536	-200.000	-0.014	0.081
-630.522	10.760	0.117	0.090
-629.507	-94.642	-0.412	-0.113
-628.492	-200.000	-0.059	0.284
-627.478	-200.000	0.007	0.064
-626.463	-23.932	-0.102	-0.062
-625.449	143.212	-0.060	0.081
-624.434	-104.670	-0.114	-0.026
-623.419	-5.186	0.207	-0.144
-622.405	-14.149	0.066	0.043
-621.390	-28.173	0.241	0.140
-620.376	139.398	0.191	-0.253
-619.361	504.610	-0.098	-0.228
-618.346	-146.947	0.184	-0.016
-617.332	-200.000	0.009	-0.095
-616.317	-75.881	-0.399	-0.143
-615.303	-200.000	-0.011	-0.148
-614.288	169.374	-0.176	-0.253
-613.273	-200.000	-0.036	-0.167
-612.259	61.418	0.062	-0.062
-611.244	800.000	0.062	-0.178
-610.230	126.859	0.065	0.083
-609.215	745.129	0.124	-0.336
-608.201	-200.000	-0.098	-0.495
-607.186	179.040	0.050	0.074
-606.171	43.297	-0.081	0.075
-605.157	-37.135	-0.127	-0.069
-604.142	800.000	0.120	0.405
-603.128	170.607	0.121	0.174
-602.113	-50.969	-0.160	-0.076
-601.098	30.318	0.111	0.095
-600.084	-168.092	0.203	0.008
-599.069	800.000	0.114	-0.321
-598.055	-95.961	0.166	0.045
-597.040	155.142	-0.094	0.131
-596.025	800.000	0.012	-0.040
-595.011	-153.161	-0.228	-0.016
-593.996	-85.156	0.277	-0.087
-592.982	-200.000	0.034	-0.200
-591.967	-160.109	0.155	-0.009
-590.952	-84.505	-0.228	0.073
-589.938	-115.498	0.151	-0.029
-588.923	-52.615	-0.212	-0.099
-587.909	-193.448	0.267	0.002
-586.894	339.203	-0.049	0.096
-585.879	27.492	0.228	0.193
-584.865	113.885	0.134	-0.164
-583.850	-64.979	0.068	0.028
-582.836	80.377	-0.119	-0.129
-581.821	-80.235	0.357	0.120
-580.806	341.337	-0.086	-0.169
-579.792	328.450	-0.071	-0.138
-578.777	6.136	0.046	0.034
-577.763	-1.455	-0.171	0.121
-576.748	800.000	-0.031	-0.106
-575.733	-80.730	-0.242	-0.081
-574.719	70.826	0.168	0.175
-573.704	-12.795	-0.331	-0.217
-572.690	181.079	-0.038	0.057
-571.675	-200.000	0.008	-0.044
-570.661	-74.581	0.368	-0.133
-569.646	180.180	-0.057	-0.084
-568.631	71.213	-0.052	-0.055
-567.617	-117.245	-0.072	0.013
-566.602	318.492	0.058	0.112
-565.588	-33.637	0.344	0.191
-564.573	-75.591	0.280	0.100
-563.558	-86.197	-0.330	0.103
-562.544	150.166	0.237	-0.323
-561.529	4.136	0.168	-0.124
-560.515	313.301	-0.197	0.373
-559.500	95.614	0.230	0.264
-558.485	-200.000	-0.107	0.472
-557.471	-54.698	0.261	-0.119
-556.456	729.906	-0.174	-0.467
-555.442	401.913	0.027	-0.058
-554.427	800.000	0.108	0.320
-553.412	800.000	0.084	0.334
-552.398	-79.723	-0.108	-0.037
-551.383	50.544	0.180	0.171
-550.369	-35.123	0.028	0.015
-549.354	-151.548	0.183	0.014
-548.339	118.073	0.207	-0.257
-547.325	800.000	0.066	0.246
-546.310	-28.670	0.151	0.088
-545.296	800.000	-0.046	-0.193
-544.281	-200.000	0.025	-0.129
-543.266	-5.900	-0.083	-0.057
-542.252	-47.688	-0.264	-0.129
-541.237	-1.061	0.013	0.009
-540.223	800.000	0.050	0.196
-539.208	-84.029	-0.064	0.020
-538.193	-168.465	0.221	-0.009
-537.179	-99.944	0.359	0.090
-536.164	266.868	0.064	-0.113
-535.150	216.018	0.058	-0.093
-534.135	286.460	-0.190	0.346
-533.121	-74.373	0.331	0.120
-532.106	106.366	-0.206	-0.245
-531.091	-172.647	0.086	-0.003
-530.077	800.000	-0.133	-0.467
-529.062	85.372	-0.099	-0.110
-528.048	3.408	0.268	0.196
-527.033	-158.147	0.405	0.024
-526.018	325.718	0.084	0.162
-525.004	-156.733	0.305	0.019
-523.989	173.330	-0.127	-0.184
-522.975	47.633	0.103	0.097
-521.960	159.753	0.147	0.205
-520.945	-55.819	0.114	-0.051
-519.931	-77.711	-0.069	0.024
-518.916	40.253	0.200	0.181
-517.902	220.859	-0.205	-0.330
-516.887	800.000	-0.055	-0.182
-515.872	-200.000	0.002	-0.204
-514.858	42.893	-0.070	-0.064
-513.843	-200.000	0.006	-0.185
-512.829	56.697	0.211	0.207
-511.814	166.477	0.174	0.247
-510.799	553.650	-0.093	-0.226
-509.785	66.889	0.118	-0.121
-508.770	132.638	-0.281	-0.364
-507.756	253.463	-0.182	-0.312
-506.741	63.615	0.222	0.224
-505.726	-190.683	-0.089	-0.001
-504.712	73.051	-0.079	-0.083
-503.697	800.000	0.049	0.147
-502.683	229.328	-0.031	0.051
-501.668	-200.000	-0.034	0.410
-500.653	-146.225	0.163	0.014
-499.639	-200.000	-0.001	0.153
-498.624	-139.572	-0.151	-0.016
-497.610	-47.038	-0.248	-0.122
-496.595	-7.634	-0.230	0.156
-495.581	-7.119	-0.131	-0.089
-494.566	800.000	-0.055	-0.227
-493.551	569.792	0.040	0.098
-492.537	-38.453	-0.191	-0.101
-491.522	278.486	0.063	-0.113
-490.508	65.368	-0.119	-0.121
-489.493	47.172	-0.127	-0.119
-488.478	137.625	-0.124	-0.164
-487.464	61.833	-0.155	0.155
-486.449	-61.784	-0.221	0.093
-485.435	800.000	0.078	-0.330
-484.420	186.042	-0.038	-0.057
-483.405	-95.632	-0.195	-0.052
-482.391	-120.209	-0.298	0.051
-481.376	-200.000	0.004	0.021
-480.362	-72.728	-0.357	0.132
-479.347	-91.033	0.282	-0.081
-478.332	240.598	-0.072	0.121
-477.318	-112.801	0.139	0.028
-476.303	-120.718	0.182	0.031
-475.289	221.738	0.135	-0.218
-474.274	-200.000	-0.003	0.162
-473.259	800.000	0.121	0.428
-472.245	-200.000	-0.038	-0.270
-471.230	285.327	-0.133	0.240
-470.216	-200.000	0.003	0.248
-469.201	800.000	0.034	0.105
-468.186	800.000	0.054	-0.202
-467.172	-46.282	0.173	0.085
-466.157	-200.000	0.005	-0.404
-465.143	270.542	-0.154	-0.272
-464.128	-128.640	-0.034	-0.005
-463.113	234.595	-0.060	-0.099
-462.099	800.000	-0.010	0.029
-461.084	433.495	-0.154	0.334
-460.070	-22.974	-0.127	0.077
-459.055	625.560	0.091	0.229
-458.040	-48.823	-0.261	-0.126
-457.026	-200.000	-0.006	0.052
-456.011	-65.939	-0.202	0.081
-454.997	209.008	0.025	0.040
-453.982	649.224	0.147	0.376
-452.968	-33.691	0.160	0.088
-451.953	800.000	-0.118	-0.346
-450.938	65.435	-0.259	0.263
-449.924	555.061	0.052	-0.124
-448.909	-68.699	0.351	0.136
-447.895	-200.000	-0.002	-0.044
-446.880	-118.560	-0.194	-0.034
-445.865	80.027	0.103	0.111
-444.851	56.279	-0.193	-0.188
-443.836	26.884	-0.344	0.289
-442.822	-77.908	-0.134	-0.046
-441.807	258.868	-0.076	0.131
-440.792	111.490	0.076	0.092
-439.778	-84.456	0.438	-0.139
-438.763	7.213	0.260	0.195
-437.749	-128.733	-0.244	0.035
-436.734	800.000	0.018	-0.074
-435.719	7.891	-0.010	0.007
-434.705	104.948	0.163	0.193
-433.690	-200.000	0.009	0.123
-432.676	192.712	-0.013	-0.020
-431.661	-100.910	0.354	0.087
-430.646	-200.000	0.028	0.428
-429.632	800.000	-0.053	-0.169
-428.617	-33.745	-0.211	-0.116
-427.603	800.000	0.149	0.505
-426.588	17.976	0.247	-0.197
-425.573	99.383	0.134	-0.155
-424.559	-200.000	-0.067	0.413
-423.544	255.067	0.100	0.171
-422.530	-97.751	-0.169	0.044
-421.515	-200.000	0.028	0.132
-420.500	51.592	-0.078	-0.074
-419.486	-200.000	0.004	0.026
-418.471	172.453	0.185	0.267
-417.457	512.316	-0.087	0.203
-416.442	-103.328	0.039	0.009
-415.428	551.317	-0.096	-0.231
-414.413	-44.799	0.085	0.043
-413.398	-200.000	-0.031	0.219
-412.384	51.203	0.099	-0.094
-411.369	-176.774	0.290	0.007
-410.355	-190.752	0.301	0.003
-409.340	132.468	-0.183	0.236
-408.325	-15.109	-0.053	0.034
-407.311	-112.136	0.250	-0.050
-406.296	476.554	0.072	-0.163
-405.282	281.365	0.047	0.085
-404.267	800.000	0.086	0.370
-403.252	78.072	-0.177	0.188
-402.238	-141.923	0.175	0.017
-401.223	-42.087	-0.180	0.092
-400.209	215.289	0.167	-0.265
-399.194	-126.779	0.270	0.040
-398.179	-153.588	0.251	0.017
-397.165	-32.349	0.408	0.227
-396.150	800.000	-0.033	0.111
-395.136	172.647	0.165	0.237
-394.121	20.037	-0.292	-0.235
-393.106	107.681	-0.121	-0.144
-392.092	5.010	-0.211	-0.155
-391.077	107.424	0.102	0.121
-390.063	57.106	-0.251	0.245
-389.048	56.731	0.053	0.051
-388.033	19.260	-0.206	0.166
-387.019	568.551	0.110	-0.268
-386.004	-200.000	-0.008	0.208
-384.990	264.032	-0.145	-0.252
-383.975	-169.663	0.076	0.003
-382.960	-181.912	0.068	0.001
-381.946	266.122	-0.139	0.243
-380.931	800.000	-0.107	-0.432
-379.917	-18.251	0.198	0.124
-378.902	178.490	-0.219	0.319
-377.888	667.556	-0.105	-0.271
-376.873	-79.276	-0.188	0.064
-375.858	471.616	-0.033	-0.075
-374.844	-200.000	0.002	0.048
-373.829	229.951	0.039	-0.063
-372.815	-113.774	-0.363	-0.071
-371.800	459.192	0.172	-0.381
-370.785	96.978	-0.146	-0.168
-369.771	-165.498	0.383	0.017
-368.756	-200.000	0.053	0.536
-367.742	-29.374	0.209	0.120
-366.727	800.000	0.084	-0.346
-365.712	212.705	-0.193	0.304
-364.698	-200.000	0.014	0.105
-363.683	778.904	0.106	-0.289
-362.669	-200.000	-0.008	-0.361
-361.654	2.635	0.229	0.166
-360.639	-57.358	-0.083	-0.036
-359.625	9.653	-0.282	-0.213
-358.610	-132.738	0.188	0.024
-357.596	-159.341	0.317	0.018
-356.581	-134.048	0.172	-0.021
-355.566	-200.000	0.032	-0.158
-354.552	614.408	0.054	-0.136
-353.537	82.022	-0.224	-0.242
-352.523	-200.000	-0.058	-0.282
-351.508	-48.997	0.105	0.050
-350.493	190.263	-0.108	0.162
-349.479	387.015	0.168	-0.347
-348.464	32.536	0.202	0.174
-347.450	-110.443	-0.054	0.011
-346.435	800.000	-0.073	-0.242
-345.420	-19.320	-0.024	0.015
-344.406	-198.196	0.033	-0.000
-343.391	-200.000	-0.008	-0.252
-342.377	800.000	0.115	-0.339
-341.362	-56.798	-0.031	0.014
-340.348	22.231	-0.218	0.178
-339.333	-58.168	-0.117	-0.051
-338.318	-200.000	-0.042	0.215
-337.304	53.441	-0.098	-0.093
-336.289	800.000	0.062	-0.208
-335.275	283.409	-0.154	-0.276
-334.260	-21.011	-0.142	-0.087
-333.245	111.418	0.012	-0.014
-332.231	-167.371	0.125	0.005
-331.216	-54.229	0.397	0.180
-330.202	22.647	-0.435	0.356
-329.187	-5.715	-0.158	-0.108
-328.172	-200.000	0.015	-0.217
-327.158	-158.410	0.145	-0.008
-326.143	-200.000	-0.000	0.014
-325.129	17.220	0.049	0.039
-324.114	-106.885	-0.187	0.041
-323.099	54.523	-0.313	0.301
-322.085	-200.000	-0.039	0.289
-321.070	-200.000	-0.025	-0.124
-320.056	-147.216	0.180	-0.015
-319.041	12.287	-0.223	-0.171
-318.026	-200.000	0.017	-0.125
-317.012	-200.000	-0.011	0.208
-315.997	-66.896	-0.173	0.068
-314.983	15.885	0.228	0.179
-313.968	-200.000	0.071	-0.364
-312.953	13.221	-0.055	0.042
-311.939	-190.788	0.150	0.002
-310.924	-50.506	0.073	-0.034
-309.910	548.871	-0.121	-0.289
-308.895	85.603	0.208	0.228
-307.880	800.000	-0.099	0.275
-306.866	-12.591	0.158	0.103
-305.851	645.588	0.147	-0.375
-304.837	24.934	-0.282	-0.233
-303.822	143.854	0.184	-0.245
-302.807	800.000	0.072	-0.217
-301.793	481.253	-0.117	-0.265
-300.778	800.000	0.059	0.190
-299.764	725.980	-0.015	-0.039
-298.749	53.346	-0.117	-0.111
-297.735	150.029	0.042	-0.057
-296.720	70.941	-0.044	-0.046
-295.705	-83.201	-0.195	0.062
-294.691	458.885	0.088	0.195
-293.676	57.265	0.316	0.307
-292.662	258.042	0.172	-0.295
-291.647	-118.456	-0.056	0.010
-290.632	14.982	-0.406	-0.316
-289.618	711.278	0.100	-0.265
-288.603	800.000	0.059	-0.205
-287.589	800.000	0.039	0.153
-286.574	-200.000	0.005	0.397
-285.559	30.318	0.110	-0.094
-284.545	299.369	-0.161	0.295
-283.530	-59.957	-0.294	-0.125
-282.516	800.000	-0.079	-0.251
-281.501	-71.496	0.273	-0.102
-280.486	-76.073	0.242	-0.085
-279.472	-200.000	0.006	-0.087
-278.457	-200.000	-0.019	0.143
-277.443	-177.535	-0.407	0.010
-276.428	16.807	-0.072	0.056
-275.413	513.325	0.043	-0.100
-274.399	40.918	-0.066	-0.060
-273.384	28.173	0.272	0.228
-272.370	-200.000	-0.058	0.303
-271.355	-200.000	0.001	-0.311
-270.340	353.735	0.054	0.106
-269.326	-61.110	0.114	-0.048
-268.311	-200.000	-0.004	-0.166
-267.297	76.133	-0.215	0.226
-266.282	-54.086	-0.136	-0.062
-265.267	-113.643	0.091	-0.018
-264.253	297.222	-0.245	0.448
-263.238	-173.202	-0.155	0.005
-262.224	-68.070	0.231	-0.090
-261.209	-161.932	-0.122	-0.006
-260.195	48.235	0.121	0.113
-259.180	311.513	-0.054	-0.102
-258.165	-38.255	0.386	-0.203
-257.151	-102.812	-0.144	-0.034
-256.136	145.817	-0.127	-0.170
-255.122	-200.000	0.074	-0.402
-254.107	-171.251	0.051	-0.002
-253.092	29.835	-0.143	0.121
-252.078	433.021	0.058	-0.126
-251.063	449.466	0.061	-0.133
-250.049	-200.000	-0.046	0.287
-249.034	583.673	0.141	-0.344
-248.019	-38.729	0.114	-0.060
-247.005	61.556	-0.131	-0.130
-245.990	-119.048	-0.304	0.053
-244.976	-82.002	0.159	-0.052
-243.961	-200.000	-0.022	-0.304
-242.946	-200.000	-0.067	-0.343
-241.932	134.132	-0.152	0.196
-240.917	-126.274	-0.338	-0.050
-239.903	-200.000	-0.024	-0.135
-238.888	586.728	0.094	0.231
-237.873	-200.000	0.038	0.242
-236.859	800.000	-0.036	-0.105
-235.844	800.000	-0.031	-0.124
-234.830	800.000	0.142	0.392
-233.815	800.000	0.017	0.061
-232.800	-99.760	-0.289	-0.072
-231.786	-156.343	0.313	-0.020
-230.771	203.285	0.120	0.184
-229.757	667.515	-0.136	-0.350
-228.742	-174.324	-0.105	-0.003
-227.727	800.000	-0.065	0.269
-226.713	-200.000	0.040	0.358
-225.698	-16.290	-0.123	0.078
-224.684	-45.714	-0.314	0.154
-223.669	800.000	-0.087	0.301
-222.655	-163.098	0.264	-0.013
-221.640	-108.889	0.090	-0.019
-220.625	800.000	-0.037	-0.109
-219.611	-200.000	-0.040	0.271
-218.596	22.694	-0.110	-0.090
-217.582	800.000	0.079	0.247
-216.567	-103.674	0.125	-0.029
-215.552	-51.423	0.220	-0.102
-214.538	95.013	0.111	-0.125
-213.523	458.869	0.108	0.239
-212.509	800.000	-0.085	0.325
-211.494	29.482	-0.058	-0.049
-210.479	-200.000	-0.050	0.222
-209.465	-200.000	-0.031	0.306
-208.450	15.277	0.240	-0.187
-207.436	572.869	-0.100	-0.242
-206.421	-200.000	0.049	-0.220
-205.406	-179.640	-0.244	-0.005
-204.392	68.012	-0.131	0.134
-203.377	604.801	-0.075	0.186
-202.363	-189.220	-0.349	0.004
-201.348	78.709	-0.111	0.117
-200.333	71.454	0.106	0.109
-199.319	-113.704	-0.274	-0.053
-198.304	-200.000	-0.000	0.080
-197.290	1.314	0.111	0.079
-196.275	-40.659	0.084	0.043
-195.260	-200.000	-0.021	0.392
-194.246	-95.525	0.197	-0.052
-193.231	-200.000	-0.000	0.027
-192.217	167.790	0.111	0.157
-191.202	-200.000	0.019	-0.289
-190.187	800.000	0.031	0.090
-189.173	-200.000	0.098	-0.503
-188.158	-200.000	-0.010	-0.132
-187.144	71.069	-0.156	-0.160
-186.129	-73.380	-0.155	0.056
-185.114	60.091	0.163	0.160
-184.100	-106.015	-0.206	-0.046
-183.085	121.336	-0.158	0.195
-182.071	-200.000	-0.054	0.252
-181.056	-125.884	0.389	-0.058
-180.042	-119.748	0.073	0.013
-179.027	-0.088	-0.142	0.101
-178.012	-101.560	0.128	-0.031
-176.998	-200.000	-0.004	-0.551
-175.983	-19.531	0.292	0.179
-174.969	-92.835	-0.118	0.033
-173.954	27.181	-0.243	0.202
-172.939	800.000	0.098	0.308
-171.925	-55.816	0.180	0.080
-170.910	97.846	0.104	-0.119
-169.896	468.962	-0.045	0.101
-168.881	30.427	-0.141	0.119
-167.866	-165.694	0.316	-0.014
-166.852	-8.473	-0.084	0.056
-165.837	-124.027	-0.367	-0.057
-164.823	415.139	-0.032	0.067
-163.808	-200.000	0.006	0.131
-162.793	-200.000	-0.012	0.120
-161.779	-47.194	0.216	-0.104
-160.764	-14.081	0.223	0.143
-159.750	-200.000	0.004	-0.223
-158.735	-28.490	-0.252	-0.144
-157.720	-67.523	0.274	0.107
-156.706	-55.619	0.095	0.042
-155.691	-17.734	-0.188	0.117
-154.677	-166.862	-0.071	0.003
-153.662	-56.295	0.181	0.080
-152.647	800.000	-0.070	-0.270
-151.633	78.132	-0.143	0.151
-150.618	-133.915	-0.556	-0.068
-149.604	65.355	0.349	0.350
-148.589	-70.054	0.321	-0.121
-147.574	-200.000	0.046	-0.281
-146.560	69.548	-0.049	-0.050
-145.545	-131.562	-0.313	-0.041
-144.531	10.600	0.228	-0.172
-143.516	-200.000	-0.012	-0.070
-142.502	-158.903	0.225	-0.013
-141.487	165.057	0.216	-0.301
-140.472	66.556	-0.257	0.258
-139.458	43.273	-0.162	-0.146
-138.443	274.024	0.053	0.093
-137.429	126.182	0.131	0.164
-136.414	800.000	0.062	0.169
-135.399	800.000	-0.047	-0.180
-134.385	604.613	0.079	-0.195
-133.370	-182.484	-0.165	-0.003
-132.356	144.679	-0.184	-0.244
-131.341	6.852	0.177	0.130
-130.326	10.671	0.076	0.057
-129.312	-161.842	-0.286	0.014
-128.297	-81.103	-0.066	0.022
-127.283	46.765	0.163	-0.150
-126.268	-16.948	0.137	-0.086
-125.253	354.468	-0.117	-0.230
-124.239	-75.558	-0.304	0.107
-123.224	-174.644	0.310	0.009
-122.210	543.485	0.105	0.247
-121.195	-124.528	0.380	-0.058
-120.180	-105.596	-0.125	0.028
-119.166	-200.000	0.007	0.042
-118.151	-25.333	0.403	0.236
-117.137	338.582	-0.106	0.205
-116.122	496.312	-0.171	0.389
-115.107	-21.587	0.135	0.081
-114.093	-200.000	0.042	0.318
-113.078	144.431	-0.048	0.063
-112.064	572.103	0.087	-0.211
-111.049	370.496	-0.065	0.131
-110.034	-84.141	0.092	0.029
-109.020	-92.052	-0.166	-0.046
-108.005	221.556	-0.174	0.276
-106.991	-200.000	0.015	0.136
-105.976	143.454	0.119	-0.157
-104.962	-200.000	0.004	0.139
-103.947	800.000	0.076	-0.295
-102.932	24.534	0.178	0.146
-101.918	35.569	-0.150	0.130
-100.903	-138.968	-0.206	0.022
-99.889	-19.822	0.163	0.099
-98.874	-126.342	-0.347	-0.051
-97.859	202.130	0.115	-0.176
-96.845	-62.921	0.062	0.025
-95.830	476.633	-0.038	-0.085
-94.816	-29.558	-0.356	-0.201
-93.801	309.049	-0.108	0.200
-92.786	800.000	-0.017	-0.059
-91.772	458.413	0.089	0.195
-90.757	-200.000	-0.027	0.161
-89.743	168.287	-0.107	0.151
-88.728	270.530	-0.099	-0.172
-87.713	497.844	0.083	-0.189
-86.699	-59.787	-0.156	0.066
-85.684	-200.000	-0.021	-0.374
-84.670	-189.499	-0.371	0.004
-83.655	51.459	0.192	0.180
-82.640	-12.003	0.320	0.207
-81.626	117.321	0.049	-0.060
-80.611	141.198	0.191	-0.250
-79.597	-200.000	0.027	0.298
-78.582	-200.000	0.037	0.210
-77.567	17.925	-0.185	-0.146
-76.553	-75.854	-0.448	-0.157
-75.538	245.810	0.144	0.240
-74.524	-200.000	0.025	0.130
-73.509	135.581	-0.219	0.281
-72.494	231.653	0.072	0.117
-71.480	-200.000	0.085	0.426
-70.465	105.813	-0.192	-0.224
-69.451	-200.000	0.015	0.225
-68.436	800.000	0.054	0.191
-67.422	-34.728	-0.068	0.037
-66.407	800.000	0.072	0.245
-65.392	568.290	-0.121	0.289
-64.378	-54.981	-0.147	0.066
-63.363	-15.330	0.328	0.207
-62.349	-168.818	0.360	-0.013
-61.334	50.535	-1.193	-1.114
-60.319	-85.677	0.503	0.154
-59.305	-200.000	-0.054	-0.678
-58.290	341.105	0.497	0.959
-57.276	144.626	1.045	1.377
-56.261	-200.000	97.954	597.403
-55.246	537.023	1411.571	3308.102
-54.232	152.194	2600.732	3501.807
-53.217	110.985	2185.061	2595.914
-52.203	43.282	1721.407	1551.167
-51.188	36.156	1534.541	1333.663
-50.173	33.724	1508.054	1294.032
-49.159	53.781	1557.588	1475.870
-48.144	55.394	1575.672	1504.113
-47.130	36.362	1533.646	1334.101
-46.115	33.122	1519.093	1299.167
-45.100	33.048	1515.351	1295.403
-44.086	33.046	1513.033	1293.361
-43.071	33.012	1511.482	1291.750
-42.057	32.925	1510.663	1290.407
-41.042	32.895	1508.721	1288.486
-40.027	33.036	1507.559	1288.409
-39.013	32.933	1506.095	1286.405
-37.998	32.985	1504.330	1285.198
-36.984	32.985	1503.864	1284.748
-35.969	33.006	1502.373	1283.570
-34.954	32.984	1500.486	1281.755
-33.940	33.013	1499.278	1280.870
-32.925	32.876	1498.367	1279.111
-31.911	32.947	1496.944	1278.329
-30.896	33.056	1495.195	1277.519
-29.881	33.091	1493.668	1276.399
-28.867	32.936	1492.868	1274.623
-27.852	33.037	1491.071	1273.719
-26.838	32.982	1489.927	1272.318
-25.823	33.007	1488.317	1271.062
-24.809	32.946	1486.563	1269.103
-23.794	32.970	1485.050	1267.921
-22.779	32.884	1484.329	1266.676
-21.765	33.000	1482.615	1265.943
-20.750	32.953	1481.769	1264.855
-19.736	32.936	1481.096	1264.119
-18.721	32.890	1480.008	1262.830
-17.706	32.887	1478.850	1261.770
-16.692	32.953	1477.425	1260.944
-15.677	32.990	1476.565	1260.408
-14.663	32.971	1475.004	1258.901
-13.648	32.888	1474.975	1258.273
-12.633	32.906	1473.972	1257.484
-11.619	32.844	1473.169	1256.342
-10.604	32.916	1471.601	1255.429
-9.590	32.924	1471.212	1255.102
-8.575	32.812	1470.687	1253.863
-7.560	32.884	1469.749	1253.491
-6.546	32.844	1469.108	1252.628
-5.531	32.862	1467.581	1251.396
-4.517	32.950	1467.025	1251.455
-3.502	32.857	1465.964	1249.884
-2.487	32.872	1464.784	1248.927
-1.473	32.884	1463.398	1247.774
-0.458	32.867	1462.027	1246.444
0.556	32.876	1452.618	1236.393
1.571	30.235	1427.654	1198.011
2.586	27.085	1369.992	1129.961
3.600	25.505	1290.265	1054.845
4.615	24.057	1243.385	1008.234
5.629	20.270	1184.503	939.931
6.644	10.175	1097.037	819.546
7.659	2.817	1054.885	752.035
8.673	1.914	1049.478	743.712
9.688	1.753	1046.353	740.647
10.702	1.530	1045.038	738.566
11.717	1.355	1043.154	736.321
12.731	4.634	1046.369	754.455
13.746	14.521	1060.687	813.133
14.761	22.686	1071.239	861.186
15.775	24.648	1073.718	872.696
16.790	25.016	1073.364	874.126
17.804	24.858	1072.599	872.657
18.819	24.747	1071.810	871.396
19.834	24.843	1071.315	871.385
20.848	24.837	1070.443	870.568
21.863	25.055	1070.234	871.379
22.877	25.159	1069.715	871.387
23.892	25.023	1069.143	870.184
24.907	24.974	1067.961	868.904
25.921	24.877	1067.454	867.945
26.936	24.916	1066.908	867.616
27.950	24.976	1065.857	866.974
28.965	24.924	1064.549	865.581
29.980	24.840	1062.770	863.651
30.994	24.847	1061.601	862.658
32.009	24.926	1061.071	862.534
33.023	25.081	1060.536	862.767
34.038	24.968	1059.507	861.314
35.053	24.858	1058.749	860.091
36.067	25.062	1057.823	860.242
37.082	24.913	1057.578	859.250
38.096	25.029	1056.654	858.980
39.111	25.196	1055.654	858.894
40.126	25.284	1055.000	858.706
41.140	25.206	1053.685	857.184
42.155	24.992	1052.368	855.020
43.169	24.533	1051.285	851.875
44.184	24.553	1050.435	851.202
45.199	24.686	1049.248	850.801
46.213	24.543	1048.529	849.460
47.228	24.430	1048.175	848.564
48.242	24.790	1046.695	849.000
49.257	24.786	1046.368	848.637
50.271	24.838	1045.822	848.369
51.286	25.088	1044.629	848.509
52.301	25.149	1044.059	848.257
53.315	25.122	1043.239	847.391
54.330	24.867	1042.839	845.784
55.344	24.865	1041.745	844.814
56.359	24.952	1040.899	844.463
57.374	24.806	1040.305	843.220
58.388	24.845	1038.942	842.224
59.403	24.664	1038.441	840.889
60.417	24.688	1038.040	840.604
61.432	24.559	1036.936	839.029
62.447	24.506	1036.575	838.413
63.461	24.759	1035.891	838.976
64.476	24.864	1035.004	838.674
65.490	24.645	1034.304	837.005
66.505	24.565	1033.498	835.906
67.520	24.534	1032.719	835.059
68.534	24.754	1031.668	835.162
69.549	24.705	1030.531	833.939
70.563	24.260	1029.710	831.125
71.578	24.166	1028.976	830.022
72.593	24.251	1027.954	829.519
73.607	24.017	1027.012	827.596
74.622	24.072	1025.821	826.821
75.636	24.512	1025.139	828.238
76.651	24.566	1024.477	827.883
77.666	24.437	1023.750	826.623
78.680	24.417	1022.933	825.797
79.695	24.280	1022.536	824.769
80.709	24.470	1021.618	824.836
81.724	24.636	1021.303	825.275
82.739	24.695	1019.955	824.386
83.753	24.546	1019.271	823.073
84.768	24.714	1019.004	823.556
85.782	25.181	1018.362	825.112
86.797	25.452	1017.489	825.580
87.812	25.312	1016.646	824.180
88.826	25.174	1015.745	822.743
89.841	25.072	1015.259	821.808
90.855	25.203	1014.791	821.959
91.870	25.243	1013.802	821.265
92.884	25.369	1012.638	820.829
93.899	25.069	1011.745	818.661
94.914	25.035	1010.709	817.595
95.928	25.091	1010.009	817.210
96.943	25.116	1009.488	816.830
97.957	24.806	1008.233	814.332
98.972	24.546	1007.332	812.349
99.987	24.464	1006.245	811.032
101.001	24.626	1005.584	811.163
102.016	24.891	1005.219	811.998
103.030	24.945	1003.743	810.976
104.045	24.836	1003.206	809.976
105.060	24.662	1002.288	808.379
106.074	24.641	1000.271	806.584
107.089	24.547	1000.154	805.995
108.103	24.896	1000.002	807.378
109.118	25.060	999.430	807.582
110.133	24.742	997.907	804.851
111.147	24.736	996.719	803.793
112.162	24.604	995.387	802.055
113.176	24.295	994.749	800.085
114.191	24.513	994.009	800.394
115.206	24.599	993.041	799.929
116.220	24.340	991.986	797.851
117.235	24.234	991.179	796.659
118.249	24.338	990.532	796.531
119.264	24.334	989.855	795.897
120.279	24.393	988.307	794.848
121.293	24.287	987.606	793.741
122.308	24.320	987.036	793.361
123.322	24.259	986.313	792.437
124.337	24.312	985.410	791.877
125.352	24.237	984.208	790.508
126.366	23.911	981.904	787.145
127.381	23.541	980.792	784.548
128.395	24.000	980.991	786.665
129.410	24.680	980.934	789.556
130.424	24.863	980.526	789.965
131.439	24.761	979.666	788.751
132.454	24.823	977.959	787.580
133.468	24.954	977.164	787.450
134.483	24.843	976.552	786.398
135.497	24.758	975.948	785.467
136.512	24.899	975.784	785.884
137.527	25.070	974.912	785.866
138.541	25.092	974.112	785.248
139.556	25.114	973.184	784.525
140.570	25.119	971.825	783.383
141.585	25.206	970.968	783.001
142.600	25.118	970.940	782.525
143.614	25.069	969.506	781.085
144.629	25.091	969.260	780.913
145.643	25.424	968.781	781.910
146.658	25.277	967.495	780.165
147.673	25.144	966.120	778.408
148.687	25.048	965.158	777.150
149.702	24.887	964.291	775.685
150.716	24.880	962.887	774.454
151.731	24.891	961.939	773.672
152.746	24.885	961.234	773.010
153.760	25.125	960.832	773.653
154.775	25.207	960.040	773.302
155.789	25.154	959.342	772.444
156.804	25.143	958.998	772.049
157.819	25.151	957.385	770.719
158.833	25.358	956.312	770.675
159.848	25.319	955.917	770.119
160.862	25.278	955.460	769.509
161.877	25.336	953.715	768.283
162.892	25.153	953.244	767.052
163.906	25.250	952.207	766.567
164.921	25.163	951.785	765.786
165.935	25.263	950.318	764.967
166.950	25.257	949.508	764.222
167.964	25.321	948.495	763.607
168.979	25.243	947.693	762.563
169.994	25.028	946.360	760.510
171.008	25.070	945.432	759.876
172.023	25.092	945.075	759.616
173.037	25.295	944.224	759.723
174.052	25.080	943.252	757.964
175.067	25.056	941.607	756.477
176.081	25.106	940.759	755.936
177.096	25.042	940.088	755.064
178.110	25.097	939.179	754.498
179.125	24.880	938.446	752.929
180.140	24.494	937.775	750.699
181.154	24.655	936.315	750.140
182.169	24.615	936.636	750.164
183.183	24.829	936.137	750.596
184.198	25.134	935.792	751.530
185.213	25.253	935.069	751.384
186.227	25.079	934.097	749.809
187.242	25.111	934.080	749.863
188.256	25.215	933.420	749.700
189.271	25.214	932.163	748.620
190.286	25.344	931.619	748.659
191.300	25.159	930.533	746.948
192.315	24.692	929.354	743.993
193.329	23.952	927.520	739.384
194.344	23.547	926.476	736.807
195.359	24.167	926.831	739.599
196.373	24.936	927.491	743.254
197.388	25.225	927.486	744.382
198.402	25.076	926.383	742.815
199.417	24.945	926.097	741.974
200.432	25.230	924.959	742.176
201.446	25.021	924.914	741.209
202.461	24.965	923.902	740.105
203.475	24.859	923.538	739.310
204.490	24.363	921.959	735.934
205.504	23.247	919.868	729.601
206.519	23.660	919.933	731.292
207.534	24.692	920.060	735.575
208.548	24.778	919.677	735.558
209.563	25.083	919.412	736.534
210.577	25.110	918.511	735.859
211.592	24.687	918.028	733.672
212.607	25.216	917.871	735.650
213.621	25.352	917.440	735.796
214.636	25.315	916.425	734.767
215.650	25.383	916.189	734.793
216.665	25.221	915.340	733.383
217.680	25.270	914.919	733.181
218.694	25.401	914.666	733.449
219.709	25.053	913.638	731.139
220.723	24.818	912.546	729.245
221.738	24.911	912.594	729.594
222.753	25.179	912.038	730.176
223.767	25.120	910.961	729.011
224.782	25.270	910.078	728.851
225.796	25.279	909.824	728.620
226.811	25.331	909.205	728.268
227.826	25.078	908.125	726.315
228.840	24.231	906.673	721.661
229.855	24.129	906.114	720.737
230.869	24.501	905.495	721.688
231.884	24.018	904.595	718.957
232.899	24.148	904.519	719.357
233.913	24.756	904.674	721.869
234.928	25.057	904.057	722.527
235.942	25.001	903.402	721.716
236.957	25.038	902.616	721.172
237.972	24.861	901.278	719.330
238.986	24.639	900.890	718.064
240.001	24.722	900.479	718.007
241.015	24.682	899.807	717.245
242.030	24.827	899.050	717.159
243.045	24.983	898.872	717.577
244.059	25.077	898.157	717.319
245.074	25.136	897.828	717.231
246.088	25.198	896.795	716.590
247.103	24.863	896.198	714.712
248.117	24.842	895.888	714.318
249.132	25.370	895.397	715.970
250.147	25.691	895.438	717.217
251.161	25.818	894.779	717.132
252.176	26.152	894.141	717.887
253.190	26.020	893.599	716.862
254.205	25.974	893.418	716.470
255.220	26.337	893.006	717.517
256.234	26.251	892.251	716.506
257.249	26.046	891.676	715.169
258.263	25.824	891.372	713.984
259.278	26.037	890.379	713.966
260.293	26.083	889.608	713.465
261.307	26.144	889.510	713.568
262.322	26.125	888.766	712.833
263.336	25.842	888.093	711.114
264.351	25.353	886.946	708.203
265.366	24.258	884.779	702.101
266.380	23.998	883.787	700.228
267.395	24.899	884.208	704.042
268.409	25.678	884.166	707.008
269.424	25.549	883.680	706.052
270.439	25.621	883.571	706.184
271.453	25.873	882.557	706.300
272.468	25.764	882.179	705.507
273.482	25.869	881.759	705.521
274.497	26.102	881.378	706.064
275.512	25.888	880.400	704.384
276.526	25.170	878.995	700.394
277.541	25.488	878.646	701.296
278.555	25.793	878.320	702.161
279.570	25.670	877.499	700.964
280.585	25.567	876.910	700.033
281.599	25.700	876.665	700.289
282.614	25.773	876.062	700.031
283.628	25.199	874.862	696.780
284.643	24.865	874.300	694.976
285.657	25.310	873.773	696.223
286.672	25.185	872.882	694.964
287.687	24.892	871.901	692.990
288.701	25.070	872.223	693.871
289.716	25.435	871.925	694.985
290.730	25.000	871.046	692.543
291.745	25.117	870.409	692.426
292.760	24.986	869.019	690.757
293.774	24.783	868.858	689.782
294.789	25.733	869.221	693.673
295.803	26.348	868.908	695.728
296.818	26.276	869.107	695.550
297.833	26.368	868.495	695.354
298.847	26.055	867.434	693.239
299.862	25.689	866.123	690.724
300.876	25.981	865.990	691.679
301.891	26.368	865.164	692.439
302.906	26.407	865.006	692.402
303.920	25.933	863.972	689.701
304.935	25.946	863.248	689.110
305.949	26.175	863.311	689.976
306.964	26.337	862.363	689.775
307.979	26.176	861.475	688.392
308.993	26.041	861.396	687.752
310.008	26.383	861.002	688.679
311.022	26.590	860.823	689.262
312.037	26.419	859.897	687.810
313.052	26.123	859.126	686.008
314.066	26.083	858.179	685.040
315.081	25.398	856.810	681.287
316.095	24.552	856.154	677.500
317.110	25.051	856.245	679.401
318.125	26.061	856.173	683.111
319.139	25.584	854.949	680.270
320.154	24.392	853.259	674.364
321.168	24.058	852.424	672.384
322.183	24.590	852.734	674.579
323.197	25.620	853.246	678.812
324.212	25.882	852.943	679.498
325.227	25.953	852.409	679.282
326.241	26.115	852.213	679.675
327.256	26.090	851.658	679.079
328.270	25.885	850.898	677.642
329.285	25.696	850.367	676.448
330.300	25.808	849.065	675.772
331.314	25.514	848.439	674.111
332.329	25.489	847.990	673.601
333.343	26.073	847.820	675.596
334.358	26.275	847.294	675.871
335.373	26.205	846.877	675.219
336.387	26.381	846.341	675.388
337.402	26.453	846.182	675.469
338.416	26.658	845.446	675.588
339.431	26.573	844.945	674.813
340.446	26.656	844.359	674.593
341.460	26.812	844.496	675.224
342.475	26.793	843.375	674.195
343.489	26.364	843.110	672.330
344.504	26.700	842.136	672.743
345.519	26.842	841.854	672.984
346.533	27.106	841.443	673.572
347.548	27.016	841.440	673.177
348.562	27.218	840.363	673.006
349.577	27.027	840.433	672.293
350.592	26.976	839.634	671.405
351.606	26.926	838.696	670.411
352.621	26.940	838.554	670.292
353.635	26.809	838.116	669.400
354.650	26.734	837.501	668.570
355.665	26.428	836.342	666.459
356.679	25.324	834.997	661.265
357.694	25.191	834.621	660.418
358.708	25.839	834.580	662.714
359.723	25.923	833.562	662.155
360.738	26.223	833.382	663.054
361.752	26.524	833.326	664.056
362.767	26.727	832.906	664.405
363.781	26.876	832.742	664.764
364.796	27.247	832.740	666.061
365.810	27.484	832.270	666.496
366.825	27.514	831.863	666.221
367.840	27.346	831.600	665.335
368.854	27.250	831.135	664.555
369.869	26.823	829.930	661.973
370.883	26.628	829.272	660.678
371.898	26.736	828.620	660.496
372.913	26.723	828.172	660.033
373.927	26.794	827.207	659.461
374.942	26.844	826.918	659.356
375.956	26.877	826.473	659.063
376.971	27.068	825.884	659.229
377.986	27.222	825.565	659.473
379.000	27.377	824.700	659.285
380.015	27.371	824.596	659.121
381.029	27.191	824.095	658.011
382.044	27.012	823.367	656.724
383.059	27.363	822.684	657.391
384.073	27.373	822.167	656.953
385.088	27.112	822.151	655.940
386.102	27.249	821.532	655.883
387.117	27.070	820.829	654.620
388.132	27.000	819.769	653.463
389.146	26.610	819.544	651.823
390.161	26.260	818.226	649.460
391.175	26.271	818.215	649.432
392.190	26.816	818.224	651.343
393.205	26.886	817.649	651.078
394.219	25.822	816.171	646.028
395.234	24.351	813.419	638.532
396.248	23.628	812.171	634.909
397.263	24.812	812.976	639.719
398.278	26.448	814.898	647.032
399.292	26.875	814.987	648.575
400.307	26.574	814.075	646.714
401.321	26.547	813.476	646.087
402.336	26.644	813.097	646.072
403.350	26.976	812.906	647.047
404.365	27.342	813.111	648.458
405.380	27.615	813.138	649.395
406.394	27.835	812.488	649.601
407.409	28.079	812.349	650.302
408.423	28.032	811.629	649.501
409.438	27.974	811.442	649.086
410.453	27.904	810.712	648.197
411.467	28.191	810.292	648.821
412.482	27.984	809.799	647.637
413.496	27.962	809.061	646.910
414.511	28.158	808.692	647.252
415.526	27.962	808.711	646.515
416.540	28.049	808.125	646.299
417.555	28.007	807.262	645.403
418.569	27.619	806.753	643.570
419.584	27.732	806.054	643.354
420.599	27.725	805.500	642.829
421.613	108.549	1284.874	1453.848
422.628	93.660	1354.711	1453.952
