DTS Sentinel unit serial number:	SN413079Multiplexer serial number:	ORYXHardware model number:	OX4-SRSoftware version number:	ORYX F/W v4.00 Oryx Data Collector v3.7.2.0data status	okinstallation	princeton_trtdifferential loss correction	single-endedforward channel	channel 3reverse channel	N/Adate	2019/09/18time	23:04:35forward acquisition time	60.00reverse acquisition time	0.00gamma	496.2192k internal	0.2345k external	0.2345temperature offset calibration	0.9990default loss term (dB/km)	0.3790temperature slope calibration	1.0000multiplexer offset coefficient	1.0000multiplexer slope coefficient	1.0000fibre end	0.00T internal ref (°C)	24.00T ext. ref 1 (°C)	0.79T ext. ref 2 (°C)	17.83length (m)	temperature (°C)	Stokes	anti-Stokes-747.200	368.597	-0.035	-0.072
-746.185	-200.000	0.020	-0.112
-745.171	-36.179	0.119	0.064
-744.156	237.519	-0.055	-0.091
-743.142	38.745	-0.179	0.160
-742.127	-63.778	-0.464	-0.190
-741.112	-200.000	-0.069	0.329
-740.098	-200.000	-0.011	-0.248
-739.083	-104.412	0.077	0.018
-738.069	350.980	-0.232	0.459
-737.054	98.436	-0.014	0.016
-736.039	210.118	-0.185	-0.290
-735.025	683.068	-0.146	0.381
-734.010	481.983	0.033	-0.075
-732.996	391.138	-0.075	-0.157
-731.981	176.593	0.039	-0.056
-730.966	429.341	0.142	-0.307
-729.952	-43.156	0.116	0.059
-728.937	-200.000	0.046	0.210
-727.923	800.000	-0.045	-0.132
-726.908	800.000	-0.029	0.101
-725.894	625.212	-0.109	-0.274
-724.879	-108.924	0.222	0.047
-723.864	-54.734	-0.206	-0.093
-722.850	9.488	-0.047	0.035
-721.835	39.026	-0.078	-0.070
-720.821	-106.176	-0.300	0.067
-719.806	800.000	0.073	-0.316
-718.791	-135.009	-0.148	-0.018
-717.777	40.208	-0.236	-0.212
-716.762	-53.324	0.222	-0.102
-715.748	88.137	0.208	0.230
-714.733	223.593	0.215	0.347
-713.718	-11.400	-0.286	-0.188
-712.704	800.000	0.073	-0.230
-711.689	-59.149	0.128	0.055
-710.675	28.809	-0.105	-0.089
-709.660	-72.629	0.021	-0.008
-708.645	-147.442	0.302	0.025
-707.631	-200.000	0.021	0.231
-706.616	800.000	-0.031	0.108
-705.602	800.000	-0.042	0.174
-704.587	-135.084	-0.320	-0.038
-703.572	43.024	-0.174	-0.158
-702.558	-49.909	0.320	-0.152
-701.543	-200.000	0.023	0.239
-700.529	-113.872	-0.328	0.064
-699.514	121.658	0.256	-0.319
-698.499	800.000	0.060	-0.198
-697.485	141.504	-0.077	0.101
-696.470	-200.000	-0.038	-0.205
-695.456	-63.039	0.141	-0.058
-694.441	140.179	0.260	0.343
-693.426	-90.124	0.130	0.038
-692.412	-200.000	0.016	0.325
-691.397	72.380	-0.160	-0.167
-690.383	-175.354	-0.341	0.009
-689.368	264.729	0.038	0.065
-688.354	585.014	-0.083	-0.203
-687.339	-200.000	-0.064	0.304
-686.324	-200.000	0.074	-0.424
-685.310	203.512	0.249	0.384
-684.295	42.252	-0.198	0.180
-683.281	260.473	0.080	-0.139
-682.266	-107.259	0.330	-0.072
-681.251	66.080	-0.091	-0.092
-680.237	-80.566	-0.259	0.086
-679.222	-148.937	-0.258	-0.021
-678.208	55.294	0.151	-0.146
-677.193	648.350	-0.040	-0.103
-676.178	79.987	-0.077	-0.083
-675.164	95.058	0.157	0.179
-674.149	-200.000	-0.004	-0.453
-673.135	149.619	0.142	-0.191
-672.120	-66.005	-0.497	0.198
-671.105	82.344	0.169	-0.183
-670.091	-14.576	-0.331	-0.212
-669.076	156.547	0.146	-0.201
-668.062	-86.474	-0.120	-0.037
-667.047	800.000	0.086	0.251
-666.032	188.709	0.111	0.165
-665.018	115.623	-0.118	-0.144
-664.003	-200.000	-0.012	-0.128
-662.989	-117.914	0.231	0.041
-661.974	-133.464	-0.082	-0.010
-660.959	159.041	0.087	-0.120
-659.945	-170.404	-0.230	-0.008
-658.930	583.073	-0.058	0.143
-657.916	-200.000	0.003	-0.235
-656.901	104.913	-0.156	0.183
-655.886	409.423	-0.052	0.110
-654.872	-200.000	-0.008	-0.050
-653.857	-79.328	0.288	0.097
-652.843	-200.000	0.017	0.162
-651.828	-185.042	-0.172	-0.003
-650.814	-200.000	-0.006	-0.241
-649.799	-78.123	-0.552	-0.189
-648.784	-200.000	-0.019	0.201
-647.770	63.192	-0.130	-0.130
-646.755	-132.292	-0.214	-0.028
-645.741	800.000	0.044	-0.164
-644.726	-98.247	-0.107	0.027
-643.711	-200.000	-0.012	-0.109
-642.697	-57.356	-0.214	0.094
-641.682	234.491	0.138	-0.227
-640.668	-200.000	-0.010	-0.244
-639.653	218.155	0.078	0.124
-638.638	295.083	-0.106	-0.193
-637.624	486.774	0.124	-0.281
-636.609	-123.418	0.167	0.027
-635.595	-145.562	-0.123	-0.011
-634.580	-146.779	-0.164	0.014
-633.565	-80.046	-0.326	0.109
-632.551	-200.000	-0.004	-0.065
-631.536	311.586	-0.068	-0.127
-630.522	419.405	-0.189	-0.402
-629.507	95.047	0.035	0.039
-628.492	183.353	0.107	-0.158
-627.478	-200.000	0.016	-0.329
-626.463	-200.000	0.038	0.292
-625.449	-36.511	0.152	-0.081
-624.434	699.789	-0.006	0.017
-623.419	29.139	0.190	-0.161
-622.405	143.845	-0.099	-0.131
-621.390	319.383	0.124	0.234
-620.376	-68.375	0.189	-0.073
-619.361	7.374	-0.170	0.127
-618.346	-103.142	-0.374	-0.088
-617.332	800.000	0.055	-0.221
-616.317	251.106	-0.033	0.056
-615.303	-65.564	-0.180	0.072
-614.288	225.650	0.069	-0.111
-613.273	-200.000	-0.015	-0.110
-612.259	797.330	-0.014	0.039
-611.244	54.692	-0.122	-0.118
-610.230	-123.332	0.154	-0.025
-609.215	-57.265	-0.074	-0.032
-608.201	-108.943	-0.242	0.051
-607.186	-16.215	-0.116	-0.073
-606.171	-40.222	0.038	0.020
-605.157	-111.530	-0.127	0.026
-604.142	-68.070	0.051	0.020
-603.128	800.000	-0.023	-0.076
-602.113	333.058	-0.051	-0.099
-601.098	-101.884	0.278	0.067
-600.084	277.684	0.111	0.196
-599.069	-20.767	0.422	-0.257
-598.055	129.893	0.076	-0.097
-597.040	-86.079	-0.183	-0.056
-596.025	-200.000	0.037	-0.220
-595.011	1.400	-0.101	-0.072
-593.996	-200.000	-0.002	0.093
-592.982	-200.000	-0.028	-0.205
-591.967	742.584	-0.089	-0.237
-590.952	800.000	0.093	-0.359
-589.938	58.444	0.351	0.342
-588.923	-86.779	-0.185	-0.056
-587.909	25.771	0.226	-0.187
-586.894	433.530	0.120	-0.260
-585.879	226.341	0.178	0.288
-584.865	-133.872	-0.272	0.034
-583.850	65.568	-0.190	0.191
-582.836	-172.302	0.150	-0.005
-581.821	796.020	-0.002	0.005
-580.806	800.000	-0.114	0.424
-579.792	-87.724	-0.371	-0.111
-578.777	97.152	0.064	0.073
-577.763	-111.410	-0.101	0.020
-576.748	-86.862	-0.092	0.028
-575.733	158.874	-0.153	-0.211
-574.719	-184.310	-0.174	-0.003
-573.704	-115.969	-0.179	-0.033
-572.690	800.000	0.054	-0.205
-571.675	-51.286	0.090	-0.042
-570.661	-200.000	0.028	-0.297
-569.646	30.748	0.072	0.061
-568.631	-25.647	-0.118	0.069
-567.617	-147.291	0.072	-0.006
-566.602	-109.721	-0.374	-0.078
-565.588	359.440	0.047	0.093
-564.573	-200.000	-0.050	-0.305
-563.558	229.038	-0.123	0.200
-562.544	211.904	0.093	-0.146
-561.529	210.106	0.206	-0.321
-560.515	800.000	-0.070	0.262
-559.500	-127.389	-0.252	-0.036
-558.485	-200.000	-0.051	-0.249
-557.471	800.000	0.105	-0.317
-556.456	800.000	-0.128	0.351
-555.442	370.019	0.074	0.148
-554.427	-143.942	-0.202	-0.019
-553.412	-149.573	0.308	-0.024
-552.398	-99.867	-0.416	-0.103
-551.383	-3.956	0.098	-0.067
-550.369	-82.844	-0.148	-0.047
-549.354	38.496	0.229	-0.203
-548.339	-200.000	0.006	-0.127
-547.325	124.189	-0.072	-0.089
-546.310	800.000	-0.083	-0.296
-545.296	800.000	0.088	-0.277
-544.281	-92.989	-0.068	-0.019
-543.266	-200.000	0.053	0.354
-542.252	-75.178	-0.024	0.008
-541.237	-9.608	0.203	0.134
-540.223	-39.581	-0.115	0.060
-539.208	90.756	0.125	-0.139
-538.193	131.485	-0.227	0.290
-537.179	-200.000	0.048	-0.226
-536.164	-97.343	-0.036	-0.009
-535.150	-136.741	-0.040	-0.005
-534.135	4.148	0.184	0.133
-533.121	-75.624	-0.116	0.041
-532.106	-65.813	0.269	0.107
-531.091	382.201	-0.184	0.375
-530.077	5.044	0.067	-0.049
-529.062	-200.000	-0.023	0.155
-528.048	-31.922	-0.066	0.037
-527.033	-172.200	-0.167	0.005
-526.018	278.645	-0.112	0.199
-525.004	216.990	0.186	0.293
-523.989	-135.228	0.129	0.015
-522.975	63.008	-0.268	0.266
-521.960	-2.611	0.110	-0.076
-520.945	-170.875	-0.235	0.008
-519.931	-200.000	0.286	0.001
-518.916	-200.000	0.021	-0.214
-517.902	63.850	-0.315	0.314
-516.887	5.055	-0.190	-0.139
-515.872	105.215	-0.064	-0.075
-514.858	73.455	-0.163	-0.170
-513.843	-75.523	0.298	0.105
-512.829	-42.749	-0.142	-0.072
-511.814	66.317	0.088	0.089
-510.799	800.000	-0.084	0.276
-509.785	-135.972	-0.088	0.010
-508.770	521.458	-0.137	0.320
-507.756	-159.867	0.199	0.011
-506.741	-9.233	0.126	0.084
-505.726	-103.054	-0.132	0.031
-504.712	269.655	0.017	-0.029
-503.697	-200.000	0.017	-0.185
-502.683	77.376	0.158	-0.166
-501.668	800.000	-0.038	0.126
-500.653	-200.000	0.309	-0.001
-499.639	-82.028	0.241	-0.078
-498.624	-74.108	-0.211	-0.076
-497.610	300.790	0.083	-0.152
-496.595	145.960	0.039	-0.051
-495.581	79.619	-0.146	0.156
-494.566	111.145	-0.110	0.131
-493.551	515.694	-0.231	0.534
-492.537	119.437	0.173	0.212
-491.522	57.613	-0.276	-0.267
-490.508	-38.677	-0.264	0.138
-489.493	-200.000	0.038	-0.249
-488.478	134.831	0.154	0.198
-487.464	352.914	-0.049	0.096
-486.449	-200.000	0.045	-0.464
-485.435	41.462	-0.158	0.141
-484.420	-200.000	0.024	-0.290
-483.405	-69.221	0.075	-0.029
-482.391	107.018	-0.072	-0.085
-481.376	-200.000	0.007	-0.251
-480.362	-73.234	0.296	-0.107
-479.347	-163.678	0.200	0.009
-478.332	674.880	-0.124	0.319
-477.318	-104.103	0.148	0.034
-476.303	44.526	0.181	-0.165
-475.289	280.264	-0.087	-0.154
-474.274	99.195	-0.077	0.088
-473.259	-112.475	-0.415	-0.082
-472.245	118.898	0.181	-0.222
-471.230	542.039	-0.217	0.513
-470.216	800.000	-0.048	-0.176
-469.201	326.941	0.027	0.051
-468.186	-156.853	0.239	0.015
-467.172	147.226	0.044	-0.059
-466.157	-160.810	-0.318	-0.017
-465.143	-200.000	-0.020	-0.150
-464.128	254.426	0.064	0.109
-463.113	800.000	-0.109	-0.321
-462.099	7.171	-0.237	-0.175
-461.084	236.714	-0.231	-0.379
-460.070	800.000	0.055	0.184
-459.055	-19.916	-0.329	0.201
-458.040	74.353	-0.009	0.009
-457.026	-75.344	0.198	0.070
-456.011	700.057	-0.151	-0.392
-454.997	107.988	0.130	-0.153
-453.982	-200.000	-0.021	0.133
-452.968	110.169	0.078	0.093
-451.953	396.451	0.079	0.163
-450.938	-63.821	0.157	0.064
-449.924	178.069	0.045	0.065
-448.909	-200.000	0.048	-0.246
-447.895	48.923	0.043	0.040
-446.880	526.351	0.065	-0.151
-445.865	-200.000	0.027	0.306
-444.851	-176.900	0.189	0.005
-443.836	37.871	-0.095	0.083
-442.822	-109.120	0.107	-0.022
-441.807	-6.345	0.085	-0.058
-440.792	-200.000	-0.042	-0.430
-439.778	-200.000	0.032	0.301
-438.763	14.757	-0.269	-0.208
-437.749	-11.369	-0.140	0.091
-436.734	800.000	-0.034	0.120
-435.719	800.000	0.039	0.129
-434.705	-47.845	0.168	-0.081
-433.690	-9.081	-0.208	0.138
-432.676	79.490	-0.027	-0.028
-431.661	800.000	-0.027	0.113
-430.646	-200.000	-0.022	0.373
-429.632	-89.987	0.220	-0.063
-428.617	800.000	0.048	0.168
-427.603	800.000	0.117	-0.331
-426.588	-72.882	0.146	-0.053
-425.573	239.134	0.119	-0.195
-424.559	-200.000	-0.053	0.242
-423.544	328.542	-0.095	-0.181
-422.530	800.000	0.179	-0.529
-421.515	-200.000	0.015	-0.237
-420.500	-90.348	-0.161	0.046
-419.486	75.260	-0.461	-0.481
-418.471	296.579	0.211	0.383
-417.457	-104.600	-0.335	0.076
-416.442	-68.827	-0.061	-0.023
-415.428	-200.000	-0.042	0.306
-414.413	128.321	-0.236	0.297
-413.398	2.395	0.325	0.232
-412.384	-46.080	0.459	-0.223
-411.369	-192.538	0.180	-0.002
-410.355	-166.206	-0.174	-0.007
-409.340	577.672	0.044	0.107
-408.325	-70.167	0.155	0.058
-407.311	800.000	0.034	-0.120
-406.296	-149.314	-0.298	-0.023
-405.282	-200.000	0.009	0.100
-404.267	-115.697	0.166	0.031
-403.252	18.820	0.066	0.052
-402.238	31.843	0.172	0.146
-401.223	-131.491	-0.306	0.040
-400.209	-53.355	0.296	0.134
-399.194	-128.883	-0.104	-0.014
-398.179	-147.333	-0.328	-0.027
-397.165	800.000	-0.125	-0.499
-396.150	80.080	-0.178	0.189
-395.136	362.261	0.122	0.241
-394.121	25.635	-0.116	-0.095
-393.106	800.000	0.076	-0.322
-392.092	67.753	-0.173	-0.174
-391.077	-122.161	0.243	0.039
-390.063	-200.000	0.011	-0.060
-389.048	192.586	0.035	0.052
-388.033	69.848	0.121	0.123
-387.019	198.989	-0.114	-0.172
-386.004	590.764	-0.146	-0.354
-384.990	56.048	-0.082	0.079
-383.975	126.522	0.234	-0.292
-382.960	529.866	0.058	0.136
-381.946	-95.963	-0.317	0.083
-380.931	-37.137	0.332	-0.175
-379.917	111.331	-0.094	0.112
-378.902	673.340	-0.168	0.430
-377.888	68.359	-0.153	-0.155
-376.873	299.521	0.140	-0.254
-375.858	296.712	-0.106	-0.191
-374.844	-28.688	0.098	-0.055
-373.829	-190.080	-0.241	0.003
-372.815	102.658	-0.108	-0.124
-371.800	76.468	0.113	0.118
-370.785	-200.000	0.009	0.228
-369.771	30.489	0.304	0.256
-368.756	-25.708	-0.137	-0.079
-367.742	92.793	0.275	0.306
-366.727	-175.016	0.112	0.003
-365.712	118.575	0.247	0.301
-364.698	59.857	-0.051	-0.050
-363.683	119.950	0.177	0.216
-362.669	-34.756	0.071	-0.038
-361.654	-200.000	-0.014	0.099
-360.639	-133.513	-0.259	0.032
-359.625	-200.000	-0.032	0.246
-358.610	19.595	-0.162	-0.128
-357.596	-200.000	-0.002	-0.232
-356.581	71.686	-0.089	0.091
-355.566	20.261	0.201	0.160
-354.552	132.573	-0.167	0.213
-353.537	-155.474	0.303	-0.019
-352.523	-146.336	0.273	0.024
-351.508	-200.000	-0.068	0.333
-350.493	-200.000	-0.002	0.026
-349.479	10.049	0.081	-0.060
-348.464	255.322	0.197	0.333
-347.450	-200.000	-0.067	-0.405
-346.435	275.117	0.082	0.144
-345.420	-117.636	-0.138	-0.024
-344.406	104.408	0.318	0.368
-343.391	456.505	0.047	0.104
-342.377	-54.640	-0.119	0.053
-341.362	89.845	-0.083	-0.091
-340.348	-61.377	-0.226	-0.094
-339.333	-127.200	-0.049	0.007
-338.318	197.064	0.245	-0.368
-337.304	-70.773	-0.084	-0.031
-336.289	-92.838	-0.301	0.083
-335.275	-128.019	0.152	-0.022
-334.260	-44.454	0.099	0.049
-333.245	74.359	-0.054	0.056
-332.231	99.549	0.009	0.010
-331.216	-0.690	-0.148	-0.104
-330.202	-55.977	-0.321	0.141
-329.187	-173.890	-0.241	-0.007
-328.172	6.246	-0.274	-0.200
-327.158	-32.483	-0.135	0.074
-326.143	-200.000	-0.040	0.189
-325.129	-107.568	0.118	-0.025
-324.114	-200.000	-0.070	0.349
-323.099	709.959	-0.100	0.262
-322.085	23.151	-0.091	-0.074
-321.070	-200.000	0.000	-0.556
-320.056	-72.830	-0.186	0.067
-319.041	-1.481	0.111	0.077
-318.026	663.828	-0.108	-0.275
-317.012	800.000	0.021	-0.058
-315.997	64.995	-0.107	0.106
-314.983	114.973	0.219	-0.263
-313.968	412.850	0.100	-0.208
-312.953	-166.657	0.102	-0.004
-311.939	484.714	-0.071	0.160
-310.924	-19.627	0.304	0.185
-309.910	-93.171	-0.304	-0.083
-308.895	2.695	0.222	-0.158
-307.880	173.377	0.159	-0.226
-306.866	306.044	0.165	-0.302
-305.851	-52.644	-0.081	-0.037
-304.837	800.000	-0.008	-0.032
-303.822	-90.320	0.184	-0.053
-302.807	-153.449	-0.057	-0.004
-301.793	-127.071	-0.167	-0.024
-300.778	41.192	0.253	0.225
-299.764	-130.734	0.212	-0.028
-298.749	158.079	0.058	-0.079
-297.735	-71.355	-0.254	-0.094
-296.720	20.593	0.026	-0.020
-295.705	120.098	0.200	0.243
-294.691	-136.736	-0.178	-0.020
-293.676	-127.852	-0.201	-0.029
-292.662	-35.960	0.322	0.171
-291.647	171.310	0.094	-0.133
-290.632	800.000	0.051	-0.192
-289.618	7.764	-0.136	0.100
-288.603	800.000	0.126	0.349
-287.589	-200.000	0.045	0.325
-286.574	-88.020	0.234	0.069
-285.559	-88.854	-0.297	-0.087
-284.545	155.417	-0.065	-0.088
-283.530	800.000	0.062	0.261
-282.516	28.443	-0.232	-0.193
-281.501	-76.470	0.256	0.088
-280.486	-200.000	-0.016	0.111
-279.472	-200.000	0.013	0.135
-278.457	800.000	0.031	0.102
-277.443	-81.902	-0.054	-0.017
-276.428	-109.529	0.091	0.019
-275.413	27.238	0.034	0.028
-274.399	-104.416	0.123	-0.028
-273.384	273.259	-0.081	0.140
-272.370	-38.584	0.201	0.104
-271.355	3.119	0.284	-0.203
-270.340	130.068	-0.055	-0.069
-269.326	-67.765	0.336	0.129
-268.311	-200.000	-0.030	0.203
-267.297	-200.000	-0.016	-0.080
-266.282	800.000	0.055	0.149
-265.267	800.000	0.064	0.176
-264.253	-4.159	-0.316	-0.215
-263.238	87.269	-0.176	0.191
-262.224	105.896	-0.142	0.165
-261.209	800.000	-0.034	0.095
-260.195	-200.000	0.041	-0.334
-259.180	345.608	-0.079	-0.151
-258.165	-120.152	-0.217	-0.036
-257.151	-13.011	0.297	-0.189
-256.136	-166.521	-0.264	0.011
-255.122	714.706	-0.055	-0.142
-254.107	800.000	-0.048	-0.177
-253.092	533.568	-0.054	-0.125
-252.078	800.000	0.043	0.136
-251.063	30.645	-0.099	0.083
-250.049	-200.000	-0.083	0.369
-249.034	41.063	-0.239	-0.212
-248.019	186.060	0.195	0.284
-247.005	134.923	0.175	0.224
-245.990	-200.000	0.059	0.412
-244.976	-68.555	0.264	-0.100
-243.961	800.000	0.116	0.334
-242.946	-108.130	0.286	-0.061
-241.932	203.192	-0.067	0.101
-240.917	464.336	0.134	0.295
-239.903	-166.985	-0.126	-0.005
-238.888	-200.000	-0.009	0.160
-237.873	-23.649	0.226	0.133
-236.859	60.455	0.007	-0.007
-235.844	-1.671	-0.192	-0.133
-234.830	240.759	-0.145	-0.237
-233.815	-25.351	-0.201	0.117
-232.800	1.943	-0.187	-0.132
-231.786	-29.420	0.250	0.140
-230.771	63.279	0.258	0.253
-229.757	-34.695	0.144	0.077
-228.742	93.832	0.141	-0.157
-227.727	43.819	-0.085	0.076
-226.713	-66.821	0.363	0.141
-225.698	-20.218	-0.151	-0.091
-224.684	423.389	0.047	0.099
-223.669	117.381	-0.248	-0.298
-222.655	800.000	0.134	-0.459
-221.640	-96.286	0.237	-0.062
-220.625	-7.037	0.140	0.093
-219.611	-200.000	-0.043	-0.364
-218.596	172.971	0.110	-0.155
-217.582	346.018	-0.021	-0.041
-216.567	-200.000	-0.003	-0.305
-215.552	-4.387	0.430	0.291
-214.538	-200.000	-0.027	0.191
-213.523	262.451	0.058	-0.099
-212.509	-200.000	-0.075	0.335
-211.494	800.000	0.129	0.398
-210.479	104.906	-0.090	-0.103
-209.465	-162.244	0.227	0.011
-208.450	-162.234	0.218	0.011
-207.436	-66.258	0.141	-0.055
-206.421	-200.000	-0.014	0.101
-205.406	-200.000	0.020	0.105
-204.392	-200.000	-0.045	-0.266
-203.377	334.915	0.060	0.114
-202.363	61.626	0.078	-0.076
-201.348	800.000	0.052	0.190
-200.333	315.362	-0.105	0.193
-199.319	536.660	0.216	0.501
-198.304	-200.000	0.021	-0.387
-197.290	-121.728	0.029	0.005
-196.275	545.974	-0.067	0.157
-195.260	171.607	0.150	0.211
-194.246	85.045	0.154	0.165
-193.231	-17.143	0.121	0.074
-192.217	-48.027	-0.108	0.051
-191.202	-15.438	0.229	0.143
-190.187	-39.649	0.053	-0.027
-189.173	-95.940	0.186	-0.048
-188.158	12.642	-0.102	-0.077
-187.144	-62.149	0.155	-0.063
-186.129	299.656	0.195	0.351
-185.114	800.000	-0.067	0.222
-184.100	255.753	0.029	0.049
-183.085	800.000	0.086	-0.299
-182.071	153.874	0.087	0.117
-181.056	-80.968	-0.189	-0.061
-180.042	-33.084	-0.070	0.038
-179.027	-32.393	-0.262	-0.143
-178.012	364.760	-0.073	0.144
-176.998	158.253	-0.259	0.351
-175.983	21.164	-0.122	-0.097
-174.969	77.851	-0.200	0.209
-173.954	-56.840	0.181	0.078
-172.939	-16.933	0.141	-0.087
-171.925	-116.506	-0.211	0.038
-170.910	-114.706	0.153	-0.029
-169.896	-200.000	-0.060	-0.368
-168.881	-200.000	0.011	-0.172
-167.866	-151.928	0.201	0.014
-166.852	800.000	0.036	0.119
-165.837	85.699	-0.082	0.088
-164.823	-8.696	0.222	0.146
-163.808	-90.250	-0.153	-0.043
-162.793	-200.000	0.051	-0.285
-161.779	800.000	0.047	-0.144
-160.764	-114.763	0.107	-0.020
-159.750	-10.156	0.192	0.125
-158.735	-200.000	-0.011	0.113
-157.720	-163.632	-0.081	-0.004
-156.706	-42.680	-0.134	0.066
-155.691	42.701	0.199	-0.177
-154.677	-47.237	-0.268	0.127
-153.662	14.373	0.199	-0.152
-152.647	348.285	-0.103	-0.199
-151.633	-200.000	-0.012	-0.114
-150.618	-200.000	-0.012	0.219
-149.604	59.464	-0.373	-0.360
-148.589	-182.351	0.067	-0.001
-147.574	463.174	0.114	0.249
-146.560	-114.767	-0.283	-0.053
-145.545	726.454	0.064	-0.166
-144.531	-126.448	-0.205	-0.030
-143.516	331.378	0.093	0.174
-142.502	-72.809	0.221	0.080
-141.487	346.676	-0.050	0.096
-140.472	204.733	-0.073	-0.111
-139.458	476.782	-0.134	-0.297
-138.443	-17.054	0.182	-0.112
-137.429	23.680	-0.314	0.252
-136.414	-93.610	-0.383	-0.103
-135.399	253.303	-0.115	-0.192
-134.385	38.361	0.171	0.149
-133.370	211.338	-0.087	-0.133
-132.356	-200.000	0.012	0.170
-131.341	-141.374	0.262	0.026
-130.326	-200.000	0.017	-0.210
-129.312	20.454	-0.022	0.017
-128.297	372.103	0.119	0.236
-127.283	26.615	-0.062	0.051
-126.268	-14.607	-0.098	0.061
-125.253	-81.077	0.342	0.110
-124.239	270.698	-0.149	-0.255
-123.224	83.807	0.262	-0.279
-122.210	641.973	-0.071	-0.178
-121.195	-0.946	-0.291	0.201
-120.180	800.000	-0.049	0.171
-119.166	58.944	0.124	-0.119
-118.151	7.556	-0.223	-0.163
-117.137	800.000	-0.162	0.480
-116.122	-123.470	-0.289	0.045
-115.107	72.527	0.202	0.206
-114.093	190.536	-0.144	-0.211
-113.078	-120.125	-0.247	-0.041
-112.064	-159.374	0.259	-0.014
-111.049	-181.605	0.242	0.005
-110.034	-17.526	0.203	-0.124
-109.020	336.344	-0.192	0.364
-108.005	90.341	0.070	-0.077
-106.991	-200.000	0.026	-0.313
-105.976	-54.039	-0.180	0.080
-104.962	-14.433	0.269	-0.169
-103.947	-84.140	0.129	-0.040
-102.932	-200.000	0.040	0.299
-101.918	-142.810	-0.131	-0.012
-100.903	368.564	-0.141	0.278
-99.889	-200.000	0.010	-0.100
-98.874	193.713	0.083	-0.123
-97.859	-54.392	-0.186	0.082
-96.845	-133.779	-0.143	-0.017
-95.830	106.045	0.090	0.104
-94.816	-94.698	0.305	0.081
-93.801	358.818	0.210	0.409
-92.786	-12.704	-0.225	-0.143
-91.772	382.476	-0.074	0.148
-90.757	136.609	-0.088	-0.113
-89.743	-148.221	-0.127	-0.010
-88.728	143.061	0.097	0.126
-87.713	-67.317	-0.079	0.030
-86.699	-138.525	-0.309	-0.033
-85.684	257.261	0.078	-0.131
-84.670	67.093	-0.122	-0.121
-83.655	-142.862	0.032	-0.003
-82.640	-200.000	0.001	0.124
-81.626	275.287	0.101	0.175
-80.611	800.000	0.092	0.263
-79.597	278.850	-0.064	-0.112
-78.582	-200.000	0.050	-0.312
-77.567	727.141	-0.036	0.093
-76.553	161.460	-0.107	0.146
-75.538	10.423	0.271	0.201
-74.524	327.396	0.138	-0.258
-73.509	-119.865	0.010	0.002
-72.494	-18.944	0.313	0.190
-71.480	-98.961	0.126	0.031
-70.465	666.486	0.175	-0.439
-69.451	-200.000	0.017	0.108
-68.436	-200.000	-0.013	0.071
-67.422	145.978	-0.169	-0.221
-66.407	800.000	-0.045	0.167
-65.392	268.113	0.070	0.119
-64.378	-65.425	0.186	0.073
-63.363	4.595	-0.303	0.216
-62.349	188.993	-0.157	-0.229
-61.334	292.636	-0.658	-1.167
-60.319	208.574	0.694	1.058
-59.305	362.195	-0.607	-1.186
-58.290	800.000	0.566	1.653
-57.276	800.000	0.532	1.714
-56.261	-200.000	122.834	646.024
-55.246	431.391	1546.600	3262.784
-54.232	147.356	2697.445	3536.189
-53.217	97.085	2164.509	2417.341
-52.203	34.472	1688.606	1435.540
-51.188	27.205	1506.926	1232.005
-50.173	25.142	1483.592	1199.102
-49.159	48.542	1554.626	1418.081
-48.144	46.296	1567.015	1413.906
-47.130	27.064	1516.473	1238.647
-46.115	24.270	1500.569	1206.725
-45.100	24.046	1497.309	1202.546
-44.086	24.079	1495.661	1201.397
-43.071	24.021	1493.291	1199.057
-42.057	24.005	1491.729	1197.642
-41.042	24.029	1490.149	1196.489
-40.027	24.008	1488.986	1195.367
-39.013	24.001	1487.142	1193.790
-37.998	23.929	1486.574	1192.809
-36.984	23.962	1484.950	1191.676
-35.969	23.922	1483.525	1190.221
-34.954	23.994	1481.567	1189.085
-33.940	23.851	1481.129	1187.725
-32.925	23.906	1479.781	1186.965
-31.911	23.982	1478.146	1186.115
-30.896	23.979	1476.922	1185.066
-29.881	24.035	1475.548	1184.291
-28.867	24.130	1473.980	1183.615
-27.852	23.971	1473.093	1181.797
-26.838	24.079	1471.534	1181.218
-25.823	24.059	1470.044	1179.841
-24.809	24.080	1468.251	1178.494
-23.794	24.078	1467.016	1177.445
-22.779	24.116	1465.697	1176.587
-21.765	24.072	1464.889	1175.605
-20.750	24.075	1463.744	1174.658
-19.736	24.015	1462.739	1173.408
-18.721	23.917	1462.126	1172.226
-17.706	24.076	1460.257	1171.725
-16.692	23.986	1459.343	1170.358
-15.677	24.032	1458.673	1170.073
-14.663	24.074	1457.202	1169.121
-13.648	24.022	1456.745	1168.370
-12.633	23.964	1456.013	1167.357
-11.619	23.940	1455.279	1166.566
-10.604	24.079	1453.680	1166.148
-9.590	23.954	1453.269	1164.953
-8.575	24.034	1452.262	1164.617
-7.560	23.936	1451.515	1163.331
-6.546	24.015	1450.041	1162.624
-5.531	23.972	1449.658	1161.988
-4.517	24.039	1448.426	1161.390
-3.502	23.988	1447.742	1160.463
-2.487	23.968	1446.743	1159.489
-1.473	24.026	1445.860	1159.113
-0.458	23.965	1444.826	1157.842
0.556	23.004	1433.876	1145.753
1.571	19.817	1410.296	1106.459
2.586	16.228	1349.343	1036.539
3.600	14.490	1266.905	963.094
4.615	13.455	1223.777	924.451
5.629	11.857	1168.127	873.813
6.644	6.145	1087.563	785.019
7.659	1.512	1051.874	736.773
8.673	0.790	1047.048	729.847
9.688	0.797	1043.420	727.286
10.702	0.736	1041.995	725.936
11.717	0.816	1039.298	724.377
12.731	2.574	1040.699	733.712
13.746	8.813	1049.097	769.614
14.761	15.101	1056.619	805.396
15.775	17.220	1058.791	817.180
16.790	17.019	1057.413	815.080
17.804	16.071	1056.006	809.375
18.819	15.240	1053.955	803.747
19.834	14.691	1052.711	800.096
20.848	14.437	1051.809	798.126
21.863	14.251	1050.885	796.465
22.877	13.832	1050.507	794.101
23.892	13.785	1048.945	792.625
24.907	13.760	1048.247	791.910
25.921	13.636	1047.985	791.052
26.936	13.730	1047.139	790.789
27.950	13.779	1046.269	790.295
28.965	13.755	1046.057	789.949
29.980	13.902	1044.764	789.602
30.994	13.933	1043.701	788.878
32.009	14.004	1042.687	788.380
33.023	13.947	1042.357	787.788
34.038	14.045	1041.001	787.158
35.053	13.816	1040.902	785.929
36.067	13.911	1039.630	785.347
37.082	14.006	1038.613	784.958
38.096	13.836	1038.215	783.788
39.111	13.991	1037.162	783.652
40.126	13.999	1036.613	783.207
41.140	13.938	1035.526	782.030
42.155	13.850	1034.305	780.626
43.169	13.735	1033.947	779.746
44.184	13.774	1032.702	778.922
45.199	13.701	1031.710	777.759
46.213	13.719	1031.036	777.267
47.228	13.821	1029.664	776.645
48.242	13.804	1028.801	775.845
49.257	13.967	1027.491	775.548
50.271	13.915	1026.729	774.662
51.286	13.810	1025.828	773.422
52.301	13.915	1024.619	772.933
53.315	13.883	1024.325	772.491
54.330	13.929	1023.127	771.735
55.344	13.803	1022.606	770.688
56.359	13.848	1021.850	770.260
57.374	13.948	1020.826	769.886
58.388	13.747	1020.059	768.307
59.403	13.793	1019.364	767.927
60.417	13.835	1018.226	767.197
61.432	13.749	1017.525	766.203
62.447	13.786	1017.041	765.942
63.461	13.683	1016.411	764.923
64.476	13.759	1014.904	764.071
65.490	13.606	1014.764	763.195
66.505	13.781	1013.351	762.870
67.520	13.766	1012.694	762.237
68.534	13.750	1012.493	761.946
69.549	13.763	1011.169	760.941
70.563	13.887	1010.143	760.671
71.578	13.919	1009.476	760.249
72.593	13.868	1008.507	759.219
73.607	13.657	1007.841	757.686
74.622	13.653	1007.295	757.190
75.636	13.716	1006.299	756.660
76.651	13.727	1005.328	755.914
77.666	13.757	1004.435	755.313
78.680	13.714	1004.156	754.841
79.695	13.802	1003.262	754.499
80.709	13.613	1003.109	753.458
81.724	13.773	1001.858	753.182
82.739	13.809	1001.187	752.772
83.753	13.710	1000.659	751.861
84.768	13.880	999.698	751.841
85.782	13.876	999.148	751.341
86.797	13.993	997.933	750.890
87.812	13.982	997.365	750.349
88.826	13.845	996.485	749.002
89.841	13.936	995.230	748.401
90.855	13.812	994.818	747.466
91.870	13.902	994.047	747.227
92.884	13.911	993.310	746.647
93.899	13.946	992.475	746.109
94.914	13.972	992.386	746.095
95.928	14.079	991.026	745.485
96.943	14.003	990.679	744.820
97.957	13.910	989.663	743.573
98.972	13.954	989.197	743.354
99.987	14.012	988.188	742.789
101.001	14.024	987.436	742.210
102.016	14.148	986.501	741.998
103.030	13.942	985.740	740.440
104.045	13.963	985.114	739.999
105.060	14.004	983.751	739.090
106.074	13.933	982.775	737.975
107.089	13.942	981.997	737.367
108.103	13.721	981.272	735.776
109.118	13.841	980.493	735.661
110.133	13.795	979.486	734.633
111.147	13.905	978.538	734.345
112.162	13.847	977.881	733.533
113.176	13.816	976.957	732.638
114.191	13.861	976.068	732.103
115.206	13.905	974.998	731.430
116.220	13.767	974.661	730.505
117.235	14.002	973.493	730.597
118.249	13.991	972.251	729.554
119.264	13.863	972.162	728.858
120.279	13.957	970.781	728.173
121.293	13.869	970.556	727.554
122.308	13.869	969.623	726.788
123.322	13.886	968.780	726.167
124.337	13.881	967.789	725.336
125.352	14.004	966.154	724.584
126.366	13.814	965.613	723.287
127.381	13.889	964.123	722.433
128.395	13.795	963.737	721.671
129.410	13.930	962.240	721.072
130.424	13.748	961.747	719.851
131.439	13.889	960.717	719.628
132.454	13.918	960.021	719.167
133.468	13.921	959.148	718.461
134.483	13.846	958.624	717.682
135.497	13.790	958.062	716.955
136.512	13.881	956.907	716.422
137.527	13.819	956.365	715.685
138.541	13.791	955.528	714.876
139.556	13.834	955.216	714.762
140.570	13.949	954.043	714.315
141.585	13.871	953.638	713.614
142.600	14.021	952.841	713.601
143.614	14.062	952.127	713.178
144.629	14.037	951.570	712.592
145.643	14.028	950.763	711.883
146.658	14.031	949.775	711.094
147.673	14.052	948.871	710.443
148.687	14.106	947.764	709.782
149.702	14.135	946.664	709.020
150.716	13.872	946.546	707.749
151.731	14.053	945.124	707.392
152.746	14.030	944.600	706.840
153.760	13.987	944.010	706.152
154.775	14.071	943.385	705.978
155.789	14.097	942.329	705.239
156.804	14.164	941.471	704.817
157.819	14.100	940.422	703.698
158.833	14.131	940.330	703.697
159.848	14.147	939.744	703.264
160.862	14.136	939.111	702.685
161.877	14.248	938.117	702.348
162.892	14.192	937.620	701.680
163.906	14.147	936.433	700.539
164.921	13.953	935.840	699.217
165.935	14.188	934.692	699.284
166.950	14.165	934.087	698.673
167.964	14.133	932.827	697.535
168.979	14.239	931.543	696.958
169.994	14.250	930.978	696.519
171.008	14.242	929.976	695.677
172.023	14.173	929.617	695.055
173.037	14.432	928.273	695.070
174.052	14.340	928.024	694.437
175.067	14.295	927.128	693.521
176.081	14.159	926.533	692.445
177.096	14.268	925.708	692.222
178.110	14.206	925.076	691.429
179.125	14.297	924.137	691.045
180.140	14.285	923.340	690.338
181.154	14.302	922.488	689.713
182.169	14.290	922.036	689.262
183.183	14.292	921.401	688.737
184.198	14.452	920.482	688.648
185.213	14.406	920.023	688.053
186.227	14.402	919.547	687.620
187.242	14.358	918.922	686.912
188.256	14.426	918.549	686.851
189.271	14.446	917.838	686.342
190.286	14.542	916.561	685.722
191.300	14.367	916.162	684.643
192.315	14.365	915.088	683.771
193.329	14.307	914.525	683.053
194.344	14.324	914.001	682.672
195.359	14.425	913.111	682.360
196.373	14.466	913.102	682.457
197.388	14.604	911.612	681.847
198.402	14.621	911.606	681.855
199.417	14.561	911.254	681.286
200.432	14.587	910.604	680.846
201.446	14.531	910.388	680.395
202.461	14.711	909.831	680.650
203.475	14.787	908.997	680.276
204.490	14.727	908.592	679.669
205.504	14.753	907.729	679.069
206.519	14.842	906.855	678.715
207.534	14.604	906.419	677.365
208.548	14.647	905.139	676.523
209.563	14.698	904.773	676.397
210.577	14.696	904.000	675.750
211.592	14.618	903.664	675.123
212.607	14.700	903.379	675.181
213.621	14.797	902.537	674.883
214.636	14.895	901.601	674.522
215.650	14.741	900.953	673.356
216.665	14.666	901.025	673.048
217.680	14.816	900.076	672.885
218.694	14.822	899.535	672.444
219.709	15.084	898.603	672.738
220.723	14.920	897.981	671.554
221.738	14.894	897.248	670.844
222.753	14.892	896.847	670.479
223.767	14.909	896.056	669.895
224.782	15.003	895.405	669.724
225.796	14.994	894.742	669.133
226.811	14.951	893.751	668.163
227.826	15.060	893.026	667.997
228.840	15.080	892.319	667.487
229.855	15.005	892.014	666.899
230.869	15.021	891.233	666.323
231.884	15.054	890.586	665.911
232.899	15.005	890.020	665.234
233.913	15.126	889.400	665.194
234.928	14.999	888.433	663.907
235.942	15.011	887.860	663.467
236.957	14.926	887.348	662.689
237.972	15.006	886.655	662.427
238.986	15.144	885.984	662.414
240.001	15.196	885.234	662.001
241.015	15.136	884.904	661.460
242.030	15.089	883.875	660.446
243.045	15.261	883.001	660.410
244.059	15.109	882.865	659.654
245.074	15.181	882.495	659.601
246.088	15.218	881.434	658.895
247.103	15.187	880.543	658.051
248.117	15.293	879.921	657.943
249.132	15.328	879.587	657.772
250.147	15.340	879.374	657.601
251.161	15.303	878.365	656.643
252.176	15.419	877.684	656.529
253.190	15.387	876.756	655.654
254.205	15.629	875.975	655.957
255.220	15.687	875.434	655.719
256.234	15.542	875.072	654.825
257.249	15.528	874.900	654.584
258.263	15.510	874.103	653.857
259.278	15.690	873.085	653.739
260.293	15.449	873.287	652.896
261.307	15.600	872.204	652.614
262.322	15.627	871.754	652.325
263.336	15.696	871.328	652.217
264.351	15.738	870.345	651.587
265.366	15.673	869.943	650.975
266.380	15.754	869.204	650.678
267.395	15.737	868.777	650.234
268.409	15.884	867.658	649.908
269.424	15.766	867.036	648.929
270.439	15.939	866.230	648.935
271.453	15.675	865.853	647.578
272.468	15.801	864.796	647.215
273.482	15.794	864.532	646.934
274.497	15.879	863.686	646.571
275.512	15.801	862.979	645.684
276.526	15.785	862.200	644.982
277.541	15.699	861.750	644.261
278.555	15.842	861.111	644.272
279.570	15.874	860.636	643.981
280.585	16.011	860.085	644.036
281.599	15.855	859.557	642.988
282.614	15.851	859.198	642.646
283.628	15.939	858.161	642.150
284.643	16.038	857.459	641.945
285.657	15.991	857.128	641.460
286.672	15.939	856.606	640.817
287.687	16.003	856.338	640.801
288.701	16.025	855.861	640.472
289.716	15.993	855.356	639.915
290.730	16.082	854.624	639.649
291.745	16.146	853.604	639.071
292.760	16.071	852.981	638.267
293.774	16.043	852.583	637.804
294.789	16.202	851.898	637.838
295.803	16.172	851.634	637.469
296.818	16.244	850.914	637.146
297.833	16.256	849.826	636.322
298.847	16.419	848.813	636.118
299.862	16.179	848.822	635.168
300.876	16.204	848.165	634.712
301.891	16.277	847.579	634.492
302.906	16.220	847.278	633.996
303.920	16.282	846.184	633.357
304.935	16.341	845.729	633.181
305.949	16.340	845.198	632.720
306.964	16.528	844.086	632.537
307.979	16.292	844.208	631.690
308.993	16.426	843.094	631.302
310.008	16.481	842.743	631.187
311.022	16.541	842.096	630.871
312.037	16.352	841.940	629.993
313.052	16.463	841.023	629.665
314.066	16.450	840.713	629.330
315.081	16.431	840.430	628.990
316.095	16.402	839.737	628.307
317.110	16.341	839.192	627.618
318.125	16.376	838.672	627.306
319.139	16.430	838.289	627.161
320.154	16.378	837.595	626.394
321.168	16.385	837.414	626.230
322.183	16.577	836.317	626.065
323.197	16.485	836.151	625.543
324.212	16.500	835.392	624.976
325.227	16.623	834.945	625.040
326.241	16.527	834.364	624.198
327.256	16.602	833.345	623.658
328.270	16.621	833.314	623.648
329.285	16.576	832.620	622.906
330.300	16.551	832.516	622.684
331.314	16.589	831.055	621.676
332.329	16.581	830.936	621.501
333.343	16.636	829.746	620.757
334.358	16.768	829.704	621.157
335.373	16.762	829.092	620.619
336.387	16.727	828.650	620.106
337.402	16.686	828.131	619.513
338.416	16.810	827.308	619.295
339.431	16.765	827.317	619.082
340.446	16.913	826.117	618.672
341.460	16.863	825.612	618.055
342.475	16.725	825.523	617.429
343.489	16.858	825.154	617.584
344.504	17.014	824.086	617.298
345.519	17.097	823.463	617.079
346.533	17.073	823.237	616.769
347.548	17.003	822.785	616.121
348.562	17.047	822.012	615.648
349.577	17.053	821.356	615.123
350.592	16.971	820.839	614.386
351.606	16.879	820.821	613.984
352.621	16.971	820.500	614.023
353.635	17.035	819.812	613.683
354.650	17.001	819.649	613.385
355.665	16.964	819.249	612.899
356.679	17.066	818.813	612.886
357.694	17.093	817.931	612.268
358.708	17.133	817.464	612.008
359.723	17.014	816.978	611.161
360.738	17.198	816.433	611.363
361.752	16.985	816.055	610.259
362.767	17.091	815.544	610.204
363.781	17.203	815.037	610.172
364.796	17.203	814.923	610.034
365.810	17.227	814.126	609.470
366.825	17.245	813.861	609.281
367.840	17.483	813.275	609.643
368.854	17.346	813.026	608.908
369.869	17.185	812.871	608.163
370.883	17.266	811.706	607.527
371.898	17.207	811.808	607.339
372.913	17.231	810.889	606.684
373.927	17.370	810.371	606.737
374.942	17.419	809.467	606.181
375.956	17.515	808.668	605.873
376.971	17.333	808.456	605.013
377.986	17.433	808.052	605.010
379.000	17.429	807.546	604.567
380.015	17.550	807.174	604.661
381.029	17.598	806.498	604.272
382.044	17.434	805.977	603.249
383.059	17.602	805.382	603.344
384.073	17.651	804.478	602.788
385.088	17.551	804.168	602.147
386.102	17.565	803.345	601.529
387.117	17.543	803.241	601.319
388.132	17.684	802.340	601.090
389.146	17.626	802.078	600.635
390.161	17.613	801.667	600.229
391.175	17.629	801.593	600.177
392.190	17.685	800.967	599.852
393.205	17.456	800.905	598.947
394.219	17.765	800.258	599.495
395.234	17.618	799.820	598.596
396.248	17.664	799.157	598.209
397.263	17.771	798.769	598.242
398.278	17.513	798.706	597.236
399.292	17.687	798.060	597.310
400.307	17.705	797.573	596.956
401.321	17.624	797.295	596.412
402.336	17.680	797.047	596.369
403.350	17.664	796.509	595.858
404.365	17.746	795.839	595.592
405.380	17.770	795.181	595.129
406.394	17.789	795.249	595.194
407.409	17.947	794.444	595.090
408.423	18.028	793.862	594.883
409.438	17.941	793.590	594.324
410.453	18.012	793.277	594.282
411.467	17.998	792.887	593.890
412.482	17.969	792.244	593.257
413.496	17.986	791.795	592.925
414.511	17.990	791.624	592.759
415.526	18.135	791.035	592.767
416.540	18.041	790.788	592.204
417.555	18.119	790.310	592.063
418.569	18.224	789.950	592.106
419.584	18.025	789.573	591.083
420.599	18.224	788.568	590.966
421.613	115.647	1296.895	1489.085
422.628	99.479	1370.939	1489.172
