DTS Sentinel unit serial number:	SN413079Multiplexer serial number:	ORYXHardware model number:	OX4-SRSoftware version number:	ORYX F/W v4.00 Oryx Data Collector v3.7.2.0data status	okinstallation	princeton_trtdifferential loss correction	single-endedforward channel	channel 3reverse channel	N/Adate	2019/09/12time	07:50:11forward acquisition time	60.00reverse acquisition time	0.00gamma	496.2192k internal	0.2315k external	0.2315temperature offset calibration	1.0037default loss term (dB/km)	0.3790temperature slope calibration	1.0000multiplexer offset coefficient	1.0000multiplexer slope coefficient	1.0000fibre end	0.00T internal ref (°C)	32.87T ext. ref 1 (°C)	1.65T ext. ref 2 (°C)	28.97length (m)	temperature (°C)	Stokes	anti-Stokes-747.200	800.000	-0.036	-0.155
-746.185	31.285	-0.181	0.157
-745.171	118.141	-0.129	0.161
-744.156	115.047	-0.025	-0.031
-743.142	800.000	-0.056	0.204
-742.127	-200.000	0.015	0.338
-741.112	151.938	0.206	-0.284
-740.098	606.005	-0.045	-0.114
-739.083	-21.869	-0.164	-0.101
-738.069	800.000	0.085	0.335
-737.054	-13.531	0.249	0.163
-736.039	3.651	-0.211	0.156
-735.025	70.584	-0.174	-0.182
-734.010	-24.954	-0.009	-0.006
-732.996	-60.190	0.316	-0.137
-731.981	-30.226	-0.413	-0.237
-730.966	132.964	-0.304	-0.397
-729.952	-99.838	0.331	0.084
-728.937	207.571	-0.074	0.116
-727.923	-200.000	0.057	0.274
-726.908	-15.994	-0.389	-0.251
-725.894	800.000	0.050	0.201
-724.879	74.410	0.036	-0.038
-723.864	-159.183	-0.093	-0.005
-722.850	47.176	0.045	-0.043
-721.835	63.524	-0.299	-0.304
-720.821	-7.719	0.139	0.095
-719.806	76.454	-0.121	-0.130
-718.791	535.242	-0.084	-0.202
-717.777	49.528	-0.352	-0.336
-716.762	-12.807	-0.287	-0.189
-715.748	-200.000	0.033	-0.213
-714.733	800.000	0.028	-0.105
-713.718	-181.555	0.527	-0.010
-712.704	800.000	0.161	0.530
-711.689	9.938	-0.244	0.187
-710.675	59.480	-0.033	0.033
-709.660	-66.190	0.122	0.049
-708.645	-200.000	0.005	-0.032
-707.631	-90.321	-0.055	0.016
-706.616	-49.261	-0.199	-0.096
-705.602	433.515	-0.027	-0.059
-704.587	505.833	0.100	0.235
-703.572	648.046	0.096	-0.249
-702.558	-110.470	0.362	-0.076
-701.543	379.187	-0.041	0.085
-700.529	346.332	-0.060	0.120
-699.514	501.488	0.142	-0.331
-698.499	-132.143	-0.287	-0.038
-697.485	-130.794	-0.088	-0.012
-696.470	567.423	0.186	-0.457
-695.456	-105.143	-0.094	0.022
-694.441	182.264	0.118	-0.175
-693.426	-14.221	0.169	0.110
-692.412	-163.197	-0.146	-0.007
-691.397	-172.679	0.238	-0.008
-690.383	28.930	0.056	0.048
-689.368	-200.000	-0.000	-0.066
-688.354	-200.000	0.015	-0.083
-687.339	-87.961	-0.076	0.023
-686.324	800.000	0.033	0.097
-685.310	158.538	-0.111	-0.156
-684.295	550.242	-0.094	0.228
-683.281	-200.000	0.008	-0.256
-682.266	26.897	0.183	0.155
-681.251	18.642	-0.144	0.116
-680.237	26.869	0.230	0.195
-679.222	-200.000	0.081	0.360
-678.208	800.000	-0.058	-0.178
-677.193	-113.403	-0.355	-0.070
-676.178	795.066	0.063	0.176
-675.164	-89.427	-0.113	-0.034
-674.149	105.678	-0.077	-0.092
-673.135	800.000	-0.027	-0.101
-672.120	-18.886	0.292	-0.184
-671.105	-44.130	0.325	-0.165
-670.091	-200.000	0.018	-0.099
-669.076	800.000	0.058	-0.198
-668.062	574.852	-0.081	-0.201
-667.047	-200.000	-0.010	-0.091
-666.032	-8.724	-0.128	0.087
-665.018	70.052	0.136	0.141
-664.003	51.891	0.114	0.110
-662.989	-114.266	-0.427	0.083
-661.974	-200.000	0.011	0.169
-660.959	-138.107	-0.348	0.039
-659.945	50.291	-0.087	-0.083
-658.930	800.000	-0.062	0.185
-657.916	493.021	0.053	-0.122
-656.901	16.350	-0.324	-0.258
-655.886	93.009	0.189	-0.216
-654.872	-81.262	-0.178	0.059
-653.857	-33.342	0.136	0.076
-652.843	800.000	0.023	0.065
-651.828	722.507	-0.107	0.287
-650.814	-200.000	-0.001	-0.124
-649.799	-124.598	0.301	-0.047
-648.784	800.000	-0.113	-0.474
-647.770	800.000	-0.076	-0.230
-646.755	-200.000	-0.002	-0.087
-645.741	-200.000	-0.010	-0.369
-644.726	-63.604	-0.197	0.081
-643.711	290.974	-0.118	-0.217
-642.697	-58.778	0.359	0.157
-641.682	526.865	-0.038	0.091
-640.668	800.000	0.045	-0.162
-639.653	-200.000	-0.036	0.165
-638.638	26.227	-0.315	0.265
-637.624	-39.477	0.178	-0.094
-636.609	-25.059	0.037	-0.022
-635.595	-53.995	0.153	0.070
-634.580	424.620	-0.081	-0.176
-633.565	290.595	-0.137	0.250
-632.551	-33.971	-0.174	0.097
-631.536	-147.740	0.304	0.026
-630.522	-143.456	0.034	0.003
-629.507	-200.000	0.026	0.169
-628.492	161.952	-0.254	-0.360
-627.478	-27.873	-0.232	-0.135
-626.463	-172.164	-0.105	0.003
-625.449	14.197	-0.236	-0.186
-624.434	-200.000	0.017	-0.300
-623.419	19.961	0.170	-0.139
-622.405	-200.000	0.003	-0.183
-621.390	800.000	0.048	-0.163
-620.376	-76.058	-0.196	-0.070
-619.361	550.348	0.116	-0.281
-618.346	-200.000	-0.022	0.232
-617.332	21.241	-0.214	-0.176
-616.317	504.383	0.082	-0.191
-615.303	800.000	-0.054	-0.157
-614.288	253.454	-0.131	0.225
-613.273	-109.099	0.150	0.032
-612.259	-104.783	-0.111	-0.026
-611.244	-49.597	0.098	0.047
-610.230	40.763	-0.164	0.149
-609.215	363.042	-0.276	-0.559
-608.201	-200.000	0.025	0.189
-607.186	500.912	-0.128	-0.299
-606.171	58.387	0.225	-0.223
-605.157	800.000	-0.045	-0.154
-604.142	162.859	0.293	0.415
-603.128	51.521	0.322	0.309
-602.113	-200.000	-0.051	0.231
-601.098	-162.222	-0.221	0.011
-600.084	23.919	-0.119	0.099
-599.069	-7.230	0.137	0.094
-598.055	-133.899	-0.187	-0.023
-597.040	-135.807	-0.229	-0.027
-596.025	731.046	0.064	0.172
-595.011	-133.555	-0.271	-0.034
-593.996	-72.353	0.426	0.159
-592.982	497.404	-0.067	0.154
-591.967	26.091	-0.189	0.159
-590.952	-26.046	-0.270	0.160
-589.938	123.786	-0.149	0.189
-588.923	-200.000	-0.009	-0.257
-587.909	-47.795	-0.206	0.101
-586.894	155.036	-0.200	0.277
-585.879	-90.184	-0.228	0.067
-584.865	59.724	0.158	0.157
-583.850	-200.000	0.023	-0.128
-582.836	-200.000	0.010	0.107
-581.821	92.706	0.037	-0.042
-580.806	-200.000	0.020	-0.135
-579.792	800.000	-0.076	-0.232
-578.777	-200.000	0.048	0.382
-577.763	-165.493	-0.077	-0.003
-576.748	25.568	0.222	-0.186
-575.733	-63.094	0.185	0.077
-574.719	-0.982	0.044	-0.031
-573.704	154.003	-0.139	0.191
-572.690	25.150	0.268	-0.224
-571.675	-93.913	-0.283	0.078
-570.661	-57.570	0.184	0.081
-569.646	262.751	0.185	0.324
-568.631	-56.764	-0.197	-0.088
-567.617	12.181	0.184	-0.142
-566.602	-130.123	0.387	0.053
-565.588	334.772	0.061	0.119
-564.573	-200.000	-0.037	-0.220
-563.558	737.811	0.102	-0.277
-562.544	74.810	0.101	-0.107
-561.529	138.447	0.084	0.111
-560.515	-200.000	0.017	-0.223
-559.500	800.000	-0.097	0.412
-558.485	133.579	0.196	0.255
-557.471	800.000	0.058	-0.195
-556.456	-77.431	-0.310	-0.108
-555.442	-21.052	-0.093	-0.057
-554.427	-200.000	0.011	-0.334
-553.412	-123.070	-0.149	0.024
-552.398	30.887	-0.155	-0.134
-551.383	-134.465	-0.153	-0.019
-550.369	800.000	0.049	-0.159
-549.354	-126.079	-0.158	-0.024
-548.339	-174.878	-0.037	0.001
-547.325	-200.000	0.032	0.219
-546.310	-200.000	-0.017	-0.236
-545.296	-200.000	-0.004	-0.023
-544.281	115.589	0.071	-0.088
-543.266	-34.168	0.396	0.219
-542.252	-200.000	0.046	0.270
-541.237	89.278	-0.243	-0.273
-540.223	-200.000	0.003	0.031
-539.208	114.476	-0.197	0.242
-538.193	23.458	0.114	0.094
-537.179	28.329	-0.127	-0.108
-536.164	-169.085	-0.246	-0.009
-535.150	28.437	-0.141	0.120
-534.135	-137.583	0.412	0.047
-533.121	-27.172	-0.169	-0.099
-532.106	-19.050	-0.288	0.180
-531.091	344.651	-0.142	0.280
-530.077	20.960	-0.077	-0.062
-529.062	-130.873	-0.403	-0.054
-528.048	-28.550	-0.089	-0.052
-527.033	164.707	-0.169	0.240
-526.018	-10.935	-0.226	0.150
-525.004	61.214	0.242	0.242
-523.989	-88.508	0.161	-0.048
-522.975	-200.000	-0.001	-0.105
-521.960	-108.070	-0.235	0.051
-520.945	-143.492	-0.145	-0.014
-519.931	-200.000	0.038	0.239
-518.916	25.789	-0.144	0.120
-517.902	122.907	-0.106	0.133
-516.887	-170.289	-0.277	0.010
-515.872	128.575	0.085	-0.109
-514.858	-200.000	-0.006	-0.333
-513.843	37.633	0.209	-0.186
-512.829	800.000	0.036	-0.114
-511.814	138.991	0.154	0.203
-510.799	-36.358	0.339	-0.184
-509.785	520.884	-0.144	-0.340
-508.770	-2.311	0.096	0.068
-507.756	389.029	-0.057	-0.119
-506.741	174.595	0.166	-0.240
-505.726	-128.527	-0.212	0.030
-504.712	390.181	0.094	-0.196
-503.697	-134.315	0.326	-0.040
-502.683	64.558	0.196	-0.198
-501.668	115.220	-0.267	-0.327
-500.653	74.800	-0.091	-0.096
-499.639	-179.671	0.177	0.004
-498.624	78.070	-0.090	0.096
-497.610	373.004	-0.131	-0.267
-496.595	800.000	-0.066	0.186
-495.581	3.174	0.158	0.116
-494.566	41.885	0.053	0.048
-493.551	-46.282	0.167	-0.082
-492.537	-54.023	-0.261	0.119
-491.522	-200.000	0.024	-0.183
-490.508	83.732	-0.067	0.074
-489.493	22.767	-0.117	0.096
-488.478	-200.000	0.077	0.000
-487.464	103.302	0.254	0.299
-486.449	-200.000	-0.004	-0.051
-485.435	-77.598	0.050	-0.017
-484.420	-81.989	0.173	-0.057
-483.405	183.084	0.231	-0.342
-482.391	800.000	-0.057	0.245
-481.376	-173.727	-0.278	0.008
-480.362	-35.508	-0.222	-0.121
-479.347	-55.136	-0.178	-0.080
-478.332	75.504	0.154	-0.163
-477.318	-200.000	0.228	0.001
-476.303	-61.937	-0.221	-0.093
-475.289	-95.284	-0.045	-0.012
-474.274	-200.000	-0.020	-0.278
-473.259	-200.000	-0.003	0.259
-472.245	80.514	0.301	-0.326
-471.230	-200.000	0.001	-0.222
-470.216	112.705	0.069	-0.084
-469.201	85.158	-0.125	-0.138
-468.186	-200.000	0.008	-0.081
-467.172	-50.529	-0.125	-0.059
-466.157	-67.079	0.256	-0.101
-465.143	153.353	0.109	0.150
-464.128	800.000	-0.082	-0.231
-463.113	32.070	-0.343	-0.296
-462.099	-163.081	-0.065	0.003
-461.084	-17.121	-0.105	0.066
-460.070	224.353	0.113	0.184
-459.055	-55.249	-0.152	0.068
-458.040	73.998	0.110	0.115
-457.026	-148.369	-0.088	-0.007
-456.011	-148.461	0.085	-0.007
-454.997	-35.919	-0.210	0.114
-453.982	88.883	0.199	0.222
-452.968	-131.455	0.402	0.053
-451.953	15.210	-0.239	0.187
-450.938	-200.000	-0.024	0.532
-449.924	99.724	-0.205	0.237
-448.909	800.000	0.039	-0.135
-447.895	117.400	0.146	0.180
-446.880	-200.000	0.009	-0.103
-445.865	-95.230	0.125	-0.034
-444.851	800.000	0.063	-0.276
-443.836	800.000	-0.055	-0.201
-442.822	-101.660	0.199	0.048
-441.807	347.777	-0.177	-0.348
-440.792	347.057	-0.106	-0.209
-439.778	114.210	0.081	0.099
-438.763	98.466	0.204	-0.236
-437.749	-32.384	-0.098	-0.055
-436.734	793.104	0.087	0.239
-435.719	55.841	-0.297	-0.288
-434.705	28.082	0.137	-0.116
-433.690	-36.135	0.117	-0.063
-432.676	800.000	-0.087	-0.263
-431.661	-86.626	-0.193	0.059
-430.646	800.000	0.078	0.237
-429.632	-106.384	0.204	-0.046
-428.617	487.740	-0.080	0.182
-427.603	196.614	0.069	0.105
-426.588	-200.000	-0.022	0.156
-425.573	584.421	0.124	-0.306
-424.559	-39.952	-0.340	-0.178
-423.544	197.035	0.154	-0.236
-422.530	-95.475	-0.056	-0.015
-421.515	81.102	0.015	-0.016
-420.500	-200.000	0.208	-0.001
-419.486	359.250	0.030	-0.061
-418.471	-200.000	-0.000	0.136
-417.457	41.716	0.003	-0.003
-416.442	-200.000	-0.045	0.258
-415.428	-149.508	-0.348	0.028
-414.413	-200.000	0.042	0.360
-413.398	-149.086	-0.207	0.017
-412.384	-200.000	0.022	-0.186
-411.369	800.000	0.103	-0.325
-410.355	-27.332	-0.049	0.029
-409.340	39.152	0.272	0.243
-408.325	-106.518	0.049	0.011
-407.311	800.000	0.076	-0.305
-406.296	365.098	0.042	-0.085
-405.282	88.430	-0.120	-0.133
-404.267	56.987	0.044	0.043
-403.252	800.000	0.022	-0.086
-402.238	-193.944	0.302	-0.003
-401.223	-50.959	-0.054	0.025
-400.209	-200.000	0.049	-0.312
-399.194	-200.000	0.021	0.226
-398.179	288.613	-0.013	-0.023
-397.165	-167.543	0.253	-0.010
-396.150	16.158	-0.230	0.181
-395.136	89.714	0.269	0.300
-394.121	-91.968	0.535	-0.152
-393.106	-200.000	0.003	-0.085
-392.092	433.686	-0.115	0.249
-391.077	206.292	0.201	0.312
-390.063	-97.256	0.142	-0.037
-389.048	172.931	-0.081	0.116
-388.033	-90.662	-0.123	-0.035
-387.019	159.602	-0.118	0.165
-386.004	95.461	0.086	-0.097
-384.990	51.727	-0.145	-0.138
-383.975	518.427	0.016	0.037
-382.960	-114.802	0.194	0.037
-381.946	-64.733	-0.162	-0.066
-380.931	-4.237	-0.110	-0.076
-379.917	-104.417	-0.385	-0.089
-378.902	800.000	0.056	-0.234
-377.888	662.448	0.157	0.405
-376.873	66.307	0.152	0.154
-375.858	105.284	-0.206	0.243
-374.844	57.379	-0.272	0.266
-373.829	-30.162	-0.060	0.034
-372.815	261.116	-0.086	0.149
-371.800	578.333	-0.175	0.428
-370.785	249.792	-0.131	0.221
-369.771	800.000	0.073	0.313
-368.756	-91.507	-0.178	0.051
-367.742	125.132	0.052	-0.065
-366.727	-111.401	-0.204	-0.042
-365.712	563.394	0.088	-0.213
-364.698	-200.000	-0.019	0.202
-363.683	-9.140	0.239	0.159
-362.669	800.000	-0.065	-0.210
-361.654	135.662	-0.076	0.099
-360.639	446.055	-0.155	0.341
-359.625	-10.503	0.122	-0.081
-358.610	-153.456	-0.195	-0.013
-357.596	-200.000	0.034	0.156
-356.581	-170.527	-0.371	-0.013
-355.566	-200.000	-0.063	-0.293
-354.552	-62.475	0.124	0.052
-353.537	27.527	-0.002	0.002
-352.523	-142.405	0.116	0.011
-351.508	800.000	-0.063	0.204
-350.493	21.054	0.165	0.134
-349.479	79.378	0.267	-0.286
-348.464	-200.000	0.001	-0.008
-347.450	105.208	-0.164	0.193
-346.435	-120.300	-0.167	-0.028
-345.420	157.797	0.133	0.184
-344.406	-200.000	0.030	-0.161
-343.391	212.338	0.064	0.100
-342.377	366.580	0.061	0.123
-341.362	-122.701	-0.309	0.050
-340.348	-200.000	-0.024	-0.160
-339.333	-94.692	0.119	-0.032
-338.318	38.052	0.191	-0.169
-337.304	-94.158	-0.394	-0.108
-336.289	-66.886	0.229	0.090
-335.275	-200.000	0.018	-0.110
-334.260	800.000	0.088	-0.369
-333.245	-82.963	-0.179	0.058
-332.231	57.466	0.213	-0.207
-331.216	800.000	-0.035	0.116
-330.202	-152.684	-0.163	-0.012
-329.187	11.399	-0.328	0.250
-328.172	-155.042	0.304	0.020
-327.158	681.946	0.064	0.167
-326.143	-200.000	0.002	-0.058
-325.129	269.978	0.077	-0.135
-324.114	-83.771	-0.165	-0.052
-323.099	800.000	-0.105	0.385
-322.085	625.672	-0.022	0.056
-321.070	-200.000	-0.001	-0.276
-320.056	0.817	-0.206	0.147
-319.041	-200.000	-0.007	0.066
-318.026	789.379	0.165	0.452
-317.012	-200.000	0.030	0.379
-315.997	-143.249	0.401	-0.038
-314.983	245.431	-0.090	0.150
-313.968	742.525	-0.122	-0.327
-312.953	-200.000	-0.040	-0.189
-311.939	-200.000	0.017	-0.122
-310.924	414.460	-0.183	0.387
-309.910	214.933	-0.047	-0.074
-308.895	50.365	0.149	0.140
-307.880	-107.513	0.235	-0.051
-306.866	125.449	0.061	0.077
-305.851	800.000	0.087	0.297
-304.837	800.000	-0.050	0.193
-303.822	-80.340	-0.217	0.072
-302.807	-133.547	0.423	0.053
-301.793	-159.331	-0.101	0.006
-300.778	14.436	-0.191	0.148
-299.764	173.611	0.098	-0.141
-298.749	278.147	0.168	-0.297
-297.735	-200.000	0.006	0.102
-296.720	29.617	0.262	-0.222
-295.705	800.000	-0.046	-0.165
-294.691	-19.837	0.274	-0.168
-293.676	384.378	0.021	-0.042
-292.662	-31.784	-0.154	-0.086
-291.647	-107.929	-0.088	0.019
-290.632	49.759	0.194	-0.182
-289.618	-87.613	0.548	-0.165
-288.603	-69.728	-0.054	-0.020
-287.589	800.000	0.021	-0.084
-286.574	-80.656	0.079	0.026
-285.559	-33.627	-0.409	-0.225
-284.545	-58.955	-0.430	-0.185
-283.530	339.606	0.127	0.246
-282.516	-102.782	0.311	0.074
-281.501	-175.984	0.297	-0.008
-280.486	-89.754	0.192	-0.056
-279.472	-200.000	0.017	-0.253
-278.457	-200.000	-0.071	-0.519
-277.443	-200.000	0.000	0.426
-276.428	352.701	0.072	-0.142
-275.413	4.665	0.059	0.043
-274.399	-139.509	-0.357	-0.038
-273.384	-0.467	0.184	-0.130
-272.370	153.203	0.053	-0.072
-271.355	800.000	0.107	-0.395
-270.340	120.456	-0.171	-0.212
-269.326	125.314	0.110	-0.138
-268.311	-153.719	0.022	-0.001
-267.297	-104.066	0.200	-0.046
-266.282	81.722	-0.016	-0.017
-265.267	-133.898	-0.172	0.021
-264.253	800.000	-0.072	-0.241
-263.238	-200.000	0.019	-0.148
-262.224	21.963	-0.058	-0.047
-261.209	-56.268	-0.229	-0.101
-260.195	-138.676	-0.288	0.031
-259.180	800.000	0.043	-0.126
-258.165	16.440	0.380	0.298
-257.151	216.228	0.050	-0.079
-256.136	-43.562	0.068	0.034
-255.122	-61.690	0.401	0.167
-254.107	8.903	-0.078	-0.058
-253.092	754.531	-0.079	0.213
-252.078	455.673	-0.025	0.054
-251.063	669.603	0.078	-0.201
-250.049	243.717	-0.147	0.245
-249.034	41.551	0.096	0.087
-248.019	603.870	0.071	-0.177
-247.005	-200.000	0.012	-0.140
-245.990	-40.968	0.362	0.186
-244.976	214.530	0.020	-0.032
-243.961	-200.000	0.022	0.134
-242.946	127.760	-0.180	0.228
-241.932	-200.000	-0.005	-0.021
-240.917	267.936	-0.155	-0.270
-239.903	-170.387	0.154	0.005
-238.888	40.319	0.017	-0.015
-237.873	56.127	0.133	-0.128
-236.859	-200.000	-0.049	-0.289
-235.844	-105.460	-0.159	-0.036
-234.830	-50.423	-0.034	-0.016
-233.815	30.193	-0.173	0.147
-232.800	33.997	0.170	-0.147
-231.786	-41.525	-0.348	-0.178
-230.771	-190.001	0.052	-0.001
-229.757	-53.386	-0.180	-0.082
-228.742	-200.000	0.013	-0.123
-227.727	211.058	0.143	0.224
-226.713	-200.000	0.038	0.315
-225.698	-124.734	0.188	-0.029
-224.684	166.636	0.257	-0.362
-223.669	-143.677	-0.308	-0.029
-222.655	359.172	-0.042	0.083
-221.640	800.000	-0.072	0.200
-220.625	-200.000	0.039	0.240
-219.611	-90.774	0.381	-0.109
-218.596	-5.154	-0.256	-0.175
-217.582	-102.572	-0.234	-0.056
-216.567	-134.607	0.044	-0.005
-215.552	-63.860	0.186	0.076
-214.538	116.061	-0.211	-0.257
-213.523	20.974	0.146	0.118
-212.509	-62.068	-0.174	0.072
-211.494	39.689	-0.079	0.070
-210.479	-5.892	-0.047	0.032
-209.465	798.238	-0.084	0.231
-208.450	-200.000	0.009	-0.454
-207.436	-150.262	-0.230	0.018
-206.421	5.243	0.394	-0.288
-205.406	-7.143	-0.218	0.147
-204.392	-50.666	-0.136	0.064
-203.377	167.942	-0.179	0.253
-202.363	-200.000	-0.030	0.359
-201.348	111.757	-0.054	0.064
-200.333	28.747	0.179	-0.151
-199.319	-200.000	0.011	-0.368
-198.304	-113.190	0.357	-0.070
-197.290	113.910	-0.169	-0.204
-196.275	-200.000	0.076	0.370
-195.260	320.415	0.130	-0.246
-194.246	580.638	0.073	-0.178
-193.231	428.006	0.140	-0.300
-192.217	-110.263	0.282	0.058
-191.202	68.375	0.087	0.088
-190.187	-200.000	0.009	-0.388
-189.173	-14.574	0.213	0.136
-188.158	-61.143	0.361	0.151
-187.144	-36.111	0.088	-0.047
-186.129	73.729	0.167	0.173
-185.114	29.711	0.094	0.079
-184.100	121.509	0.191	-0.236
-183.085	-63.113	-0.156	0.064
-182.071	-21.713	-0.186	-0.112
-181.056	-200.000	-0.036	0.398
-180.042	353.778	0.131	0.258
-179.027	306.200	-0.123	0.227
-178.012	123.706	0.213	0.266
-176.998	-33.370	-0.097	-0.053
-175.983	274.791	-0.113	0.199
-174.969	267.878	-0.088	0.152
-173.954	166.812	-0.144	-0.202
-172.939	800.000	-0.063	-0.180
-171.925	144.467	0.148	0.196
-170.910	23.797	-0.063	0.051
-169.896	50.109	0.202	0.189
-168.881	402.763	0.112	0.233
-167.866	85.881	-0.092	0.100
-166.852	381.110	-0.079	0.161
-165.837	-95.170	-0.102	0.027
-164.823	-200.000	0.016	0.135
-163.808	102.006	0.309	-0.357
-162.793	-120.792	-0.038	0.006
-161.779	325.758	-0.125	0.238
-160.764	375.071	0.095	0.192
-159.750	318.022	-0.172	0.323
-158.735	-200.000	0.034	0.213
-157.720	100.451	-0.245	0.282
-156.706	310.588	0.130	0.241
-155.691	91.253	-0.310	0.345
-154.677	115.710	0.263	-0.319
-153.662	-21.607	-0.261	-0.158
-152.647	-80.545	0.248	-0.082
-151.633	-200.000	-0.013	0.631
-150.618	89.684	0.163	-0.180
-149.604	-200.000	0.035	0.274
-148.589	-66.895	-0.232	0.091
-147.574	-122.086	0.286	0.046
-146.560	-200.000	0.035	-0.214
-145.545	-48.845	-0.183	0.087
-144.531	67.231	-0.161	0.163
-143.516	234.638	0.085	-0.139
-142.502	178.512	0.122	0.177
-141.487	149.143	0.053	0.072
-140.472	800.000	-0.071	-0.291
-139.458	327.045	-0.077	0.146
-138.443	800.000	0.102	-0.292
-137.429	-80.944	0.357	-0.117
-136.414	78.809	0.177	-0.188
-135.399	-200.000	-0.042	0.575
-134.385	406.305	0.133	-0.278
-133.370	207.310	0.106	0.163
-132.356	96.779	-0.126	-0.143
-131.341	800.000	-0.091	0.294
-130.326	-200.000	0.029	0.225
-129.312	-39.424	0.040	0.021
-128.297	800.000	-0.040	0.148
-127.283	-191.492	-0.267	-0.003
-126.268	74.369	0.047	-0.049
-125.253	-32.717	0.514	0.283
-124.239	-174.171	0.252	-0.007
-123.224	-200.000	-0.008	0.116
-122.210	1.797	0.169	0.120
-121.195	253.349	0.069	0.116
-120.180	-28.248	0.468	-0.267
-119.166	-86.786	0.346	-0.105
-118.151	53.315	0.178	-0.168
-117.137	-36.311	0.279	-0.149
-116.122	84.189	0.041	-0.045
-115.107	44.374	0.082	-0.075
-114.093	-35.140	0.126	0.068
-113.078	78.548	-0.057	-0.060
-112.064	-9.911	-0.230	-0.151
-111.049	35.288	0.062	0.054
-110.034	-112.370	-0.205	-0.040
-109.020	303.482	0.088	-0.162
-108.005	-18.383	-0.085	0.052
-106.991	800.000	0.147	0.592
-105.976	-132.287	0.149	0.019
-104.962	-53.452	-0.410	-0.186
-103.947	268.575	-0.028	-0.049
-102.932	13.225	0.237	0.182
-101.918	149.159	0.096	-0.129
-100.903	-200.000	0.008	-0.451
-99.889	-18.726	-0.184	0.113
-98.874	-200.000	-0.001	0.279
-97.859	-169.744	-0.004	-0.000
-96.845	-200.000	-0.033	0.165
-95.830	248.605	0.167	-0.279
-94.816	-54.770	-0.108	0.048
-93.801	800.000	0.042	0.138
-92.786	306.356	-0.054	0.100
-91.772	1.153	0.298	-0.211
-90.757	463.282	0.057	-0.125
-89.743	670.238	0.150	0.384
-88.728	273.588	0.163	0.284
-87.713	800.000	0.069	-0.211
-86.699	261.223	-0.041	0.069
-85.684	-200.000	0.018	-0.218
-84.670	2.755	-0.165	-0.119
-83.655	506.977	-0.043	0.098
-82.640	-68.877	-0.171	0.065
-81.626	-84.768	-0.063	-0.019
-80.611	-200.000	0.015	-0.132
-79.597	99.146	0.239	0.273
-78.582	800.000	0.103	-0.294
-77.567	-56.780	0.192	-0.084
-76.553	-200.000	0.032	0.283
-75.538	-164.646	-0.305	-0.014
-74.524	74.369	0.210	0.218
-73.509	619.275	-0.049	0.122
-72.494	568.070	-0.095	-0.228
-71.480	-200.000	0.021	0.121
-70.465	-22.784	-0.233	0.139
-69.451	-200.000	0.030	0.141
-68.436	-200.000	0.031	-0.144
-67.422	-49.414	0.313	0.147
-66.407	-110.538	-0.041	0.008
-65.392	800.000	0.075	0.314
-64.378	4.976	0.193	0.140
-63.363	500.583	0.076	-0.173
-62.349	-200.000	-0.007	0.062
-61.334	75.342	-0.658	-0.685
-60.319	68.479	0.610	0.618
-59.305	-200.000	-0.232	-1.027
-58.290	94.127	0.832	0.932
-57.276	282.706	0.798	1.413
-56.261	-200.000	97.731	598.277
-55.246	541.949	1408.624	3312.740
-54.232	153.062	2595.487	3502.327
-53.217	111.193	2183.726	2595.594
-52.203	43.283	1721.098	1550.577
-51.188	36.077	1533.912	1332.294
-50.173	33.632	1507.036	1292.263
-49.159	53.638	1555.684	1472.774
-48.144	55.062	1574.550	1500.432
-47.130	36.338	1532.947	1333.046
-46.115	33.172	1517.956	1298.264
-45.100	32.965	1514.570	1293.895
-44.086	32.963	1512.959	1292.458
-43.071	32.890	1511.479	1290.642
-42.057	32.922	1509.255	1288.907
-41.042	32.924	1507.838	1287.658
-40.027	32.849	1506.873	1286.275
-39.013	32.894	1505.181	1285.090
-37.998	32.792	1504.225	1283.524
-36.984	32.860	1503.135	1283.010
-35.969	32.905	1501.701	1282.039
-34.954	32.839	1500.462	1280.479
-33.940	32.919	1498.880	1279.624
-32.925	32.964	1496.936	1278.213
-31.911	32.875	1496.133	1276.876
-30.896	32.939	1494.642	1275.988
-29.881	32.972	1493.435	1275.126
-28.867	33.043	1491.767	1274.133
-27.852	32.911	1490.489	1272.100
-26.838	32.918	1489.183	1270.986
-25.823	33.004	1487.584	1270.145
-24.809	32.876	1486.101	1267.972
-23.794	32.965	1484.096	1266.805
-22.779	32.951	1482.969	1265.700
-21.765	32.837	1482.364	1264.369
-20.750	32.974	1481.123	1264.178
-19.736	32.844	1480.170	1262.447
-18.721	32.883	1479.003	1261.658
-17.706	32.813	1478.236	1260.489
-16.692	32.788	1476.935	1259.164
-15.677	32.855	1476.288	1259.005
-14.663	32.925	1474.913	1258.250
-13.648	32.778	1473.837	1256.308
-12.633	32.799	1472.839	1255.544
-11.619	32.908	1472.180	1255.657
-10.604	32.795	1471.796	1254.526
-9.590	32.838	1470.321	1253.507
-8.575	32.803	1469.501	1252.523
-7.560	32.906	1468.496	1252.304
-6.546	32.719	1468.617	1251.116
-5.531	32.902	1466.889	1250.809
-4.517	32.847	1465.905	1249.552
-3.502	32.796	1465.020	1248.414
-2.487	32.787	1463.950	1247.388
-1.473	32.753	1462.589	1245.960
-0.458	32.778	1461.746	1245.355
0.556	32.983	1451.978	1235.623
1.571	30.201	1427.274	1196.569
2.586	27.032	1369.998	1128.791
3.600	25.465	1290.096	1053.680
4.615	24.085	1243.417	1007.661
5.629	20.197	1185.012	939.230
6.644	10.354	1096.664	819.559
7.659	2.827	1054.543	751.274
8.673	1.830	1049.490	742.749
9.688	1.790	1045.831	739.902
10.702	1.516	1044.862	737.821
11.717	1.475	1042.400	735.819
12.731	4.498	1045.789	752.812
13.746	14.386	1060.320	811.581
14.761	22.687	1071.115	860.445
15.775	24.913	1072.718	872.518
16.790	25.024	1073.153	873.335
17.804	25.040	1071.730	872.180
18.819	24.841	1070.812	870.387
19.834	24.813	1070.335	869.786
20.848	25.024	1070.223	870.642
21.863	25.021	1070.200	870.535
22.877	25.127	1069.780	870.627
23.892	25.100	1068.782	869.606
24.907	25.033	1067.232	867.944
25.921	25.096	1067.068	868.042
26.936	25.054	1066.553	867.343
27.950	25.107	1064.944	866.211
28.965	25.017	1064.178	865.076
29.980	24.838	1062.741	862.973
30.994	24.856	1061.739	862.168
32.009	25.026	1060.679	862.047
33.023	25.052	1059.848	861.423
34.038	24.950	1058.459	859.727
35.053	24.980	1057.985	859.409
36.067	24.984	1057.650	859.079
37.082	25.116	1056.551	858.743
38.096	25.078	1056.018	858.055
39.111	25.218	1055.695	858.387
40.126	25.324	1054.746	858.045
41.140	25.269	1053.430	856.635
42.155	24.989	1051.931	854.008
43.169	24.627	1050.645	851.161
44.184	24.692	1050.067	850.929
45.199	24.754	1049.180	850.431
46.213	24.733	1047.807	849.142
47.228	24.602	1047.128	847.894
48.242	24.740	1046.301	847.803
49.257	24.935	1045.747	848.206
50.271	24.942	1045.034	847.584
51.286	25.056	1044.619	847.710
52.301	25.136	1043.523	847.126
53.315	25.179	1043.072	846.885
54.330	25.049	1042.538	845.767
55.344	24.984	1041.319	844.392
56.359	25.036	1040.451	843.860
57.374	25.064	1039.717	843.322
58.388	24.828	1038.920	841.492
59.403	24.820	1038.050	840.676
60.417	24.876	1037.540	840.452
61.432	24.598	1037.108	838.724
62.447	24.696	1035.790	838.041
63.461	24.678	1035.895	837.967
64.476	24.810	1035.131	837.893
65.490	24.783	1033.856	836.663
66.505	24.713	1033.102	835.650
67.520	24.732	1032.265	834.988
68.534	24.859	1031.778	835.111
69.549	24.677	1030.497	833.153
70.563	24.353	1029.239	830.556
71.578	24.272	1028.854	829.791
72.593	24.319	1027.924	829.186
73.607	24.099	1026.339	826.817
74.622	24.310	1025.080	826.706
75.636	24.517	1025.071	827.586
76.651	24.612	1024.223	827.267
77.666	24.479	1023.306	825.837
78.680	24.434	1022.403	824.826
79.695	24.556	1021.613	824.683
80.709	24.516	1021.484	824.318
81.724	24.672	1020.765	824.384
82.739	24.604	1019.275	822.795
83.753	24.721	1018.796	822.877
84.768	24.818	1018.807	823.257
85.782	25.197	1017.887	824.182
86.797	25.367	1017.163	824.306
87.812	25.375	1016.114	823.417
88.826	25.110	1015.237	821.418
89.841	25.294	1014.140	821.300
90.855	25.258	1013.883	820.855
91.870	25.304	1013.299	820.523
92.884	25.287	1012.677	819.865
93.899	25.159	1011.384	818.164
94.914	25.117	1010.226	816.962
95.928	25.314	1009.492	817.196
96.943	25.199	1009.184	816.351
97.957	25.090	1007.522	814.439
98.972	24.663	1006.677	811.746
99.987	24.652	1005.255	810.474
101.001	24.518	1005.082	809.657
102.016	24.994	1004.406	811.198
103.030	25.019	1003.593	810.582
104.045	25.056	1002.520	809.810
105.060	24.880	1001.310	807.967
106.074	24.656	1000.547	806.272
107.089	24.746	999.561	805.809
108.103	24.970	999.332	806.562
109.118	25.013	998.578	806.078
110.133	24.746	997.625	804.037
111.147	24.712	996.394	802.819
112.162	24.562	995.728	801.536
113.176	24.404	994.157	799.496
114.191	24.447	993.492	799.082
115.206	24.761	992.257	799.421
116.220	24.432	991.728	797.454
117.235	24.178	990.700	795.422
118.249	24.499	989.831	796.086
119.264	24.318	989.414	794.874
120.279	24.353	988.182	793.973
121.293	24.370	987.257	793.233
122.308	24.417	986.885	793.073
123.322	24.389	986.343	792.440
124.337	24.432	984.622	791.182
125.352	24.270	983.560	789.540
126.366	24.055	981.890	787.177
127.381	23.414	981.339	783.833
128.395	24.255	980.675	786.950
129.410	24.909	980.277	789.443
130.424	25.062	979.608	789.510
131.439	24.942	978.811	788.271
132.454	25.057	977.153	787.370
133.468	24.832	977.145	786.307
134.483	24.860	976.199	785.597
135.497	24.902	975.366	785.042
136.512	25.133	974.929	785.632
137.527	25.248	974.092	785.392
138.541	25.112	973.481	784.234
139.556	25.193	972.893	784.047
140.570	25.107	971.906	782.807
141.585	25.205	971.003	782.435
142.600	25.267	970.477	782.212
143.614	25.105	969.141	780.362
144.629	25.170	968.907	780.387
145.643	25.507	967.950	781.013
146.658	25.449	966.880	779.829
147.673	25.172	965.893	777.762
148.687	25.005	965.179	776.395
149.702	25.064	963.655	775.356
150.716	24.917	962.663	773.853
151.731	24.857	961.591	772.664
152.746	24.979	961.203	772.813
153.760	25.249	960.392	773.255
154.775	25.330	959.703	772.979
155.789	25.305	958.989	772.230
156.804	25.352	957.823	771.423
157.819	25.341	956.799	770.483
158.833	25.336	956.307	769.997
159.848	25.383	955.767	769.696
160.862	25.545	954.658	769.430
161.877	25.361	953.907	767.966
162.892	25.156	952.853	766.177
163.906	25.280	952.272	766.170
164.921	25.249	951.082	765.013
165.935	25.099	950.377	763.739
166.950	25.373	949.211	763.900
167.964	25.487	948.148	763.462
168.979	25.362	947.172	762.078
169.994	25.235	945.875	760.428
171.008	25.145	945.168	759.410
172.023	25.293	944.565	759.484
173.037	25.480	943.805	759.598
174.052	25.201	942.665	757.438
175.067	25.046	941.578	755.840
176.081	25.054	941.216	755.516
177.096	25.154	940.185	755.046
178.110	25.162	939.242	754.255
179.125	24.970	938.173	752.521
180.140	24.600	937.368	750.255
181.154	24.748	936.463	750.088
182.169	24.911	935.788	750.160
183.183	25.035	935.868	750.681
184.198	25.354	935.576	751.715
185.213	25.145	934.885	750.220
186.227	25.263	933.871	749.831
187.242	25.327	933.516	749.748
188.256	25.355	932.853	749.266
189.271	25.223	932.429	748.310
190.286	25.466	931.239	748.300
191.300	25.334	930.263	746.898
192.315	24.623	929.204	743.026
193.329	23.988	927.453	738.928
194.344	23.527	926.370	736.085
195.359	24.120	926.873	738.881
196.373	24.922	927.362	742.534
197.388	25.257	927.134	743.672
198.402	25.266	926.313	742.987
199.417	25.130	926.007	742.112
200.432	25.187	924.938	741.424
201.446	25.127	924.416	740.694
202.461	24.725	923.779	738.457
203.475	24.949	923.346	738.969
204.490	24.364	921.818	735.273
205.504	23.188	919.946	728.874
206.519	23.551	919.873	730.245
207.534	24.687	919.744	734.752
208.548	24.801	919.579	735.021
209.563	25.060	919.754	736.161
210.577	25.133	918.593	735.466
211.592	24.894	917.733	733.732
212.607	25.391	917.365	735.410
213.621	25.464	916.989	735.341
214.636	25.358	916.387	734.359
215.650	25.339	916.272	734.126
216.665	25.292	915.408	733.176
217.680	25.365	914.984	733.069
218.694	25.335	914.575	732.555
219.709	25.095	913.136	730.358
220.723	24.759	912.505	728.421
221.738	24.981	912.066	728.912
222.753	25.194	911.663	729.390
223.767	25.317	910.382	728.801
224.782	25.196	909.739	727.732
225.796	25.329	909.518	728.027
226.811	25.490	909.114	728.293
227.826	24.979	907.894	725.183
228.840	24.260	906.418	721.034
229.855	24.213	905.577	720.109
230.869	24.504	905.261	720.971
231.884	24.195	903.959	718.624
232.899	24.068	904.018	718.093
233.913	24.921	904.130	721.560
234.928	25.090	903.732	721.858
235.942	24.931	903.413	720.900
236.957	25.116	902.282	720.675
237.972	24.796	901.045	718.342
238.986	24.754	900.587	717.744
240.001	24.864	900.420	717.989
241.015	24.823	899.350	716.909
242.030	24.858	898.817	716.558
243.045	24.967	898.386	716.587
244.059	24.994	898.070	716.379
245.074	25.292	897.417	716.986
246.088	25.272	896.880	716.416
247.103	24.864	895.599	713.700
248.117	24.816	895.539	713.397
249.132	25.492	895.202	715.759
250.147	25.745	895.215	716.714
251.161	25.862	894.336	716.412
252.176	26.236	893.691	717.319
253.190	26.033	893.291	716.127
254.205	26.165	893.055	716.399
255.220	26.293	892.783	716.624
256.234	26.184	891.902	715.422
257.249	26.027	891.701	714.577
258.263	25.943	890.753	713.420
259.278	25.989	889.900	712.858
260.293	26.179	889.492	713.216
261.307	26.217	889.142	713.025
262.322	26.056	888.485	711.800
263.336	26.124	887.548	711.252
264.351	25.409	886.319	707.390
265.366	24.388	884.432	701.809
266.380	24.056	883.371	699.601
267.395	24.900	884.097	703.431
268.409	25.791	883.713	706.559
269.424	25.682	883.212	705.668
270.439	25.971	882.802	706.413
271.453	25.856	882.299	705.496
272.468	25.807	881.900	704.925
273.482	26.032	881.266	705.234
274.497	26.253	881.081	705.890
275.512	26.098	879.703	704.115
276.526	25.390	878.552	700.373
277.541	25.710	878.225	701.298
278.555	25.848	878.000	701.593
279.570	25.823	877.462	701.004
280.585	25.745	876.170	699.608
281.599	25.668	876.275	699.330
282.614	25.822	875.997	699.642
283.628	25.359	874.598	696.669
284.643	25.053	873.821	694.800
285.657	25.501	873.481	696.207
286.672	25.275	873.125	694.987
287.687	24.828	872.097	692.375
288.701	25.235	872.181	693.957
289.716	25.645	871.493	694.932
290.730	25.077	871.131	692.388
291.745	25.131	870.090	691.709
292.760	24.927	868.906	689.917
293.774	24.716	868.807	688.968
294.789	25.748	869.117	693.126
295.803	26.515	869.177	696.065
296.818	26.329	868.661	694.873
297.833	26.576	868.073	695.291
298.847	26.211	866.850	692.852
299.862	25.883	866.080	690.917
300.876	26.035	865.852	691.255
301.891	26.327	865.471	692.007
302.906	26.645	864.699	692.548
303.920	26.129	863.649	689.672
304.935	25.921	863.239	688.491
305.949	26.326	862.385	689.293
306.964	26.334	862.301	689.196
307.979	26.195	861.489	687.955
308.993	26.071	861.234	687.218
310.008	26.399	861.230	688.404
311.022	26.551	860.459	688.304
312.037	26.587	859.519	687.628
313.052	25.997	859.493	685.306
314.066	26.097	858.263	684.646
315.081	25.349	856.881	680.645
316.095	24.612	855.611	676.787
317.110	25.194	855.844	679.115
318.125	26.137	856.098	682.827
319.139	25.670	855.064	680.177
320.154	24.558	853.121	674.374
321.168	24.096	852.370	671.981
322.183	24.665	852.585	674.237
323.197	25.529	853.326	678.023
324.212	25.907	852.671	678.864
325.227	26.088	852.458	679.319
326.241	26.103	852.177	679.089
327.256	26.230	851.077	678.629
328.270	25.948	850.487	677.042
329.285	26.027	849.777	676.712
330.300	25.794	849.012	675.169
331.314	25.488	848.383	673.463
332.329	25.684	847.988	673.823
333.343	26.022	847.627	674.742
334.358	26.277	847.306	675.383
335.373	26.264	846.739	674.820
336.387	26.239	846.056	674.125
337.402	26.442	845.932	674.722
338.416	26.638	845.443	675.001
339.431	26.749	844.839	674.876
340.446	26.684	844.288	674.134
341.460	26.781	844.158	674.330
342.475	26.893	843.722	674.339
343.489	26.658	842.746	672.627
344.504	26.709	842.204	672.321
345.519	26.966	841.826	672.916
346.533	27.165	841.280	673.155
347.548	27.170	840.936	672.841
348.562	27.116	840.660	672.358
349.577	27.060	839.943	671.519
350.592	27.086	839.345	671.077
351.606	27.048	838.766	670.414
352.621	26.969	838.196	669.608
353.635	26.879	837.532	668.688
354.650	26.800	837.415	668.244
355.665	26.520	836.193	666.181
356.679	25.427	834.786	660.979
357.694	25.353	834.444	660.379
358.708	26.081	833.895	662.561
359.723	25.942	833.327	661.540
360.738	26.066	833.481	662.060
361.752	26.674	832.881	663.754
362.767	26.589	833.183	663.624
363.781	27.111	832.550	664.971
364.796	27.284	833.002	665.905
365.810	27.404	832.300	665.725
366.825	27.528	831.618	665.573
367.840	27.500	831.755	665.521
368.854	27.279	831.143	664.166
369.869	26.947	829.897	661.902
370.883	26.844	829.172	660.890
371.898	26.778	828.628	660.159
372.913	26.746	827.794	659.318
373.927	26.675	827.307	658.614
374.942	26.877	826.831	658.912
375.956	26.996	826.373	658.919
376.971	27.031	825.826	658.553
377.986	27.410	825.325	659.467
379.000	27.415	825.271	659.382
380.015	27.433	824.529	658.799
381.029	27.205	823.820	657.349
382.044	27.164	823.291	656.721
383.059	27.216	822.957	656.584
384.073	27.392	821.913	656.327
385.088	27.441	821.678	656.257
386.102	27.430	821.064	655.669
387.117	27.418	819.844	654.594
388.132	27.009	819.897	653.107
389.146	26.925	819.214	652.203
390.161	26.415	818.409	649.673
391.175	26.424	818.025	649.343
392.190	27.006	818.408	651.680
393.205	26.909	817.655	650.673
394.219	25.902	815.833	645.562
395.234	24.330	813.451	638.001
396.248	23.638	812.187	634.483
397.263	24.600	813.285	638.724
398.278	26.321	815.208	646.340
399.292	26.966	814.361	647.912
400.307	26.680	813.839	646.419
401.321	26.594	813.128	645.490
402.336	26.764	812.998	645.936
403.350	27.057	813.058	646.973
404.365	27.323	813.158	647.941
405.380	27.695	812.642	648.796
406.394	27.971	812.661	649.737
407.409	28.230	811.833	649.936
408.423	28.009	811.719	649.001
409.438	28.031	810.940	648.401
410.453	27.951	810.844	647.981
411.467	28.157	810.270	648.196
412.482	28.170	809.429	647.513
413.496	28.039	809.147	646.765
414.511	28.143	808.695	646.716
415.526	28.076	808.755	646.470
416.540	28.124	808.098	646.056
417.555	28.005	807.761	645.308
418.569	27.816	806.488	643.568
419.584	27.705	806.370	643.027
420.599	27.844	805.779	642.988
421.613	108.865	1284.888	1454.335
422.628	93.960	1354.696	1454.447
