DTS Sentinel unit serial number:	SN413079Multiplexer serial number:	ORYXHardware model number:	OX4-SRSoftware version number:	ORYX F/W v4.00 Oryx Data Collector v3.7.2.0data status	okinstallation	princeton_trtdifferential loss correction	single-endedforward channel	channel 3reverse channel	N/Adate	2019/09/15time	02:16:34forward acquisition time	60.00reverse acquisition time	0.00gamma	496.2192k internal	0.2321k external	0.2321temperature offset calibration	0.9971default loss term (dB/km)	0.3790temperature slope calibration	1.0000multiplexer offset coefficient	1.0000multiplexer slope coefficient	1.0000fibre end	0.00T internal ref (°C)	31.62T ext. ref 1 (°C)	4.55T ext. ref 2 (°C)	26.20length (m)	temperature (°C)	Stokes	anti-Stokes-747.200	412.354	-0.097	-0.209
-746.185	-56.862	-0.092	0.041
-745.171	-50.409	-0.259	0.124
-744.156	-61.557	0.082	0.035
-743.142	661.010	-0.083	0.215
-742.127	-200.000	0.011	0.071
-741.112	-70.986	0.282	-0.107
-740.098	-200.000	-0.051	0.258
-739.083	1.037	0.223	-0.161
-738.069	-67.589	0.180	-0.071
-737.054	-73.377	-0.139	-0.051
-736.039	-200.000	0.002	-0.659
-735.025	338.365	0.105	0.206
-734.010	-200.000	-0.039	0.437
-732.996	-189.208	-0.341	-0.004
-731.981	86.813	-0.153	0.171
-730.966	-13.953	-0.130	-0.085
-729.952	-97.373	-0.327	0.086
-728.937	522.323	-0.199	-0.473
-727.923	-93.304	0.217	0.061
-726.908	93.837	-0.234	0.267
-725.894	-148.424	-0.236	0.020
-724.879	-200.000	-0.025	0.207
-723.864	800.000	-0.079	-0.223
-722.850	-109.029	-0.301	0.065
-721.835	217.627	0.080	-0.128
-720.821	311.573	-0.083	0.157
-719.806	-134.205	0.291	-0.036
-718.791	104.536	0.128	-0.152
-717.777	98.244	0.135	-0.157
-716.762	-72.610	-0.365	-0.136
-715.748	-47.997	0.015	0.007
-714.733	120.609	-0.271	-0.340
-713.718	519.627	-0.101	-0.240
-712.704	53.286	-0.140	-0.135
-711.689	800.000	-0.041	0.132
-710.675	471.219	0.042	-0.096
-709.660	-70.405	-0.332	0.127
-708.645	83.044	-0.111	0.121
-707.631	244.239	0.196	-0.333
-706.616	-40.648	0.343	-0.179
-705.602	-71.229	-0.131	-0.050
-704.587	205.570	0.157	-0.246
-703.572	-200.000	-0.052	-0.264
-702.558	138.616	0.053	0.070
-701.543	-70.742	0.185	0.070
-700.529	-200.000	0.013	-0.171
-699.514	-154.390	-0.171	-0.012
-698.499	-133.099	-0.084	-0.011
-697.485	-0.649	0.084	-0.060
-696.470	-200.000	-0.057	-0.257
-695.456	-111.012	0.350	-0.073
-694.441	-117.442	0.294	0.054
-693.426	163.822	-0.064	0.091
-692.412	-83.404	-0.225	-0.073
-691.397	-69.107	-0.048	0.019
-690.383	-9.528	-0.159	0.107
-689.368	-68.635	-0.240	0.094
-688.354	-200.000	-0.063	-0.345
-687.339	-101.503	0.300	-0.074
-686.324	-62.002	-0.187	0.079
-685.310	-23.778	-0.215	0.130
-684.295	-134.038	-0.314	-0.039
-683.281	-44.604	0.039	-0.020
-682.266	754.181	0.134	0.364
-681.251	391.963	0.132	-0.277
-680.237	-200.000	0.003	0.047
-679.222	241.787	0.075	0.126
-678.208	800.000	0.124	-0.360
-677.193	797.074	-0.139	-0.387
-676.178	-119.370	0.210	0.037
-675.164	53.334	-0.287	-0.277
-674.149	-190.568	0.663	-0.007
-673.135	-199.261	-0.164	0.001
-672.120	34.971	0.141	0.125
-671.105	391.582	-0.126	0.264
-670.091	-33.844	-0.048	-0.027
-669.076	559.747	-0.063	-0.154
-668.062	-200.000	-0.031	0.278
-667.047	-135.914	0.312	-0.037
-666.032	-103.081	0.132	-0.032
-665.018	28.099	0.115	0.098
-664.003	-60.329	0.259	-0.111
-662.989	-146.337	-0.163	-0.014
-661.974	-57.488	-0.357	-0.158
-660.959	-143.313	-0.388	0.038
-659.945	-200.000	0.038	-0.193
-658.930	73.621	0.201	0.212
-657.916	-34.400	0.290	-0.160
-656.901	-27.628	0.156	0.091
-655.886	-24.027	0.230	0.138
-654.872	-200.000	0.004	0.180
-653.857	89.507	0.127	-0.143
-652.843	-61.742	-0.167	-0.070
-651.828	-157.336	-0.245	0.015
-650.814	429.353	-0.066	-0.143
-649.799	-200.000	0.026	-0.278
-648.784	63.405	0.029	-0.029
-647.770	350.118	0.098	-0.196
-646.755	43.800	-0.303	0.280
-645.741	371.352	-0.152	0.310
-644.726	-161.914	0.379	-0.019
-643.711	-200.000	0.044	-0.214
-642.697	-11.449	0.063	0.042
-641.682	-119.376	-0.324	0.057
-640.668	-44.724	0.174	0.088
-639.653	2.779	-0.197	0.144
-638.638	551.829	0.020	-0.049
-637.624	81.673	0.160	0.174
-636.609	-200.000	-0.031	0.261
-635.595	-195.898	-0.094	-0.001
-634.580	-125.209	-0.277	0.043
-633.565	25.559	0.041	0.034
-632.551	800.000	0.100	0.302
-631.536	-57.122	-0.025	-0.011
-630.522	-200.000	0.018	-0.145
-629.507	15.879	0.215	-0.170
-628.492	-141.543	-0.219	0.022
-627.478	73.419	-0.135	-0.142
-626.463	-200.000	0.011	-0.163
-625.449	-200.000	0.053	0.352
-624.434	36.192	0.097	-0.086
-623.419	25.297	0.182	-0.153
-622.405	451.600	0.034	-0.075
-621.390	41.827	0.222	-0.203
-620.376	-200.000	-0.166	-0.000
-619.361	-168.542	-0.091	0.003
-618.346	32.481	-0.177	-0.154
-617.332	133.448	0.058	-0.076
-616.317	-36.321	-0.231	-0.125
-615.303	-132.822	-0.311	-0.040
-614.288	18.931	0.092	0.074
-613.273	229.508	-0.049	0.080
-612.259	613.669	-0.101	-0.255
-611.244	-158.459	0.529	-0.031
-610.230	131.979	0.045	-0.058
-609.215	-24.690	0.166	-0.099
-608.201	-54.026	-0.206	-0.094
-607.186	71.021	-0.231	0.241
-606.171	123.446	0.181	0.228
-605.157	-51.511	-0.236	-0.111
-604.142	-33.031	0.073	0.041
-603.128	198.869	-0.151	0.232
-602.113	51.915	0.331	-0.316
-601.098	-200.000	-0.028	0.150
-600.084	255.462	0.085	0.147
-599.069	-28.535	-0.254	-0.147
-598.055	15.312	-0.156	0.123
-597.040	74.927	0.165	-0.175
-596.025	-166.463	0.212	-0.009
-595.011	-10.569	0.161	-0.107
-593.996	168.998	-0.132	-0.190
-592.982	-19.810	-0.236	0.146
-591.967	-200.000	0.026	-0.121
-590.952	-94.724	-0.201	0.055
-589.938	14.692	-0.093	0.073
-588.923	61.032	0.059	0.058
-587.909	64.837	-0.087	0.088
-586.894	16.452	-0.341	0.270
-585.879	800.000	0.014	-0.047
-584.865	370.108	0.172	0.349
-583.850	-200.000	0.041	-0.214
-582.836	54.028	-0.150	-0.145
-581.821	-141.564	-0.359	-0.036
-580.806	-82.776	-0.309	0.100
-579.792	-181.464	-0.400	0.008
-578.777	-122.541	0.261	-0.043
-577.763	-144.351	-0.252	0.024
-576.748	800.000	-0.120	-0.399
-575.733	93.641	0.265	-0.301
-574.719	-1.148	0.467	-0.331
-573.704	800.000	-0.054	0.186
-572.690	-200.000	-0.009	-0.375
-571.675	34.866	0.193	-0.169
-570.661	-90.365	-0.195	-0.057
-569.646	-122.512	0.034	0.005
-568.631	115.111	0.200	-0.245
-567.617	-30.249	0.385	0.220
-566.602	-102.818	0.207	-0.049
-565.588	341.099	-0.127	0.248
-564.573	336.119	-0.026	0.051
-563.558	-200.000	0.303	0.000
-562.544	367.956	-0.052	-0.106
-561.529	297.968	0.077	0.141
-560.515	89.618	0.083	-0.093
-559.500	624.086	0.099	-0.249
-558.485	626.412	0.208	0.528
-557.471	156.589	-0.129	-0.179
-556.456	471.435	0.101	0.228
-555.442	-96.792	-0.240	-0.063
-554.427	0.572	0.184	0.132
-553.412	-167.685	-0.172	-0.007
-552.398	50.658	0.109	-0.103
-551.383	478.441	0.069	0.156
-550.369	2.162	0.244	0.177
-549.354	-111.873	-0.086	-0.018
-548.339	256.979	-0.096	0.166
-547.325	24.314	-0.008	-0.007
-546.310	-38.771	0.032	0.017
-545.296	-31.794	0.096	0.054
-544.281	367.138	0.063	0.127
-543.266	-84.240	-0.214	-0.068
-542.252	-108.209	-0.290	0.063
-541.237	-200.000	-0.014	-0.507
-540.223	-107.368	0.296	0.065
-539.208	70.409	0.130	0.134
-538.193	-15.765	-0.165	0.105
-537.179	-50.402	-0.247	-0.117
-536.164	-31.487	0.088	-0.050
-535.150	-159.163	-0.378	0.021
-534.135	-60.256	0.234	0.100
-533.121	-23.773	0.131	0.079
-532.106	-200.000	0.063	-0.415
-531.091	800.000	-0.037	-0.157
-530.077	13.254	-0.168	-0.130
-529.062	128.112	0.192	-0.245
-528.048	70.396	0.219	0.227
-527.033	298.819	-0.036	-0.066
-526.018	-65.525	0.095	-0.038
-525.004	800.000	-0.122	-0.465
-523.989	-200.000	-0.010	-0.409
-522.975	-120.801	0.351	-0.059
-521.960	355.135	-0.066	-0.132
-520.945	189.027	-0.212	-0.318
-519.931	797.907	-0.170	-0.469
-518.916	105.041	0.129	-0.152
-517.902	-28.286	-0.289	-0.167
-516.887	-29.659	-0.108	-0.062
-515.872	-9.245	0.228	0.153
-514.858	501.319	-0.192	0.445
-513.843	-119.382	-0.131	0.023
-512.829	290.039	-0.076	0.139
-511.814	-67.027	-0.227	-0.090
-510.799	-200.000	-0.025	0.198
-509.785	-137.130	-0.229	0.026
-508.770	-200.000	-0.066	0.380
-507.756	54.325	-0.347	-0.334
-506.741	-47.358	-0.076	0.037
-505.726	279.933	-0.182	0.326
-504.712	472.926	0.087	-0.196
-503.697	121.761	0.006	0.008
-502.683	-95.991	-0.040	0.011
-501.668	514.846	-0.121	0.284
-500.653	-200.000	0.004	-0.130
-499.639	-99.236	-0.147	0.037
-498.624	141.058	0.176	-0.233
-497.610	22.470	0.154	-0.126
-496.595	-113.884	-0.514	0.100
-495.581	800.000	0.088	-0.254
-494.566	167.197	-0.233	0.330
-493.551	-148.876	-0.065	0.005
-492.537	230.495	-0.169	0.277
-491.522	800.000	0.081	0.266
-490.508	262.250	-0.213	-0.369
-489.493	800.000	-0.089	-0.344
-488.478	-200.000	0.005	-0.075
-487.464	80.044	0.045	-0.048
-486.449	207.046	0.370	0.577
-485.435	-77.203	0.224	-0.078
-484.420	-30.882	-0.392	0.221
-483.405	-61.191	0.248	0.105
-482.391	202.164	-0.138	0.213
-481.376	-200.000	0.005	0.104
-480.362	-38.088	-0.253	0.134
-479.347	9.665	-0.094	0.072
-478.332	329.955	-0.104	0.200
-477.318	-200.000	0.028	-0.236
-476.303	-87.770	-0.244	-0.074
-475.289	-200.000	-0.004	-0.039
-474.274	800.000	-0.025	-0.101
-473.259	84.552	0.069	0.075
-472.245	154.647	0.236	0.324
-471.230	-62.891	-0.039	-0.016
-470.216	335.672	0.101	0.196
-469.201	-150.795	0.196	-0.015
-468.186	69.748	0.183	0.189
-467.172	-53.286	0.241	0.110
-466.157	-93.621	0.073	0.020
-465.143	-91.916	0.224	-0.063
-464.128	-45.723	0.102	-0.050
-463.113	361.271	0.096	0.193
-462.099	-135.780	0.450	0.053
-461.084	-73.312	0.113	0.041
-460.070	800.000	-0.136	0.390
-459.055	800.000	-0.139	0.493
-458.040	-30.737	-0.159	0.090
-457.026	757.750	-0.108	-0.291
-456.011	156.224	-0.120	0.165
-454.997	800.000	-0.015	-0.043
-453.982	-18.530	0.232	-0.145
-452.968	44.059	-0.113	-0.103
-451.953	-0.726	-0.169	0.120
-450.938	-200.000	0.013	-0.326
-449.924	-200.000	0.003	0.046
-448.909	-80.396	0.211	-0.070
-447.895	98.406	-0.100	-0.115
-446.880	216.030	0.139	0.220
-445.865	400.717	0.125	0.261
-444.851	-200.000	0.015	0.133
-443.836	98.437	0.252	0.290
-442.822	800.000	0.062	0.269
-441.807	-150.856	-0.482	0.036
-440.792	-91.327	0.149	-0.043
-439.778	-200.000	0.002	0.099
-438.763	107.878	0.119	-0.141
-437.749	111.049	0.362	-0.436
-436.734	-54.112	-0.118	-0.054
-435.719	-200.000	0.024	-0.193
-434.705	49.738	-0.233	-0.219
-433.690	75.888	-0.182	-0.192
-432.676	63.544	-0.151	0.151
-431.661	200.748	-0.137	0.211
-430.646	-200.000	-0.031	-0.223
-429.632	-39.592	-0.126	-0.066
-428.617	39.505	-0.198	0.177
-427.603	103.407	-0.113	-0.132
-426.588	703.120	0.044	0.115
-425.573	-200.000	-0.005	-0.100
-424.559	-33.276	-0.045	-0.025
-423.544	-128.056	-0.267	0.038
-422.530	308.187	0.092	-0.172
-421.515	537.786	-0.072	-0.171
-420.500	-32.996	0.384	-0.212
-419.486	800.000	0.039	-0.154
-418.471	-118.391	-0.221	0.039
-417.457	-200.000	-0.014	-0.159
-416.442	-122.180	0.228	-0.037
-415.428	586.674	-0.038	0.094
-414.413	18.209	0.231	0.184
-413.398	-34.542	-0.033	-0.018
-412.384	265.208	0.099	0.173
-411.369	58.155	-0.169	-0.166
-410.355	589.541	0.080	-0.196
-409.340	800.000	-0.059	-0.210
-408.325	-39.486	0.400	-0.209
-407.311	48.096	-0.204	-0.190
-406.296	53.458	-0.105	0.101
-405.282	21.928	0.172	0.140
-404.267	800.000	-0.101	0.321
-403.252	5.869	-0.165	-0.121
-402.238	-33.611	0.089	-0.049
-401.223	-10.635	0.169	-0.111
-400.209	-200.000	0.006	0.179
-399.194	73.524	0.114	-0.119
-398.179	71.826	0.080	-0.083
-397.165	-31.422	-0.226	0.126
-396.150	14.977	0.167	-0.130
-395.136	328.138	0.086	-0.166
-394.121	-200.000	0.052	-0.344
-393.106	189.858	0.097	0.145
-392.092	-36.108	0.294	0.158
-391.077	-119.122	-0.349	-0.061
-390.063	-112.133	-0.155	0.031
-389.048	167.540	0.132	-0.188
-388.033	27.401	-0.288	-0.241
-387.019	-29.874	0.129	-0.073
-386.004	36.893	-0.125	-0.110
-384.990	-119.086	0.195	0.034
-383.975	491.546	0.101	-0.230
-382.960	-29.469	-0.244	-0.139
-381.946	-30.192	-0.164	0.093
-380.931	-98.405	0.368	-0.094
-379.917	190.482	-0.077	-0.115
-378.902	-66.734	0.112	-0.044
-377.888	-17.944	-0.239	-0.149
-376.873	-200.000	-0.023	0.170
-375.858	-200.000	-0.017	-0.288
-374.844	365.671	0.194	0.389
-373.829	109.997	-0.089	0.106
-372.815	-158.394	0.213	0.012
-371.800	-95.360	-0.262	-0.070
-370.785	-200.000	0.068	0.352
-369.771	-134.969	0.246	-0.030
-368.756	-77.244	0.273	-0.094
-367.742	-200.000	-0.027	-0.201
-366.727	101.746	0.144	-0.167
-365.712	24.868	-0.135	0.111
-364.698	-121.201	-0.051	-0.008
-363.683	-135.533	0.190	-0.022
-362.669	-73.655	-0.157	0.057
-361.654	800.000	0.095	0.288
-360.639	-24.081	0.212	-0.126
-359.625	-200.000	-0.010	-0.099
-358.610	39.836	0.381	0.340
-357.596	199.380	0.272	0.415
-356.581	-200.000	0.058	-0.333
-355.566	115.972	-0.155	-0.189
-354.552	-200.000	-0.024	0.273
-353.537	-23.208	-0.163	0.098
-352.523	-200.000	0.027	0.121
-351.508	-200.000	-0.005	0.211
-350.493	39.351	0.240	-0.214
-349.479	579.889	0.047	-0.115
-348.464	2.478	0.029	0.021
-347.450	-125.640	0.047	0.007
-346.435	-115.477	0.213	-0.040
-345.420	27.086	-0.215	-0.179
-344.406	-151.874	0.135	-0.010
-343.391	-70.488	0.280	-0.106
-342.377	287.695	-0.061	-0.110
-341.362	299.465	0.132	-0.241
-340.348	800.000	-0.066	-0.230
-339.333	800.000	-0.128	-0.398
-338.318	144.264	-0.120	-0.159
-337.304	-109.712	0.096	-0.020
-336.289	800.000	-0.089	-0.284
-335.275	668.587	0.022	-0.057
-334.260	-33.368	-0.105	-0.058
-333.245	49.489	0.181	0.170
-332.231	-93.911	-0.046	0.012
-331.216	337.519	0.166	0.322
-330.202	800.000	-0.109	-0.329
-329.187	-12.310	0.181	-0.118
-328.172	-142.719	-0.383	0.037
-327.158	230.554	0.069	-0.112
-326.143	-57.486	-0.044	-0.019
-325.129	-40.573	-0.391	0.202
-324.114	-112.769	0.284	-0.056
-323.099	-166.497	-0.166	-0.007
-322.085	82.068	0.266	0.286
-321.070	24.886	0.074	-0.061
-320.056	-40.279	-0.199	0.103
-319.041	-200.000	-0.031	-0.394
-318.026	-200.000	-0.022	-0.373
-317.012	6.696	0.174	-0.129
-315.997	-57.280	-0.234	0.102
-314.983	-26.950	0.200	-0.116
-313.968	18.798	0.071	0.056
-312.953	-173.456	0.393	-0.012
-311.939	712.018	0.080	0.211
-310.924	-64.368	0.195	0.079
-309.910	213.275	-0.042	-0.066
-308.895	9.354	0.045	0.034
-307.880	45.667	0.161	-0.148
-306.866	220.882	0.040	0.064
-305.851	-148.450	0.435	0.035
-304.837	670.746	-0.142	0.365
-303.822	-102.080	0.137	0.033
-302.807	800.000	0.040	0.136
-301.793	487.913	0.197	0.446
-300.778	-112.789	0.338	0.067
-299.764	-6.039	-0.240	0.163
-298.749	-200.000	-0.012	0.224
-297.735	-64.328	0.482	-0.195
-296.720	-200.000	0.010	0.162
-295.705	-93.273	0.148	-0.041
-294.691	-200.000	0.001	0.103
-293.676	69.413	0.287	0.293
-292.662	-91.031	-0.167	0.048
-291.647	-154.676	0.086	-0.006
-290.632	399.963	0.112	-0.232
-289.618	172.830	0.108	0.154
-288.603	194.964	-0.092	0.139
-287.589	6.328	0.249	-0.183
-286.574	800.000	0.046	-0.133
-285.559	-127.014	-0.112	0.016
-284.545	-33.183	0.235	-0.129
-283.530	-141.723	0.201	0.020
-282.516	-200.000	-0.015	-0.073
-281.501	31.764	-0.225	-0.192
-280.486	25.593	-0.161	-0.133
-279.472	-66.210	-0.274	-0.108
-278.457	-200.000	-0.027	0.323
-277.443	-11.644	-0.386	0.252
-276.428	142.655	-0.142	0.187
-275.413	-200.000	-0.008	0.131
-274.399	-123.957	0.128	0.020
-273.384	296.887	0.239	-0.435
-272.370	-160.350	-0.315	-0.017
-271.355	11.729	0.199	0.151
-270.340	-200.000	0.049	0.245
-269.326	-199.130	-0.192	0.001
-268.311	-88.959	0.470	-0.138
-267.297	-200.000	0.011	0.229
-266.282	118.699	0.306	-0.375
-265.267	277.387	0.206	-0.363
-264.253	-46.457	-0.099	0.048
-263.238	-200.000	0.022	0.143
-262.224	156.344	-0.128	-0.175
-261.209	-99.642	0.159	-0.039
-260.195	-47.036	0.064	0.031
-259.180	84.873	0.044	0.048
-258.165	-84.623	-0.169	0.053
-257.151	-103.387	-0.171	-0.040
-256.136	-94.706	0.192	0.052
-255.122	81.529	-0.107	-0.115
-254.107	-62.065	0.085	0.035
-253.092	425.121	0.068	0.145
-252.078	800.000	0.084	0.249
-251.063	-54.703	-0.191	0.086
-250.049	800.000	-0.045	-0.134
-249.034	-117.837	-0.148	0.026
-248.019	-90.701	-0.185	-0.053
-247.005	61.313	-0.297	0.292
-245.990	-200.000	-0.004	0.375
-244.976	800.000	0.085	0.248
-243.961	800.000	-0.041	-0.171
-242.946	-166.066	-0.140	0.006
-241.932	-200.000	0.034	-0.257
-240.917	178.212	0.108	-0.156
-239.903	-200.000	0.020	-0.118
-238.888	-61.632	0.376	-0.156
-237.873	-60.381	-0.140	0.059
-236.859	-133.547	-0.185	0.023
-235.844	-52.074	0.127	0.059
-234.830	800.000	0.011	0.034
-233.815	-200.000	-0.017	0.316
-232.800	63.166	-0.374	-0.372
-231.786	-116.922	0.195	-0.035
-230.771	-173.810	-0.273	-0.008
-229.757	-163.835	-0.261	0.012
-228.742	86.448	-0.273	-0.298
-227.727	74.750	-0.120	-0.125
-226.713	186.224	-0.049	0.073
-225.698	476.014	-0.120	-0.268
-224.684	-51.023	-0.214	-0.099
-223.669	127.223	0.093	-0.117
-222.655	-30.603	0.080	-0.045
-221.640	-52.224	-0.146	0.067
-220.625	-200.000	-0.008	-0.151
-219.611	545.395	-0.111	-0.263
-218.596	430.642	-0.118	0.253
-217.582	800.000	0.043	-0.150
-216.567	-63.051	-0.242	0.099
-215.552	-134.297	-0.341	-0.041
-214.538	179.286	-0.156	0.227
-213.523	116.741	0.139	-0.169
-212.509	-145.638	-0.198	-0.018
-211.494	-88.774	-0.310	0.091
-210.479	800.000	-0.036	-0.135
-209.465	-200.000	-0.020	-0.323
-208.450	-22.967	0.402	0.240
-207.436	-114.039	-0.383	-0.073
-206.421	-74.154	0.064	-0.023
-205.406	-200.000	-0.037	0.433
-204.392	511.341	0.124	0.287
-203.377	-86.080	-0.087	0.027
-202.363	-104.263	-0.072	-0.016
-201.348	-200.000	0.023	0.310
-200.333	-91.311	-0.415	0.117
-199.319	-50.096	0.018	0.009
-198.304	61.351	0.125	-0.123
-197.290	-34.708	-0.325	0.176
-196.275	-123.374	-0.458	0.072
-195.260	-25.561	0.147	0.086
-194.246	-129.518	0.102	-0.014
-193.231	40.602	0.333	0.297
-192.217	-200.000	0.057	-0.309
-191.202	666.865	0.029	0.074
-190.187	40.055	0.114	0.101
-189.173	373.799	-0.117	0.235
-188.158	214.906	-0.158	0.248
-187.144	-69.664	0.139	0.052
-186.129	-52.618	-0.220	0.101
-185.114	447.221	-0.005	0.010
-184.100	40.127	0.056	0.050
-183.085	-200.000	0.024	0.337
-182.071	-113.997	0.309	0.059
-181.056	-86.601	-0.317	-0.096
-180.042	-29.551	0.065	-0.037
-179.027	-157.359	0.168	-0.010
-178.012	-174.805	0.368	-0.010
-176.998	800.000	-0.036	-0.102
-175.983	44.020	-0.205	0.186
-174.969	90.407	-0.178	-0.197
-173.954	-110.668	0.530	0.108
-172.939	10.314	-0.088	-0.067
-171.925	-45.612	-0.136	0.067
-170.910	-200.000	0.025	0.189
-169.896	42.042	0.311	-0.279
-168.881	11.224	-0.237	0.179
-167.866	129.990	0.090	0.113
-166.852	-62.026	-0.350	0.145
-165.837	-81.542	0.253	0.082
-164.823	-79.842	0.257	0.085
-163.808	-49.737	0.296	0.139
-162.793	-37.630	-0.195	0.103
-161.779	800.000	0.010	-0.033
-160.764	-181.661	-0.509	-0.010
-159.750	-175.436	0.109	0.003
-158.735	800.000	0.042	0.132
-157.720	-200.000	-0.006	-0.255
-156.706	223.188	-0.156	0.249
-155.691	-110.283	0.166	0.034
-154.677	391.554	-0.045	0.093
-153.662	-200.000	0.029	-0.136
-152.647	800.000	-0.107	0.318
-151.633	-22.081	0.326	-0.195
-150.618	231.715	-0.195	0.316
-149.604	0.002	-0.129	-0.091
-148.589	800.000	-0.103	0.341
-147.574	35.518	0.237	0.206
-146.560	800.000	-0.084	0.317
-145.545	-200.000	0.013	0.237
-144.531	474.533	-0.036	0.079
-143.516	800.000	-0.051	-0.148
-142.502	-76.124	0.250	0.087
-141.487	800.000	-0.045	0.134
-140.472	286.361	0.069	-0.123
-139.458	800.000	0.115	-0.391
-138.443	-87.518	0.135	0.040
-137.429	-16.912	0.282	0.176
-136.414	8.733	-0.153	-0.114
-135.399	186.185	0.155	0.227
-134.385	286.228	0.170	0.303
-133.370	168.494	-0.113	0.159
-132.356	-200.000	-0.012	0.499
-131.341	-200.000	-0.050	-0.345
-130.326	-200.000	0.009	0.293
-129.312	-151.337	-0.301	-0.022
-128.297	-112.331	0.402	-0.079
-127.283	-200.000	-0.036	-0.177
-126.268	-76.027	0.347	-0.121
-125.253	295.857	-0.080	-0.144
-124.239	-196.053	0.097	-0.001
-123.224	236.165	-0.097	0.159
-122.210	207.877	-0.075	-0.115
-121.195	800.000	-0.110	-0.324
-120.180	-200.000	0.004	0.211
-119.166	310.190	-0.082	-0.152
-118.151	255.253	-0.136	-0.229
-117.137	97.764	-0.113	-0.128
-116.122	-200.000	0.056	0.376
-115.107	-27.574	0.134	0.077
-114.093	-81.054	-0.359	-0.117
-113.078	-117.189	-0.151	-0.027
-112.064	800.000	-0.069	0.209
-111.049	-154.448	-0.184	0.012
-110.034	-101.971	-0.466	-0.111
-109.020	-88.135	-0.142	-0.042
-108.005	564.651	-0.051	-0.121
-106.991	-28.131	-0.043	0.025
-105.976	129.440	0.210	-0.264
-104.962	-59.702	-0.107	0.045
-103.947	800.000	0.025	-0.105
-102.932	775.398	-0.042	0.113
-101.918	449.810	-0.153	0.333
-100.903	-22.331	-0.356	0.213
-99.889	-41.610	0.442	-0.224
-98.874	-55.838	-0.185	-0.082
-97.859	-137.727	0.061	-0.007
-96.845	-30.573	0.249	-0.139
-95.830	3.686	0.285	0.205
-94.816	11.705	0.226	0.171
-93.801	-137.095	-0.114	0.013
-92.786	-200.000	0.028	0.450
-91.772	24.681	0.098	-0.080
-90.757	-14.188	0.015	0.010
-89.743	-55.277	-0.118	0.052
-88.728	-175.243	0.186	-0.005
-87.713	-91.092	0.199	0.056
-86.699	369.976	0.044	0.088
-85.684	800.000	0.101	0.328
-84.670	-119.397	-0.373	-0.064
-83.655	328.110	0.066	0.125
-82.640	130.913	-0.299	0.377
-81.626	800.000	0.043	0.126
-80.611	-42.715	-0.329	0.165
-79.597	-150.535	-0.123	0.009
-78.582	254.978	0.149	-0.251
-77.567	193.540	0.072	0.108
-76.553	-99.457	0.095	0.024
-75.538	377.986	0.058	0.118
-74.524	439.475	-0.109	0.234
-73.509	-67.916	-0.277	0.106
-72.494	-200.000	0.005	0.084
-71.480	800.000	0.023	-0.069
-70.465	-180.891	-0.260	0.005
-69.451	674.091	0.217	-0.555
-68.436	152.079	0.147	-0.197
-67.422	-200.000	-0.013	0.216
-66.407	-132.470	-0.226	-0.029
-65.392	-170.715	-0.474	0.016
-64.378	671.486	0.030	0.075
-63.363	236.575	-0.292	0.476
-62.349	101.842	0.148	-0.170
-61.334	126.989	-0.723	-0.901
-60.319	-78.411	0.320	0.108
-59.305	558.516	-0.429	-1.019
-58.290	134.663	0.734	0.938
-57.276	800.000	0.459	1.498
-56.261	-200.000	97.543	606.339
-55.246	634.444	1383.295	3451.420
-54.232	196.973	2561.261	3842.067
-53.217	119.299	2158.919	2627.859
-52.203	42.556	1701.174	1522.698
-51.188	34.836	1513.714	1302.509
-50.173	32.483	1486.255	1263.064
-49.159	52.575	1535.908	1442.698
-48.144	54.051	1553.547	1469.269
-47.130	35.131	1512.930	1303.633
-46.115	31.863	1498.513	1269.087
-45.100	31.698	1495.254	1265.160
-44.086	31.642	1493.593	1263.324
-43.071	31.664	1491.373	1261.545
-42.057	31.563	1489.811	1259.499
-41.042	31.650	1488.061	1258.548
-40.027	31.624	1486.903	1257.349
-39.013	31.487	1485.920	1255.545
-37.998	31.665	1483.646	1254.770
-36.984	31.649	1482.584	1253.712
-35.969	31.539	1481.469	1251.982
-34.954	31.661	1479.512	1251.095
-33.940	31.578	1478.595	1249.714
-32.925	31.602	1477.464	1248.872
-31.911	31.659	1475.923	1247.898
-30.896	31.707	1474.826	1247.240
-29.881	31.712	1473.033	1245.707
-28.867	31.748	1471.680	1244.755
-27.852	31.651	1470.543	1243.099
-26.838	31.683	1469.408	1242.303
-25.823	31.749	1467.172	1240.801
-24.809	31.693	1466.157	1239.525
-23.794	31.656	1464.749	1238.035
-22.779	31.609	1463.215	1236.382
-21.765	31.685	1462.394	1236.140
-20.750	31.631	1461.292	1234.804
-19.736	31.611	1459.967	1233.506
-18.721	31.631	1459.011	1232.777
-17.706	31.564	1458.188	1231.591
-16.692	31.632	1456.881	1230.885
-15.677	31.542	1456.054	1229.549
-14.663	31.656	1454.473	1228.917
-13.648	31.673	1453.221	1227.917
-12.633	31.628	1452.952	1227.344
-11.619	31.656	1451.954	1226.639
-10.604	31.511	1451.647	1225.382
-9.590	31.706	1450.328	1225.494
-8.575	31.588	1449.853	1224.272
-7.560	31.561	1449.024	1223.346
-6.546	31.594	1447.792	1222.478
-5.531	31.581	1446.614	1221.344
-4.517	31.501	1445.609	1219.929
-3.502	31.538	1444.812	1219.446
-2.487	31.526	1443.595	1218.292
-1.473	31.527	1443.010	1217.757
-0.458	31.559	1441.847	1216.939
0.556	30.365	1432.070	1206.308
1.571	27.318	1405.949	1164.730
2.586	23.798	1346.880	1094.067
3.600	22.050	1265.878	1018.055
4.615	20.757	1220.177	973.982
5.629	17.979	1164.455	914.568
6.644	10.765	1082.734	814.267
7.659	5.298	1043.810	758.449
8.673	4.613	1038.590	751.278
9.688	4.503	1035.802	748.665
10.702	4.508	1033.931	747.272
11.717	4.567	1032.029	746.115
12.731	6.584	1033.208	756.588
13.746	13.170	1042.756	795.309
14.761	18.039	1049.280	823.741
15.775	18.358	1048.138	824.307
16.790	17.414	1046.022	818.036
17.804	16.240	1043.743	810.545
18.819	15.403	1042.134	805.210
19.834	14.887	1040.929	801.734
20.848	14.625	1040.051	799.730
21.863	14.457	1038.837	797.921
22.877	14.223	1038.172	796.221
23.892	14.107	1037.147	794.812
24.907	14.016	1036.648	793.926
25.921	13.982	1035.886	793.106
26.936	14.002	1035.176	792.592
27.950	14.009	1033.604	791.347
28.965	14.108	1032.552	790.943
29.980	14.213	1032.014	790.961
30.994	14.281	1030.893	790.356
32.009	14.364	1029.924	789.936
33.023	14.237	1029.202	788.708
34.038	14.231	1028.607	788.154
35.053	14.165	1027.324	786.791
36.067	14.241	1026.211	786.230
37.082	14.257	1025.201	785.459
38.096	14.231	1024.340	784.610
39.111	14.166	1024.320	784.219
40.126	14.302	1022.989	783.770
41.140	14.132	1022.105	782.222
42.155	14.045	1020.940	780.853
43.169	13.850	1019.951	779.114
44.184	13.819	1018.784	778.006
45.199	13.935	1017.035	777.147
46.213	13.940	1017.104	777.155
47.228	13.910	1015.619	775.811
48.242	14.195	1014.388	776.129
49.257	14.112	1014.134	775.479
50.271	14.080	1013.173	774.526
51.286	14.138	1011.999	773.832
52.301	14.108	1011.564	773.290
53.315	14.149	1010.730	772.775
54.330	14.091	1009.585	771.561
55.344	14.067	1008.635	770.656
56.359	14.047	1007.405	769.557
57.374	13.968	1006.546	768.469
58.388	13.921	1006.181	767.904
59.403	13.729	1005.566	766.480
60.417	13.910	1004.057	766.094
61.432	13.850	1003.893	765.628
62.447	13.896	1003.011	765.096
63.461	13.701	1002.737	763.920
64.476	13.898	1000.914	763.371
65.490	13.813	1000.629	762.695
66.505	13.833	999.535	761.884
67.520	13.892	998.751	761.492
68.534	13.941	998.056	761.119
69.549	13.860	997.178	760.012
70.563	13.921	996.450	759.668
71.578	13.858	996.170	759.098
72.593	13.803	995.203	758.045
73.607	13.738	994.189	756.908
74.622	13.592	993.656	755.771
75.636	13.742	992.449	755.467
76.651	13.693	991.729	754.630
77.666	13.688	990.784	753.822
78.680	13.835	990.214	753.991
79.695	13.762	989.527	753.068
80.709	13.892	988.832	753.062
81.724	13.766	988.569	752.224
82.739	13.861	987.683	751.912
83.753	13.961	986.894	751.700
84.768	13.939	986.455	751.199
85.782	14.193	985.753	751.744
86.797	14.101	984.861	750.582
87.812	14.174	983.944	750.146
88.826	14.094	983.076	749.058
89.841	14.021	982.640	748.330
90.855	14.096	981.604	747.815
91.870	14.186	980.650	747.427
92.884	14.225	980.156	747.157
93.899	14.385	979.107	747.008
94.914	14.288	978.294	745.886
95.928	14.213	977.623	744.975
96.943	14.333	976.878	744.878
97.957	14.356	976.085	744.309
98.972	14.244	975.282	743.131
99.987	14.152	974.624	742.156
101.001	14.251	974.249	742.243
102.016	14.194	973.327	741.222
103.030	14.223	972.290	740.496
104.045	14.123	971.331	739.258
105.060	14.248	970.599	739.190
106.074	14.153	969.438	737.817
107.089	14.030	968.731	736.668
108.103	13.905	967.651	735.230
109.118	14.019	966.466	734.770
110.133	13.939	966.173	734.126
111.147	13.933	965.367	733.424
112.162	13.863	964.404	732.316
113.176	13.909	963.404	731.695
114.191	13.950	962.878	731.410
115.206	13.966	961.792	730.593
116.220	14.160	961.187	730.922
117.235	14.004	960.234	729.447
118.249	13.952	959.437	728.550
119.264	13.974	958.566	727.921
120.279	13.926	957.506	726.841
121.293	13.994	956.930	726.636
122.308	13.919	956.401	725.841
123.322	13.885	955.495	724.941
124.337	13.902	954.142	723.927
125.352	13.888	952.872	722.838
126.366	13.849	951.978	721.925
127.381	13.869	950.945	721.164
128.395	13.798	950.420	720.395
129.410	13.766	949.308	719.350
130.424	13.769	948.545	718.721
131.439	13.911	947.663	718.605
132.454	13.925	946.794	717.940
133.468	13.897	946.301	717.383
134.483	13.951	945.477	716.929
135.497	13.947	945.053	716.526
136.512	13.885	944.483	715.763
137.527	14.005	943.233	715.271
138.541	14.077	942.781	715.170
139.556	14.075	941.840	714.388
140.570	13.856	941.217	712.909
141.585	14.059	940.547	713.210
142.600	14.171	939.619	712.923
143.614	14.148	938.833	712.166
144.629	14.103	938.365	711.557
145.643	14.315	937.369	711.643
146.658	14.338	936.334	710.893
147.673	14.282	935.694	710.106
148.687	14.103	934.661	708.496
149.702	14.128	933.728	707.834
150.716	14.082	933.227	707.195
151.731	14.075	932.637	706.655
152.746	14.019	931.724	705.662
153.760	14.171	930.744	705.503
154.775	14.189	930.128	705.051
155.789	14.193	929.688	704.672
156.804	14.141	928.685	703.628
157.819	14.244	928.345	703.746
158.833	14.250	927.463	703.037
159.848	14.292	926.891	702.718
160.862	14.347	926.182	702.353
161.877	14.282	925.502	701.500
162.892	14.209	924.383	700.285
163.906	14.077	923.940	699.332
164.921	14.051	923.082	698.511
165.935	14.092	922.028	697.824
166.950	14.239	920.405	697.150
167.964	14.269	919.774	696.735
168.979	14.285	918.845	696.035
169.994	14.119	918.253	694.832
171.008	14.190	917.326	694.364
172.023	14.213	916.710	693.933
173.037	14.358	915.721	693.729
174.052	14.412	915.100	693.422
175.067	14.337	914.631	692.694
176.081	14.257	913.872	691.721
177.096	14.124	912.692	690.216
178.110	14.086	912.122	689.569
179.125	14.375	911.036	689.882
180.140	14.339	910.244	689.073
181.154	14.293	909.968	688.614
182.169	14.353	909.395	688.365
183.183	14.368	909.053	688.110
184.198	14.466	907.864	687.553
185.213	14.587	907.400	687.637
186.227	14.655	906.735	687.351
187.242	14.351	906.481	685.848
188.256	14.554	905.432	685.828
189.271	14.668	905.030	685.931
190.286	14.683	904.353	685.419
191.300	14.613	903.059	684.093
192.315	14.285	902.569	682.318
193.329	14.082	901.953	680.960
194.344	14.134	901.086	680.455
195.359	14.266	900.667	680.621
196.373	14.447	900.085	680.860
197.388	14.544	899.436	680.705
198.402	14.595	899.192	680.666
199.417	14.651	898.684	680.449
200.432	14.694	898.370	680.325
201.446	14.868	897.763	680.518
202.461	14.890	897.707	680.501
203.475	14.983	897.230	680.457
204.490	14.919	896.154	679.322
205.504	14.817	895.372	678.255
206.519	14.793	894.554	677.480
207.534	14.707	893.936	676.603
208.548	14.700	893.311	676.043
209.563	14.713	892.833	675.672
210.577	14.661	891.795	674.616
211.592	14.852	891.012	674.736
212.607	14.833	890.875	674.497
213.621	14.964	890.145	674.411
214.636	15.014	889.231	673.859
215.650	14.990	888.658	673.269
216.665	14.862	888.675	672.710
217.680	14.863	888.026	672.160
218.694	15.099	887.396	672.574
219.709	15.118	886.976	672.272
220.723	15.070	886.522	671.676
221.738	15.100	885.536	670.989
222.753	15.196	884.106	670.230
223.767	14.996	883.809	669.145
224.782	15.039	883.575	669.084
225.796	15.154	882.780	668.878
226.811	15.120	881.908	668.026
227.826	15.159	881.276	667.642
228.840	15.066	880.787	666.844
229.855	15.008	880.181	666.094
230.869	15.020	879.463	665.541
231.884	15.046	878.968	665.210
232.899	15.184	878.021	664.982
233.913	14.975	877.075	663.378
234.928	14.939	877.027	663.139
235.942	15.044	876.170	662.848
236.957	14.970	875.264	661.812
237.972	14.963	874.746	661.333
238.986	15.063	873.929	661.051
240.001	15.021	873.231	660.301
241.015	15.005	872.826	659.873
242.030	15.104	871.831	659.454
243.045	15.184	871.480	659.443
244.059	15.191	871.051	659.089
245.074	15.067	870.665	658.248
246.088	15.097	870.044	657.840
247.103	15.275	868.926	657.637
248.117	15.240	868.656	657.235
249.132	15.390	868.269	657.474
250.147	15.471	867.426	657.093
251.161	15.575	866.974	657.100
252.176	15.678	866.180	656.842
253.190	15.606	865.594	656.057
254.205	15.671	865.298	656.028
255.220	15.580	864.682	655.150
256.234	15.684	863.806	654.831
257.249	15.593	863.431	654.137
258.263	15.638	863.193	654.072
259.278	15.633	862.529	653.494
260.293	15.591	861.843	652.751
261.307	15.671	861.269	652.570
262.322	15.728	860.874	652.435
263.336	15.733	860.485	652.101
264.351	15.841	859.447	651.674
265.366	15.904	858.958	651.490
266.380	15.860	858.184	650.677
267.395	15.890	857.794	650.436
268.409	15.820	856.788	649.347
269.424	15.932	855.953	649.088
270.439	15.755	855.643	648.113
271.453	15.888	854.641	647.811
272.468	15.686	854.050	646.526
273.482	15.776	853.217	646.184
274.497	15.686	853.153	645.735
275.512	15.819	851.781	645.148
276.526	15.693	851.512	644.404
277.541	15.763	850.572	643.904
278.555	15.910	850.024	643.993
279.570	16.084	849.698	644.357
280.585	16.014	849.471	643.858
281.599	16.009	848.769	643.251
282.614	16.034	847.954	642.673
283.628	15.894	847.591	641.807
284.643	16.054	846.759	641.729
285.657	15.943	846.104	640.754
286.672	15.925	846.025	640.569
287.687	15.821	845.835	639.973
288.701	15.948	845.378	640.053
289.716	16.068	843.835	639.284
290.730	16.000	843.680	638.851
291.745	16.069	842.985	638.529
292.760	16.055	842.015	637.685
293.774	16.079	841.576	637.389
294.789	16.259	841.684	638.094
295.803	16.083	840.957	636.820
296.818	16.167	839.770	636.182
297.833	16.092	839.815	635.878
298.847	15.952	838.850	634.563
299.862	16.043	838.134	634.309
300.876	16.195	837.484	634.333
301.891	16.263	836.609	633.867
302.906	16.163	836.553	633.395
303.920	16.449	835.374	633.519
304.935	16.578	834.185	633.044
305.949	16.462	834.195	632.558
306.964	16.368	834.017	632.015
307.979	16.376	833.232	631.396
308.993	16.323	832.897	630.887
310.008	16.425	832.147	630.647
311.022	16.553	831.473	630.556
312.037	16.523	831.249	630.218
313.052	16.539	830.952	629.997
314.066	16.545	829.874	629.148
315.081	16.482	829.088	628.260
316.095	16.270	829.063	627.400
317.110	16.332	828.598	627.221
318.125	16.315	827.876	626.556
319.139	16.329	827.368	626.170
320.154	16.321	826.924	625.746
321.168	16.511	826.111	625.780
322.183	16.284	825.999	624.801
323.197	16.387	825.358	624.642
324.212	16.424	825.055	624.494
325.227	16.509	824.191	624.097
326.241	16.343	823.923	623.227
327.256	16.427	822.966	622.758
328.270	16.384	822.754	622.384
329.285	16.475	822.246	622.279
330.300	16.505	821.626	621.863
331.314	16.571	820.674	621.330
332.329	16.636	820.085	621.070
333.343	16.688	819.554	620.803
334.358	16.707	819.129	620.495
335.373	16.565	818.954	619.789
336.387	16.576	817.978	619.035
337.402	16.701	817.738	619.254
338.416	16.530	817.536	618.421
339.431	16.790	816.661	618.656
340.446	16.822	816.003	618.219
341.460	16.884	815.686	618.149
342.475	16.826	815.209	617.524
343.489	17.017	814.700	617.777
344.504	16.999	813.766	616.949
345.519	16.949	813.631	616.612
346.533	17.015	813.047	616.354
347.548	16.990	812.421	615.736
348.562	17.031	812.053	615.550
349.577	16.783	811.418	614.114
350.592	16.851	810.755	613.803
351.606	16.846	810.404	613.466
352.621	16.957	809.801	613.358
353.635	16.796	809.497	612.490
354.650	16.966	809.147	612.786
355.665	16.897	808.925	612.314
356.679	16.951	808.241	611.936
357.694	16.900	807.660	611.259
358.708	17.021	807.099	611.218
359.723	17.022	806.243	610.516
360.738	17.098	806.047	610.588
361.752	17.049	805.517	609.958
362.767	17.009	805.430	609.693
363.781	17.084	805.027	609.605
364.796	17.220	804.508	609.644
365.810	17.124	804.326	609.107
366.825	17.372	803.369	609.217
367.840	17.365	803.339	609.116
368.854	17.309	803.039	608.635
369.869	17.324	802.259	608.044
370.883	17.390	801.791	607.872
371.898	17.258	801.324	606.991
372.913	17.386	800.692	606.915
373.927	17.406	799.992	606.403
374.942	17.472	799.250	606.021
375.956	17.381	798.800	605.304
376.971	17.361	798.411	604.882
377.986	17.412	798.051	604.739
379.000	17.628	797.402	604.960
380.015	17.577	797.111	604.504
381.029	17.681	796.305	604.209
382.044	17.562	795.773	603.331
383.059	17.612	795.194	603.016
384.073	17.553	794.819	602.469
385.088	17.492	794.312	601.814
386.102	17.428	793.831	601.170
387.117	17.512	793.188	600.928
388.132	17.486	792.993	600.635
389.146	17.448	792.325	599.940
390.161	17.412	792.050	599.553
391.175	17.593	791.636	599.826
392.190	17.547	791.488	599.499
393.205	17.541	790.917	598.991
394.219	17.475	790.273	598.219
395.234	17.562	789.691	598.028
396.248	17.479	789.308	597.396
397.263	17.556	788.739	597.180
398.278	17.399	788.008	596.026
399.292	17.514	787.529	596.013
400.307	17.602	787.352	596.135
401.321	17.431	786.948	595.178
402.336	17.498	786.652	595.136
403.350	17.560	786.113	594.892
404.365	17.556	785.873	594.644
405.380	17.695	785.257	594.609
406.394	17.733	784.769	594.322
407.409	17.715	784.795	594.223
408.423	17.852	784.372	594.328
409.438	17.806	783.576	593.513
410.453	17.896	783.343	593.596
411.467	17.972	782.923	593.489
412.482	18.006	782.313	593.092
413.496	18.023	782.022	592.879
414.511	18.046	781.922	592.829
415.526	18.055	781.385	592.404
416.540	18.135	780.779	592.168
417.555	17.859	780.760	591.144
418.569	17.870	780.160	590.677
419.584	18.145	779.476	591.058
420.599	17.960	779.119	590.094
421.613	156.257	1368.674	1794.734
422.628	134.812	1454.574	1794.802
