DTS Sentinel unit serial number:	SN413079Multiplexer serial number:	ORYXHardware model number:	OX4-SRSoftware version number:	ORYX F/W v4.00 Oryx Data Collector v3.7.2.0data status	okinstallation	princeton_trtdifferential loss correction	single-endedforward channel	channel 3reverse channel	N/Adate	2019/09/15time	13:00:35forward acquisition time	60.00reverse acquisition time	0.00gamma	496.2192k internal	0.2296k external	0.2296temperature offset calibration	0.9966default loss term (dB/km)	0.3790temperature slope calibration	1.0000multiplexer offset coefficient	1.0000multiplexer slope coefficient	1.0000fibre end	0.00T internal ref (°C)	36.48T ext. ref 1 (°C)	5.01T ext. ref 2 (°C)	34.65length (m)	temperature (°C)	Stokes	anti-Stokes-747.200	409.111	0.062	0.134
-746.185	-17.548	-0.083	0.053
-745.171	-11.257	0.198	-0.133
-744.156	-200.000	-0.044	0.290
-743.142	-149.996	0.402	-0.032
-742.127	-129.024	-0.211	0.030
-741.112	-24.748	-0.362	0.220
-740.098	-200.000	0.042	0.383
-739.083	-200.000	-0.067	0.446
-738.069	529.573	-0.194	0.467
-737.054	207.205	-0.133	0.212
-736.039	-200.000	-0.014	-0.090
-735.025	82.129	0.324	0.359
-734.010	190.230	0.134	-0.205
-732.996	-200.000	0.054	-0.272
-731.981	-13.818	0.100	-0.066
-730.966	8.242	-0.191	0.147
-729.952	43.195	-0.095	0.089
-728.937	-200.000	0.011	-0.103
-727.923	-135.658	-0.143	-0.017
-726.908	191.180	-0.290	0.446
-725.894	-91.680	-0.264	-0.077
-724.879	-152.800	-0.132	0.010
-723.864	-96.767	-0.159	0.043
-722.850	-98.691	-0.134	0.035
-721.835	417.330	-0.151	0.329
-720.821	-137.683	-0.114	0.013
-719.806	-135.471	0.398	-0.048
-718.791	162.865	-0.182	-0.261
-717.777	-118.764	0.079	-0.014
-716.762	-106.277	-0.236	-0.054
-715.748	62.036	0.138	-0.141
-714.733	800.000	-0.027	-0.111
-713.718	330.719	0.108	-0.212
-712.704	800.000	0.069	-0.257
-711.689	-145.173	-0.247	-0.023
-710.675	-200.000	0.005	-0.116
-709.660	800.000	0.044	0.188
-708.645	270.601	-0.042	-0.076
-707.631	-174.667	-0.382	0.011
-706.616	800.000	0.042	0.174
-705.602	330.877	-0.095	0.186
-704.587	289.749	-0.130	-0.241
-703.572	-113.983	0.290	-0.057
-702.558	-22.135	-0.054	0.033
-701.543	-200.000	-0.006	0.066
-700.529	368.427	-0.056	-0.116
-699.514	358.503	0.113	0.231
-698.499	48.946	0.233	0.223
-697.485	565.322	-0.119	0.294
-696.470	-133.829	-0.327	-0.041
-695.456	406.471	0.108	0.233
-694.441	-29.997	0.130	-0.075
-693.426	-122.422	-0.079	0.013
-692.412	-178.167	0.256	0.006
-691.397	198.872	-0.054	0.084
-690.383	-103.281	-0.247	0.060
-689.368	176.833	-0.187	-0.277
-688.354	-167.670	-0.156	0.006
-687.339	800.000	-0.075	-0.327
-686.324	-153.242	0.205	0.015
-685.310	-200.000	0.005	0.194
-684.295	-200.000	0.026	0.383
-683.281	-24.261	-0.184	0.112
-682.266	800.000	0.127	-0.380
-681.251	-200.000	0.003	-0.097
-680.237	530.163	-0.077	-0.186
-679.222	-200.000	-0.015	-0.338
-678.208	800.000	-0.074	0.212
-677.193	91.483	-0.334	0.382
-676.178	800.000	-0.030	0.099
-675.164	-78.878	-0.359	0.125
-674.149	-200.000	-0.043	0.255
-673.135	-50.706	-0.128	0.062
-672.120	48.614	0.081	-0.078
-671.105	511.054	-0.039	-0.092
-670.091	-200.000	0.011	-0.152
-669.076	541.303	0.066	0.161
-668.062	31.370	0.105	-0.092
-667.047	-59.993	0.204	0.089
-666.032	-91.162	0.181	-0.053
-665.018	-14.034	-0.151	0.099
-664.003	78.279	-0.335	-0.364
-662.989	27.350	0.271	-0.232
-661.974	800.000	-0.040	-0.164
-660.959	-200.000	-0.051	-0.326
-659.945	800.000	0.069	-0.238
-658.930	-124.358	-0.047	0.008
-657.916	-95.281	0.190	0.052
-656.901	-120.732	-0.245	0.042
-655.886	800.000	-0.050	0.174
-654.872	259.205	0.072	-0.127
-653.857	290.107	0.065	0.121
-652.843	-200.000	-0.009	0.086
-651.828	-79.800	0.357	-0.122
-650.814	66.226	0.107	-0.111
-649.799	-186.986	0.480	0.007
-648.784	393.185	0.077	-0.163
-647.770	-10.041	0.251	-0.170
-646.755	202.767	-0.114	-0.180
-645.741	241.318	-0.085	0.145
-644.726	-200.000	0.017	0.208
-643.711	17.849	0.069	-0.056
-642.697	102.661	-0.014	-0.016
-641.682	120.588	-0.117	0.148
-640.668	-94.139	0.158	0.044
-639.653	30.805	0.205	0.179
-638.638	68.697	-0.099	0.103
-637.624	102.566	-0.248	0.296
-636.609	-73.503	-0.202	0.075
-635.595	-93.886	0.036	0.010
-634.580	104.994	-0.089	-0.107
-633.565	800.000	0.066	-0.187
-632.551	-114.837	0.178	-0.034
-631.536	-76.162	0.249	0.089
-630.522	73.341	-0.123	0.131
-629.507	45.560	-0.173	-0.162
-628.492	-135.322	0.139	-0.017
-627.478	800.000	-0.079	0.238
-626.463	-200.000	-0.034	-0.323
-625.449	-12.037	0.107	0.071
-624.434	231.622	0.221	0.368
-623.419	-145.948	-0.045	0.004
-622.405	103.408	-0.112	-0.134
-621.390	-0.596	-0.160	-0.116
-620.376	209.973	-0.171	-0.272
-619.361	-60.659	0.161	-0.069
-618.346	-200.000	-0.035	-0.211
-617.332	48.193	0.014	-0.013
-616.317	264.983	-0.080	0.141
-615.303	-115.221	-0.476	-0.092
-614.288	-15.468	-0.440	0.286
-613.273	236.160	-0.063	0.105
-612.259	-200.000	-0.002	0.310
-611.244	-27.745	-0.355	-0.209
-610.230	-193.741	-0.199	0.002
-609.215	-200.000	0.041	0.537
-608.201	-92.036	0.231	0.066
-607.186	-122.138	-0.338	0.056
-606.171	-64.804	0.298	-0.123
-605.157	-200.000	-0.045	-0.283
-604.142	-89.084	0.308	0.093
-603.128	223.217	0.118	0.194
-602.113	-94.638	-0.243	-0.067
-601.098	140.341	-0.179	-0.240
-600.084	-200.000	-0.021	-0.117
-599.069	-147.526	-0.418	0.036
-598.055	-174.525	0.156	0.005
-597.040	-108.913	0.309	-0.067
-596.025	800.000	-0.087	-0.298
-595.011	29.690	-0.289	-0.250
-593.996	28.155	0.274	0.235
-592.982	557.626	-0.082	-0.200
-591.967	-87.341	-0.230	-0.071
-590.952	-168.496	0.220	0.009
-589.938	-109.142	0.235	0.051
-588.923	-62.138	0.425	-0.180
-587.909	800.000	-0.076	-0.300
-586.894	-200.000	0.008	0.190
-585.879	-6.974	-0.166	0.114
-584.865	800.000	-0.009	-0.025
-583.850	-113.569	-0.263	-0.052
-582.836	-186.550	-0.529	-0.008
-581.821	-59.034	-0.127	0.056
-580.806	800.000	0.017	0.064
-579.792	800.000	-0.036	0.107
-578.777	800.000	-0.020	0.055
-577.763	108.143	-0.112	0.136
-576.748	124.797	0.173	-0.222
-575.733	-12.453	-0.133	-0.088
-574.719	34.877	-0.266	0.236
-573.704	-6.916	-0.285	-0.197
-572.690	216.544	-0.137	-0.221
-571.675	232.870	-0.045	0.075
-570.661	-98.523	-0.374	0.097
-569.646	616.520	-0.083	-0.212
-568.631	-102.251	0.289	0.070
-567.617	-139.633	-0.289	0.031
-566.602	89.599	-0.162	0.184
-565.588	0.149	-0.166	0.120
-564.573	66.785	-0.210	-0.217
-563.558	24.796	-0.096	0.081
-562.544	4.652	-0.113	0.084
-561.529	313.708	0.056	-0.107
-560.515	-53.349	-0.261	0.121
-559.500	165.826	-0.208	-0.299
-558.485	139.681	0.160	-0.213
-557.471	370.850	0.080	-0.164
-556.456	-34.167	-0.259	0.144
-555.442	-8.854	-0.267	0.182
-554.427	800.000	-0.072	-0.201
-553.412	49.015	0.258	-0.246
-552.398	-97.458	-0.286	0.075
-551.383	-134.650	0.057	0.007
-550.369	-200.000	0.015	-0.116
-549.354	199.063	0.152	0.237
-548.339	800.000	0.065	0.209
-547.325	30.836	-0.137	0.119
-546.310	24.416	0.129	0.108
-545.296	-200.000	0.004	-0.021
-544.281	-200.000	0.020	0.210
-543.266	-200.000	0.019	0.150
-542.252	27.434	-0.351	-0.299
-541.237	-88.208	0.403	0.122
-540.223	154.833	-0.235	-0.327
-539.208	-200.000	-0.047	-0.230
-538.193	187.081	-0.115	-0.174
-537.179	259.797	0.158	-0.276
-536.164	137.746	-0.138	-0.183
-535.150	39.160	0.171	0.155
-534.135	-108.381	-0.068	-0.015
-533.121	-133.884	-0.279	-0.035
-532.106	-143.005	-0.145	-0.014
-531.091	-100.946	0.319	0.079
-530.077	-200.000	0.005	-0.111
-529.062	115.469	0.124	-0.154
-528.048	-6.656	0.236	0.163
-527.033	-99.841	-0.163	0.041
-526.018	4.591	-0.105	-0.078
-525.004	-137.092	-0.003	0.000
-523.989	-200.000	-0.004	-0.098
-522.975	137.372	0.143	0.190
-521.960	800.000	-0.068	0.260
-520.945	-121.022	-0.060	0.010
-519.931	-164.094	0.011	-0.001
-518.916	-90.812	-0.295	0.086
-517.902	-109.821	-0.326	0.069
-516.887	50.624	-0.056	-0.053
-515.872	-111.592	0.355	0.073
-514.858	286.896	-0.020	-0.036
-513.843	310.923	0.107	0.202
-512.829	-132.569	0.149	-0.019
-511.814	-88.906	-0.168	-0.050
-510.799	-96.333	-0.320	0.086
-509.785	291.290	0.050	-0.093
-508.770	-200.000	0.060	-0.402
-507.756	-4.993	-0.045	-0.031
-506.741	66.754	0.339	-0.350
-505.726	121.195	-0.097	0.122
-504.712	-133.005	-0.079	0.010
-503.697	168.395	0.056	-0.081
-502.683	-84.531	0.198	-0.063
-501.668	794.150	-0.049	0.136
-500.653	417.778	0.079	-0.171
-499.639	-125.345	0.302	-0.047
-498.624	-200.000	0.051	-0.230
-497.610	87.412	-0.142	-0.159
-496.595	89.811	-0.125	-0.141
-495.581	-200.000	-0.040	-0.402
-494.566	-200.000	0.003	-0.024
-493.551	-200.000	0.080	-0.410
-492.537	598.368	-0.046	-0.116
-491.522	305.416	-0.071	-0.134
-490.508	56.069	0.177	0.174
-489.493	-46.876	-0.445	0.220
-488.478	48.547	0.361	0.342
-487.464	-108.132	-0.196	0.043
-486.449	-99.384	-0.365	-0.093
-485.435	-116.221	0.192	0.036
-484.420	800.000	-0.035	0.101
-483.405	275.410	0.067	0.121
-482.391	223.127	0.096	0.157
-481.376	-119.226	-0.086	0.015
-480.362	-59.525	-0.030	-0.013
-479.347	-36.597	-0.125	0.068
-478.332	159.720	0.080	0.112
-477.318	83.061	-0.069	0.076
-476.303	-85.469	0.262	0.082
-475.289	408.796	0.070	0.150
-474.274	72.637	-0.112	0.118
-473.259	-110.553	0.360	0.075
-472.245	-147.276	-0.068	0.006
-471.230	-200.000	-0.010	-0.066
-470.216	186.358	0.116	-0.174
-469.201	21.007	-0.093	0.077
-468.186	-77.865	0.203	-0.071
-467.172	-135.764	-0.308	-0.037
-466.157	-151.564	0.229	0.017
-465.143	190.803	-0.127	0.194
-464.128	-115.780	-0.309	-0.059
-463.113	-0.699	-0.115	0.083
-462.099	-96.299	-0.238	-0.064
-461.084	57.066	-0.035	0.035
-460.070	800.000	0.035	0.148
-459.055	-200.000	-0.005	0.186
-458.040	-131.791	-0.221	-0.029
-457.026	800.000	0.019	-0.064
-456.011	39.334	0.142	-0.129
-454.997	-200.000	-0.021	-0.422
-453.982	639.370	0.049	0.126
-452.968	-200.000	0.014	0.086
-451.953	-200.000	0.021	0.129
-450.938	217.072	0.052	-0.083
-449.924	-64.127	-0.052	-0.021
-448.909	104.041	-0.034	-0.040
-447.895	-40.131	-0.463	-0.244
-446.880	-200.000	0.060	-0.276
-445.865	-200.000	-0.015	-0.128
-444.851	800.000	0.057	-0.214
-443.836	-118.860	-0.428	-0.076
-442.822	-90.467	-0.073	-0.021
-441.807	-109.758	-0.203	-0.043
-440.792	-129.308	0.168	0.024
-439.778	-39.867	0.478	0.252
-438.763	-200.000	-0.004	0.137
-437.749	-0.458	-0.111	0.080
-436.734	800.000	-0.042	0.147
-435.719	-33.585	0.079	0.044
-434.705	-18.268	0.069	-0.044
-433.690	-89.520	-0.060	0.018
-432.676	579.688	0.078	0.193
-431.661	0.456	-0.109	-0.079
-430.646	179.157	0.188	-0.277
-429.632	-48.045	-0.253	-0.123
-428.617	353.949	0.075	0.151
-427.603	51.194	-0.157	-0.150
-426.588	146.697	0.177	-0.240
-425.573	333.237	-0.187	-0.364
-424.559	121.787	0.117	0.147
-423.544	117.619	0.298	0.370
-422.530	11.313	-0.169	0.130
-421.515	-58.011	-0.087	0.038
-420.500	-94.401	-0.035	-0.010
-419.486	0.945	0.327	0.236
-418.471	-200.000	0.002	0.152
-417.457	-112.963	0.162	0.032
-416.442	-99.755	0.178	-0.045
-415.428	-25.683	-0.238	-0.141
-414.413	581.628	-0.067	0.165
-413.398	-200.000	0.046	-0.266
-412.384	-102.621	-0.084	-0.020
-411.369	91.633	0.260	-0.294
-410.355	-51.941	-0.150	-0.071
-409.340	-36.589	0.165	0.089
-408.325	800.000	0.079	-0.267
-407.311	1.475	0.159	-0.115
-406.296	800.000	0.177	0.524
-405.282	-200.000	-0.053	0.297
-404.267	-5.645	0.099	-0.069
-403.252	-160.732	-0.478	-0.026
-402.238	800.000	0.056	-0.218
-401.223	440.571	0.006	-0.014
-400.209	108.093	0.217	-0.261
-399.194	800.000	-0.063	-0.217
-398.179	-10.509	-0.119	-0.079
-397.165	-200.000	0.003	0.255
-396.150	-105.650	-0.186	-0.043
-395.136	59.348	-0.142	-0.141
-394.121	83.352	-0.060	-0.066
-393.106	55.875	-0.221	0.216
-392.092	-200.000	0.025	-0.113
-391.077	-74.365	-0.218	-0.079
-390.063	-200.000	-0.239	0.001
-389.048	-49.152	0.139	-0.067
-388.033	70.955	-0.052	0.055
-387.019	133.153	0.293	0.381
-386.004	238.919	0.115	-0.193
-384.990	209.913	0.134	-0.211
-383.975	-200.000	0.047	0.287
-382.960	74.374	-0.183	-0.194
-381.946	476.238	0.100	-0.229
-380.931	-160.539	0.203	0.011
-379.917	-42.413	0.144	0.074
-378.902	-200.000	0.011	0.168
-377.888	468.816	-0.018	0.041
-376.873	105.471	-0.156	0.186
-375.858	-112.389	-0.272	-0.055
-374.844	-140.813	0.111	0.012
-373.829	211.395	0.147	0.234
-372.815	-200.000	-0.029	0.333
-371.800	800.000	0.091	0.385
-370.785	-8.173	-0.065	-0.044
-369.771	132.707	-0.141	-0.183
-368.756	800.000	-0.037	0.130
-367.742	800.000	-0.051	0.211
-366.727	-54.139	-0.195	-0.089
-365.712	800.000	-0.080	-0.232
-364.698	67.236	0.136	0.140
-363.683	-43.466	-0.061	0.031
-362.669	-200.000	0.023	0.300
-361.654	-141.764	0.419	-0.042
-360.639	-200.000	-0.026	-0.339
-359.625	-200.000	0.019	-0.266
-358.610	-12.647	-0.057	-0.038
-357.596	-179.835	0.353	0.008
-356.581	455.646	0.072	0.161
-355.566	-38.080	0.039	-0.021
-354.552	-99.772	0.235	-0.059
-353.537	-200.000	-0.116	0.561
-352.523	295.994	-0.228	0.420
-351.508	-200.000	0.015	-0.067
-350.493	-26.934	0.361	-0.212
-349.479	-147.057	0.319	0.028
-348.464	-200.000	-0.016	0.112
-347.450	-200.000	0.032	0.161
-346.435	240.011	-0.193	0.324
-345.420	-41.990	0.507	-0.261
-344.406	800.000	-0.039	0.115
-343.391	-178.140	0.165	0.004
-342.377	-200.000	0.008	0.092
-341.362	25.847	0.391	-0.328
-340.348	107.488	-0.190	0.228
-339.333	800.000	0.058	0.189
-338.318	-200.000	0.025	0.152
-337.304	-43.460	0.268	-0.136
-336.289	62.897	-0.057	0.057
-335.275	-200.000	-0.007	0.095
-334.260	-101.324	0.179	-0.044
-333.245	-64.972	-0.351	-0.143
-332.231	6.921	0.431	0.323
-331.216	-200.000	-0.005	0.121
-330.202	1.068	-0.026	0.019
-329.187	-129.987	0.168	-0.023
-328.172	-139.357	0.135	-0.015
-327.158	-200.000	0.032	0.235
-326.143	220.402	-0.153	-0.247
-325.129	119.766	0.188	-0.234
-324.114	-200.000	-0.065	0.426
-323.099	-16.111	-0.167	-0.106
-322.085	-45.444	-0.220	-0.110
-321.070	94.481	0.045	-0.052
-320.056	773.577	-0.123	-0.338
-319.041	232.612	0.059	-0.097
-318.026	-75.150	-0.146	-0.052
-317.012	-200.000	-0.039	0.234
-315.997	203.785	0.118	0.183
-314.983	510.028	0.090	0.210
-313.968	-67.984	0.137	-0.054
-312.953	217.399	0.199	-0.318
-311.939	800.000	-0.089	-0.306
-310.924	-52.546	-0.162	-0.075
-309.910	466.323	0.226	0.509
-308.895	-200.000	-0.028	0.168
-307.880	106.772	-0.099	0.118
-306.866	78.549	-0.209	0.224
-305.851	-147.786	-0.181	0.015
-304.837	196.472	0.076	-0.117
-303.822	372.611	0.150	-0.307
-302.807	-163.067	0.102	0.005
-301.793	-107.983	-0.122	0.027
-300.778	87.290	0.156	0.173
-299.764	38.939	-0.209	-0.188
-298.749	-200.000	-0.022	0.199
-297.735	123.005	-0.068	-0.085
-296.720	-66.331	-0.487	-0.194
-295.705	-200.000	0.005	0.090
-294.691	43.626	0.125	0.115
-293.676	-152.766	0.328	0.023
-292.662	465.044	-0.196	-0.441
-291.647	394.571	-0.107	-0.223
-290.632	347.099	0.067	-0.132
-289.618	-200.000	-0.014	0.139
-288.603	319.241	-0.107	0.203
-287.589	-50.590	0.157	0.074
-286.574	-52.171	0.302	-0.141
-285.559	-180.939	0.246	0.005
-284.545	-200.000	-0.015	0.214
-283.530	800.000	-0.079	0.330
-282.516	17.050	0.096	0.076
-281.501	164.668	-0.190	0.269
-280.486	-8.567	0.184	0.124
-279.472	-200.000	0.009	0.412
-278.457	-8.047	-0.201	-0.136
-277.443	-130.298	0.211	0.029
-276.428	31.960	-0.134	0.116
-275.413	81.725	-0.018	0.020
-274.399	-94.456	0.242	0.066
-273.384	-11.776	0.227	-0.149
-272.370	-200.000	-0.006	0.086
-271.355	800.000	-0.033	-0.099
-270.340	-94.091	0.250	-0.069
-269.326	800.000	0.119	-0.487
-268.311	131.814	0.081	0.104
-267.297	135.425	-0.169	-0.220
-266.282	800.000	-0.053	-0.158
-265.267	-200.000	-0.010	-0.191
-264.253	800.000	0.026	-0.077
-263.238	-200.000	-0.039	0.399
-262.224	199.605	0.085	0.131
-261.209	-104.194	0.031	-0.007
-260.195	370.529	0.025	-0.050
-259.180	-21.566	0.109	-0.067
-258.165	580.510	0.132	0.325
-257.151	41.642	0.127	-0.115
-256.136	800.000	-0.020	0.076
-255.122	209.837	-0.104	-0.164
-254.107	800.000	-0.064	-0.231
-253.092	-181.306	0.304	0.006
-252.078	-167.284	-0.387	-0.016
-251.063	-200.000	0.004	0.187
-250.049	18.657	0.144	-0.116
-249.034	-184.081	-0.369	0.006
-248.019	201.792	0.107	-0.166
-247.005	206.346	0.126	-0.197
-245.990	-12.219	-0.271	-0.178
-244.976	800.000	0.020	0.070
-243.961	-200.000	-0.035	0.163
-242.946	-6.967	0.196	-0.134
-241.932	-200.000	0.026	0.112
-240.917	27.435	-0.171	0.144
-239.903	139.211	0.433	-0.571
-238.888	-90.753	-0.350	0.101
-237.873	-21.224	0.156	0.096
-236.859	-40.740	-0.175	-0.091
-235.844	-147.662	-0.276	-0.023
-234.830	116.117	0.060	0.074
-233.815	49.840	0.084	0.080
-232.800	-187.734	0.016	-0.000
-231.786	583.879	-0.136	0.334
-230.771	226.308	-0.130	-0.212
-229.757	204.054	-0.042	0.065
-228.742	298.635	-0.131	-0.241
-227.727	-47.162	0.228	-0.111
-226.713	628.757	0.058	-0.146
-225.698	232.117	-0.075	0.123
-224.684	-186.978	0.133	-0.002
-223.669	677.589	-0.173	-0.449
-222.655	28.441	0.195	0.165
-221.640	119.621	-0.124	0.154
-220.625	108.380	-0.058	-0.070
-219.611	-81.939	0.239	0.078
-218.596	-76.744	0.232	-0.082
-217.582	-119.493	-0.104	-0.018
-216.567	-73.765	-0.166	0.061
-215.552	-42.442	0.106	0.054
-214.538	800.000	-0.110	0.320
-213.523	-16.766	-0.245	0.155
-212.509	-84.231	-0.415	-0.132
-211.494	-23.844	-0.157	-0.094
-210.479	-200.000	0.051	-0.237
-209.465	-60.351	0.363	0.155
-208.450	-52.627	-0.193	0.089
-207.436	-16.594	0.139	-0.088
-206.421	-20.515	0.173	-0.106
-205.406	-96.485	-0.136	-0.036
-204.392	-102.249	0.216	-0.052
-203.377	23.713	0.199	0.164
-202.363	-80.280	0.217	-0.072
-201.348	800.000	0.050	0.171
-200.333	72.891	0.221	0.231
-199.319	-35.969	0.362	0.196
-198.304	-43.336	-0.178	0.090
-197.290	-101.173	-0.140	0.034
-196.275	-175.552	0.265	-0.007
-195.260	-200.000	-0.045	0.442
-194.246	21.747	-0.266	0.217
-193.231	-178.324	0.269	0.006
-192.217	145.641	-0.093	0.125
-191.202	-200.000	-0.006	-0.184
-190.187	-78.472	0.342	-0.117
-189.173	800.000	0.037	0.123
-188.158	35.954	0.207	-0.182
-187.144	-200.000	-0.006	0.144
-186.129	74.201	0.109	-0.114
-185.114	14.131	0.124	-0.096
-184.100	-69.960	0.293	-0.112
-183.085	-99.692	-0.063	-0.016
-182.071	496.054	0.099	0.227
-181.056	191.067	-0.190	-0.286
-180.042	-111.962	0.220	0.044
-179.027	-200.000	0.013	0.273
-178.012	-56.481	0.123	0.055
-176.998	800.000	0.064	-0.180
-175.983	-115.282	-0.351	-0.066
-174.969	-88.180	0.182	-0.054
-173.954	409.891	0.086	-0.183
-172.939	-158.937	0.121	0.007
-171.925	-74.830	0.148	0.053
-170.910	343.479	-0.008	0.017
-169.896	-58.438	-0.222	-0.096
-168.881	113.204	-0.086	0.105
-167.866	800.000	0.067	-0.201
-166.852	-51.844	-0.182	-0.085
-165.837	-131.580	0.161	0.021
-164.823	-17.393	-0.311	-0.195
-163.808	6.988	-0.112	-0.083
-162.793	-200.000	0.019	-0.173
-161.779	-200.000	0.026	-0.167
-160.764	-22.301	0.122	0.074
-159.750	-128.920	0.148	0.021
-158.735	-187.414	0.249	-0.003
-157.720	-22.330	-0.018	-0.011
-156.706	560.993	-0.045	0.110
-155.691	133.718	-0.049	0.063
-154.677	-200.000	-0.022	0.150
-153.662	439.932	0.174	0.381
-152.647	-200.000	0.023	-0.168
-151.633	-31.916	0.231	-0.129
-150.618	-49.786	0.050	0.024
-149.604	70.171	0.142	0.146
-148.589	-14.462	0.163	0.105
-147.574	-15.091	0.273	0.175
-146.560	407.832	-0.045	-0.095
-145.545	270.842	-0.073	-0.128
-144.531	-197.539	-0.276	0.002
-143.516	-200.000	-0.094	0.449
-142.502	-64.413	-0.044	-0.018
-141.487	82.227	-0.096	0.104
-140.472	-101.215	0.205	0.050
-139.458	60.143	-0.118	-0.117
-138.443	-24.457	-0.050	-0.030
-137.429	800.000	-0.053	0.229
-136.414	58.266	0.154	-0.151
-135.399	-157.631	-0.220	0.013
-134.385	-114.177	-0.105	0.020
-133.370	-200.000	-0.046	0.207
-132.356	-96.361	-0.272	0.072
-131.341	70.961	0.152	-0.157
-130.326	22.244	0.254	0.207
-129.312	-200.000	-0.002	0.049
-128.297	-200.000	-0.005	0.166
-127.283	141.320	0.150	0.198
-126.268	655.270	0.053	0.136
-125.253	111.325	-0.057	0.068
-124.239	800.000	0.056	0.220
-123.224	7.834	-0.118	-0.088
-122.210	-104.920	0.168	0.039
-121.195	-6.151	-0.275	-0.187
-120.180	800.000	0.054	0.217
-119.166	-17.218	-0.319	-0.201
-118.151	-49.682	0.292	0.138
-117.137	-18.245	0.086	-0.053
-116.122	439.127	-0.097	0.211
-115.107	-146.930	-0.148	-0.013
-114.093	-81.796	0.228	0.074
-113.078	800.000	0.073	-0.253
-112.064	-172.729	0.197	0.006
-111.049	-200.000	-0.044	0.354
-110.034	-200.000	-0.063	0.276
-109.020	197.214	-0.173	-0.264
-108.005	-200.000	-0.003	0.209
-106.991	491.590	0.094	0.215
-105.976	126.950	0.059	0.075
-104.962	318.911	-0.004	-0.007
-103.947	800.000	-0.163	-0.513
-102.932	31.508	0.110	0.094
-101.918	157.257	0.158	-0.217
-100.903	-128.949	0.092	0.013
-99.889	-184.352	0.186	-0.003
-98.874	-132.054	-0.366	0.047
-97.859	-149.298	0.416	-0.033
-96.845	800.000	0.027	0.081
-95.830	65.917	-0.181	-0.183
-94.816	-121.788	0.273	0.045
-93.801	800.000	0.090	-0.314
-92.786	800.000	-0.091	-0.384
-91.772	-200.000	-0.077	0.380
-90.757	-37.597	-0.244	-0.130
-89.743	-200.000	-0.073	-0.402
-88.728	-124.250	-0.280	0.044
-87.713	-102.152	-0.172	0.041
-86.699	-200.000	-0.031	0.400
-85.684	762.681	-0.019	0.052
-84.670	-200.000	0.019	0.131
-83.655	-169.339	-0.107	-0.004
-82.640	-173.348	-0.052	0.002
-81.626	-109.236	-0.122	-0.026
-80.611	24.263	0.032	-0.026
-79.597	-200.000	0.007	0.154
-78.582	-43.904	-0.168	-0.084
-77.567	-153.385	-0.100	-0.007
-76.553	-153.176	0.208	0.014
-75.538	-200.000	-0.023	0.260
-74.524	-200.000	-0.027	0.125
-73.509	134.518	0.136	0.176
-72.494	74.737	-0.070	-0.073
-71.480	800.000	-0.009	0.030
-70.465	-156.161	0.048	-0.003
-69.451	-121.647	0.673	-0.111
-68.436	96.456	0.041	0.047
-67.422	-200.000	0.005	-0.340
-66.407	-98.281	-0.192	-0.049
-65.392	160.543	0.081	0.113
-64.378	85.053	0.196	0.214
-63.363	68.217	-0.059	0.060
-62.349	800.000	-0.020	0.081
-61.334	-22.059	-1.134	-0.685
-60.319	800.000	0.185	0.601
-59.305	274.714	-0.570	-1.005
-58.290	46.731	0.811	0.750
-57.276	614.963	0.649	1.617
-56.261	-200.000	88.843	504.715
-55.246	500.713	1413.938	3245.566
-54.232	181.232	2619.699	3830.824
-53.217	115.744	2241.891	2727.541
-52.203	45.994	1761.121	1621.125
-51.188	39.336	1565.610	1394.144
-50.173	36.894	1536.874	1351.490
-49.159	54.047	1582.093	1512.963
-48.144	57.757	1601.863	1558.072
-47.130	40.184	1559.927	1394.838
-46.115	36.760	1544.542	1357.079
-45.100	36.545	1541.351	1352.715
-44.086	36.526	1539.228	1350.668
-43.071	36.479	1537.600	1348.851
-42.057	36.461	1535.880	1347.168
-41.042	36.408	1534.791	1345.790
-40.027	36.438	1532.901	1344.284
-39.013	36.452	1531.259	1342.891
-37.998	36.490	1529.835	1341.850
-36.984	36.500	1528.904	1341.050
-35.969	36.359	1528.103	1339.317
-34.954	36.457	1526.416	1338.465
-33.940	36.507	1524.664	1337.224
-32.925	36.521	1523.158	1335.946
-31.911	36.527	1522.009	1334.923
-30.896	36.579	1520.664	1334.050
-29.881	36.624	1519.087	1332.928
-28.867	36.542	1518.192	1331.522
-27.852	36.543	1516.141	1329.675
-26.838	36.518	1514.882	1328.350
-25.823	36.543	1513.288	1327.072
-24.809	36.552	1511.587	1325.591
-23.794	36.480	1509.954	1323.611
-22.779	36.602	1508.787	1323.366
-21.765	36.484	1508.362	1322.134
-20.750	36.557	1506.744	1321.166
-19.736	36.509	1505.482	1319.679
-18.721	36.607	1504.141	1319.117
-17.706	36.530	1503.412	1317.900
-16.692	36.459	1502.394	1316.472
-15.677	36.467	1501.587	1315.770
-14.663	36.464	1500.127	1314.414
-13.648	36.499	1498.866	1313.497
-12.633	36.490	1497.873	1312.514
-11.619	36.349	1497.572	1311.237
-10.604	36.380	1496.663	1310.604
-9.590	36.414	1495.626	1309.872
-8.575	36.437	1494.210	1308.737
-7.560	36.427	1493.275	1307.796
-6.546	36.413	1492.705	1307.156
-5.531	36.434	1492.069	1306.687
-4.517	36.511	1490.706	1305.959
-3.502	36.533	1489.489	1304.992
-2.487	36.490	1488.810	1304.055
-1.473	36.341	1488.172	1302.440
-0.458	36.418	1486.625	1301.550
0.556	35.504	1477.434	1293.732
1.571	33.189	1452.432	1256.366
2.586	30.071	1390.281	1182.637
3.600	28.324	1305.201	1099.684
4.615	26.156	1256.793	1046.259
5.629	22.372	1198.546	976.722
6.644	13.409	1110.448	858.556
7.659	6.304	1067.092	789.428
8.673	5.234	1061.231	779.682
9.688	4.985	1058.450	776.333
10.702	4.910	1056.493	774.456
11.717	4.932	1054.966	773.374
12.731	7.993	1058.634	791.222
13.746	16.233	1069.741	840.656
14.761	20.432	1073.868	864.777
15.775	18.813	1071.163	854.476
16.790	17.257	1068.890	844.857
17.804	16.234	1066.213	837.591
18.819	15.263	1064.490	831.353
19.834	15.067	1062.589	828.825
20.848	14.564	1061.773	825.624
21.863	14.424	1061.035	824.284
22.877	14.142	1059.988	822.004
23.892	13.934	1059.427	820.468
24.907	13.877	1058.666	819.528
25.921	13.787	1057.811	818.347
26.936	13.975	1056.949	818.534
27.950	13.958	1055.698	817.408
28.965	13.947	1054.968	816.719
29.980	14.021	1054.022	816.276
30.994	14.046	1052.743	815.338
32.009	14.237	1051.369	815.138
33.023	14.212	1051.301	814.888
34.038	14.155	1050.077	813.591
35.053	14.057	1049.563	812.641
36.067	14.090	1048.100	811.598
37.082	13.984	1047.590	810.613
38.096	14.004	1046.801	810.028
39.111	14.055	1045.931	809.531
40.126	13.981	1045.142	808.491
41.140	13.958	1044.020	807.440
42.155	13.900	1042.919	806.235
43.169	13.695	1041.949	804.419
44.184	13.824	1040.650	803.967
45.199	13.620	1040.102	802.486
46.213	13.791	1038.844	802.271
47.228	13.735	1038.194	801.427
48.242	13.959	1036.600	801.209
49.257	14.014	1035.738	800.738
50.271	13.949	1034.765	799.598
51.286	13.954	1034.126	799.058
52.301	14.006	1033.225	798.542
53.315	14.002	1032.141	797.616
54.330	13.805	1031.562	796.150
55.344	13.840	1030.995	795.811
56.359	13.891	1029.656	794.951
57.374	13.907	1028.519	794.082
58.388	13.970	1027.687	793.668
59.403	13.795	1026.981	792.216
60.417	13.724	1026.437	791.388
61.432	13.691	1025.723	790.609
62.447	13.675	1024.938	789.858
63.461	13.758	1023.831	789.333
64.476	13.559	1023.423	787.999
65.490	13.622	1022.420	787.457
66.505	13.605	1021.560	786.647
67.520	13.604	1020.886	786.053
68.534	13.732	1019.698	785.675
69.549	13.659	1019.310	784.959
70.563	13.748	1017.816	784.160
71.578	13.617	1017.636	783.334
72.593	13.612	1016.862	782.647
73.607	13.580	1015.427	781.321
74.622	13.579	1014.800	780.765
75.636	13.639	1013.963	780.334
76.651	13.563	1013.234	779.345
77.666	13.516	1012.208	778.268
78.680	13.590	1011.342	777.879
79.695	13.561	1011.285	777.631
80.709	13.717	1010.409	777.622
81.724	13.722	1009.679	777.015
82.739	13.730	1008.927	776.402
83.753	13.837	1008.284	776.341
84.768	13.887	1007.491	775.894
85.782	13.973	1006.943	775.806
86.797	14.042	1006.069	775.387
87.812	13.983	1005.589	774.674
88.826	13.951	1004.174	773.366
89.841	13.928	1003.485	772.658
90.855	14.049	1002.464	772.365
91.870	13.901	1001.983	771.240
92.884	14.061	1001.037	771.188
93.899	13.900	1000.899	770.265
94.914	14.004	999.981	769.971
95.928	13.902	999.443	769.016
96.943	14.170	998.154	769.197
97.957	14.029	997.625	768.070
98.972	13.978	996.662	767.022
99.987	14.090	995.539	766.608
101.001	14.067	995.291	766.245
102.016	13.915	994.516	764.880
103.030	13.885	993.480	763.877
104.045	14.017	992.154	763.398
105.060	13.912	991.494	762.337
106.074	13.991	990.243	761.673
107.089	13.914	989.339	760.556
108.103	13.837	988.710	759.651
109.118	13.799	987.710	758.644
110.133	13.734	986.955	757.701
111.147	13.789	985.925	757.094
112.162	13.785	984.929	756.241
113.176	13.754	984.190	755.465
114.191	13.824	983.289	755.029
115.206	13.895	982.461	754.647
116.220	13.835	981.586	753.637
117.235	13.868	980.768	753.091
118.249	13.865	979.889	752.338
119.264	13.881	979.169	751.788
120.279	13.827	978.488	750.953
121.293	13.753	977.788	750.018
122.308	13.750	976.855	749.220
123.322	13.755	976.066	748.575
124.337	13.722	974.604	747.237
125.352	13.769	973.654	746.653
126.366	13.719	972.965	745.836
127.381	13.697	971.475	744.526
128.395	13.662	970.627	743.653
129.410	13.784	969.623	743.365
130.424	13.764	969.104	742.813
131.439	13.777	968.516	742.353
132.454	13.728	967.484	741.279
133.468	13.846	966.929	741.315
134.483	13.887	966.082	740.783
135.497	13.860	965.556	740.195
136.512	13.852	964.655	739.402
137.527	13.862	963.570	738.548
138.541	13.938	962.871	738.285
139.556	13.817	962.317	737.260
140.570	13.837	961.840	736.917
141.585	13.996	960.646	736.641
142.600	14.059	959.894	736.279
143.614	14.032	959.301	735.639
144.629	14.061	958.391	735.003
145.643	14.119	957.688	734.657
146.658	14.133	956.745	733.931
147.673	14.128	955.841	733.152
148.687	13.975	954.986	731.754
149.702	13.914	954.174	730.798
150.716	13.959	952.997	730.033
151.731	13.883	952.527	729.272
152.746	13.850	951.733	728.458
153.760	13.829	951.214	727.901
154.775	14.011	950.078	727.768
155.789	14.085	949.153	727.314
156.804	14.066	948.233	726.465
157.819	14.131	947.943	726.463
158.833	14.040	947.087	725.343
159.848	14.172	946.325	725.271
160.862	14.256	945.808	725.178
161.877	14.208	944.825	724.152
162.892	14.010	944.203	722.748
163.906	13.968	943.726	722.138
164.921	13.866	942.737	720.872
165.935	13.988	941.839	720.652
166.950	13.966	941.104	719.930
167.964	14.179	939.127	719.276
168.979	13.970	938.880	718.121
169.994	14.006	937.875	717.441
171.008	14.017	937.089	716.826
172.023	14.046	936.312	716.294
173.037	14.185	935.587	716.271
174.052	14.195	934.841	715.682
175.067	14.090	934.255	714.721
176.081	14.142	933.100	713.995
177.096	13.966	932.212	712.497
178.110	14.072	931.216	712.129
179.125	14.102	930.729	711.819
180.140	14.169	929.941	711.442
181.154	14.141	929.263	710.742
182.169	14.301	928.301	710.624
183.183	14.133	928.065	709.666
184.198	14.189	927.707	709.565
185.213	14.243	926.763	709.011
186.227	14.282	925.841	708.410
187.242	14.334	925.559	708.354
188.256	14.396	924.701	707.896
189.271	14.370	924.456	707.537
190.286	14.414	923.256	706.740
191.300	14.240	922.776	705.574
192.315	14.119	921.769	704.228
193.329	13.969	921.351	703.214
194.344	14.006	920.733	702.833
195.359	14.101	919.862	702.508
196.373	14.134	919.801	702.540
197.388	14.164	919.267	702.196
198.402	14.320	918.696	702.357
199.417	14.413	918.008	702.159
200.432	14.507	917.571	702.160
201.446	14.581	917.091	702.040
202.461	14.630	916.506	701.735
203.475	14.712	915.992	701.625
204.490	14.596	915.508	700.708
205.504	14.629	914.457	699.979
206.519	14.498	913.751	698.829
207.534	14.479	912.838	697.988
208.548	14.504	912.160	697.512
209.563	14.556	911.896	697.466
210.577	14.515	910.982	696.534
211.592	14.589	910.181	696.167
212.607	14.554	910.032	695.849
213.621	14.675	909.484	695.869
214.636	14.671	908.642	695.150
215.650	14.648	907.729	694.294
216.665	14.607	907.301	693.731
217.680	14.642	906.830	693.459
218.694	14.769	906.143	693.399
219.709	14.692	905.731	692.703
220.723	14.802	904.876	692.441
221.738	14.692	904.448	691.597
222.753	14.808	903.559	691.337
223.767	14.595	903.372	690.251
224.782	14.819	901.808	689.922
225.796	14.972	901.171	690.003
226.811	14.773	900.836	688.863
227.826	14.984	899.426	688.594
228.840	14.782	899.374	687.662
229.855	14.873	898.574	687.364
230.869	14.853	898.161	686.906
231.884	14.844	897.339	686.180
232.899	14.792	896.420	685.202
233.913	14.796	895.691	684.603
234.928	14.818	895.120	684.194
235.942	14.724	894.435	683.225
236.957	14.655	893.972	682.529
237.972	14.774	893.089	682.279
238.986	14.700	892.556	681.512
240.001	14.765	891.650	681.022
241.015	14.853	891.119	680.917
242.030	14.773	890.960	680.408
243.045	14.826	890.031	679.855
244.059	15.138	889.093	680.345
245.074	14.997	888.771	679.466
246.088	15.059	888.191	679.213
247.103	15.051	887.401	678.518
248.117	15.048	887.038	678.169
249.132	15.161	886.213	677.935
250.147	15.178	885.764	677.598
251.161	15.296	885.280	677.646
252.176	15.399	884.303	677.256
253.190	15.309	883.846	676.482
254.205	15.503	882.795	676.400
255.220	15.638	882.505	676.659
256.234	15.422	882.002	675.347
257.249	15.501	881.494	675.214
258.263	15.473	881.059	674.708
259.278	15.419	880.532	674.029
260.293	15.476	880.014	673.803
261.307	15.532	879.143	673.301
262.322	15.586	878.528	672.985
263.336	15.508	878.227	672.382
264.351	15.626	877.324	672.102
265.366	15.674	876.801	671.837
266.380	15.632	876.154	671.111
267.395	15.567	875.681	670.430
268.409	15.581	874.671	669.654
269.424	15.536	874.002	668.903
270.439	15.598	873.229	668.500
271.453	15.541	872.838	667.914
272.468	15.433	872.100	666.863
273.482	15.423	871.558	666.349
274.497	15.515	870.974	666.208
275.512	15.580	870.024	665.680
276.526	15.616	869.208	665.140
277.541	15.604	868.604	664.573
278.555	15.568	868.293	664.134
279.570	15.717	867.507	664.060
280.585	15.712	867.067	663.647
281.599	15.674	866.974	663.367
282.614	15.740	865.691	662.585
283.628	15.643	865.306	661.852
284.643	15.733	864.815	661.768
285.657	15.677	864.480	661.235
286.672	15.710	864.087	661.006
287.687	15.659	863.521	660.313
288.701	15.837	862.473	660.152
289.716	15.609	862.385	659.131
290.730	15.805	861.390	659.083
291.745	15.732	861.028	658.459
292.760	15.753	860.230	657.875
293.774	15.789	859.464	657.370
294.789	15.855	859.252	657.408
295.803	15.809	858.562	656.642
296.818	15.816	857.587	655.864
297.833	15.848	857.438	655.817
298.847	15.810	856.460	654.865
299.862	15.876	855.745	654.518
300.876	15.915	855.130	654.138
301.891	15.981	854.324	653.720
302.906	16.103	853.909	653.820
303.920	16.161	853.323	653.536
304.935	16.032	852.713	652.512
305.949	16.132	851.882	652.205
306.964	16.065	851.566	651.647
307.979	16.048	851.368	651.374
308.993	16.185	850.242	650.980
310.008	16.157	850.001	650.633
311.022	16.146	849.681	650.286
312.037	16.147	848.757	649.524
313.052	16.182	848.409	649.336
314.066	16.073	847.882	648.458
315.081	15.979	847.219	647.531
316.095	16.099	846.287	647.220
317.110	16.239	845.623	647.195
318.125	16.140	845.255	646.476
319.139	16.208	844.876	646.388
320.154	16.095	844.342	645.489
321.168	15.996	843.986	644.781
322.183	16.208	842.916	644.718
323.197	16.179	842.585	644.296
324.212	16.218	842.061	643.988
325.227	16.169	841.667	643.444
326.241	16.230	840.999	643.109
327.256	16.276	840.163	642.588
328.270	16.286	839.932	642.393
329.285	16.089	839.429	641.199
330.300	16.281	838.274	640.990
331.314	16.203	837.977	640.413
332.329	16.235	837.355	640.000
333.343	16.339	836.812	639.924
334.358	16.372	836.260	639.569
335.373	16.507	835.479	639.427
336.387	16.365	835.235	638.644
337.402	16.310	834.864	638.098
338.416	16.522	834.134	638.283
339.431	16.440	834.102	637.894
340.446	16.596	833.308	637.819
341.460	16.581	832.433	637.033
342.475	16.635	832.038	636.878
343.489	16.703	831.238	636.466
344.504	16.757	831.003	636.435
345.519	16.850	830.237	636.141
346.533	16.774	829.799	635.462
347.548	17.130	828.921	636.066
348.562	16.819	828.958	634.872
349.577	16.552	828.660	633.588
350.592	16.561	827.800	632.911
351.606	16.541	827.549	632.586
352.621	16.665	826.762	632.393
353.635	16.743	826.145	632.157
354.650	16.693	825.952	631.765
355.665	16.539	825.640	630.896
356.679	16.795	825.151	631.421
357.694	16.875	824.296	631.011
358.708	16.757	823.714	630.067
359.723	16.644	823.075	629.103
360.738	16.805	822.743	629.394
361.752	16.856	822.166	629.084
362.767	16.808	821.995	628.720
363.781	16.851	821.430	628.391
364.796	16.888	821.198	628.295
365.810	16.949	820.622	628.024
366.825	17.044	820.563	628.275
367.840	17.082	820.234	628.110
368.854	17.203	819.234	627.736
369.869	17.062	818.859	626.872
370.883	17.056	818.828	626.771
371.898	17.130	817.637	626.076
372.913	16.998	817.375	625.336
373.927	16.985	816.973	624.923
374.942	17.042	816.328	624.585
375.956	17.149	815.322	624.151
376.971	17.066	815.024	623.564
377.986	17.277	814.455	623.849
379.000	17.165	814.064	623.082
380.015	17.191	813.312	622.546
381.029	17.388	812.537	622.622
382.044	17.448	811.789	622.212
383.059	17.387	811.225	621.502
384.073	17.275	810.838	620.741
385.088	17.360	810.561	620.782
386.102	17.221	809.886	619.704
387.117	17.193	809.158	618.992
388.132	17.373	809.048	619.507
389.146	17.266	808.686	618.788
390.161	17.061	808.563	617.890
391.175	17.383	807.663	618.318
392.190	17.332	807.548	617.991
393.205	17.284	806.821	617.206
394.219	17.324	806.430	616.999
395.234	17.243	806.147	616.432
396.248	17.208	805.459	615.727
397.263	17.223	804.956	615.342
398.278	17.248	804.177	614.781
399.292	17.093	804.112	614.117
400.307	17.215	803.510	614.045
401.321	17.258	802.976	613.737
402.336	17.252	802.786	613.513
403.350	17.221	802.655	613.251
404.365	17.236	801.941	612.704
405.380	17.496	801.294	613.090
406.394	17.488	801.377	613.071
407.409	17.508	800.980	612.785
408.423	17.515	800.437	612.343
409.438	17.578	799.696	611.944
410.453	17.472	799.584	611.427
411.467	17.633	798.816	611.363
412.482	17.652	798.503	611.135
413.496	17.667	797.855	610.641
414.511	17.743	797.518	610.599
415.526	17.908	797.250	610.931
416.540	17.881	796.386	610.120
417.555	17.778	796.333	609.654
418.569	17.779	796.003	609.353
419.584	17.871	795.391	609.159
420.599	17.808	794.966	608.556
421.613	150.159	1367.298	1783.830
422.628	129.858	1450.688	1783.944
