DTS Sentinel unit serial number:	SN413079Multiplexer serial number:	ORYXHardware model number:	OX4-SRSoftware version number:	ORYX F/W v4.00 Oryx Data Collector v3.7.2.0data status	okinstallation	princeton_trtdifferential loss correction	single-endedforward channel	channel 3reverse channel	N/Adate	2019/09/12time	19:13:04forward acquisition time	15.00reverse acquisition time	0.00gamma	496.2192k internal	0.2319k external	0.2319temperature offset calibration	1.0113default loss term (dB/km)	0.3790temperature slope calibration	1.0000multiplexer offset coefficient	1.0000multiplexer slope coefficient	1.0000fibre end	0.00T internal ref (°C)	32.56T ext. ref 1 (°C)	3.23T ext. ref 2 (°C)	27.13length (m)	temperature (°C)	Stokes	anti-Stokes-747.200	19.331	0.677	0.550
-746.185	-200.000	-0.140	0.845
-745.171	-102.193	-0.805	0.196
-744.156	800.000	-0.113	0.334
-743.142	-79.335	0.449	0.154
-742.127	368.856	-0.172	-0.351
-741.112	-61.013	-0.289	-0.123
-740.098	142.063	-0.438	-0.587
-739.083	-141.788	-0.680	-0.069
-738.069	-200.000	-0.080	0.540
-737.054	-200.000	0.002	0.166
-736.039	-123.795	1.021	0.163
-735.025	177.624	-0.413	-0.608
-734.010	-150.057	0.470	-0.037
-732.996	40.717	0.122	0.111
-731.981	-200.000	-0.083	-0.551
-730.966	-107.714	-0.258	0.057
-729.952	-12.414	0.622	-0.410
-728.937	-131.550	0.325	0.043
-727.923	-200.000	0.149	0.898
-726.908	62.193	-0.504	-0.508
-725.894	71.009	-0.262	-0.274
-724.879	33.671	-0.244	-0.215
-723.864	-44.534	0.138	-0.069
-722.850	-200.000	-0.107	-0.645
-721.835	-132.106	-0.382	-0.050
-720.821	10.251	0.168	-0.129
-719.806	487.276	-0.197	-0.454
-718.791	201.219	0.183	-0.285
-717.777	-14.202	0.826	0.538
-716.762	649.229	0.185	0.477
-715.748	800.000	-0.080	0.269
-714.733	-200.000	0.108	0.507
-713.718	476.775	0.047	0.107
-712.704	324.456	-0.366	-0.705
-711.689	364.040	0.323	0.656
-710.675	-67.369	-0.446	0.177
-709.660	800.000	-0.274	0.834
-708.645	-102.204	-0.893	-0.217
-707.631	52.938	-0.695	0.672
-706.616	-86.420	0.338	-0.105
-705.602	-118.747	-0.106	0.019
-704.587	800.000	-0.100	0.419
-703.572	-35.700	-0.445	-0.243
-702.558	86.805	0.278	0.310
-701.543	-136.830	0.803	-0.093
-700.529	335.816	0.170	-0.333
-699.514	-91.972	-0.337	-0.096
-698.499	216.375	-0.354	-0.569
-697.485	-31.127	-0.396	0.225
-696.470	800.000	-0.169	0.476
-695.456	800.000	0.262	0.751
-694.441	302.048	0.025	0.047
-693.426	-96.282	-0.445	0.119
-692.412	-19.484	-0.405	-0.253
-691.397	-126.619	0.241	0.036
-690.383	172.743	0.211	-0.307
-689.368	66.311	-0.249	-0.256
-688.354	69.904	-0.155	0.162
-687.339	-54.132	0.603	-0.277
-686.324	-26.529	0.169	0.100
-685.310	-200.000	0.094	0.913
-684.295	118.198	-0.308	0.384
-683.281	35.136	-0.285	-0.252
-682.266	674.345	0.173	-0.454
-681.251	7.388	-0.553	0.417
-680.237	-200.000	0.097	0.645
-679.222	450.430	0.165	0.368
-678.208	-200.000	0.059	0.397
-677.193	-200.000	-0.056	0.976
-676.178	-148.024	-0.380	0.032
-675.164	-82.739	-0.451	0.147
-674.149	693.372	-0.140	0.370
-673.135	334.560	-0.287	0.561
-672.120	84.997	-0.387	-0.428
-671.105	-200.000	0.017	-0.569
-670.091	-51.512	0.792	-0.373
-669.076	-200.000	0.026	0.825
-668.062	-31.589	-0.313	0.178
-667.047	283.142	-0.338	-0.612
-666.032	-36.989	0.799	-0.432
-665.018	58.824	0.290	0.287
-664.003	-122.732	-0.266	0.043
-662.989	-91.331	0.356	0.103
-661.974	-200.000	0.043	0.229
-660.959	-200.000	0.000	-0.133
-659.945	800.000	0.128	-0.417
-658.930	622.747	-0.319	0.809
-657.916	111.408	-0.370	-0.450
-656.901	273.073	-0.104	-0.185
-655.886	225.591	0.267	-0.436
-654.872	82.647	0.140	0.154
-653.857	446.108	0.237	-0.526
-652.843	8.099	0.631	0.478
-651.828	-0.471	-0.413	0.295
-650.814	-23.839	0.595	0.359
-649.799	-21.857	0.565	0.347
-648.784	-49.193	0.590	-0.284
-647.770	-10.864	0.764	-0.508
-646.755	200.244	0.341	0.527
-645.741	522.101	0.323	0.765
-644.726	800.000	0.043	0.134
-643.711	51.776	0.280	-0.268
-642.697	-200.000	0.055	-0.292
-641.682	-200.000	-0.006	0.431
-640.668	40.523	0.701	0.636
-639.653	-200.000	0.021	-0.326
-638.638	-200.000	0.001	-0.518
-637.624	257.531	-0.175	-0.303
-636.609	-50.628	-0.755	-0.358
-635.595	679.899	-0.383	1.005
-634.580	-39.619	-0.186	0.098
-633.565	-71.957	0.154	0.058
-632.551	-31.600	0.822	-0.465
-631.536	284.084	-0.560	-1.014
-630.522	34.971	-0.235	0.207
-629.507	-109.257	-0.286	0.061
-628.492	75.629	0.490	0.521
-627.478	619.748	-0.253	0.641
-626.463	218.617	0.168	-0.270
-625.449	-78.213	-0.335	-0.116
-624.434	-74.401	0.770	-0.280
-623.419	344.370	0.148	0.291
-622.405	22.023	-0.246	0.202
-621.390	-19.866	-0.188	0.117
-620.376	-200.000	0.049	-0.492
-619.361	98.014	-0.143	0.165
-618.346	72.137	0.681	-0.714
-617.332	171.515	-0.334	-0.482
-616.317	274.028	0.242	0.431
-615.303	-80.580	-0.703	-0.236
-614.288	-200.000	0.192	1.157
-613.273	-200.000	-0.004	-0.081
-612.259	-75.950	-1.076	-0.383
-611.244	-79.428	-0.362	0.123
-610.230	-200.000	0.354	1.642
-609.215	-24.509	-0.395	0.236
-608.201	-88.575	0.439	0.132
-607.186	395.823	0.203	-0.427
-606.171	85.370	-0.456	0.504
-605.157	150.721	-0.435	0.595
-604.142	-135.101	-0.236	-0.029
-603.128	-22.952	0.426	-0.258
-602.113	-200.000	-0.078	-0.755
-601.098	-200.000	-0.087	0.419
-600.084	-200.000	-0.053	0.308
-599.069	399.402	0.267	0.562
-598.055	-50.898	-0.467	0.221
-597.040	168.045	0.428	-0.613
-596.025	800.000	-0.101	-0.380
-595.011	800.000	-0.065	-0.258
-593.996	-200.000	0.012	0.323
-592.982	283.542	-0.166	0.300
-591.967	-171.565	0.547	0.018
-590.952	384.844	-0.214	0.444
-589.938	-200.000	0.027	0.355
-588.923	65.443	-0.360	0.367
-587.909	-200.000	-0.060	-0.310
-586.894	-103.772	0.191	0.045
-585.879	2.430	0.475	-0.346
-584.865	51.007	0.289	0.275
-583.850	-200.000	0.012	-0.531
-582.836	800.000	0.165	-0.459
-581.821	-200.000	-0.122	0.760
-580.806	-108.300	-0.181	0.039
-579.792	229.322	-0.405	-0.665
-578.777	248.720	-0.194	0.330
-577.763	321.995	-0.246	0.470
-576.748	54.686	-0.194	-0.188
-575.733	-147.605	0.843	-0.071
-574.719	800.000	0.251	0.713
-573.704	-36.218	-0.301	-0.163
-572.690	435.196	0.161	-0.352
-571.675	800.000	-0.071	-0.243
-570.661	-200.000	0.005	-0.464
-569.646	-151.335	-0.602	-0.045
-568.631	-148.634	-0.385	0.032
-567.617	-64.877	-0.524	0.213
-566.602	800.000	0.189	0.714
-565.588	-192.518	0.419	-0.004
-564.573	-38.716	0.800	-0.424
-563.558	40.842	-0.609	0.552
-562.544	-200.000	0.262	1.199
-561.529	-19.880	-0.570	0.353
-560.515	-200.000	0.056	0.254
-559.500	800.000	0.136	-0.405
-558.485	-53.016	0.273	0.126
-557.471	-137.171	0.167	0.019
-556.456	120.040	0.046	0.058
-555.442	-52.274	-0.297	0.138
-554.427	-200.000	-0.058	-0.661
-553.412	-200.000	-0.099	-0.902
-552.398	5.901	0.308	-0.229
-551.383	208.669	-0.232	-0.364
-550.369	323.549	-0.058	-0.112
-549.354	-200.000	-0.083	-0.524
-548.339	-49.354	-0.391	0.187
-547.325	-192.380	-0.387	0.004
-546.310	36.967	0.034	-0.030
-545.296	-200.000	0.004	0.096
-544.281	-28.861	-0.703	0.406
-543.266	-90.063	-0.822	-0.240
-542.252	94.880	0.356	0.407
-541.237	-110.017	0.566	-0.119
-540.223	38.347	0.097	-0.086
-539.208	406.796	0.191	-0.406
-538.193	-200.000	0.010	-0.852
-537.179	408.908	-0.332	-0.704
-536.164	-102.069	-0.499	0.121
-535.150	632.769	0.221	-0.563
-534.135	68.228	0.443	-0.455
-533.121	8.251	-0.672	0.506
-532.106	-21.112	0.668	-0.410
-531.091	48.966	0.033	0.031
-530.077	-125.522	-1.035	0.158
-529.062	-0.077	-0.452	0.323
-528.048	45.807	-0.463	0.429
-527.033	21.185	0.371	0.302
-526.018	93.240	0.171	-0.194
-525.004	33.565	-0.435	-0.379
-523.989	-200.000	-0.009	-0.590
-522.975	-44.274	0.603	0.303
-521.960	22.702	-0.415	-0.341
-520.945	86.664	-0.376	-0.415
-519.931	480.224	0.087	0.198
-518.916	111.908	-0.636	0.770
-517.902	47.081	-0.089	-0.083
-516.887	800.000	0.160	-0.642
-515.872	-22.240	-1.279	0.777
-514.858	628.049	-0.145	-0.367
-513.843	-91.080	0.418	0.120
-512.829	27.910	0.711	-0.601
-511.814	779.252	0.168	0.462
-510.799	800.000	0.133	-0.399
-509.785	-200.000	-0.005	0.867
-508.770	-58.324	-0.426	-0.186
-507.756	118.560	-0.371	0.459
-506.741	-64.216	0.441	0.180
-505.726	-106.149	-0.469	-0.105
-504.712	-147.013	-1.284	0.110
-503.697	-200.000	-0.163	1.199
-502.683	800.000	0.203	-0.635
-501.668	-83.567	-1.144	-0.366
-500.653	184.093	-0.077	0.115
-499.639	367.732	-0.292	0.590
-498.624	552.556	-0.261	0.627
-497.610	-200.000	0.005	0.083
-496.595	-115.333	0.629	0.119
-495.581	-200.000	-0.020	0.355
-494.566	-189.102	-1.183	-0.014
-493.551	172.805	-0.138	-0.199
-492.537	-77.561	0.211	-0.073
-491.522	-200.000	-0.009	-0.118
-490.508	-78.681	-0.713	0.244
-489.493	-200.000	-0.070	-0.516
-488.478	800.000	0.409	1.397
-487.464	31.957	-0.337	0.290
-486.449	-144.135	-0.471	-0.044
-485.435	66.334	0.395	-0.402
-484.420	-28.980	-0.363	-0.209
-483.405	-109.589	-0.600	-0.127
-482.391	270.820	0.419	0.737
-481.376	102.992	0.563	-0.660
-480.362	-200.000	-0.036	0.201
-479.347	89.822	0.226	0.252
-478.332	380.525	-0.110	0.226
-477.318	57.969	0.312	0.305
-476.303	-35.741	0.590	0.320
-475.289	61.040	0.411	0.408
-474.274	-108.044	-0.551	0.120
-473.259	-95.347	-0.354	0.095
-472.245	800.000	-0.144	0.464
-471.230	50.303	-0.584	-0.552
-470.216	69.998	-0.652	-0.673
-469.201	-200.000	-0.142	-0.639
-468.186	-139.243	-0.477	0.051
-467.172	402.971	0.192	-0.403
-466.157	-200.000	-0.003	-0.169
-465.143	-31.138	0.470	-0.265
-464.128	800.000	-0.309	-0.861
-463.113	457.420	-0.213	-0.474
-462.099	-167.827	0.915	0.036
-461.084	800.000	0.085	-0.279
-460.070	360.674	0.195	-0.391
-459.055	-27.941	-0.426	0.247
-458.040	-176.277	-0.834	0.022
-457.026	60.873	-0.374	-0.371
-456.011	-97.445	-0.670	0.174
-454.997	733.233	-0.047	-0.126
-453.982	-180.907	0.668	-0.013
-452.968	800.000	0.116	-0.421
-451.953	-200.000	0.095	0.760
-450.938	26.369	0.724	0.605
-449.924	-66.253	0.191	0.076
-448.909	-168.724	0.021	-0.001
-447.895	-107.600	0.666	0.146
-446.880	-116.551	-0.374	0.069
-445.865	-110.582	-1.170	-0.242
-444.851	-200.000	0.022	0.353
-443.836	800.000	-0.090	0.264
-442.822	153.614	-0.231	0.316
-441.807	-200.000	-0.065	-0.652
-440.792	87.013	0.080	-0.088
-439.778	-200.000	0.149	1.015
-438.763	800.000	-0.085	-0.249
-437.749	-200.000	0.020	0.502
-436.734	-95.952	-0.566	0.151
-435.719	-200.000	-0.012	0.052
-434.705	135.499	0.308	-0.401
-433.690	274.915	-0.265	0.469
-432.676	-197.241	0.176	-0.001
-431.661	800.000	0.123	-0.485
-430.646	-200.000	0.047	-0.810
-429.632	-52.498	-0.383	0.177
-428.617	-49.526	-0.256	0.122
-427.603	-200.000	-0.021	0.250
-426.588	-121.549	0.201	-0.033
-425.573	800.000	0.287	-0.882
-424.559	627.329	-0.217	-0.548
-423.544	23.880	-0.383	-0.315
-422.530	347.032	0.162	-0.319
-421.515	-35.646	0.818	0.443
-420.500	-89.353	0.635	-0.187
-419.486	800.000	0.064	-0.220
-418.471	-48.697	0.408	-0.195
-417.457	-153.690	0.595	-0.041
-416.442	-139.430	-0.945	-0.101
-415.428	-12.058	0.583	-0.382
-414.413	-58.653	0.870	0.377
-413.398	129.783	0.396	0.506
-412.384	-143.758	0.209	-0.020
-411.369	-200.000	-0.035	0.298
-410.355	67.532	0.528	0.538
-409.340	-51.464	-0.267	-0.125
-408.325	68.013	0.306	-0.313
-407.311	219.690	-0.338	-0.540
-406.296	-200.000	-0.126	-0.930
-405.282	-200.000	0.037	-0.198
-404.267	-114.016	0.497	-0.096
-403.252	-135.296	0.382	0.046
-402.238	-160.798	0.761	-0.040
-401.223	-77.045	0.332	0.116
-400.209	17.145	0.560	0.443
-399.194	-65.775	0.592	0.237
-398.179	-134.248	0.077	0.009
-397.165	101.527	0.613	0.713
-396.150	63.549	0.069	-0.069
-395.136	-97.793	-0.939	0.242
-394.121	800.000	0.290	1.033
-393.106	-200.000	-0.077	0.379
-392.092	162.966	0.152	-0.213
-391.077	195.617	0.363	-0.550
-390.063	-4.217	-0.244	-0.168
-389.048	-120.661	0.212	-0.036
-388.033	-56.556	-0.302	-0.133
-387.019	-20.885	0.155	0.095
-386.004	-53.331	0.522	-0.239
-384.990	638.856	-0.489	-1.240
-383.975	-144.353	0.703	0.065
-382.960	198.895	-0.685	1.047
-381.946	-200.000	-0.003	0.131
-380.931	51.247	0.757	0.716
-379.917	-181.971	-0.212	0.004
-378.902	800.000	0.291	-0.900
-377.888	800.000	0.172	-0.599
-376.873	800.000	-0.067	-0.229
-375.858	37.981	0.452	0.401
-374.844	115.101	-0.211	-0.256
-373.829	800.000	0.327	0.901
-372.815	423.361	-0.076	-0.162
-371.800	116.038	-0.394	0.481
-370.785	-200.000	-0.124	1.213
-369.771	-200.000	-0.053	0.252
-368.756	-134.014	0.492	-0.061
-367.742	95.840	0.160	-0.183
-366.727	-140.498	-0.504	-0.052
-365.712	43.068	-0.222	0.201
-364.698	-200.000	0.010	0.218
-363.683	800.000	0.115	-0.334
-362.669	491.334	0.180	0.411
-361.654	-200.000	-0.039	0.655
-360.639	123.547	-0.394	-0.493
-359.625	-15.776	-0.231	-0.147
-358.610	-200.000	-0.029	-0.135
-357.596	-69.917	0.669	0.254
-356.581	436.961	-0.097	0.210
-355.566	-200.000	0.079	-0.550
-354.552	404.109	-0.229	-0.479
-353.537	-32.282	0.654	-0.364
-352.523	-121.678	0.469	-0.077
-351.508	24.364	0.347	-0.285
-350.493	-103.308	-0.346	-0.081
-349.479	353.456	0.322	0.636
-348.464	371.350	-0.548	1.106
-347.450	800.000	-0.227	-0.631
-346.435	784.316	0.117	-0.319
-345.420	7.954	-0.124	-0.093
-344.406	424.258	-0.194	-0.415
-343.391	-91.306	0.894	-0.255
-342.377	-35.889	0.540	0.291
-341.362	57.346	-0.826	-0.803
-340.348	180.903	0.496	-0.725
-339.333	800.000	-0.116	0.340
-338.318	-98.769	-0.577	-0.146
-337.304	430.584	-0.373	-0.804
-336.289	800.000	0.128	-0.362
-335.275	-200.000	0.065	-0.373
-334.260	-88.428	0.213	-0.063
-333.245	94.460	0.329	0.372
-332.231	17.404	0.922	0.729
-331.216	-126.848	-0.369	-0.054
-330.202	328.175	0.517	-0.987
-329.187	800.000	0.053	-0.199
-328.172	-133.780	-0.370	-0.046
-327.158	25.794	-0.456	-0.378
-326.143	-59.342	-0.389	0.166
-325.129	97.009	0.381	-0.434
-324.114	-18.456	-0.307	0.191
-323.099	800.000	-0.241	0.950
-322.085	75.608	0.301	-0.316
-321.070	60.143	0.278	0.274
-320.056	-30.626	0.339	-0.191
-319.041	69.335	0.160	0.164
-318.026	372.343	-0.218	0.440
-317.012	-32.214	-0.255	0.142
-315.997	-200.000	-0.168	-1.543
-314.983	800.000	-0.124	0.399
-313.968	91.589	-0.355	-0.397
-312.953	-200.000	0.103	-0.494
-311.939	91.995	-0.203	0.227
-310.924	104.760	-0.633	-0.742
-309.910	92.545	0.617	-0.692
-308.895	244.813	0.535	0.895
-307.880	81.461	0.254	0.273
-306.866	-13.752	0.820	0.527
-305.851	-120.337	0.492	-0.083
-304.837	800.000	0.048	-0.163
-303.822	567.260	-0.139	-0.335
-302.807	297.973	0.154	-0.281
-301.793	-20.157	-0.740	-0.454
-300.778	-200.000	-0.054	0.290
-299.764	-129.861	-0.910	-0.124
-298.749	-175.662	0.706	-0.019
-297.735	-200.000	0.133	0.889
-296.720	0.835	0.290	0.207
-295.705	-200.000	0.032	0.286
-294.691	800.000	-0.244	-0.833
-293.676	-185.033	0.422	-0.007
-292.662	9.459	0.945	0.711
-291.647	-160.913	-0.828	-0.043
-290.632	-47.663	0.249	-0.120
-289.618	-76.501	0.250	0.087
-288.603	-200.000	-0.079	-0.631
-287.589	19.052	-0.203	-0.162
-286.574	-45.086	0.335	-0.165
-285.559	-17.512	0.346	0.216
-284.545	800.000	-0.201	0.623
-283.530	32.058	0.179	0.153
-282.516	312.740	-0.131	0.244
-281.501	-200.000	-0.051	-0.620
-280.486	-163.408	-1.134	0.054
-279.472	-62.067	0.328	0.136
-278.457	-172.556	-0.163	0.005
-277.443	-137.136	0.498	0.056
-276.428	113.588	-0.174	0.210
-275.413	127.055	0.452	-0.569
-274.399	-45.679	-0.470	-0.231
-273.384	35.043	-0.889	-0.773
-272.370	-200.000	-0.020	0.532
-271.355	623.311	0.201	-0.502
-270.340	-200.000	0.049	-0.672
-269.326	-179.531	-0.299	-0.006
-268.311	-14.212	-0.640	-0.410
-267.297	-100.769	-0.203	-0.050
-266.282	-44.402	-0.626	-0.311
-265.267	402.300	0.247	0.515
-264.253	-200.000	0.093	-0.494
-263.238	111.949	-0.491	-0.589
-262.224	-200.000	-0.098	-0.800
-261.209	-200.000	0.074	-0.457
-260.195	-91.228	0.226	0.064
-259.180	-132.490	0.372	-0.047
-258.165	-200.000	0.059	0.889
-257.151	77.145	-0.601	0.634
-256.136	61.932	-0.829	0.820
-255.122	128.388	-0.268	-0.339
-254.107	-35.580	-0.709	0.381
-253.092	88.732	0.462	-0.510
-252.078	-187.746	0.308	0.004
-251.063	800.000	-0.036	0.125
-250.049	233.038	0.132	0.215
-249.034	11.070	-0.836	0.634
-248.019	111.917	-0.305	0.365
-247.005	111.783	-0.513	-0.615
-245.990	800.000	0.261	0.824
-244.976	-200.000	-0.107	0.553
-243.961	67.052	0.311	0.315
-242.946	72.582	0.358	-0.371
-241.932	363.254	-0.145	-0.290
-240.917	5.190	0.338	-0.247
-239.903	-40.148	-0.347	-0.179
-238.888	800.000	0.076	0.231
-237.873	-16.883	-0.761	-0.477
-236.859	-16.073	0.932	0.588
-235.844	-178.966	-0.662	-0.015
-234.830	-49.457	0.201	0.095
-233.815	21.223	0.121	-0.098
-232.800	-35.034	-0.649	0.351
-231.786	-114.600	0.311	0.059
-230.771	52.736	0.687	0.651
-229.757	130.111	-0.318	-0.403
-228.742	135.623	0.220	-0.284
-227.727	363.665	0.270	-0.537
-226.713	479.259	-0.254	0.571
-225.698	-112.963	-0.204	0.040
-224.684	43.026	0.489	0.442
-223.669	54.742	0.728	-0.696
-222.655	477.247	-0.058	0.129
-221.640	-144.225	-0.929	0.086
-220.625	800.000	-0.108	0.333
-219.611	-69.728	0.805	0.305
-218.596	-145.955	1.035	-0.091
-217.582	-200.000	-0.076	0.473
-216.567	800.000	0.105	0.431
-215.552	-200.000	-0.119	-0.538
-214.538	-166.616	0.394	0.016
-213.523	-200.000	0.026	-0.489
-212.509	-99.885	-0.464	-0.115
-211.494	10.752	0.563	-0.426
-210.479	-200.000	0.016	0.445
-209.465	593.134	-0.204	-0.499
-208.450	-26.810	0.424	-0.245
-207.436	-138.665	-0.482	-0.052
-206.421	-48.286	0.367	-0.175
-205.406	10.313	0.433	-0.327
-204.392	43.274	-0.365	0.330
-203.377	-81.707	0.320	0.104
-202.363	49.877	-0.275	0.257
-201.348	285.345	-0.057	0.101
-200.333	405.490	-0.337	0.704
-199.319	-200.000	0.167	-0.783
-198.304	752.693	0.244	-0.653
-197.290	-12.575	-0.445	0.288
-196.275	558.932	0.120	-0.287
-195.260	659.204	0.077	-0.195
-194.246	-93.975	0.350	-0.095
-193.231	313.496	-0.065	0.121
-192.217	-84.523	-0.356	-0.111
-191.202	-146.945	0.397	0.034
-190.187	56.086	-0.283	0.272
-189.173	-160.420	0.687	-0.037
-188.158	599.985	-0.298	-0.733
-187.144	271.874	-0.374	0.652
-186.129	-84.293	0.487	0.153
-185.114	-136.377	0.818	-0.094
-184.100	-200.000	-0.008	-0.634
-183.085	-200.000	0.005	0.780
-182.071	150.591	0.461	0.620
-181.056	-40.985	0.229	-0.117
-180.042	191.477	0.177	0.264
-179.027	-200.000	0.052	-0.800
-178.012	-89.776	0.414	0.120
-176.998	-33.151	-0.384	-0.211
-175.983	-200.000	-0.013	-0.192
-174.969	-30.812	0.054	-0.030
-173.954	16.307	0.729	-0.569
-172.939	773.393	-0.147	-0.398
-171.925	800.000	0.181	-0.525
-170.910	553.290	-0.303	0.721
-169.896	112.312	-0.634	0.758
-168.881	-13.867	-0.206	-0.132
-167.866	-200.000	-0.023	0.500
-166.852	-13.269	0.381	-0.244
-165.837	345.377	0.297	0.577
-164.823	160.558	0.492	-0.679
-163.808	-200.000	-0.159	-0.785
-162.793	275.733	0.281	-0.493
-161.779	-15.750	0.191	-0.120
-160.764	800.000	-0.299	0.843
-159.750	-200.000	-0.099	0.762
-158.735	800.000	-0.231	0.797
-157.720	10.609	0.197	0.148
-156.706	31.306	-0.260	0.221
-155.691	-94.024	-0.544	0.147
-154.677	800.000	-0.351	0.977
-153.662	-79.443	0.135	0.045
-152.647	359.982	0.230	-0.455
-151.633	547.940	-0.085	-0.201
-150.618	100.090	-0.257	0.294
-149.604	-160.401	-0.691	0.037
-148.589	19.073	-0.605	-0.479
-147.574	-150.150	0.244	-0.019
-146.560	20.649	-0.431	0.345
-145.545	142.937	0.304	0.399
-144.531	125.004	0.248	0.309
-143.516	225.477	0.253	0.405
-142.502	-30.803	-0.173	-0.097
-141.487	-200.000	-0.055	0.651
-140.472	723.768	0.177	0.465
-139.458	-200.000	0.051	-0.350
-138.443	-200.000	0.036	0.505
-137.429	-200.000	-0.243	1.201
-136.414	-43.538	0.458	-0.228
-135.399	318.158	-0.164	0.306
-134.385	210.625	-0.653	1.014
-133.370	85.420	0.217	0.235
-132.356	13.074	0.198	0.151
-131.341	-17.174	-0.489	0.304
-130.326	800.000	0.048	-0.154
-129.312	32.616	-0.378	0.323
-128.297	255.793	0.301	-0.509
-127.283	-136.366	0.570	-0.065
-126.268	-75.139	0.431	0.152
-125.253	-200.000	0.015	-0.630
-124.239	-108.774	-1.078	0.228
-123.224	-1.520	0.197	0.137
-122.210	-200.000	0.067	-0.655
-121.195	168.184	-0.410	-0.576
-120.180	-103.964	0.205	0.047
-119.166	-200.000	-0.078	-0.702
-118.151	-52.876	0.497	-0.226
-117.137	800.000	-0.148	-0.418
-116.122	-158.803	-0.472	0.027
-115.107	-73.781	-0.636	-0.228
-114.093	-135.206	0.460	-0.055
-113.078	-83.350	0.414	-0.131
-112.064	239.108	-0.172	-0.282
-111.049	396.341	-0.134	-0.277
-110.034	-43.333	-0.477	-0.238
-109.020	234.212	-0.180	0.292
-108.005	-122.393	0.108	0.017
-106.991	-200.000	0.096	0.450
-105.976	-59.161	-0.127	-0.054
-104.962	-200.000	-0.172	0.821
-103.947	-125.888	-0.925	-0.137
-102.932	139.080	0.189	-0.245
-101.918	12.008	-0.196	0.149
-100.903	108.367	0.304	-0.358
-99.889	105.610	-0.774	0.902
-98.874	-128.479	0.936	-0.131
-97.859	-43.562	-0.686	0.341
-96.845	-26.879	-0.409	-0.236
-95.830	116.517	-0.207	0.250
-94.816	-163.151	-0.736	0.035
-93.801	800.000	-0.150	-0.490
-92.786	-65.108	-0.405	-0.161
-91.772	800.000	0.041	-0.121
-90.757	-71.099	0.631	0.234
-89.743	-129.546	-0.633	-0.086
-88.728	129.274	-0.151	0.191
-87.713	232.824	0.263	0.427
-86.699	90.745	0.128	0.142
-85.684	-79.493	0.787	-0.262
-84.670	16.517	-0.305	0.237
-83.655	176.685	-0.297	0.425
-82.640	800.000	-0.087	0.354
-81.626	-142.068	-0.290	-0.028
-80.611	-91.885	0.595	0.166
-79.597	-171.682	-0.418	0.014
-78.582	-187.958	-0.883	-0.011
-77.567	-200.000	0.123	-0.599
-76.553	300.939	0.302	-0.549
-75.538	117.322	0.177	0.215
-74.524	35.087	0.350	-0.302
-73.509	-1.118	0.254	-0.177
-72.494	-35.405	0.093	-0.050
-71.480	205.319	-0.353	-0.540
-70.465	-44.986	-0.749	-0.367
-69.451	498.680	0.281	-0.637
-68.436	110.966	0.122	-0.145
-67.422	531.407	-0.164	-0.383
-66.407	-105.753	-0.339	-0.075
-65.392	-200.000	0.001	-0.341
-64.378	308.734	0.204	0.376
-63.363	-200.000	0.028	-1.173
-62.349	-15.629	0.337	0.212
-61.334	800.000	-0.317	-1.309
-60.319	800.000	0.077	-0.272
-59.305	800.000	-0.342	-1.075
-58.290	3.591	-0.501	0.360
-57.276	800.000	0.584	2.149
-56.261	-200.000	95.066	591.225
-55.246	674.631	1355.065	3462.975
-54.232	204.811	2514.083	3840.128
-53.217	118.765	2140.219	2602.638
-52.203	43.069	1693.388	1520.779
-51.188	35.660	1508.487	1304.616
-50.173	33.257	1483.023	1266.481
-49.159	53.271	1533.081	1445.847
-48.144	53.979	1550.535	1467.071
-47.130	35.907	1509.927	1307.337
-46.115	32.693	1494.851	1272.575
-45.100	32.783	1490.942	1269.803
-44.086	32.662	1490.241	1268.343
-43.071	32.584	1487.337	1265.292
-42.057	32.452	1486.998	1264.070
-41.042	32.487	1485.029	1262.585
-40.027	32.301	1483.859	1260.287
-39.013	32.694	1481.548	1260.905
-37.998	32.399	1481.528	1258.864
-36.984	32.541	1479.823	1258.315
-35.969	32.700	1477.588	1257.423
-34.954	32.549	1476.775	1255.679
-33.940	32.870	1474.228	1255.601
-32.925	32.611	1474.209	1253.806
-31.911	32.957	1472.001	1254.181
-30.896	32.715	1471.925	1252.460
-29.881	32.587	1470.454	1250.307
-28.867	32.561	1468.805	1248.685
-27.852	32.444	1468.221	1247.359
-26.838	32.606	1465.857	1246.376
-25.823	32.600	1464.535	1245.160
-24.809	32.453	1463.929	1243.624
-23.794	32.631	1461.818	1242.958
-22.779	32.505	1459.971	1240.511
-21.765	32.373	1459.750	1239.401
-20.750	32.760	1458.466	1240.807
-19.736	32.627	1457.019	1238.653
-18.721	32.695	1457.088	1239.112
-17.706	32.405	1455.130	1235.491
-16.692	32.669	1453.533	1235.821
-15.677	32.538	1453.056	1234.509
-14.663	32.357	1452.560	1232.848
-13.648	32.670	1450.933	1233.466
-12.633	32.566	1449.913	1231.869
-11.619	32.574	1449.292	1231.349
-10.604	32.383	1447.616	1228.626
-9.590	32.524	1447.151	1229.104
-8.575	32.530	1446.217	1228.303
-7.560	32.431	1445.863	1227.308
-6.546	32.391	1444.255	1225.631
-5.531	32.434	1444.163	1225.784
-4.517	32.668	1442.783	1226.090
-3.502	32.139	1443.183	1222.938
-2.487	32.591	1440.905	1223.897
-1.473	32.371	1440.896	1222.410
-0.458	32.596	1438.242	1221.571
0.556	33.956	1429.283	1210.901
1.571	30.799	1403.327	1169.016
2.586	27.078	1343.595	1096.742
3.600	25.408	1264.165	1022.317
4.615	23.679	1218.774	976.032
5.629	20.160	1161.660	911.738
6.644	11.481	1076.580	802.405
7.659	4.752	1035.328	739.698
8.673	3.492	1030.762	730.409
9.688	3.252	1027.279	726.740
10.702	2.904	1026.731	724.649
11.717	3.273	1023.615	724.120
12.731	6.248	1027.297	740.686
13.746	15.309	1040.768	793.381
14.761	22.637	1049.204	834.562
15.775	24.358	1050.912	843.996
16.790	24.588	1049.101	843.554
17.804	23.941	1048.861	840.228
18.819	23.754	1047.905	838.507
19.834	23.818	1046.489	837.602
20.848	23.952	1046.353	838.052
21.863	23.956	1046.537	838.142
22.877	24.081	1045.636	837.935
23.892	24.122	1044.697	837.302
24.907	23.713	1043.657	834.473
25.921	23.755	1043.623	834.567
26.936	23.804	1042.495	833.824
27.950	23.565	1042.424	832.570
28.965	23.458	1040.276	830.282
29.980	23.620	1040.163	830.877
30.994	23.828	1038.690	830.598
32.009	24.044	1036.874	830.079
33.023	24.098	1036.648	830.077
34.038	23.884	1035.962	828.457
35.053	23.691	1035.240	826.906
36.067	24.030	1033.662	827.151
37.082	23.555	1033.827	824.998
38.096	23.473	1033.248	824.084
39.111	23.854	1032.100	824.863
40.126	24.026	1032.452	825.870
41.140	23.683	1030.249	822.444
42.155	23.413	1028.856	820.013
43.169	23.105	1027.872	817.733
44.184	23.426	1026.545	818.085
45.199	23.099	1026.343	816.345
46.213	22.923	1024.746	814.190
47.228	23.221	1024.303	815.137
48.242	23.632	1022.756	815.725
49.257	24.140	1023.157	818.307
50.271	24.048	1021.814	816.740
51.286	23.931	1021.174	815.617
52.301	23.805	1020.940	814.783
53.315	24.261	1019.515	815.660
54.330	24.033	1019.482	814.516
55.344	23.609	1018.788	811.950
56.359	23.806	1016.046	810.590
57.374	23.776	1016.021	810.363
58.388	23.574	1015.694	809.111
59.403	23.264	1016.178	808.011
60.417	23.371	1014.664	807.222
61.432	23.285	1013.954	806.193
62.447	23.371	1012.680	805.502
63.461	23.303	1012.995	805.370
64.476	23.490	1011.429	804.902
65.490	23.188	1010.144	802.441
66.505	22.972	1009.847	801.155
67.520	23.256	1008.528	801.323
68.534	23.421	1009.007	802.377
69.549	23.799	1006.983	802.408
70.563	23.141	1005.909	798.509
71.578	22.831	1005.991	797.103
72.593	22.629	1004.712	795.110
73.607	22.506	1003.033	793.159
74.622	22.343	1003.191	792.480
75.636	22.615	1001.565	792.348
76.651	22.705	1001.997	793.021
77.666	23.054	1000.004	792.940
78.680	22.869	999.504	791.644
79.695	22.752	999.814	791.297
80.709	22.771	999.572	791.119
81.724	23.203	997.454	791.305
82.739	23.087	996.562	790.011
83.753	23.071	996.413	789.751
84.768	23.390	996.396	791.090
85.782	23.710	996.013	792.143
86.797	24.268	994.453	793.317
87.812	24.189	993.859	792.423
88.826	23.778	994.164	790.764
89.841	24.065	992.859	790.933
90.855	24.140	992.049	790.550
91.870	24.083	991.303	789.633
92.884	24.308	990.214	789.695
93.899	24.023	990.566	788.643
94.914	23.971	988.313	786.547
95.928	24.022	987.769	786.272
96.943	23.820	988.088	785.561
97.957	23.763	987.024	784.398
98.972	23.879	985.290	783.458
99.987	23.757	984.201	781.989
101.001	24.042	983.077	782.279
102.016	24.189	983.526	783.213
103.030	23.973	982.055	781.023
104.045	23.748	982.073	779.982
105.060	23.858	981.106	779.624
106.074	24.060	979.391	779.078
107.089	24.040	979.108	778.697
108.103	23.783	977.811	776.474
109.118	23.745	975.653	774.527
110.133	23.081	976.382	772.138
111.147	23.312	975.125	772.084
112.162	23.032	972.992	769.106
113.176	22.664	973.232	767.625
114.191	23.314	971.306	768.865
115.206	23.313	971.743	769.135
116.220	23.349	970.798	768.476
117.235	22.768	970.549	765.689
118.249	22.847	969.518	765.154
119.264	23.081	968.465	765.266
120.279	22.955	967.273	763.711
121.293	22.690	966.545	761.926
122.308	22.891	965.871	762.196
123.322	22.745	964.580	760.479
124.337	22.413	963.512	758.141
125.352	22.815	961.950	758.571
126.366	22.639	960.829	756.867
127.381	22.504	960.455	755.925
128.395	22.734	960.117	756.576
129.410	23.196	959.197	757.766
130.424	23.205	958.876	757.483
131.439	23.446	958.242	757.944
132.454	23.511	957.220	757.350
133.468	23.618	956.109	756.856
134.483	23.363	956.588	756.084
135.497	23.377	955.462	755.185
136.512	23.402	954.415	754.395
137.527	23.644	953.917	754.967
138.541	23.566	952.733	753.631
139.556	23.722	952.010	753.655
140.570	23.741	951.327	753.126
141.585	23.577	950.729	751.894
142.600	23.564	951.347	752.260
143.614	24.248	949.400	753.547
144.629	23.818	949.391	751.655
145.643	24.004	949.274	752.280
146.658	24.035	948.432	751.677
147.673	23.710	947.267	749.320
148.687	23.898	944.469	747.831
149.702	23.546	944.241	746.104
150.716	23.809	942.723	745.941
151.731	23.503	941.986	744.008
152.746	23.465	940.859	742.891
153.760	23.742	940.470	743.681
154.775	23.850	940.660	744.215
155.789	24.148	939.062	744.133
156.804	24.131	938.748	743.746
157.819	23.458	938.072	740.336
158.833	23.966	936.580	741.208
159.848	23.995	935.996	740.802
160.862	24.104	934.886	740.313
161.877	24.087	934.004	739.477
162.892	23.677	933.738	737.498
163.906	23.558	931.786	735.399
164.921	23.743	931.407	735.801
165.935	23.666	929.906	734.232
166.950	23.478	929.366	732.964
167.964	23.367	929.838	732.812
168.979	23.552	928.161	732.187
169.994	23.641	927.023	731.591
171.008	23.520	926.715	730.784
172.023	23.769	925.065	730.446
173.037	23.892	925.032	730.858
174.052	24.158	924.394	731.383
175.067	24.168	923.005	730.259
176.081	23.969	921.954	728.549
177.096	23.203	921.291	724.824
178.110	23.597	918.851	724.452
179.125	23.276	919.137	723.303
180.140	23.006	918.685	721.781
181.154	23.244	917.380	721.660
182.169	23.762	916.151	722.737
183.183	23.745	916.513	722.890
184.198	23.883	916.921	723.708
185.213	23.671	916.456	722.415
186.227	24.059	915.405	723.100
187.242	23.498	914.959	720.404
188.256	23.659	914.188	720.389
189.271	24.459	913.094	722.704
190.286	24.051	912.597	720.593
191.300	24.076	911.540	719.799
192.315	23.305	910.275	715.620
193.329	23.294	909.131	714.611
194.344	23.038	908.917	713.348
195.359	23.271	907.682	713.256
196.373	23.785	908.324	715.766
197.388	23.896	907.694	715.656
198.402	24.219	907.378	716.643
199.417	24.215	907.419	716.593
200.432	24.618	907.295	718.052
201.446	24.629	906.847	717.679
202.461	24.641	905.842	716.868
203.475	24.222	906.087	715.315
204.490	24.213	905.337	714.623
205.504	23.547	903.447	710.406
206.519	23.698	902.867	710.490
207.534	24.222	901.653	711.565
208.548	23.800	902.144	710.203
209.563	24.126	900.606	710.228
210.577	23.991	900.816	709.793
211.592	23.812	900.961	709.130
212.607	24.042	899.952	709.189
213.621	24.266	899.724	709.842
214.636	24.559	898.028	709.603
215.650	24.350	897.880	708.594
216.665	24.076	897.166	706.879
217.680	24.135	896.913	706.852
218.694	24.235	896.107	706.550
219.709	24.147	895.681	705.802
220.723	24.099	894.560	704.667
221.738	23.799	894.802	703.609
222.753	23.658	892.920	701.509
223.767	23.678	892.633	701.300
224.782	24.075	892.167	702.439
225.796	24.252	891.105	702.237
226.811	24.381	891.088	702.670
227.826	24.218	891.333	702.158
228.840	23.852	888.630	698.532
229.855	23.646	888.549	697.594
230.869	23.920	887.869	698.074
231.884	23.642	887.622	696.727
232.899	23.373	887.412	695.447
233.913	23.614	886.832	695.876
234.928	23.952	886.031	696.508
235.942	23.726	884.807	694.600
236.957	23.325	883.832	692.210
237.972	23.210	883.246	691.240
238.986	23.598	882.481	692.093
240.001	23.673	881.040	691.191
241.015	23.506	881.173	690.588
242.030	23.693	880.278	690.551
243.045	23.590	880.247	690.066
244.059	23.781	879.832	690.421
245.074	24.080	879.383	691.166
246.088	23.871	878.247	689.403
247.103	23.840	878.327	689.287
248.117	23.884	878.892	689.838
249.132	24.497	878.134	691.558
250.147	25.016	877.578	693.069
251.161	25.197	877.141	693.360
252.176	25.229	876.867	693.204
253.190	25.293	876.035	692.736
254.205	25.266	875.626	692.246
255.220	25.286	875.139	691.875
256.234	25.024	874.010	689.912
257.249	24.969	873.788	689.464
258.263	24.901	873.628	689.017
259.278	24.761	872.254	687.335
260.293	25.100	871.653	688.100
261.307	24.743	871.452	686.512
262.322	25.113	870.414	687.052
263.336	24.843	871.075	686.475
264.351	24.797	870.041	685.426
265.366	24.721	869.489	684.640
266.380	24.379	868.510	682.497
267.395	24.702	867.853	683.156
268.409	25.045	866.836	683.603
269.424	24.782	866.507	682.280
270.439	25.013	866.285	682.929
271.453	24.753	865.363	681.149
272.468	24.698	863.497	679.413
273.482	24.613	863.553	679.072
274.497	24.954	862.812	679.723
275.512	24.888	862.142	678.887
276.526	24.588	861.993	677.571
277.541	24.488	860.884	676.261
278.555	24.521	860.994	676.410
279.570	24.841	860.690	677.323
280.585	24.894	860.496	677.313
281.599	25.078	859.267	676.982
282.614	25.213	858.218	676.602
283.628	24.536	858.544	674.246
284.643	24.487	856.677	672.534
285.657	24.941	856.055	673.695
286.672	24.541	856.303	672.325
287.687	24.262	855.737	670.771
288.701	24.596	855.921	672.114
289.716	24.610	855.664	671.905
290.730	24.978	853.615	671.614
291.745	24.752	853.482	670.604
292.760	24.936	852.346	670.342
293.774	24.628	852.499	669.250
294.789	25.049	852.592	670.840
295.803	25.605	852.069	672.450
296.818	25.305	851.156	670.547
297.833	24.752	850.497	667.903
298.847	24.883	849.341	667.425
299.862	24.724	849.220	666.681
300.876	24.960	848.147	666.657
301.891	25.093	847.844	666.853
302.906	25.077	847.796	666.698
303.920	25.386	847.631	667.657
304.935	25.586	847.163	667.973
305.949	25.682	846.276	667.570
306.964	25.774	844.848	666.726
307.979	25.304	844.471	664.629
308.993	24.973	844.177	663.113
310.008	24.749	843.921	662.026
311.022	24.762	844.308	662.320
312.037	25.562	843.133	664.294
313.052	25.081	842.307	661.809
314.066	25.291	840.218	660.884
315.081	24.531	840.030	657.878
316.095	25.139	839.010	659.259
317.110	24.310	839.737	656.718
318.125	24.589	838.960	657.078
319.139	24.758	837.836	656.762
320.154	24.355	836.971	654.547
321.168	24.298	835.713	653.297
322.183	24.031	836.925	653.205
323.197	24.497	836.531	654.548
324.212	24.467	836.077	654.027
325.227	24.431	835.777	653.604
326.241	24.850	834.044	653.721
327.256	24.573	832.995	651.830
328.270	24.584	832.981	651.801
329.285	24.310	833.101	650.839
330.300	24.583	831.969	650.889
331.314	24.054	832.010	648.937
332.329	24.187	831.529	648.990
333.343	24.407	830.841	649.196
334.358	25.084	830.781	651.551
335.373	25.010	829.675	650.358
336.387	25.064	829.742	650.550
337.402	24.780	829.260	649.084
338.416	25.024	828.830	649.574
339.431	25.480	828.102	650.599
340.446	25.454	827.974	650.344
341.460	25.653	827.375	650.538
342.475	25.694	826.901	650.256
343.489	25.957	826.346	650.710
344.504	25.991	825.277	649.933
345.519	25.923	825.421	649.744
346.533	25.899	825.038	649.299
347.548	26.012	823.934	648.781
348.562	25.481	824.938	647.600
349.577	25.691	822.935	646.724
350.592	25.736	822.085	646.162
351.606	25.492	821.223	644.551
352.621	25.178	821.232	643.376
353.635	25.030	821.420	642.934
354.650	25.083	820.465	642.318
355.665	25.071	820.145	641.969
356.679	24.874	819.317	640.560
357.694	25.296	818.622	641.467
358.708	25.317	818.706	641.553
359.723	25.121	817.733	640.034
360.738	25.206	816.662	639.440
361.752	24.719	816.375	637.426
362.767	24.864	816.945	638.329
363.781	25.264	816.906	639.669
364.796	25.888	815.612	640.818
365.810	26.175	814.998	641.298
366.825	26.126	814.630	640.780
367.840	25.851	816.101	640.903
368.854	25.907	814.998	640.176
369.869	25.283	814.370	637.413
370.883	25.639	812.814	637.401
371.898	25.571	812.490	636.848
372.913	25.312	812.456	635.848
373.927	25.944	811.607	637.361
374.942	25.598	811.164	635.735
375.956	25.576	810.018	634.704
376.971	25.410	809.098	633.340
377.986	25.945	809.359	635.376
379.000	26.019	808.911	635.228
380.015	26.071	807.856	634.527
381.029	25.962	807.060	633.463
382.044	26.169	807.811	634.725
383.059	26.194	806.392	633.641
384.073	26.088	806.285	633.129
385.088	25.973	806.034	632.473
386.102	25.448	805.364	630.050
387.117	25.525	803.087	628.482
388.132	25.267	803.261	627.662
389.146	25.090	803.435	627.121
390.161	25.324	802.010	626.769
391.175	25.472	802.363	627.508
392.190	25.755	803.067	628.991
393.205	25.552	802.329	627.650
394.219	25.765	801.010	627.303
395.234	25.118	799.423	623.755
396.248	24.597	799.040	621.591
397.263	24.714	798.564	621.571
398.278	25.111	798.573	622.904
399.292	24.918	797.933	621.677
400.307	25.200	797.419	622.203
401.321	24.979	796.353	620.550
402.336	24.840	796.576	620.185
403.350	25.220	796.416	621.324
404.365	25.680	796.468	622.903
405.380	26.144	795.610	623.779
406.394	26.360	795.861	624.668
407.409	26.435	795.862	624.872
408.423	26.208	796.090	624.211
409.438	26.311	795.197	623.812
410.453	26.578	794.455	624.093
411.467	26.452	794.199	623.404
412.482	26.378	792.970	622.129
413.496	26.157	792.919	621.274
414.511	26.601	793.272	623.021
415.526	26.636	792.015	622.102
416.540	26.466	792.305	621.690
417.555	26.154	791.930	620.270
418.569	26.289	791.572	620.397
419.584	26.153	789.738	618.438
420.599	26.079	790.088	618.405
421.613	160.745	1369.818	1793.690
422.628	139.224	1454.274	1793.788
