DTS Sentinel unit serial number:	SN413079Multiplexer serial number:	ORYXHardware model number:	OX4-SRSoftware version number:	ORYX F/W v4.00 Oryx Data Collector v3.7.2.0data status	okinstallation	princeton_trtdifferential loss correction	single-endedforward channel	channel 3reverse channel	N/Adate	2019/09/12time	18:30:04forward acquisition time	15.00reverse acquisition time	0.00gamma	496.2192k internal	0.2317k external	0.2317temperature offset calibration	1.0093default loss term (dB/km)	0.3790temperature slope calibration	1.0000multiplexer offset coefficient	1.0000multiplexer slope coefficient	1.0000fibre end	0.00T internal ref (°C)	33.25T ext. ref 1 (°C)	2.96T ext. ref 2 (°C)	27.83length (m)	temperature (°C)	Stokes	anti-Stokes-747.200	-17.132	0.185	-0.118
-746.185	-8.643	-0.139	-0.094
-745.171	800.000	-0.232	-0.671
-744.156	23.677	0.073	0.061
-743.142	164.971	-0.304	0.435
-742.127	92.351	-0.544	-0.621
-741.112	-20.289	-0.424	0.264
-740.098	-200.000	0.006	0.243
-739.083	-78.163	-0.462	0.161
-738.069	188.378	-0.485	-0.735
-737.054	548.091	0.242	-0.586
-736.039	-45.768	-0.575	0.288
-735.025	-94.966	0.489	0.134
-734.010	53.213	0.454	-0.441
-732.996	-45.639	-0.333	-0.167
-731.981	-89.315	0.212	0.063
-730.966	-83.279	-0.755	-0.245
-729.952	612.414	-0.087	-0.221
-728.937	-200.000	-0.013	0.079
-727.923	-119.445	0.770	0.135
-726.908	60.126	0.162	0.162
-725.894	404.944	0.258	-0.550
-724.879	-23.963	-0.353	0.214
-723.864	-100.278	0.108	0.027
-722.850	-186.715	-0.159	-0.002
-721.835	-97.419	-0.667	-0.175
-720.821	144.417	0.398	-0.537
-719.806	290.089	-0.320	0.588
-718.791	146.190	0.533	-0.724
-717.777	120.121	0.207	-0.260
-716.762	800.000	-0.064	-0.252
-715.748	-12.160	0.646	-0.428
-714.733	75.557	-0.655	-0.699
-713.718	53.227	-0.061	-0.059
-712.704	-150.813	0.216	-0.017
-711.689	-120.726	-0.356	0.061
-710.675	37.814	0.597	0.536
-709.660	-147.037	0.625	-0.054
-708.645	-165.141	0.208	0.009
-707.631	55.463	-0.449	0.440
-706.616	11.971	-0.675	-0.525
-705.602	179.185	0.201	0.297
-704.587	-111.382	0.025	0.005
-703.572	-127.118	1.042	-0.154
-702.558	-158.137	0.131	0.008
-701.543	-49.470	0.206	0.099
-700.529	156.167	-0.194	-0.271
-699.514	440.519	-0.267	0.590
-698.499	50.659	-0.396	0.379
-697.485	-62.626	-0.344	0.144
-696.470	-200.000	0.048	0.994
-695.456	-88.079	0.507	-0.154
-694.441	-137.463	0.068	-0.008
-693.426	-200.000	0.087	-0.674
-692.412	35.635	0.810	-0.719
-691.397	-114.704	0.382	0.074
-690.383	-129.633	0.629	-0.088
-689.368	-182.663	-0.229	-0.004
-688.354	251.843	0.145	-0.249
-687.339	518.298	-0.173	0.410
-686.324	-55.040	0.582	-0.265
-685.310	-200.000	-0.181	0.903
-684.295	493.872	-0.193	-0.447
-683.281	800.000	-0.101	0.432
-682.266	57.550	0.536	-0.529
-681.251	-9.342	0.158	-0.106
-680.237	-163.547	-0.108	-0.005
-679.222	-174.703	-0.380	-0.011
-678.208	-200.000	0.112	-0.883
-677.193	217.265	-0.045	-0.072
-676.178	-131.761	-0.672	0.089
-675.164	-5.187	-0.293	-0.203
-674.149	-200.000	0.072	0.380
-673.135	61.055	-0.212	0.212
-672.120	-200.000	-0.076	-0.424
-671.105	-51.723	-0.422	-0.198
-670.091	-22.293	-0.531	-0.325
-669.076	-115.517	0.568	0.108
-668.062	800.000	-0.234	0.663
-667.047	800.000	-0.188	-0.597
-666.032	800.000	0.272	-0.866
-665.018	-99.128	-1.053	-0.269
-664.003	-200.000	0.062	-0.386
-662.989	-200.000	0.042	1.082
-661.974	9.532	-0.369	0.282
-660.959	17.296	-0.606	-0.485
-659.945	111.045	-0.283	-0.343
-658.930	38.430	-0.532	-0.479
-657.916	-15.954	0.319	-0.205
-656.901	-200.000	0.088	-0.510
-655.886	61.365	-0.300	-0.301
-654.872	270.502	0.254	-0.451
-653.857	-52.184	-0.175	0.082
-652.843	27.673	0.157	0.133
-651.828	-200.000	0.010	0.745
-650.814	116.439	0.192	0.237
-649.799	329.510	-0.503	-0.976
-648.784	-47.035	-0.078	0.038
-647.770	-7.330	-0.231	0.158
-646.755	-136.034	-0.291	0.034
-645.741	-4.788	-0.228	0.158
-644.726	800.000	0.038	-0.129
-643.711	-190.282	0.886	-0.010
-642.697	376.357	-0.291	-0.598
-641.682	800.000	-0.062	-0.256
-640.668	51.662	-0.152	-0.146
-639.653	800.000	-0.212	0.607
-638.638	-200.000	0.132	-1.129
-637.624	-62.270	-1.084	-0.455
-636.609	-45.462	-0.210	-0.105
-635.595	-111.465	0.394	0.081
-634.580	-83.258	-0.502	-0.163
-633.565	-30.073	0.399	0.229
-632.551	800.000	-0.090	0.297
-631.536	-22.446	0.347	-0.212
-630.522	84.619	-0.143	0.158
-629.507	-39.330	0.868	0.459
-628.492	98.384	-0.313	-0.363
-627.478	299.657	-0.408	-0.757
-626.463	-20.343	-0.608	0.377
-625.449	150.175	-0.196	-0.268
-624.434	49.678	0.662	0.628
-623.419	164.772	0.341	-0.485
-622.405	65.741	0.520	-0.531
-621.390	-200.000	0.030	-0.529
-620.376	178.965	-0.116	-0.171
-619.361	800.000	-0.055	-0.185
-618.346	-200.000	0.186	0.849
-617.332	-200.000	-0.015	0.684
-616.317	23.710	0.341	-0.283
-615.303	35.721	0.863	-0.764
-614.288	-91.379	-0.294	-0.085
-613.273	-96.704	-0.465	0.123
-612.259	-48.502	-0.306	-0.148
-611.244	-26.042	-0.424	-0.251
-610.230	156.889	0.130	-0.180
-609.215	87.919	0.464	-0.518
-608.201	105.496	0.371	-0.442
-607.186	800.000	-0.144	-0.491
-606.171	-200.000	0.097	0.433
-605.157	36.149	-0.676	-0.599
-604.142	-200.000	-0.026	0.346
-603.128	-200.000	0.010	0.221
-602.113	-96.581	-0.193	0.051
-601.098	-200.000	-0.020	-1.079
-600.084	-129.294	-0.225	0.031
-599.069	70.472	-0.369	0.384
-598.055	188.923	0.162	0.244
-597.040	-200.000	-0.055	0.394
-596.025	686.061	-0.071	-0.185
-595.011	-200.000	0.026	0.840
-593.996	11.117	-0.504	-0.388
-592.982	86.703	0.330	0.367
-591.967	-161.359	0.400	0.021
-590.952	-48.015	-0.198	-0.097
-589.938	26.088	-0.675	-0.567
-588.923	-200.000	-0.060	0.442
-587.909	157.879	-0.456	0.636
-586.894	-124.615	-0.389	-0.061
-585.879	-33.723	0.620	-0.344
-584.865	-200.000	-0.118	-0.871
-583.850	10.643	0.876	-0.672
-582.836	183.173	-0.181	-0.269
-581.821	-30.431	0.251	0.143
-580.806	800.000	0.115	-0.332
-579.792	201.704	-0.487	-0.755
-578.777	95.645	-0.296	-0.339
-577.763	66.313	0.560	0.572
-576.748	-200.000	0.050	-0.251
-575.733	-110.034	-0.466	0.098
-574.719	-145.985	-0.844	-0.075
-573.704	544.233	-0.091	-0.220
-572.690	-146.342	0.663	0.058
-571.675	-151.683	-1.046	-0.078
-570.661	-83.223	0.942	0.304
-569.646	-10.822	0.388	0.258
-568.631	47.091	-0.414	-0.388
-567.617	-116.438	0.179	0.033
-566.602	-200.000	-0.265	1.371
-565.588	-172.523	-0.399	0.013
-564.573	-121.585	-0.533	-0.089
-563.558	-17.184	-0.737	0.467
-562.544	30.582	-0.521	0.448
-561.529	-127.790	0.614	0.089
-560.515	-151.241	0.489	0.037
-559.500	768.242	0.242	0.661
-558.485	68.005	-0.362	0.372
-557.471	800.000	-0.069	0.281
-556.456	68.917	0.411	0.424
-555.442	-200.000	0.069	0.569
-554.427	-103.681	-0.130	-0.031
-553.412	-200.000	0.009	-0.274
-552.398	-200.000	-0.012	0.583
-551.383	-33.494	0.136	-0.075
-550.369	123.003	-0.310	-0.390
-549.354	371.221	-0.250	-0.510
-548.339	800.000	0.107	-0.451
-547.325	-2.506	0.837	-0.589
-546.310	454.402	0.175	-0.390
-545.296	769.704	-0.162	-0.444
-544.281	515.317	-0.139	0.327
-543.266	-200.000	0.060	-0.521
-542.252	84.535	0.360	-0.396
-541.237	-130.854	-0.225	0.030
-540.223	-200.000	-0.017	0.472
-539.208	11.104	0.275	0.211
-538.193	-95.595	-0.258	0.069
-537.179	-200.000	0.012	0.668
-536.164	66.271	-0.279	-0.285
-535.150	68.766	0.276	0.284
-534.135	201.372	-0.267	0.413
-533.121	118.650	-0.133	-0.165
-532.106	-200.000	-0.025	-0.138
-531.091	400.880	0.338	0.713
-530.077	773.122	-0.430	-1.177
-529.062	305.359	-0.233	-0.436
-528.048	388.410	0.087	-0.180
-527.033	191.533	-0.307	-0.463
-526.018	30.089	0.381	-0.326
-525.004	-25.111	0.325	-0.193
-523.989	-103.384	-0.815	0.193
-522.975	8.363	0.740	0.559
-521.960	176.518	-0.364	0.530
-520.945	-200.000	-0.048	0.389
-519.931	-58.978	-0.591	-0.256
-518.916	800.000	-0.219	0.738
-517.902	-200.000	-0.026	0.204
-516.887	478.943	0.235	0.535
-515.872	-124.021	0.461	-0.073
-514.858	-0.370	-0.411	0.293
-513.843	-200.000	0.040	0.552
-512.829	46.926	0.291	0.271
-511.814	-200.000	-0.052	0.404
-510.799	350.373	0.368	-0.729
-509.785	-20.380	0.576	0.355
-508.770	-200.000	0.018	0.189
-507.756	-100.105	-0.255	0.064
-506.741	18.182	0.969	0.775
-505.726	-200.000	-0.111	1.092
-504.712	-164.429	-0.204	-0.009
-503.697	81.907	0.395	0.429
-502.683	222.900	-0.413	0.667
-501.668	161.167	-0.760	1.065
-500.653	205.454	-0.194	-0.303
-499.639	-7.241	0.130	-0.088
-498.624	-76.486	-0.408	0.144
-497.610	-91.842	0.023	-0.007
-496.595	592.100	-0.123	0.305
-495.581	156.355	-0.140	0.194
-494.566	-119.211	-0.837	0.146
-493.551	58.136	-0.264	-0.260
-492.537	-123.253	0.325	0.052
-491.522	800.000	0.236	0.655
-490.508	659.936	0.166	0.428
-489.493	370.416	-0.153	-0.311
-488.478	-157.096	0.540	0.033
-487.464	-38.630	-0.529	0.280
-486.449	379.093	-0.582	-1.195
-485.435	734.725	-0.064	0.172
-484.420	800.000	0.109	-0.343
-483.405	138.431	-0.433	-0.569
-482.391	-12.462	0.350	-0.229
-481.376	-154.910	-0.324	-0.021
-480.362	262.241	0.089	0.155
-479.347	42.214	-0.593	0.540
-478.332	-104.169	-0.389	0.091
-477.318	66.018	0.379	-0.386
-476.303	41.184	0.508	-0.460
-475.289	-115.534	0.974	0.184
-474.274	-200.000	0.136	0.808
-473.259	273.589	-0.229	-0.405
-472.245	-200.000	0.070	-1.052
-471.230	800.000	0.274	0.906
-470.216	-200.000	0.283	0.000
-469.201	103.459	0.330	-0.388
-468.186	-90.738	0.759	0.219
-467.172	-108.447	0.142	-0.031
-466.157	142.191	-0.467	-0.620
-465.143	-55.754	0.201	-0.090
-464.128	-200.000	-0.074	-0.907
-463.113	251.492	-0.203	-0.347
-462.099	-125.560	-0.193	-0.029
-461.084	-200.000	0.015	0.733
-460.070	-200.000	-0.039	-0.575
-459.055	-125.276	0.365	-0.056
-458.040	-200.000	0.113	-0.905
-457.026	-200.000	-0.077	0.346
-456.011	308.403	0.110	0.205
-454.997	800.000	0.250	-0.751
-453.982	-55.328	0.447	0.201
-452.968	-140.301	-0.452	0.047
-451.953	800.000	-0.190	-0.802
-450.938	-200.000	0.037	-0.216
-449.924	800.000	-0.132	0.415
-448.909	399.747	0.777	1.629
-447.895	-200.000	-0.068	0.359
-446.880	-3.605	0.658	-0.458
-445.865	-135.417	-0.302	-0.036
-444.851	-49.190	0.189	-0.090
-443.836	800.000	0.186	0.701
-442.822	-91.971	-0.923	0.262
-441.807	-2.460	0.591	0.415
-440.792	658.430	0.058	-0.149
-439.778	-17.030	-0.709	-0.448
-438.763	88.920	0.357	0.397
-437.749	164.431	-0.231	-0.326
-436.734	-120.260	0.242	0.041
-435.719	-74.369	0.210	0.076
-434.705	368.036	0.342	-0.692
-433.690	165.735	0.091	-0.129
-432.676	-127.557	-0.590	0.086
-431.661	-56.334	-0.305	-0.136
-430.646	-200.000	0.167	-0.767
-429.632	-200.000	-0.031	0.505
-428.617	-167.020	-0.311	-0.013
-427.603	145.879	-0.272	-0.365
-426.588	-38.614	-0.399	0.211
-425.573	-81.894	0.719	0.235
-424.559	19.112	-0.411	0.330
-423.544	-75.616	0.841	-0.299
-422.530	56.792	0.411	0.400
-421.515	250.350	-0.337	0.572
-420.500	0.499	0.544	-0.389
-419.486	-200.000	0.050	-0.477
-418.471	-37.200	0.644	0.345
-417.457	-37.269	-0.388	-0.207
-416.442	-101.826	0.624	-0.151
-415.428	-13.899	-0.176	0.113
-414.413	-100.958	0.149	0.037
-413.398	83.567	-0.538	-0.586
-412.384	-19.944	0.426	0.263
-411.369	-200.000	0.033	0.167
-410.355	800.000	0.304	1.232
-409.340	800.000	0.199	-0.566
-408.325	149.989	-0.441	-0.597
-407.311	-136.666	-0.503	0.058
-406.296	330.464	0.541	-1.041
-405.282	-200.000	-0.102	-0.559
-404.267	-77.131	-0.905	-0.315
-403.252	240.311	-0.197	-0.328
-402.238	-200.000	-0.007	-0.374
-401.223	-139.042	0.819	0.089
-400.209	126.561	0.194	0.245
-399.194	800.000	0.106	0.457
-398.179	-200.000	0.028	-0.172
-397.165	-183.687	-0.594	0.010
-396.150	-22.566	-0.711	0.430
-395.136	27.854	-0.393	0.331
-394.121	-121.500	-0.298	-0.049
-393.106	80.825	0.643	0.693
-392.092	68.898	0.280	0.287
-391.077	7.688	-0.410	-0.306
-390.063	800.000	0.121	0.393
-389.048	-34.172	0.146	0.080
-388.033	63.429	-0.430	-0.431
-387.019	123.416	0.230	0.288
-386.004	-55.184	0.798	0.358
-384.990	-139.743	0.374	-0.040
-383.975	-20.094	-0.925	-0.570
-382.960	8.568	0.145	-0.109
-381.946	17.514	0.386	-0.306
-380.931	-121.796	-0.597	0.098
-379.917	798.661	-0.015	-0.042
-378.902	36.022	-0.425	-0.373
-377.888	800.000	-0.060	0.233
-376.873	34.515	-0.721	-0.628
-375.858	-200.000	-0.027	-0.206
-374.844	-110.226	-0.652	-0.136
-373.829	-10.909	0.524	-0.345
-372.815	434.043	-0.200	0.434
-371.800	120.931	0.382	0.474
-370.785	581.473	-0.062	-0.152
-369.771	-8.068	0.354	-0.238
-368.756	-200.000	-0.879	0.003
-367.742	-68.566	-0.449	-0.174
-366.727	800.000	0.166	-0.649
-365.712	-5.492	0.691	0.473
-364.698	125.386	0.556	-0.699
-363.683	103.724	0.413	-0.483
-362.669	-200.000	0.054	0.954
-361.654	143.361	0.779	1.034
-360.639	-111.613	-0.631	-0.128
-359.625	-17.607	-0.455	0.285
-358.610	142.920	0.342	-0.453
-357.596	-136.294	0.999	0.116
-356.581	800.000	-0.186	0.552
-355.566	800.000	-0.117	-0.341
-354.552	-12.127	0.475	-0.310
-353.537	-40.545	-0.498	-0.258
-352.523	94.765	-0.094	0.107
-351.508	-33.444	0.573	-0.316
-350.493	-200.000	-0.055	-0.547
-349.479	800.000	-0.118	-0.395
-348.464	-64.116	-0.545	0.222
-347.450	-141.420	0.312	-0.032
-346.435	-125.315	0.827	0.126
-345.420	0.901	0.595	-0.425
-344.406	141.821	-0.526	0.694
-343.391	94.498	-0.420	0.476
-342.377	248.605	-0.258	0.435
-341.362	-12.572	0.258	0.168
-340.348	-131.657	0.233	0.030
-339.333	3.957	-0.420	-0.306
-338.318	-80.360	0.195	-0.065
-337.304	-164.942	0.384	0.017
-336.289	-103.990	-0.288	0.067
-335.275	428.429	-0.043	-0.093
-334.260	800.000	-0.127	-0.435
-333.245	174.509	-0.178	0.256
-332.231	151.710	-0.528	-0.717
-331.216	-89.199	0.605	-0.178
-330.202	-13.913	-0.545	-0.351
-329.187	-17.752	0.088	-0.055
-328.172	-68.365	-0.581	0.225
-327.158	52.726	-0.370	0.352
-326.143	104.723	0.620	-0.727
-325.129	-200.000	-0.033	-0.208
-324.114	329.119	0.412	-0.788
-323.099	-16.913	-0.410	0.258
-322.085	135.016	-0.297	-0.384
-321.070	-200.000	-0.227	-1.158
-320.056	-184.224	0.461	0.008
-319.041	-71.887	-0.808	0.299
-318.026	281.893	0.447	0.798
-317.012	625.772	0.278	0.699
-315.997	-148.395	-0.314	-0.026
-314.983	-138.130	-0.166	0.018
-313.968	-33.351	0.786	0.433
-312.953	73.110	-0.394	-0.410
-311.939	194.073	0.459	-0.692
-310.924	800.000	0.230	0.960
-309.910	47.990	-0.396	0.368
-308.895	-121.181	0.326	0.054
-307.880	190.475	-0.482	-0.721
-306.866	5.266	0.563	-0.413
-305.851	238.189	0.024	-0.040
-304.837	404.357	0.105	0.220
-303.822	69.245	0.237	0.243
-302.807	156.279	0.283	0.389
-301.793	-57.665	-0.558	-0.243
-300.778	-200.000	0.065	-0.355
-299.764	800.000	0.066	0.282
-298.749	-32.688	-0.246	-0.136
-297.735	125.606	-0.758	0.952
-296.720	-23.408	-0.642	-0.384
-295.705	-141.792	1.247	-0.124
-294.691	134.419	0.201	-0.259
-293.676	-200.000	-0.031	-0.593
-292.662	447.994	-0.148	0.324
-291.647	52.848	-0.510	-0.485
-290.632	-200.000	-0.004	-0.379
-289.618	-157.492	0.540	-0.032
-288.603	-157.423	-0.657	-0.039
-287.589	461.400	-0.073	-0.162
-286.574	106.040	0.248	0.292
-285.559	-56.020	0.237	0.105
-284.545	-78.653	0.517	0.176
-283.530	266.161	0.092	0.160
-282.516	-65.030	-0.536	0.215
-281.501	-95.323	0.148	0.040
-280.486	800.000	-0.045	0.194
-279.472	-200.000	0.098	1.025
-278.457	-13.027	0.987	0.638
-277.443	800.000	0.080	0.232
-276.428	4.323	-0.581	0.424
-275.413	121.489	0.586	0.726
-274.399	-200.000	-0.163	-0.797
-273.384	71.978	0.273	-0.283
-272.370	-122.508	-0.577	0.093
-271.355	-133.514	-0.644	-0.080
-270.340	-173.660	-0.677	0.020
-269.326	-199.275	0.067	0.000
-268.311	-125.379	0.344	-0.052
-267.297	-25.280	0.889	-0.523
-266.282	-200.000	0.000	0.420
-265.267	13.859	1.129	0.873
-264.253	-43.912	0.779	-0.389
-263.238	-84.646	0.826	-0.258
-262.224	-38.088	-0.109	-0.057
-261.209	362.235	-0.268	0.535
-260.195	100.356	-0.133	0.153
-259.180	69.517	-0.397	-0.407
-258.165	145.963	0.201	0.268
-257.151	-200.000	-0.040	0.238
-256.136	133.434	0.178	0.229
-255.122	-146.549	0.976	-0.084
-254.107	-102.022	0.117	-0.028
-253.092	280.629	0.194	0.345
-252.078	-200.000	0.056	-0.381
-251.063	-72.972	1.130	-0.412
-250.049	-90.341	0.363	-0.105
-249.034	62.939	-0.345	0.343
-248.019	-81.270	0.729	-0.239
-247.005	-90.525	-0.525	-0.151
-245.990	-200.000	-0.019	0.117
-244.976	-99.772	0.594	-0.148
-243.961	-137.713	-0.417	-0.047
-242.946	150.323	-0.702	-0.946
-241.932	-5.292	-0.155	-0.106
-240.917	-191.626	0.418	0.004
-239.903	800.000	-0.137	0.587
-238.888	-200.000	-0.100	0.544
-237.873	-200.000	0.023	-0.195
-236.859	383.623	0.232	0.473
-235.844	59.744	0.666	-0.652
-234.830	-122.272	-1.391	-0.226
-233.815	-21.018	0.785	-0.477
-232.800	-165.913	0.640	-0.027
-231.786	315.994	0.207	0.388
-230.771	-85.903	-0.505	-0.155
-229.757	-76.570	-0.083	0.029
-228.742	596.097	-0.225	0.554
-227.727	-200.000	-0.093	0.462
-226.713	-200.000	-0.017	-0.202
-225.698	558.616	-0.117	-0.279
-224.684	800.000	0.201	-0.586
-223.669	35.570	0.515	0.449
-222.655	583.420	0.337	-0.821
-221.640	-103.319	-0.132	0.031
-220.625	-200.000	-0.053	-0.368
-219.611	323.985	0.133	0.253
-218.596	229.673	0.340	-0.550
-217.582	51.111	0.209	0.197
-216.567	237.089	-0.211	-0.347
-215.552	655.122	-0.331	-0.842
-214.538	597.794	0.138	0.339
-213.523	568.748	0.097	0.233
-212.509	-29.128	0.422	-0.240
-211.494	228.475	0.262	-0.423
-210.479	132.060	0.165	-0.211
-209.465	21.710	-0.190	0.154
-208.450	150.706	0.525	0.707
-207.436	-8.219	0.284	-0.189
-206.421	-200.000	0.022	-0.431
-205.406	-40.653	-0.913	0.469
-204.392	185.942	-0.299	0.441
-203.377	-5.847	-0.415	-0.282
-202.363	63.696	-0.295	-0.293
-201.348	-136.867	0.650	0.074
-200.333	-175.346	0.254	0.007
-199.319	-52.660	-0.622	0.285
-198.304	-150.706	-0.432	-0.033
-197.290	-154.785	0.333	0.022
-196.275	-73.500	-0.463	0.168
-195.260	-200.000	0.030	-0.866
-194.246	-92.872	0.732	0.203
-193.231	-77.248	-0.542	0.187
-192.217	412.493	-0.089	0.187
-191.202	136.053	0.169	0.218
-190.187	172.566	-0.525	0.748
-189.173	-84.274	-0.249	0.078
-188.158	18.349	-0.331	0.262
-187.144	-200.000	-0.000	-0.681
-186.129	-200.000	-0.020	0.478
-185.114	217.994	-0.418	-0.660
-184.100	-107.234	-0.245	-0.053
-183.085	-90.273	-0.386	0.111
-182.071	650.986	-0.170	0.430
-181.056	-200.000	-0.061	-0.430
-180.042	271.844	-0.241	0.421
-179.027	22.593	0.055	-0.045
-178.012	-45.451	-0.180	0.088
-176.998	-60.795	0.407	0.170
-175.983	-96.108	0.589	0.155
-174.969	-123.704	-1.060	0.166
-173.954	-200.000	0.026	0.338
-172.939	-71.414	-0.330	-0.122
-171.925	17.932	0.371	0.293
-170.910	800.000	0.218	-0.684
-169.896	453.231	-0.257	-0.563
-168.881	-135.979	0.554	-0.065
-167.866	-200.000	-0.005	0.285
-166.852	800.000	-0.081	-0.232
-165.837	-200.000	0.009	0.766
-164.823	101.991	0.424	0.489
-163.808	-200.000	-0.091	0.878
-162.793	-170.779	-0.162	0.006
-161.779	21.024	-0.367	-0.295
-160.764	-200.000	-0.129	0.673
-159.750	132.465	-0.137	-0.174
-158.735	14.063	0.789	0.608
-157.720	305.113	-0.307	0.565
-156.706	-15.372	-0.874	-0.553
-155.691	-156.352	-0.512	0.032
-154.677	203.566	-0.376	-0.576
-153.662	4.722	0.376	0.273
-152.647	-200.000	-0.148	0.672
-151.633	-200.000	-0.039	0.666
-150.618	5.545	0.087	0.063
-149.604	213.805	0.358	0.561
-148.589	800.000	0.219	-0.611
-147.574	-134.333	-1.178	0.143
-146.560	18.352	-0.577	0.456
-145.545	206.823	0.396	0.611
-144.531	-22.289	-0.391	0.234
-143.516	800.000	-0.116	-0.430
-142.502	-200.000	-0.059	-0.292
-141.487	78.000	0.565	-0.596
-140.472	3.129	0.262	-0.189
-139.458	269.094	-0.463	0.803
-138.443	783.022	0.420	1.138
-137.429	800.000	-0.160	0.690
-136.414	800.000	0.087	0.335
-135.399	-200.000	-0.051	-0.407
-134.385	-13.152	0.315	-0.202
-133.370	800.000	-0.257	0.900
-132.356	-105.915	1.046	0.233
-131.341	103.772	-0.478	0.554
-130.326	-200.000	0.105	0.755
-129.312	233.096	0.336	-0.547
-128.297	18.964	-0.552	-0.437
-127.283	-37.421	-0.890	-0.470
-126.268	800.000	0.105	-0.443
-125.253	-69.418	0.533	-0.202
-124.239	507.739	-0.098	0.225
-123.224	111.956	-0.643	0.767
-122.210	-200.000	0.092	0.400
-121.195	13.609	-0.343	0.263
-120.180	-52.336	1.061	0.485
-119.166	-16.664	1.029	0.644
-118.151	-200.000	0.159	0.890
-117.137	-193.787	-0.776	0.006
-116.122	17.325	-0.109	0.086
-115.107	326.439	-0.070	-0.133
-114.093	778.644	-0.241	0.652
-113.078	-62.058	-0.610	0.252
-112.064	237.459	-0.395	0.647
-111.049	86.488	0.171	-0.186
-110.034	16.365	-0.443	-0.345
-109.020	-16.128	-0.480	-0.302
-108.005	-200.000	-0.033	-0.336
-106.991	-200.000	-0.084	0.593
-105.976	800.000	-0.137	0.422
-104.962	179.397	-0.269	-0.389
-103.947	211.113	0.248	-0.386
-102.932	68.116	-0.399	0.403
-101.918	20.491	0.513	0.410
-100.903	-200.000	0.098	0.434
-99.889	45.048	0.518	0.471
-98.874	-94.277	-1.000	-0.270
-97.859	-200.000	-0.154	0.677
-96.845	27.548	-0.649	-0.539
-95.830	233.558	-0.049	0.079
-94.816	-109.480	0.301	0.063
-93.801	-85.175	-0.453	-0.140
-92.786	-138.581	0.202	0.022
-91.772	-200.000	0.126	1.200
-90.757	-7.869	1.002	-0.667
-89.743	-37.498	0.647	0.341
-88.728	17.908	-0.622	0.489
-87.713	-200.000	-0.258	1.294
-86.699	-111.543	0.606	0.121
-85.684	47.098	0.690	-0.633
-84.670	-143.352	0.061	0.006
-83.655	124.801	0.778	-0.967
-82.640	198.906	0.397	0.600
-81.626	-88.043	-0.096	-0.029
-80.611	800.000	-0.220	0.916
-79.597	165.728	0.285	0.397
-78.582	27.386	-0.625	0.518
-77.567	365.468	0.156	0.310
-76.553	29.887	0.394	-0.331
-75.538	18.430	-0.305	0.241
-74.524	3.017	-0.599	0.429
-73.509	800.000	-0.075	-0.229
-72.494	-200.000	-0.024	-0.992
-71.480	-101.484	-0.690	0.166
-70.465	279.638	-0.631	-1.111
-69.451	-187.441	0.322	-0.004
-68.436	-23.402	0.412	-0.244
-67.422	73.272	-0.770	-0.794
-66.407	-2.675	0.606	0.418
-65.392	-200.000	-0.107	-0.586
-64.378	639.520	-0.082	-0.206
-63.363	-200.000	-0.052	0.403
-62.349	-16.782	-0.500	0.312
-61.334	16.136	-0.934	-0.726
-60.319	-200.000	0.172	1.274
-59.305	113.454	-0.442	-0.529
-58.290	79.449	0.791	0.836
-57.276	51.546	1.134	1.063
-56.261	-200.000	95.087	571.311
-55.246	650.307	1366.226	3446.893
-54.232	200.418	2534.840	3838.303
-53.217	118.080	2151.109	2612.531
-52.203	43.745	1697.142	1530.691
-51.188	36.351	1513.078	1314.521
-50.173	34.198	1485.998	1276.520
-49.159	54.447	1538.029	1459.815
-48.144	55.023	1556.005	1480.748
-47.130	36.733	1513.363	1317.157
-46.115	33.388	1499.696	1282.599
-45.100	33.395	1495.527	1279.030
-44.086	33.273	1494.766	1277.508
-43.071	33.179	1493.092	1275.389
-42.057	33.139	1490.386	1272.762
-41.042	33.303	1488.714	1272.385
-40.027	33.289	1487.282	1271.018
-39.013	33.452	1486.583	1271.462
-37.998	33.167	1484.889	1268.053
-36.984	33.222	1484.403	1267.954
-35.969	33.069	1482.919	1265.612
-34.954	33.206	1480.777	1264.655
-33.940	33.367	1479.245	1264.369
-32.925	33.358	1478.534	1263.652
-31.911	33.133	1477.370	1261.102
-30.896	33.157	1476.376	1260.366
-29.881	33.433	1475.143	1261.101
-28.867	33.273	1473.369	1258.469
-27.852	33.485	1471.567	1258.291
-26.838	33.269	1470.286	1255.714
-25.823	33.300	1467.981	1253.895
-24.809	33.364	1467.348	1253.734
-23.794	33.216	1465.665	1251.267
-22.779	33.416	1464.627	1251.652
-21.765	33.548	1462.316	1250.494
-20.750	33.216	1462.437	1248.361
-19.736	33.203	1462.039	1247.888
-18.721	33.006	1461.254	1245.866
-17.706	33.457	1459.418	1247.219
-16.692	33.393	1458.298	1245.792
-15.677	33.238	1457.293	1243.865
-14.663	33.198	1457.046	1243.341
-13.648	33.009	1455.889	1241.066
-12.633	33.150	1454.701	1240.927
-11.619	33.360	1453.164	1240.943
-10.604	33.136	1452.569	1238.921
-9.590	33.247	1451.245	1238.470
-8.575	33.078	1450.636	1236.795
-7.560	33.205	1450.162	1237.174
-6.546	33.328	1449.047	1236.976
-5.531	33.086	1448.997	1235.301
-4.517	32.998	1448.840	1234.543
-3.502	33.113	1445.539	1232.434
-2.487	33.132	1444.842	1231.914
-1.473	33.084	1443.018	1229.993
-0.458	33.076	1442.909	1229.799
0.556	34.138	1433.154	1218.847
1.571	30.981	1407.088	1176.682
2.586	27.314	1348.589	1105.428
3.600	25.356	1267.821	1027.933
4.615	23.951	1220.653	981.852
5.629	20.565	1164.002	918.348
6.644	11.245	1079.011	805.374
7.659	4.318	1037.827	741.551
8.673	3.323	1031.933	732.542
9.688	2.791	1029.075	727.927
10.702	2.831	1028.107	727.367
11.717	2.896	1025.144	725.514
12.731	6.112	1028.271	742.884
13.746	15.207	1042.324	796.375
14.761	23.158	1051.342	841.149
15.775	25.192	1052.643	851.785
16.790	25.090	1053.161	851.643
17.804	25.085	1052.359	850.898
18.819	24.819	1051.870	849.167
19.834	25.070	1051.105	849.664
20.848	24.994	1050.801	848.982
21.863	24.997	1050.643	848.790
22.877	25.237	1049.207	848.695
23.892	25.058	1048.811	847.450
24.907	25.183	1047.855	847.196
25.921	25.388	1047.458	847.764
26.936	25.128	1046.432	845.634
27.950	25.068	1045.598	844.601
28.965	24.995	1045.025	843.722
29.980	24.938	1042.975	841.724
30.994	24.971	1041.224	840.389
32.009	25.045	1041.307	840.732
33.023	25.268	1040.512	841.060
34.038	25.085	1040.017	839.730
35.053	25.313	1038.093	839.164
36.067	25.134	1038.722	838.764
37.082	25.151	1037.228	837.561
38.096	25.312	1036.428	837.594
39.111	25.047	1036.580	836.405
40.126	25.285	1036.095	837.048
41.140	25.147	1033.907	834.565
42.155	24.866	1032.687	832.201
43.169	24.652	1031.356	830.060
44.184	24.879	1030.118	830.045
45.199	24.649	1030.500	829.209
46.213	24.641	1029.098	827.975
47.228	24.632	1028.452	827.337
48.242	25.274	1027.239	829.259
49.257	24.969	1027.584	828.052
50.271	24.823	1027.228	827.016
51.286	25.293	1025.203	827.484
52.301	25.306	1024.150	826.617
53.315	25.221	1024.262	826.246
54.330	25.239	1023.583	825.704
55.344	25.018	1022.707	823.907
56.359	24.988	1021.882	823.036
57.374	25.160	1019.863	822.123
58.388	25.085	1019.652	821.537
59.403	25.100	1018.104	820.285
60.417	24.900	1018.950	819.979
61.432	24.555	1018.543	817.999
62.447	24.903	1017.261	818.490
63.461	24.933	1016.864	818.235
64.476	24.978	1016.353	817.956
65.490	25.004	1014.894	816.830
66.505	24.916	1013.698	815.392
67.520	24.763	1013.267	814.277
68.534	24.687	1013.350	813.926
69.549	24.641	1011.773	812.375
70.563	24.387	1011.038	810.560
71.578	24.470	1009.880	809.938
72.593	24.363	1010.011	809.487
73.607	24.326	1007.921	807.572
74.622	24.101	1007.201	805.906
75.636	24.652	1006.380	807.667
76.651	24.638	1005.637	806.936
77.666	24.553	1004.921	805.907
78.680	24.777	1004.239	806.302
79.695	24.447	1003.908	804.475
80.709	24.409	1003.143	803.620
81.724	25.085	1002.042	805.704
82.739	25.092	1001.067	804.881
83.753	24.920	999.881	803.087
84.768	25.273	1000.297	804.934
85.782	25.490	999.569	805.249
86.797	25.669	998.708	805.285
87.812	25.369	998.674	803.843
88.826	25.372	998.427	803.587
89.841	25.536	996.067	802.348
90.855	25.277	996.312	801.318
91.870	25.444	995.249	801.135
92.884	25.510	994.532	800.782
93.899	25.467	994.191	800.247
94.914	25.490	992.204	798.680
95.928	25.793	991.999	799.790
96.943	25.686	990.952	798.398
97.957	25.347	989.698	795.818
98.972	24.745	990.508	793.724
99.987	25.100	988.450	793.580
101.001	25.105	987.313	792.619
102.016	25.382	987.331	793.787
103.030	25.401	986.275	792.951
104.045	25.496	984.985	792.262
105.060	25.236	985.085	791.127
106.074	25.425	983.207	790.379
107.089	25.084	982.525	788.262
108.103	25.033	981.701	787.309
109.118	25.135	980.707	786.888
110.133	25.181	979.098	785.727
111.147	24.951	978.965	784.547
112.162	24.994	977.476	783.470
113.176	24.995	976.754	782.829
114.191	24.686	976.717	781.378
115.206	24.757	975.184	780.391
116.220	24.749	973.817	779.195
117.235	24.493	974.187	778.304
118.249	24.817	972.993	778.693
119.264	24.389	972.271	776.186
120.279	24.620	971.904	776.829
121.293	24.391	971.223	775.218
122.308	24.341	970.261	774.168
123.322	24.879	968.405	774.947
124.337	24.660	967.898	773.525
125.352	24.796	966.391	772.838
126.366	24.895	963.817	771.139
127.381	24.470	964.209	769.554
128.395	24.643	964.108	770.149
129.410	24.932	963.881	771.143
130.424	25.094	963.360	771.359
131.439	24.968	963.102	770.542
132.454	25.280	960.598	769.808
133.468	25.230	960.220	769.224
134.483	24.816	959.784	767.031
135.497	25.140	959.622	768.221
136.512	25.191	958.006	767.079
137.527	25.158	958.589	767.336
138.541	25.061	957.359	765.869
139.556	25.295	956.128	765.814
140.570	25.200	955.746	765.035
141.585	25.384	954.470	764.730
142.600	25.386	954.060	764.341
143.614	25.210	954.499	763.876
144.629	25.659	952.786	764.347
145.643	25.751	952.592	764.514
146.658	25.710	951.424	763.335
147.673	25.549	949.329	760.907
148.687	25.470	948.044	759.476
149.702	25.621	947.248	759.407
150.716	25.240	946.975	757.512
151.731	24.917	945.772	755.119
152.746	25.167	945.088	755.562
153.760	25.713	943.972	756.900
154.775	25.562	943.060	755.466
155.789	25.657	942.675	755.489
156.804	25.800	941.270	754.896
157.819	25.377	941.051	752.883
158.833	25.997	938.906	753.690
159.848	25.621	938.770	751.945
160.862	25.576	938.781	751.698
161.877	25.874	938.655	752.776
162.892	25.833	937.564	751.665
163.906	25.656	936.252	749.808
164.921	25.549	935.255	748.498
165.935	25.438	934.671	747.503
166.950	25.682	932.691	746.865
167.964	25.505	932.801	746.151
168.979	25.658	931.812	745.929
169.994	25.617	930.829	744.909
171.008	25.468	930.203	743.723
172.023	25.624	928.641	743.053
173.037	25.890	928.563	744.022
174.052	25.659	928.276	742.776
175.067	25.387	926.902	740.487
176.081	25.609	925.862	740.505
177.096	25.377	925.129	738.899
178.110	25.319	923.954	737.655
179.125	24.967	924.073	736.241
180.140	25.103	922.559	735.528
181.154	25.013	921.694	734.403
182.169	25.446	921.375	735.860
183.183	25.250	921.136	734.799
184.198	25.673	920.681	736.103
185.213	25.591	920.499	735.557
186.227	25.873	918.775	735.263
187.242	25.715	918.149	734.053
188.256	25.857	917.798	734.290
189.271	25.600	918.194	733.492
190.286	25.728	917.261	733.202
191.300	25.815	915.918	732.416
192.315	25.011	915.515	728.762
193.329	24.526	913.658	725.248
194.344	24.171	912.484	722.815
195.359	24.503	913.403	724.824
196.373	25.677	912.554	728.846
197.388	25.658	912.661	728.792
198.402	25.802	912.451	729.142
199.417	25.664	911.675	727.899
200.432	25.684	911.834	728.042
201.446	25.855	911.248	728.200
202.461	25.428	910.821	726.068
203.475	25.321	910.039	724.948
204.490	25.155	907.815	722.447
205.504	24.296	907.268	718.487
206.519	24.859	905.844	719.558
207.534	25.694	905.493	722.570
208.548	25.405	905.566	721.405
209.563	25.743	904.669	721.980
210.577	25.820	904.376	721.993
211.592	25.425	904.934	720.792
212.607	25.925	903.632	721.690
213.621	25.924	903.911	721.846
214.636	25.612	903.525	720.224
215.650	25.917	902.540	720.598
216.665	26.071	901.021	719.935
217.680	26.025	900.370	719.165
218.694	25.921	900.618	718.887
219.709	25.832	899.729	717.760
220.723	25.750	898.750	716.588
221.738	25.519	898.541	715.437
222.753	25.660	897.595	715.183
223.767	25.548	896.630	713.906
224.782	25.501	897.055	713.995
225.796	26.089	895.361	714.914
226.811	26.187	895.328	715.212
227.826	26.009	893.881	713.287
228.840	25.021	892.747	708.415
229.855	24.959	892.003	707.520
230.869	25.256	892.259	708.831
231.884	24.940	890.735	706.311
232.899	25.200	890.166	706.824
233.913	25.822	890.178	709.222
234.928	25.728	889.636	708.357
235.942	25.594	888.895	707.177
236.957	25.771	888.610	707.582
237.972	25.375	887.560	705.131
238.986	25.017	887.774	703.830
240.001	25.260	886.215	703.485
241.015	24.964	886.133	702.196
242.030	25.320	884.635	702.341
243.045	25.561	884.545	703.150
244.059	25.629	883.991	702.912
245.074	25.889	883.946	703.833
246.088	26.012	882.483	703.084
247.103	25.577	882.636	701.447
248.117	25.712	882.602	701.884
249.132	25.911	882.546	702.552
250.147	26.461	881.903	704.119
251.161	26.775	880.952	704.522
252.176	26.646	880.877	703.897
253.190	26.683	879.842	703.148
254.205	26.893	879.538	703.661
255.220	26.741	878.537	702.207
256.234	26.605	879.251	702.188
257.249	26.523	878.076	700.869
258.263	26.670	876.633	700.224
259.278	26.360	877.057	699.301
260.293	26.585	876.216	699.440
261.307	26.487	876.866	699.517
262.322	26.727	874.852	698.774
263.336	26.825	874.142	698.522
264.351	26.642	873.419	697.181
265.366	25.362	872.154	691.184
266.380	25.545	870.095	690.197
267.395	25.487	871.817	691.276
268.409	26.497	870.921	694.385
269.424	26.187	870.665	692.929
270.439	26.719	869.727	694.159
271.453	26.665	869.017	693.323
272.468	26.410	869.133	692.379
273.482	26.668	867.866	692.295
274.497	26.909	867.441	692.814
275.512	26.681	866.592	691.205
276.526	25.854	866.097	687.596
277.541	25.878	866.447	687.903
278.555	26.364	865.020	688.560
279.570	26.498	865.486	689.381
280.585	26.582	864.065	688.509
281.599	26.506	863.622	687.808
282.614	26.541	863.496	687.779
283.628	26.021	862.897	685.264
284.643	25.812	861.206	683.071
285.657	26.490	860.267	684.830
286.672	26.173	859.935	683.307
287.687	25.742	859.736	681.456
288.701	25.759	860.474	682.046
289.716	26.051	860.020	682.731
290.730	25.931	859.051	681.447
291.745	26.153	858.067	681.445
292.760	25.795	856.720	678.966
293.774	25.641	856.675	678.291
294.789	26.208	857.021	680.641
295.803	27.143	855.526	682.908
296.818	27.194	855.471	682.994
297.833	26.974	855.208	681.900
298.847	26.687	853.922	679.738
299.862	26.582	853.472	678.924
300.876	26.625	853.846	679.323
301.891	26.687	852.977	678.806
302.906	26.806	852.093	678.486
303.920	26.975	851.308	678.434
304.935	26.446	850.974	676.132
305.949	26.832	851.234	677.720
306.964	27.011	849.970	677.321
307.979	26.655	849.555	675.603
308.993	26.442	849.061	674.357
310.008	26.815	849.179	675.781
311.022	27.050	848.301	675.898
312.037	26.929	847.185	674.497
313.052	26.997	847.018	674.558
314.066	26.778	845.412	672.409
315.081	26.121	844.677	669.328
316.095	25.227	844.311	665.663
317.110	25.769	844.723	667.938
318.125	26.383	844.462	669.950
319.139	26.292	842.675	668.139
320.154	25.571	841.975	664.857
321.168	25.119	841.390	662.666
322.183	25.554	840.727	663.694
323.197	26.225	840.749	666.127
324.212	26.402	839.537	665.759
325.227	26.376	840.107	666.055
326.241	26.574	839.057	665.895
327.256	26.685	838.722	665.977
328.270	26.495	838.605	665.128
329.285	26.470	837.270	663.919
330.300	26.286	836.531	662.599
331.314	25.830	836.233	660.632
332.329	25.579	836.303	659.709
333.343	26.503	835.297	662.239
334.358	27.001	834.871	663.663
335.373	26.486	834.591	661.500
336.387	26.908	833.103	661.801
337.402	26.765	833.692	661.689
338.416	26.864	833.352	661.723
339.431	27.071	832.192	661.496
340.446	27.121	832.510	661.872
341.460	27.309	831.108	661.382
342.475	27.313	832.328	662.312
343.489	27.563	830.419	661.641
344.504	27.094	831.067	660.395
345.519	27.212	829.937	659.866
346.533	27.798	829.170	661.321
347.548	27.346	828.800	659.331
348.562	27.505	827.762	659.020
349.577	27.370	827.386	658.175
350.592	27.311	827.207	657.763
351.606	27.122	826.989	656.846
352.621	26.976	826.045	655.511
353.635	27.324	824.848	655.758
354.650	27.240	824.436	655.069
355.665	26.936	823.929	653.515
356.679	26.501	822.561	650.808
357.694	25.836	822.648	648.426
358.708	26.689	822.393	651.235
359.723	26.386	821.944	649.733
360.738	26.747	821.148	650.344
361.752	26.722	820.923	650.016
362.767	26.561	820.891	649.356
363.781	27.105	820.822	651.195
364.796	27.270	820.346	651.350
365.810	27.210	820.400	651.123
366.825	27.308	819.666	650.832
367.840	27.618	818.103	650.640
368.854	27.181	818.735	649.525
369.869	27.012	817.708	648.048
370.883	27.102	817.253	647.951
371.898	27.285	816.715	648.121
372.913	27.063	816.395	647.018
373.927	27.140	816.818	647.570
374.942	26.949	815.265	645.604
375.956	27.446	814.158	646.435
376.971	27.465	813.286	645.753
377.986	27.624	813.247	646.228
379.000	27.630	813.297	646.231
380.015	27.692	811.426	644.906
381.029	27.482	812.201	644.721
382.044	26.901	811.920	642.386
383.059	27.322	810.731	642.877
384.073	27.629	810.180	643.464
385.088	27.288	809.656	641.791
386.102	27.274	808.715	640.939
387.117	27.265	807.743	640.078
388.132	26.701	807.846	638.118
389.146	27.195	806.177	638.479
390.161	26.619	806.851	636.931
391.175	27.070	806.558	638.227
392.190	27.437	807.119	639.905
393.205	27.555	805.597	639.055
394.219	26.834	803.952	635.170
395.234	25.408	802.509	628.987
396.248	24.726	802.040	626.176
397.263	25.644	800.825	628.379
398.278	26.760	803.438	634.281
399.292	27.107	801.936	634.250
400.307	26.614	800.733	631.523
401.321	26.530	801.444	631.736
402.336	26.290	800.979	630.476
403.350	26.728	800.257	631.378
404.365	27.216	800.831	633.476
405.380	27.471	801.045	634.477
406.394	27.775	799.265	634.068
407.409	28.046	799.359	635.030
408.423	27.962	798.968	634.369
409.438	27.981	799.100	634.483
410.453	27.740	798.467	633.088
411.467	27.724	798.011	632.617
412.482	27.744	796.700	631.592
413.496	27.677	796.254	630.950
414.511	27.968	795.773	631.519
415.526	27.588	795.833	630.195
416.540	27.787	795.674	630.701
417.555	27.755	794.558	629.652
418.569	27.978	794.387	630.229
419.584	27.796	793.770	629.056
420.599	27.284	793.758	627.225
421.613	159.244	1370.122	1792.135
422.628	137.986	1454.033	1792.162
