DTS Sentinel unit serial number:	SN413079Multiplexer serial number:	ORYXHardware model number:	OX4-SRSoftware version number:	ORYX F/W v4.00 Oryx Data Collector v3.7.2.0data status	okinstallation	princeton_trtdifferential loss correction	single-endedforward channel	channel 3reverse channel	N/Adate	2019/09/15time	11:20:34forward acquisition time	60.00reverse acquisition time	0.00gamma	496.2192k internal	0.2307k external	0.2307temperature offset calibration	0.9973default loss term (dB/km)	0.3790temperature slope calibration	1.0000multiplexer offset coefficient	1.0000multiplexer slope coefficient	1.0000fibre end	0.00T internal ref (°C)	34.30T ext. ref 1 (°C)	5.01T ext. ref 2 (°C)	29.58length (m)	temperature (°C)	Stokes	anti-Stokes-747.200	-103.303	-0.174	-0.042
-746.185	-78.486	-0.199	-0.069
-745.171	-116.413	-0.210	0.039
-744.156	224.353	0.093	0.153
-743.142	60.839	0.181	0.183
-742.127	-54.665	-0.090	-0.041
-741.112	-27.576	-0.109	0.065
-740.098	17.234	0.096	0.078
-739.083	-200.000	-0.291	-0.001
-738.069	-61.067	0.138	-0.059
-737.054	-49.731	-0.357	0.173
-736.039	419.577	0.233	0.507
-735.025	158.564	-0.062	0.088
-734.010	-200.000	-0.043	-0.200
-732.996	-200.000	-0.030	-0.154
-731.981	-161.777	0.186	-0.010
-730.966	-149.768	0.156	-0.012
-729.952	-26.216	0.188	-0.112
-728.937	-175.111	0.191	0.005
-727.923	-57.972	-0.179	-0.079
-726.908	97.577	-0.309	-0.361
-725.894	-182.147	-0.236	0.004
-724.879	-200.000	0.022	0.290
-723.864	-98.918	0.347	0.090
-722.850	-115.499	0.130	0.025
-721.835	6.970	-0.098	0.074
-720.821	-98.688	0.107	-0.028
-719.806	13.375	0.078	-0.061
-718.791	2.850	0.094	-0.069
-717.777	800.000	0.055	0.178
-716.762	800.000	0.119	-0.486
-715.748	-200.000	0.031	-0.138
-714.733	-119.415	-0.615	-0.109
-713.718	-16.235	-0.101	0.065
-712.704	500.912	0.084	-0.198
-711.689	-23.870	0.070	0.042
-710.675	800.000	-0.150	-0.497
-709.660	57.268	0.243	0.241
-708.645	258.238	0.097	-0.170
-707.631	82.056	0.304	-0.334
-706.616	800.000	0.071	0.253
-705.602	-66.322	0.262	-0.106
-704.587	-200.000	-0.052	-0.467
-703.572	800.000	0.023	-0.080
-702.558	800.000	0.035	-0.106
-701.543	55.687	-0.088	0.087
-700.529	-1.510	-0.026	-0.019
-699.514	0.557	0.265	-0.192
-698.499	-200.000	-0.015	-0.153
-697.485	-113.401	0.315	0.063
-696.470	316.714	0.069	-0.132
-695.456	-146.735	-0.113	-0.010
-694.441	134.312	-0.095	-0.125
-693.426	80.787	0.282	-0.309
-692.412	582.846	-0.113	-0.281
-691.397	800.000	-0.010	-0.041
-690.383	752.180	-0.074	-0.204
-689.368	169.594	-0.148	-0.215
-688.354	206.551	0.182	0.287
-687.339	-93.381	-0.135	-0.038
-686.324	-31.283	0.325	-0.185
-685.310	800.000	-0.025	-0.076
-684.295	-17.526	-0.202	-0.129
-683.281	-4.610	-0.266	-0.187
-682.266	800.000	0.081	-0.234
-681.251	-200.000	0.056	-0.471
-680.237	55.761	-0.135	-0.132
-679.222	-37.747	0.245	0.132
-678.208	-75.596	0.604	-0.218
-677.193	-120.595	0.216	-0.037
-676.178	87.485	-0.102	0.115
-675.164	-61.345	0.170	-0.072
-674.149	379.085	0.151	-0.313
-673.135	214.458	0.119	-0.192
-672.120	583.540	-0.083	-0.206
-671.105	36.103	-0.185	0.165
-670.091	800.000	-0.051	0.162
-669.076	144.269	-0.147	-0.199
-668.062	44.448	0.171	-0.159
-667.047	209.610	-0.055	0.088
-666.032	450.658	-0.062	-0.139
-665.018	329.734	0.026	0.050
-664.003	-200.000	-0.055	-0.292
-662.989	49.643	-0.218	-0.208
-661.974	666.391	-0.144	-0.378
-660.959	695.212	0.090	-0.239
-659.945	293.509	-0.089	-0.165
-658.930	676.826	-0.085	0.225
-657.916	-200.000	-0.029	-0.157
-656.901	-176.748	-0.033	-0.001
-655.886	-134.918	-0.288	0.035
-654.872	-82.394	-0.089	0.029
-653.857	307.521	0.096	0.181
-652.843	-2.280	-0.050	0.036
-651.828	-200.000	-0.013	0.134
-650.814	225.905	0.126	-0.207
-649.799	106.303	0.388	-0.466
-648.784	25.775	-0.248	-0.209
-647.770	245.582	0.221	0.377
-646.755	-157.944	-0.207	0.012
-645.741	-185.962	-0.042	0.001
-644.726	110.843	-0.153	-0.187
-643.711	-200.000	-0.075	-0.336
-642.697	800.000	-0.064	0.279
-641.682	82.462	-0.154	0.169
-640.668	-57.724	0.126	0.056
-639.653	-21.060	-0.297	-0.184
-638.638	-64.193	-0.193	-0.080
-637.624	215.066	-0.249	0.399
-636.609	-45.341	0.141	0.071
-635.595	-200.000	0.028	0.204
-634.580	-47.618	0.247	0.121
-633.565	-76.830	-0.219	0.078
-632.551	800.000	-0.088	-0.252
-631.536	27.002	-0.070	0.059
-630.522	-92.568	-0.111	0.031
-629.507	-10.803	-0.123	-0.082
-628.492	-19.317	-0.063	0.039
-627.478	310.397	0.079	-0.151
-626.463	234.180	-0.180	-0.301
-625.449	-69.985	-0.048	-0.019
-624.434	510.741	0.090	0.213
-623.419	-184.210	0.233	0.004
-622.405	-61.403	-0.104	-0.044
-621.390	27.242	0.115	-0.098
-620.376	-200.000	-0.033	0.391
-619.361	-110.775	-0.185	0.039
-618.346	-200.000	-0.005	-0.088
-617.332	35.276	0.101	0.089
-616.317	-200.000	-0.052	-0.284
-615.303	-25.153	-0.230	-0.138
-614.288	552.629	0.071	0.172
-613.273	-200.000	-0.014	-0.112
-612.259	800.000	0.077	0.237
-611.244	242.812	-0.208	-0.353
-610.230	15.020	0.167	0.132
-609.215	243.288	0.188	0.319
-608.201	-200.000	0.011	-0.243
-607.186	-145.278	-0.094	-0.009
-606.171	-200.000	-0.015	0.091
-605.157	-170.595	-0.305	0.011
-604.142	74.615	0.138	0.147
-603.128	69.706	0.096	0.100
-602.113	-9.184	0.354	-0.239
-601.098	3.426	0.265	-0.195
-600.084	9.027	-0.103	0.078
-599.069	-37.505	0.280	0.151
-598.055	172.193	-0.059	-0.086
-597.040	-129.036	0.183	-0.026
-596.025	-108.790	0.057	0.012
-595.011	-53.374	0.307	0.142
-593.996	-27.624	-0.129	-0.076
-592.982	8.831	-0.327	-0.249
-591.967	-200.000	0.001	0.232
-590.952	800.000	0.038	0.153
-589.938	-76.018	0.074	0.026
-588.923	463.623	0.009	-0.020
-587.909	73.703	-0.387	0.410
-586.894	278.565	0.117	-0.210
-585.879	800.000	0.058	0.242
-584.865	-138.852	0.359	-0.040
-583.850	30.482	0.315	0.272
-582.836	-194.467	0.317	0.003
-581.821	-12.012	-0.225	-0.149
-580.806	83.691	0.168	-0.185
-579.792	-200.000	0.035	-0.308
-578.777	-200.000	0.002	-0.050
-577.763	719.545	-0.071	-0.190
-576.748	76.815	-0.151	-0.162
-575.733	256.878	-0.008	0.014
-574.719	23.079	0.216	0.179
-573.704	56.498	0.061	-0.060
-572.690	126.258	0.082	-0.104
-571.675	-25.302	0.133	0.079
-570.661	187.946	-0.063	-0.096
-569.646	-14.760	-0.311	0.202
-568.631	-200.000	0.074	-0.388
-567.617	-1.819	-0.019	0.013
-566.602	144.805	-0.117	-0.158
-565.588	15.589	-0.147	-0.117
-564.573	-200.000	-0.022	0.121
-563.558	36.558	-0.057	0.051
-562.544	-200.000	-0.039	-0.250
-561.529	247.185	0.045	-0.076
-560.515	-200.000	0.007	-0.363
-559.500	-87.841	0.064	0.019
-558.485	-97.434	-0.135	-0.035
-557.471	262.365	0.213	-0.374
-556.456	800.000	0.059	-0.199
-555.442	-197.185	-0.178	-0.001
-554.427	189.032	0.171	-0.258
-553.412	154.495	-0.145	-0.201
-552.398	-71.827	-0.177	-0.067
-551.383	-46.949	0.252	-0.124
-550.369	-200.000	0.105	0.488
-549.354	34.386	0.184	-0.162
-548.339	-77.452	-0.193	-0.068
-547.325	98.322	-0.294	0.342
-546.310	0.145	-0.131	0.094
-545.296	-20.539	0.128	0.080
-544.281	139.992	0.088	-0.118
-543.266	0.544	0.034	0.025
-542.252	117.695	-0.097	-0.121
-541.237	-152.524	-0.255	0.018
-540.223	89.983	0.276	-0.311
-539.208	800.000	-0.045	0.175
-538.193	-37.282	0.266	0.143
-537.179	-6.271	-0.283	-0.195
-536.164	-97.808	-0.065	-0.017
-535.150	235.405	-0.121	0.202
-534.135	425.208	0.137	-0.298
-533.121	-200.000	-0.006	-0.276
-532.106	8.639	0.187	-0.142
-531.091	-178.062	-0.126	0.003
-530.077	-200.000	-0.001	-0.114
-529.062	21.413	-0.142	0.116
-528.048	-122.265	-0.102	-0.017
-527.033	-200.000	-0.016	-0.075
-526.018	-200.000	0.005	0.081
-525.004	-200.000	0.027	0.230
-523.989	-66.875	0.341	-0.136
-522.975	800.000	-0.086	-0.301
-521.960	144.743	0.115	-0.155
-520.945	-200.000	-0.036	-0.450
-519.931	-200.000	0.004	-0.040
-518.916	-200.000	0.022	-0.112
-517.902	-151.820	0.093	0.007
-516.887	-190.916	-0.172	0.002
-515.872	-86.761	-0.306	-0.094
-514.858	800.000	-0.068	0.231
-513.843	179.095	0.214	0.316
-512.829	51.757	0.037	-0.035
-511.814	303.865	0.032	0.060
-510.799	-200.000	0.020	0.107
-509.785	0.259	-0.077	-0.055
-508.770	-42.081	0.131	-0.068
-507.756	480.380	-0.071	0.162
-506.741	109.788	0.113	0.136
-505.726	-200.000	-0.007	-0.176
-504.712	-110.032	-0.273	-0.057
-503.697	-200.000	0.003	0.378
-502.683	525.915	0.111	-0.263
-501.668	193.519	0.119	0.182
-500.653	-200.000	-0.016	-0.207
-499.639	-200.000	0.026	-0.186
-498.624	374.299	0.131	-0.269
-497.610	-144.147	-0.174	-0.016
-496.595	-200.000	-0.009	-0.193
-495.581	5.722	-0.293	0.218
-494.566	80.966	0.060	0.066
-493.551	-18.076	-0.146	0.092
-492.537	171.830	0.143	-0.207
-491.522	123.457	0.113	0.143
-490.508	800.000	-0.024	-0.086
-489.493	-64.160	0.200	0.082
-488.478	64.419	-0.106	0.108
-487.464	-148.703	-0.590	-0.048
-486.449	800.000	0.123	0.370
-485.435	-47.798	-0.076	-0.037
-484.420	-11.860	-0.133	0.088
-483.405	48.974	0.059	0.055
-482.391	177.681	0.073	0.106
-481.376	800.000	-0.050	-0.159
-480.362	3.368	0.075	0.055
-479.347	314.822	-0.150	0.284
-478.332	89.717	0.088	0.099
-477.318	-25.601	0.087	0.052
-476.303	800.000	0.047	-0.169
-475.289	35.840	0.063	-0.056
-474.274	-1.156	0.398	0.283
-473.259	93.299	-0.087	-0.099
-472.245	-99.716	-0.320	-0.081
-471.230	-200.000	0.033	0.457
-470.216	-70.572	-0.396	0.151
-469.201	-0.953	0.188	0.134
-468.186	-200.000	-0.031	-0.233
-467.172	-71.467	0.194	-0.073
-466.157	-28.457	-0.112	-0.065
-465.143	60.688	-0.155	-0.154
-464.128	-27.493	0.151	0.088
-463.113	800.000	0.060	-0.215
-462.099	-136.772	0.335	-0.039
-461.084	-200.000	-0.015	-0.082
-460.070	18.254	-0.181	-0.146
-459.055	-200.000	0.069	0.440
-458.040	800.000	0.035	-0.114
-457.026	44.677	0.190	0.176
-456.011	-200.000	-0.000	0.093
-454.997	536.320	-0.226	0.539
-453.982	-153.475	-0.184	-0.013
-452.968	-135.004	0.405	-0.049
-451.953	95.055	0.152	0.174
-450.938	-52.067	0.117	-0.055
-449.924	-200.000	0.039	-0.237
-448.909	-130.389	-0.343	0.047
-447.895	-31.684	0.107	-0.060
-446.880	145.896	0.146	-0.196
-445.865	-111.530	-0.152	0.031
-444.851	800.000	-0.088	0.368
-443.836	-6.125	-0.069	-0.048
-442.822	-127.498	-0.254	-0.037
-441.807	-148.083	-0.215	-0.018
-440.792	-200.000	-0.018	-0.347
-439.778	723.029	0.043	-0.114
-438.763	164.509	-0.206	-0.291
-437.749	-143.051	-0.128	-0.012
-436.734	-79.740	0.047	0.016
-435.719	-38.697	0.318	0.169
-434.705	-51.125	-0.298	0.140
-433.690	16.016	-0.228	-0.181
-432.676	-52.983	-0.152	-0.070
-431.661	-122.431	-0.239	-0.039
-430.646	560.472	-0.173	0.420
-429.632	-103.885	-0.173	0.041
-428.617	54.428	-0.154	0.149
-427.603	-11.960	0.172	0.113
-426.588	178.491	-0.175	0.256
-425.573	103.724	0.214	0.252
-424.559	800.000	-0.060	0.218
-423.544	-4.267	-0.185	0.128
-422.530	-3.160	0.145	-0.101
-421.515	581.931	0.115	0.284
-420.500	-200.000	0.002	0.298
-419.486	115.284	0.120	0.147
-418.471	-79.092	-0.416	-0.142
-417.457	320.880	0.036	-0.068
-416.442	800.000	-0.063	0.186
-415.428	-200.000	0.015	-0.159
-414.413	-8.356	0.105	-0.071
-413.398	-200.000	-0.048	0.216
-412.384	-200.000	-0.027	0.157
-411.369	-25.425	0.100	0.059
-410.355	-16.774	0.329	0.209
-409.340	-200.000	0.019	0.163
-408.325	800.000	-0.026	0.073
-407.311	-184.848	0.245	0.004
-406.296	348.909	-0.145	-0.288
-405.282	16.922	0.209	0.166
-404.267	-62.519	0.032	0.014
-403.252	169.604	0.098	-0.141
-402.238	130.937	-0.212	0.273
-401.223	360.874	0.036	0.072
-400.209	800.000	0.064	0.191
-399.194	-200.000	-0.023	-0.168
-398.179	-136.860	-0.400	-0.046
-397.165	800.000	0.076	0.260
-396.150	-99.831	-0.072	-0.018
-395.136	95.551	0.108	0.124
-394.121	800.000	-0.030	0.103
-393.106	208.707	0.043	0.067
-392.092	332.560	0.169	0.327
-391.077	-118.467	-0.196	0.035
-390.063	-200.000	0.031	0.321
-389.048	-5.916	0.092	-0.063
-388.033	226.170	0.068	0.110
-387.019	-200.000	-0.072	-0.333
-386.004	-37.471	0.206	0.110
-384.990	-150.217	-0.192	-0.015
-383.975	100.404	-0.141	0.165
-382.960	-200.000	-0.002	-0.094
-381.946	-44.944	-0.180	-0.090
-380.931	47.554	-0.068	0.063
-379.917	39.350	0.186	-0.167
-378.902	-200.000	-0.023	0.275
-377.888	163.275	0.139	-0.196
-376.873	23.544	0.284	0.234
-375.858	-64.034	-0.214	0.088
-374.844	-155.992	-0.151	-0.010
-373.829	245.077	0.182	0.307
-372.815	-147.469	-0.058	0.005
-371.800	-87.257	-0.159	0.048
-370.785	-88.053	0.261	0.079
-369.771	-108.380	-0.235	0.051
-368.756	-111.880	0.376	0.076
-367.742	-200.000	0.015	-0.079
-366.727	-200.000	0.036	0.160
-365.712	-200.000	0.023	0.143
-364.698	-200.000	0.036	0.294
-363.683	-200.000	0.035	0.196
-362.669	-115.232	-0.328	-0.062
-361.654	-161.263	-0.307	-0.016
-360.639	215.870	-0.050	0.080
-359.625	-200.000	0.031	-0.230
-358.610	434.064	-0.030	0.065
-357.596	-200.000	-0.002	0.331
-356.581	-200.000	-0.053	0.285
-355.566	123.602	0.030	0.038
-354.552	270.914	0.219	-0.387
-353.537	-200.000	0.014	0.081
-352.523	257.002	0.175	-0.302
-351.508	77.986	-0.255	-0.273
-350.493	144.119	-0.053	0.070
-349.479	-125.170	-0.116	0.018
-348.464	117.063	0.270	0.332
-347.450	800.000	-0.113	-0.324
-346.435	233.376	-0.174	0.287
-345.420	54.342	0.199	-0.192
-344.406	800.000	0.023	-0.072
-343.391	261.664	-0.176	-0.305
-342.377	-200.000	0.025	-0.304
-341.362	-67.775	-0.239	-0.094
-340.348	800.000	-0.092	-0.356
-339.333	-200.000	-0.009	0.135
-338.318	-109.712	-0.290	-0.061
-337.304	-112.769	0.413	0.082
-336.289	711.606	0.033	0.088
-335.275	-86.385	-0.279	-0.086
-334.260	9.885	-0.140	0.107
-333.245	-46.808	0.244	0.120
-332.231	85.369	0.222	-0.244
-331.216	110.267	-0.025	-0.030
-330.202	-200.000	-0.020	0.162
-329.187	-196.684	-0.305	-0.002
-328.172	-101.569	-0.185	-0.045
-327.158	800.000	-0.217	-0.642
-326.143	-62.768	0.316	-0.131
-325.129	-38.362	-0.042	0.022
-324.114	-200.000	0.015	-0.173
-323.099	186.368	0.113	0.168
-322.085	-200.000	-0.081	-0.363
-321.070	800.000	-0.021	-0.073
-320.056	-45.464	-0.182	-0.090
-319.041	-95.351	0.473	0.127
-318.026	-66.806	0.164	-0.065
-317.012	-200.000	0.041	-0.247
-315.997	-42.539	0.114	0.058
-314.983	493.272	0.107	-0.245
-313.968	-98.841	-0.141	0.036
-312.953	-17.124	0.050	0.031
-311.939	800.000	0.037	-0.132
-310.924	-45.276	0.152	0.076
-309.910	-61.699	-0.167	-0.070
-308.895	-62.428	0.214	-0.089
-307.880	-121.392	-0.202	0.034
-306.866	800.000	0.054	-0.172
-305.851	77.274	0.017	0.018
-304.837	-107.170	0.213	-0.047
-303.822	-200.000	0.072	0.365
-302.807	-47.193	0.090	-0.044
-301.793	-200.000	-0.001	0.436
-300.778	362.336	-0.086	0.172
-299.764	188.512	-0.036	0.054
-298.749	800.000	0.112	-0.394
-297.735	98.394	0.120	-0.138
-296.720	283.457	-0.092	0.165
-295.705	-81.705	0.206	0.068
-294.691	-47.429	0.192	-0.093
-293.676	-73.340	0.178	0.065
-292.662	56.862	0.203	0.198
-291.647	-200.000	-0.020	0.114
-290.632	-113.193	-0.242	-0.048
-289.618	-200.000	-0.008	-0.170
-288.603	-200.000	-0.031	0.323
-287.589	-6.094	-0.208	-0.142
-286.574	24.621	-0.020	0.017
-285.559	482.900	-0.144	-0.326
-284.545	-58.332	-0.062	0.027
-283.530	-60.479	-0.202	0.086
-282.516	-4.579	-0.385	-0.265
-281.501	17.765	0.190	-0.151
-280.486	-44.188	0.191	-0.095
-279.472	-166.349	0.266	0.011
-278.457	26.984	-0.331	-0.278
-277.443	735.786	-0.095	-0.255
-276.428	-200.000	0.073	0.385
-275.413	-147.116	-0.053	0.004
-274.399	194.854	0.056	-0.085
-273.384	800.000	0.086	-0.302
-272.370	-22.120	0.093	0.056
-271.355	-116.933	-0.239	-0.044
-270.340	31.319	-0.122	-0.104
-269.326	342.366	0.108	-0.211
-268.311	-139.233	0.187	0.020
-267.297	308.726	0.102	-0.189
-266.282	-200.000	-0.047	-0.222
-265.267	-200.000	-0.047	-0.265
-264.253	683.666	0.053	-0.137
-263.238	800.000	0.021	0.060
-262.224	-128.898	-0.160	0.022
-261.209	-68.578	-0.072	0.028
-260.195	40.837	0.194	-0.174
-259.180	18.314	0.047	0.038
-258.165	630.819	0.070	-0.177
-257.151	-20.487	0.093	0.057
-256.136	203.014	-0.082	-0.127
-255.122	-179.197	0.282	0.006
-254.107	-11.285	-0.077	-0.050
-253.092	800.000	0.089	0.334
-252.078	207.019	-0.049	0.077
-251.063	-54.733	0.193	0.087
-250.049	-29.636	0.089	-0.051
-249.034	27.472	-0.117	0.098
-248.019	-122.905	0.145	-0.023
-247.005	-200.000	0.077	-0.359
-245.990	-21.688	0.143	0.087
-244.976	188.694	-0.110	-0.165
-243.961	-200.000	0.004	-0.092
-242.946	63.765	-0.056	-0.056
-241.932	103.800	0.297	-0.348
-240.917	420.785	0.173	-0.370
-239.903	-33.061	-0.507	0.280
-238.888	-4.224	0.395	0.273
-237.873	409.083	0.077	0.162
-236.859	333.415	-0.105	-0.203
-235.844	-163.549	0.240	0.011
-234.830	-38.683	0.095	0.050
-233.815	135.579	-0.067	-0.087
-232.800	-153.123	0.213	0.015
-231.786	-8.281	0.204	0.137
-230.771	800.000	0.094	-0.271
-229.757	260.512	-0.080	0.138
-228.742	47.909	-0.092	0.085
-227.727	800.000	-0.089	0.292
-226.713	205.113	-0.115	-0.179
-225.698	-11.432	-0.032	0.021
-224.684	210.130	-0.095	0.148
-223.669	189.732	0.101	-0.150
-222.655	259.541	-0.024	-0.041
-221.640	-109.915	-0.230	0.048
-220.625	-146.090	-0.251	-0.022
-219.611	383.941	-0.063	-0.129
-218.596	148.875	0.219	0.296
-217.582	50.244	-0.121	-0.114
-216.567	-44.002	0.210	0.105
-215.552	-200.000	-0.023	-0.278
-214.538	219.539	-0.174	0.277
-213.523	800.000	-0.041	0.161
-212.509	-7.694	0.219	-0.148
-211.494	-0.064	-0.192	0.136
-210.479	139.901	0.071	0.093
-209.465	114.100	0.195	0.236
-208.450	72.792	-0.282	0.293
-207.436	-200.000	0.043	0.265
-206.421	-24.656	-0.068	0.040
-205.406	-19.373	0.088	-0.054
-204.392	266.013	0.142	0.247
-203.377	-76.372	-0.069	0.024
-202.363	-160.482	0.232	0.012
-201.348	37.532	0.124	0.109
-200.333	47.835	-0.283	-0.263
-199.319	-108.297	-0.276	-0.059
-198.304	-111.316	0.078	0.016
-197.290	88.359	0.131	0.145
-196.275	-50.162	-0.245	0.116
-195.260	174.854	-0.165	0.238
-194.246	-88.231	0.130	0.039
-193.231	38.848	0.077	0.068
-192.217	40.356	-0.130	0.117
-191.202	-3.839	0.337	0.233
-190.187	250.733	0.141	0.238
-189.173	155.757	-0.103	-0.141
-188.158	213.102	0.067	-0.106
-187.144	192.832	0.040	0.060
-186.129	-84.158	-0.117	-0.037
-185.114	673.273	-0.056	-0.144
-184.100	-51.963	0.449	0.208
-183.085	-37.724	0.274	-0.145
-182.071	-16.277	-0.187	0.118
-181.056	-19.596	-0.363	-0.223
-180.042	-164.255	0.275	-0.013
-179.027	-3.545	0.288	-0.199
-178.012	-73.211	-0.212	0.077
-176.998	277.229	0.120	-0.211
-175.983	-161.398	-0.385	0.020
-174.969	290.503	0.064	0.116
-173.954	-200.000	-0.012	0.117
-172.939	233.702	0.174	0.285
-171.925	216.326	0.113	-0.179
-170.910	43.164	-0.089	-0.080
-169.896	-200.000	0.003	0.014
-168.881	252.413	0.025	0.042
-167.866	-13.177	0.271	-0.175
-166.852	187.325	0.045	-0.067
-165.837	-43.951	-0.279	-0.139
-164.823	-168.701	-0.167	0.006
-163.808	147.626	-0.049	-0.065
-162.793	-200.000	0.015	0.310
-161.779	-0.841	-0.218	0.153
-160.764	17.299	-0.250	-0.197
-159.750	800.000	-0.121	-0.376
-158.735	-200.000	0.071	-0.371
-157.720	405.106	0.078	-0.163
-156.706	267.382	0.137	0.239
-155.691	54.355	0.329	0.315
-154.677	-65.438	0.065	-0.026
-153.662	50.840	-0.238	-0.224
-152.647	-58.979	0.180	0.077
-151.633	-200.000	-0.011	0.340
-150.618	-50.072	-0.204	-0.096
-149.604	-200.000	-0.041	0.189
-148.589	182.689	-0.126	-0.185
-147.574	800.000	0.043	0.172
-146.560	-200.000	0.023	0.147
-145.545	-101.687	-0.187	0.045
-144.531	-34.836	-0.259	-0.140
-143.516	-83.190	-0.084	-0.027
-142.502	636.382	-0.045	-0.114
-141.487	-174.326	0.184	-0.005
-140.472	800.000	0.021	-0.071
-139.458	189.938	0.063	0.093
-138.443	-200.000	-0.037	0.302
-137.429	-122.280	0.292	0.047
-136.414	-115.745	0.204	-0.038
-135.399	-60.076	0.243	0.103
-134.385	78.980	0.328	0.349
-133.370	224.021	-0.103	-0.166
-132.356	327.037	0.110	-0.210
-131.341	-114.708	-0.101	-0.019
-130.326	183.882	-0.101	0.148
-129.312	166.209	-0.096	0.135
-128.297	261.890	0.079	-0.136
-127.283	416.604	0.112	0.237
-126.268	236.691	0.085	0.139
-125.253	347.581	0.103	-0.202
-124.239	-88.191	-0.294	0.087
-123.224	-87.271	-0.369	0.111
-122.210	-85.624	-0.131	-0.040
-121.195	229.947	-0.316	-0.513
-120.180	78.982	0.141	0.150
-119.166	30.665	-0.096	-0.081
-118.151	23.127	0.124	-0.101
-117.137	386.122	0.030	-0.062
-116.122	-200.000	-0.057	-0.593
-115.107	45.654	0.341	0.313
-114.093	333.534	-0.099	-0.190
-113.078	14.439	0.177	0.137
-112.064	-28.620	0.142	-0.081
-111.049	-64.306	0.181	-0.073
-110.034	-3.422	0.176	0.122
-109.020	-66.261	0.268	-0.106
-108.005	-153.584	0.260	0.018
-106.991	43.234	0.025	-0.023
-105.976	194.694	0.123	0.185
-104.962	47.097	0.264	0.244
-103.947	335.594	-0.079	0.151
-102.932	550.338	0.023	0.055
-101.918	-200.000	0.162	-0.000
-100.903	-200.000	0.012	-0.234
-99.889	-200.000	0.043	0.280
-98.874	41.522	-0.084	0.075
-97.859	-200.000	-0.011	-0.127
-96.845	143.141	-0.187	0.246
-95.830	-18.324	-0.168	0.104
-94.816	-200.000	0.044	-0.421
-93.801	16.949	-0.189	-0.149
-92.786	0.023	0.309	0.218
-91.772	102.761	-0.140	-0.163
-90.757	-200.000	0.257	0.000
-89.743	107.338	0.088	0.104
-88.728	278.925	-0.120	-0.213
-87.713	800.000	-0.098	-0.277
-86.699	329.281	-0.095	-0.181
-85.684	-93.528	0.069	0.019
-84.670	344.641	0.144	0.280
-83.655	-23.971	-0.164	0.097
-82.640	-200.000	-0.065	-0.298
-81.626	-90.039	0.134	0.039
-80.611	-200.000	0.025	0.189
-79.597	385.303	-0.088	-0.180
-78.582	278.772	-0.058	0.102
-77.567	-24.390	0.234	0.138
-76.553	187.793	-0.109	0.161
-75.538	65.253	0.027	0.027
-74.524	62.423	0.147	0.146
-73.509	167.761	0.083	0.117
-72.494	-62.618	-0.063	-0.026
-71.480	-65.306	0.057	0.023
-70.465	129.100	0.108	0.137
-69.451	388.141	-0.041	-0.085
-68.436	269.308	0.119	0.208
-67.422	-200.000	-0.001	-0.006
-66.407	-145.208	-0.153	-0.014
-65.392	-122.361	0.245	0.040
-64.378	-61.721	0.047	0.019
-63.363	-159.509	-0.084	0.005
-62.349	-60.960	0.113	-0.047
-61.334	44.318	-0.788	-0.716
-60.319	332.899	0.289	0.552
-59.305	-200.000	-0.134	-1.056
-58.290	142.410	0.676	0.888
-57.276	504.483	0.661	1.515
-56.261	-200.000	97.136	569.211
-55.246	624.215	1399.184	3490.730
-54.232	186.000	2607.259	3837.115
-53.217	119.290	2202.799	2697.693
-52.203	44.738	1735.543	1579.972
-51.188	37.427	1546.445	1356.978
-50.173	34.971	1519.446	1316.367
-49.159	53.194	1570.176	1488.256
-48.144	56.785	1588.874	1531.045
-47.130	37.810	1544.131	1357.402
-46.115	34.640	1528.434	1321.647
-45.100	34.350	1525.389	1316.962
-44.086	34.350	1523.522	1315.298
-43.071	34.302	1521.767	1313.399
-42.057	34.241	1520.176	1311.551
-41.042	34.376	1518.563	1311.035
-40.027	34.353	1517.528	1309.936
-39.013	34.305	1515.678	1307.955
-37.998	34.323	1514.562	1307.064
-36.984	34.286	1513.481	1305.826
-35.969	34.241	1512.434	1304.563
-34.954	34.234	1510.885	1303.127
-33.940	34.307	1509.297	1302.207
-32.925	34.374	1507.704	1301.237
-31.911	34.284	1506.654	1299.664
-30.896	34.347	1505.338	1298.905
-29.881	34.430	1504.202	1298.439
-28.867	34.298	1502.747	1296.232
-27.852	34.441	1501.541	1296.113
-26.838	34.417	1499.759	1294.365
-25.823	34.425	1497.893	1292.757
-24.809	34.322	1496.502	1290.805
-23.794	34.268	1495.612	1289.619
-22.779	34.272	1494.474	1288.617
-21.765	34.402	1493.178	1288.323
-20.750	34.272	1492.529	1286.832
-19.736	34.250	1491.170	1285.468
-18.721	34.361	1489.815	1284.993
-17.706	34.309	1488.924	1283.825
-16.692	34.231	1488.026	1282.473
-15.677	34.282	1486.805	1281.713
-14.663	34.313	1485.925	1281.109
-13.648	34.360	1484.668	1280.292
-12.633	34.279	1483.835	1278.981
-11.619	34.250	1483.246	1278.225
-10.604	34.279	1481.927	1277.232
-9.590	34.302	1481.305	1276.804
-8.575	34.193	1480.261	1275.118
-7.560	34.235	1479.338	1274.554
-6.546	34.256	1478.779	1274.165
-5.531	34.183	1477.936	1272.899
-4.517	34.273	1476.533	1272.241
-3.502	34.302	1475.360	1271.375
-2.487	34.300	1474.482	1270.552
-1.473	34.237	1473.893	1269.580
-0.458	34.244	1472.343	1268.238
0.556	33.064	1463.128	1257.815
1.571	30.205	1436.754	1216.315
2.586	26.537	1373.887	1139.933
3.600	24.688	1290.237	1059.487
4.615	23.340	1243.957	1013.685
5.629	20.385	1187.568	951.482
6.644	12.433	1102.884	842.931
7.659	6.047	1061.282	779.461
8.673	5.193	1055.371	770.835
9.688	5.055	1052.424	767.936
10.702	4.871	1050.704	765.708
11.717	4.941	1048.906	764.674
12.731	7.577	1051.959	779.787
13.746	15.090	1061.974	824.257
14.761	19.396	1067.411	849.664
15.775	18.650	1065.160	844.126
16.790	17.499	1062.526	836.313
17.804	16.303	1060.405	828.702
18.819	15.499	1058.265	823.018
19.834	15.073	1057.057	819.923
20.848	14.643	1056.190	817.070
21.863	14.368	1055.574	815.175
22.877	14.167	1054.695	813.443
23.892	14.031	1053.426	811.730
24.907	13.973	1052.679	810.799
25.921	13.915	1052.417	810.243
26.936	14.039	1051.905	810.379
27.950	14.016	1050.307	808.968
28.965	14.132	1048.904	808.377
29.980	14.110	1048.638	807.994
30.994	14.112	1047.469	807.030
32.009	14.198	1045.841	806.124
33.023	14.243	1045.641	806.115
34.038	14.312	1044.172	805.245
35.053	14.170	1043.576	804.028
36.067	14.047	1042.699	802.689
37.082	14.090	1041.601	801.979
38.096	14.134	1040.779	801.486
39.111	14.185	1039.910	800.992
40.126	14.312	1039.130	800.928
41.140	14.169	1038.066	799.352
42.155	13.933	1037.297	797.558
43.169	13.906	1036.313	796.601
44.184	13.887	1035.267	795.633
45.199	13.790	1033.944	794.086
46.213	13.861	1033.212	793.792
47.228	13.946	1031.903	793.120
48.242	14.014	1031.073	792.739
49.257	14.058	1030.456	792.404
50.271	13.926	1029.552	791.009
51.286	14.112	1028.296	790.858
52.301	14.028	1027.752	789.969
53.315	14.121	1026.938	789.715
54.330	13.986	1026.505	788.671
55.344	13.991	1025.235	787.649
56.359	13.982	1023.861	786.485
57.374	13.887	1023.230	785.480
58.388	13.932	1022.239	784.860
59.403	13.959	1021.115	784.055
60.417	13.776	1020.940	782.990
61.432	13.967	1019.814	782.956
62.447	13.941	1019.135	782.242
63.461	13.970	1018.017	781.452
64.476	13.749	1017.799	780.177
65.490	13.710	1017.030	779.336
66.505	13.794	1016.026	778.893
67.520	13.794	1015.519	778.434
68.534	13.757	1014.583	777.473
69.549	13.817	1013.702	777.012
70.563	13.863	1013.061	776.665
71.578	13.737	1012.194	775.342
72.593	13.758	1011.417	774.779
73.607	13.739	1010.475	773.898
74.622	13.563	1009.817	772.508
75.636	13.709	1008.490	772.101
76.651	13.757	1007.528	771.519
77.666	13.648	1007.234	770.718
78.680	13.673	1006.351	770.091
79.695	13.856	1005.762	770.423
80.709	13.852	1004.930	769.698
81.724	13.779	1004.900	769.272
82.739	13.917	1003.559	768.816
83.753	13.888	1002.977	768.167
84.768	13.978	1002.260	767.966
85.782	14.095	1001.526	767.875
86.797	14.098	1001.056	767.459
87.812	14.136	999.862	766.651
88.826	14.057	999.331	765.813
89.841	14.076	998.204	764.971
90.855	14.026	997.661	764.254
91.870	14.108	996.811	763.914
92.884	14.264	995.716	763.721
93.899	14.171	995.198	762.831
94.914	14.159	994.489	762.165
95.928	14.180	993.763	761.638
96.943	14.302	992.734	761.342
97.957	13.989	992.296	759.506
98.972	14.258	991.190	759.819
99.987	14.298	990.681	759.546
101.001	14.195	989.632	758.205
102.016	14.040	989.255	757.141
103.030	14.173	988.259	756.920
104.045	14.097	987.243	755.729
105.060	14.075	986.657	755.111
106.074	14.144	984.989	754.085
107.089	14.078	984.182	753.097
108.103	13.989	983.692	752.253
109.118	13.846	982.614	750.717
110.133	13.820	982.117	750.154
111.147	13.947	980.778	749.639
112.162	13.811	980.350	748.631
113.176	13.911	979.341	748.242
114.191	14.038	978.679	748.243
115.206	13.907	977.898	746.989
116.220	14.017	976.699	746.506
117.235	13.949	976.109	745.681
118.249	13.908	975.285	744.803
119.264	13.891	974.281	743.891
120.279	13.882	973.594	743.264
121.293	13.988	972.793	743.059
122.308	13.789	972.104	741.580
123.322	13.762	971.134	740.652
124.337	13.770	970.011	739.766
125.352	13.693	969.112	738.670
126.366	13.811	967.848	738.166
127.381	13.874	966.932	737.684
128.395	13.830	965.911	736.645
129.410	13.835	964.707	735.683
130.424	13.827	964.003	735.048
131.439	14.035	962.727	734.928
132.454	14.010	962.206	734.355
133.468	14.004	961.666	733.850
134.483	14.108	960.971	733.712
135.497	13.980	960.367	732.625
136.512	13.927	959.567	731.714
137.527	14.064	958.585	731.505
138.541	14.023	958.245	731.001
139.556	14.002	957.228	730.065
140.570	13.875	956.510	728.898
141.585	14.070	955.282	728.754
142.600	14.216	955.016	729.126
143.614	14.214	954.188	728.420
144.629	14.143	953.926	727.844
145.643	14.203	953.018	727.347
146.658	14.316	951.743	726.805
147.673	14.162	950.999	725.502
148.687	14.120	950.254	724.685
149.702	14.097	949.434	723.896
150.716	14.072	948.183	722.768
151.731	14.001	947.749	722.067
152.746	13.955	947.185	721.373
153.760	14.115	946.234	721.280
154.775	14.047	945.925	720.682
155.789	14.092	945.090	720.180
156.804	14.249	943.765	719.785
157.819	14.074	943.347	718.647
158.833	14.178	943.064	718.817
159.848	14.354	942.053	718.740
160.862	14.321	941.347	717.998
161.877	14.404	940.263	717.462
162.892	14.015	940.140	715.631
163.906	14.094	938.797	714.887
164.921	14.185	938.291	714.828
165.935	14.148	936.698	713.394
166.950	14.104	936.424	712.932
167.964	14.125	935.610	712.339
168.979	14.290	934.195	711.905
169.994	14.245	933.531	711.143
171.008	14.188	932.556	710.095
172.023	14.231	932.021	709.808
173.037	14.245	931.556	709.450
174.052	14.427	930.227	709.149
175.067	14.317	930.167	708.572
176.081	14.183	929.154	707.169
177.096	14.181	928.195	706.367
178.110	14.192	927.320	705.686
179.125	14.275	926.474	705.334
180.140	14.321	925.899	705.027
181.154	14.232	925.111	703.987
182.169	14.422	924.358	704.156
183.183	14.351	924.113	703.607
184.198	14.459	923.153	703.271
185.213	14.522	922.475	702.955
186.227	14.359	921.996	701.844
187.242	14.591	921.340	702.259
188.256	14.634	920.586	701.799
189.271	14.665	920.118	701.512
190.286	14.586	918.924	700.209
191.300	14.597	918.021	699.506
192.315	14.188	917.776	697.544
193.329	14.242	916.840	696.995
194.344	14.052	916.542	695.913
195.359	14.276	916.097	696.448
196.373	14.238	915.540	695.803
197.388	14.365	914.869	695.765
198.402	14.538	914.421	696.083
199.417	14.550	913.975	695.732
200.432	14.826	913.105	696.159
201.446	14.759	913.240	695.920
202.461	14.765	912.778	695.531
203.475	14.822	912.410	695.427
204.490	14.725	911.489	694.261
205.504	14.726	910.613	693.538
206.519	14.627	909.731	692.391
207.534	14.613	908.825	691.584
208.548	14.721	908.271	691.549
209.563	14.658	907.421	690.580
210.577	14.641	906.585	689.811
211.592	14.706	906.384	689.865
212.607	14.914	905.902	690.295
213.621	14.913	905.282	689.758
214.636	14.792	904.346	688.485
215.650	14.862	903.890	688.369
216.665	14.875	903.171	687.811
217.680	14.903	902.730	687.532
218.694	14.912	902.450	687.292
219.709	14.908	901.757	686.686
220.723	14.961	900.947	686.226
221.738	14.974	900.380	685.789
222.753	14.834	899.753	684.678
223.767	15.002	898.762	684.550
224.782	15.087	897.845	684.139
225.796	15.127	897.037	683.624
226.811	15.065	896.924	683.224
227.826	15.180	896.171	683.061
228.840	15.058	895.433	681.941
229.855	15.074	894.635	681.337
230.869	15.027	894.101	680.681
231.884	15.023	893.633	680.248
232.899	15.049	892.562	679.478
233.913	14.960	892.125	678.722
234.928	14.974	891.587	678.309
235.942	14.850	890.847	677.184
236.957	14.929	889.793	676.642
237.972	14.908	889.361	676.169
238.986	15.074	888.286	675.964
240.001	15.073	888.200	675.835
241.015	14.983	887.435	674.830
242.030	15.013	886.705	674.337
243.045	15.133	886.009	674.228
244.059	15.019	885.474	673.304
245.074	15.125	884.680	673.065
246.088	15.250	884.357	673.262
247.103	15.116	883.902	672.320
248.117	15.255	883.403	672.440
249.132	15.252	882.627	671.775
250.147	15.299	882.740	671.991
251.161	15.467	881.685	671.803
252.176	15.486	880.926	671.240
253.190	15.453	880.530	670.747
254.205	15.500	879.651	670.204
255.220	15.523	879.344	670.003
256.234	15.509	878.648	669.357
257.249	15.602	877.452	668.757
258.263	15.754	877.105	669.039
259.278	15.685	876.289	668.081
260.293	15.592	875.826	667.300
261.307	15.650	875.116	666.933
262.322	15.823	874.716	667.253
263.336	15.895	874.272	667.142
264.351	15.584	874.207	665.800
265.366	15.914	872.959	666.097
266.380	15.785	872.696	665.328
267.395	15.785	871.543	664.389
268.409	15.792	871.058	663.987
269.424	15.778	870.450	663.412
270.439	15.809	869.659	662.872
271.453	15.825	868.830	662.245
272.468	15.663	868.169	661.043
273.482	15.761	867.651	660.975
274.497	15.669	866.957	660.028
275.512	15.802	865.985	659.750
276.526	15.799	865.359	659.205
277.541	15.841	864.965	659.012
278.555	15.943	864.059	658.660
279.570	15.949	863.777	658.412
280.585	15.802	863.961	657.917
281.599	16.061	862.729	657.933
282.614	16.002	862.231	657.266
283.628	15.973	861.451	656.498
284.643	15.921	861.314	656.132
285.657	15.894	860.463	655.322
286.672	15.870	860.711	655.359
287.687	15.977	859.479	654.778
288.701	15.963	859.235	654.481
289.716	15.892	858.592	653.656
290.730	15.979	857.810	653.340
291.745	16.002	857.125	652.850
292.760	16.116	856.303	652.608
293.774	16.063	855.769	651.939
294.789	16.103	855.608	651.913
295.803	16.247	854.349	651.454
296.818	16.106	853.809	650.440
297.833	16.015	853.530	649.817
298.847	16.124	852.699	649.548
299.862	16.110	852.038	648.934
300.876	16.109	851.474	648.442
301.891	16.142	850.762	647.969
302.906	16.245	850.383	648.020
303.920	16.271	849.420	647.326
304.935	16.382	848.891	647.294
305.949	16.396	848.201	646.763
306.964	16.430	847.656	646.419
307.979	16.426	846.853	645.736
308.993	16.263	846.899	645.092
310.008	16.358	846.333	644.964
311.022	16.531	845.662	645.057
312.037	16.348	845.177	643.933
313.052	16.379	844.759	643.676
314.066	16.413	843.954	643.135
315.081	16.304	843.552	642.354
316.095	16.290	842.613	641.529
317.110	16.320	842.465	641.475
318.125	16.328	841.682	640.854
319.139	16.264	841.235	640.214
320.154	16.227	840.612	639.543
321.168	16.293	840.323	639.516
322.183	16.445	839.285	639.244
323.197	16.309	838.944	638.413
324.212	16.454	838.487	638.558
325.227	16.376	837.948	637.795
326.241	16.429	837.470	637.574
327.256	16.447	836.780	637.060
328.270	16.451	836.319	636.669
329.285	16.483	835.907	636.420
330.300	16.341	835.265	635.338
331.314	16.512	834.403	635.272
332.329	16.330	834.163	634.347
333.343	16.413	833.459	634.067
334.358	16.572	832.692	634.026
335.373	16.665	832.287	634.007
336.387	16.521	832.129	633.291
337.402	16.580	831.423	632.921
338.416	16.765	830.550	632.892
339.431	16.722	829.912	632.190
340.446	16.757	829.443	631.907
341.460	16.857	828.809	631.739
342.475	16.797	828.360	631.117
343.489	16.949	827.908	631.282
344.504	16.791	827.984	630.697
345.519	16.927	827.002	630.399
346.533	16.981	826.548	630.199
347.548	16.939	826.310	629.804
348.562	16.895	825.117	628.675
349.577	16.876	824.766	628.284
350.592	16.750	824.199	627.329
351.606	16.671	824.044	626.861
352.621	16.668	823.866	626.659
353.635	16.862	822.895	626.585
354.650	16.908	822.400	626.320
355.665	16.897	822.370	626.202
356.679	16.871	821.567	625.440
357.694	16.953	821.044	625.288
358.708	16.898	820.833	624.872
359.723	16.950	820.227	624.547
360.738	16.819	819.701	623.605
361.752	16.854	819.160	623.270
362.767	17.067	818.755	623.687
363.781	17.036	818.411	623.256
364.796	17.129	817.548	622.885
365.810	17.189	817.271	622.839
366.825	17.196	816.962	622.573
367.840	17.311	816.420	622.527
368.854	17.286	815.920	621.999
369.869	17.353	815.394	621.789
370.883	17.213	814.945	620.880
371.898	17.279	814.275	620.554
372.913	17.323	813.730	620.246
373.927	17.375	812.999	619.824
374.942	17.397	812.287	619.305
375.956	17.443	811.908	619.130
376.971	17.382	811.292	618.384
377.986	17.474	810.971	618.419
379.000	17.356	810.730	617.752
380.015	17.447	809.772	617.296
381.029	17.415	809.572	616.973
382.044	17.562	808.709	616.792
383.059	17.449	808.149	615.902
384.073	17.479	807.811	615.698
385.088	17.556	807.486	615.677
386.102	17.352	806.904	614.442
387.117	17.508	806.078	614.320
388.132	17.448	805.537	613.636
389.146	17.500	804.855	613.250
390.161	17.609	804.656	613.437
391.175	17.458	804.288	612.558
392.190	17.674	803.974	613.042
393.205	17.557	803.566	612.258
394.219	17.524	803.132	611.753
395.234	17.472	802.932	611.360
396.248	17.456	802.351	610.805
397.263	17.442	801.537	610.081
398.278	17.526	800.940	609.875
399.292	17.537	800.703	609.681
400.307	17.450	800.237	608.959
401.321	17.474	800.033	608.836
402.336	17.516	799.610	608.610
403.350	17.577	798.732	608.105
404.365	17.727	798.466	608.384
405.380	17.711	797.953	607.884
406.394	17.832	797.608	607.997
407.409	17.790	797.186	607.473
408.423	17.812	796.912	607.287
409.438	17.870	796.556	607.171
410.453	17.779	796.173	606.501
411.467	17.795	795.723	606.159
412.482	17.798	795.120	605.657
413.496	17.948	794.736	605.846
414.511	18.097	794.251	605.950
415.526	17.977	793.777	605.108
416.540	17.984	793.538	604.899
417.555	17.992	793.177	604.597
418.569	17.894	792.613	603.767
419.584	18.079	791.944	603.857
420.599	18.023	791.656	603.388
421.613	152.999	1368.730	1789.630
422.628	132.292	1452.842	1789.775
