DTS Sentinel unit serial number:	SN413079Multiplexer serial number:	ORYXHardware model number:	OX4-SRSoftware version number:	ORYX F/W v4.00 Oryx Data Collector v3.7.2.0data status	okinstallation	princeton_trtdifferential loss correction	single-endedforward channel	channel 3reverse channel	N/Adate	2019/09/16time	06:12:35forward acquisition time	60.00reverse acquisition time	0.00gamma	496.2192k internal	0.2334k external	0.2334temperature offset calibration	0.9958default loss term (dB/km)	0.3790temperature slope calibration	1.0000multiplexer offset coefficient	1.0000multiplexer slope coefficient	1.0000fibre end	0.00T internal ref (°C)	27.44T ext. ref 1 (°C)	11.30T ext. ref 2 (°C)	21.73length (m)	temperature (°C)	Stokes	anti-Stokes-747.200	-43.049	0.092	-0.047
-746.185	-200.000	-0.017	0.388
-745.171	686.800	-0.069	-0.182
-744.156	4.152	-0.136	-0.100
-743.142	468.247	0.072	-0.162
-742.127	-200.000	-0.040	0.218
-741.112	123.740	0.209	0.264
-740.098	-200.000	0.038	0.314
-739.083	-200.000	-0.024	0.137
-738.069	50.341	0.218	0.207
-737.054	-122.497	-0.039	0.006
-736.039	-51.880	-0.138	-0.064
-735.025	-54.307	0.364	-0.166
-734.010	-200.000	-0.037	-0.291
-732.996	-40.713	-0.036	0.019
-731.981	-77.640	-0.274	-0.095
-730.966	108.074	-0.118	0.141
-729.952	382.173	0.145	0.299
-728.937	0.457	-0.296	0.212
-727.923	-200.000	-0.035	0.165
-726.908	-200.000	-0.002	-0.139
-725.894	-147.780	-0.301	-0.025
-724.879	-200.000	-0.010	-0.110
-723.864	-27.129	-0.290	-0.170
-722.850	219.224	-0.164	-0.264
-721.835	-200.000	0.024	-0.144
-720.821	241.502	0.237	0.398
-719.806	395.965	0.037	0.077
-718.791	82.832	-0.064	0.069
-717.777	-200.000	-0.013	-0.149
-716.762	24.465	-0.133	-0.111
-715.748	18.653	-0.116	0.093
-714.733	367.850	0.111	-0.226
-713.718	203.875	-0.066	0.102
-712.704	-200.000	-0.036	-0.323
-711.689	-58.833	0.593	-0.257
-710.675	22.727	0.092	0.076
-709.660	-100.078	-0.213	0.053
-708.645	-200.000	-0.004	-0.412
-707.631	800.000	0.054	0.227
-706.616	378.048	-0.040	-0.083
-705.602	-111.093	-0.282	-0.058
-704.587	-200.000	0.046	0.246
-703.572	296.154	0.104	-0.191
-702.558	800.000	-0.061	-0.168
-701.543	209.896	0.069	-0.108
-700.529	-53.308	0.128	-0.059
-699.514	-94.387	0.324	0.089
-698.499	543.900	-0.118	-0.282
-697.485	304.658	-0.150	0.279
-696.470	692.398	0.089	0.235
-695.456	306.437	0.043	-0.081
-694.441	-70.318	-0.238	-0.091
-693.426	-84.039	-0.267	0.085
-692.412	-176.362	0.163	0.004
-691.397	-19.244	0.165	-0.103
-690.383	800.000	-0.019	0.086
-689.368	306.853	-0.061	-0.115
-688.354	-155.632	-0.590	-0.038
-687.339	238.735	0.310	0.516
-686.324	-193.093	0.204	-0.002
-685.310	-25.375	0.159	-0.094
-684.295	-137.841	-0.410	0.046
-683.281	800.000	-0.035	-0.097
-682.266	800.000	-0.057	0.199
-681.251	22.731	-0.182	-0.149
-680.237	800.000	-0.018	0.053
-679.222	800.000	-0.079	0.299
-678.208	1.497	-0.503	-0.363
-677.193	410.433	0.053	-0.114
-676.178	-112.640	-0.057	0.011
-675.164	-105.697	-0.206	-0.047
-674.149	800.000	-0.075	-0.284
-673.135	-99.837	-0.126	0.032
-672.120	-60.611	0.311	-0.132
-671.105	-94.617	-0.346	-0.094
-670.091	-86.272	0.258	0.080
-669.076	-200.000	0.019	0.120
-668.062	-200.000	-0.040	0.291
-667.047	17.337	-0.308	-0.245
-666.032	29.216	-0.182	-0.155
-665.018	-148.441	-0.255	0.021
-664.003	800.000	-0.028	-0.091
-662.989	-130.428	0.207	0.028
-661.974	317.277	0.129	-0.244
-660.959	-16.673	0.181	-0.115
-659.945	488.471	-0.089	-0.204
-658.930	672.985	0.110	-0.286
-657.916	-90.736	-0.382	0.110
-656.901	-160.185	0.166	-0.009
-655.886	186.068	0.248	-0.369
-654.872	-30.726	0.455	-0.258
-653.857	237.672	0.305	-0.507
-652.843	495.093	0.067	-0.154
-651.828	206.983	-0.215	-0.335
-650.814	-200.000	-0.010	-0.273
-649.799	361.556	0.111	0.222
-648.784	-65.607	-0.214	-0.086
-647.770	-200.000	0.076	0.349
-646.755	800.000	-0.085	-0.238
-645.741	716.677	0.110	0.292
-644.726	-200.000	-0.026	0.370
-643.711	-42.341	-0.336	0.172
-642.697	11.042	-0.113	-0.087
-641.682	-103.547	-0.372	0.088
-640.668	-116.085	0.105	-0.020
-639.653	-167.160	0.220	-0.009
-638.638	-77.649	-0.290	-0.100
-637.624	800.000	-0.125	0.356
-636.609	-99.103	0.071	-0.018
-635.595	-200.000	-0.080	-0.398
-634.580	72.904	-0.141	-0.147
-633.565	-56.601	0.039	-0.017
-632.551	-200.000	0.033	-0.238
-631.536	103.897	-0.118	-0.139
-630.522	-50.680	0.123	-0.058
-629.507	-40.631	-0.298	0.155
-628.492	-78.392	0.237	0.081
-627.478	-200.000	0.010	-0.064
-626.463	-200.000	0.001	0.114
-625.449	-90.798	0.127	0.037
-624.434	49.792	-0.134	0.126
-623.419	85.120	-0.301	0.330
-622.405	-98.819	0.292	0.074
-621.390	-42.576	0.180	0.092
-620.376	-79.403	-0.274	0.093
-619.361	-189.292	-0.034	0.000
-618.346	-200.000	-0.011	0.078
-617.332	-149.762	-0.091	-0.007
-616.317	19.874	-0.095	0.077
-615.303	-159.444	-0.051	-0.003
-614.288	-96.992	-0.189	-0.049
-613.273	800.000	-0.046	0.143
-612.259	-99.138	-0.141	0.036
-611.244	374.964	0.162	0.329
-610.230	-200.000	0.049	0.241
-609.215	150.724	-0.227	-0.309
-608.201	-200.000	-0.009	0.128
-607.186	-200.000	-0.009	-0.365
-606.171	56.005	-0.208	-0.202
-605.157	-38.748	-0.445	-0.234
-604.142	-40.750	0.210	0.109
-603.128	156.340	0.050	-0.069
-602.113	57.825	0.141	0.138
-601.098	-40.099	0.107	0.056
-600.084	-141.799	0.248	-0.025
-599.069	-103.857	0.400	0.094
-598.055	-160.421	-0.240	-0.013
-597.040	6.898	-0.197	0.146
-596.025	-13.820	-0.309	0.200
-595.011	164.932	-0.146	-0.206
-593.996	-150.090	-0.085	-0.007
-592.982	43.876	0.178	0.163
-591.967	-136.529	-0.186	-0.022
-590.952	-18.886	-0.098	0.061
-589.938	-81.356	-0.290	-0.095
-588.923	-112.233	-0.330	-0.066
-587.909	800.000	0.086	0.269
-586.894	192.281	0.063	0.094
-585.879	-7.764	0.453	-0.306
-584.865	496.074	0.035	-0.081
-583.850	97.685	-0.138	0.158
-582.836	58.823	0.042	-0.041
-581.821	-125.085	-0.252	0.039
-580.806	-200.000	0.010	-0.370
-579.792	19.209	0.338	0.271
-578.777	150.471	0.172	0.233
-577.763	168.164	-0.141	0.200
-576.748	38.940	-0.239	0.213
-575.733	-41.282	0.071	-0.037
-574.719	-130.115	-0.241	0.033
-573.704	-200.000	0.010	0.089
-572.690	244.755	-0.178	-0.299
-571.675	-18.589	0.073	-0.045
-570.661	322.870	0.111	-0.210
-569.646	8.861	-0.242	-0.182
-568.631	155.245	-0.294	0.403
-567.617	-200.000	0.002	0.264
-566.602	-65.678	0.260	-0.104
-565.588	-200.000	0.007	-0.189
-564.573	800.000	-0.046	0.131
-563.558	-112.752	0.385	0.076
-562.544	800.000	-0.076	0.245
-561.529	-200.000	0.026	0.149
-560.515	-104.898	-0.229	-0.052
-559.500	-128.137	-0.180	-0.026
-558.485	-16.661	0.367	-0.232
-557.471	304.356	0.113	-0.208
-556.456	38.838	0.143	0.127
-555.442	169.367	0.155	0.221
-554.427	38.830	-0.178	-0.159
-553.412	-200.000	0.000	-0.147
-552.398	143.861	0.109	0.145
-551.383	505.123	-0.122	-0.283
-550.369	-35.738	-0.187	-0.101
-549.354	800.000	-0.064	0.183
-548.339	-47.342	0.168	0.082
-547.325	13.128	0.180	0.139
-546.310	-200.000	-0.033	0.187
-545.296	-7.654	0.156	-0.105
-544.281	-200.000	0.063	0.297
-543.266	800.000	0.024	0.077
-542.252	-200.000	-0.020	0.357
-541.237	-60.626	-0.112	-0.047
-540.223	-200.000	0.058	-0.287
-539.208	-40.574	-0.140	-0.072
-538.193	86.523	0.106	0.117
-537.179	-61.186	-0.401	-0.168
-536.164	217.980	0.237	-0.377
-535.150	-4.977	0.096	-0.066
-534.135	142.058	0.224	-0.296
-533.121	-161.317	-0.357	0.018
-532.106	800.000	-0.086	0.365
-531.091	-200.000	-0.017	0.000
-530.077	-200.000	0.025	0.175
-529.062	-200.000	0.037	-0.251
-528.048	-200.000	-0.017	0.097
-527.033	163.557	-0.240	0.337
-526.018	70.754	0.178	-0.183
-525.004	117.966	0.145	0.178
-523.989	381.050	-0.055	0.113
-522.975	102.790	-0.121	0.141
-521.960	-200.000	0.028	-0.172
-520.945	230.037	0.206	0.335
-519.931	273.101	0.006	0.010
-518.916	-200.000	-0.008	-0.041
-517.902	441.001	-0.052	-0.114
-516.887	-200.000	-0.032	-0.229
-515.872	4.084	-0.164	-0.119
-514.858	-63.681	-0.221	-0.090
-513.843	122.308	-0.137	-0.170
-512.829	-53.356	-0.202	-0.092
-511.814	-170.397	0.235	-0.008
-510.799	800.000	-0.065	-0.259
-509.785	349.789	0.033	0.065
-508.770	-163.064	0.107	-0.005
-507.756	131.389	0.120	0.154
-506.741	-200.000	0.016	-0.128
-505.726	27.600	-0.202	-0.170
-504.712	50.293	-0.149	0.140
-503.697	173.239	-0.141	-0.203
-502.683	-200.000	-0.040	-0.323
-501.668	693.813	-0.028	-0.073
-500.653	800.000	-0.030	0.105
-499.639	171.390	0.152	-0.218
-498.624	571.044	0.136	-0.330
-497.610	491.203	-0.053	-0.121
-496.595	53.385	-0.157	0.150
-495.581	-95.585	-0.068	0.018
-494.566	-54.691	0.263	-0.118
-493.551	401.757	-0.126	0.262
-492.537	49.749	0.192	-0.180
-491.522	-121.350	-0.457	-0.076
-490.508	-18.414	0.065	0.041
-489.493	-200.000	-0.044	0.248
-488.478	-200.000	0.048	0.249
-487.464	-140.426	0.438	-0.045
-486.449	788.333	-0.037	-0.102
-485.435	-200.000	-0.008	-0.071
-484.420	-40.255	0.361	0.187
-483.405	-78.408	0.265	-0.090
-482.391	-118.216	-0.165	-0.029
-481.376	-118.775	-0.224	0.039
-480.362	246.886	-0.319	0.535
-479.347	-111.507	0.140	0.028
-478.332	-2.597	-0.041	0.028
-477.318	-142.055	-0.257	0.025
-476.303	-200.000	-0.012	-0.069
-475.289	12.610	-0.212	-0.163
-474.274	-200.000	0.000	0.003
-473.259	-200.000	0.027	0.235
-472.245	61.893	-0.121	0.119
-471.230	406.316	0.125	-0.262
-470.216	-153.681	0.090	-0.006
-469.201	136.299	0.242	0.314
-468.186	-90.557	-0.264	-0.076
-467.172	103.226	0.065	-0.076
-466.157	13.569	-0.066	-0.051
-465.143	-18.761	0.308	0.191
-464.128	-1.073	-0.186	0.131
-463.113	-158.487	-0.150	-0.009
-462.099	-138.538	-0.238	0.026
-461.084	-15.710	0.208	0.132
-460.070	-140.116	0.164	-0.017
-459.055	-32.395	-0.229	-0.127
-458.040	-81.361	-0.306	-0.100
-457.026	538.530	-0.088	0.207
-456.011	-153.599	0.282	-0.019
-454.997	2.900	-0.066	0.048
-453.982	30.878	0.193	0.165
-452.968	-42.626	-0.101	-0.051
-451.953	800.000	-0.044	0.182
-450.938	-200.000	0.019	0.183
-449.924	-138.548	0.102	0.011
-448.909	-28.766	-0.030	0.017
-447.895	-120.031	0.461	-0.079
-446.880	286.670	-0.091	-0.164
-445.865	28.263	0.112	-0.094
-444.851	800.000	-0.115	-0.363
-443.836	-200.000	-0.045	-0.286
-442.822	537.684	-0.117	0.277
-441.807	-49.403	0.144	-0.068
-440.792	-200.000	0.026	0.215
-439.778	158.657	-0.011	-0.015
-438.763	-200.000	-0.019	0.207
-437.749	-81.370	-0.040	0.013
-436.734	-200.000	0.020	0.215
-435.719	-25.834	0.182	0.106
-434.705	-90.140	0.265	0.077
-433.690	99.350	-0.143	0.164
-432.676	-71.061	0.303	-0.113
-431.661	62.186	0.282	0.279
-430.646	-85.390	0.236	0.073
-429.632	252.146	0.021	0.036
-428.617	800.000	-0.088	-0.336
-427.603	-200.000	-0.075	-0.352
-426.588	167.515	-0.036	-0.050
-425.573	27.522	0.112	0.094
-424.559	-200.000	-0.028	0.248
-423.544	-12.575	0.259	0.168
-422.530	800.000	0.054	0.178
-421.515	-95.081	0.026	-0.007
-420.500	429.527	-0.199	0.426
-419.486	800.000	0.106	-0.321
-418.471	800.000	-0.071	0.294
-417.457	-78.661	0.329	-0.111
-416.442	-200.000	0.007	0.047
-415.428	800.000	-0.100	-0.318
-414.413	33.569	0.241	-0.208
-413.398	-200.000	0.019	0.172
-412.384	571.745	0.144	0.348
-411.369	-154.126	0.179	0.012
-410.355	-200.000	0.019	-0.203
-409.340	405.973	0.073	-0.154
-408.325	-78.148	-0.237	0.081
-407.311	-200.000	0.022	0.588
-406.296	226.237	0.200	0.322
-405.282	-200.000	-0.027	0.248
-404.267	-31.518	0.142	0.079
-403.252	-81.492	-0.342	-0.112
-402.238	-49.769	0.343	0.162
-401.223	390.129	0.011	-0.023
-400.209	-134.361	-0.310	-0.038
-399.194	28.416	0.190	0.159
-398.179	-115.609	-0.125	-0.023
-397.165	-200.000	-0.042	-0.235
-396.150	43.490	0.150	0.136
-395.136	487.752	-0.037	-0.084
-394.121	-125.706	-0.198	-0.030
-393.106	434.165	-0.107	0.230
-392.092	-125.693	0.221	-0.033
-391.077	-50.508	-0.086	-0.040
-390.063	164.289	-0.067	0.094
-389.048	-142.369	0.015	-0.001
-388.033	-84.953	-0.163	-0.051
-387.019	800.000	0.022	0.069
-386.004	-31.307	-0.345	-0.192
-384.990	105.962	0.123	-0.144
-383.975	203.469	0.083	-0.127
-382.960	-26.567	-0.096	-0.056
-381.946	800.000	-0.107	0.443
-380.931	581.945	-0.187	0.455
-379.917	-200.000	-0.014	-0.103
-378.902	-105.379	0.198	0.045
-377.888	14.884	0.064	-0.050
-376.873	14.676	-0.134	-0.104
-375.858	-93.720	0.655	-0.179
-374.844	34.440	-0.158	0.137
-373.829	83.290	0.138	0.149
-372.815	-42.494	-0.523	-0.264
-371.800	800.000	-0.074	-0.213
-370.785	-42.170	-0.079	0.040
-369.771	800.000	-0.087	-0.315
-368.756	-28.713	0.339	0.193
-367.742	-60.089	-0.245	-0.104
-366.727	-155.615	0.315	0.020
-365.712	-200.000	0.033	-0.180
-364.698	-13.760	-0.461	-0.295
-363.683	-200.000	0.023	0.142
-362.669	201.881	0.133	-0.204
-361.654	-200.000	-0.383	-0.002
-360.639	130.696	-0.120	0.152
-359.625	83.382	-0.132	-0.142
-358.610	-58.761	0.124	0.053
-357.596	-101.836	-0.221	-0.053
-356.581	800.000	-0.019	-0.061
-355.566	-200.000	-0.002	-0.094
-354.552	33.043	0.018	0.015
-353.537	-40.314	0.171	-0.088
-352.523	-148.023	0.543	0.045
-351.508	158.978	0.216	-0.296
-350.493	-200.000	-0.004	-0.472
-349.479	800.000	0.089	0.350
-348.464	-36.757	-0.193	0.102
-347.450	800.000	-0.086	-0.289
-346.435	-200.000	-0.012	-0.054
-345.420	-135.609	-0.230	0.027
-344.406	291.938	-0.066	-0.120
-343.391	706.291	-0.121	-0.316
-342.377	800.000	0.071	-0.287
-341.362	396.351	-0.051	0.106
-340.348	-23.829	-0.131	0.078
-339.333	-28.645	0.185	-0.106
-338.318	125.892	0.044	0.055
-337.304	-20.812	-0.098	-0.059
-336.289	-200.000	-0.017	0.166
-335.275	4.915	0.095	-0.069
-334.260	94.767	-0.093	0.105
-333.245	152.338	0.178	0.240
-332.231	800.000	-0.150	-0.413
-331.216	247.651	0.081	-0.135
-330.202	-99.725	0.128	-0.032
-329.187	280.629	0.180	0.319
-328.172	-200.000	-0.013	0.134
-327.158	-59.735	0.018	0.008
-326.143	507.758	0.117	-0.268
-325.129	165.772	-0.076	-0.106
-324.114	-110.431	0.346	0.071
-323.099	-200.000	-0.021	0.093
-322.085	60.499	-0.052	0.051
-321.070	-125.741	-0.418	-0.062
-320.056	-200.000	-0.033	0.269
-319.041	538.891	0.118	0.277
-318.026	68.095	0.182	-0.184
-317.012	15.063	0.050	0.039
-315.997	-200.000	0.023	0.156
-314.983	-57.473	-0.146	-0.063
-313.968	202.557	-0.113	0.172
-312.953	-109.684	-0.198	-0.041
-311.939	172.889	0.097	0.138
-310.924	211.325	-0.073	0.114
-309.910	626.095	0.158	-0.395
-308.895	-127.965	0.308	0.044
-307.880	234.345	0.139	0.226
-306.866	-182.144	-0.413	0.008
-305.851	-62.030	-0.243	-0.100
-304.837	49.289	0.173	0.161
-303.822	673.252	-0.066	0.170
-302.807	98.862	0.049	0.056
-301.793	518.224	-0.031	-0.071
-300.778	-116.372	0.154	-0.028
-299.764	348.877	-0.073	0.143
-298.749	192.588	0.245	-0.366
-297.735	800.000	-0.059	-0.217
-296.720	320.528	0.107	-0.201
-295.705	309.986	0.110	-0.203
-294.691	800.000	0.077	-0.326
-293.676	-200.000	0.001	-0.323
-292.662	-9.960	-0.085	-0.056
-291.647	-200.000	0.016	0.236
-290.632	-200.000	-0.020	0.314
-289.618	-24.884	0.220	0.129
-288.603	-77.047	-0.305	0.105
-287.589	49.478	-0.151	-0.140
-286.574	-200.000	-0.047	-0.400
-285.559	-61.857	0.239	-0.099
-284.545	41.334	-0.056	0.050
-283.530	-101.757	0.171	0.041
-282.516	-200.000	0.031	-0.307
-281.501	106.790	0.146	0.171
-280.486	360.847	-0.132	0.261
-279.472	-10.415	-0.354	-0.232
-278.457	-138.761	0.073	0.008
-277.443	-191.347	0.123	0.001
-276.428	269.286	-0.074	0.129
-275.413	-200.000	-0.020	-0.111
-274.399	-200.000	0.007	0.092
-273.384	-200.000	-0.047	0.356
-272.370	336.896	0.118	0.226
-271.355	-27.590	0.141	-0.081
-270.340	-68.001	0.232	-0.089
-269.326	177.008	0.028	-0.040
-268.311	-200.000	0.013	-0.166
-267.297	36.703	0.163	0.142
-266.282	-8.316	-0.238	-0.158
-265.267	-94.986	0.052	-0.014
-264.253	152.776	-0.130	-0.175
-263.238	200.405	-0.182	0.276
-262.224	-177.855	0.409	-0.010
-261.209	-200.000	-0.015	-0.216
-260.195	-85.250	-0.340	-0.105
-259.180	-200.000	0.027	0.134
-258.165	-87.253	-0.324	0.097
-257.151	27.839	0.150	0.125
-256.136	-27.467	0.090	-0.052
-255.122	-200.000	-0.000	0.284
-254.107	-85.405	-0.228	-0.070
-253.092	272.954	-0.081	0.141
-252.078	212.551	-0.078	-0.121
-251.063	-200.000	0.000	-0.122
-250.049	-106.265	0.331	-0.073
-249.034	-200.000	-0.022	0.203
-248.019	-200.000	-0.037	-0.364
-247.005	577.212	-0.057	0.137
-245.990	459.013	-0.115	-0.253
-244.976	121.414	0.108	-0.133
-243.961	81.377	0.114	0.122
-242.946	-79.461	0.119	0.039
-241.932	-200.000	-0.026	-0.172
-240.917	-5.228	-0.375	0.254
-239.903	420.053	-0.116	0.245
-238.888	800.000	0.080	0.330
-237.873	800.000	0.062	-0.191
-236.859	218.588	0.262	-0.412
-235.844	134.414	-0.007	-0.009
-234.830	800.000	0.114	0.431
-233.815	-22.132	0.386	-0.231
-232.800	-122.492	-0.386	-0.062
-231.786	-88.084	-0.180	-0.053
-230.771	134.265	0.097	-0.124
-229.757	264.045	-0.046	-0.080
-228.742	6.117	0.063	0.046
-227.727	-200.000	-0.010	0.337
-226.713	-200.000	0.036	-0.212
-225.698	-200.000	-0.014	-0.142
-224.684	223.514	0.015	0.024
-223.669	-47.722	-0.049	-0.024
-222.655	309.809	0.040	0.073
-221.640	-200.000	0.025	-0.265
-220.625	-159.295	-0.307	0.017
-219.611	-131.263	0.297	0.039
-218.596	-52.488	-0.194	0.088
-217.582	35.056	0.221	-0.191
-216.567	-166.499	-0.088	0.004
-215.552	-134.439	-0.362	0.044
-214.538	-62.142	-0.067	0.027
-213.523	62.947	0.246	-0.243
-212.509	123.774	-0.136	-0.168
-211.494	-200.000	0.049	0.262
-210.479	-17.368	0.283	-0.175
-209.465	179.122	0.329	0.474
-208.450	-200.000	0.200	-0.000
-207.436	-107.210	-0.198	0.043
-206.421	-112.776	-0.073	-0.014
-205.406	-72.746	0.144	-0.052
-204.392	-200.000	0.054	-0.268
-203.377	55.341	0.098	0.093
-202.363	-125.158	0.002	0.000
-201.348	115.243	0.183	0.220
-200.333	-47.965	-0.189	-0.090
-199.319	800.000	-0.043	-0.128
-198.304	138.072	0.029	-0.038
-197.290	-200.000	-0.036	-0.359
-196.275	-37.831	-0.165	-0.086
-195.260	-187.134	0.102	-0.001
-194.246	145.969	0.088	0.116
-193.231	7.624	0.177	0.131
-192.217	41.858	-0.115	-0.103
-191.202	264.274	-0.036	-0.062
-190.187	-111.848	0.288	-0.057
-189.173	-144.671	0.311	-0.028
-188.158	-162.618	-0.246	0.012
-187.144	-73.863	0.114	-0.041
-186.129	800.000	-0.079	0.292
-185.114	-200.000	0.028	-0.368
-184.100	-2.545	-0.084	0.058
-183.085	-93.647	0.146	-0.040
-182.071	-57.148	0.048	0.021
-181.056	9.334	-0.185	0.138
-180.042	126.523	-0.152	-0.189
-179.027	-135.411	0.053	0.006
-178.012	6.511	0.103	-0.075
-176.998	282.954	0.040	-0.070
-175.983	-94.484	0.329	0.088
-174.969	800.000	-0.061	-0.196
-173.954	-40.983	-0.192	0.097
-172.939	233.210	-0.149	-0.241
-171.925	-182.941	0.225	-0.004
-170.910	-164.039	0.199	-0.009
-169.896	-200.000	-0.011	-0.242
-168.881	-93.373	-0.299	-0.082
-167.866	393.420	-0.122	-0.249
-166.852	-120.983	-0.145	0.024
-165.837	-91.362	0.406	0.114
-164.823	74.325	0.121	0.125
-163.808	-8.009	0.173	0.115
-162.793	350.893	0.040	0.078
-161.779	-34.628	-0.285	-0.153
-160.764	-200.000	0.025	0.124
-159.750	-128.757	0.094	-0.013
-158.735	-200.000	-0.012	0.145
-157.720	235.028	0.168	-0.273
-156.706	-70.441	0.244	-0.091
-155.691	-200.000	-0.008	-0.263
-154.677	100.249	0.084	0.096
-153.662	-200.000	-0.030	-0.225
-152.647	25.703	0.059	-0.048
-151.633	497.618	-0.079	-0.179
-150.618	450.751	0.063	-0.136
-149.604	63.956	-0.129	-0.127
-148.589	-200.000	0.035	-0.223
-147.574	-200.000	0.011	0.236
-146.560	-65.923	-0.132	-0.052
-145.545	-52.796	0.336	-0.152
-144.531	-105.722	-0.293	-0.065
-143.516	-200.000	-0.036	-0.172
-142.502	-118.935	0.054	-0.009
-141.487	103.225	0.045	-0.051
-140.472	-96.244	-0.190	0.049
-139.458	194.677	0.123	0.183
-138.443	-164.378	-0.164	0.007
-137.429	-86.256	-0.230	-0.070
-136.414	600.908	0.136	0.333
-135.399	-69.863	-0.095	0.036
-134.385	-40.782	0.099	0.050
-133.370	-200.000	0.019	0.101
-132.356	-102.320	0.338	-0.080
-131.341	-135.928	-0.150	0.017
-130.326	800.000	0.056	0.167
-129.312	-129.284	-0.303	0.041
-128.297	9.100	0.126	0.094
-127.283	-73.056	0.238	0.086
-126.268	-117.584	-0.422	0.075
-125.253	-7.920	0.162	0.107
-124.239	-84.632	-0.240	-0.074
-123.224	-106.296	0.343	0.075
-122.210	800.000	-0.076	0.313
-121.195	-32.139	0.411	-0.225
-120.180	800.000	0.068	-0.283
-119.166	-200.000	-0.027	-0.289
-118.151	-200.000	-0.005	0.051
-117.137	-2.808	-0.190	0.130
-116.122	-116.420	0.262	-0.047
-115.107	-173.454	-0.384	-0.011
-114.093	-200.000	-0.027	0.211
-113.078	800.000	0.036	-0.155
-112.064	119.666	-0.082	0.099
-111.049	-200.000	-0.025	0.222
-110.034	329.457	-0.070	0.133
-109.020	6.508	0.089	0.065
-108.005	-116.337	0.182	-0.033
-106.991	-138.175	-0.350	-0.038
-105.976	-173.720	0.146	0.004
-104.962	281.005	0.144	0.252
-103.947	4.363	0.231	-0.166
-102.932	-42.267	0.262	0.131
-101.918	-200.000	0.033	-0.252
-100.903	-53.977	-0.126	-0.056
-99.889	-49.103	-0.107	-0.050
-98.874	-55.311	-0.403	0.177
-97.859	220.624	0.140	0.221
-96.845	-131.524	0.302	0.039
-95.830	-120.869	0.309	0.051
-94.816	-106.079	0.223	0.049
-93.801	-102.267	-0.158	-0.037
-92.786	136.521	0.028	-0.036
-91.772	-48.127	-0.061	0.029
-90.757	62.802	0.220	-0.216
-89.743	701.454	-0.117	-0.302
-88.728	103.084	0.130	0.150
-87.713	-26.980	0.290	0.166
-86.699	-91.207	0.360	-0.101
-85.684	800.000	0.024	-0.073
-84.670	-111.513	0.378	0.075
-83.655	-128.852	0.268	0.037
-82.640	-10.811	0.142	0.092
-81.626	-149.673	0.106	-0.008
-80.611	104.300	-0.018	0.021
-79.597	-113.502	0.178	0.034
-78.582	800.000	-0.046	0.144
-77.567	-200.000	-0.059	-0.271
-76.553	-124.202	0.256	-0.039
-75.538	-18.628	0.188	0.115
-74.524	148.584	0.209	-0.276
-73.509	-200.000	-0.061	0.319
-72.494	800.000	-0.021	0.060
-71.480	-200.000	-0.013	0.101
-70.465	-184.184	0.107	-0.002
-69.451	-200.000	-0.014	0.215
-68.436	79.415	-0.098	-0.103
-67.422	35.572	-0.068	-0.058
-66.407	691.865	-0.145	0.371
-65.392	223.315	0.099	0.157
-64.378	39.500	0.396	-0.347
-63.363	800.000	-0.040	0.108
-62.349	800.000	0.032	-0.108
-61.334	111.645	-0.899	-1.062
-60.319	50.083	0.571	0.527
-59.305	316.214	-0.584	-1.080
-58.290	243.217	0.826	1.355
-57.276	147.129	1.052	1.385
-56.261	-200.000	113.407	641.737
-55.246	466.638	1509.442	3308.580
-54.232	147.086	2677.415	3523.798
-53.217	102.894	2179.032	2496.180
-52.203	37.876	1706.369	1483.437
-51.188	30.524	1523.630	1274.332
-50.173	28.255	1499.562	1238.819
-49.159	52.645	1556.643	1454.596
-48.144	51.191	1572.845	1459.677
-47.130	30.687	1529.824	1280.435
-46.115	27.669	1514.402	1246.877
-45.100	27.435	1511.221	1242.610
-44.086	27.532	1508.347	1240.856
-43.071	27.402	1507.298	1239.057
-42.057	27.486	1505.301	1237.939
-41.042	27.378	1503.847	1235.964
-40.027	27.438	1502.418	1235.146
-39.013	27.459	1500.770	1233.885
-37.998	27.415	1499.421	1232.426
-36.984	27.457	1498.120	1231.592
-35.969	27.357	1497.382	1230.261
-34.954	27.467	1495.385	1229.313
-33.940	27.412	1493.979	1227.742
-32.925	27.483	1492.377	1226.851
-31.911	27.430	1491.231	1225.507
-30.896	27.460	1490.262	1224.863
-29.881	27.502	1489.125	1224.162
-28.867	27.444	1488.099	1222.882
-27.852	27.451	1486.815	1221.823
-26.838	27.428	1485.184	1220.282
-25.823	27.490	1483.823	1219.530
-24.809	27.476	1481.897	1217.802
-23.794	27.411	1480.894	1216.499
-22.779	27.378	1479.512	1215.091
-21.765	27.413	1478.866	1214.751
-20.750	27.521	1477.010	1213.895
-19.736	27.470	1476.174	1212.818
-18.721	27.513	1474.904	1212.015
-17.706	27.474	1474.119	1211.063
-16.692	27.512	1472.808	1210.192
-15.677	27.529	1472.051	1209.632
-14.663	27.422	1470.899	1207.930
-13.648	27.353	1469.928	1206.627
-12.633	27.405	1469.228	1206.346
-11.619	27.456	1468.523	1206.060
-10.604	27.427	1467.772	1205.198
-9.590	27.407	1466.777	1204.202
-8.575	27.449	1466.112	1203.890
-7.560	27.518	1464.559	1203.022
-6.546	27.426	1463.736	1201.690
-5.531	27.283	1463.411	1200.429
-4.517	27.471	1462.008	1200.474
-3.502	27.403	1461.322	1199.414
-2.487	27.452	1460.275	1198.831
-1.473	27.424	1458.984	1197.535
-0.458	27.426	1457.793	1196.525
0.556	25.909	1447.966	1185.322
1.571	22.887	1422.870	1145.112
2.586	19.650	1362.845	1076.573
3.600	17.915	1280.991	1001.651
4.615	16.899	1235.896	960.551
5.629	16.380	1182.651	916.275
6.644	13.994	1107.221	845.629
7.659	11.650	1073.222	808.017
8.673	11.380	1068.722	803.225
9.688	11.303	1065.258	800.176
10.702	11.301	1063.369	798.677
11.717	11.206	1061.343	796.618
12.731	12.044	1060.842	800.265
13.746	14.610	1063.908	815.055
14.761	17.088	1066.493	829.080
15.775	17.782	1067.214	832.957
16.790	17.118	1064.914	827.850
17.804	16.023	1062.769	820.783
18.819	15.133	1060.928	814.960
19.834	14.610	1058.805	810.717
20.848	14.157	1058.529	808.230
21.863	14.012	1057.517	806.685
22.877	13.811	1056.929	805.188
23.892	13.613	1055.736	803.250
24.907	13.629	1054.964	802.665
25.921	13.378	1054.830	801.281
26.936	13.624	1053.717	801.553
27.950	13.660	1052.609	800.811
28.965	13.695	1050.965	799.659
29.980	13.661	1050.392	798.988
30.994	13.815	1049.148	798.712
32.009	13.864	1048.110	798.091
33.023	13.916	1047.483	797.788
34.038	13.744	1047.042	796.559
35.053	13.726	1045.875	795.511
36.067	13.618	1045.303	794.490
37.082	13.580	1044.351	793.517
38.096	13.680	1043.006	792.902
39.111	13.614	1042.590	792.199
40.126	13.735	1041.547	791.913
41.140	13.715	1040.577	791.013
42.155	13.655	1039.491	789.831
43.169	13.534	1038.248	788.238
44.184	13.513	1037.905	787.810
45.199	13.422	1036.980	786.606
46.213	13.622	1035.189	786.125
47.228	13.547	1034.164	784.920
48.242	13.722	1033.183	784.937
49.257	13.654	1032.721	784.196
50.271	13.627	1031.504	783.072
51.286	13.651	1030.598	782.431
52.301	13.720	1029.613	781.937
53.315	13.742	1028.897	781.429
54.330	13.705	1028.135	780.608
55.344	13.548	1027.720	779.484
56.359	13.592	1026.402	778.623
57.374	13.581	1025.594	777.886
58.388	13.618	1024.710	777.321
59.403	13.519	1023.695	776.018
60.417	13.489	1023.226	775.454
61.432	13.565	1022.553	775.233
62.447	13.581	1021.258	774.258
63.461	13.497	1020.490	773.213
64.476	13.421	1019.814	772.277
65.490	13.347	1019.043	771.279
66.505	13.458	1017.795	770.787
67.520	13.549	1016.928	770.484
68.534	13.531	1016.559	770.054
69.549	13.627	1015.753	769.822
70.563	13.540	1015.077	768.835
71.578	13.543	1014.158	768.084
72.593	13.526	1013.205	767.215
73.607	13.429	1012.035	765.814
74.622	13.363	1011.598	765.111
75.636	13.399	1010.399	764.301
76.651	13.448	1009.868	764.060
77.666	13.438	1009.164	763.413
78.680	13.371	1008.162	762.278
79.695	13.525	1007.708	762.577
80.709	13.499	1006.646	761.584
81.724	13.488	1006.206	761.136
82.739	13.552	1005.863	761.103
83.753	13.579	1004.766	760.330
84.768	13.492	1004.128	759.381
85.782	13.667	1003.047	759.297
86.797	13.758	1002.390	759.151
87.812	13.734	1001.886	758.589
88.826	13.701	1000.693	757.470
89.841	13.697	999.858	756.752
90.855	13.704	999.247	756.255
91.870	13.770	998.342	755.803
92.884	13.717	997.940	755.192
93.899	13.798	996.904	754.707
94.914	13.737	996.294	753.904
95.928	13.760	995.408	753.269
96.943	13.812	994.798	752.979
97.957	13.703	993.662	751.556
98.972	13.785	993.043	751.393
99.987	13.831	992.297	750.972
101.001	13.787	991.175	749.858
102.016	13.791	990.604	749.378
103.030	13.829	989.624	748.741
104.045	13.906	988.320	748.036
105.060	13.694	987.820	746.636
106.074	13.794	986.859	746.294
107.089	13.662	985.698	744.755
108.103	13.505	985.303	743.687
109.118	13.667	983.762	743.184
110.133	13.477	983.259	741.887
111.147	13.474	982.716	741.399
112.162	13.530	981.390	740.583
113.176	13.457	980.622	739.612
114.191	13.514	979.924	739.271
115.206	13.521	978.822	738.407
116.220	13.646	977.956	738.244
117.235	13.599	977.343	737.511
118.249	13.631	976.552	736.988
119.264	13.698	975.375	736.335
120.279	13.594	974.596	735.219
121.293	13.532	973.857	734.319
122.308	13.562	973.403	734.048
123.322	13.704	972.306	733.782
124.337	13.594	971.116	732.332
125.352	13.486	970.488	731.318
126.366	13.444	968.922	729.887
127.381	13.565	967.891	729.580
128.395	13.444	967.273	728.518
129.410	13.649	965.789	728.236
130.424	13.493	965.735	727.447
131.439	13.654	964.343	727.040
132.454	13.604	963.167	725.868
133.468	13.651	962.681	725.644
134.483	13.616	962.518	725.302
135.497	13.716	961.503	724.914
136.512	13.658	960.672	723.969
137.527	13.579	959.984	723.042
138.541	13.589	959.363	722.553
139.556	13.702	958.224	722.124
140.570	13.656	958.056	721.732
141.585	13.600	957.354	720.895
142.600	13.735	956.658	720.895
143.614	13.873	955.756	720.753
144.629	13.851	955.179	720.156
145.643	13.878	954.345	719.582
146.658	13.830	954.083	719.110
147.673	13.769	952.508	717.596
148.687	13.788	951.841	717.115
149.702	13.707	950.537	715.720
150.716	13.727	949.974	715.315
151.731	13.629	949.246	714.281
152.746	13.715	948.652	714.145
153.760	13.825	947.636	713.789
154.775	13.769	946.471	712.606
155.789	13.990	945.784	712.975
156.804	13.828	945.213	711.785
157.819	13.896	945.006	711.858
158.833	13.831	944.198	710.908
159.848	13.936	943.343	710.650
160.862	13.943	942.785	710.197
161.877	13.890	941.952	709.284
162.892	13.794	941.276	708.299
163.906	13.787	939.889	707.166
164.921	13.781	939.477	706.764
165.935	13.845	938.245	706.049
166.950	13.947	937.281	705.695
167.964	13.865	936.086	704.384
168.979	13.960	935.453	704.250
169.994	13.778	934.703	702.849
171.008	13.910	933.699	702.592
172.023	13.954	932.630	701.913
173.037	14.090	932.062	701.995
174.052	14.037	931.617	701.373
175.067	13.911	930.983	700.303
176.081	14.030	930.093	700.073
177.096	13.924	929.223	698.913
178.110	13.902	928.371	698.118
179.125	13.927	927.843	697.765
180.140	13.940	926.866	697.021
181.154	14.000	926.449	696.897
182.169	14.058	925.989	696.732
183.183	14.122	925.122	696.285
184.198	14.198	924.161	695.819
185.213	14.141	923.768	695.225
186.227	14.186	922.964	694.743
187.242	14.150	922.718	694.349
188.256	14.185	921.816	693.753
189.271	14.197	920.840	693.007
190.286	14.354	920.015	692.979
191.300	14.184	919.151	691.561
192.315	14.075	918.752	690.745
193.329	13.935	917.752	689.354
194.344	13.872	917.556	688.883
195.359	13.889	917.113	688.560
196.373	14.108	916.421	688.887
197.388	14.131	915.733	688.403
198.402	14.270	915.224	688.534
199.417	14.309	914.975	688.446
200.432	14.432	914.425	688.483
201.446	14.437	913.889	688.038
202.461	14.280	913.695	687.183
203.475	14.618	912.599	687.690
204.490	14.501	912.106	686.778
205.504	14.412	911.716	686.056
206.519	14.293	911.029	684.987
207.534	14.302	909.864	684.088
208.548	14.388	909.267	683.934
209.563	14.322	908.837	683.278
210.577	14.485	907.827	683.126
211.592	14.539	907.004	682.668
212.607	14.387	907.346	682.243
213.621	14.467	906.252	681.685
214.636	14.594	905.154	681.317
215.650	14.544	904.672	680.690
216.665	14.578	903.787	680.103
217.680	14.645	903.396	680.021
218.694	14.738	903.017	680.057
219.709	14.624	902.537	679.170
220.723	14.487	902.305	678.377
221.738	14.579	901.064	677.759
222.753	14.578	900.113	676.978
223.767	14.640	899.643	676.816
224.782	14.686	898.840	676.339
225.796	14.664	898.283	675.773
226.811	14.728	897.395	675.302
227.826	14.785	896.880	675.086
228.840	14.768	895.954	674.262
229.855	14.631	895.699	673.454
230.869	14.781	894.389	673.017
231.884	14.832	893.960	672.840
232.899	14.647	893.672	671.818
233.913	14.721	892.823	671.416
234.928	14.499	892.604	670.300
235.942	14.757	891.328	670.318
236.957	14.801	890.324	669.681
237.972	14.708	889.815	668.865
238.986	14.726	889.385	668.554
240.001	14.743	888.704	668.053
241.015	14.730	887.963	667.387
242.030	14.730	887.209	666.758
243.045	14.736	886.587	666.255
244.059	14.952	885.916	666.553
245.074	14.816	885.502	665.643
246.088	14.767	885.173	665.143
247.103	14.883	884.378	664.947
248.117	14.911	883.675	664.472
249.132	15.076	883.226	664.729
250.147	14.922	883.099	663.964
251.161	15.156	881.758	663.825
252.176	15.249	880.774	663.392
253.190	15.222	880.326	662.888
254.205	15.281	879.516	662.455
255.220	15.125	879.357	661.658
256.234	15.287	878.565	661.642
257.249	15.357	878.018	661.451
258.263	15.237	877.754	660.718
259.278	15.227	877.190	660.196
260.293	15.359	876.479	660.124
261.307	15.452	875.302	659.544
262.322	15.536	874.806	659.441
263.336	15.273	874.885	658.410
264.351	15.419	874.054	658.299
265.366	15.493	873.470	658.088
266.380	15.504	872.749	657.534
267.395	15.534	872.188	657.169
268.409	15.496	871.157	656.185
269.424	15.487	870.482	655.584
270.439	15.445	869.993	654.994
271.453	15.430	869.221	654.295
272.468	15.514	867.989	653.637
273.482	15.454	867.851	653.243
274.497	15.396	867.443	652.651
275.512	15.394	866.451	651.839
276.526	15.447	865.589	651.338
277.541	15.403	864.995	650.663
278.555	15.640	864.364	651.048
279.570	15.523	864.081	650.327
280.585	15.655	863.457	650.310
281.599	15.807	862.678	650.252
282.614	15.675	862.086	649.241
283.628	15.575	862.214	648.892
284.643	15.595	861.108	648.079
285.657	15.703	860.327	647.849
286.672	15.626	860.369	647.528
287.687	15.614	859.678	646.906
288.701	15.689	858.930	646.572
289.716	15.731	858.770	646.556
290.730	15.725	858.026	645.916
291.745	15.562	857.652	644.951
292.760	15.676	856.737	644.643
293.774	15.861	856.018	644.755
294.789	15.805	855.628	644.190
295.803	15.830	854.957	643.723
296.818	15.921	854.025	643.311
297.833	15.759	853.618	642.328
298.847	15.865	853.099	642.287
299.862	15.862	852.314	641.626
300.876	15.902	851.632	641.211
301.891	15.817	851.066	640.405
302.906	15.955	850.547	640.481
303.920	15.977	849.646	639.831
304.935	16.085	848.841	639.576
305.949	16.038	848.490	639.077
306.964	16.058	847.976	638.711
307.979	15.997	847.422	638.005
308.993	16.085	846.889	637.879
310.008	16.234	846.336	637.971
311.022	16.247	845.576	637.391
312.037	16.253	845.396	637.219
313.052	16.102	844.861	636.190
314.066	16.050	844.134	635.391
315.081	16.029	843.385	634.693
316.095	16.052	843.022	634.448
317.110	16.057	842.422	633.959
318.125	15.973	841.880	633.181
319.139	16.067	841.360	633.087
320.154	16.230	840.935	633.324
321.168	16.053	840.747	632.461
322.183	16.116	839.793	631.923
323.197	16.261	839.351	632.077
324.212	16.235	838.479	631.269
325.227	16.200	838.388	631.012
326.241	16.160	838.049	630.550
327.256	16.242	837.309	630.248
328.270	16.214	836.544	629.511
329.285	16.211	835.906	628.964
330.300	16.344	835.108	628.802
331.314	16.363	834.494	628.355
332.329	16.322	834.062	627.821
333.343	16.271	833.846	627.413
334.358	16.286	833.503	627.158
335.373	16.289	832.481	626.343
336.387	16.430	832.005	626.451
337.402	16.412	831.336	625.824
338.416	16.353	831.321	625.542
339.431	16.395	830.616	625.109
340.446	16.521	830.144	625.166
341.460	16.440	829.689	624.468
342.475	16.467	828.900	623.918
343.489	16.588	828.455	623.974
344.504	16.694	827.851	623.856
345.519	16.725	827.400	623.575
346.533	16.785	827.130	623.536
347.548	16.712	826.671	622.867
348.562	16.527	825.760	621.446
349.577	16.647	825.253	621.448
350.592	16.546	824.847	620.720
351.606	16.423	824.630	620.048
352.621	16.629	823.684	620.037
353.635	16.669	823.318	619.853
354.650	16.573	822.969	619.185
355.665	16.605	822.819	619.135
356.679	16.675	822.045	618.753
357.694	16.653	821.206	617.986
358.708	16.722	820.991	618.021
359.723	16.667	820.407	617.326
360.738	16.653	820.072	616.967
361.752	16.699	819.573	616.707
362.767	16.748	818.984	616.385
363.781	16.747	818.609	616.048
364.796	16.868	818.082	616.035
365.810	16.923	817.440	615.697
366.825	17.038	817.349	615.993
367.840	16.900	817.232	615.348
368.854	16.958	816.606	615.032
369.869	16.860	816.503	614.547
370.883	16.997	815.406	614.160
371.898	16.988	814.818	613.632
372.913	16.973	814.214	613.067
373.927	16.927	814.109	612.768
374.942	17.013	813.069	612.241
375.956	17.148	812.163	611.992
376.971	17.022	812.086	611.425
377.986	17.198	811.377	611.471
379.000	17.117	810.965	610.815
380.015	17.355	810.158	611.008
381.029	17.227	809.777	610.206
382.044	17.309	809.197	610.011
383.059	17.164	808.867	609.189
384.073	17.333	808.147	609.196
385.088	17.336	807.493	608.660
386.102	17.091	807.335	607.611
387.117	17.112	806.539	607.034
388.132	17.083	806.205	606.627
389.146	17.276	805.422	606.673
390.161	17.221	805.575	606.536
391.175	17.248	804.839	606.024
392.190	17.272	804.340	605.681
393.205	17.394	804.017	605.817
394.219	17.404	803.612	605.496
395.234	17.291	802.998	604.576
396.248	17.353	802.588	604.437
397.263	17.171	802.235	603.471
398.278	17.230	801.949	603.412
399.292	17.219	801.282	602.818
400.307	17.315	800.756	602.708
401.321	17.250	800.550	602.270
402.336	17.356	800.041	602.209
403.350	17.354	799.537	601.767
404.365	17.355	799.298	601.539
405.380	17.329	798.894	601.090
406.394	17.367	798.090	600.565
407.409	17.460	797.841	600.654
408.423	17.662	797.313	600.916
409.438	17.484	797.165	600.123
410.453	17.742	796.410	600.410
411.467	17.761	796.078	600.172
412.482	17.518	795.523	598.847
413.496	17.763	795.203	599.414
414.511	17.918	794.328	599.246
415.526	17.845	793.903	598.616
416.540	17.621	794.144	597.961
417.555	17.731	793.710	597.966
418.569	17.779	793.263	597.744
419.584	17.702	792.799	597.070
420.599	17.715	792.155	596.577
421.613	111.432	1293.377	1476.025
422.628	95.775	1366.397	1476.132
