DTS Sentinel unit serial number:	SN413079Multiplexer serial number:	ORYXHardware model number:	OX4-SRSoftware version number:	ORYX F/W v4.00 Oryx Data Collector v3.7.2.0data status	okinstallation	princeton_trtdifferential loss correction	single-endedforward channel	channel 3reverse channel	N/Adate	2019/09/17time	13:44:35forward acquisition time	60.00reverse acquisition time	0.00gamma	496.2192k internal	0.2304k external	0.2304temperature offset calibration	0.9959default loss term (dB/km)	0.3790temperature slope calibration	1.0000multiplexer offset coefficient	1.0000multiplexer slope coefficient	1.0000fibre end	0.00T internal ref (°C)	35.05T ext. ref 1 (°C)	0.40T ext. ref 2 (°C)	32.23length (m)	temperature (°C)	Stokes	anti-Stokes-747.200	-88.413	0.201	0.061
-746.185	-200.000	-0.003	0.405
-745.171	370.161	0.046	-0.094
-744.156	-72.445	0.398	0.150
-743.142	154.298	0.140	0.196
-742.127	-200.000	-0.016	0.287
-741.112	-118.994	-0.395	-0.071
-740.098	198.330	0.084	-0.131
-739.083	-153.472	0.129	0.009
-738.069	253.487	-0.094	0.164
-737.054	38.641	0.277	0.252
-736.039	-200.000	-0.094	0.000
-735.025	624.432	0.099	0.254
-734.010	-200.000	0.005	-0.174
-732.996	800.000	0.047	-0.160
-731.981	-187.113	-0.007	-0.000
-730.966	170.706	0.119	-0.173
-729.952	-200.000	-0.004	-0.470
-728.937	194.554	0.102	0.157
-727.923	-24.388	0.116	-0.070
-726.908	-87.660	-0.401	0.123
-725.894	-200.000	0.002	-0.098
-724.879	800.000	-0.054	0.204
-723.864	-200.000	0.062	-0.365
-722.850	800.000	0.100	0.381
-721.835	-200.000	-0.008	-0.439
-720.821	312.455	-0.088	-0.168
-719.806	-200.000	-0.021	0.533
-718.791	-51.626	-0.098	0.047
-717.777	-200.000	-0.025	-0.120
-716.762	-101.966	-0.103	0.025
-715.748	-112.704	0.061	-0.012
-714.733	198.300	-0.167	0.260
-713.718	800.000	0.076	-0.262
-712.704	697.965	0.086	0.229
-711.689	-83.182	0.179	0.059
-710.675	-74.937	-0.118	-0.043
-709.660	-78.855	-0.179	-0.062
-708.645	-25.745	-0.409	0.245
-707.631	-147.449	-0.253	0.022
-706.616	-53.610	0.314	0.146
-705.602	-79.795	-0.381	0.130
-704.587	-136.741	-0.319	0.037
-703.572	-56.885	0.166	-0.074
-702.558	220.006	0.097	-0.158
-701.543	41.562	0.148	-0.136
-700.529	-72.082	0.038	-0.015
-699.514	-48.087	0.052	0.025
-698.499	-17.747	0.299	-0.191
-697.485	187.089	0.150	-0.227
-696.470	800.000	0.048	-0.186
-695.456	-73.898	0.267	-0.099
-694.441	-82.982	0.209	0.068
-693.426	68.875	-0.105	0.110
-692.412	8.218	-0.221	-0.169
-691.397	119.751	-0.073	-0.092
-690.383	405.867	-0.051	-0.109
-689.368	-66.475	-0.418	0.169
-688.354	-68.999	-0.219	0.086
-687.339	118.112	-0.224	-0.280
-686.324	49.992	0.192	-0.184
-685.310	800.000	-0.034	0.113
-684.295	800.000	-0.045	0.165
-683.281	158.537	-0.086	-0.121
-682.266	530.400	0.020	-0.049
-681.251	85.758	0.026	0.029
-680.237	51.033	-0.164	0.158
-679.222	-42.072	-0.211	0.110
-678.208	57.552	-0.175	0.174
-677.193	-200.000	-0.053	0.334
-676.178	-200.000	-0.026	0.139
-675.164	72.750	-0.178	0.189
-674.149	105.674	-0.091	0.109
-673.135	-200.000	0.050	0.319
-672.120	1.554	-0.227	-0.166
-671.105	75.691	0.089	0.095
-670.091	14.071	-0.295	0.233
-669.076	800.000	0.046	-0.194
-668.062	-10.144	0.143	0.096
-667.047	220.359	0.204	0.333
-666.032	335.064	-0.173	-0.340
-665.018	-153.245	0.506	-0.036
-664.003	-157.329	-0.308	0.019
-662.989	290.559	-0.049	-0.091
-661.974	-116.277	-0.437	0.082
-660.959	-200.000	0.018	-0.099
-659.945	-37.779	-0.288	-0.156
-658.930	-137.273	-0.321	-0.037
-657.916	-200.000	0.008	-0.569
-656.901	-200.000	-0.049	-0.305
-655.886	800.000	-0.087	0.312
-654.872	46.338	0.188	-0.177
-653.857	-145.869	-0.234	-0.021
-652.843	-118.875	0.103	-0.018
-651.828	110.047	-0.155	-0.188
-650.814	17.733	-0.070	0.057
-649.799	-66.876	0.195	-0.078
-648.784	137.727	0.097	-0.128
-647.770	36.323	-0.076	0.068
-646.755	-200.000	0.013	-0.323
-645.741	-32.275	-0.464	-0.263
-644.726	156.828	-0.048	0.067
-643.711	108.420	-0.108	-0.131
-642.697	-36.920	-0.426	0.232
-641.682	-200.000	0.038	-0.386
-640.668	-50.467	0.202	0.097
-639.653	800.000	0.051	0.200
-638.638	-154.849	0.163	-0.011
-637.624	-58.848	-0.457	-0.200
-636.609	187.055	0.053	0.081
-635.595	-200.000	0.000	-0.268
-634.580	-99.964	0.243	0.062
-633.565	-53.213	-0.194	0.090
-632.551	115.704	-0.284	-0.352
-631.536	-104.943	-0.343	-0.080
-630.522	-79.967	-0.303	0.103
-629.507	800.000	-0.042	0.131
-628.492	563.016	-0.097	-0.237
-627.478	82.355	0.147	-0.161
-626.463	1.240	0.319	-0.232
-625.449	42.723	0.120	-0.111
-624.434	-70.055	-0.321	0.124
-623.419	800.000	0.060	0.186
-622.405	168.717	-0.123	-0.177
-621.390	-8.928	0.145	0.099
-620.376	-142.949	0.134	-0.013
-619.361	531.432	-0.047	0.113
-618.346	274.287	0.225	-0.404
-617.332	217.588	-0.166	-0.267
-616.317	-79.091	-0.094	-0.032
-615.303	800.000	0.022	-0.079
-614.288	26.838	0.340	0.289
-613.273	-120.356	0.171	0.030
-612.259	-200.000	0.004	0.053
-611.244	-144.777	0.450	-0.042
-610.230	-178.704	0.207	0.005
-609.215	-118.893	0.175	0.031
-608.201	-20.122	0.243	0.152
-607.186	330.480	0.098	-0.191
-606.171	132.333	-0.036	0.046
-605.157	-129.722	-0.261	-0.036
-604.142	-200.000	-0.013	0.093
-603.128	-20.117	-0.270	-0.168
-602.113	-200.000	-0.045	0.219
-601.098	693.982	0.120	0.320
-600.084	28.159	-0.169	0.144
-599.069	-102.979	-0.035	0.008
-598.055	322.166	-0.066	0.128
-597.040	800.000	-0.013	-0.042
-596.025	-44.618	-0.118	0.060
-595.011	-88.943	0.004	0.001
-593.996	477.440	-0.070	0.160
-592.982	-96.218	0.083	0.022
-591.967	-140.100	0.358	-0.038
-590.952	33.554	-0.470	-0.414
-589.938	-46.014	0.010	0.005
-588.923	-56.160	0.174	0.078
-587.909	98.945	-0.233	0.273
-586.894	1.352	-0.058	0.042
-585.879	-49.515	-0.370	0.178
-584.865	41.956	-0.143	-0.132
-583.850	-200.000	0.008	0.451
-582.836	-62.843	-0.161	-0.068
-581.821	-37.682	0.103	0.055
-580.806	-97.947	-0.082	-0.022
-579.792	560.271	-0.090	0.221
-578.777	-200.000	0.008	-0.411
-577.763	-35.759	-0.336	-0.184
-576.748	-1.462	0.205	0.147
-575.733	109.244	0.084	-0.101
-574.719	800.000	-0.115	-0.408
-573.704	115.456	-0.196	-0.242
-572.690	73.177	-0.072	-0.076
-571.675	184.164	-0.227	-0.339
-570.661	-151.982	-0.095	0.007
-569.646	417.528	-0.042	0.092
-568.631	-85.005	-0.205	0.065
-567.617	45.991	0.110	0.103
-566.602	34.544	-0.215	0.190
-565.588	-200.000	-0.009	-0.087
-564.573	232.392	-0.126	0.209
-563.558	-45.775	0.327	-0.163
-562.544	369.303	-0.109	-0.223
-561.529	800.000	0.045	0.179
-560.515	-142.162	0.336	0.034
-559.500	-171.974	-0.341	0.011
-558.485	355.956	0.075	-0.150
-557.471	-82.766	0.067	-0.022
-556.456	-200.000	-0.012	0.182
-555.442	417.907	0.122	-0.265
-554.427	515.775	0.108	-0.256
-553.412	800.000	0.117	-0.358
-552.398	-94.013	-0.090	-0.025
-551.383	-133.820	-0.176	-0.022
-550.369	-58.931	0.213	-0.093
-549.354	-143.093	0.083	0.008
-548.339	-29.619	-0.238	0.137
-547.325	800.000	-0.031	0.127
-546.310	-26.987	0.178	0.105
-545.296	54.471	0.228	0.222
-544.281	476.248	-0.024	-0.055
-543.266	-200.000	-0.004	-0.263
-542.252	-200.000	-0.016	-0.120
-541.237	-200.000	-0.005	-0.257
-540.223	-22.739	-0.083	-0.051
-539.208	-200.000	0.034	0.319
-538.193	-200.000	0.008	0.187
-537.179	-104.357	0.208	0.049
-536.164	33.460	0.165	-0.145
-535.150	410.111	0.116	-0.249
-534.135	-200.000	-0.057	0.392
-533.121	204.893	-0.175	0.274
-532.106	-200.000	-0.008	0.407
-531.091	-172.683	-0.114	0.004
-530.077	-16.123	0.394	0.253
-529.062	-200.000	0.017	-0.114
-528.048	800.000	-0.093	-0.351
-527.033	178.806	-0.133	0.196
-526.018	-200.000	-0.025	-0.438
-525.004	-166.908	0.438	0.018
-523.989	42.081	-0.201	-0.184
-522.975	800.000	-0.061	-0.186
-521.960	800.000	-0.043	-0.174
-520.945	800.000	0.052	0.190
-519.931	245.968	-0.185	-0.315
-518.916	-200.000	0.022	0.102
-517.902	800.000	0.071	-0.292
-516.887	-23.597	-0.079	-0.048
-515.872	250.369	0.097	0.166
-514.858	-25.634	0.279	-0.166
-513.843	800.000	0.065	0.232
-512.829	11.863	-0.239	0.186
-511.814	208.961	0.137	-0.216
-510.799	37.513	-0.160	0.143
-509.785	311.442	0.035	0.066
-508.770	-103.116	0.351	0.084
-507.756	-58.358	0.322	-0.141
-506.741	0.682	-0.101	-0.073
-505.726	800.000	0.025	0.080
-504.712	70.702	-0.156	-0.163
-503.697	371.199	0.137	0.280
-502.683	-200.000	-0.042	-0.554
-501.668	211.186	-0.104	-0.165
-500.653	49.911	-0.151	-0.144
-499.639	-134.999	-0.261	0.032
-498.624	-200.000	-0.017	-0.184
-497.610	-200.000	-0.036	0.172
-496.595	-92.766	0.152	-0.043
-495.581	407.505	0.173	0.370
-494.566	-132.352	-0.384	-0.050
-493.551	185.413	-0.094	0.141
-492.537	800.000	-0.032	-0.121
-491.522	149.501	0.227	-0.310
-490.508	-75.220	-0.279	-0.100
-489.493	-85.116	-0.300	0.095
-488.478	71.436	0.137	-0.143
-487.464	-63.308	0.369	0.153
-486.449	-77.669	-0.332	0.116
-485.435	-200.000	0.104	0.469
-484.420	234.701	0.060	0.099
-483.405	800.000	0.021	0.087
-482.391	-134.818	-0.160	-0.020
-481.376	96.258	0.202	-0.233
-480.362	-197.651	0.209	-0.001
-479.347	260.314	0.065	-0.113
-478.332	800.000	-0.010	0.037
-477.318	-200.000	-0.008	0.229
-476.303	-200.000	0.026	0.299
-475.289	187.865	-0.071	0.106
-474.274	-165.154	-0.202	-0.009
-473.259	-10.025	0.081	0.055
-472.245	-200.000	0.001	0.107
-471.230	800.000	-0.030	0.120
-470.216	-200.000	0.030	0.158
-469.201	247.558	-0.041	-0.069
-468.186	-45.743	-0.105	-0.053
-467.172	-200.000	-0.002	0.234
-466.157	-66.301	0.106	0.042
-465.143	-200.000	-0.031	0.135
-464.128	800.000	-0.097	0.323
-463.113	-200.000	-0.041	0.373
-462.099	553.297	-0.161	0.391
-461.084	-85.383	-0.204	-0.064
-460.070	231.701	0.201	0.332
-459.055	32.215	0.193	0.167
-458.040	-16.143	-0.240	-0.154
-457.026	-22.441	-0.194	0.118
-456.011	-93.119	0.209	0.059
-454.997	219.438	-0.224	-0.361
-453.982	7.459	-0.061	0.046
-452.968	-37.444	-0.066	0.036
-451.953	-52.430	0.089	0.042
-450.938	-144.042	-0.111	-0.011
-449.924	-200.000	0.312	0.001
-448.909	376.016	0.118	0.243
-447.895	-111.469	-0.176	0.036
-446.880	120.102	-0.184	-0.230
-445.865	141.933	-0.085	0.113
-444.851	622.679	-0.083	-0.209
-443.836	30.337	-0.126	-0.108
-442.822	176.282	-0.264	0.386
-441.807	-74.312	0.110	-0.040
-440.792	41.494	-0.292	-0.266
-439.778	-200.000	0.005	0.035
-438.763	-71.797	-0.112	-0.042
-437.749	-160.411	-0.477	-0.026
-436.734	-85.873	0.427	-0.133
-435.719	225.789	-0.104	-0.169
-434.705	-92.025	0.321	-0.091
-433.690	-200.000	0.046	-0.327
-432.676	-200.000	0.030	0.158
-431.661	-200.000	-0.018	0.160
-430.646	-117.230	-0.101	-0.019
-429.632	127.550	0.233	-0.297
-428.617	58.111	-0.120	0.118
-427.603	29.466	0.135	-0.116
-426.588	-84.614	-0.530	-0.168
-425.573	-23.726	0.144	0.087
-424.559	-36.465	-0.239	0.129
-423.544	-200.000	-0.036	0.227
-422.530	-200.000	-0.016	0.185
-421.515	-83.235	-0.243	0.079
-420.500	800.000	-0.062	-0.237
-419.486	3.141	-0.077	-0.056
-418.471	-157.179	-0.381	-0.023
-417.457	-146.942	0.225	-0.019
-416.442	-29.623	-0.227	-0.130
-415.428	139.663	0.301	-0.399
-414.413	577.241	-0.037	0.090
-413.398	211.986	-0.178	0.282
-412.384	225.519	-0.055	0.090
-411.369	800.000	-0.055	-0.215
-410.355	128.372	0.161	0.206
-409.340	-200.000	0.004	0.316
-408.325	272.061	-0.125	-0.221
-407.311	-200.000	-0.026	-0.114
-406.296	-182.458	0.183	-0.003
-405.282	-81.986	-0.205	-0.067
-404.267	800.000	-0.033	0.091
-403.252	481.149	-0.026	-0.059
-402.238	-200.000	-0.003	-0.207
-401.223	-200.000	-0.002	-0.072
-400.209	-200.000	0.006	0.451
-399.194	546.939	0.079	-0.190
-398.179	69.836	-0.047	0.048
-397.165	-109.567	-0.256	-0.054
-396.150	-55.095	-0.061	0.028
-395.136	112.414	-0.236	-0.287
-394.121	127.766	0.135	0.172
-393.106	452.218	-0.031	-0.069
-392.092	-200.000	0.024	-0.185
-391.077	-150.092	0.289	-0.023
-390.063	28.923	-0.229	0.195
-389.048	165.627	-0.101	0.143
-388.033	-4.793	0.077	-0.053
-387.019	-49.679	0.124	0.059
-386.004	-118.866	-0.107	-0.019
-384.990	800.000	-0.061	-0.180
-383.975	800.000	0.075	-0.274
-382.960	-37.297	0.115	0.062
-381.946	-101.516	-0.395	-0.097
-380.931	623.403	0.184	0.465
-379.917	-116.451	-0.180	-0.033
-378.902	-200.000	-0.022	-0.349
-377.888	101.083	0.186	0.218
-376.873	-200.000	0.044	-0.289
-375.858	371.250	0.187	0.380
-374.844	800.000	0.098	0.412
-373.829	67.821	-0.130	-0.134
-372.815	-163.213	-0.224	-0.011
-371.800	-85.090	0.188	-0.059
-370.785	800.000	-0.086	0.333
-369.771	-9.804	-0.294	0.197
-368.756	-46.749	-0.356	-0.175
-367.742	-200.000	0.009	0.121
-366.727	-200.000	0.031	-0.227
-365.712	-50.775	-0.254	0.120
-364.698	-160.920	0.279	0.015
-363.683	116.478	0.008	-0.010
-362.669	800.000	-0.047	-0.135
-361.654	-76.524	0.089	0.031
-360.639	-128.927	-0.341	0.048
-359.625	-90.616	0.192	0.056
-358.610	410.992	0.051	0.108
-357.596	13.738	-0.196	0.153
-356.581	37.772	0.049	-0.044
-355.566	800.000	-0.038	0.121
-354.552	21.366	0.168	0.137
-353.537	-36.317	-0.228	-0.123
-352.523	39.715	0.141	-0.127
-351.508	198.411	-0.207	-0.317
-350.493	148.240	-0.047	-0.063
-349.479	-52.818	0.135	0.062
-348.464	-3.229	0.183	0.128
-347.450	265.890	-0.260	0.455
-346.435	-125.307	-0.173	0.026
-345.420	-68.188	-0.160	-0.062
-344.406	71.579	0.156	0.163
-343.391	-200.000	0.020	-0.130
-342.377	-3.717	0.197	0.137
-341.362	-183.241	0.161	0.003
-340.348	124.416	0.112	0.141
-339.333	-37.745	-0.075	-0.040
-338.318	13.268	0.312	0.242
-337.304	113.272	0.296	0.359
-336.289	-149.368	-0.125	0.010
-335.275	1.867	0.260	0.188
-334.260	-200.000	0.002	0.080
-333.245	-70.567	0.056	-0.021
-332.231	5.072	0.072	-0.053
-331.216	-114.478	-0.069	-0.013
-330.202	542.124	-0.014	0.035
-329.187	-25.084	0.097	0.058
-328.172	-200.000	-0.004	0.019
-327.158	-160.120	-0.180	-0.010
-326.143	-146.003	-0.269	-0.024
-325.129	80.215	-0.215	-0.232
-324.114	-143.348	-0.192	0.018
-323.099	0.748	-0.095	-0.068
-322.085	87.577	-0.175	-0.194
-321.070	260.256	0.114	-0.197
-320.056	-65.925	0.197	0.079
-319.041	59.986	0.189	-0.187
-318.026	-200.000	0.009	-0.041
-317.012	116.282	0.278	-0.341
-315.997	-91.167	-0.124	-0.036
-314.983	402.428	-0.084	-0.176
-313.968	800.000	0.085	0.351
-312.953	343.613	0.109	-0.214
-311.939	14.416	0.028	-0.022
-310.924	-45.413	-0.130	-0.064
-309.910	-83.519	-0.208	-0.067
-308.895	340.793	-0.065	-0.128
-307.880	-47.000	0.170	-0.083
-306.866	51.214	0.229	0.217
-305.851	-88.512	0.162	-0.048
-304.837	349.575	0.157	0.310
-303.822	171.397	0.049	-0.070
-302.807	-152.656	0.241	-0.017
-301.793	-33.455	-0.091	0.050
-300.778	800.000	0.131	-0.398
-299.764	295.464	0.029	-0.053
-298.749	-200.000	0.046	0.236
-297.735	604.694	-0.132	-0.328
-296.720	492.981	0.077	0.177
-295.705	-140.209	-0.175	0.018
-294.691	-44.874	0.285	0.142
-293.676	-200.000	0.008	0.187
-292.662	-47.424	-0.195	-0.095
-291.647	54.760	0.266	-0.256
-290.632	-104.427	0.208	-0.048
-289.618	799.837	-0.102	-0.283
-288.603	-200.000	-0.019	-0.109
-287.589	-200.000	0.264	0.000
-286.574	22.770	-0.145	-0.119
-285.559	-1.321	0.349	-0.247
-284.545	137.506	0.125	0.164
-283.530	-90.723	0.231	-0.067
-282.516	428.766	0.090	-0.194
-281.501	800.000	-0.101	-0.300
-280.486	69.774	0.147	-0.152
-279.472	800.000	0.072	0.229
-278.457	44.990	-0.077	-0.071
-277.443	-200.000	0.018	-0.120
-276.428	-200.000	0.000	0.103
-275.413	59.571	-0.106	0.104
-274.399	-56.018	-0.205	0.091
-273.384	244.212	-0.174	-0.292
-272.370	-200.000	0.006	0.192
-271.355	80.299	0.238	0.256
-270.340	-200.000	0.003	-0.243
-269.326	-44.257	0.310	0.155
-268.311	-44.112	0.330	0.165
-267.297	-200.000	0.042	0.218
-266.282	20.809	0.167	-0.135
-265.267	-28.726	-0.111	0.064
-264.253	22.927	0.273	0.224
-263.238	-200.000	-0.002	0.292
-262.224	168.136	0.187	0.266
-261.209	378.995	-0.078	-0.160
-260.195	-34.298	0.155	0.085
-259.180	-116.077	0.118	0.022
-258.165	-68.817	-0.247	0.095
-257.151	45.621	0.191	-0.177
-256.136	-107.929	0.017	0.004
-255.122	-59.062	-0.190	-0.082
-254.107	165.319	-0.090	-0.127
-253.092	-120.241	0.340	-0.058
-252.078	48.330	0.140	-0.131
-251.063	-200.000	-0.005	0.029
-250.049	-200.000	-0.009	0.315
-249.034	-112.572	-0.393	-0.078
-248.019	-200.000	0.038	-0.286
-247.005	-72.351	-0.212	-0.078
-245.990	-200.000	-0.008	-0.098
-244.976	-4.613	0.185	0.127
-243.961	25.562	-0.186	0.155
-242.946	-130.148	0.364	-0.050
-241.932	290.650	0.266	-0.482
-240.917	137.669	0.155	-0.203
-239.903	-39.024	0.213	0.112
-238.888	-44.191	0.052	-0.026
-237.873	-200.000	-0.005	-0.128
-236.859	-179.462	0.201	-0.004
-235.844	-32.978	0.158	0.087
-234.830	800.000	0.068	0.201
-233.815	10.500	0.285	0.217
-232.800	122.179	-0.216	-0.269
-231.786	256.053	-0.120	-0.206
-230.771	-200.000	-0.062	-0.368
-229.757	-93.112	-0.042	0.012
-228.742	169.644	-0.198	0.282
-227.727	-200.000	-0.028	0.281
-226.713	-46.239	0.140	0.069
-225.698	-200.000	0.041	-0.254
-224.684	-135.315	-0.375	0.045
-223.669	72.373	0.245	0.255
-222.655	-64.901	-0.415	0.168
-221.640	-200.000	0.045	-0.250
-220.625	675.880	-0.042	-0.109
-219.611	46.053	-0.136	-0.126
-218.596	-60.962	0.183	-0.077
-217.582	800.000	0.014	0.047
-216.567	385.176	0.086	-0.178
-215.552	347.990	0.018	0.036
-214.538	800.000	-0.073	0.215
-213.523	-141.736	0.131	0.013
-212.509	47.848	0.208	-0.194
-211.494	64.112	0.211	0.211
-210.479	-79.261	-0.321	0.108
-209.465	207.756	0.110	0.171
-208.450	-140.682	0.100	0.010
-207.436	800.000	0.042	0.163
-206.421	-200.000	0.022	0.164
-205.406	-200.000	0.027	0.223
-204.392	617.122	0.063	0.157
-203.377	-200.000	0.024	-0.134
-202.363	800.000	-0.107	0.356
-201.348	408.092	-0.101	-0.214
-200.333	800.000	-0.067	-0.197
-199.319	-200.000	-0.028	-0.162
-198.304	-73.625	0.257	0.093
-197.290	800.000	0.071	-0.206
-196.275	-90.579	-0.019	-0.005
-195.260	51.806	-0.020	-0.019
-194.246	-99.355	-0.141	0.036
-193.231	-35.910	0.126	-0.068
-192.217	-106.521	0.313	-0.070
-191.202	-200.000	-0.026	0.425
-190.187	-131.564	-0.108	0.014
-189.173	-110.614	-0.134	0.028
-188.158	-200.000	0.007	0.088
-187.144	-200.000	-0.017	0.359
-186.129	62.846	0.052	-0.052
-185.114	657.184	0.036	-0.093
-184.100	-10.104	0.285	0.189
-183.085	800.000	0.053	0.227
-182.071	-112.375	-0.211	0.042
-181.056	-22.970	0.208	0.125
-180.042	150.905	0.079	0.108
-179.027	148.026	-0.154	0.207
-178.012	-94.262	0.076	-0.021
-176.998	-120.675	-0.151	0.025
-175.983	-58.585	-0.168	0.073
-174.969	-134.752	0.029	-0.004
-173.954	71.809	0.094	0.098
-172.939	89.377	-0.286	-0.317
-171.925	-167.559	-0.186	-0.007
-170.910	-79.703	0.053	-0.018
-169.896	35.792	0.205	-0.180
-168.881	800.000	0.136	-0.531
-167.866	800.000	0.047	-0.140
-166.852	-59.243	-0.209	0.090
-165.837	-62.711	-0.273	-0.113
-164.823	800.000	0.047	-0.178
-163.808	-200.000	0.026	-0.189
-162.793	5.091	0.395	-0.290
-161.779	223.504	-0.052	-0.083
-160.764	-200.000	0.041	0.238
-159.750	-31.073	0.372	-0.209
-158.735	-69.588	0.078	-0.030
-157.720	-151.423	0.136	-0.010
-156.706	800.000	0.038	0.113
-155.691	-25.390	-0.093	0.055
-154.677	800.000	-0.076	0.306
-153.662	800.000	-0.086	0.270
-152.647	-112.852	0.103	0.020
-151.633	-200.000	-0.028	0.312
-150.618	-48.455	-0.036	-0.017
-149.604	-62.673	0.416	-0.172
-148.589	-65.321	-0.187	-0.075
-147.574	-68.273	-0.203	0.079
-146.560	465.875	-0.124	-0.275
-145.545	93.032	-0.195	-0.220
-144.531	-200.000	-0.164	-0.000
-143.516	113.039	-0.120	0.145
-142.502	800.000	0.032	0.132
-141.487	-126.253	-0.127	0.019
-140.472	-167.574	0.154	0.006
-139.458	705.178	-0.092	0.242
-138.443	30.780	-0.205	0.174
-137.429	-127.272	0.113	0.016
-136.414	-46.014	-0.230	-0.113
-135.399	266.404	-0.040	-0.069
-134.385	-200.000	0.009	-0.196
-133.370	255.466	0.062	0.106
-132.356	567.510	-0.112	-0.269
-131.341	-80.637	-0.106	-0.035
-130.326	800.000	-0.063	0.236
-129.312	47.551	0.235	0.218
-128.297	-200.000	0.028	0.208
-127.283	-110.818	-0.195	-0.040
-126.268	53.576	-0.254	-0.242
-125.253	800.000	0.048	-0.133
-124.239	-200.000	-0.007	0.105
-123.224	-200.000	0.002	-0.020
-122.210	-38.510	-0.098	0.051
-121.195	-200.000	0.187	0.000
-120.180	213.701	0.146	-0.229
-119.166	119.029	-0.109	-0.134
-118.151	800.000	0.045	0.161
-117.137	78.348	-0.117	0.124
-116.122	109.866	0.076	-0.090
-115.107	-200.000	-0.045	0.220
-114.093	-73.711	-0.108	0.039
-113.078	267.637	0.140	0.244
-112.064	-200.000	-0.045	0.464
-111.049	-200.000	0.036	0.238
-110.034	-89.122	-0.111	-0.033
-109.020	-200.000	0.005	0.353
-108.005	800.000	-0.084	-0.305
-106.991	125.127	0.309	0.387
-105.976	263.482	-0.123	0.212
-104.962	213.102	-0.036	-0.057
-103.947	129.764	0.129	-0.164
-102.932	58.290	-0.235	-0.229
-101.918	206.696	-0.222	-0.344
-100.903	190.210	-0.136	0.203
-99.889	-200.000	-0.063	0.325
-98.874	-200.000	0.007	-0.152
-97.859	-128.100	0.067	0.010
-96.845	10.126	-0.160	0.121
-95.830	-200.000	-0.060	-0.273
-94.816	-162.522	0.208	-0.010
-93.801	442.747	0.014	0.031
-92.786	104.490	-0.054	0.063
-91.772	-184.180	-0.297	-0.005
-90.757	475.647	-0.042	0.095
-89.743	65.759	-0.151	-0.152
-88.728	-91.374	0.102	-0.029
-87.713	54.510	-0.161	-0.154
-86.699	8.905	-0.251	0.188
-85.684	-189.497	-0.165	-0.002
-84.670	55.022	-0.106	-0.102
-83.655	-92.867	0.200	-0.056
-82.640	800.000	-0.049	0.182
-81.626	-200.000	-0.007	-0.086
-80.611	90.111	-0.092	-0.102
-79.597	15.297	-0.236	0.184
-78.582	356.277	-0.087	-0.171
-77.567	-200.000	-0.009	0.223
-76.553	800.000	0.033	0.141
-75.538	-200.000	0.001	-0.183
-74.524	478.716	0.057	-0.129
-73.509	18.473	0.254	-0.201
-72.494	170.292	-0.116	0.165
-71.480	-32.771	0.307	-0.170
-70.465	127.523	0.273	-0.344
-69.451	-200.000	-0.024	0.212
-68.436	38.135	-0.202	-0.178
-67.422	368.890	-0.121	-0.243
-66.407	106.145	0.162	0.190
-65.392	-140.875	0.387	-0.039
-64.378	-166.050	0.019	0.001
-63.363	-101.883	0.255	0.061
-62.349	121.025	0.225	-0.277
-61.334	-11.004	-1.204	-0.788
-60.319	-57.276	0.265	0.116
-59.305	-200.000	-0.100	-0.766
-58.290	174.536	0.462	0.662
-57.276	588.209	0.691	1.688
-56.261	-200.000	93.811	544.050
-55.246	494.820	1409.564	3208.645
-54.232	146.454	2618.360	3485.573
-53.217	110.126	2240.560	2666.266
-52.203	45.125	1766.645	1613.790
-51.188	38.071	1573.190	1387.122
-50.173	35.687	1545.617	1346.090
-49.159	52.626	1594.423	1509.523
-48.144	55.570	1613.603	1548.606
-47.130	38.462	1569.920	1386.788
-46.115	35.229	1554.624	1350.487
-45.100	35.094	1551.017	1346.356
-44.086	35.057	1549.320	1344.567
-43.071	35.076	1547.322	1342.912
-42.057	34.942	1546.025	1340.796
-41.042	35.028	1544.056	1339.634
-40.027	35.061	1542.750	1338.682
-39.013	35.080	1540.826	1337.091
-37.998	34.955	1540.245	1335.661
-36.984	35.161	1538.692	1335.697
-35.969	35.136	1537.476	1334.415
-34.954	35.127	1535.918	1332.945
-33.940	34.970	1534.772	1330.806
-32.925	35.081	1532.695	1329.726
-31.911	35.032	1531.745	1328.509
-30.896	35.060	1530.317	1327.411
-29.881	35.183	1528.660	1326.771
-28.867	35.112	1527.161	1324.928
-27.852	35.037	1525.991	1323.339
-26.838	35.165	1524.067	1322.505
-25.823	35.104	1522.882	1321.001
-24.809	35.184	1520.830	1319.720
-23.794	35.009	1520.068	1317.806
-22.779	35.077	1519.097	1317.375
-21.765	35.068	1517.987	1316.300
-20.750	35.099	1516.349	1315.041
-19.736	35.010	1515.658	1313.782
-18.721	35.078	1514.201	1312.928
-17.706	35.039	1513.398	1311.916
-16.692	35.066	1512.110	1310.934
-15.677	35.027	1511.058	1309.702
-14.663	34.991	1510.099	1308.567
-13.648	35.079	1508.944	1308.119
-12.633	34.982	1507.960	1306.553
-11.619	35.039	1507.474	1306.468
-10.604	35.062	1506.031	1305.324
-9.590	35.010	1505.613	1304.552
-8.575	34.953	1504.822	1303.430
-7.560	35.034	1503.858	1303.094
-6.546	34.878	1503.080	1301.304
-5.531	34.939	1502.225	1300.926
-4.517	34.943	1500.923	1299.776
-3.502	35.004	1499.787	1299.156
-2.487	34.920	1499.082	1297.923
-1.473	34.961	1497.880	1297.111
-0.458	35.058	1496.589	1296.595
0.556	33.826	1487.616	1287.735
1.571	31.297	1461.377	1248.042
2.586	27.816	1396.931	1170.618
3.600	25.532	1310.461	1084.302
4.615	23.525	1262.648	1032.975
5.629	20.142	1204.427	966.433
6.644	10.230	1114.395	842.733
7.659	2.060	1068.905	767.318
8.673	0.614	1063.200	755.922
9.688	0.472	1059.609	752.596
10.702	0.292	1058.820	751.069
11.717	0.232	1057.104	749.490
12.731	3.142	1059.976	765.960
13.746	12.306	1073.364	821.599
14.761	18.361	1079.700	856.759
15.775	17.739	1078.105	852.307
16.790	16.696	1076.045	845.401
17.804	15.707	1073.343	838.274
18.819	14.703	1071.738	831.945
19.834	14.347	1070.315	828.998
20.848	14.002	1069.307	826.429
21.863	13.688	1068.575	824.225
22.877	13.606	1067.426	822.859
23.892	13.453	1066.082	820.995
24.907	13.275	1065.951	819.936
25.921	13.294	1064.786	819.062
26.936	13.352	1064.283	818.890
27.950	13.284	1063.624	817.975
28.965	13.346	1063.099	817.806
29.980	13.447	1061.867	817.286
30.994	13.426	1061.162	816.567
32.009	13.593	1060.111	816.506
33.023	13.514	1059.789	815.799
34.038	13.495	1058.701	814.795
35.053	13.570	1057.658	814.290
36.067	13.464	1057.071	813.241
37.082	13.379	1056.317	812.173
38.096	13.367	1055.501	811.419
39.111	13.395	1055.006	811.103
40.126	13.437	1054.082	810.527
41.140	13.467	1052.617	809.473
42.155	13.341	1051.618	808.019
43.169	13.256	1051.014	807.069
44.184	13.217	1049.712	805.806
45.199	13.291	1048.475	805.146
46.213	13.306	1047.558	804.445
47.228	13.286	1046.571	803.519
48.242	13.322	1045.817	803.041
49.257	13.325	1044.818	802.218
50.271	13.325	1043.782	801.354
51.286	13.407	1043.074	801.136
52.301	13.491	1041.817	800.504
53.315	13.329	1041.401	799.331
54.330	13.345	1040.365	798.543
55.344	13.219	1039.962	797.554
56.359	13.270	1038.292	796.449
57.374	13.319	1037.466	795.981
58.388	13.194	1036.702	794.724
59.403	13.286	1035.862	794.452
60.417	13.202	1034.888	793.230
61.432	13.157	1034.395	792.568
62.447	13.255	1033.296	792.123
63.461	13.261	1032.354	791.360
64.476	13.208	1031.483	790.367
65.490	13.165	1030.918	789.659
66.505	13.150	1029.849	788.699
67.520	13.226	1029.234	788.523
68.534	13.294	1028.323	788.081
69.549	13.290	1027.762	787.560
70.563	13.131	1026.840	786.026
71.578	13.084	1026.083	785.155
72.593	13.212	1025.220	785.033
73.607	13.079	1024.024	783.415
74.622	13.144	1023.247	783.060
75.636	13.199	1022.323	782.547
76.651	13.147	1021.647	781.714
77.666	12.991	1020.630	780.128
78.680	13.130	1019.520	779.868
79.695	13.054	1019.638	779.527
80.709	13.123	1019.012	779.308
81.724	13.150	1018.158	778.711
82.739	13.224	1017.143	778.216
83.753	13.203	1016.548	777.591
84.768	13.314	1015.379	777.152
85.782	13.399	1014.943	777.150
86.797	13.421	1014.253	776.653
87.812	13.414	1013.294	775.817
88.826	13.344	1012.730	774.992
89.841	13.320	1011.540	773.896
90.855	13.409	1010.397	773.369
91.870	13.411	1009.736	772.808
92.884	13.428	1009.159	772.375
93.899	13.382	1008.620	771.681
94.914	13.457	1007.711	771.265
95.928	13.401	1007.232	770.572
96.943	13.464	1006.505	770.241
97.957	13.498	1005.470	769.535
98.972	13.482	1004.422	768.591
99.987	13.501	1003.889	768.204
101.001	13.550	1003.161	767.808
102.016	13.475	1002.588	766.954
103.030	13.491	1001.318	765.989
104.045	13.402	1000.306	764.733
105.060	13.455	999.534	764.319
106.074	13.356	998.331	762.879
107.089	13.406	997.779	762.617
108.103	13.337	996.769	761.460
109.118	13.253	995.665	760.165
110.133	13.311	994.508	759.480
111.147	13.170	994.031	758.402
112.162	13.269	992.806	757.853
113.176	13.282	992.310	757.466
114.191	13.360	991.465	757.111
115.206	13.282	990.436	755.903
116.220	13.360	990.027	755.880
117.235	13.326	989.077	754.931
118.249	13.254	988.295	753.938
119.264	13.394	987.129	753.622
120.279	13.327	986.496	752.769
121.293	13.278	985.960	752.069
122.308	13.265	984.769	751.037
123.322	13.296	983.786	750.362
124.337	13.313	982.715	749.554
125.352	13.323	981.593	748.675
126.366	13.325	980.783	748.002
127.381	13.396	979.269	747.101
128.395	13.219	978.628	745.749
129.410	13.201	977.942	745.078
130.424	13.271	976.780	744.440
131.439	13.282	975.872	743.732
132.454	13.441	975.037	743.745
133.468	13.364	974.292	742.766
134.483	13.438	973.490	742.422
135.497	13.335	972.910	741.450
136.512	13.357	972.089	740.858
137.527	13.446	971.413	740.677
138.541	13.275	970.658	739.271
139.556	13.406	969.487	738.899
140.570	13.470	969.145	738.858
141.585	13.528	968.391	738.475
142.600	13.559	967.605	737.948
143.614	13.522	966.608	736.959
144.629	13.540	966.205	736.665
145.643	13.479	965.594	735.863
146.658	13.615	964.685	735.710
147.673	13.522	963.715	734.491
148.687	13.465	963.006	733.635
149.702	13.450	961.691	732.503
150.716	13.365	961.332	731.787
151.731	13.474	960.041	731.221
152.746	13.456	959.429	730.612
153.760	13.384	958.717	729.687
154.775	13.539	957.888	729.673
155.789	13.522	956.950	728.822
156.804	13.541	956.349	728.381
157.819	13.494	955.590	727.535
158.833	13.517	955.050	727.158
159.848	13.560	954.474	726.844
160.862	13.715	953.695	726.865
161.877	13.538	953.108	725.578
162.892	13.484	952.207	724.593
163.906	13.514	951.150	723.854
164.921	13.579	950.093	723.269
165.935	13.607	949.179	722.633
166.950	13.541	948.606	721.844
167.964	13.610	947.916	721.557
168.979	13.550	946.512	720.164
169.994	13.604	945.728	719.737
171.008	13.663	944.357	718.889
172.023	13.540	943.652	717.755
173.037	13.542	943.457	717.552
174.052	13.700	942.115	717.148
175.067	13.764	941.628	716.992
176.081	13.675	940.760	715.884
177.096	13.525	940.117	714.685
178.110	13.628	939.236	714.395
179.125	13.617	938.478	713.708
180.140	13.719	937.745	713.526
181.154	13.748	936.875	712.925
182.169	13.615	936.666	712.131
183.183	13.761	935.953	712.153
184.198	13.815	935.066	711.647
185.213	13.792	934.379	710.963
186.227	13.779	933.673	710.306
187.242	13.894	933.234	710.403
188.256	13.878	932.117	709.418
189.271	13.874	931.548	708.908
190.286	13.978	930.758	708.685
191.300	13.720	930.298	707.174
192.315	13.579	929.843	706.165
193.329	13.605	929.474	705.935
194.344	13.678	928.123	705.156
195.359	13.718	927.556	704.832
196.373	13.878	926.704	704.800
197.388	13.630	926.841	703.791
198.402	13.812	926.151	703.976
199.417	14.040	925.371	704.288
200.432	14.089	924.848	704.033
201.446	14.037	924.801	703.716
202.461	14.123	924.140	703.513
203.475	14.066	923.811	702.960
204.490	14.149	922.955	702.598
205.504	14.098	921.631	701.312
206.519	14.033	921.115	700.583
207.534	14.027	920.468	700.005
208.548	14.104	919.614	699.619
209.563	13.966	919.266	698.710
210.577	14.009	918.426	698.191
211.592	14.155	917.808	698.271
212.607	14.190	917.222	697.912
213.621	14.256	916.676	697.708
214.636	14.192	916.220	697.034
215.650	14.225	915.662	696.686
216.665	14.102	915.139	695.712
217.680	14.315	914.348	695.938
218.694	14.337	913.583	695.387
219.709	14.381	913.355	695.334
220.723	14.408	912.372	694.638
221.738	14.350	912.031	694.074
222.753	14.391	910.871	693.300
223.767	14.282	910.297	692.349
224.782	14.354	909.599	692.057
225.796	14.470	908.750	691.833
226.811	14.274	908.425	690.711
227.826	14.365	907.747	690.510
228.840	14.361	906.665	689.610
229.855	14.397	906.332	689.444
230.869	14.565	905.260	689.261
231.884	14.292	905.171	688.008
232.899	14.417	904.115	687.657
233.913	14.394	903.593	687.104
234.928	14.407	902.643	686.376
235.942	14.429	902.398	686.217
236.957	14.434	901.245	685.303
237.972	14.408	900.739	684.749
238.986	14.473	900.365	684.670
240.001	14.421	899.257	683.556
241.015	14.589	898.330	683.477
242.030	14.521	897.741	682.691
243.045	14.559	897.396	682.525
244.059	14.600	896.687	682.090
245.074	14.513	896.111	681.238
246.088	14.557	895.662	681.015
247.103	14.451	895.426	680.345
248.117	14.573	894.506	680.080
249.132	14.669	893.761	679.848
250.147	14.713	893.628	679.862
251.161	14.766	892.798	679.387
252.176	14.858	891.817	678.955
253.190	14.891	891.172	678.538
254.205	14.874	890.740	678.082
255.220	14.845	890.152	677.455
256.234	14.980	889.417	677.382
257.249	14.847	888.908	676.396
258.263	14.918	888.612	676.398
259.278	14.780	887.562	674.981
260.293	14.905	887.474	675.359
261.307	14.959	886.256	674.591
262.322	15.006	885.938	674.480
263.336	15.006	885.487	674.077
264.351	15.135	884.953	674.129
265.366	15.108	883.991	673.227
266.380	15.060	883.777	672.814
267.395	15.102	882.976	672.312
268.409	15.131	882.175	671.758
269.424	15.014	881.389	670.632
270.439	15.125	880.310	670.197
271.453	15.200	879.879	670.108
272.468	15.116	879.202	669.199
273.482	15.205	878.450	668.922
274.497	15.078	877.959	667.984
275.512	15.177	877.198	667.740
276.526	15.122	876.836	667.186
277.541	15.171	876.096	666.759
278.555	15.157	875.339	666.065
279.570	15.253	874.832	666.005
280.585	15.231	874.367	665.505
281.599	15.314	873.475	665.096
282.614	15.208	872.941	664.208
283.628	15.327	872.506	664.290
284.643	15.245	871.791	663.362
285.657	15.366	871.240	663.365
286.672	15.257	871.289	662.913
287.687	15.443	870.496	662.983
288.701	15.364	870.017	662.250
289.716	15.435	869.382	661.988
290.730	15.361	868.699	661.117
291.745	15.247	868.081	660.139
292.760	15.457	867.283	660.299
293.774	15.359	866.865	659.537
294.789	15.410	866.451	659.366
295.803	15.484	865.752	659.064
296.818	15.571	865.048	658.810
297.833	15.479	864.220	657.763
298.847	15.383	863.874	657.067
299.862	15.479	862.881	656.626
300.876	15.470	862.137	655.967
301.891	15.649	861.109	655.827
302.906	15.596	861.086	655.544
303.920	15.553	860.406	654.800
304.935	15.693	859.702	654.753
305.949	15.809	858.523	654.249
306.964	15.737	858.136	653.616
307.979	15.735	857.731	653.239
308.993	15.741	857.428	652.977
310.008	15.739	856.966	652.556
311.022	15.874	856.327	652.535
312.037	15.705	855.741	651.379
313.052	15.748	855.348	651.188
314.066	15.656	854.829	650.377
315.081	15.627	854.025	649.596
316.095	15.725	853.645	649.628
317.110	15.673	853.047	648.916
318.125	15.685	852.393	648.406
319.139	15.725	851.853	648.094
320.154	15.700	851.382	647.583
321.168	15.831	850.430	647.303
322.183	15.790	850.275	646.970
323.197	15.930	849.585	646.927
324.212	15.885	849.084	646.317
325.227	15.725	848.446	645.158
326.241	15.887	847.631	645.101
327.256	15.728	847.729	644.512
328.270	15.804	846.926	644.134
329.285	15.773	846.313	643.493
330.300	15.762	845.530	642.797
331.314	15.746	845.448	642.619
332.329	15.971	844.195	642.469
333.343	16.093	843.614	642.434
334.358	16.130	843.267	642.253
335.373	15.953	842.808	641.173
336.387	15.940	842.606	640.911
337.402	15.983	842.117	640.648
338.416	16.083	841.173	640.253
339.431	16.203	839.970	639.736
340.446	16.104	839.919	639.264
341.460	16.170	839.428	639.085
342.475	16.195	838.470	638.392
343.489	16.187	838.073	638.003
344.504	16.198	837.398	637.476
345.519	16.377	836.944	637.748
346.533	16.239	836.532	636.856
347.548	16.220	836.191	636.471
348.562	16.260	835.619	636.131
349.577	16.319	835.240	636.008
350.592	16.202	834.384	634.858
351.606	16.242	834.226	634.831
352.621	16.275	833.760	634.544
353.635	16.156	833.390	633.761
354.650	16.309	832.472	633.582
355.665	16.320	832.179	633.343
356.679	16.368	831.910	633.263
357.694	16.392	831.269	632.809
358.708	16.474	830.888	632.770
359.723	16.478	829.817	631.914
360.738	16.511	829.331	631.611
361.752	16.281	829.351	630.709
362.767	16.467	828.716	630.864
363.781	16.442	828.381	630.460
364.796	16.594	827.843	630.564
365.810	16.546	827.454	630.033
366.825	16.634	827.080	630.019
367.840	16.508	827.140	629.540
368.854	16.568	826.417	629.155
369.869	16.517	825.963	628.565
370.883	16.561	825.353	628.210
371.898	16.749	824.377	628.110
372.913	16.779	823.619	627.588
373.927	16.601	823.773	626.988
374.942	16.664	822.801	626.428
375.956	16.602	822.162	625.657
376.971	16.658	821.509	625.311
377.986	16.700	820.905	624.952
379.000	16.783	820.512	624.903
380.015	16.731	820.362	624.542
381.029	17.005	819.351	624.724
382.044	16.827	818.623	623.458
383.059	17.017	817.567	623.298
384.073	16.904	817.824	623.024
385.088	16.965	817.404	622.873
386.102	16.742	817.024	621.710
387.117	16.798	816.160	621.204
388.132	16.837	815.683	620.926
389.146	16.873	815.549	620.903
390.161	16.815	815.131	620.316
391.175	16.927	814.642	620.298
392.190	16.986	814.273	620.180
393.205	16.990	813.825	619.796
394.219	16.938	813.435	619.258
395.234	16.976	813.169	619.136
396.248	16.998	812.461	618.625
397.263	16.821	811.933	617.521
398.278	16.997	811.150	617.511
399.292	16.998	810.953	617.312
400.307	16.945	810.630	616.818
401.321	16.989	810.253	616.636
402.336	17.042	809.660	616.322
403.350	17.040	809.134	615.861
404.365	17.072	808.889	615.736
405.380	17.129	808.219	615.377
406.394	17.238	807.824	615.417
407.409	17.182	807.758	615.110
408.423	17.354	806.787	614.939
409.438	17.257	806.237	614.113
410.453	17.097	806.350	613.569
411.467	17.305	805.791	613.838
412.482	17.403	804.921	613.476
413.496	17.341	804.381	612.787
414.511	17.433	804.138	612.877
415.526	17.443	803.634	612.476
416.540	17.391	803.594	612.204
417.555	17.497	803.220	612.246
418.569	17.426	802.734	611.566
419.584	17.402	802.284	611.082
420.599	17.400	801.664	610.549
421.613	102.394	1282.495	1437.517
422.628	87.898	1352.593	1437.625
