DTS Sentinel unit serial number:	SN413079Multiplexer serial number:	ORYXHardware model number:	OX4-SRSoftware version number:	ORYX F/W v4.00 Oryx Data Collector v3.7.2.0data status	okinstallation	princeton_trtdifferential loss correction	single-endedforward channel	channel 3reverse channel	N/Adate	2019/09/15time	06:40:34forward acquisition time	60.00reverse acquisition time	0.00gamma	496.2192k internal	0.2324k external	0.2324temperature offset calibration	0.9976default loss term (dB/km)	0.3790temperature slope calibration	1.0000multiplexer offset coefficient	1.0000multiplexer slope coefficient	1.0000fibre end	0.00T internal ref (°C)	30.50T ext. ref 1 (°C)	4.79T ext. ref 2 (°C)	25.45length (m)	temperature (°C)	Stokes	anti-Stokes-747.200	193.883	-0.121	-0.185
-746.185	-134.344	-0.091	0.011
-745.171	157.202	0.242	-0.337
-744.156	-94.781	-0.436	0.119
-743.142	-20.619	0.394	0.244
-742.127	192.845	-0.227	0.347
-741.112	-100.575	-0.271	0.068
-740.098	-148.913	-0.122	0.010
-739.083	-0.688	-0.077	0.055
-738.069	95.489	0.304	0.350
-737.054	13.764	0.096	-0.075
-736.039	117.798	-0.088	0.110
-735.025	800.000	0.065	-0.220
-734.010	-1.820	-0.163	-0.115
-732.996	496.946	-0.139	-0.322
-731.981	800.000	0.077	-0.275
-730.966	-83.812	0.086	-0.028
-729.952	-111.404	0.385	-0.079
-728.937	29.456	-0.300	-0.257
-727.923	-103.166	0.418	-0.100
-726.908	13.534	-0.193	-0.151
-725.894	800.000	0.062	-0.185
-724.879	47.351	0.215	0.202
-723.864	-90.073	-0.320	-0.094
-722.850	49.181	0.138	0.131
-721.835	-54.566	-0.083	0.038
-720.821	158.026	0.314	-0.439
-719.806	75.647	0.238	-0.254
-718.791	-85.906	0.173	-0.054
-717.777	-26.449	-0.206	-0.122
-716.762	-17.714	0.195	0.124
-715.748	-52.465	0.221	0.103
-714.733	158.606	0.061	-0.085
-713.718	-57.719	-0.305	0.135
-712.704	-200.000	0.005	0.099
-711.689	800.000	-0.063	-0.276
-710.675	-100.009	-0.089	0.022
-709.660	-30.980	0.509	0.290
-708.645	-200.000	0.042	-0.313
-707.631	-118.403	-0.255	0.046
-706.616	24.288	0.180	-0.149
-705.602	-86.415	-0.185	-0.057
-704.587	-1.813	-0.177	0.125
-703.572	-170.380	0.354	0.012
-702.558	146.437	0.199	-0.270
-701.543	10.621	0.264	-0.203
-700.529	-200.000	0.346	0.002
-699.514	-200.000	0.063	0.322
-698.499	-100.646	0.179	-0.044
-697.485	-200.000	0.028	-0.343
-696.470	-86.185	-0.277	0.086
-695.456	243.194	0.114	-0.192
-694.441	-115.197	0.165	-0.031
-693.426	-30.270	-0.368	0.211
-692.412	-117.165	-0.133	0.024
-691.397	-113.722	0.317	0.062
-690.383	-29.029	-0.172	0.100
-689.368	8.882	0.077	-0.058
-688.354	394.516	-0.107	-0.224
-687.339	-45.671	0.303	0.151
-686.324	-20.928	0.137	-0.085
-685.310	118.788	-0.154	0.191
-684.295	126.413	0.116	0.148
-683.281	241.809	-0.280	0.472
-682.266	-63.883	-0.185	-0.076
-681.251	51.817	0.060	0.057
-680.237	100.461	0.274	-0.320
-679.222	-132.607	-0.197	-0.025
-678.208	800.000	0.089	-0.254
-677.193	-116.794	0.262	0.048
-676.178	-200.000	0.003	-0.299
-675.164	-17.729	0.299	0.189
-674.149	-46.451	-0.272	0.135
-673.135	-152.118	0.273	-0.020
-672.120	264.846	-0.064	-0.113
-671.105	-113.665	-0.306	-0.060
-670.091	-130.776	-0.207	0.028
-669.076	800.000	0.127	0.398
-668.062	-200.000	0.016	0.311
-667.047	103.910	0.109	-0.129
-666.032	129.762	0.160	-0.206
-665.018	144.924	0.111	-0.149
-664.003	108.139	-0.094	-0.113
-662.989	-200.000	0.004	-0.299
-661.974	-200.000	-0.017	-0.217
-660.959	281.232	0.096	-0.174
-659.945	-38.416	-0.070	-0.037
-658.930	-200.000	0.009	-0.168
-657.916	-52.464	-0.103	-0.048
-656.901	9.491	0.082	0.062
-655.886	534.717	0.089	-0.212
-654.872	-200.000	-0.001	-0.248
-653.857	-22.587	0.106	0.064
-652.843	-200.000	0.072	0.332
-651.828	-200.000	0.025	0.186
-650.814	-81.166	-0.174	-0.058
-649.799	48.456	0.170	-0.160
-648.784	14.419	-0.086	-0.068
-647.770	227.795	-0.048	0.078
-646.755	130.009	-0.178	-0.230
-645.741	-14.052	0.204	-0.133
-644.726	477.784	-0.037	-0.083
-643.711	-128.258	0.175	-0.025
-642.697	-200.000	-0.005	-0.107
-641.682	-29.419	0.446	-0.256
-640.668	-109.953	-0.225	0.047
-639.653	800.000	-0.122	-0.457
-638.638	-200.000	0.009	-0.147
-637.624	81.458	0.059	-0.064
-636.609	116.974	0.017	-0.021
-635.595	-138.620	-0.197	0.022
-634.580	240.460	0.094	0.157
-633.565	-200.000	-0.020	-0.159
-632.551	-200.000	-0.053	-0.575
-631.536	52.362	-0.088	-0.084
-630.522	-9.544	0.300	0.201
-629.507	273.324	-0.044	0.079
-628.492	-200.000	-0.012	0.230
-627.478	61.287	0.140	-0.140
-626.463	111.752	0.069	-0.083
-625.449	42.295	-0.052	0.047
-624.434	-165.759	-0.343	0.015
-623.419	-200.000	-0.000	0.002
-622.405	-200.000	-0.014	0.145
-621.390	-200.000	0.307	-0.001
-620.376	-200.000	-0.008	-0.080
-619.361	-200.000	0.065	-0.318
-618.346	-60.313	-0.235	-0.100
-617.332	386.508	-0.250	0.519
-616.317	318.762	0.163	0.311
-615.303	800.000	-0.024	0.077
-614.288	152.686	0.168	-0.231
-613.273	251.437	0.090	-0.154
-612.259	-200.000	-0.004	0.122
-611.244	-67.648	-0.319	0.126
-610.230	-200.000	-0.024	0.273
-609.215	-41.416	0.125	-0.065
-608.201	-21.020	0.125	-0.077
-607.186	747.190	0.089	-0.241
-606.171	80.059	-0.340	-0.367
-605.157	-51.681	-0.098	-0.046
-604.142	-169.221	-0.093	0.003
-603.128	220.215	0.058	-0.093
-602.113	-200.000	0.002	0.034
-601.098	-155.533	-0.131	0.008
-600.084	800.000	-0.099	-0.340
-599.069	66.478	0.062	0.063
-598.055	112.127	-0.258	0.313
-597.040	-163.565	0.169	0.008
-596.025	800.000	0.018	-0.075
-595.011	-44.986	0.088	-0.044
-593.996	-61.046	0.256	-0.109
-592.982	800.000	-0.072	0.254
-591.967	159.233	-0.067	-0.093
-590.952	166.601	0.158	0.225
-589.938	-121.337	-0.111	-0.019
-588.923	-200.000	0.041	0.286
-587.909	-161.032	-0.140	-0.007
-586.894	-52.742	0.043	-0.020
-585.879	98.594	-0.097	-0.113
-584.865	-129.898	0.087	0.012
-583.850	308.703	0.075	-0.141
-582.836	96.172	-0.059	-0.068
-581.821	259.402	-0.157	-0.272
-580.806	-200.000	-0.009	0.081
-579.792	500.329	0.172	-0.397
-578.777	-102.432	0.006	0.001
-577.763	-200.000	0.018	0.088
-576.748	525.004	-0.126	-0.298
-575.733	-166.124	-0.074	0.003
-574.719	453.039	0.021	0.047
-573.704	-52.938	-0.172	0.080
-572.690	-137.164	0.245	0.028
-571.675	10.648	-0.072	0.055
-570.661	-23.862	-0.183	-0.110
-569.646	216.831	0.055	-0.089
-568.631	-67.073	-0.158	0.063
-567.617	72.800	-0.092	-0.096
-566.602	-152.782	-0.327	-0.023
-565.588	390.098	-0.059	-0.122
-564.573	100.290	0.234	0.273
-563.558	-22.858	-0.157	-0.095
-562.544	-110.362	0.197	0.041
-561.529	-200.000	0.040	-0.209
-560.515	800.000	-0.131	-0.455
-559.500	800.000	0.082	0.245
-558.485	41.396	0.169	-0.153
-557.471	800.000	0.032	0.094
-556.456	-18.401	-0.097	-0.061
-555.442	-67.603	0.142	-0.056
-554.427	-10.754	-0.176	0.116
-553.412	-117.652	0.072	0.013
-552.398	108.557	-0.156	-0.187
-551.383	-159.025	0.134	0.008
-550.369	-6.689	-0.171	-0.117
-549.354	127.351	0.387	-0.492
-548.339	-97.723	0.224	0.058
-547.325	-111.067	0.108	0.022
-546.310	132.585	0.206	0.266
-545.296	315.837	0.120	-0.227
-544.281	224.701	-0.117	0.189
-543.266	-200.000	-0.046	0.236
-542.252	685.354	0.079	0.207
-541.237	-75.436	-0.438	-0.156
-540.223	800.000	-0.098	0.367
-539.208	386.567	-0.034	0.069
-538.193	451.439	-0.162	0.359
-537.179	-91.152	-0.115	0.033
-536.164	-200.000	0.012	-0.211
-535.150	-186.050	0.294	0.004
-534.135	-94.304	-0.244	-0.067
-533.121	-103.151	0.105	0.025
-532.106	103.862	-0.120	-0.141
-531.091	-72.878	-0.326	0.120
-530.077	68.505	-0.099	-0.102
-529.062	-4.683	-0.055	0.038
-528.048	-200.000	0.025	-0.176
-527.033	-200.000	-0.069	-0.312
-526.018	101.357	0.194	0.226
-525.004	-200.000	-0.054	0.272
-523.989	800.000	-0.046	0.163
-522.975	-200.000	-0.026	0.237
-521.960	303.684	0.088	-0.163
-520.945	367.726	-0.128	0.259
-519.931	-73.786	0.254	0.092
-518.916	-179.316	-0.309	0.007
-517.902	35.348	-0.136	0.120
-516.887	647.005	-0.056	0.144
-515.872	-78.852	-0.310	0.106
-514.858	179.601	0.088	-0.128
-513.843	-200.000	0.009	-0.208
-512.829	800.000	0.070	0.304
-511.814	-200.000	0.014	-0.249
-510.799	-33.582	-0.094	0.052
-509.785	126.130	-0.279	-0.353
-508.770	800.000	-0.124	-0.452
-507.756	-200.000	-0.024	-0.272
-506.741	71.584	0.100	0.104
-505.726	113.869	-0.162	0.197
-504.712	33.005	-0.189	-0.164
-503.697	-127.040	-0.527	0.077
-502.683	-47.161	-0.434	-0.212
-501.668	60.220	0.272	0.269
-500.653	-40.329	0.095	-0.050
-499.639	800.000	-0.075	-0.235
-498.624	44.343	0.054	0.049
-497.610	-137.894	0.125	-0.014
-496.595	65.165	-0.098	-0.099
-495.581	5.889	-0.024	0.017
-494.566	-200.000	-0.017	-0.202
-493.551	-53.944	-0.296	0.135
-492.537	74.640	0.172	-0.181
-491.522	25.774	-0.108	-0.090
-490.508	-34.194	-0.299	0.164
-489.493	-40.610	-0.302	0.156
-488.478	-32.099	0.222	0.124
-487.464	-82.577	-0.198	0.064
-486.449	-27.200	-0.076	-0.044
-485.435	-200.000	0.044	0.353
-484.420	171.737	0.108	0.155
-483.405	-132.843	0.284	0.036
-482.391	675.674	0.134	0.347
-481.376	-62.610	0.178	0.074
-480.362	-60.024	0.071	-0.030
-479.347	1.073	-0.270	-0.194
-478.332	6.747	-0.246	0.183
-477.318	26.430	-0.142	0.118
-476.303	63.901	-0.084	0.085
-475.289	-200.000	0.018	-0.143
-474.274	-25.050	0.156	-0.093
-473.259	565.026	0.114	-0.276
-472.245	800.000	0.106	0.441
-471.230	140.495	-0.141	-0.186
-470.216	-200.000	-0.026	0.135
-469.201	74.482	0.124	0.130
-468.186	158.171	-0.202	-0.280
-467.172	-133.981	0.358	0.044
-466.157	-51.581	-0.086	0.040
-465.143	-44.676	0.075	-0.037
-464.128	225.799	-0.127	-0.206
-463.113	700.433	-0.173	0.453
-462.099	800.000	-0.155	0.508
-461.084	-91.635	-0.121	-0.034
-460.070	0.957	0.123	-0.088
-459.055	93.335	0.176	-0.199
-458.040	-7.272	-0.108	-0.073
-457.026	-200.000	0.026	-0.297
-456.011	-147.993	-0.280	-0.023
-454.997	-129.628	0.265	-0.036
-453.982	44.682	0.354	-0.324
-452.968	58.458	0.089	-0.087
-451.953	-136.808	-0.302	-0.035
-450.938	-168.398	-0.360	0.014
-449.924	-200.000	0.034	0.367
-448.909	583.049	-0.074	0.182
-447.895	-60.170	0.350	0.149
-446.880	-126.705	0.092	-0.014
-445.865	-200.000	-0.024	-0.181
-444.851	9.290	0.166	-0.125
-443.836	-28.203	-0.172	-0.099
-442.822	-200.000	-0.036	0.315
-441.807	-78.162	0.058	-0.020
-440.792	800.000	-0.016	0.053
-439.778	-30.048	-0.117	0.066
-438.763	306.995	0.116	0.215
-437.749	-200.000	-0.031	-0.311
-436.734	9.502	0.068	0.051
-435.719	-163.524	0.332	-0.016
-434.705	27.957	-0.284	-0.238
-433.690	281.863	-0.148	-0.265
-432.676	88.941	0.189	-0.209
-431.661	800.000	0.078	0.321
-430.646	251.183	-0.158	-0.268
-429.632	-14.731	0.412	-0.264
-428.617	-21.816	-0.347	0.210
-427.603	-79.672	-0.260	-0.087
-426.588	47.402	-0.041	-0.038
-425.573	320.636	0.017	-0.033
-424.559	37.522	-0.194	0.172
-423.544	83.725	0.105	-0.114
-422.530	40.857	0.423	-0.381
-421.515	-5.955	0.214	0.146
-420.500	-200.000	0.040	0.212
-419.486	-200.000	-0.020	0.116
-418.471	-86.373	-0.280	0.086
-417.457	523.759	0.048	-0.112
-416.442	95.835	0.088	-0.100
-415.428	-200.000	0.014	0.316
-414.413	463.884	0.073	0.163
-413.398	187.842	0.199	-0.297
-412.384	-66.400	-0.309	-0.122
-411.369	-50.822	0.079	0.037
-410.355	-48.535	0.366	0.176
-409.340	-200.000	-0.000	0.279
-408.325	-200.000	-0.028	0.219
-407.311	-37.260	-0.095	-0.051
-406.296	400.579	-0.060	0.125
-405.282	-3.529	0.158	0.109
-404.267	-67.527	-0.069	-0.027
-403.252	371.729	-0.037	0.074
-402.238	165.509	0.166	-0.234
-401.223	800.000	-0.062	-0.179
-400.209	800.000	-0.128	0.382
-399.194	245.665	-0.143	-0.240
-398.179	-112.632	-0.163	0.032
-397.165	-123.414	0.236	-0.037
-396.150	-17.574	0.217	0.136
-395.136	-88.757	-0.314	0.093
-394.121	-123.272	-0.222	-0.035
-393.106	-122.016	-0.231	0.038
-392.092	-33.329	0.292	-0.161
-391.077	-200.000	0.002	0.217
-390.063	-61.482	-0.193	-0.081
-389.048	-200.000	-0.003	-0.175
-388.033	-181.680	-0.193	-0.004
-387.019	-120.378	0.204	-0.035
-386.004	800.000	-0.034	0.105
-384.990	22.301	0.149	-0.121
-383.975	454.700	0.051	0.111
-382.960	-108.396	0.516	-0.111
-381.946	533.638	0.110	-0.260
-380.931	-57.232	0.125	0.055
-379.917	28.152	0.103	-0.087
-378.902	-122.384	-0.187	0.030
-377.888	22.023	0.045	0.037
-376.873	600.763	-0.015	-0.038
-375.858	148.239	-0.106	-0.143
-374.844	218.547	0.226	-0.360
-373.829	-105.631	0.329	-0.074
-372.815	-39.929	0.195	-0.101
-371.800	60.655	-0.295	-0.290
-370.785	-152.844	-0.510	0.036
-369.771	-68.770	0.327	0.126
-368.756	135.574	0.059	0.076
-367.742	-34.186	0.206	-0.112
-366.727	187.646	0.042	0.062
-365.712	-48.189	-0.347	0.167
-364.698	-200.000	0.109	-0.551
-363.683	-85.746	0.093	0.029
-362.669	-86.659	-0.227	-0.069
-361.654	236.391	-0.208	-0.342
-360.639	72.680	-0.060	0.063
-359.625	-200.000	-0.001	0.116
-358.610	-5.901	-0.140	0.095
-357.596	-71.814	-0.078	-0.029
-356.581	-170.626	-0.223	-0.008
-355.566	-200.000	-0.002	0.175
-354.552	800.000	-0.025	0.102
-353.537	791.546	-0.056	-0.154
-352.523	28.144	-0.062	-0.052
-351.508	800.000	-0.087	0.340
-350.493	-200.000	0.012	0.246
-349.479	800.000	-0.042	0.135
-348.464	163.163	-0.187	0.261
-347.450	75.737	-0.055	-0.058
-346.435	-66.351	0.118	0.047
-345.420	188.194	0.118	-0.175
-344.406	-97.270	-0.121	0.031
-343.391	-57.049	0.142	0.062
-342.377	130.302	0.200	-0.255
-341.362	80.557	-0.243	-0.261
-340.348	-50.062	0.101	0.047
-339.333	19.304	-0.271	0.216
-338.318	-32.300	-0.044	-0.025
-337.304	108.063	-0.157	-0.186
-336.289	115.401	-0.131	-0.159
-335.275	-39.059	0.251	0.131
-334.260	134.520	-0.193	-0.249
-333.245	76.172	0.114	-0.120
-332.231	-74.804	0.216	0.077
-331.216	144.128	-0.088	0.116
-330.202	132.870	0.195	-0.250
-329.187	-73.379	0.433	-0.157
-328.172	-200.000	-0.023	0.105
-327.158	-181.930	0.204	0.004
-326.143	-200.000	0.021	0.147
-325.129	0.549	0.222	-0.158
-324.114	-116.225	-0.191	0.035
-323.099	88.149	-0.024	0.027
-322.085	28.335	0.105	-0.088
-321.070	-147.949	0.165	-0.014
-320.056	-148.608	0.044	-0.004
-319.041	215.889	0.067	0.106
-318.026	-46.738	-0.515	0.250
-317.012	-200.000	-0.079	-0.548
-315.997	800.000	-0.042	0.148
-314.983	-174.654	0.110	0.003
-313.968	-200.000	-0.001	0.241
-312.953	143.140	-0.237	-0.313
-311.939	100.901	0.080	0.092
-310.924	57.609	-0.155	0.151
-309.910	800.000	-0.026	-0.082
-308.895	240.203	0.152	-0.251
-307.880	80.698	0.114	-0.122
-306.866	-167.178	0.420	0.017
-305.851	-200.000	-0.009	0.203
-304.837	-200.000	0.011	0.357
-303.822	-96.894	0.125	0.033
-302.807	93.920	-0.119	0.134
-301.793	149.748	0.192	0.258
-300.778	-165.905	-0.094	-0.004
-299.764	-200.000	0.013	-0.208
-298.749	-200.000	-0.001	0.113
-297.735	53.596	-0.080	-0.076
-296.720	52.548	0.338	0.320
-295.705	800.000	0.034	-0.101
-294.691	-96.647	0.312	-0.081
-293.676	-119.461	-0.179	0.031
-292.662	7.421	0.123	-0.092
-291.647	-110.479	0.224	0.046
-290.632	-200.000	-0.012	0.215
-289.618	36.964	-0.037	0.033
-288.603	663.721	-0.116	0.296
-287.589	441.303	-0.114	0.248
-286.574	-50.258	-0.061	0.028
-285.559	-200.000	-0.018	0.108
-284.545	447.166	-0.053	-0.116
-283.530	244.788	0.130	-0.216
-282.516	-200.000	-0.064	0.470
-281.501	-87.347	0.230	0.069
-280.486	-200.000	-0.014	0.440
-279.472	28.001	0.214	-0.179
-278.457	-82.754	-0.218	0.070
-277.443	-25.006	-0.249	0.146
-276.428	5.722	-0.057	0.042
-275.413	-5.539	0.192	-0.131
-274.399	-200.000	0.037	0.234
-273.384	-95.545	0.287	-0.076
-272.370	-200.000	-0.033	-0.259
-271.355	41.763	-0.200	0.180
-270.340	27.345	-0.155	0.129
-269.326	4.024	0.260	-0.188
-268.311	72.197	0.250	0.258
-267.297	-95.450	0.213	0.057
-266.282	535.125	0.054	-0.127
-265.267	-14.577	0.210	0.134
-264.253	170.564	0.112	0.160
-263.238	-44.653	0.189	-0.093
-262.224	800.000	0.079	-0.271
-261.209	-110.224	-0.060	0.012
-260.195	-200.000	0.057	-0.272
-259.180	-26.952	-0.133	0.077
-258.165	-3.136	0.109	-0.075
-257.151	-124.366	-0.272	0.042
-256.136	350.785	-0.147	0.288
-255.122	-172.217	-0.178	0.006
-254.107	800.000	0.040	-0.132
-253.092	-28.916	0.230	-0.131
-252.078	800.000	-0.079	0.290
-251.063	217.931	-0.082	-0.130
-250.049	-126.692	0.182	0.027
-249.034	18.136	0.238	-0.188
-248.019	800.000	-0.056	0.222
-247.005	-177.412	0.312	0.008
-245.990	154.126	-0.091	-0.124
-244.976	191.635	-0.137	0.205
-243.961	800.000	-0.102	-0.341
-242.946	-200.000	-0.066	0.288
-241.932	-200.000	0.007	0.089
-240.917	800.000	-0.043	0.127
-239.903	248.002	0.122	-0.204
-238.888	346.405	-0.099	0.192
-237.873	-130.361	0.521	0.070
-236.859	299.886	0.053	0.097
-235.844	-54.653	-0.284	-0.127
-234.830	-200.000	0.015	0.110
-233.815	204.664	-0.014	-0.022
-232.800	83.089	-0.163	0.176
-231.786	348.300	0.096	-0.188
-230.771	-10.761	0.265	0.173
-229.757	-55.798	-0.307	-0.136
-228.742	-200.000	-0.000	-0.079
-227.727	-178.991	-0.313	-0.007
-226.713	800.000	-0.043	-0.152
-225.698	-77.021	0.340	-0.117
-224.684	-200.000	-0.062	-0.381
-223.669	409.690	-0.097	-0.203
-222.655	-200.000	-0.019	0.484
-221.640	800.000	0.055	-0.228
-220.625	-137.077	0.265	-0.030
-219.611	-108.379	0.229	0.049
-218.596	800.000	-0.071	-0.203
-217.582	-84.562	-0.058	-0.018
-216.567	-200.000	-0.018	0.349
-215.552	-62.535	-0.293	0.120
-214.538	800.000	0.064	0.240
-213.523	159.973	-0.120	-0.165
-212.509	-90.466	0.292	-0.084
-211.494	143.805	-0.072	0.094
-210.479	-118.983	-0.145	-0.025
-209.465	-198.629	-0.161	-0.001
-208.450	118.989	0.190	0.232
-207.436	60.312	0.158	0.154
-206.421	-52.970	0.135	0.062
-205.406	-161.535	-0.152	0.008
-204.392	-200.000	-0.092	-0.420
-203.377	-12.359	0.425	-0.274
-202.363	-200.000	0.006	0.136
-201.348	500.476	0.019	-0.043
-200.333	154.814	0.093	0.127
-199.319	-107.379	0.137	-0.030
-198.304	207.186	0.160	0.247
-197.290	49.576	-0.158	-0.147
-196.275	-16.862	-0.360	0.225
-195.260	111.648	0.064	-0.076
-194.246	-200.000	-0.020	0.162
-193.231	-116.503	-0.186	-0.034
-192.217	92.012	-0.114	0.127
-191.202	36.933	-0.119	0.104
-190.187	800.000	-0.097	0.265
-189.173	-87.459	-0.456	0.136
-188.158	45.958	0.204	-0.186
-187.144	-193.579	0.176	-0.001
-186.129	-152.865	0.106	0.007
-185.114	122.914	0.090	-0.111
-184.100	-80.831	-0.092	0.030
-183.085	339.684	0.119	0.229
-182.071	148.003	0.149	-0.198
-181.056	800.000	0.055	0.153
-180.042	58.064	0.060	-0.058
-179.027	153.485	0.079	0.107
-178.012	-135.604	-0.229	0.027
-176.998	800.000	0.142	0.461
-175.983	-66.795	-0.150	0.059
-174.969	-128.826	0.370	0.051
-173.954	-147.106	0.159	0.013
-172.939	-200.000	0.006	0.090
-171.925	38.777	0.019	0.016
-170.910	-19.359	0.324	-0.198
-169.896	171.228	0.126	0.179
-168.881	-200.000	0.004	-0.206
-167.866	-18.757	0.180	-0.111
-166.852	800.000	-0.063	-0.202
-165.837	-134.847	0.170	-0.020
-164.823	2.467	-0.231	-0.165
-163.808	-200.000	0.061	0.452
-162.793	2.488	-0.151	-0.108
-161.779	352.213	0.127	-0.247
-160.764	800.000	0.079	0.259
-159.750	572.019	-0.057	-0.138
-158.735	-114.958	-0.208	-0.039
-157.720	120.190	0.145	-0.177
-156.706	800.000	-0.045	0.146
-155.691	-116.910	-0.065	0.012
-154.677	-200.000	-0.069	0.308
-153.662	-200.000	-0.004	-0.138
-152.647	-200.000	-0.001	0.043
-151.633	-52.885	-0.258	0.117
-150.618	197.619	-0.082	0.123
-149.604	258.173	0.133	0.225
-148.589	-91.926	0.028	0.008
-147.574	-105.465	-0.072	0.016
-146.560	140.705	0.125	-0.163
-145.545	95.622	0.153	0.172
-144.531	-168.517	-0.043	0.002
-143.516	42.868	0.263	0.236
-142.502	122.558	-0.106	0.130
-141.487	152.108	-0.093	-0.125
-140.472	-113.365	0.258	-0.050
-139.458	-31.494	-0.408	-0.226
-138.443	-6.156	-0.061	-0.041
-137.429	153.654	-0.046	0.062
-136.414	-130.146	0.174	0.023
-135.399	-200.000	-0.005	0.030
-134.385	213.576	-0.058	0.091
-133.370	490.409	0.063	-0.141
-132.356	125.434	0.094	0.116
-131.341	61.986	-0.265	0.260
-130.326	-100.003	0.145	-0.036
-129.312	-200.000	-0.009	0.090
-128.297	384.389	0.134	0.272
-127.283	-89.880	-0.112	-0.032
-126.268	800.000	0.022	0.090
-125.253	-9.575	0.365	-0.239
-124.239	-127.372	0.391	-0.056
-123.224	101.043	-0.087	0.099
-122.210	-68.653	-0.158	-0.060
-121.195	206.725	-0.130	0.199
-120.180	125.869	0.292	0.363
-119.166	121.793	-0.196	-0.241
-118.151	-200.000	0.030	0.148
-117.137	-139.516	0.272	0.029
-116.122	-33.551	0.156	0.085
-115.107	-117.957	-0.223	0.039
-114.093	403.232	0.093	0.192
-113.078	567.463	0.160	-0.383
-112.064	62.796	0.055	-0.054
-111.049	800.000	0.110	0.475
-110.034	152.025	0.046	0.061
-109.020	800.000	0.060	-0.189
-108.005	-200.000	0.045	-0.349
-106.991	-136.420	0.172	-0.020
-105.976	5.535	-0.094	0.069
-104.962	-33.650	0.308	-0.167
-103.947	309.762	0.168	0.309
-102.932	30.158	0.145	0.122
-101.918	-46.872	0.279	-0.134
-100.903	160.675	-0.120	0.165
-99.889	-140.341	0.244	0.025
-98.874	25.907	0.120	0.098
-97.859	210.586	-0.103	-0.159
-96.845	791.359	0.087	0.236
-95.830	372.575	0.025	0.051
-94.816	-200.000	-0.058	0.294
-93.801	223.479	-0.040	0.063
-92.786	-102.017	0.257	-0.061
-91.772	13.681	-0.293	-0.224
-90.757	135.031	-0.056	-0.071
-89.743	453.665	0.040	-0.087
-88.728	-89.893	0.236	0.068
-87.713	800.000	-0.079	-0.265
-86.699	-200.000	0.012	-0.297
-85.684	390.471	0.146	0.298
-84.670	48.928	0.028	-0.025
-83.655	150.071	-0.012	-0.016
-82.640	-122.656	0.099	-0.016
-81.626	-39.929	0.265	-0.136
-80.611	-52.085	0.402	-0.184
-79.597	68.847	-0.326	0.329
-78.582	-200.000	0.031	-0.302
-77.567	-67.569	0.050	0.019
-76.553	792.813	-0.084	-0.227
-75.538	800.000	0.091	-0.289
-74.524	2.772	0.101	0.072
-73.509	800.000	0.056	-0.202
-72.494	94.134	-0.291	-0.325
-71.480	-124.788	0.164	0.025
-70.465	-11.337	0.073	-0.047
-69.451	-137.164	0.552	-0.062
-68.436	417.893	0.047	0.099
-67.422	-200.000	-0.009	0.071
-66.407	-48.116	0.187	0.089
-65.392	-90.779	0.216	0.061
-64.378	149.484	-0.069	0.091
-63.363	3.705	0.361	0.259
-62.349	-37.278	-0.072	-0.038
-61.334	16.212	-1.164	-0.902
-60.319	-3.422	0.505	0.346
-59.305	800.000	-0.269	-1.001
-58.290	189.664	0.779	1.148
-57.276	443.873	0.762	1.641
-56.261	-200.000	103.540	599.375
-55.246	560.355	1441.229	3420.885
-54.232	186.316	2628.784	3842.923
-53.217	116.375	2167.559	2610.014
-52.203	41.337	1695.805	1506.690
-51.188	33.617	1506.102	1285.997
-50.173	31.129	1479.553	1246.677
-49.159	52.212	1532.897	1435.527
-48.144	52.785	1550.481	1455.838
-47.130	33.797	1507.735	1288.406
-46.115	30.708	1492.397	1254.458
-45.100	30.617	1488.627	1250.631
-44.086	30.536	1486.802	1248.506
-43.071	30.461	1485.157	1246.572
-42.057	30.410	1483.679	1244.940
-41.042	30.481	1481.726	1243.722
-40.027	30.509	1480.213	1242.592
-39.013	30.498	1479.096	1241.532
-37.998	30.446	1477.682	1239.948
-36.984	30.434	1476.405	1238.746
-35.969	30.449	1475.093	1237.697
-34.954	30.466	1473.674	1236.569
-33.940	30.570	1472.097	1235.888
-32.925	30.467	1470.814	1234.081
-31.911	30.512	1469.218	1232.993
-30.896	30.569	1468.455	1232.680
-29.881	30.612	1467.331	1231.972
-28.867	30.610	1465.811	1230.636
-27.852	30.566	1464.155	1228.905
-26.838	30.507	1463.112	1227.586
-25.823	30.611	1461.548	1226.912
-24.809	30.531	1459.999	1225.037
-23.794	30.570	1458.291	1223.815
-22.779	30.518	1457.263	1222.560
-21.765	30.642	1455.829	1222.124
-20.750	30.537	1455.242	1220.892
-19.736	30.476	1454.518	1219.834
-18.721	30.521	1452.831	1218.670
-17.706	30.439	1452.322	1217.658
-16.692	30.480	1451.158	1216.899
-15.677	30.494	1449.424	1215.490
-14.663	30.409	1449.030	1214.553
-13.648	30.477	1447.855	1213.967
-12.633	30.503	1446.897	1213.283
-11.619	30.526	1445.949	1212.590
-10.604	30.527	1445.382	1212.074
-9.590	30.519	1444.454	1211.195
-8.575	30.375	1444.157	1209.961
-7.560	30.537	1442.451	1209.535
-6.546	30.505	1441.406	1208.407
-5.531	30.341	1441.649	1207.493
-4.517	30.433	1440.372	1206.975
-3.502	30.483	1439.024	1206.123
-2.487	30.508	1437.576	1205.023
-1.473	30.339	1437.356	1203.692
-0.458	30.432	1435.513	1202.705
0.556	29.282	1426.278	1192.154
1.571	26.454	1401.625	1153.440
2.586	23.204	1344.339	1086.286
3.600	21.584	1265.264	1012.935
4.615	20.272	1220.032	969.316
5.629	17.675	1164.456	911.209
6.644	10.901	1082.720	813.396
7.659	5.644	1044.971	759.534
8.673	4.938	1039.726	752.247
9.688	4.835	1036.818	749.580
10.702	4.588	1035.390	747.292
11.717	4.810	1033.408	746.860
12.731	6.876	1034.533	757.523
13.746	13.371	1043.443	795.289
14.761	18.114	1050.082	823.173
15.775	18.509	1048.589	823.824
16.790	17.463	1046.762	817.296
17.804	16.347	1044.819	810.359
18.819	15.412	1043.084	804.458
19.834	15.156	1041.118	801.648
20.848	14.748	1040.341	799.025
21.863	14.482	1039.774	797.247
22.877	14.261	1039.246	795.719
23.892	14.166	1038.004	794.244
24.907	14.047	1037.564	793.270
25.921	14.119	1036.498	792.726
26.936	13.965	1036.220	791.708
27.950	14.174	1034.915	791.637
28.965	14.081	1034.084	790.486
29.980	14.145	1032.640	789.617
30.994	14.320	1031.314	789.363
32.009	14.375	1030.504	788.936
33.023	14.498	1029.635	788.781
34.038	14.281	1029.175	787.332
35.053	14.230	1028.406	786.433
36.067	14.152	1027.343	785.184
37.082	14.199	1026.332	784.563
38.096	14.163	1025.950	784.033
39.111	14.210	1024.810	783.315
40.126	14.307	1023.908	783.012
41.140	14.235	1022.577	781.586
42.155	14.001	1022.160	780.100
43.169	14.045	1020.484	778.956
44.184	13.974	1019.458	777.773
45.199	13.969	1018.536	776.976
46.213	13.983	1017.529	776.205
47.228	13.983	1016.855	775.624
48.242	14.037	1015.973	775.132
49.257	14.142	1014.879	774.720
50.271	14.258	1013.805	774.369
51.286	14.194	1013.235	773.570
52.301	14.102	1012.405	772.441
53.315	14.178	1011.783	772.247
54.330	14.186	1010.777	771.451
55.344	14.042	1010.063	770.172
56.359	13.992	1008.641	768.787
57.374	14.093	1008.008	768.702
58.388	14.107	1006.973	767.912
59.403	13.984	1006.341	766.793
60.417	13.903	1005.783	765.927
61.432	13.967	1004.626	765.274
62.447	13.975	1004.210	764.925
63.461	13.874	1003.506	763.855
64.476	13.982	1001.996	763.133
65.490	13.810	1001.833	762.151
66.505	13.783	1000.793	761.169
67.520	13.966	999.676	761.093
68.534	13.981	998.852	760.468
69.549	13.818	998.736	759.567
70.563	13.862	997.762	758.956
71.578	13.966	996.810	758.641
72.593	13.823	996.078	757.366
73.607	13.847	995.005	756.593
74.622	13.802	994.546	755.969
75.636	13.819	993.110	754.889
76.651	13.858	992.471	754.514
77.666	13.819	991.858	753.806
78.680	13.870	991.143	753.428
79.695	13.898	990.816	753.239
80.709	13.921	990.284	752.872
81.724	13.915	989.345	752.065
82.739	13.969	988.710	751.758
83.753	14.038	987.985	751.451
84.768	14.156	987.405	751.478
85.782	14.197	986.978	751.269
86.797	14.421	985.842	751.350
87.812	14.268	985.202	750.107
88.826	14.261	984.073	749.148
89.841	14.183	983.107	747.995
90.855	14.311	982.624	748.137
91.870	14.159	982.147	747.028
92.884	14.267	981.426	746.898
93.899	14.238	980.809	746.231
94.914	14.465	979.392	746.101
95.928	14.391	978.831	745.277
96.943	14.305	978.163	744.321
97.957	14.189	977.332	743.103
98.972	14.226	976.776	742.780
99.987	14.307	975.826	742.354
101.001	14.339	974.945	741.759
102.016	14.253	974.960	741.323
103.030	14.284	973.664	740.411
104.045	14.367	972.150	739.559
105.060	14.293	971.493	738.669
106.074	14.088	971.058	737.360
107.089	14.043	970.037	736.320
108.103	14.033	969.346	735.687
109.118	13.909	968.344	734.316
110.133	13.940	967.676	733.879
111.147	13.964	966.677	733.163
112.162	13.981	965.917	732.596
113.176	13.978	964.668	731.572
114.191	14.079	963.852	731.334
115.206	14.085	963.155	730.766
116.220	14.229	961.932	730.403
117.235	14.041	961.449	729.149
118.249	14.063	960.500	728.459
119.264	14.082	960.134	728.202
120.279	14.042	959.076	727.158
121.293	14.085	958.070	726.520
122.308	14.055	957.312	725.752
123.322	13.963	956.777	724.882
124.337	13.900	956.014	723.962
125.352	14.032	954.645	723.435
126.366	13.929	953.828	722.306
127.381	14.036	952.426	721.644
128.395	13.980	952.006	721.018
129.410	14.011	950.659	720.069
130.424	13.905	949.944	719.005
131.439	14.036	949.210	718.951
132.454	14.091	948.280	718.424
133.468	14.090	947.552	717.805
134.483	14.085	947.060	717.347
135.497	14.117	946.257	716.813
136.512	13.976	945.856	715.835
137.527	14.046	945.016	715.438
138.541	13.976	944.301	714.534
139.556	14.203	943.048	714.498
140.570	14.132	942.470	713.690
141.585	14.233	942.079	713.766
142.600	14.192	941.032	712.734
143.614	14.243	940.748	712.673
144.629	14.385	939.560	712.320
145.643	14.331	939.285	711.816
146.658	14.457	938.031	711.338
147.673	14.347	937.303	710.256
148.687	14.219	936.438	708.992
149.702	14.246	935.320	708.196
150.716	14.143	934.870	707.355
151.731	14.122	933.744	706.352
152.746	14.208	933.371	706.374
153.760	14.110	932.769	705.440
154.775	14.229	931.693	705.067
155.789	14.288	930.758	704.549
156.804	14.296	930.751	704.512
157.819	14.269	929.573	703.447
158.833	14.354	929.079	703.366
159.848	14.303	928.233	702.448
160.862	14.367	927.999	702.481
161.877	14.474	926.821	701.979
162.892	14.327	925.637	700.400
163.906	14.082	925.512	699.212
164.921	14.137	924.402	698.545
165.935	14.358	922.797	698.195
166.950	14.346	921.708	697.262
167.964	14.337	921.535	697.032
168.979	14.299	920.371	695.930
169.994	14.280	919.228	694.923
171.008	14.265	918.898	694.549
172.023	14.393	918.099	694.419
173.037	14.398	917.213	693.708
174.052	14.464	916.395	693.302
175.067	14.430	915.750	692.612
176.081	14.475	914.947	692.130
177.096	14.315	913.931	690.636
178.110	14.297	913.400	690.100
179.125	14.337	912.447	689.483
180.140	14.477	911.628	689.383
181.154	14.315	910.840	688.058
182.169	14.440	910.600	688.331
183.183	14.501	910.117	688.156
184.198	14.651	909.209	688.028
185.213	14.625	908.634	687.424
186.227	14.565	908.027	686.658
187.242	14.599	907.575	686.396
188.256	14.555	907.055	685.760
189.271	14.618	906.271	685.366
190.286	14.824	905.149	685.301
191.300	14.613	904.681	684.023
192.315	14.391	903.969	682.513
193.329	14.205	903.230	681.136
194.344	14.318	902.417	680.922
195.359	14.383	902.116	680.900
196.373	14.417	901.442	680.470
197.388	14.552	901.126	680.721
198.402	14.773	900.569	681.143
199.417	14.700	900.078	680.415
200.432	14.855	899.547	680.585
201.446	14.917	899.542	680.772
202.461	14.906	898.990	680.250
203.475	14.941	898.514	679.972
204.490	14.956	897.738	679.385
205.504	14.809	896.985	678.160
206.519	14.812	896.313	677.601
207.534	14.714	895.221	676.320
208.548	14.801	894.722	676.235
209.563	14.874	893.606	675.627
210.577	14.842	893.145	675.089
211.592	14.801	892.547	674.412
212.607	14.906	892.300	674.590
213.621	15.038	891.282	674.291
214.636	15.013	890.826	673.785
215.650	14.975	890.019	672.963
216.665	14.924	890.060	672.728
217.680	14.949	889.197	672.117
218.694	15.067	888.838	672.261
219.709	15.288	888.143	672.564
220.723	15.065	887.576	671.181
221.738	15.100	886.695	670.595
222.753	15.120	886.253	670.283
223.767	15.039	885.802	669.555
224.782	15.147	885.035	669.350
225.796	15.258	884.016	668.964
226.811	15.338	883.071	668.506
227.826	15.288	882.469	667.792
228.840	15.160	881.948	666.830
229.855	15.022	881.317	665.744
230.869	15.126	880.459	665.451
231.884	15.141	880.166	665.229
232.899	15.052	879.270	664.141
233.913	15.220	878.778	664.378
234.928	15.075	878.319	663.395
235.942	15.052	877.229	662.424
236.957	15.041	876.426	661.716
237.972	15.132	876.139	661.798
238.986	15.024	875.326	660.702
240.001	15.051	874.719	660.289
241.015	15.143	874.041	660.083
242.030	15.178	873.385	659.666
243.045	15.186	872.835	659.225
244.059	15.197	872.134	658.682
245.074	15.175	871.993	658.428
246.088	15.186	871.252	657.853
247.103	15.282	870.515	657.617
248.117	15.312	869.807	657.143
249.132	15.299	869.841	657.056
250.147	15.537	868.839	657.176
251.161	15.761	867.949	657.316
252.176	15.762	867.789	657.143
253.190	15.746	866.870	656.325
254.205	15.651	866.381	655.526
255.220	15.840	866.141	656.025
256.234	15.690	865.256	654.713
257.249	15.786	864.653	654.573
258.263	15.739	864.350	654.103
259.278	15.879	863.164	653.691
260.293	15.842	862.889	653.280
261.307	15.887	862.230	652.898
262.322	15.957	861.755	652.753
263.336	16.012	861.082	652.396
264.351	15.952	860.663	651.791
265.366	15.924	860.181	651.257
266.380	15.799	859.671	650.333
267.395	15.934	858.601	649.986
268.409	15.815	858.027	649.036
269.424	15.859	857.377	648.655
270.439	15.910	856.728	648.304
271.453	15.992	855.364	647.529
272.468	16.036	854.832	647.239
273.482	15.902	854.331	646.289
274.497	16.018	854.296	646.647
275.512	15.826	853.163	644.999
276.526	15.893	852.706	644.852
277.541	16.011	851.660	644.454
278.555	15.834	851.488	643.590
279.570	16.034	851.052	643.971
280.585	16.015	850.551	643.461
281.599	16.061	850.288	643.379
282.614	16.091	849.192	642.608
283.628	15.919	848.936	641.704
284.643	16.022	847.986	641.321
285.657	15.932	847.743	640.738
286.672	15.903	847.302	640.235
287.687	16.132	846.152	640.179
288.701	16.005	846.326	639.774
289.716	16.053	845.724	639.442
290.730	16.170	844.767	639.108
291.745	16.212	844.130	638.727
292.760	16.118	843.840	638.096
293.774	16.004	843.068	637.022
294.789	16.236	842.630	637.513
295.803	16.174	842.139	636.850
296.818	16.194	841.577	636.445
297.833	16.064	840.846	635.346
298.847	16.121	839.909	634.797
299.862	16.239	839.191	634.643
300.876	16.166	838.786	634.003
301.891	16.274	838.097	633.832
302.906	16.301	837.490	633.421
303.920	16.368	836.711	633.026
304.935	16.495	836.058	632.950
305.949	16.512	835.180	632.294
306.964	16.354	835.210	631.671
307.979	16.414	834.322	631.165
308.993	16.471	833.651	630.817
310.008	16.448	833.449	630.521
311.022	16.439	833.105	630.172
312.037	16.462	832.468	629.721
313.052	16.389	831.725	628.830
314.066	16.320	831.515	628.357
315.081	16.375	830.558	627.783
316.095	16.402	829.794	627.251
317.110	16.474	829.017	626.878
318.125	16.430	829.085	626.709
319.139	16.405	828.366	626.017
320.154	16.390	827.987	625.619
321.168	16.417	827.466	625.271
322.183	16.552	826.738	625.165
323.197	16.443	826.332	624.399
324.212	16.378	825.850	623.742
325.227	16.539	825.257	623.833
326.241	16.525	824.681	623.288
327.256	16.456	824.032	622.490
328.270	16.389	823.631	621.884
329.285	16.561	822.878	621.892
330.300	16.485	822.719	621.440
331.314	16.489	822.000	620.853
332.329	16.521	821.191	620.307
333.343	16.595	820.365	619.899
334.358	16.744	820.278	620.323
335.373	16.688	819.648	619.590
336.387	16.755	819.221	619.455
337.402	16.780	818.985	619.314
338.416	16.718	818.187	618.430
339.431	16.909	817.530	618.574
340.446	16.886	817.250	618.223
341.460	16.772	816.813	617.425
342.475	17.007	816.079	617.669
343.489	17.066	815.332	617.264
344.504	17.043	815.129	616.971
345.519	17.022	814.519	616.380
346.533	17.077	813.950	616.094
347.548	16.995	813.584	615.465
348.562	17.075	812.725	615.051
349.577	17.007	812.367	614.480
350.592	16.888	811.708	613.495
351.606	16.954	811.057	613.189
352.621	16.977	810.654	612.911
353.635	16.898	810.514	612.467
354.650	16.923	810.002	612.116
355.665	17.034	809.465	612.057
356.679	16.930	809.117	611.363
357.694	16.949	808.883	611.199
358.708	16.984	808.265	610.805
359.723	16.993	807.582	610.267
360.738	16.979	807.068	609.774
361.752	17.069	806.940	609.949
362.767	16.939	806.552	609.134
363.781	17.231	805.763	609.532
364.796	17.269	805.503	609.419
365.810	17.261	805.160	609.077
366.825	17.403	804.574	609.088
367.840	17.407	804.434	608.942
368.854	17.554	803.568	608.758
369.869	17.253	803.271	607.401
370.883	17.240	802.710	606.879
371.898	17.336	802.043	606.661
372.913	17.467	801.738	606.844
373.927	17.440	800.869	606.037
374.942	17.387	800.458	605.483
375.956	17.454	799.764	605.143
376.971	17.461	799.397	604.839
377.986	17.455	798.618	604.174
379.000	17.643	798.060	604.364
380.015	17.598	797.657	603.849
381.029	17.633	797.410	603.733
382.044	17.574	796.680	602.916
383.059	17.607	796.239	602.647
384.073	17.541	795.640	601.904
385.088	17.677	795.352	602.114
386.102	17.510	794.582	600.888
387.117	17.518	794.262	600.624
388.132	17.566	793.534	600.187
389.146	17.495	793.116	599.568
390.161	17.546	792.659	599.347
391.175	17.645	792.527	599.545
392.190	17.661	792.248	599.338
393.205	17.761	791.296	598.913
394.219	17.527	791.468	598.169
395.234	17.626	790.789	597.950
396.248	17.641	790.123	597.446
397.263	17.634	789.413	596.834
398.278	17.577	789.018	596.281
399.292	17.468	788.684	595.596
400.307	17.441	788.362	595.206
401.321	17.384	788.353	594.947
402.336	17.503	787.776	594.874
403.350	17.538	787.348	594.621
404.365	17.726	786.636	594.687
405.380	17.777	786.496	594.706
406.394	17.650	786.079	593.893
407.409	17.805	785.467	593.918
408.423	17.806	784.866	593.416
409.438	17.877	784.960	593.683
410.453	17.873	784.312	593.126
411.467	18.049	783.689	593.212
412.482	17.976	783.343	592.646
413.496	17.994	783.103	592.473
414.511	17.953	782.536	591.851
415.526	18.215	781.864	592.198
416.540	18.017	781.942	591.516
417.555	18.076	781.483	591.322
418.569	18.082	780.436	590.498
419.584	18.137	780.129	590.403
420.599	18.070	779.996	590.020
421.613	156.908	1369.647	1795.745
422.628	135.412	1455.562	1795.823
