DTS Sentinel unit serial number:	SN413079Multiplexer serial number:	ORYXHardware model number:	OX4-SRSoftware version number:	ORYX F/W v4.00 Oryx Data Collector v3.7.2.0data status	okinstallation	princeton_trtdifferential loss correction	single-endedforward channel	channel 3reverse channel	N/Adate	2019/09/17time	22:52:35forward acquisition time	60.00reverse acquisition time	0.00gamma	496.2192k internal	0.2344k external	0.2344temperature offset calibration	0.9952default loss term (dB/km)	0.3790temperature slope calibration	1.0000multiplexer offset coefficient	1.0000multiplexer slope coefficient	1.0000fibre end	0.00T internal ref (°C)	24.94T ext. ref 1 (°C)	0.17T ext. ref 2 (°C)	18.05length (m)	temperature (°C)	Stokes	anti-Stokes-747.200	315.032	-0.140	-0.264
-746.185	-158.578	-0.205	0.012
-745.171	38.332	-0.208	0.186
-744.156	-129.670	-0.269	-0.037
-743.142	-98.465	0.063	0.016
-742.127	-200.000	0.016	0.341
-741.112	-200.000	0.047	-0.371
-740.098	64.993	-0.138	0.139
-739.083	61.082	0.249	0.247
-738.069	-189.231	-0.094	-0.001
-737.054	143.589	0.205	-0.274
-736.039	-96.355	-0.217	-0.057
-735.025	702.737	-0.080	0.211
-734.010	76.351	0.100	0.106
-732.996	-200.000	-0.034	0.163
-731.981	-119.502	-0.257	0.045
-730.966	644.521	0.178	-0.454
-729.952	-67.206	-0.262	0.103
-728.937	-152.760	-0.042	0.003
-727.923	451.299	-0.180	-0.397
-726.908	119.386	-0.096	0.119
-725.894	449.506	0.078	0.172
-724.879	55.811	0.279	-0.271
-723.864	800.000	0.080	-0.265
-722.850	-15.152	0.107	0.068
-721.835	734.385	0.100	0.267
-720.821	40.939	-0.042	0.038
-719.806	-200.000	0.015	-0.266
-718.791	-144.208	-0.253	0.024
-717.777	168.337	0.032	-0.045
-716.762	102.077	-0.256	-0.299
-715.748	-200.000	0.034	-0.417
-714.733	-200.000	-0.040	0.256
-713.718	800.000	-0.077	0.220
-712.704	70.897	0.238	-0.246
-711.689	350.099	-0.137	0.271
-710.675	800.000	0.035	0.151
-709.660	-148.976	-0.195	0.016
-708.645	-93.955	-0.276	-0.076
-707.631	84.188	-0.245	-0.267
-706.616	-200.000	-0.004	-0.325
-705.602	-67.784	0.408	0.160
-704.587	542.205	-0.118	0.280
-703.572	524.183	-0.088	0.206
-702.558	-200.000	0.010	-0.247
-701.543	-87.228	-0.292	0.089
-700.529	-200.000	0.013	-0.166
-699.514	800.000	-0.045	0.147
-698.499	-147.044	-0.114	-0.010
-697.485	-117.214	-0.209	-0.038
-696.470	486.246	0.112	-0.254
-695.456	97.799	0.133	-0.153
-694.441	-35.989	0.418	-0.226
-693.426	113.225	-0.117	0.142
-692.412	249.727	0.099	0.167
-691.397	-200.000	0.017	0.147
-690.383	-181.493	-0.268	0.005
-689.368	-17.708	-0.119	0.074
-688.354	800.000	-0.077	-0.262
-687.339	138.842	-0.132	0.173
-686.324	-74.911	0.016	0.006
-685.310	-61.370	0.324	-0.136
-684.295	449.443	-0.149	0.328
-683.281	798.745	0.021	0.057
-682.266	-41.536	-0.117	-0.060
-681.251	-8.636	0.226	-0.152
-680.237	-49.695	-0.229	-0.109
-679.222	-160.037	-0.151	-0.008
-678.208	800.000	-0.098	0.284
-677.193	427.616	-0.179	-0.386
-676.178	-3.571	0.348	-0.242
-675.164	62.341	-0.130	0.130
-674.149	189.151	0.136	-0.204
-673.135	-200.000	0.088	0.386
-672.120	153.612	0.056	-0.077
-671.105	-200.000	0.006	-0.294
-670.091	-108.750	-0.148	-0.032
-669.076	-158.123	-0.313	-0.018
-668.062	-81.794	-0.179	0.058
-667.047	-200.000	0.008	0.118
-666.032	-200.000	-0.016	-0.077
-665.018	-43.225	0.070	0.035
-664.003	429.152	-0.078	0.168
-662.989	-15.345	-0.325	-0.207
-661.974	-72.425	0.134	0.049
-660.959	-0.843	-0.060	0.042
-659.945	5.842	0.122	0.090
-658.930	800.000	-0.059	0.191
-657.916	68.225	-0.140	-0.143
-656.901	7.596	-0.158	-0.118
-655.886	24.623	0.233	-0.193
-654.872	-78.144	-0.352	0.121
-653.857	-19.174	-0.123	0.076
-652.843	-71.704	-0.260	-0.097
-651.828	539.528	-0.104	-0.246
-650.814	188.692	0.054	-0.081
-649.799	-144.652	-0.251	0.023
-648.784	-200.000	-0.008	-0.175
-647.770	800.000	-0.028	-0.103
-646.755	-200.000	0.015	-0.298
-645.741	-87.670	0.125	0.038
-644.726	582.849	-0.084	0.204
-643.711	800.000	-0.103	-0.302
-642.697	32.460	-0.182	-0.157
-641.682	-200.000	0.008	-0.065
-640.668	-55.467	-0.104	-0.047
-639.653	-168.770	-0.458	0.017
-638.638	106.886	-0.097	0.115
-637.624	150.035	-0.107	0.145
-636.609	-90.157	-0.286	0.083
-635.595	232.564	0.067	-0.109
-634.580	146.109	-0.138	0.185
-633.565	-26.828	-0.090	-0.053
-632.551	800.000	-0.057	-0.181
-631.536	-84.298	-0.235	0.074
-630.522	-144.039	-0.026	0.002
-629.507	-180.758	0.359	0.007
-628.492	397.590	-0.014	0.030
-627.478	-42.905	0.255	0.129
-626.463	-83.625	0.161	-0.051
-625.449	-200.000	-0.022	-0.113
-624.434	215.512	-0.171	-0.271
-623.419	-159.401	0.200	-0.011
-622.405	106.485	-0.222	-0.262
-621.390	800.000	0.063	0.242
-620.376	-126.075	-0.207	-0.031
-619.361	146.265	0.287	-0.384
-618.346	2.712	-0.124	-0.090
-617.332	12.888	0.225	-0.173
-616.317	23.619	-0.122	-0.100
-615.303	-200.000	-0.036	-0.289
-614.288	208.572	-0.050	-0.078
-613.273	12.519	-0.092	-0.071
-612.259	18.712	0.337	-0.269
-611.244	-56.755	0.113	0.050
-610.230	-90.042	0.097	-0.028
-609.215	686.883	0.153	-0.398
-608.201	-171.106	-0.487	0.016
-607.186	-28.215	0.277	0.160
-606.171	61.817	0.048	0.047
-605.157	42.476	0.218	0.198
-604.142	-200.000	-0.030	0.369
-603.128	72.703	-0.051	-0.053
-602.113	11.398	0.210	-0.160
-601.098	575.032	0.117	0.283
-600.084	164.525	0.227	-0.318
-599.069	300.642	0.026	-0.048
-598.055	-31.055	-0.232	-0.130
-597.040	-98.216	-0.304	-0.078
-596.025	-183.498	0.116	-0.002
-595.011	25.198	-0.201	-0.166
-593.996	-81.269	0.186	-0.061
-592.982	27.878	-0.154	-0.129
-591.967	4.665	0.185	-0.135
-590.952	132.128	0.247	0.317
-589.938	-75.403	-0.309	0.110
-588.923	-200.000	-0.022	-0.104
-587.909	24.516	0.102	0.084
-586.894	-200.000	0.001	0.014
-585.879	-50.645	-0.237	-0.111
-584.865	8.291	0.220	-0.164
-583.850	-76.694	0.141	0.049
-582.836	-42.929	-0.047	-0.024
-581.821	-129.166	0.273	-0.038
-580.806	-116.974	-0.235	0.043
-579.792	-16.520	-0.187	-0.118
-578.777	133.822	0.089	0.114
-577.763	381.853	-0.064	0.130
-576.748	-106.966	-0.200	-0.044
-575.733	-200.000	-0.019	-0.141
-574.719	100.460	-0.150	-0.174
-573.704	89.377	-0.130	0.144
-572.690	-155.461	0.265	-0.017
-571.675	458.409	0.082	-0.181
-570.661	-200.000	-0.016	-0.192
-569.646	-200.000	-0.056	-0.448
-568.631	-101.369	-0.229	-0.055
-567.617	272.501	-0.203	0.355
-566.602	5.502	-0.106	0.077
-565.588	-49.945	-0.025	-0.012
-564.573	109.126	0.231	-0.274
-563.558	227.343	-0.228	-0.368
-562.544	362.226	0.070	-0.139
-561.529	447.997	-0.147	-0.322
-560.515	-139.283	-0.114	-0.012
-559.500	-200.000	-0.019	-0.144
-558.485	298.673	-0.009	0.016
-557.471	-172.362	-0.270	0.009
-556.456	-200.000	0.025	-0.134
-555.442	-200.000	0.013	0.170
-554.427	-97.752	-0.273	0.070
-553.412	-137.059	-0.203	0.023
-552.398	43.936	0.199	-0.181
-551.383	800.000	0.056	-0.171
-550.369	328.851	0.124	0.237
-549.354	-200.000	-0.011	0.070
-548.339	34.486	-0.110	-0.096
-547.325	-200.000	-0.051	0.348
-546.310	-51.682	-0.167	0.077
-545.296	800.000	-0.050	-0.164
-544.281	800.000	-0.058	-0.178
-543.266	-200.000	0.017	-0.303
-542.252	-200.000	-0.012	-0.101
-541.237	-200.000	-0.014	-0.171
-540.223	171.943	0.201	0.287
-539.208	-200.000	0.019	0.267
-538.193	65.389	-0.110	-0.111
-537.179	69.915	0.219	0.224
-536.164	90.824	0.121	0.135
-535.150	12.747	-0.242	0.186
-534.135	654.612	0.069	-0.175
-533.121	538.833	0.119	0.280
-532.106	-200.000	-0.002	-0.013
-531.091	-21.806	0.221	-0.133
-530.077	800.000	0.091	-0.250
-529.062	-200.000	-0.067	-0.300
-528.048	-200.000	-0.018	0.211
-527.033	-77.696	0.250	0.086
-526.018	275.404	-0.094	-0.165
-525.004	-200.000	0.035	-0.162
-523.989	-43.403	-0.161	-0.081
-522.975	88.035	-0.085	-0.094
-521.960	-16.925	-0.213	0.133
-520.945	-18.897	-0.115	0.071
-519.931	49.689	0.133	-0.124
-518.916	-119.246	0.093	-0.016
-517.902	-81.622	-0.178	0.058
-516.887	739.419	0.067	-0.178
-515.872	-133.547	-0.174	-0.022
-514.858	-95.593	-0.292	-0.078
-513.843	-92.913	-0.239	-0.066
-512.829	-149.360	0.183	-0.014
-511.814	-100.632	-0.272	0.067
-510.799	-129.205	0.231	0.032
-509.785	-200.000	-0.005	0.086
-508.770	386.853	0.214	0.439
-507.756	118.910	0.139	0.170
-506.741	9.322	0.231	0.173
-505.726	94.713	-0.158	-0.178
-504.712	-6.644	-0.133	0.090
-503.697	109.397	0.108	0.128
-502.683	21.826	0.262	-0.212
-501.668	360.781	-0.073	0.145
-500.653	800.000	0.055	-0.151
-499.639	-188.092	-0.150	-0.002
-498.624	-80.088	0.185	-0.061
-497.610	800.000	-0.044	0.173
-496.595	134.629	0.067	0.086
-495.581	54.243	0.178	0.169
-494.566	182.131	0.089	0.130
-493.551	-109.422	0.109	0.023
-492.537	735.047	0.137	0.364
-491.522	-200.000	-0.005	-0.230
-490.508	263.472	0.155	-0.268
-489.493	18.510	-0.070	0.055
-488.478	800.000	0.041	0.148
-487.464	6.980	-0.295	-0.218
-486.449	15.750	0.334	0.260
-485.435	116.111	-0.046	-0.056
-484.420	-25.834	0.162	0.095
-483.405	94.534	0.225	0.254
-482.391	-200.000	0.013	0.201
-481.376	-146.856	-0.305	0.026
-480.362	-44.664	0.197	0.097
-479.347	-0.757	-0.278	0.195
-478.332	79.614	-0.127	-0.135
-477.318	-146.991	0.026	0.002
-476.303	-200.000	-0.024	0.312
-475.289	800.000	0.038	-0.122
-474.274	12.877	0.212	0.162
-473.259	-200.000	-0.025	-0.195
-472.245	-55.524	-0.349	0.155
-471.230	-122.022	-0.085	0.014
-470.216	276.159	-0.081	0.143
-469.201	458.801	0.043	-0.094
-468.186	659.731	-0.150	-0.381
-467.172	-169.141	0.201	-0.007
-466.157	308.469	0.067	0.125
-465.143	-154.299	-0.060	-0.004
-464.128	157.063	-0.153	-0.209
-463.113	331.984	0.190	-0.362
-462.099	-94.985	0.270	-0.072
-461.084	800.000	-0.019	-0.066
-460.070	-50.486	0.349	-0.163
-459.055	496.945	-0.103	-0.235
-458.040	-60.854	-0.101	-0.042
-457.026	482.893	-0.046	0.104
-456.011	-200.000	-0.014	0.155
-454.997	-94.018	-0.118	-0.032
-453.982	-200.000	0.008	-0.179
-452.968	-200.000	-0.046	0.204
-451.953	183.676	0.092	-0.135
-450.938	-112.371	-0.384	-0.076
-449.924	-109.260	-0.123	0.026
-448.909	296.581	0.183	0.333
-447.895	453.317	-0.121	-0.265
-446.880	13.026	0.148	-0.113
-445.865	-14.192	-0.178	0.113
-444.851	-24.990	0.106	0.062
-443.836	-200.000	0.036	-0.205
-442.822	-87.824	-0.154	0.046
-441.807	-114.920	-0.038	0.007
-440.792	-200.000	0.013	-0.324
-439.778	-29.999	0.285	-0.160
-438.763	-124.520	0.089	-0.014
-437.749	-86.619	-0.193	-0.058
-436.734	-137.464	-0.232	0.026
-435.719	22.383	0.233	-0.189
-434.705	-48.975	0.075	-0.035
-433.690	-104.542	-0.201	0.046
-432.676	449.648	0.073	-0.160
-431.661	83.083	-0.107	-0.116
-430.646	800.000	0.089	0.298
-429.632	-134.296	-0.233	-0.028
-428.617	339.880	-0.126	-0.243
-427.603	85.967	0.166	0.181
-426.588	366.156	0.320	0.639
-425.573	-200.000	0.044	0.205
-424.559	149.808	0.195	-0.262
-423.544	-185.885	-0.288	-0.004
-422.530	-91.025	-0.250	0.071
-421.515	65.269	-0.035	0.035
-420.500	-143.193	0.275	0.026
-419.486	-21.744	-0.164	-0.099
-418.471	800.000	0.014	0.046
-417.457	800.000	-0.035	-0.127
-416.442	188.875	0.146	-0.216
-415.428	-42.968	-0.298	0.149
-414.413	254.664	0.191	-0.323
-413.398	800.000	-0.144	0.508
-412.384	-200.000	0.014	-0.309
-411.369	-7.000	0.227	-0.152
-410.355	-26.002	0.094	-0.055
-409.340	473.639	-0.045	0.101
-408.325	-181.633	-0.141	0.003
-407.311	-16.935	-0.124	0.077
-406.296	110.471	0.099	0.118
-405.282	-200.000	0.034	-0.263
-404.267	800.000	0.048	-0.145
-403.252	800.000	0.120	-0.343
-402.238	-200.000	0.015	-0.290
-401.223	-105.130	-0.366	-0.083
-400.209	-63.251	0.233	-0.095
-399.194	96.595	-0.142	-0.160
-398.179	-120.986	0.262	-0.043
-397.165	9.054	-0.162	0.121
-396.150	800.000	-0.045	-0.180
-395.136	-69.715	-0.377	-0.142
-394.121	-200.000	-0.019	0.469
-393.106	256.702	0.131	-0.222
-392.092	800.000	-0.042	0.175
-391.077	-129.310	-0.237	0.033
-390.063	181.914	0.128	-0.186
-389.048	-200.000	0.074	0.350
-388.033	-90.396	0.185	0.053
-387.019	-45.154	0.105	-0.051
-386.004	-200.000	0.009	0.119
-384.990	-24.226	-0.163	0.096
-383.975	800.000	0.049	-0.176
-382.960	-103.430	0.216	0.050
-381.946	23.892	0.082	-0.066
-380.931	156.127	-0.130	-0.176
-379.917	-22.101	0.262	-0.157
-378.902	-49.318	-0.249	0.117
-377.888	-103.438	-0.238	0.055
-376.873	51.299	0.105	-0.098
-375.858	-62.895	0.227	-0.092
-374.844	-116.484	-0.371	0.068
-373.829	-200.000	0.001	-0.217
-372.815	-149.584	-0.353	-0.028
-371.800	90.169	-0.227	-0.250
-370.785	-6.313	-0.205	-0.138
-369.771	650.318	-0.126	0.319
-368.756	-136.162	0.209	-0.024
-367.742	-79.594	-0.186	-0.062
-366.727	331.959	-0.055	-0.104
-365.712	0.149	-0.059	-0.041
-364.698	555.486	0.149	0.353
-363.683	48.132	-0.303	0.280
-362.669	-128.100	-0.180	-0.025
-361.654	102.648	-0.225	0.259
-360.639	50.936	0.182	-0.170
-359.625	-200.000	0.040	-0.330
-358.610	-200.000	-0.020	-0.118
-357.596	15.554	0.259	0.200
-356.581	141.598	0.274	0.358
-355.566	-114.834	-0.128	0.024
-354.552	800.000	0.044	-0.136
-353.537	-68.509	-0.028	-0.011
-352.523	-12.826	-0.131	0.084
-351.508	-118.335	0.066	0.012
-350.493	-128.091	0.257	-0.036
-349.479	425.650	0.093	-0.198
-348.464	-200.000	0.034	-0.360
-347.450	-61.913	0.106	0.044
-346.435	23.835	0.043	0.035
-345.420	-44.657	0.262	0.129
-344.406	-13.410	-0.070	-0.044
-343.391	582.005	-0.110	0.267
-342.377	255.420	0.168	0.284
-341.362	-66.783	-0.115	0.045
-340.348	-160.917	-0.110	0.006
-339.333	-79.504	-0.201	0.067
-338.318	-200.000	0.037	-0.321
-337.304	44.840	0.213	-0.193
-336.289	800.000	0.025	-0.085
-335.275	-200.000	0.016	0.078
-334.260	-28.505	-0.194	-0.110
-333.245	264.604	-0.105	0.180
-332.231	-165.543	0.144	-0.006
-331.216	-200.000	0.006	0.095
-330.202	-70.682	0.158	0.059
-329.187	133.949	0.229	0.292
-328.172	227.416	-0.127	-0.204
-327.158	-41.014	0.172	-0.088
-326.143	68.885	0.043	0.044
-325.129	10.951	-0.101	0.076
-324.114	-32.615	-0.099	0.054
-323.099	800.000	-0.071	0.227
-322.085	23.209	0.144	0.116
-321.070	-200.000	-0.102	0.000
-320.056	-41.055	0.156	-0.079
-319.041	0.700	0.202	0.142
-318.026	-13.812	-0.136	-0.086
-317.012	-73.513	-0.174	0.063
-315.997	-38.429	0.337	0.175
-314.983	131.040	0.134	0.169
-313.968	-102.085	-0.119	0.028
-312.953	-148.905	0.161	0.013
-311.939	48.530	0.163	-0.150
-310.924	-178.157	0.193	0.004
-309.910	785.741	-0.052	0.140
-308.895	250.412	0.113	0.190
-307.880	-200.000	-0.296	-0.000
-306.866	-91.664	-0.250	0.070
-305.851	141.529	0.094	0.123
-304.837	40.644	-0.125	0.111
-303.822	143.344	0.094	-0.123
-302.807	-61.265	-0.223	-0.093
-301.793	-31.365	0.178	-0.099
-300.778	-63.780	0.453	0.182
-299.764	132.046	0.097	-0.122
-298.749	-200.000	0.025	-0.155
-297.735	-171.711	-0.342	0.011
-296.720	511.726	-0.070	0.161
-295.705	-137.555	-0.205	-0.023
-294.691	474.330	-0.020	-0.045
-293.676	-78.192	0.184	0.062
-292.662	-160.910	0.318	-0.016
-291.647	800.000	0.102	0.376
-290.632	-133.677	0.180	-0.022
-289.618	178.666	-0.100	0.144
-288.603	-200.000	0.011	0.373
-287.589	43.333	0.328	0.295
-286.574	205.228	0.201	-0.307
-285.559	800.000	0.078	-0.313
-284.545	137.252	-0.097	0.125
-283.530	-103.824	-0.233	0.054
-282.516	-200.000	-0.002	0.226
-281.501	223.014	-0.037	0.059
-280.486	223.217	-0.136	-0.215
-279.472	-127.971	-0.309	0.044
-278.457	73.976	-0.132	0.136
-277.443	-110.433	-0.400	-0.082
-276.428	335.954	0.098	0.186
-275.413	-38.351	0.168	-0.087
-274.399	800.000	0.083	-0.254
-273.384	-112.462	0.235	0.046
-272.370	36.922	-0.141	0.122
-271.355	-61.884	-0.021	-0.009
-270.340	-54.000	-0.355	0.159
-269.326	-128.295	0.282	-0.040
-268.311	32.518	-0.166	-0.141
-267.297	-106.783	0.181	-0.040
-266.282	278.478	-0.018	0.032
-265.267	17.566	-0.052	-0.040
-264.253	73.986	-0.177	-0.183
-263.238	-104.805	0.342	0.077
-262.224	179.760	-0.173	-0.249
-261.209	231.393	0.207	0.334
-260.195	-200.000	-0.021	0.285
-259.180	291.174	-0.150	0.267
-258.165	249.072	0.022	0.036
-257.151	267.434	0.093	0.159
-256.136	-200.000	-0.022	-0.274
-255.122	89.884	-0.143	0.156
-254.107	42.325	-0.162	0.144
-253.092	-200.000	0.007	0.035
-252.078	20.569	0.376	0.298
-251.063	-97.671	0.141	-0.036
-250.049	36.783	0.113	0.098
-249.034	-43.869	-0.274	0.136
-248.019	-87.223	-0.235	0.070
-247.005	54.924	-0.190	-0.180
-245.990	-200.000	0.002	0.197
-244.976	-152.713	0.454	0.032
-243.961	126.033	0.055	0.069
-242.946	800.000	0.039	0.151
-241.932	-200.000	0.049	-0.236
-240.917	-45.100	0.218	-0.106
-239.903	267.084	-0.034	-0.058
-238.888	-135.762	-0.320	-0.037
-237.873	-200.000	0.022	0.149
-236.859	167.085	0.130	-0.181
-235.844	231.087	-0.222	0.357
-234.830	48.432	0.187	0.172
-233.815	-200.000	-0.017	-0.284
-232.800	-200.000	-0.016	-0.242
-231.786	125.439	0.141	0.175
-230.771	-18.792	-0.126	-0.077
-229.757	-200.000	-0.002	-0.070
-228.742	-42.809	0.106	0.053
-227.727	-139.210	-0.215	-0.023
-226.713	-61.600	-0.049	0.020
-225.698	-113.738	-0.331	-0.063
-224.684	-38.438	0.201	0.104
-223.669	-111.917	0.394	0.078
-222.655	-68.699	0.258	0.098
-221.640	-25.051	0.311	0.181
-220.625	312.353	-0.082	0.151
-219.611	-200.000	-0.015	-0.191
-218.596	-64.342	-0.117	-0.047
-217.582	69.198	-0.266	0.268
-216.567	800.000	0.079	-0.253
-215.552	35.855	0.089	-0.077
-214.538	240.410	-0.041	-0.068
-213.523	-66.274	0.193	0.075
-212.509	217.797	-0.033	0.051
-211.494	750.385	0.128	-0.339
-210.479	-38.055	0.101	-0.053
-209.465	86.945	0.108	0.117
-208.450	336.264	0.221	-0.421
-207.436	-200.000	0.002	0.060
-206.421	-28.701	0.379	0.214
-205.406	198.294	-0.113	-0.169
-204.392	24.451	-0.178	-0.144
-203.377	-200.000	-0.018	-0.162
-202.363	-200.000	-0.054	0.233
-201.348	-200.000	0.034	0.283
-200.333	363.488	-0.232	0.458
-199.319	-17.529	0.135	-0.083
-198.304	-55.525	0.132	-0.058
-197.290	-200.000	-0.074	0.339
-196.275	-121.557	-0.023	-0.004
-195.260	147.085	0.016	-0.021
-194.246	-200.000	0.046	0.364
-193.231	430.276	-0.035	0.073
-192.217	757.886	-0.044	-0.117
-191.202	15.093	0.132	-0.101
-190.187	-9.833	-0.026	0.017
-189.173	-59.618	-0.183	0.077
-188.158	84.009	-0.126	-0.135
-187.144	37.091	0.270	0.234
-186.129	-121.230	0.102	-0.017
-185.114	-26.684	0.081	0.047
-184.100	391.543	-0.187	0.381
-183.085	800.000	-0.092	-0.295
-182.071	-67.548	-0.254	0.098
-181.056	-87.585	0.275	0.081
-180.042	8.248	0.190	0.140
-179.027	300.467	-0.154	-0.278
-178.012	183.847	-0.171	0.248
-176.998	52.897	-0.123	-0.115
-175.983	11.447	0.278	-0.209
-174.969	49.669	-0.116	-0.107
-173.954	139.821	0.208	0.269
-172.939	-144.439	-0.397	-0.036
-171.925	53.371	-0.156	-0.147
-170.910	311.126	-0.105	-0.192
-169.896	-200.000	0.352	-0.001
-168.881	9.508	-0.265	0.197
-167.866	-12.772	0.341	-0.218
-166.852	800.000	0.028	0.096
-165.837	119.170	0.250	0.303
-164.823	-200.000	0.050	0.239
-163.808	788.793	-0.091	0.243
-162.793	-59.056	0.206	-0.087
-161.779	589.250	0.064	0.153
-160.764	318.990	0.084	0.156
-159.750	-200.000	0.048	0.305
-158.735	-51.824	0.222	-0.101
-157.720	55.044	0.080	0.076
-156.706	-200.000	0.011	0.115
-155.691	800.000	0.048	0.201
-154.677	-200.000	-0.033	-0.257
-153.662	110.665	-0.150	-0.176
-152.647	556.110	-0.141	0.332
-151.633	202.948	-0.108	-0.163
-150.618	-80.136	0.413	0.135
-149.604	297.492	0.160	-0.288
-148.589	-39.874	0.207	-0.106
-147.574	-113.351	0.242	0.047
-146.560	-200.000	-0.036	0.245
-145.545	-115.218	0.215	0.040
-144.531	-145.176	0.157	-0.014
-143.516	112.038	0.153	0.181
-142.502	-18.940	-0.252	0.153
-141.487	219.124	0.143	0.223
-140.472	97.301	0.212	-0.238
-139.458	30.616	-0.177	-0.148
-138.443	-46.109	0.301	-0.145
-137.429	-147.291	0.178	0.015
-136.414	800.000	-0.070	0.195
-135.399	-200.000	-0.015	-0.075
-134.385	-41.868	0.336	-0.168
-133.370	65.464	-0.163	-0.161
-132.356	117.213	-0.158	-0.189
-131.341	-172.471	0.194	0.006
-130.326	-138.348	0.233	0.025
-129.312	11.117	0.229	0.171
-128.297	393.895	-0.125	0.255
-127.283	-200.000	0.017	0.316
-126.268	-65.965	-0.112	-0.044
-125.253	328.834	0.097	0.181
-124.239	715.132	-0.113	-0.293
-123.224	295.145	-0.049	-0.087
-122.210	-9.857	-0.141	0.092
-121.195	98.971	-0.092	0.103
-120.180	-156.266	0.337	0.021
-119.166	-0.787	-0.051	0.035
-118.151	-49.669	-0.201	-0.093
-117.137	115.428	0.153	-0.183
-116.122	142.247	-0.108	-0.139
-115.107	-148.065	0.213	-0.017
-114.093	-91.754	-0.113	0.031
-113.078	360.201	0.036	0.070
-112.064	-200.000	-0.005	-0.058
-111.049	209.898	-0.294	0.450
-110.034	-95.460	-0.099	0.026
-109.020	-200.000	0.055	0.415
-108.005	364.552	-0.137	0.270
-106.991	-20.795	-0.394	0.236
-105.976	18.500	-0.118	0.092
-104.962	-200.000	-0.012	0.073
-103.947	-25.379	0.158	0.091
-102.932	449.051	-0.129	-0.277
-101.918	107.508	0.214	0.249
-100.903	-49.042	-0.308	-0.144
-99.889	31.344	0.376	0.315
-98.874	-17.373	0.185	0.114
-97.859	-67.497	-0.139	-0.053
-96.845	101.988	0.261	-0.297
-95.830	-200.000	-0.017	-0.120
-94.816	-51.388	0.227	0.104
-93.801	41.110	0.248	0.218
-92.786	800.000	0.122	-0.334
-91.772	72.398	-0.005	0.005
-90.757	-200.000	0.037	-0.225
-89.743	-66.725	-0.333	0.129
-88.728	-200.000	0.046	0.516
-87.713	-200.000	0.003	-0.274
-86.699	17.567	-0.069	0.053
-85.684	-40.059	0.388	0.197
-84.670	-54.323	-0.337	-0.149
-83.655	243.268	-0.074	0.120
-82.640	-9.341	0.187	0.122
-81.626	-84.843	0.108	0.033
-80.611	800.000	0.043	-0.140
-79.597	85.018	-0.229	0.245
-78.582	-200.000	0.017	0.315
-77.567	-200.000	-0.010	0.224
-76.553	-177.982	0.272	0.006
-75.538	-200.000	-0.092	0.427
-74.524	-200.000	0.039	0.179
-73.509	472.680	0.035	-0.077
-72.494	152.887	0.182	-0.242
-71.480	-3.575	-0.353	0.239
-70.465	800.000	0.035	0.131
-69.451	173.377	-0.180	-0.253
-68.436	28.347	0.128	-0.105
-67.422	-35.152	0.278	-0.147
-66.407	487.359	-0.037	-0.083
-65.392	800.000	0.055	-0.164
-64.378	285.790	0.133	0.234
-63.363	-166.163	-0.093	-0.004
-62.349	507.189	0.105	0.237
-61.334	66.907	-1.179	-1.170
-60.319	61.793	0.734	0.712
-59.305	107.242	-0.909	-1.053
-58.290	800.000	0.278	1.165
-57.276	800.000	0.415	1.552
-56.261	-200.000	120.139	616.736
-55.246	414.214	1531.639	3175.932
-54.232	149.790	2674.653	3531.412
-53.217	96.503	2147.989	2394.653
-52.203	34.945	1676.464	1429.237
-51.188	28.051	1495.322	1228.621
-50.173	26.010	1472.067	1195.948
-49.159	47.726	1541.156	1400.771
-48.144	45.770	1554.436	1399.448
-47.130	28.022	1504.257	1235.571
-46.115	25.165	1488.543	1203.475
-45.100	25.006	1485.130	1199.600
-44.086	24.877	1484.002	1197.781
-43.071	24.834	1481.207	1195.187
-42.057	24.902	1479.255	1194.022
-41.042	25.027	1477.833	1193.656
-40.027	24.935	1477.352	1192.609
-39.013	24.854	1475.791	1190.767
-37.998	24.883	1474.232	1189.648
-36.984	24.877	1472.839	1188.439
-35.969	24.980	1471.251	1187.797
-34.954	24.913	1470.435	1186.644
-33.940	24.946	1468.963	1185.629
-32.925	24.839	1467.579	1183.753
-31.911	24.887	1465.947	1182.708
-30.896	24.934	1465.196	1182.365
-29.881	25.018	1463.692	1181.663
-28.867	25.050	1462.583	1180.932
-27.852	24.966	1460.689	1178.801
-26.838	24.898	1459.832	1177.615
-25.823	24.970	1458.296	1176.804
-24.809	24.952	1456.461	1175.154
-23.794	24.859	1455.552	1173.769
-22.779	24.980	1454.224	1173.441
-21.765	25.035	1452.755	1172.572
-20.750	25.044	1451.816	1171.823
-19.736	24.927	1451.517	1170.773
-18.721	25.025	1449.741	1169.933
-17.706	25.105	1448.364	1169.296
-16.692	24.906	1447.939	1167.611
-15.677	24.960	1447.287	1167.387
-14.663	24.927	1446.444	1166.449
-13.648	24.905	1445.178	1165.237
-12.633	24.873	1443.986	1164.021
-11.619	24.913	1443.473	1163.824
-10.604	24.911	1443.083	1163.449
-9.590	24.900	1442.039	1162.488
-8.575	24.947	1441.048	1161.947
-7.560	24.980	1440.087	1161.343
-6.546	24.966	1438.835	1160.194
-5.531	24.965	1438.306	1159.718
-4.517	24.948	1437.324	1158.771
-3.502	24.891	1436.495	1157.687
-2.487	24.994	1435.487	1157.493
-1.473	24.829	1434.410	1155.516
-0.458	24.841	1433.161	1154.540
0.556	23.171	1423.452	1143.158
1.571	19.852	1398.466	1101.887
2.586	16.172	1337.213	1031.078
3.600	14.541	1255.030	958.262
4.615	13.593	1211.532	919.708
5.629	11.850	1156.402	868.542
6.644	5.905	1076.257	778.841
7.659	1.047	1040.188	729.332
8.673	0.333	1035.007	722.212
9.688	0.173	1031.998	719.287
10.702	0.145	1030.516	718.057
11.717	0.029	1028.947	716.346
12.731	2.147	1029.343	726.644
13.746	8.507	1037.937	763.079
14.761	14.651	1046.166	798.537
15.775	16.799	1047.931	810.094
16.790	16.537	1046.333	807.536
17.804	15.529	1044.495	801.238
18.819	14.682	1042.447	795.565
19.834	14.334	1040.650	792.467
20.848	13.872	1040.308	789.938
21.863	13.665	1039.850	788.537
22.877	13.441	1038.867	786.655
23.892	13.222	1038.165	785.016
24.907	13.158	1036.998	783.760
25.921	13.146	1036.148	782.989
26.936	13.076	1035.859	782.370
27.950	13.316	1035.353	783.057
28.965	13.296	1034.768	782.453
29.980	13.344	1033.438	781.603
30.994	13.425	1032.095	780.898
32.009	13.402	1031.606	780.353
33.023	13.424	1030.999	779.929
34.038	13.403	1030.675	779.514
35.053	13.472	1029.430	778.829
36.067	13.269	1028.710	777.258
37.082	13.291	1028.137	776.864
38.096	13.337	1026.973	776.131
39.111	13.418	1026.184	775.843
40.126	13.468	1025.399	775.417
41.140	13.427	1023.807	773.953
42.155	13.327	1023.022	772.823
43.169	13.189	1022.378	771.626
44.184	13.161	1021.251	770.573
45.199	13.278	1020.019	770.120
46.213	13.200	1019.477	769.281
47.228	13.254	1018.141	768.457
48.242	13.320	1017.173	767.963
49.257	13.299	1016.365	767.191
50.271	13.283	1015.789	766.610
51.286	13.365	1014.070	765.627
52.301	13.402	1013.741	765.480
53.315	13.322	1012.938	764.436
54.330	13.359	1012.260	764.029
55.344	13.230	1011.718	762.955
56.359	13.297	1010.592	762.350
57.374	13.228	1009.764	761.340
58.388	13.356	1008.551	760.947
59.403	13.199	1008.033	759.765
60.417	13.212	1007.788	759.576
61.432	13.165	1006.723	758.489
62.447	13.152	1005.924	757.762
63.461	13.158	1005.036	757.050
64.476	13.181	1004.295	756.531
65.490	13.017	1003.634	755.216
66.505	13.171	1002.278	754.833
67.520	13.235	1001.936	754.802
68.534	13.316	1000.920	754.339
69.549	13.330	1000.103	753.718
70.563	13.258	999.700	753.019
71.578	13.138	999.077	751.938
72.593	13.176	998.196	751.383
73.607	13.156	997.039	750.355
74.622	13.189	996.020	749.670
75.636	13.150	995.321	748.902
76.651	13.141	994.305	748.031
77.666	13.069	994.009	747.416
78.680	13.145	993.321	747.175
79.695	13.192	992.790	746.921
80.709	13.138	992.260	746.212
81.724	13.178	991.227	745.552
82.739	13.315	990.475	745.536
83.753	13.311	989.750	744.907
84.768	13.321	989.011	744.332
85.782	13.573	987.786	744.475
86.797	13.351	987.795	743.418
87.812	13.518	986.487	743.117
88.826	13.390	985.544	741.766
89.841	13.438	984.961	741.479
90.855	13.438	984.116	740.776
91.870	13.488	983.304	740.324
92.884	13.378	982.840	739.417
93.899	13.477	982.203	739.315
94.914	13.510	981.320	738.733
95.928	13.585	980.641	738.491
96.943	13.533	980.105	737.791
97.957	13.516	978.808	736.669
98.972	13.419	978.189	735.710
99.987	13.555	977.185	735.495
101.001	13.438	976.921	734.712
102.016	13.402	976.312	734.026
103.030	13.302	975.300	732.756
104.045	13.330	974.634	732.318
105.060	13.421	973.725	731.972
106.074	13.473	972.128	730.938
107.089	13.456	971.133	730.049
108.103	13.320	970.557	728.952
109.118	13.315	969.768	728.272
110.133	13.305	968.781	727.422
111.147	13.310	968.151	726.905
112.162	13.354	966.958	726.139
113.176	13.243	966.607	725.323
114.191	13.438	965.523	725.302
115.206	13.452	964.505	724.535
116.220	13.425	963.751	723.788
117.235	13.302	963.762	723.191
118.249	13.438	962.202	722.550
119.264	13.345	961.531	721.577
120.279	13.361	960.680	720.948
121.293	13.397	959.632	720.251
122.308	13.442	959.164	720.031
123.322	13.254	958.463	718.626
124.337	13.334	957.510	718.194
125.352	13.313	956.250	717.097
126.366	13.404	955.137	716.590
127.381	13.398	953.925	715.592
128.395	13.273	952.824	714.165
129.410	13.094	952.805	713.315
130.424	13.294	951.428	713.081
131.439	13.425	950.322	712.755
132.454	13.448	949.454	712.138
133.468	13.395	948.641	711.236
134.483	13.331	948.397	710.717
135.497	13.320	947.537	709.963
136.512	13.450	946.711	709.838
137.527	13.407	945.973	709.038
138.541	13.406	945.214	708.401
139.556	13.304	944.751	707.557
140.570	13.564	943.411	707.600
141.585	13.357	943.390	706.637
142.600	13.507	942.431	706.496
143.614	13.620	941.585	706.283
144.629	13.456	941.106	705.163
145.643	13.603	940.593	705.341
146.658	13.658	939.127	704.412
147.673	13.545	938.402	703.326
148.687	13.543	937.470	702.557
149.702	13.463	937.052	701.841
150.716	13.551	935.709	701.147
151.731	13.590	934.895	700.639
152.746	13.633	934.069	700.140
153.760	13.537	933.562	699.294
154.775	13.590	932.876	698.940
155.789	13.583	932.256	698.386
156.804	13.590	931.247	697.598
157.819	13.574	930.557	696.951
158.833	13.629	930.172	696.834
159.848	13.689	929.238	696.322
160.862	13.753	928.673	696.109
161.877	13.696	927.963	695.275
162.892	13.566	927.498	694.318
163.906	13.628	926.342	693.653
164.921	13.605	925.382	692.777
165.935	13.585	924.504	691.974
166.950	13.663	923.184	691.249
167.964	13.706	922.649	690.968
168.979	13.682	921.887	690.237
169.994	13.817	920.248	689.509
171.008	13.708	920.032	688.834
172.023	13.675	918.927	687.808
173.037	13.629	918.299	687.085
174.052	13.726	917.519	686.841
175.067	13.735	917.023	686.446
176.081	13.740	916.287	685.855
177.096	13.702	915.384	684.963
178.110	13.698	914.963	684.574
179.125	13.637	913.873	683.445
180.140	13.661	913.416	683.139
181.154	13.818	912.492	683.037
182.169	13.753	912.203	682.492
183.183	13.919	911.151	682.325
184.198	13.940	910.580	681.926
185.213	13.947	909.971	681.436
186.227	13.956	909.556	681.101
187.242	13.948	909.034	680.617
188.256	13.883	908.530	679.913
189.271	13.949	907.551	679.391
190.286	13.924	906.984	678.805
191.300	13.891	905.773	677.703
192.315	13.833	905.146	676.939
193.329	13.875	904.730	676.739
194.344	13.890	903.985	676.184
195.359	13.752	903.571	675.252
196.373	13.918	903.071	675.492
197.388	13.888	902.713	675.044
198.402	13.904	902.082	674.578
199.417	14.166	901.561	675.193
200.432	14.128	901.368	674.832
201.446	14.163	900.606	674.345
202.461	14.213	900.130	674.133
203.475	14.326	899.539	674.087
204.490	14.233	898.738	673.052
205.504	14.172	898.140	672.297
206.519	14.141	897.557	671.677
207.534	14.233	896.672	671.325
208.548	14.182	895.648	670.295
209.563	14.142	894.980	669.572
210.577	14.244	894.423	669.508
211.592	14.288	893.323	668.803
212.607	14.234	893.029	668.304
213.621	14.306	893.143	668.620
214.636	14.368	892.179	668.090
215.650	14.300	891.400	667.175
216.665	14.397	890.961	667.176
217.680	14.327	890.660	666.608
218.694	14.504	889.245	666.198
219.709	14.384	889.566	665.903
220.723	14.467	888.471	665.354
221.738	14.475	887.709	664.755
222.753	14.499	886.801	664.114
223.767	14.449	886.122	663.346
224.782	14.432	885.352	662.644
225.796	14.520	885.075	662.726
226.811	14.464	884.184	661.781
227.826	14.510	883.172	661.148
228.840	14.394	882.979	660.484
229.855	14.576	882.227	660.581
230.869	14.497	881.455	659.633
231.884	14.479	881.061	659.211
232.899	14.508	880.391	658.765
233.913	14.582	879.706	658.485
234.928	14.462	878.934	657.375
235.942	14.644	878.168	657.463
236.957	14.548	877.119	656.241
237.972	14.540	876.586	655.753
238.986	14.547	876.059	655.328
240.001	14.609	875.514	655.107
241.015	14.554	874.867	654.347
242.030	14.720	874.046	654.326
243.045	14.707	873.458	653.779
244.059	14.677	872.836	653.136
245.074	14.741	872.354	652.968
246.088	14.727	871.631	652.314
247.103	14.700	871.650	652.165
248.117	14.709	870.712	651.442
249.132	14.816	869.714	651.054
250.147	14.787	869.694	650.869
251.161	14.998	868.703	650.889
252.176	14.852	868.239	649.919
253.190	14.940	867.497	649.647
254.205	15.091	866.848	649.689
255.220	14.939	866.220	648.572
256.234	15.015	865.579	648.330
257.249	15.028	864.758	647.705
258.263	15.051	864.619	647.633
259.278	15.117	863.736	647.170
260.293	15.138	863.415	646.955
261.307	15.092	863.001	646.407
262.322	15.086	861.961	645.550
263.336	15.112	861.758	645.442
264.351	15.154	860.708	644.758
265.366	15.158	860.558	644.606
266.380	15.258	859.311	643.995
267.395	15.406	858.538	643.931
268.409	15.276	858.206	643.123
269.424	15.270	857.654	642.630
270.439	15.205	856.934	641.787
271.453	15.202	856.412	641.327
272.468	15.306	855.352	640.876
273.482	15.204	854.909	640.096
274.497	15.275	854.743	640.186
275.512	15.216	853.705	639.128
276.526	15.277	852.774	638.606
277.541	15.316	852.487	638.483
278.555	15.354	851.776	638.037
279.570	15.284	851.130	637.232
280.585	15.360	850.574	637.046
281.599	15.411	850.041	636.785
282.614	15.565	849.441	636.865
283.628	15.647	848.649	636.523
284.643	15.334	848.505	635.173
285.657	15.534	847.752	635.313
286.672	15.510	847.407	634.907
287.687	15.503	846.857	634.411
288.701	15.461	846.404	633.857
289.716	15.553	845.485	633.458
290.730	15.632	844.977	633.322
291.745	15.521	844.605	632.569
292.760	15.630	843.919	632.409
293.774	15.488	843.669	631.632
294.789	15.511	842.860	631.057
295.803	15.573	842.247	630.775
296.818	15.636	841.609	630.476
297.833	15.521	840.894	629.452
298.847	15.727	839.623	629.217
299.862	15.723	839.241	628.861
300.876	15.804	838.856	628.820
301.891	15.779	838.087	628.093
302.906	15.764	837.926	627.863
303.920	15.757	836.805	626.939
304.935	15.892	836.046	626.819
305.949	15.861	836.019	626.629
306.964	15.802	835.512	625.971
307.979	15.866	834.928	625.718
308.993	15.921	833.966	625.144
310.008	15.871	833.796	624.777
311.022	15.838	833.206	624.156
312.037	15.747	832.711	623.395
313.052	16.019	831.971	623.790
314.066	15.826	831.802	622.895
315.081	15.887	830.830	622.337
316.095	15.984	830.141	622.124
317.110	15.955	829.377	621.390
318.125	15.758	829.132	620.427
319.139	15.901	828.550	620.460
320.154	15.943	828.232	620.322
321.168	16.031	827.672	620.172
322.183	16.032	827.391	619.913
323.197	16.030	827.112	619.642
324.212	16.053	826.161	618.959
325.227	15.889	825.737	617.983
326.241	15.938	825.316	617.794
327.256	16.204	824.393	618.023
328.270	16.042	824.262	617.276
329.285	16.017	823.501	616.561
330.300	16.103	822.921	616.385
331.314	16.088	822.232	615.761
332.329	16.091	821.893	615.464
333.343	16.074	820.950	614.641
334.358	16.110	820.453	614.346
335.373	16.141	820.218	614.229
336.387	16.212	819.753	614.084
337.402	16.202	819.252	613.618
338.416	16.245	818.572	613.211
339.431	16.180	818.116	612.579
340.446	16.399	817.402	612.783
341.460	16.307	816.929	612.041
342.475	16.457	816.131	611.933
343.489	16.287	815.750	610.977
344.504	16.402	815.220	610.942
345.519	16.358	814.960	610.535
346.533	16.482	814.455	610.551
347.548	16.450	813.896	609.961
348.562	16.536	813.319	609.783
349.577	16.495	812.691	609.114
350.592	16.468	812.364	608.718
351.606	16.387	811.842	607.978
352.621	16.435	811.247	607.652
353.635	16.483	810.710	607.369
354.650	16.550	810.278	607.233
355.665	16.373	810.277	606.542
356.679	16.458	809.747	606.395
357.694	16.669	808.875	606.446
358.708	16.622	808.244	605.750
359.723	16.656	807.624	605.354
360.738	16.369	807.670	604.310
361.752	16.530	807.314	604.564
362.767	16.472	806.695	603.841
363.781	16.640	806.272	604.068
364.796	16.603	805.737	603.482
365.810	16.818	805.156	603.764
366.825	16.662	804.891	602.955
367.840	16.710	804.754	602.968
368.854	16.707	804.237	602.518
369.869	16.765	803.698	602.267
370.883	16.748	803.267	601.829
371.898	16.901	802.370	601.648
372.913	16.786	801.772	600.738
373.927	16.748	801.542	600.377
374.942	16.897	800.976	600.428
375.956	16.928	799.906	599.683
376.971	16.839	799.855	599.277
377.986	16.996	799.088	599.203
379.000	17.082	798.341	598.896
380.015	17.082	797.915	598.523
381.029	17.018	797.408	597.862
382.044	16.882	796.979	597.008
383.059	17.056	796.385	597.126
384.073	16.964	795.918	596.396
385.088	16.937	795.536	595.962
386.102	17.053	795.031	595.940
387.117	17.028	794.385	595.316
388.132	16.923	793.976	594.589
389.146	17.005	793.623	594.559
390.161	16.949	792.920	593.783
391.175	17.062	792.957	594.155
392.190	17.215	792.320	594.160
393.205	17.269	791.880	593.966
394.219	17.190	791.368	593.253
395.234	17.211	791.144	593.104
396.248	17.118	790.711	592.404
397.263	17.133	790.033	591.897
398.278	17.022	789.640	591.163
399.292	17.069	789.058	590.839
400.307	17.093	788.887	590.740
401.321	17.146	788.308	590.440
402.336	17.237	787.905	590.403
403.350	17.009	787.868	589.528
404.365	17.168	787.476	589.737
405.380	17.137	787.334	589.469
406.394	17.296	786.220	589.136
407.409	17.384	785.961	589.194
408.423	17.390	785.233	588.617
409.438	17.356	784.953	588.238
410.453	17.403	784.684	588.146
411.467	17.413	784.122	587.708
412.482	17.436	783.692	587.412
413.496	17.550	783.090	587.302
414.511	17.610	782.974	587.369
415.526	17.599	782.584	586.987
416.540	17.681	782.219	586.944
417.555	17.678	781.739	586.520
418.569	17.519	781.158	585.488
419.584	17.469	780.978	585.128
420.599	17.686	780.135	585.192
421.613	113.713	1295.977	1484.611
422.628	97.475	1371.090	1484.694
