DTS Sentinel unit serial number:	SN413079Multiplexer serial number:	ORYXHardware model number:	OX4-SRSoftware version number:	ORYX F/W v4.00 Oryx Data Collector v3.7.2.0data status	okinstallation	princeton_trtdifferential loss correction	single-endedforward channel	channel 3reverse channel	N/Adate	2019/09/18time	20:16:35forward acquisition time	60.00reverse acquisition time	0.00gamma	496.2192k internal	0.2334k external	0.2334temperature offset calibration	1.0004default loss term (dB/km)	0.3790temperature slope calibration	1.0000multiplexer offset coefficient	1.0000multiplexer slope coefficient	1.0000fibre end	0.00T internal ref (°C)	29.19T ext. ref 1 (°C)	0.93T ext. ref 2 (°C)	19.85length (m)	temperature (°C)	Stokes	anti-Stokes-747.200	-59.251	0.204	-0.088
-746.185	-103.704	-0.306	0.072
-745.171	-134.652	-0.247	-0.030
-744.156	-104.108	-0.330	0.077
-743.142	-171.476	0.288	-0.010
-742.127	-200.000	-0.009	0.191
-741.112	-186.594	-0.074	0.001
-740.098	-81.476	0.341	-0.113
-739.083	-200.000	0.015	0.208
-738.069	800.000	-0.086	0.247
-737.054	285.381	-0.015	0.028
-736.039	3.891	-0.213	-0.156
-735.025	-109.891	0.181	0.038
-734.010	-200.000	0.007	0.033
-732.996	-60.191	-0.154	-0.066
-731.981	-200.000	0.026	-0.223
-730.966	38.406	-0.082	0.073
-729.952	-59.895	-0.156	-0.067
-728.937	-11.292	0.270	0.179
-727.923	-14.214	0.314	0.204
-726.908	271.912	0.137	0.244
-725.894	72.323	0.248	-0.260
-724.879	40.612	0.094	-0.085
-723.864	-119.331	-0.257	0.045
-722.850	-200.000	0.007	0.081
-721.835	144.642	0.119	0.160
-720.821	-21.995	0.129	0.078
-719.806	-77.120	-0.220	0.077
-718.791	-57.623	-0.434	-0.191
-717.777	-47.139	-0.213	-0.104
-716.762	370.251	0.049	-0.101
-715.748	-106.057	-0.396	-0.089
-714.733	-70.391	0.276	0.105
-713.718	-63.070	0.176	0.073
-712.704	-200.000	0.001	-0.059
-711.689	491.279	-0.055	0.126
-710.675	-200.000	-0.010	-0.100
-709.660	-200.000	-0.051	-0.356
-708.645	-55.544	-0.056	-0.025
-707.631	-200.000	0.014	0.139
-706.616	-200.000	0.018	-0.178
-705.602	280.643	0.141	-0.252
-704.587	-149.983	-0.178	0.014
-703.572	100.450	0.138	-0.160
-702.558	22.724	0.114	-0.094
-701.543	-42.831	-0.202	0.103
-700.529	-82.713	0.402	0.131
-699.514	-31.494	-0.043	0.024
-698.499	800.000	-0.086	0.269
-697.485	-29.659	-0.118	0.068
-696.470	318.986	-0.047	-0.089
-695.456	-200.000	-0.016	0.266
-694.441	14.941	0.285	-0.224
-693.426	64.879	-0.080	-0.081
-692.412	-64.203	0.147	0.060
-691.397	-64.786	-0.094	0.038
-690.383	60.426	-0.123	0.122
-689.368	-83.198	-0.054	-0.017
-688.354	-134.063	0.160	-0.020
-687.339	-60.748	-0.278	0.118
-686.324	-200.000	-0.054	0.337
-685.310	593.833	-0.071	0.175
-684.295	-104.698	0.091	-0.021
-683.281	568.779	-0.057	-0.139
-682.266	-51.790	-0.021	-0.010
-681.251	-84.404	-0.295	0.094
-680.237	57.318	-0.246	-0.241
-679.222	-200.000	-0.016	-0.115
-678.208	-182.925	0.307	0.006
-677.193	-112.120	-0.189	-0.038
-676.178	92.966	-0.053	0.060
-675.164	-139.107	0.473	0.051
-674.149	-178.244	0.522	-0.012
-673.135	90.666	0.163	-0.183
-672.120	-139.175	-0.480	-0.052
-671.105	800.000	-0.052	-0.148
-670.091	-92.881	-0.350	-0.098
-669.076	218.720	0.279	0.447
-668.062	196.793	0.120	0.183
-667.047	340.973	-0.118	-0.231
-666.032	152.718	-0.101	-0.138
-665.018	800.000	-0.062	0.251
-664.003	-81.929	0.281	-0.092
-662.989	53.136	0.202	0.193
-661.974	40.663	-0.125	0.113
-660.959	-123.933	0.213	-0.034
-659.945	-169.465	-0.165	-0.006
-658.930	21.770	-0.069	0.056
-657.916	71.288	0.161	-0.167
-656.901	-87.158	0.159	-0.049
-655.886	800.000	0.079	0.220
-654.872	-60.074	0.041	-0.018
-653.857	85.925	-0.137	0.151
-652.843	-66.456	0.081	-0.032
-651.828	-200.000	-0.001	0.150
-650.814	73.894	0.183	-0.192
-649.799	-131.922	-0.120	0.016
-648.784	276.815	0.056	0.099
-647.770	36.554	0.255	-0.225
-646.755	-200.000	0.010	0.244
-645.741	-200.000	-0.059	0.314
-644.726	-22.985	0.185	-0.112
-643.711	13.693	-0.188	-0.146
-642.697	18.339	0.198	-0.158
-641.682	37.925	-0.121	-0.108
-640.668	-148.051	0.258	-0.021
-639.653	-101.406	-0.329	-0.080
-638.638	-200.000	0.054	0.327
-637.624	775.790	-0.098	0.267
-636.609	12.041	0.320	-0.247
-635.595	-200.000	0.022	0.207
-634.580	-119.916	-0.402	-0.069
-633.565	-20.714	-0.432	0.266
-632.551	-164.737	-0.185	0.008
-631.536	-80.016	-0.168	-0.056
-630.522	490.401	-0.159	-0.365
-629.507	-109.043	-0.163	-0.035
-628.492	-72.926	0.016	-0.006
-627.478	-79.750	-0.331	-0.111
-626.463	-16.933	0.170	-0.108
-625.449	414.465	0.156	-0.333
-624.434	-137.731	0.180	0.020
-623.419	-13.003	0.090	-0.058
-622.405	12.529	-0.096	0.074
-621.390	-200.000	-0.016	-0.220
-620.376	134.255	0.155	-0.201
-619.361	-65.632	0.138	0.055
-618.346	-198.220	-0.142	-0.001
-617.332	800.000	0.076	-0.316
-616.317	77.517	0.196	-0.208
-615.303	149.058	-0.075	0.101
-614.288	-123.044	0.111	-0.018
-613.273	189.836	0.258	0.387
-612.259	-90.397	-0.183	0.053
-611.244	-2.381	0.208	0.146
-610.230	20.517	-0.370	0.299
-609.215	-109.230	0.476	0.101
-608.201	39.135	-0.153	0.137
-607.186	130.630	-0.148	0.190
-606.171	11.062	-0.212	0.162
-605.157	440.537	-0.052	0.114
-604.142	-15.938	0.117	-0.075
-603.128	290.203	-0.076	0.138
-602.113	-8.770	-0.058	-0.039
-601.098	800.000	-0.088	-0.363
-600.084	99.865	0.075	0.087
-599.069	91.350	-0.157	-0.176
-598.055	800.000	-0.068	-0.209
-597.040	-95.148	-0.256	0.069
-596.025	-160.397	-0.647	0.035
-595.011	-200.000	0.016	0.249
-593.996	-200.000	-0.044	-0.192
-592.982	-157.566	0.161	-0.010
-591.967	-114.536	0.170	-0.033
-590.952	311.494	-0.142	0.266
-589.938	106.363	0.097	0.114
-588.923	-134.653	0.248	-0.030
-587.909	313.342	-0.030	-0.057
-586.894	-102.850	-0.285	0.068
-585.879	800.000	0.055	-0.173
-584.865	-70.953	0.162	-0.061
-583.850	32.612	-0.166	0.143
-582.836	93.908	0.056	0.063
-581.821	158.549	-0.052	0.073
-580.806	273.259	0.203	0.359
-579.792	109.709	-0.082	-0.098
-578.777	-200.000	0.047	0.267
-577.763	-146.520	0.255	0.022
-576.748	237.248	-0.177	0.294
-575.733	-116.688	-0.151	-0.028
-574.719	-80.353	-0.249	0.083
-573.704	-67.252	0.185	-0.073
-572.690	-164.209	-0.210	0.010
-571.675	-200.000	-0.005	-0.047
-570.661	800.000	0.045	-0.140
-569.646	-132.877	-0.112	0.014
-568.631	-200.000	-0.003	-0.127
-567.617	21.272	0.118	-0.096
-566.602	328.092	-0.041	-0.078
-565.588	-49.797	-0.339	-0.161
-564.573	-24.453	0.276	0.164
-563.558	-26.705	0.174	0.102
-562.544	-86.329	-0.337	0.103
-561.529	445.112	0.072	-0.157
-560.515	600.455	0.047	-0.117
-559.500	-200.000	0.028	0.263
-558.485	-10.525	0.121	0.080
-557.471	-35.760	-0.316	-0.171
-556.456	-200.000	-0.037	-0.395
-555.442	800.000	0.102	-0.359
-554.427	-200.000	-0.036	0.335
-553.412	-102.039	-0.138	0.033
-552.398	-144.409	-0.153	-0.014
-551.383	36.728	-0.269	-0.237
-550.369	92.695	0.198	0.222
-549.354	-62.597	0.230	-0.095
-548.339	256.583	0.103	0.176
-547.325	-200.000	-0.073	-0.384
-546.310	-115.911	0.279	-0.052
-545.296	288.377	-0.105	-0.189
-544.281	-200.000	0.029	-0.198
-543.266	-30.542	-0.171	0.096
-542.252	-200.000	0.010	-0.085
-541.237	116.354	0.234	-0.286
-540.223	-137.014	-0.230	0.026
-539.208	-200.000	-0.109	0.477
-538.193	117.663	0.048	-0.059
-537.179	277.198	-0.069	0.123
-536.164	-16.256	-0.040	0.026
-535.150	325.449	-0.212	-0.404
-534.135	-104.040	0.418	0.097
-533.121	-45.648	-0.141	0.070
-532.106	-131.976	-0.176	-0.023
-531.091	-102.844	-0.385	0.091
-530.077	422.525	-0.139	0.297
-529.062	274.724	0.174	0.308
-528.048	800.000	-0.153	0.627
-527.033	182.357	-0.194	0.285
-526.018	213.530	-0.043	-0.068
-525.004	14.705	-0.271	-0.211
-523.989	789.498	-0.155	-0.425
-522.975	-200.000	0.026	-0.133
-521.960	-200.000	0.013	0.240
-520.945	-163.909	-0.126	0.006
-519.931	-200.000	0.003	-0.090
-518.916	418.980	0.162	0.345
-517.902	413.127	0.024	-0.052
-516.887	102.469	0.090	-0.105
-515.872	800.000	0.060	-0.232
-514.858	-99.413	0.163	0.041
-513.843	-200.000	0.033	-0.152
-512.829	173.656	0.230	-0.330
-511.814	284.524	0.121	-0.216
-510.799	671.637	-0.097	-0.251
-509.785	-40.451	0.260	0.135
-508.770	-45.382	0.206	0.102
-507.756	800.000	0.090	-0.264
-506.741	-94.671	0.214	0.058
-505.726	107.511	0.188	-0.223
-504.712	188.299	-0.147	0.219
-503.697	800.000	-0.076	-0.294
-502.683	135.947	0.104	-0.135
-501.668	-73.739	-0.134	0.049
-500.653	-44.863	0.173	0.086
-499.639	264.682	-0.060	-0.104
-498.624	32.430	0.065	-0.056
-497.610	18.193	0.089	0.071
-496.595	115.389	0.204	0.248
-495.581	-89.021	0.225	0.066
-494.566	-200.000	-0.063	0.341
-493.551	444.193	0.118	0.259
-492.537	201.157	-0.155	-0.237
-491.522	-69.158	0.117	-0.045
-490.508	-11.677	0.113	0.074
-489.493	-56.512	0.018	0.008
-488.478	800.000	-0.060	-0.183
-487.464	800.000	0.043	-0.160
-486.449	12.103	-0.251	0.193
-485.435	-200.000	-0.037	-0.266
-484.420	-52.564	-0.049	0.023
-483.405	800.000	-0.037	-0.108
-482.391	674.866	-0.045	-0.117
-481.376	-95.618	0.098	0.026
-480.362	-130.099	0.374	-0.051
-479.347	-200.000	-0.034	0.325
-478.332	-121.965	-0.448	0.073
-477.318	211.071	0.071	-0.110
-476.303	77.927	-0.139	0.147
-475.289	800.000	-0.088	-0.243
-474.274	62.015	0.210	-0.208
-473.259	-11.564	0.211	-0.138
-472.245	-73.577	-0.248	-0.090
-471.230	-3.496	0.227	-0.157
-470.216	31.253	0.120	0.102
-469.201	119.638	-0.164	0.203
-468.186	158.936	-0.109	0.151
-467.172	-79.762	-0.313	-0.105
-466.157	-17.788	0.187	0.116
-465.143	-33.558	0.114	-0.063
-464.128	-82.024	-0.333	0.108
-463.113	190.292	-0.188	-0.281
-462.099	781.960	0.124	-0.338
-461.084	-149.839	-0.307	0.024
-460.070	-200.000	0.004	0.174
-459.055	-91.807	-0.241	-0.068
-458.040	-155.548	0.251	0.016
-457.026	82.961	0.166	0.180
-456.011	800.000	-0.032	-0.091
-454.997	-56.694	-0.188	0.083
-453.982	241.929	0.083	-0.139
-452.968	-8.664	0.020	0.014
-451.953	-200.000	0.003	0.111
-450.938	800.000	0.071	0.274
-449.924	800.000	0.043	0.136
-448.909	800.000	0.009	0.027
-447.895	-200.000	0.003	-0.043
-446.880	-181.705	0.063	0.001
-445.865	119.341	-0.084	-0.103
-444.851	800.000	0.060	0.212
-443.836	168.742	0.127	0.180
-442.822	-101.862	-0.427	0.103
-441.807	414.801	-0.032	-0.068
-440.792	-47.372	0.292	-0.141
-439.778	800.000	-0.092	-0.378
-438.763	83.983	-0.181	0.196
-437.749	-94.020	-0.157	0.043
-436.734	16.848	0.245	-0.193
-435.719	-35.260	-0.088	0.048
-434.705	-133.517	-0.151	0.019
-433.690	-116.225	0.234	0.043
-432.676	105.555	-0.016	0.019
-431.661	-200.000	0.003	-0.044
-430.646	-19.702	0.340	-0.209
-429.632	-200.000	-0.016	-0.211
-428.617	800.000	0.122	0.359
-427.603	-200.000	0.009	0.190
-426.588	-107.778	-0.366	-0.079
-425.573	1.862	-0.272	-0.195
-424.559	363.699	0.190	-0.380
-423.544	-200.000	-0.022	-0.137
-422.530	-68.109	-0.084	-0.032
-421.515	142.201	-0.079	-0.103
-420.500	-200.000	0.013	0.116
-419.486	434.804	-0.081	-0.175
-418.471	-5.289	-0.220	0.150
-417.457	-200.000	0.033	0.336
-416.442	232.071	0.114	-0.186
-415.428	-97.707	-0.147	0.038
-414.413	-161.983	0.165	-0.008
-413.398	315.721	-0.137	0.256
-412.384	-200.000	-0.001	-0.035
-411.369	-37.328	0.509	0.270
-410.355	-168.820	0.314	0.012
-409.340	800.000	-0.084	0.288
-408.325	-23.638	-0.327	0.194
-407.311	-152.544	0.106	-0.008
-406.296	800.000	0.027	-0.091
-405.282	70.135	-0.206	0.211
-404.267	800.000	0.037	0.119
-403.252	800.000	0.079	0.241
-402.238	-200.000	0.024	0.236
-401.223	-200.000	-0.023	0.099
-400.209	-186.031	-0.263	-0.004
-399.194	-138.298	-0.281	0.031
-398.179	-113.328	0.097	-0.019
-397.165	-200.000	0.037	-0.205
-396.150	541.010	-0.062	-0.147
-395.136	186.394	0.145	0.214
-394.121	200.160	0.040	-0.061
-393.106	82.166	-0.157	0.169
-392.092	-69.929	0.200	-0.075
-391.077	192.530	0.260	0.390
-390.063	368.691	0.167	0.335
-389.048	-111.198	-0.374	-0.076
-388.033	800.000	0.063	-0.221
-387.019	-196.178	0.228	-0.002
-386.004	51.468	0.291	0.274
-384.990	45.346	0.255	0.233
-383.975	503.789	0.051	-0.117
-382.960	382.037	-0.070	-0.143
-381.946	18.903	-0.155	0.123
-380.931	-163.230	-0.251	-0.012
-379.917	-200.000	0.003	-0.204
-378.902	62.044	0.184	-0.182
-377.888	195.361	-0.223	-0.335
-376.873	-200.000	0.018	-0.093
-375.858	-89.912	-0.567	-0.164
-374.844	-200.000	-0.046	-0.384
-373.829	800.000	0.040	-0.121
-372.815	43.113	-0.116	0.105
-371.800	460.825	-0.051	-0.112
-370.785	527.023	0.042	-0.098
-369.771	-71.011	0.230	-0.086
-368.756	-109.336	0.140	-0.029
-367.742	78.109	0.057	0.061
-366.727	-77.520	-0.455	0.156
-365.712	4.105	0.162	0.117
-364.698	-140.947	0.292	0.030
-363.683	-200.000	-0.011	0.103
-362.669	43.687	0.267	-0.242
-361.654	-122.949	0.244	-0.039
-360.639	198.075	0.234	0.354
-359.625	-42.856	-0.287	-0.144
-358.610	432.689	0.151	-0.324
-357.596	-200.000	0.048	-0.289
-356.581	-88.606	0.233	-0.069
-355.566	-200.000	0.017	0.089
-354.552	-114.226	0.158	0.030
-353.537	-41.731	-0.251	-0.127
-352.523	-109.337	0.114	-0.024
-351.508	-114.797	-0.141	-0.027
-350.493	800.000	0.083	-0.239
-349.479	-33.667	0.192	-0.105
-348.464	-200.000	-0.035	-0.164
-347.450	75.616	0.202	-0.211
-346.435	-171.561	-0.400	0.013
-345.420	216.684	-0.054	-0.085
-344.406	-19.343	0.328	0.201
-343.391	-200.000	0.069	-0.306
-342.377	-70.342	-0.261	-0.098
-341.362	344.948	0.138	0.268
-340.348	-143.087	-0.297	0.028
-339.333	-93.672	0.042	0.012
-338.318	-15.298	0.144	0.091
-337.304	198.302	0.186	-0.282
-336.289	-31.086	-0.337	0.188
-335.275	-200.000	0.036	-0.197
-334.260	800.000	-0.076	-0.276
-333.245	-64.733	-0.129	-0.052
-332.231	-148.295	0.474	-0.039
-331.216	14.322	-0.048	0.037
-330.202	-40.435	0.174	0.089
-329.187	187.695	-0.161	-0.238
-328.172	48.943	-0.060	-0.056
-327.158	-39.928	0.225	0.116
-326.143	497.964	0.126	0.286
-325.129	-160.645	-0.425	-0.022
-324.114	-194.142	-0.011	0.000
-323.099	-200.000	0.033	0.216
-322.085	-48.003	-0.216	-0.103
-321.070	-200.000	-0.058	-0.476
-320.056	-18.649	-0.011	0.007
-319.041	800.000	-0.070	0.241
-318.026	-94.029	0.245	0.066
-317.012	800.000	0.025	-0.099
-315.997	-35.993	0.154	0.082
-314.983	-200.000	-0.051	-0.500
-313.968	-76.182	-0.141	-0.049
-312.953	352.036	-0.091	0.179
-311.939	-200.000	0.024	-0.257
-310.924	800.000	0.103	-0.282
-309.910	-112.978	0.133	0.026
-308.895	800.000	-0.019	0.060
-307.880	343.818	-0.118	0.229
-306.866	-200.000	0.013	0.123
-305.851	-25.423	0.252	-0.147
-304.837	470.748	0.077	0.170
-303.822	-60.351	0.251	-0.106
-302.807	195.097	0.065	-0.098
-301.793	800.000	0.053	-0.184
-300.778	11.643	0.148	0.112
-299.764	-200.000	0.019	-0.213
-298.749	-49.547	-0.212	-0.100
-297.735	-200.000	0.033	-0.272
-296.720	-36.570	-0.241	-0.128
-295.705	-200.000	-0.063	-0.333
-294.691	800.000	-0.131	-0.431
-293.676	-18.099	-0.228	0.141
-292.662	-200.000	0.048	-0.210
-291.647	-20.394	-0.296	-0.180
-290.632	-55.341	0.285	-0.126
-289.618	265.086	-0.132	0.228
-288.603	-200.000	-0.015	-0.074
-287.589	800.000	0.134	0.520
-286.574	433.108	0.141	-0.301
-285.559	315.978	0.186	0.347
-284.545	83.149	0.205	0.220
-283.530	-119.686	0.166	0.028
-282.516	-136.005	0.359	0.042
-281.501	-200.000	0.001	-0.366
-280.486	-111.966	-0.168	0.033
-279.472	120.783	0.037	-0.045
-278.457	-114.741	-0.245	0.046
-277.443	-171.255	-0.244	-0.008
-276.428	652.920	0.040	0.101
-275.413	92.307	0.052	0.057
-274.399	-10.416	-0.140	0.092
-273.384	-200.000	0.050	-0.373
-272.370	128.601	-0.114	-0.143
-271.355	800.000	-0.015	0.057
-270.340	76.814	0.319	0.335
-269.326	-70.905	0.010	0.004
-268.311	800.000	0.054	-0.208
-267.297	800.000	-0.019	0.068
-266.282	52.604	0.160	0.151
-265.267	-200.000	0.033	0.347
-264.253	-200.000	-0.022	-0.107
-263.238	-148.897	0.364	0.029
-262.224	180.499	-0.118	0.171
-261.209	378.433	-0.051	-0.103
-260.195	52.076	-0.120	0.113
-259.180	194.004	-0.077	0.116
-258.165	-200.000	-0.050	-0.272
-257.151	-65.747	-0.097	-0.038
-256.136	-200.000	-0.057	0.287
-255.122	-140.665	0.302	-0.031
-254.107	100.528	-0.089	-0.102
-253.092	70.168	0.065	0.066
-252.078	-200.000	-0.003	-0.072
-251.063	487.421	-0.107	-0.240
-250.049	-120.680	0.177	0.030
-249.034	-166.633	-0.335	-0.014
-248.019	167.192	0.067	0.093
-247.005	-200.000	-0.027	0.212
-245.990	-200.000	-0.044	0.398
-244.976	32.501	0.117	-0.100
-243.961	-200.000	-0.061	0.337
-242.946	-65.320	0.387	-0.154
-241.932	458.088	-0.089	-0.196
-240.917	23.321	0.026	0.021
-239.903	-33.307	-0.270	-0.147
-238.888	-13.861	-0.034	-0.022
-237.873	-200.000	0.018	-0.095
-236.859	56.453	-0.082	-0.079
-235.844	-100.508	0.309	-0.075
-234.830	278.364	-0.179	0.314
-233.815	2.880	0.182	0.130
-232.800	-46.782	-0.412	0.199
-231.786	493.355	-0.017	-0.039
-230.771	-200.000	-0.045	0.317
-229.757	25.987	-0.203	0.167
-228.742	208.638	-0.099	0.152
-227.727	-200.000	-0.003	-0.157
-226.713	-8.097	0.299	-0.199
-225.698	-117.055	-0.287	-0.052
-224.684	799.324	0.056	-0.153
-223.669	-69.116	-0.129	-0.049
-222.655	-63.036	0.218	0.089
-221.640	-200.000	-0.059	0.330
-220.625	-200.000	0.032	0.195
-219.611	639.525	-0.026	0.064
-218.596	-200.000	-0.029	-0.260
-217.582	-200.000	0.038	-0.239
-216.567	84.136	0.270	0.290
-215.552	521.610	-0.099	0.229
-214.538	-20.710	0.103	-0.062
-213.523	-57.768	0.245	-0.106
-212.509	-56.586	0.093	-0.041
-211.494	289.430	-0.311	0.555
-210.479	45.478	-0.074	0.067
-209.465	-65.398	0.411	0.163
-208.450	73.506	0.025	-0.026
-207.436	-200.000	-0.028	0.222
-206.421	60.922	-0.095	-0.093
-205.406	800.000	0.040	-0.159
-204.392	-64.291	0.159	0.064
-203.377	-88.779	0.329	0.096
-202.363	-88.976	-0.193	0.056
-201.348	-193.835	0.164	0.001
-200.333	-145.217	-0.156	-0.014
-199.319	-78.697	0.153	-0.051
-198.304	-200.000	0.067	0.298
-197.290	-200.000	-0.030	0.443
-196.275	203.956	0.112	-0.171
-195.260	427.551	-0.071	0.151
-194.246	-44.638	0.150	-0.073
-193.231	-15.775	0.098	0.062
-192.217	65.998	-0.018	0.018
-191.202	190.144	-0.059	0.087
-190.187	251.796	0.138	-0.231
-189.173	-39.130	-0.444	-0.230
-188.158	181.433	0.105	0.152
-187.144	192.830	0.151	-0.224
-186.129	800.000	0.024	0.081
-185.114	227.069	-0.091	-0.146
-184.100	174.004	-0.172	0.244
-183.085	-53.567	-0.331	0.149
-182.071	-127.444	-0.324	0.046
-181.056	-176.286	0.151	0.004
-180.042	541.020	-0.110	-0.258
-179.027	-200.000	0.013	0.216
-178.012	168.233	0.072	-0.101
-176.998	-200.000	-0.017	0.145
-175.983	-45.967	0.148	-0.072
-174.969	-72.765	0.269	0.097
-173.954	-200.000	-0.045	0.498
-172.939	786.599	0.053	-0.143
-171.925	800.000	0.093	-0.390
-170.910	-200.000	0.019	-0.205
-169.896	500.994	0.038	0.087
-168.881	-43.489	0.335	-0.166
-167.866	-200.000	0.069	0.312
-166.852	208.886	0.174	0.267
-165.837	739.228	0.089	-0.235
-164.823	-137.360	0.057	0.006
-163.808	-74.761	-0.222	0.079
-162.793	211.217	-0.079	0.122
-161.779	-200.000	0.022	0.221
-160.764	-200.000	-0.016	0.163
-159.750	224.077	-0.124	0.197
-158.735	24.642	-0.080	0.065
-157.720	800.000	0.055	0.158
-156.706	-63.683	-0.136	0.055
-155.691	-200.000	-0.041	-0.288
-154.677	136.119	-0.060	-0.077
-153.662	-98.700	-0.175	-0.044
-152.647	-57.102	0.140	-0.060
-151.633	269.291	0.101	-0.173
-150.618	-183.304	-0.226	0.004
-149.604	-200.000	-0.005	0.236
-148.589	124.016	-0.093	0.115
-147.574	321.973	-0.092	-0.171
-146.560	-27.603	0.262	-0.149
-145.545	-35.123	0.319	-0.171
-144.531	447.450	0.107	0.230
-143.516	378.633	-0.113	-0.228
-142.502	-45.238	-0.299	0.146
-141.487	800.000	-0.114	0.402
-140.472	180.820	-0.086	-0.123
-139.458	-35.684	-0.189	0.100
-138.443	286.857	-0.056	0.099
-137.429	-21.364	-0.246	0.147
-136.414	108.029	-0.050	-0.058
-135.399	-59.762	-0.049	-0.021
-134.385	-200.000	-0.018	-0.081
-133.370	-158.159	-0.327	-0.019
-132.356	-82.699	-0.080	0.026
-131.341	-200.000	-0.008	0.235
-130.326	-93.291	0.095	0.026
-129.312	800.000	0.041	-0.172
-128.297	-146.132	-0.462	0.040
-127.283	10.369	0.109	-0.081
-126.268	-97.478	-0.179	-0.046
-125.253	-200.000	0.048	0.238
-124.239	642.055	-0.141	0.353
-123.224	66.232	-0.043	-0.043
-122.210	800.000	-0.065	-0.191
-121.195	-72.514	-0.194	-0.070
-120.180	800.000	0.093	-0.274
-119.166	-12.293	-0.142	-0.091
-118.151	361.781	0.129	-0.254
-117.137	-200.000	-0.023	0.216
-116.122	-200.000	-0.067	0.324
-115.107	-108.070	-0.237	0.050
-114.093	-16.349	0.333	0.207
-113.078	-123.666	-0.223	0.035
-112.064	88.705	0.147	-0.160
-111.049	-107.792	-0.374	-0.080
-110.034	-64.362	0.379	0.151
-109.020	-66.534	-0.271	0.106
-108.005	755.158	-0.092	0.245
-106.991	-200.000	-0.000	0.469
-105.976	-95.197	-0.217	0.057
-104.962	151.481	-0.093	0.124
-103.947	447.308	0.058	0.126
-102.932	17.749	-0.244	0.190
-101.918	-200.000	0.049	0.257
-100.903	-80.428	0.314	0.103
-99.889	-200.000	0.029	-0.276
-98.874	-200.000	-0.061	-0.273
-97.859	-35.450	0.170	-0.091
-96.845	-56.969	0.237	0.103
-95.830	-50.782	-0.112	0.051
-94.816	-200.000	0.032	0.161
-93.801	697.192	-0.117	-0.301
-92.786	-100.929	-0.220	0.053
-91.772	39.644	0.138	0.121
-90.757	204.898	-0.200	0.305
-89.743	793.839	-0.032	-0.087
-88.728	-200.000	-0.042	0.229
-87.713	271.008	-0.061	0.106
-86.699	-47.609	-0.024	0.011
-85.684	-57.576	0.156	-0.067
-84.670	152.751	-0.288	-0.386
-83.655	-74.719	0.180	0.063
-82.640	-84.525	0.467	-0.145
-81.626	-194.797	-0.328	-0.002
-80.611	456.108	0.066	-0.143
-79.597	368.214	-0.137	0.271
-78.582	-200.000	-0.042	0.227
-77.567	293.989	0.180	0.322
-76.553	-200.000	-0.025	0.129
-75.538	165.338	0.102	0.141
-74.524	-122.398	-0.455	-0.073
-73.509	211.272	-0.053	-0.082
-72.494	-141.711	0.085	0.008
-71.480	754.103	0.101	-0.266
-70.465	710.575	-0.047	-0.121
-69.451	800.000	-0.048	-0.202
-68.436	78.141	-0.275	0.287
-67.422	-9.428	0.420	-0.275
-66.407	560.486	0.087	-0.205
-65.392	800.000	-0.059	0.254
-64.378	237.491	0.072	0.117
-63.363	800.000	0.057	0.224
-62.349	2.995	0.327	0.233
-61.334	17.944	-1.107	-0.863
-60.319	24.121	0.571	0.462
-59.305	-200.000	-0.271	-1.332
-58.290	686.732	0.536	1.372
-57.276	581.850	0.620	1.488
-56.261	-200.000	110.665	691.756
-55.246	533.113	1470.097	3406.343
-54.232	153.160	2632.992	3524.935
-53.217	109.108	2163.082	2532.220
-52.203	39.873	1705.226	1497.953
-51.188	32.347	1525.798	1288.945
-50.173	29.937	1501.796	1252.340
-49.159	56.253	1558.281	1480.961
-48.144	55.220	1574.313	1489.066
-47.130	32.655	1531.140	1295.372
-46.115	29.407	1516.725	1260.966
-45.100	29.238	1513.372	1256.978
-44.086	29.187	1512.094	1255.517
-43.071	29.148	1509.688	1253.204
-42.057	29.161	1507.665	1251.562
-41.042	29.151	1506.570	1250.533
-40.027	29.166	1505.129	1249.394
-39.013	29.177	1503.281	1247.885
-37.998	29.103	1502.369	1246.577
-36.984	29.126	1501.334	1245.826
-35.969	29.189	1499.938	1245.038
-34.954	29.113	1499.267	1243.918
-33.940	29.086	1497.502	1242.227
-32.925	29.151	1495.724	1241.142
-31.911	29.151	1494.381	1239.976
-30.896	29.225	1493.383	1239.599
-29.881	29.266	1491.837	1238.536
-28.867	29.241	1490.163	1236.934
-27.852	29.198	1489.531	1236.068
-26.838	29.282	1487.677	1235.043
-25.823	29.284	1486.065	1233.668
-24.809	29.266	1484.574	1232.267
-23.794	29.305	1483.420	1231.517
-22.779	29.227	1482.445	1230.137
-21.765	29.284	1481.151	1229.398
-20.750	29.328	1479.767	1228.495
-19.736	29.236	1478.813	1227.037
-18.721	29.128	1477.584	1225.249
-17.706	29.120	1476.739	1224.451
-16.692	29.252	1474.964	1223.804
-15.677	29.229	1474.206	1222.976
-14.663	29.166	1473.191	1221.667
-13.648	29.227	1472.008	1221.042
-12.633	29.127	1471.702	1220.079
-11.619	29.227	1470.844	1219.982
-10.604	29.120	1469.843	1218.391
-9.590	29.139	1468.852	1217.646
-8.575	29.264	1468.104	1217.804
-7.560	29.164	1467.354	1216.478
-6.546	29.152	1466.584	1215.711
-5.531	29.057	1465.798	1214.382
-4.517	29.190	1464.373	1214.032
-3.502	29.127	1463.383	1212.748
-2.487	29.116	1462.310	1211.735
-1.473	29.134	1462.008	1211.560
-0.458	29.121	1460.033	1209.786
0.556	28.004	1449.443	1195.031
1.571	23.782	1422.131	1145.257
2.586	18.854	1357.836	1062.977
3.600	16.541	1272.985	983.039
4.615	15.091	1228.254	940.272
5.629	13.278	1172.643	887.894
6.644	7.149	1091.884	795.940
7.659	1.741	1053.794	741.818
8.673	0.945	1048.345	734.058
9.688	0.861	1044.969	731.222
10.702	0.934	1043.449	730.447
11.717	0.969	1041.425	729.135
12.731	2.982	1042.604	739.589
13.746	9.487	1051.522	777.346
14.761	15.653	1058.952	812.665
15.775	17.569	1061.080	823.501
16.790	17.187	1059.885	820.655
17.804	16.175	1057.714	814.020
18.819	15.259	1055.835	808.090
19.834	14.905	1054.304	805.143
20.848	14.695	1053.263	803.267
21.863	14.422	1052.063	800.964
22.877	14.173	1052.021	799.667
23.892	14.044	1051.170	798.328
24.907	13.921	1049.911	796.712
25.921	13.834	1049.438	795.868
26.936	13.887	1048.930	795.663
27.950	13.940	1048.436	795.471
28.965	14.016	1047.573	795.111
29.980	14.007	1046.637	794.289
30.994	14.100	1045.567	793.848
32.009	14.142	1044.554	793.209
33.023	14.122	1043.492	792.237
34.038	14.024	1043.537	791.738
35.053	14.067	1042.511	791.095
36.067	14.086	1041.247	790.155
37.082	14.019	1040.806	789.432
38.096	13.982	1040.103	788.654
39.111	14.040	1039.097	788.096
40.126	14.076	1038.094	787.435
41.140	14.020	1036.732	786.065
42.155	13.949	1036.204	785.262
43.169	13.884	1035.531	784.372
44.184	13.880	1034.297	783.352
45.199	14.029	1032.887	782.916
46.213	13.844	1032.168	781.434
47.228	13.928	1031.026	780.892
48.242	13.915	1030.259	780.179
49.257	14.155	1029.166	780.413
50.271	14.079	1027.590	778.789
51.286	13.907	1027.471	777.827
52.301	13.954	1026.829	777.493
53.315	13.984	1025.890	776.852
54.330	13.938	1025.196	776.044
55.344	13.931	1024.237	775.213
56.359	13.917	1023.363	774.420
57.374	13.957	1022.729	774.059
58.388	13.904	1021.882	773.103
59.403	13.836	1021.263	772.247
60.417	14.011	1019.871	771.940
61.432	13.869	1019.655	771.051
62.447	13.861	1018.883	770.362
63.461	13.800	1017.752	769.153
64.476	13.902	1016.909	768.922
65.490	13.865	1015.960	767.963
66.505	13.832	1015.352	767.284
67.520	13.818	1014.257	766.325
68.534	13.837	1013.787	765.989
69.549	13.909	1012.892	765.578
70.563	13.862	1012.302	764.846
71.578	13.880	1011.995	764.629
72.593	13.826	1010.846	763.446
73.607	13.843	1009.711	762.600
74.622	13.853	1008.317	761.525
75.636	13.793	1007.787	760.781
76.651	13.792	1007.162	760.238
77.666	13.727	1006.505	759.380
78.680	13.744	1006.014	759.020
79.695	13.827	1005.129	758.664
80.709	13.800	1004.750	758.185
81.724	13.847	1003.874	757.674
82.739	13.826	1002.798	756.698
83.753	13.876	1002.364	756.530
84.768	13.989	1001.095	756.023
85.782	14.163	1000.111	756.002
86.797	13.977	1000.193	755.153
87.812	14.072	998.903	754.541
88.826	13.935	998.390	753.465
89.841	13.897	997.543	752.589
90.855	14.096	996.367	752.536
91.870	13.957	995.929	751.509
92.884	14.009	995.275	751.183
93.899	14.157	993.948	750.784
94.914	14.158	993.424	750.325
95.928	14.057	993.401	749.787
96.943	14.150	992.083	749.144
97.957	14.045	991.757	748.358
98.972	14.167	990.597	747.967
99.987	13.985	989.830	746.503
101.001	14.204	988.819	746.659
102.016	13.960	988.758	745.449
103.030	14.023	987.681	744.857
104.045	14.015	986.911	744.174
105.060	14.175	985.292	743.602
106.074	14.005	984.553	742.217
107.089	13.981	984.102	741.707
108.103	13.913	982.977	740.491
109.118	13.904	981.834	739.524
110.133	13.908	981.131	738.948
111.147	13.916	980.548	738.475
112.162	14.034	979.452	738.109
113.176	14.036	978.790	737.556
114.191	14.086	977.714	736.901
115.206	14.139	976.498	736.153
116.220	14.064	976.111	735.464
117.235	14.046	975.382	734.772
118.249	14.103	974.289	734.132
119.264	14.052	973.272	733.079
120.279	13.996	972.702	732.335
121.293	14.086	971.654	731.881
122.308	14.074	970.889	731.187
123.322	14.003	970.515	730.529
124.337	13.880	969.569	729.209
125.352	13.884	968.221	728.149
126.366	13.953	967.279	727.680
127.381	13.909	966.417	726.774
128.395	13.945	964.931	725.749
129.410	13.945	964.420	725.301
130.424	13.924	963.586	724.515
131.439	14.003	962.450	723.945
132.454	13.994	961.319	722.987
133.468	14.059	960.558	722.637
134.483	14.018	960.031	721.995
135.497	14.130	959.078	721.701
136.512	14.033	958.723	720.952
137.527	13.939	957.645	719.670
138.541	14.054	957.045	719.652
139.556	13.975	956.361	718.734
140.570	13.935	956.194	718.372
141.585	13.934	954.988	717.395
142.600	14.024	954.543	717.389
143.614	14.120	953.686	717.093
144.629	14.154	952.992	716.653
145.643	14.185	951.876	715.885
146.658	14.238	950.645	715.123
147.673	14.196	949.805	714.247
148.687	14.101	949.226	713.343
149.702	14.272	948.244	713.273
150.716	14.011	947.948	711.871
151.731	14.064	946.643	711.054
152.746	14.153	946.270	711.090
153.760	14.118	945.410	710.233
154.775	14.188	944.375	709.694
155.789	14.223	943.603	709.199
156.804	14.222	942.972	708.658
157.819	14.209	942.379	708.092
158.833	14.186	941.518	707.286
159.848	14.321	940.920	707.348
160.862	14.243	940.206	706.415
161.877	14.355	939.389	706.214
162.892	14.318	938.436	705.281
163.906	14.177	937.989	704.284
164.921	14.075	937.622	703.516
165.935	14.170	936.326	702.883
166.950	14.277	935.229	702.447
167.964	14.237	934.005	701.299
168.979	14.232	933.514	700.848
169.994	14.175	932.674	699.911
171.008	14.256	931.621	699.402
172.023	14.257	930.978	698.861
173.037	14.402	930.350	698.935
174.052	14.432	929.354	698.250
175.067	14.376	928.577	697.372
176.081	14.255	928.036	696.397
177.096	14.272	927.009	695.637
178.110	14.426	926.018	695.473
179.125	14.350	925.456	694.672
180.140	14.416	924.565	694.219
181.154	14.353	923.885	693.383
182.169	14.267	923.872	692.956
183.183	14.449	922.950	692.959
184.198	14.483	922.016	692.338
185.213	14.564	921.067	691.898
186.227	14.538	920.606	691.382
187.242	14.515	920.533	691.171
188.256	14.466	919.734	690.307
189.271	14.641	918.407	689.977
190.286	14.597	917.998	689.423
191.300	14.422	917.539	688.297
192.315	14.359	917.092	687.639
193.329	14.533	915.828	687.350
194.344	14.471	915.568	686.839
195.359	14.520	914.930	686.498
196.373	14.602	914.289	686.294
197.388	14.614	913.875	685.971
198.402	14.524	913.256	685.077
199.417	14.571	913.036	685.047
200.432	14.736	912.253	685.072
201.446	14.768	911.935	684.904
202.461	14.740	911.615	684.490
203.475	14.922	910.784	684.549
204.490	14.815	909.933	683.411
205.504	14.686	909.566	682.549
206.519	14.689	908.513	681.712
207.534	14.774	907.679	681.370
208.548	14.775	907.114	680.891
209.563	14.758	906.797	680.522
210.577	14.830	905.881	680.072
211.592	14.818	905.176	679.432
212.607	14.814	904.910	679.155
213.621	14.854	904.343	678.834
214.636	14.936	903.269	678.297
215.650	14.822	903.180	677.711
216.665	15.011	902.129	677.625
217.680	15.015	901.444	677.066
218.694	14.979	901.156	676.646
219.709	15.010	900.270	676.047
220.723	15.117	899.222	675.632
221.738	15.171	898.936	675.575
222.753	14.946	898.327	674.151
223.767	15.079	897.450	673.967
224.782	15.072	896.707	673.323
225.796	15.106	896.504	673.247
226.811	15.140	895.618	672.658
227.826	15.151	894.594	671.874
228.840	15.024	894.408	671.166
229.855	15.226	893.226	671.028
230.869	15.064	892.946	670.110
231.884	14.925	892.424	669.102
232.899	15.074	891.290	668.787
233.913	15.219	891.053	669.130
234.928	15.163	890.069	668.108
235.942	15.082	889.403	667.228
236.957	15.207	888.714	667.147
237.972	15.137	888.357	666.543
238.986	15.156	887.653	666.033
240.001	15.106	887.249	665.471
241.015	15.311	886.082	665.350
242.030	15.102	885.844	664.283
243.045	15.257	884.897	664.130
244.059	15.234	884.497	663.678
245.074	15.371	883.333	663.288
246.088	15.400	882.798	662.941
247.103	15.420	881.986	662.354
248.117	15.298	881.926	661.767
249.132	15.324	881.417	661.431
250.147	15.372	880.896	661.171
251.161	15.468	880.120	660.908
252.176	15.420	879.705	660.348
253.190	15.654	878.590	660.370
254.205	15.592	878.053	659.667
255.220	15.491	877.636	658.899
256.234	15.437	876.996	658.149
257.249	15.592	876.240	658.130
258.263	15.573	875.926	657.760
259.278	15.577	875.167	657.147
260.293	15.825	874.587	657.625
261.307	15.653	874.007	656.459
262.322	15.703	873.482	656.202
263.336	15.843	872.608	656.029
264.351	15.862	872.059	655.637
265.366	15.707	871.705	654.708
266.380	15.997	870.732	655.048
267.395	15.917	869.998	654.124
268.409	15.719	869.747	653.112
269.424	15.800	868.583	652.491
270.439	15.820	868.118	652.164
271.453	15.887	867.378	651.810
272.468	15.896	866.332	651.000
273.482	15.839	865.831	650.344
274.497	15.876	865.407	650.111
275.512	15.721	865.083	649.211
276.526	15.843	864.140	648.919
277.541	15.870	863.687	648.623
278.555	15.841	863.437	648.266
279.570	15.931	862.420	647.792
280.585	15.925	861.902	647.325
281.599	16.038	861.031	647.044
282.614	16.095	860.417	646.747
283.628	15.998	860.018	646.018
284.643	16.164	859.323	646.075
285.657	16.031	858.856	645.157
286.672	16.212	858.265	645.346
287.687	16.139	857.646	644.545
288.701	15.968	857.326	643.596
289.716	16.268	856.692	644.206
290.730	16.310	856.039	643.820
291.745	16.116	855.847	642.880
292.760	16.147	854.484	641.915
293.774	16.208	854.172	641.859
294.789	16.348	853.544	641.861
295.803	16.249	852.974	641.000
296.818	16.227	852.301	640.353
297.833	16.301	851.945	640.307
298.847	16.283	851.063	639.521
299.862	16.173	850.479	638.608
300.876	16.273	849.654	638.313
301.891	16.340	849.323	638.262
302.906	16.331	848.546	637.585
303.920	16.342	848.179	637.294
304.935	16.524	847.167	637.163
305.949	16.425	846.739	636.411
306.964	16.526	845.873	636.087
307.979	16.525	845.114	635.453
308.993	16.531	844.712	635.118
310.008	16.416	844.012	634.105
311.022	16.600	843.648	634.464
312.037	16.560	843.158	633.889
313.052	16.471	842.799	633.232
314.066	16.544	842.069	632.901
315.081	16.557	841.548	632.502
316.095	16.452	841.419	631.954
317.110	16.449	840.741	631.378
318.125	16.400	840.211	630.743
319.139	16.539	839.063	630.344
320.154	16.499	838.911	630.026
321.168	16.540	838.305	629.667
322.183	16.529	837.742	629.145
323.197	16.605	837.104	628.894
324.212	16.622	836.731	628.623
325.227	16.605	836.103	628.030
326.241	16.689	835.493	627.830
327.256	16.562	835.474	627.289
328.270	16.557	834.702	626.633
329.285	16.682	834.071	626.567
330.300	16.755	832.845	625.863
331.314	16.676	833.071	625.684
332.329	16.657	832.432	625.076
333.343	16.697	831.246	624.278
334.358	16.726	830.830	624.018
335.373	16.790	830.647	624.062
336.387	16.857	829.620	623.481
337.402	16.706	829.582	622.841
338.416	16.864	828.642	622.662
339.431	16.850	828.203	622.226
340.446	16.968	827.789	622.291
341.460	16.883	827.162	621.453
342.475	17.114	826.474	621.727
343.489	16.868	826.236	620.594
344.504	16.995	825.549	620.488
345.519	17.150	825.077	620.644
346.533	17.065	824.645	619.953
347.548	17.170	823.866	619.695
348.562	17.128	823.355	619.105
349.577	17.111	822.569	618.395
350.592	17.007	822.280	617.747
351.606	17.066	821.690	617.461
352.621	17.079	821.247	617.122
353.635	16.990	821.326	616.803
354.650	16.963	820.961	616.378
355.665	17.096	820.005	616.087
356.679	17.124	819.966	616.107
357.694	17.049	819.177	615.185
358.708	17.037	818.911	614.889
359.723	17.172	818.359	614.909
360.738	17.089	817.597	613.980
361.752	17.129	817.130	613.721
362.767	17.181	816.816	613.620
363.781	17.183	816.501	613.334
364.796	17.189	816.085	612.988
365.810	17.163	815.624	612.495
366.825	17.173	815.284	612.220
367.840	17.366	814.736	612.449
368.854	17.360	814.346	612.080
369.869	17.400	813.828	611.783
370.883	17.265	813.072	610.673
371.898	17.362	812.710	610.695
372.913	17.429	812.239	610.530
373.927	17.643	811.180	610.448
374.942	17.396	810.905	609.301
375.956	17.382	810.108	608.596
376.971	17.517	809.162	608.315
377.986	17.581	809.117	608.457
379.000	17.430	808.652	607.514
380.015	17.644	808.246	607.919
381.029	17.742	807.608	607.732
382.044	17.714	807.019	607.137
383.059	17.734	806.693	606.909
384.073	17.513	806.270	605.750
385.088	17.585	805.665	605.499
386.102	17.735	804.647	605.215
387.117	17.629	803.870	604.199
388.132	17.624	803.919	604.167
389.146	17.545	803.351	603.403
390.161	17.661	803.125	603.592
391.175	17.573	803.043	603.167
392.190	17.601	802.776	603.012
393.205	17.808	802.008	603.113
394.219	17.806	801.272	602.501
395.234	17.938	800.644	602.440
396.248	17.736	800.281	601.401
397.263	17.765	799.997	601.237
398.278	17.728	799.733	600.854
399.292	17.658	798.877	599.912
400.307	17.712	798.899	600.065
401.321	17.542	798.849	599.375
402.336	17.765	797.687	599.233
403.350	17.720	797.731	599.055
404.365	17.783	797.138	598.780
405.380	17.816	796.532	598.385
406.394	17.981	795.883	598.423
407.409	18.038	795.651	598.395
408.423	18.064	795.195	598.091
409.438	18.028	794.853	597.657
410.453	18.170	793.998	597.455
411.467	18.098	793.708	596.932
412.482	18.079	793.630	596.756
413.496	17.985	793.061	595.947
414.511	18.147	792.490	596.029
415.526	18.263	792.124	596.105
416.540	18.091	791.901	595.286
417.555	18.154	791.415	595.086
418.569	18.166	790.872	594.667
419.584	18.135	790.331	594.101
420.599	18.121	790.015	593.763
421.613	112.954	1293.347	1476.996
422.628	97.118	1366.656	1477.110
