DTS Sentinel unit serial number:	SN413079Multiplexer serial number:	ORYXHardware model number:	OX4-SRSoftware version number:	ORYX F/W v4.00 Oryx Data Collector v3.7.2.0data status	okinstallation	princeton_trtdifferential loss correction	single-endedforward channel	channel 3reverse channel	N/Adate	2019/09/12time	12:42:11forward acquisition time	60.00reverse acquisition time	0.00gamma	496.2192k internal	0.2291k external	0.2291temperature offset calibration	1.0042default loss term (dB/km)	0.3790temperature slope calibration	1.0000multiplexer offset coefficient	1.0000multiplexer slope coefficient	1.0000fibre end	0.00T internal ref (°C)	40.50T ext. ref 1 (°C)	2.02T ext. ref 2 (°C)	37.30length (m)	temperature (°C)	Stokes	anti-Stokes-747.200	219.185	-0.029	-0.047
-746.185	41.866	0.130	0.120
-745.171	-62.886	0.072	0.030
-744.156	213.545	-0.128	0.207
-743.142	319.064	-0.112	-0.217
-742.127	-56.000	-0.101	0.046
-741.112	-184.800	-0.282	-0.005
-740.098	177.430	0.081	0.120
-739.083	247.047	0.177	-0.306
-738.069	-200.000	0.039	-0.221
-737.054	-89.813	0.247	0.074
-736.039	-121.279	-0.439	0.075
-735.025	-200.000	0.006	0.029
-734.010	-200.000	0.012	0.426
-732.996	20.601	-0.100	-0.083
-731.981	93.443	-0.166	0.192
-730.966	139.961	0.158	0.213
-729.952	4.636	0.143	-0.107
-728.937	-70.560	0.173	-0.067
-727.923	11.184	-0.259	-0.203
-726.908	82.414	-0.084	0.094
-725.894	-51.054	-0.321	0.154
-724.879	-36.220	0.201	-0.111
-723.864	-48.255	-0.119	0.059
-722.850	-90.278	-0.307	-0.091
-721.835	-9.418	-0.166	0.113
-720.821	280.685	0.122	0.223
-719.806	800.000	0.036	0.122
-718.791	-128.308	-0.225	0.033
-717.777	-200.000	0.015	-0.220
-716.762	-79.509	-0.321	-0.111
-715.748	-126.389	0.104	-0.016
-714.733	-93.552	-0.164	0.046
-713.718	52.012	0.094	-0.091
-712.704	-200.000	0.044	-0.210
-711.689	-200.000	0.020	-0.093
-710.675	-119.980	0.062	0.011
-709.660	-106.115	-0.178	0.041
-708.645	-183.698	0.110	-0.002
-707.631	67.674	-0.170	-0.177
-706.616	493.845	-0.166	0.390
-705.602	300.735	-0.097	0.183
-704.587	-76.576	-0.253	-0.091
-703.572	-200.000	-0.007	-0.121
-702.558	181.990	0.108	-0.162
-701.543	41.854	-0.142	0.131
-700.529	167.116	0.145	-0.211
-699.514	-152.099	-0.069	0.005
-698.499	-40.243	-0.252	-0.134
-697.485	75.931	0.152	-0.164
-696.470	215.048	-0.061	-0.099
-695.456	-13.709	-0.161	0.106
-694.441	-161.041	0.028	0.001
-693.426	514.297	-0.055	-0.131
-692.412	-200.000	-0.010	0.090
-691.397	15.008	-0.092	-0.073
-690.383	157.594	-0.183	0.258
-689.368	-200.000	0.001	-0.112
-688.354	-200.000	0.011	-0.158
-687.339	-200.000	-0.009	0.245
-686.324	800.000	0.025	0.108
-685.310	82.700	0.097	-0.107
-684.295	18.619	-0.309	-0.253
-683.281	34.782	-0.182	-0.163
-682.266	-68.108	0.277	0.110
-681.251	9.506	-0.186	0.144
-680.237	-166.392	-0.591	0.025
-679.222	166.738	-0.108	0.156
-678.208	146.899	-0.146	-0.201
-677.193	-8.606	0.186	-0.128
-676.178	-200.000	0.052	0.259
-675.164	-116.757	0.356	-0.067
-674.149	-200.000	0.033	-0.256
-673.135	-42.518	0.193	0.101
-672.120	-22.313	0.155	0.096
-671.105	-61.082	-0.255	0.110
-670.091	42.581	-0.090	-0.084
-669.076	800.000	-0.088	-0.299
-668.062	91.719	-0.192	-0.220
-667.047	487.889	0.109	0.254
-666.032	-60.207	0.199	-0.086
-665.018	55.488	-0.388	0.384
-664.003	-78.994	0.135	-0.047
-662.989	-56.137	0.047	-0.021
-661.974	-200.000	-0.036	-0.488
-660.959	-93.405	0.411	-0.116
-659.945	800.000	0.029	0.118
-658.930	156.121	0.071	-0.100
-657.916	537.731	0.101	0.246
-656.901	-112.039	-0.174	-0.036
-655.886	-200.000	-0.029	-0.202
-654.872	-139.666	0.249	0.027
-653.857	110.783	0.236	-0.289
-652.843	19.240	0.076	0.063
-651.828	106.017	-0.076	-0.091
-650.814	800.000	-0.040	-0.147
-649.799	384.366	-0.119	-0.250
-648.784	-74.998	-0.171	0.063
-647.770	117.651	0.161	0.203
-646.755	126.563	-0.061	0.079
-645.741	56.246	-0.297	-0.295
-644.726	-44.751	-0.393	-0.200
-643.711	-19.576	0.323	-0.204
-642.697	-123.332	-0.183	0.030
-641.682	68.672	-0.073	0.076
-640.668	-8.248	-0.182	-0.125
-639.653	-40.460	-0.074	-0.039
-638.638	-156.000	-0.116	-0.007
-637.624	-130.580	0.345	0.047
-636.609	800.000	-0.115	0.420
-635.595	-79.584	0.315	0.109
-634.580	-200.000	0.000	-0.155
-633.565	196.254	-0.076	0.118
-632.551	14.342	-0.169	0.135
-631.536	551.986	-0.041	-0.101
-630.522	-181.179	0.238	0.005
-629.507	453.747	0.075	0.170
-628.492	-140.415	0.079	-0.008
-627.478	-200.000	0.023	0.134
-626.463	-200.000	0.019	-0.203
-625.449	764.174	-0.011	0.031
-624.434	-200.000	-0.006	-0.200
-623.419	-74.707	0.410	-0.150
-622.405	-200.000	-0.019	-0.216
-621.390	175.115	-0.138	0.204
-620.376	693.893	0.042	-0.112
-619.361	-33.849	-0.378	-0.212
-618.346	800.000	0.046	-0.182
-617.332	-200.000	-0.008	-0.134
-616.317	-31.284	0.427	0.245
-615.303	800.000	-0.073	0.237
-614.288	-98.693	-0.370	0.096
-613.273	77.682	0.082	-0.089
-612.259	0.192	-0.237	-0.173
-611.244	38.768	-0.215	-0.195
-610.230	-28.317	0.242	-0.142
-609.215	800.000	0.064	-0.199
-608.201	19.083	-0.174	-0.142
-607.186	-68.043	-0.220	0.087
-606.171	-200.000	-0.019	0.172
-605.157	-200.000	-0.025	-0.139
-604.142	-136.842	-0.083	0.010
-603.128	1.202	0.143	0.105
-602.113	304.814	0.107	0.203
-601.098	60.065	0.256	-0.258
-600.084	-200.000	-0.041	-0.218
-599.069	-81.462	0.085	-0.028
-598.055	-200.000	0.046	0.300
-597.040	301.346	-0.038	-0.071
-596.025	-22.454	-0.069	-0.042
-595.011	-105.267	0.112	0.026
-593.996	87.283	-0.160	-0.181
-592.982	25.556	-0.101	-0.086
-591.967	800.000	0.071	0.207
-590.952	281.669	-0.129	-0.235
-589.938	-200.000	0.011	-0.188
-588.923	97.108	-0.137	0.160
-587.909	-200.000	-0.024	0.184
-586.894	-41.807	0.269	0.140
-585.879	758.667	-0.023	0.064
-584.865	-200.000	0.021	0.104
-583.850	-66.354	0.126	0.051
-582.836	235.109	-0.085	-0.143
-581.821	380.275	0.072	0.150
-580.806	13.718	-0.137	-0.109
-579.792	-200.000	0.057	0.319
-578.777	-113.656	-0.256	0.051
-577.763	-200.000	0.004	0.160
-576.748	-200.000	-0.049	0.457
-575.733	-23.862	0.297	-0.181
-574.719	800.000	-0.022	0.064
-573.704	106.501	-0.110	-0.133
-572.690	800.000	-0.094	0.339
-571.675	-150.485	-0.503	0.039
-570.661	110.535	-0.046	0.056
-569.646	-200.000	-0.017	-0.117
-568.631	-15.375	-0.239	0.155
-567.617	6.982	-0.215	-0.163
-566.602	88.827	-0.101	-0.115
-565.588	2.171	0.191	0.141
-564.573	18.689	0.135	-0.110
-563.558	110.192	-0.058	0.071
-562.544	-14.921	-0.157	-0.103
-561.529	800.000	0.062	0.269
-560.515	13.555	-0.108	0.086
-559.500	207.243	0.207	-0.328
-558.485	3.802	-0.140	-0.104
-557.471	26.568	0.086	0.073
-556.456	-150.945	-0.193	-0.015
-555.442	7.696	0.342	-0.260
-554.427	-101.116	-0.177	-0.044
-553.412	85.013	0.183	-0.203
-552.398	-100.152	-0.151	0.038
-551.383	166.015	0.225	0.324
-550.369	-95.333	0.250	0.068
-549.354	-68.963	0.125	0.049
-548.339	-200.000	-0.017	0.143
-547.325	-1.449	-0.085	-0.061
-546.310	-60.398	-0.062	0.027
-545.296	-200.000	-0.007	-0.085
-544.281	170.139	-0.197	0.286
-543.266	-71.614	0.253	-0.096
-542.252	134.161	0.119	0.157
-541.237	44.201	0.208	-0.194
-540.223	55.307	0.186	0.183
-539.208	271.025	-0.234	0.419
-538.193	-34.111	0.156	-0.087
-537.179	-131.344	0.348	-0.047
-536.164	-200.000	0.021	-0.301
-535.150	-121.213	-0.233	-0.040
-534.135	700.222	0.127	0.339
-533.121	-200.000	0.040	0.336
-532.106	-87.020	-0.234	-0.072
-531.091	800.000	-0.086	0.289
-530.077	800.000	-0.101	0.420
-529.062	-6.129	-0.177	0.123
-528.048	5.879	0.082	-0.061
-527.033	-200.000	0.021	0.285
-526.018	-138.743	0.205	0.023
-525.004	-168.842	-0.204	-0.008
-523.989	800.000	-0.062	0.204
-522.975	20.965	0.031	0.026
-521.960	-82.087	0.071	-0.024
-520.945	128.172	0.178	-0.230
-519.931	85.038	-0.214	0.238
-518.916	-200.000	0.066	-0.334
-517.902	27.269	-0.320	-0.273
-516.887	-200.000	-0.006	0.096
-515.872	41.111	-0.016	-0.015
-514.858	73.562	0.087	0.092
-513.843	134.361	-0.137	0.181
-512.829	596.895	-0.069	-0.173
-511.814	-108.952	0.092	0.020
-510.799	-12.136	0.126	0.083
-509.785	-150.085	-0.282	-0.022
-508.770	139.592	-0.262	-0.350
-507.756	-26.965	0.126	-0.075
-506.741	-200.000	0.055	-0.291
-505.726	-51.789	-0.173	0.082
-504.712	-200.000	-0.004	0.080
-503.697	-200.000	-0.017	-0.083
-502.683	-200.000	-0.014	-0.166
-501.668	-200.000	-0.017	0.174
-500.653	-35.264	-0.311	0.172
-499.639	19.627	-0.215	-0.175
-498.624	94.511	-0.137	0.158
-497.610	-40.846	-0.318	0.167
-496.595	-200.000	-0.028	0.163
-495.581	-51.527	-0.171	-0.081
-494.566	193.831	-0.019	-0.030
-493.551	-150.658	0.286	0.022
-492.537	-200.000	0.049	-0.295
-491.522	-76.799	0.154	-0.055
-490.508	373.673	-0.099	-0.204
-489.493	37.176	0.175	-0.157
-488.478	91.121	-0.108	0.123
-487.464	800.000	0.036	-0.152
-486.449	228.403	-0.061	-0.101
-485.435	-200.000	-0.046	0.314
-484.420	-51.877	0.211	-0.100
-483.405	491.820	-0.132	0.307
-482.391	288.482	-0.034	0.063
-481.376	-71.556	0.241	-0.091
-480.362	-139.825	-0.285	0.031
-479.347	-38.910	-0.302	-0.161
-478.332	113.474	0.085	0.104
-477.318	45.776	0.190	0.178
-476.303	39.449	0.144	0.130
-475.289	800.000	-0.061	-0.237
-474.274	-200.000	0.042	0.431
-473.259	-56.382	0.154	0.069
-472.245	25.980	-0.132	0.111
-471.230	-143.335	-0.522	0.051
-470.216	-60.791	-0.169	0.072
-469.201	5.602	-0.109	-0.082
-468.186	306.243	0.071	0.134
-467.172	-136.475	-0.048	0.006
-466.157	755.063	0.040	0.109
-465.143	-9.964	-0.277	-0.186
-464.128	-108.607	0.157	-0.034
-463.113	-144.013	-0.229	0.022
-462.099	-200.000	-0.023	-0.157
-461.084	178.594	-0.103	-0.152
-460.070	-200.000	-0.018	-0.416
-459.055	261.492	-0.055	-0.097
-458.040	-200.000	0.043	-0.205
-457.026	601.160	-0.103	0.259
-456.011	-200.000	-0.083	0.370
-454.997	-200.000	-0.026	-0.125
-453.982	43.601	-0.216	-0.200
-452.968	-200.000	0.015	0.176
-451.953	800.000	0.051	0.200
-450.938	800.000	0.059	-0.221
-449.924	-200.000	0.086	-0.426
-448.909	-128.380	0.246	0.035
-447.895	193.988	0.129	-0.198
-446.880	115.517	-0.132	-0.164
-445.865	32.998	-0.100	-0.087
-444.851	-84.797	0.254	0.081
-443.836	172.367	0.073	-0.106
-442.822	83.476	0.169	-0.186
-441.807	-55.757	0.088	-0.040
-440.792	-14.117	0.240	-0.156
-439.778	52.124	0.101	0.098
-438.763	-129.645	0.132	-0.018
-437.749	-47.031	0.513	-0.253
-436.734	-200.000	-0.050	0.363
-435.719	-138.131	0.130	-0.015
-434.705	-84.085	0.143	0.046
-433.690	132.058	-0.130	0.169
-432.676	-136.428	-0.314	-0.037
-431.661	239.913	-0.138	-0.232
-430.646	-93.503	-0.531	-0.149
-429.632	32.063	0.158	-0.138
-428.617	364.684	0.155	-0.315
-427.603	-200.000	-0.058	0.301
-426.588	-200.000	0.004	-0.114
-425.573	-152.803	-0.117	0.008
-424.559	54.112	0.027	-0.026
-423.544	-18.839	-0.135	-0.085
-422.530	52.903	0.090	-0.087
-421.515	578.082	0.083	-0.206
-420.500	800.000	-0.102	-0.348
-419.486	176.313	-0.006	-0.009
-418.471	-196.631	-0.131	-0.001
-417.457	-132.488	0.243	0.032
-416.442	-200.000	0.049	0.292
-415.428	-61.462	0.292	0.124
-414.413	-142.875	0.163	0.016
-413.398	-200.000	0.019	-0.203
-412.384	722.779	-0.048	0.130
-411.369	-60.170	-0.244	0.105
-410.355	800.000	-0.064	0.202
-409.340	284.591	-0.021	0.037
-408.325	-67.861	0.272	0.107
-407.311	800.000	0.058	-0.245
-406.296	14.540	-0.132	-0.104
-405.282	98.702	-0.247	0.288
-404.267	251.196	-0.103	-0.177
-403.252	-20.063	0.092	-0.057
-402.238	-200.000	-0.014	-0.224
-401.223	46.874	0.188	0.177
-400.209	750.285	0.055	0.150
-399.194	320.177	-0.143	0.275
-398.179	-200.000	0.031	0.167
-397.165	-200.000	-0.042	0.462
-396.150	125.046	-0.081	-0.103
-395.136	-138.154	0.195	-0.022
-394.121	-200.000	0.032	-0.369
-393.106	100.541	0.221	-0.259
-392.092	194.732	-0.093	-0.142
-391.077	-49.129	-0.495	-0.239
-390.063	-25.310	-0.030	0.018
-389.048	800.000	0.032	0.132
-388.033	42.228	0.228	0.209
-387.019	-135.423	-0.313	-0.038
-386.004	-200.000	-0.080	-0.404
-384.990	-200.000	-0.004	-0.078
-383.975	43.738	0.428	0.396
-382.960	-54.668	0.088	-0.040
-381.946	269.592	-0.072	-0.128
-380.931	-200.000	0.061	0.311
-379.917	-119.559	0.278	-0.049
-378.902	81.597	-0.129	0.141
-377.888	-200.000	0.043	0.213
-376.873	-200.000	-0.017	0.229
-375.858	800.000	-0.049	0.172
-374.844	-48.778	-0.030	-0.014
-373.829	-0.696	-0.035	-0.025
-372.815	9.275	-0.210	0.160
-371.800	-6.271	0.390	-0.269
-370.785	-105.303	0.474	0.109
-369.771	432.156	-0.056	0.122
-368.756	-200.000	-0.013	0.105
-367.742	102.130	0.117	-0.138
-366.727	132.373	0.310	-0.403
-365.712	800.000	0.105	0.320
-364.698	800.000	-0.014	-0.043
-363.683	-85.769	-0.402	0.126
-362.669	-40.033	-0.284	-0.149
-361.654	132.958	0.184	0.240
-360.639	52.458	-0.187	-0.180
-359.625	-85.515	-0.039	-0.012
-358.610	-125.114	0.336	0.052
-357.596	20.205	0.230	0.187
-356.581	237.090	-0.212	0.355
-355.566	-109.377	-0.090	0.019
-354.552	-161.602	0.070	0.004
-353.537	-75.794	-0.232	0.083
-352.523	800.000	-0.021	-0.067
-351.508	-155.330	0.202	-0.013
-350.493	800.000	-0.069	0.242
-349.479	-99.076	-0.232	-0.059
-348.464	-1.029	-0.235	-0.168
-347.450	760.989	0.034	0.092
-346.435	4.502	-0.347	-0.256
-345.420	-84.696	0.391	0.124
-344.406	800.000	-0.099	0.360
-343.391	-81.202	-0.299	0.100
-342.377	121.045	0.179	-0.224
-341.362	800.000	0.102	0.350
-340.348	-200.000	0.015	0.175
-339.333	598.540	-0.107	0.267
-338.318	105.324	0.117	0.139
-337.304	104.233	0.065	0.077
-336.289	800.000	0.033	-0.119
-335.275	-61.597	0.279	0.118
-334.260	-127.008	0.236	0.035
-333.245	-168.206	-0.076	-0.003
-332.231	-200.000	0.073	0.482
-331.216	68.685	0.175	0.181
-330.202	-200.000	-0.012	-0.225
-329.187	-200.000	-0.014	-0.077
-328.172	-41.091	-0.376	0.196
-327.158	800.000	0.072	-0.205
-326.143	117.943	-0.131	-0.162
-325.129	-200.000	0.022	0.284
-324.114	147.843	0.027	0.036
-323.099	52.406	0.057	-0.055
-322.085	-152.748	0.500	0.036
-321.070	17.104	0.255	-0.203
-320.056	-200.000	-0.062	0.384
-319.041	-121.680	0.096	0.016
-318.026	-135.697	0.098	-0.012
-317.012	52.949	0.089	-0.086
-315.997	238.868	-0.015	-0.026
-314.983	-200.000	0.016	0.354
-313.968	-200.000	0.002	0.246
-312.953	5.195	0.146	0.108
-311.939	-200.000	-0.034	-0.264
-310.924	800.000	0.098	-0.313
-309.910	-24.039	0.163	0.098
-308.895	-70.406	0.099	0.038
-307.880	-57.325	0.175	-0.078
-306.866	-200.000	0.060	0.380
-305.851	-200.000	-0.053	-0.257
-304.837	153.150	0.153	-0.211
-303.822	800.000	0.083	0.256
-302.807	-200.000	-0.007	-0.136
-301.793	-200.000	-0.024	0.162
-300.778	-200.000	0.030	0.178
-299.764	-13.328	0.157	-0.102
-298.749	209.996	0.201	-0.317
-297.735	-200.000	-0.017	0.375
-296.720	-200.000	-0.001	0.132
-295.705	-48.418	-0.151	0.073
-294.691	800.000	-0.062	0.238
-293.676	-22.244	-0.413	0.252
-292.662	61.769	0.087	-0.088
-291.647	-86.299	0.255	-0.079
-290.632	-170.285	0.369	0.013
-289.618	-66.303	-0.296	0.119
-288.603	36.150	0.127	0.113
-287.589	-200.000	-0.066	-0.345
-286.574	-6.235	0.052	0.036
-285.559	63.202	0.162	0.163
-284.545	85.568	0.072	0.080
-283.530	800.000	-0.047	0.147
-282.516	-34.708	0.186	-0.102
-281.501	-22.254	0.104	-0.064
-280.486	-57.268	0.157	0.069
-279.472	246.827	0.105	0.178
-278.457	-85.251	-0.369	0.116
-277.443	255.449	-0.073	-0.126
-276.428	-14.919	-0.010	0.006
-275.413	-151.448	0.057	-0.004
-274.399	192.990	0.063	-0.096
-273.384	31.121	0.255	0.220
-272.370	-132.614	-0.177	0.023
-271.355	57.632	-0.212	-0.208
-270.340	42.217	-0.166	-0.152
-269.326	25.924	-0.204	0.171
-268.311	80.947	0.232	-0.251
-267.297	-103.137	0.258	0.061
-266.282	-83.165	0.229	-0.074
-265.267	5.968	-0.419	0.312
-264.253	-200.000	-0.015	0.256
-263.238	-63.299	0.255	0.105
-262.224	-125.755	0.105	0.016
-261.209	-200.000	-0.059	-0.328
-260.195	800.000	-0.028	-0.091
-259.180	-25.184	-0.149	0.088
-258.165	-131.200	-0.209	0.028
-257.151	-33.776	-0.192	0.107
-256.136	126.947	-0.212	-0.271
-255.122	-117.097	0.304	0.056
-254.107	800.000	0.105	-0.344
-253.092	81.490	0.060	-0.065
-252.078	-42.573	-0.356	-0.182
-251.063	-200.000	0.036	-0.323
-250.049	5.956	-0.217	0.161
-249.034	-125.334	0.179	0.028
-248.019	52.847	-0.102	-0.098
-247.005	232.550	0.093	-0.154
-245.990	800.000	-0.060	0.209
-244.976	-30.367	0.221	-0.126
-243.961	175.828	0.201	-0.293
-242.946	-32.720	-0.169	-0.095
-241.932	-127.274	-0.482	0.071
-240.917	800.000	-0.033	-0.129
-239.903	-116.838	-0.156	-0.029
-238.888	-111.972	0.299	0.061
-237.873	-108.628	0.151	0.033
-236.859	453.488	-0.052	0.116
-235.844	-200.000	0.041	-0.340
-234.830	710.243	0.101	-0.267
-233.815	75.561	-0.165	-0.175
-232.800	-47.276	0.145	-0.071
-231.786	-200.000	-0.005	-0.172
-230.771	111.143	-0.128	-0.155
-229.757	800.000	0.092	0.377
-228.742	-37.571	0.265	-0.142
-227.727	-45.592	0.248	0.123
-226.713	-59.234	0.163	-0.070
-225.698	-200.000	0.061	-0.381
-224.684	-76.243	-0.321	-0.113
-223.669	800.000	-0.088	-0.268
-222.655	800.000	-0.049	0.153
-221.640	643.578	-0.135	0.344
-220.625	23.410	0.122	0.101
-219.611	-52.862	0.248	-0.115
-218.596	-76.601	0.124	-0.044
-217.582	-47.343	0.422	0.206
-216.567	-100.458	-0.276	-0.068
-215.552	-156.919	-0.121	0.007
-214.538	-116.172	-0.291	0.054
-213.523	800.000	0.022	-0.062
-212.509	456.035	-0.015	-0.034
-211.494	4.407	0.277	-0.203
-210.479	382.135	0.198	-0.408
-209.465	550.508	0.067	0.161
-208.450	606.007	0.048	-0.120
-207.436	-200.000	-0.057	-0.361
-206.421	800.000	-0.045	-0.140
-205.406	-200.000	-0.066	0.318
-204.392	-139.725	0.106	0.011
-203.377	-97.742	-0.233	0.061
-202.363	-85.109	-0.220	0.069
-201.348	303.449	-0.216	-0.401
-200.333	3.970	0.185	-0.136
-199.319	694.854	-0.039	-0.102
-198.304	-128.788	0.067	-0.009
-197.290	-145.528	0.127	-0.011
-196.275	-12.064	-0.049	0.032
-195.260	-199.319	0.196	-0.001
-194.246	81.767	0.085	-0.092
-193.231	-160.089	-0.245	0.013
-192.217	800.000	0.052	-0.180
-191.202	60.232	0.148	0.147
-190.187	53.540	-0.083	-0.080
-189.173	-200.000	0.040	0.323
-188.158	800.000	0.076	0.215
-187.144	452.820	-0.098	-0.218
-186.129	-106.291	0.163	-0.037
-185.114	63.814	-0.261	-0.263
-184.100	321.516	0.038	0.072
-183.085	-61.403	0.188	-0.079
-182.071	198.316	0.149	0.228
-181.056	-64.623	0.387	-0.157
-180.042	-200.000	0.013	0.359
-179.027	-76.932	-0.231	-0.081
-178.012	-22.754	0.213	0.129
-176.998	257.322	-0.270	0.465
-175.983	-200.000	-0.004	-0.214
-174.969	41.810	0.208	-0.188
-173.954	-23.196	0.467	-0.281
-172.939	-198.274	-0.128	0.001
-171.925	417.112	-0.058	-0.124
-170.910	-200.000	0.009	-0.495
-169.896	-152.243	-0.474	-0.034
-168.881	216.711	-0.057	-0.091
-167.866	31.457	-0.271	-0.233
-166.852	-200.000	-0.022	-0.208
-165.837	-111.748	-0.165	0.033
-164.823	800.000	0.041	0.174
-163.808	-2.650	-0.215	0.150
-162.793	126.323	-0.162	0.206
-161.779	66.912	0.059	-0.060
-160.764	-68.776	-0.123	0.047
-159.750	-185.332	-0.168	0.003
-158.735	-200.000	0.020	-0.125
-157.720	-200.000	0.003	0.149
-156.706	-150.381	0.375	0.029
-155.691	-48.575	-0.092	-0.044
-154.677	-119.901	0.134	0.023
-153.662	-200.000	0.003	-0.453
-152.647	45.055	-0.125	0.116
-151.633	19.668	-0.133	0.107
-150.618	-63.639	-0.240	-0.099
-149.604	-54.381	-0.122	-0.055
-148.589	-55.420	0.074	-0.033
-147.574	-40.280	0.465	0.242
-146.560	-68.613	0.398	0.154
-145.545	1.935	0.028	-0.020
-144.531	214.358	0.183	0.291
-143.516	405.759	-0.094	0.199
-142.502	-115.606	-0.167	-0.031
-141.487	800.000	-0.024	0.084
-140.472	-145.614	0.202	0.018
-139.458	-110.552	0.347	0.072
-138.443	242.627	0.056	0.094
-137.429	-200.000	-0.061	-0.441
-136.414	-58.787	-0.087	-0.038
-135.399	-12.310	-0.249	-0.163
-134.385	-124.462	0.294	-0.046
-133.370	363.802	-0.102	-0.205
-132.356	800.000	0.120	-0.362
-131.341	94.293	-0.188	0.213
-130.326	-114.293	-0.180	-0.035
-129.312	-200.000	0.007	0.167
-128.297	800.000	0.048	0.167
-127.283	-200.000	-0.020	0.136
-126.268	-67.592	0.245	-0.096
-125.253	-186.422	-0.336	0.005
-124.239	36.994	-0.259	0.229
-123.224	-200.000	0.013	0.156
-122.210	-25.763	0.186	0.109
-121.195	-200.000	0.014	-0.137
-120.180	-100.513	0.236	0.058
-119.166	-14.202	0.224	0.144
-118.151	47.007	0.241	-0.224
-117.137	447.542	0.038	0.083
-116.122	393.399	0.232	-0.482
-115.107	-54.900	0.139	-0.063
-114.093	-200.000	-0.050	0.269
-113.078	-200.000	-0.023	-0.274
-112.064	-200.000	-0.053	-0.453
-111.049	13.053	-0.285	0.220
-110.034	754.896	-0.050	-0.135
-109.020	-21.220	0.113	-0.069
-108.005	800.000	0.096	-0.305
-106.991	-42.389	-0.052	0.026
-105.976	-129.970	0.121	-0.017
-104.962	-200.000	0.008	0.067
-103.947	351.866	0.175	-0.347
-102.932	-107.442	0.157	0.034
-101.918	57.025	-0.169	0.164
-100.903	-70.784	-0.107	-0.040
-99.889	-200.000	-0.014	-0.114
-98.874	-200.000	0.006	0.108
-97.859	-200.000	-0.034	-0.358
-96.845	-64.684	-0.361	0.146
-95.830	-94.072	0.101	0.028
-94.816	-200.000	0.013	-0.141
-93.801	800.000	-0.049	0.199
-92.786	-72.617	0.125	-0.046
-91.772	53.618	-0.096	0.092
-90.757	800.000	-0.038	0.159
-89.743	147.716	-0.119	0.159
-88.728	-44.325	0.221	0.110
-87.713	-61.329	0.236	-0.099
-86.699	59.830	0.043	-0.042
-85.684	800.000	-0.076	-0.216
-84.670	472.592	-0.072	-0.161
-83.655	-200.000	0.012	0.103
-82.640	36.063	-0.272	0.239
-81.626	136.691	-0.187	0.244
-80.611	-73.313	0.136	-0.049
-79.597	502.971	0.091	0.210
-78.582	-13.470	0.100	0.064
-77.567	101.777	-0.191	0.222
-76.553	59.080	-0.063	0.061
-75.538	-73.135	-0.249	0.091
-74.524	-67.260	0.128	0.050
-73.509	-200.000	0.215	0.000
-72.494	82.412	-0.189	-0.205
-71.480	525.411	0.048	0.112
-70.465	149.916	-0.051	-0.068
-69.451	-89.222	-0.063	0.019
-68.436	757.752	-0.014	0.038
-67.422	586.130	0.008	0.020
-66.407	-200.000	0.000	0.229
-65.392	-200.000	0.004	0.045
-64.378	-192.188	-0.133	-0.001
-63.363	800.000	0.093	0.262
-62.349	9.033	0.142	0.107
-61.334	68.660	-0.599	-0.612
-60.319	-164.814	0.551	0.025
-59.305	-200.000	0.108	-0.742
-58.290	87.414	0.509	0.561
-57.276	732.541	0.520	1.386
-56.261	-200.000	76.407	512.284
-55.246	514.247	1339.199	3114.621
-54.232	144.929	2572.426	3428.575
-53.217	115.669	2248.947	2741.209
-52.203	51.026	1771.528	1674.060
-51.188	43.946	1570.616	1434.279
-50.173	41.161	1541.253	1388.026
-49.159	57.349	1578.283	1535.587
-48.144	62.959	1597.727	1593.892
-47.130	44.473	1561.035	1429.005
-46.115	40.859	1546.623	1390.528
-45.100	40.587	1544.298	1386.481
-44.086	40.602	1541.535	1384.051
-43.071	40.513	1539.278	1381.348
-42.057	40.516	1537.373	1379.608
-41.042	40.491	1535.757	1377.929
-40.027	40.469	1534.467	1376.565
-39.013	40.386	1533.080	1374.688
-37.998	40.517	1531.349	1373.987
-36.984	40.509	1530.782	1373.367
-35.969	40.517	1529.019	1371.788
-34.954	40.494	1527.837	1370.515
-33.940	40.544	1526.537	1369.639
-32.925	40.506	1525.077	1368.018
-31.911	40.530	1523.374	1366.599
-30.896	40.610	1521.551	1365.459
-29.881	40.682	1520.420	1364.885
-28.867	40.580	1519.411	1363.227
-27.852	40.586	1518.033	1361.978
-26.838	40.595	1516.390	1360.509
-25.823	40.559	1514.412	1358.433
-24.809	40.534	1513.061	1356.999
-23.794	40.554	1511.558	1355.734
-22.779	40.562	1510.749	1355.004
-21.765	40.636	1509.312	1354.172
-20.750	40.610	1508.021	1352.782
-19.736	40.552	1507.554	1351.911
-18.721	40.448	1506.272	1349.998
-17.706	40.448	1505.139	1348.932
-16.692	40.569	1503.500	1348.227
-15.677	40.482	1502.565	1346.749
-14.663	40.418	1501.642	1345.431
-13.648	40.322	1500.860	1344.026
-12.633	40.460	1499.956	1344.101
-11.619	40.409	1499.227	1343.048
-10.604	40.421	1498.708	1342.613
-9.590	40.415	1497.374	1341.319
-8.575	40.486	1496.223	1340.718
-7.560	40.483	1495.176	1339.709
-6.546	40.433	1494.625	1338.819
-5.531	40.398	1493.898	1337.882
-4.517	40.426	1492.738	1336.977
-3.502	40.393	1491.776	1335.840
-2.487	40.455	1490.618	1335.167
-1.473	40.460	1489.865	1334.472
-0.458	40.507	1488.070	1333.127
0.556	40.759	1479.675	1323.702
1.571	38.179	1452.627	1282.473
2.586	34.485	1390.513	1204.258
3.600	32.371	1306.765	1119.065
4.615	29.964	1257.524	1063.006
5.629	24.605	1197.268	982.597
6.644	12.677	1104.755	845.686
7.659	3.608	1058.003	765.039
8.673	2.453	1051.631	754.671
9.688	1.988	1048.832	750.309
10.702	1.898	1046.905	748.427
11.717	1.754	1045.331	746.525
12.731	5.329	1049.901	767.299
13.746	16.286	1065.676	833.108
14.761	24.484	1075.663	881.497
15.775	25.418	1076.500	886.716
16.790	25.509	1076.002	886.677
17.804	25.308	1075.297	885.026
18.819	25.031	1074.380	882.830
19.834	25.200	1074.022	883.290
20.848	25.460	1073.117	883.745
21.863	25.368	1073.254	883.330
22.877	25.493	1072.375	883.139
23.892	25.364	1072.409	882.457
24.907	25.350	1070.910	881.076
25.921	25.309	1070.407	880.385
26.936	25.288	1069.530	879.484
27.950	25.318	1068.193	878.452
28.965	25.389	1066.986	877.730
29.980	25.159	1065.988	875.707
30.994	25.183	1064.509	874.529
32.009	25.386	1063.631	874.722
33.023	25.490	1063.363	874.931
34.038	25.206	1062.574	872.823
35.053	25.194	1061.594	871.881
36.067	25.332	1061.104	872.072
37.082	25.372	1059.903	871.204
38.096	25.356	1059.358	870.597
39.111	25.433	1059.054	870.644
40.126	25.524	1057.867	870.034
41.140	25.515	1056.392	868.698
42.155	25.247	1055.197	866.344
43.169	24.866	1053.819	863.300
44.184	24.939	1053.119	863.003
45.199	25.034	1051.737	862.251
46.213	24.794	1050.990	860.408
47.228	24.845	1050.101	859.848
48.242	25.100	1049.515	860.518
49.257	25.320	1048.545	860.699
50.271	25.187	1047.900	859.456
51.286	25.294	1047.368	859.461
52.301	25.471	1046.242	859.307
53.315	25.445	1045.684	858.645
54.330	25.341	1045.111	857.603
55.344	25.286	1044.390	856.671
56.359	25.256	1043.261	855.529
57.374	25.191	1043.038	854.960
58.388	25.117	1041.997	853.680
59.403	25.022	1040.978	852.314
60.417	25.063	1040.481	852.030
61.432	24.991	1039.345	850.682
62.447	24.941	1038.881	849.987
63.461	25.087	1038.281	850.115
64.476	25.163	1037.132	849.461
65.490	25.031	1036.516	848.256
66.505	24.926	1035.619	846.950
67.520	24.925	1034.603	846.038
68.534	24.937	1034.520	845.953
69.549	25.051	1033.136	845.282
70.563	24.708	1032.001	842.665
71.578	24.456	1031.685	841.146
72.593	24.611	1030.275	840.651
73.607	24.483	1029.053	838.974
74.622	24.340	1028.864	838.074
75.636	24.813	1028.105	839.602
76.651	24.816	1027.410	838.976
77.666	24.768	1026.307	837.778
78.680	24.636	1025.456	836.392
79.695	24.699	1025.017	836.250
80.709	24.761	1024.515	836.059
81.724	24.796	1023.583	835.388
82.739	24.798	1023.136	834.959
83.753	24.929	1022.235	834.762
84.768	25.157	1021.772	835.369
85.782	25.492	1021.363	836.522
86.797	25.615	1021.102	836.804
87.812	25.564	1019.764	835.397
88.826	25.337	1019.000	833.643
89.841	25.422	1018.081	833.211
90.855	25.583	1017.428	833.350
91.870	25.544	1016.387	832.245
92.884	25.606	1015.383	831.637
93.899	25.467	1014.542	830.229
94.914	25.321	1013.403	828.549
95.928	25.469	1013.232	829.023
96.943	25.566	1011.967	828.361
97.957	25.192	1010.634	825.473
98.972	25.001	1009.820	823.858
99.987	24.722	1008.858	821.720
101.001	24.914	1008.200	821.990
102.016	25.362	1007.656	823.530
103.030	25.327	1006.904	822.680
104.045	25.127	1006.131	821.064
105.060	24.976	1005.240	819.572
106.074	24.920	1003.592	817.900
107.089	24.811	1003.175	816.988
108.103	25.159	1003.133	818.472
109.118	25.277	1002.032	818.038
110.133	24.979	1000.362	815.247
111.147	24.978	999.633	814.575
112.162	24.823	998.785	813.107
113.176	24.700	997.381	811.336
114.191	24.859	996.731	811.457
115.206	24.934	996.061	811.179
116.220	24.665	995.235	809.215
117.235	24.444	994.047	807.178
118.249	24.551	993.729	807.334
119.264	24.752	992.480	807.153
120.279	24.639	991.734	805.965
121.293	24.474	991.630	805.068
122.308	24.684	990.839	805.300
123.322	24.698	989.732	804.392
124.337	24.671	988.478	803.181
125.352	24.531	987.310	801.534
126.366	24.147	985.440	798.221
127.381	23.765	984.624	795.779
128.395	24.332	984.357	798.031
129.410	25.062	984.158	801.065
130.424	25.087	983.715	800.745
131.439	25.150	982.583	800.034
132.454	25.020	981.859	798.795
133.468	25.232	980.431	798.503
134.483	25.016	979.936	797.068
135.497	25.231	979.024	797.212
136.512	25.301	978.865	797.326
137.527	25.523	978.372	797.839
138.541	25.587	977.209	797.103
139.556	25.454	976.256	795.666
140.570	25.407	975.651	794.893
141.585	25.591	974.509	794.706
142.600	25.571	974.296	794.375
143.614	25.548	973.067	793.200
144.629	25.552	972.558	792.731
145.643	25.821	972.023	793.411
146.658	25.663	971.327	792.079
147.673	25.469	969.785	789.900
148.687	25.313	968.851	788.382
149.702	25.216	967.488	786.778
150.716	25.219	966.704	786.083
151.731	24.971	965.780	784.175
152.746	25.315	964.865	784.872
153.760	25.361	964.856	784.994
154.775	25.682	963.714	785.395
155.789	25.661	962.790	784.483
156.804	25.583	961.667	783.158
157.819	25.575	960.598	782.186
158.833	25.572	959.683	781.357
159.848	25.650	959.286	781.303
160.862	25.763	958.335	780.949
161.877	25.615	957.402	779.478
162.892	25.547	956.786	778.614
163.906	25.455	956.366	777.806
164.921	25.605	954.978	777.254
165.935	25.495	953.854	775.797
166.950	25.624	953.152	775.712
167.964	25.519	952.252	774.462
168.979	25.410	951.321	773.166
169.994	25.445	949.867	772.065
171.008	25.240	948.925	770.353
172.023	25.383	948.316	770.402
173.037	25.596	947.653	770.709
174.052	25.439	946.524	769.050
175.067	25.233	945.291	767.098
176.081	25.249	944.533	766.486
177.096	25.268	943.800	765.905
178.110	25.309	942.958	765.327
179.125	25.176	942.010	763.924
180.140	24.855	941.330	761.938
181.154	24.875	940.338	761.156
182.169	24.948	940.046	761.160
183.183	25.218	939.661	761.929
184.198	25.474	939.435	762.763
185.213	25.553	938.364	762.161
186.227	25.371	937.798	760.862
187.242	25.510	937.340	761.012
188.256	25.634	936.437	760.739
189.271	25.437	936.274	759.704
190.286	25.575	935.251	759.389
191.300	25.486	934.211	758.101
192.315	24.859	932.947	754.369
193.329	24.244	931.118	750.236
194.344	23.783	929.656	747.054
195.359	24.321	930.417	749.861
196.373	25.161	930.966	753.771
197.388	25.435	930.842	754.753
198.402	25.494	930.062	754.301
199.417	25.436	929.373	753.434
200.432	25.389	929.321	753.126
201.446	25.410	928.067	752.131
202.461	25.078	927.403	750.138
203.475	25.228	926.975	750.354
204.490	24.781	925.257	747.030
205.504	23.567	923.448	740.441
206.519	23.918	923.243	741.676
207.534	24.825	924.042	746.033
208.548	25.039	923.335	746.290
209.563	25.438	922.711	747.380
210.577	25.427	922.419	747.030
211.592	25.085	921.636	744.910
212.607	25.536	921.218	746.378
213.621	25.660	920.681	746.390
214.636	25.620	919.636	745.312
215.650	25.540	919.397	744.722
216.665	25.445	919.155	744.067
217.680	25.555	918.354	743.806
218.694	25.662	918.265	744.110
219.709	25.388	917.129	741.993
220.723	24.906	916.464	739.402
221.738	25.155	915.774	739.804
222.753	25.391	915.293	740.325
223.767	25.291	914.454	739.169
224.782	25.393	913.466	738.725
225.796	25.698	913.467	739.911
226.811	25.710	912.831	739.381
227.826	25.374	910.921	736.390
228.840	24.587	909.975	732.339
229.855	24.461	909.094	731.048
230.869	24.720	909.091	732.038
231.884	24.552	907.631	730.111
232.899	24.417	907.359	729.277
233.913	25.247	907.314	732.569
234.928	25.328	907.444	732.938
235.942	25.167	906.617	731.547
236.957	25.351	905.717	731.506
237.972	24.994	904.888	729.321
238.986	24.817	904.211	727.991
240.001	24.941	903.758	728.065
241.015	25.020	903.255	727.915
242.030	25.146	902.401	727.676
243.045	25.209	901.895	727.459
244.059	25.269	901.765	727.533
245.074	25.404	901.132	727.505
246.088	25.431	900.446	726.995
247.103	25.144	899.069	724.659
248.117	25.178	898.600	724.356
249.132	25.552	899.301	726.369
250.147	26.103	898.500	727.878
251.161	26.227	897.907	727.834
252.176	26.498	897.394	728.445
253.190	26.461	896.919	727.848
254.205	26.237	896.215	726.309
255.220	26.326	896.424	726.773
256.234	26.379	895.547	726.209
257.249	26.384	894.820	725.578
258.263	26.195	894.093	724.163
259.278	26.254	893.470	723.833
260.293	26.248	893.140	723.477
261.307	26.417	892.679	723.717
262.322	26.256	891.728	722.235
263.336	26.158	890.994	721.188
264.351	25.765	889.554	718.388
265.366	24.600	887.871	712.324
266.380	24.192	886.791	709.771
267.395	24.932	887.404	713.147
268.409	25.830	887.607	716.824
269.424	25.920	886.422	716.159
270.439	25.945	886.147	715.973
271.453	26.244	885.612	716.664
272.468	26.050	884.916	715.268
273.482	26.255	884.746	715.879
274.497	26.362	884.319	715.895
275.512	26.243	883.224	714.476
276.526	25.595	882.067	710.916
277.541	25.741	881.459	710.938
278.555	26.087	881.326	712.133
279.570	25.994	880.324	710.894
280.585	25.821	879.861	709.779
281.599	25.993	879.471	710.078
282.614	26.063	879.178	710.054
283.628	25.655	877.781	707.258
284.643	25.223	876.813	704.720
285.657	25.495	877.204	706.041
286.672	25.704	875.987	705.817
287.687	25.116	875.342	702.930
288.701	25.226	875.454	703.390
289.716	25.724	875.230	705.100
290.730	25.413	873.938	702.781
291.745	25.343	873.561	702.139
292.760	25.147	872.342	700.332
293.774	25.113	871.613	699.554
294.789	25.958	872.541	703.534
295.803	26.549	872.732	705.933
296.818	26.655	871.842	705.564
297.833	26.729	871.507	705.516
298.847	26.456	870.467	703.550
299.862	26.106	869.528	701.371
300.876	26.110	868.661	700.627
301.891	26.569	868.663	702.344
302.906	26.636	868.167	702.141
303.920	26.381	867.083	700.216
304.935	26.188	866.277	698.757
305.949	26.508	866.298	699.949
306.964	26.682	865.568	699.969
307.979	26.287	864.783	697.749
308.993	26.314	864.144	697.273
310.008	26.612	864.203	698.410
311.022	26.833	863.724	698.811
312.037	26.568	863.262	697.357
313.052	26.523	862.207	696.270
314.066	26.175	861.746	694.496
315.081	25.731	860.068	691.379
316.095	24.897	858.483	686.844
317.110	25.244	858.950	688.489
318.125	26.282	859.335	692.718
319.139	25.856	858.166	690.086
320.154	24.636	856.841	684.289
321.168	24.174	855.725	681.569
322.183	24.835	855.806	684.103
323.197	25.798	856.386	688.189
324.212	26.163	855.991	689.203
325.227	26.330	855.675	689.527
326.241	26.397	855.461	689.547
327.256	26.362	854.490	688.571
328.270	26.099	853.875	687.013
329.285	26.101	853.443	686.611
330.300	25.962	852.258	685.069
331.314	25.632	851.924	683.488
332.329	25.869	851.247	683.784
333.343	26.174	850.885	684.588
334.358	26.489	850.819	685.667
335.373	26.626	849.810	685.314
336.387	26.403	849.666	684.294
337.402	26.705	849.377	685.141
338.416	26.965	849.128	685.864
339.431	26.880	848.568	685.030
340.446	26.915	847.747	684.438
341.460	27.116	847.168	684.666
342.475	27.121	846.947	684.445
343.489	26.835	845.809	682.390
344.504	26.856	845.206	681.923
345.519	27.182	845.037	682.949
346.533	27.309	844.701	683.097
347.548	27.310	844.345	682.750
348.562	27.325	844.045	682.503
349.577	27.345	843.200	681.836
350.592	27.190	842.476	680.610
351.606	27.145	842.335	680.265
352.621	27.168	842.174	680.162
353.635	27.063	840.987	678.753
354.650	27.056	840.545	678.309
355.665	26.727	839.454	676.142
356.679	25.490	838.651	670.820
357.694	25.431	837.919	669.957
358.708	26.017	837.946	672.101
359.723	26.213	836.441	671.565
360.738	26.292	837.060	672.297
361.752	26.879	836.678	674.112
362.767	26.845	836.298	673.620
363.781	27.168	836.432	674.868
364.796	27.447	836.040	675.527
365.810	27.594	835.468	675.551
366.825	27.623	835.301	675.463
367.840	27.720	834.763	675.328
368.854	27.745	833.860	674.630
369.869	27.063	833.186	671.502
370.883	26.821	832.485	669.986
371.898	26.981	832.138	670.238
372.913	26.949	831.431	669.492
373.927	26.886	831.009	668.860
374.942	26.974	830.452	668.674
375.956	27.114	829.888	668.678
376.971	27.254	828.838	668.288
377.986	27.424	828.599	668.660
379.000	27.641	828.288	669.145
380.015	27.671	827.666	668.696
381.029	27.407	827.429	667.474
382.044	27.311	826.547	666.352
383.059	27.299	826.318	666.066
384.073	27.637	825.731	666.768
385.088	27.518	825.203	665.849
386.102	27.504	824.566	665.226
387.117	27.436	823.578	664.123
388.132	27.241	823.287	663.117
389.146	27.002	822.476	661.536
390.161	26.526	821.807	659.203
391.175	26.558	821.292	658.850
392.190	27.159	821.305	660.990
393.205	27.181	820.787	660.592
394.219	26.364	818.881	656.039
395.234	24.627	816.760	647.989
396.248	23.869	815.531	644.211
397.263	24.800	816.411	648.223
398.278	26.560	817.948	655.769
399.292	27.218	818.050	658.174
400.307	26.870	817.257	656.221
401.321	26.762	816.708	655.331
402.336	26.854	816.527	655.460
403.350	27.066	816.488	656.135
404.365	27.443	816.474	657.427
405.380	28.018	815.986	659.051
406.394	28.248	815.579	659.492
407.409	28.483	815.357	660.102
408.423	28.287	814.925	658.988
409.438	28.184	814.282	658.040
410.453	28.235	813.894	657.849
411.467	28.314	813.507	657.763
412.482	28.177	813.137	656.916
413.496	28.276	812.561	656.747
414.511	28.372	812.314	656.832
415.526	28.297	811.930	656.193
416.540	28.234	811.623	655.663
417.555	28.212	811.230	655.208
418.569	27.954	809.897	653.152
419.584	27.919	809.245	652.443
420.599	27.991	809.051	652.488
421.613	95.793	1264.632	1380.497
422.628	82.323	1331.003	1380.632
