DTS Sentinel unit serial number:	SN413079Multiplexer serial number:	ORYXHardware model number:	OX4-SRSoftware version number:	ORYX F/W v4.00 Oryx Data Collector v3.7.2.0data status	okinstallation	princeton_trtdifferential loss correction	single-endedforward channel	channel 3reverse channel	N/Adate	2019/09/15time	00:56:35forward acquisition time	60.00reverse acquisition time	0.00gamma	496.2192k internal	0.2320k external	0.2320temperature offset calibration	0.9965default loss term (dB/km)	0.3790temperature slope calibration	1.0000multiplexer offset coefficient	1.0000multiplexer slope coefficient	1.0000fibre end	0.00T internal ref (°C)	32.03T ext. ref 1 (°C)	4.54T ext. ref 2 (°C)	26.90length (m)	temperature (°C)	Stokes	anti-Stokes-747.200	-200.000	0.025	0.260
-746.185	800.000	-0.039	0.140
-745.171	107.367	-0.244	0.293
-744.156	-200.000	-0.035	0.422
-743.142	582.875	0.090	-0.223
-742.127	400.415	-0.069	0.145
-741.112	109.980	-0.181	-0.220
-740.098	220.600	0.056	0.090
-739.083	800.000	-0.040	0.138
-738.069	300.754	-0.170	0.318
-737.054	-200.000	0.062	0.307
-736.039	-137.890	-0.286	0.032
-735.025	279.340	-0.018	-0.032
-734.010	-15.642	-0.207	0.134
-732.996	-99.722	-0.170	-0.043
-731.981	733.212	-0.073	-0.197
-730.966	247.793	0.048	-0.082
-729.952	800.000	0.086	-0.261
-728.937	65.829	-0.111	-0.114
-727.923	101.876	0.201	-0.237
-726.908	-48.964	0.290	0.140
-725.894	-200.000	-0.022	-0.178
-724.879	-8.209	-0.121	-0.082
-723.864	-136.924	0.386	0.045
-722.850	535.568	-0.053	-0.127
-721.835	-52.557	-0.122	-0.057
-720.821	-26.983	-0.378	-0.223
-719.806	310.063	-0.019	-0.035
-718.791	-98.279	0.244	-0.063
-717.777	-200.000	0.009	-0.432
-716.762	800.000	0.032	-0.102
-715.748	214.293	0.146	0.234
-714.733	-83.717	0.023	0.008
-713.718	-200.000	-0.002	-0.034
-712.704	800.000	-0.093	-0.328
-711.689	120.694	-0.050	0.063
-710.675	184.789	0.134	-0.200
-709.660	-159.552	-0.183	-0.010
-708.645	-200.000	-0.020	-0.248
-707.631	151.297	0.069	-0.095
-706.616	-134.472	-0.236	0.029
-705.602	207.771	-0.163	0.257
-704.587	-7.088	-0.041	-0.028
-703.572	-39.412	-0.203	0.107
-702.558	213.494	-0.078	0.125
-701.543	-56.240	-0.152	0.068
-700.529	-92.001	0.287	-0.082
-699.514	-200.000	-0.001	0.342
-698.499	-138.902	-0.388	-0.043
-697.485	-41.680	0.288	0.149
-696.470	-148.784	0.346	-0.028
-695.456	-200.000	-0.013	-0.179
-694.441	-121.280	0.106	0.018
-693.426	-200.000	0.023	-0.218
-692.412	-55.183	-0.314	-0.143
-691.397	800.000	-0.067	0.258
-690.383	800.000	0.062	0.187
-689.368	122.434	-0.250	-0.315
-688.354	-200.000	0.001	-0.022
-687.339	199.463	-0.201	0.311
-686.324	73.610	-0.045	-0.048
-685.310	-155.282	-0.189	0.012
-684.295	133.807	0.123	0.160
-683.281	82.305	0.081	-0.088
-682.266	-151.093	0.463	-0.035
-681.251	-191.462	-0.164	-0.002
-680.237	-200.000	-0.015	-0.155
-679.222	-27.243	-0.203	-0.119
-678.208	-10.390	0.059	-0.040
-677.193	92.287	-0.163	-0.185
-676.178	505.486	-0.129	-0.300
-675.164	-200.000	0.015	-0.132
-674.149	-85.296	0.231	-0.073
-673.135	-200.000	-0.037	-0.218
-672.120	-173.128	-0.302	-0.009
-671.105	-200.000	-0.008	0.122
-670.091	-65.404	-0.136	0.055
-669.076	-44.558	0.212	-0.107
-668.062	-200.000	-0.019	-0.089
-667.047	-116.971	0.281	-0.052
-666.032	46.791	-0.329	-0.308
-665.018	-200.000	0.023	-0.287
-664.003	494.991	-0.111	-0.257
-662.989	-97.072	-0.421	0.111
-661.974	178.457	0.155	0.228
-660.959	65.929	0.243	-0.248
-659.945	-77.980	-0.348	-0.121
-658.930	-63.641	-0.217	-0.090
-657.916	-200.000	0.036	0.367
-656.901	-6.816	0.091	0.062
-655.886	100.315	-0.120	-0.141
-654.872	-5.947	-0.112	0.077
-653.857	-84.699	-0.152	0.048
-652.843	226.736	-0.042	-0.069
-651.828	-138.851	-0.199	-0.022
-650.814	415.437	0.123	-0.264
-649.799	-19.095	0.255	-0.160
-648.784	-200.000	0.044	0.218
-647.770	-19.200	0.257	0.161
-646.755	101.578	-0.042	-0.049
-645.741	-200.000	0.057	-0.392
-644.726	254.923	0.121	0.209
-643.711	-121.571	0.358	-0.060
-642.697	-200.000	-0.035	0.173
-641.682	-125.033	0.117	0.018
-640.668	800.000	0.030	0.100
-639.653	24.764	0.296	-0.247
-638.638	195.179	0.107	-0.164
-637.624	-118.770	-0.338	0.060
-636.609	-200.000	-0.003	-0.377
-635.595	-200.000	-0.026	-0.235
-634.580	101.936	-0.076	-0.089
-633.565	-1.174	0.443	-0.315
-632.551	-200.000	-0.039	0.184
-631.536	-68.486	-0.170	-0.066
-630.522	737.563	0.106	-0.285
-629.507	-200.000	0.008	0.145
-628.492	-200.000	0.019	-0.159
-627.478	24.006	-0.153	0.127
-626.463	-158.165	-0.417	0.025
-625.449	286.243	-0.138	-0.252
-624.434	187.228	0.040	-0.061
-623.419	-103.814	-0.260	0.061
-622.405	-200.000	-0.037	-0.346
-621.390	318.678	-0.063	0.119
-620.376	-200.000	0.033	0.158
-619.361	-151.200	-0.150	0.011
-618.346	-200.000	0.007	0.059
-617.332	-108.415	-0.276	0.060
-616.317	-170.331	-0.400	-0.014
-615.303	800.000	0.015	0.055
-614.288	257.395	-0.054	-0.093
-613.273	225.814	-0.231	-0.377
-612.259	-100.873	-0.168	0.041
-611.244	15.353	-0.221	0.174
-610.230	262.706	-0.035	-0.061
-609.215	800.000	0.123	-0.402
-608.201	-26.866	0.228	-0.134
-607.186	81.170	0.085	-0.093
-606.171	26.019	0.184	0.154
-605.157	-42.699	-0.084	-0.043
-604.142	-46.107	0.184	0.091
-603.128	68.176	0.123	-0.127
-602.113	-191.092	-0.366	0.004
-601.098	-200.000	0.001	-0.217
-600.084	-79.912	0.175	0.059
-599.069	83.758	-0.172	-0.188
-598.055	46.920	-0.322	-0.301
-597.040	293.194	-0.111	-0.204
-596.025	-68.177	-0.260	-0.102
-595.011	123.588	-0.081	-0.103
-593.996	93.187	-0.195	0.222
-592.982	347.243	-0.190	0.376
-591.967	-147.446	0.353	-0.030
-590.952	-17.115	0.345	0.219
-589.938	163.093	0.068	0.096
-588.923	7.921	0.170	0.128
-587.909	-200.000	-0.020	0.119
-586.894	-70.854	0.296	-0.112
-585.879	156.345	-0.167	0.231
-584.865	-146.417	0.128	0.011
-583.850	-94.846	-0.213	-0.058
-582.836	246.936	-0.098	0.166
-581.821	-23.961	0.182	-0.109
-580.806	136.668	-0.208	0.272
-579.792	14.648	-0.211	-0.166
-578.777	-60.849	-0.337	0.143
-577.763	2.988	0.296	0.216
-576.748	-81.854	-0.096	0.032
-575.733	210.981	-0.073	-0.115
-574.719	6.480	-0.213	-0.159
-573.704	12.499	-0.156	0.121
-572.690	12.785	-0.105	-0.082
-571.675	-22.503	-0.188	-0.114
-570.661	412.438	0.103	-0.221
-569.646	-107.091	0.054	-0.012
-568.631	51.642	0.185	-0.177
-567.617	800.000	0.022	-0.063
-566.602	-115.250	0.275	0.052
-565.588	311.561	-0.072	-0.135
-564.573	109.905	0.120	0.145
-563.558	37.960	0.044	-0.039
-562.544	28.934	-0.262	-0.223
-561.529	-200.000	0.008	-0.202
-560.515	519.234	0.040	-0.095
-559.500	-200.000	0.016	0.160
-558.485	144.665	0.099	0.133
-557.471	-26.013	-0.346	-0.204
-556.456	-142.368	-0.228	-0.023
-555.442	230.390	0.184	-0.303
-554.427	-93.637	0.013	0.004
-553.412	197.453	-0.036	0.055
-552.398	49.676	-0.233	-0.221
-551.383	-55.544	0.263	0.118
-550.369	-57.870	-0.260	-0.114
-549.354	800.000	0.060	0.225
-548.339	-200.000	-0.009	0.420
-547.325	-46.224	-0.053	0.026
-546.310	99.220	-0.083	-0.096
-545.296	-200.000	0.028	0.186
-544.281	55.913	0.333	0.324
-543.266	-120.468	0.160	-0.027
-542.252	-142.050	-0.122	0.012
-541.237	665.557	0.088	-0.227
-540.223	218.515	-0.176	0.281
-539.208	-122.417	-0.163	0.027
-538.193	800.000	-0.102	0.386
-537.179	-200.000	0.026	0.131
-536.164	-74.235	0.218	-0.079
-535.150	-200.000	-0.039	-0.191
-534.135	-14.189	0.039	-0.025
-533.121	60.137	-0.030	-0.030
-532.106	800.000	-0.026	-0.081
-531.091	636.004	0.031	0.080
-530.077	-113.385	-0.118	-0.023
-529.062	231.185	0.027	-0.045
-528.048	320.804	0.129	-0.246
-527.033	150.713	0.014	0.019
-526.018	-127.424	-0.152	0.022
-525.004	-117.131	-0.120	-0.022
-523.989	-171.364	0.257	0.009
-522.975	-191.320	0.345	0.004
-521.960	176.057	0.086	0.125
-520.945	800.000	0.072	-0.220
-519.931	-200.000	-0.021	0.450
-518.916	28.382	0.144	-0.122
-517.902	7.612	-0.121	0.091
-516.887	352.247	0.078	0.156
-515.872	-20.569	-0.194	0.120
-514.858	-122.594	-0.302	-0.049
-513.843	-200.000	-0.007	-0.589
-512.829	-200.000	-0.001	-0.026
-511.814	-109.752	0.274	-0.058
-510.799	-100.452	0.176	-0.044
-509.785	63.963	0.133	-0.134
-508.770	-200.000	0.049	-0.445
-507.756	-87.995	-0.236	-0.071
-506.741	92.261	-0.188	0.213
-505.726	-200.000	-0.028	-0.299
-504.712	192.962	0.040	0.061
-503.697	172.226	0.065	0.093
-502.683	-105.904	-0.140	0.032
-501.668	800.000	0.113	-0.424
-500.653	-28.974	-0.249	0.143
-499.639	800.000	0.092	0.279
-498.624	648.310	0.045	0.116
-497.610	3.435	-0.281	0.205
-496.595	327.473	-0.081	0.155
-495.581	-200.000	-0.071	0.321
-494.566	134.737	-0.098	-0.127
-493.551	800.000	-0.123	-0.394
-492.537	-38.375	-0.192	0.102
-491.522	-82.344	-0.268	-0.087
-490.508	-146.763	-0.300	-0.026
-489.493	-69.293	-0.155	0.059
-488.478	800.000	0.090	-0.269
-487.464	800.000	-0.045	0.186
-486.449	128.359	-0.138	0.175
-485.435	-177.584	0.426	-0.010
-484.420	-200.000	0.102	0.473
-483.405	-72.175	-0.117	-0.044
-482.391	16.143	0.075	-0.059
-481.376	14.466	0.186	-0.145
-480.362	-137.528	-0.113	0.013
-479.347	97.012	-0.234	-0.269
-478.332	94.332	-0.106	0.121
-477.318	-17.913	0.264	-0.166
-476.303	-200.000	-0.017	-0.238
-475.289	-200.000	-0.009	-0.304
-474.274	-100.805	0.250	-0.062
-473.259	-161.433	-0.374	0.019
-472.245	57.843	0.125	-0.123
-471.230	-160.088	-0.060	0.003
-470.216	302.159	-0.095	-0.175
-469.201	800.000	0.045	-0.197
-468.186	59.015	-0.169	0.166
-467.172	-200.000	0.009	0.323
-466.157	-200.000	-0.023	0.321
-465.143	800.000	-0.046	-0.168
-464.128	-23.606	-0.132	0.079
-463.113	-200.000	0.010	0.239
-462.099	-136.832	0.167	0.019
-461.084	-106.816	0.509	-0.113
-460.070	-103.521	0.055	0.013
-459.055	-200.000	-0.010	0.063
-458.040	-91.243	0.170	0.049
-457.026	-69.039	0.206	0.079
-456.011	-89.908	0.203	0.059
-454.997	23.983	-0.190	-0.157
-453.982	-132.878	0.192	0.024
-452.968	-5.712	-0.365	0.250
-451.953	644.791	-0.079	-0.202
-450.938	276.051	0.135	0.239
-449.924	-152.897	0.194	-0.014
-448.909	114.963	-0.122	-0.149
-447.895	384.433	-0.027	0.056
-446.880	-153.725	0.378	-0.026
-445.865	-145.484	0.282	0.025
-444.851	-127.028	0.228	0.034
-443.836	-85.012	0.096	0.030
-442.822	800.000	-0.063	-0.191
-441.807	-200.000	0.013	-0.146
-440.792	411.742	-0.051	-0.108
-439.778	-200.000	-0.018	-0.219
-438.763	536.873	0.075	-0.179
-437.749	-200.000	0.020	0.202
-436.734	-91.272	-0.284	0.081
-435.719	-200.000	-0.026	0.255
-434.705	306.975	-0.161	0.300
-433.690	-132.883	-0.291	0.037
-432.676	-200.000	0.052	-0.438
-431.661	162.626	-0.174	-0.243
-430.646	375.031	0.085	-0.174
-429.632	-61.514	-0.139	0.058
-428.617	32.719	-0.177	0.153
-427.603	-69.709	0.107	-0.041
-426.588	-181.574	0.160	-0.003
-425.573	758.528	0.065	-0.177
-424.559	-163.087	-0.059	0.003
-423.544	-108.863	0.207	0.044
-422.530	178.872	0.211	0.308
-421.515	12.042	-0.219	-0.168
-420.500	146.481	0.200	-0.268
-419.486	-31.874	0.299	0.167
-418.471	244.128	0.081	0.136
-417.457	721.331	-0.088	-0.233
-416.442	-42.066	0.203	0.104
-415.428	-100.955	-0.463	0.113
-414.413	-200.000	0.030	-0.139
-413.398	-97.875	0.242	-0.062
-412.384	800.000	-0.086	-0.245
-411.369	53.253	0.150	0.144
-410.355	13.607	0.054	-0.042
-409.340	112.795	0.027	-0.033
-408.325	800.000	0.073	-0.287
-407.311	172.199	0.247	-0.354
-406.296	-189.632	-0.375	0.004
-405.282	74.593	0.173	0.181
-404.267	-200.000	-0.006	0.256
-403.252	-20.980	0.076	-0.046
-402.238	-117.592	-0.306	0.055
-401.223	37.467	0.161	-0.142
-400.209	-200.000	0.013	-0.065
-399.194	-118.914	-0.264	-0.046
-398.179	286.475	-0.045	-0.081
-397.165	-151.299	-0.235	-0.018
-396.150	-200.000	0.045	-0.296
-395.136	-110.156	0.299	-0.062
-394.121	-13.164	-0.208	-0.135
-393.106	542.097	-0.071	-0.169
-392.092	-15.643	-0.231	0.147
-391.077	800.000	0.016	0.063
-390.063	-57.183	0.248	0.109
-389.048	-150.751	-0.199	0.015
-388.033	-43.860	-0.215	-0.108
-387.019	391.488	-0.194	0.402
-386.004	-61.763	0.080	0.033
-384.990	-41.603	0.235	0.121
-383.975	-200.000	0.031	0.281
-382.960	-153.685	0.254	0.017
-381.946	-200.000	-0.019	-0.153
-380.931	510.277	-0.067	-0.156
-379.917	-200.000	0.013	-0.156
-378.902	-16.864	-0.245	0.155
-377.888	-11.956	0.322	0.210
-376.873	40.693	0.122	-0.110
-375.858	-96.565	-0.285	-0.075
-374.844	-200.000	0.044	0.239
-373.829	545.673	-0.157	-0.373
-372.815	-103.423	-0.073	0.017
-371.800	235.157	-0.179	0.295
-370.785	800.000	-0.104	0.300
-369.771	-86.412	-0.135	-0.041
-368.756	-200.000	-0.036	-0.173
-367.742	-105.596	-0.224	0.051
-366.727	-200.000	-0.022	0.168
-365.712	160.883	0.092	0.127
-364.698	147.708	0.192	0.258
-363.683	-155.804	0.270	-0.017
-362.669	-174.561	-0.106	-0.003
-361.654	4.664	0.115	-0.084
-360.639	-58.986	-0.178	-0.077
-359.625	-3.187	0.335	0.233
-358.610	174.907	0.110	-0.159
-357.596	-12.980	0.105	0.068
-356.581	800.000	0.095	-0.325
-355.566	-96.242	-0.209	-0.055
-354.552	22.746	0.318	-0.259
-353.537	800.000	-0.079	-0.227
-352.523	-13.701	-0.078	-0.050
-351.508	503.748	-0.055	-0.127
-350.493	-126.342	0.208	-0.031
-349.479	-44.402	-0.087	-0.043
-348.464	-68.243	0.127	0.049
-347.450	12.886	0.098	-0.075
-346.435	51.614	0.108	-0.102
-345.420	40.008	-0.192	-0.172
-344.406	-93.246	0.275	0.076
-343.391	126.844	0.114	-0.144
-342.377	8.168	0.350	-0.262
-341.362	-137.415	-0.305	0.034
-340.348	236.934	-0.124	-0.204
-339.333	246.777	0.141	0.236
-338.318	282.365	-0.146	0.261
-337.304	-200.000	0.003	0.099
-336.289	23.972	0.145	0.119
-335.275	80.488	0.161	0.172
-334.260	800.000	-0.094	0.260
-333.245	-51.147	0.168	0.078
-332.231	800.000	0.091	-0.289
-331.216	-155.412	-0.359	0.023
-330.202	-79.390	0.210	0.071
-329.187	800.000	0.068	0.188
-328.172	800.000	0.037	-0.144
-327.158	32.958	0.056	-0.048
-326.143	525.247	0.007	0.016
-325.129	41.844	0.058	0.052
-324.114	-200.000	0.023	-0.125
-323.099	219.935	-0.190	-0.303
-322.085	6.343	0.143	0.106
-321.070	800.000	-0.072	0.288
-320.056	275.700	-0.136	0.240
-319.041	173.691	-0.203	0.292
-318.026	-120.775	-0.115	0.019
-317.012	-159.433	-0.016	-0.001
-315.997	31.427	0.166	0.142
-314.983	386.809	0.187	-0.385
-313.968	-119.182	0.231	-0.040
-312.953	-200.000	-0.010	-0.292
-311.939	-116.429	-0.130	-0.024
-310.924	-121.745	0.270	-0.044
-309.910	-13.481	0.234	-0.151
-308.895	-108.494	-0.218	-0.047
-307.880	687.600	0.186	0.483
-306.866	121.169	0.183	0.227
-305.851	800.000	-0.117	0.324
-304.837	-114.560	0.361	-0.069
-303.822	-200.000	0.032	-0.366
-302.807	35.761	-0.320	-0.280
-301.793	800.000	0.050	0.197
-300.778	299.576	0.150	0.274
-299.764	-200.000	0.005	0.254
-298.749	-200.000	0.042	0.205
-297.735	-62.967	-0.114	-0.047
-296.720	800.000	0.033	-0.099
-295.705	-111.481	-0.476	0.096
-294.691	800.000	0.011	0.047
-293.676	-1.369	-0.268	-0.188
-292.662	-200.000	-0.044	0.246
-291.647	392.437	-0.047	0.097
-290.632	-200.000	0.008	-0.047
-289.618	-132.664	-0.180	-0.023
-288.603	-106.646	0.128	0.028
-287.589	405.784	0.086	-0.180
-286.574	120.962	-0.094	0.116
-285.559	800.000	-0.048	0.184
-284.545	-52.539	-0.213	-0.098
-283.530	-14.949	0.239	-0.152
-282.516	-120.637	-0.589	0.099
-281.501	-88.459	-0.284	0.084
-280.486	-3.347	0.269	0.186
-279.472	-121.067	-0.110	0.018
-278.457	-77.737	-0.031	-0.011
-277.443	430.164	-0.133	-0.286
-276.428	611.839	-0.034	-0.083
-275.413	18.928	-0.155	0.123
-274.399	-62.616	0.147	-0.061
-273.384	155.633	-0.159	0.217
-272.370	145.154	0.203	0.269
-271.355	512.653	0.019	0.045
-270.340	97.621	0.041	0.047
-269.326	-200.000	-0.067	-0.309
-268.311	800.000	-0.046	-0.139
-267.297	531.146	0.098	0.230
-266.282	-153.715	-0.543	-0.037
-265.267	169.614	-0.093	0.132
-264.253	30.195	-0.222	0.188
-263.238	-200.000	-0.011	0.416
-262.224	800.000	0.069	0.278
-261.209	199.824	-0.077	0.117
-260.195	65.020	0.181	0.181
-259.180	318.409	0.068	-0.128
-258.165	-35.795	0.148	-0.080
-257.151	509.424	0.137	-0.316
-256.136	-104.089	0.191	0.044
-255.122	140.213	-0.280	-0.367
-254.107	124.135	0.067	0.084
-253.092	155.760	-0.198	-0.271
-252.078	118.261	0.175	0.214
-251.063	-40.347	0.243	0.125
-250.049	-200.000	0.055	-0.365
-249.034	-82.231	-0.213	-0.069
-248.019	-200.000	0.010	0.203
-247.005	213.300	-0.166	0.260
-245.990	800.000	0.036	0.132
-244.976	143.126	0.192	-0.254
-243.961	103.193	0.223	0.259
-242.946	-200.000	-0.018	-0.163
-241.932	-28.813	0.318	-0.181
-240.917	-147.854	-0.159	0.013
-239.903	218.344	0.050	0.080
-238.888	-32.021	-0.168	-0.093
-237.873	-90.799	-0.203	0.058
-236.859	8.453	-0.172	-0.128
-235.844	-169.265	-0.251	-0.009
-234.830	25.771	0.113	0.094
-233.815	-9.377	0.307	-0.203
-232.800	-42.140	-0.254	-0.129
-231.786	107.901	-0.066	-0.078
-230.771	-200.000	-0.017	0.166
-229.757	-200.000	0.041	0.288
-228.742	-200.000	-0.028	0.173
-227.727	-200.000	0.011	0.140
-226.713	-200.000	0.083	0.389
-225.698	-200.000	0.080	0.365
-224.684	800.000	-0.008	0.033
-223.669	800.000	0.029	0.088
-222.655	358.550	-0.069	-0.136
-221.640	124.785	0.195	0.244
-220.625	41.284	0.178	-0.159
-219.611	-29.066	0.167	0.095
-218.596	-200.000	-0.018	-0.084
-217.582	-41.275	0.284	0.145
-216.567	-200.000	0.012	0.148
-215.552	118.154	-0.243	0.297
-214.538	102.673	-0.129	0.149
-213.523	39.263	0.151	-0.133
-212.509	-88.133	-0.122	-0.036
-211.494	8.989	0.204	-0.152
-210.479	800.000	-0.065	-0.185
-209.465	-29.222	-0.136	0.077
-208.450	-200.000	-0.031	-0.204
-207.436	125.918	-0.078	0.098
-206.421	-35.583	-0.216	-0.116
-205.406	-138.989	-0.066	-0.007
-204.392	-200.000	-0.105	0.471
-203.377	48.804	-0.258	0.239
-202.363	-137.745	0.379	0.042
-201.348	-200.000	0.025	0.128
-200.333	-175.053	0.160	0.004
-199.319	94.665	0.125	0.141
-198.304	114.244	-0.121	-0.146
-197.290	445.987	0.105	0.229
-196.275	522.274	-0.103	0.240
-195.260	-136.974	0.144	0.016
-194.246	-32.840	0.105	0.058
-193.231	-155.616	-0.189	0.012
-192.217	-139.557	0.093	-0.010
-191.202	276.941	-0.021	0.036
-190.187	-200.000	0.010	-0.060
-189.173	-84.831	-0.363	0.113
-188.158	642.353	0.019	-0.047
-187.144	18.052	0.283	-0.223
-186.129	-38.600	-0.238	0.124
-185.114	-81.182	0.270	-0.088
-184.100	800.000	0.113	-0.461
-183.085	800.000	0.039	-0.133
-182.071	86.908	0.232	0.254
-181.056	-130.240	-0.144	0.019
-180.042	56.252	0.226	-0.217
-179.027	149.731	0.193	-0.258
-178.012	104.497	-0.065	-0.076
-176.998	-200.000	0.020	0.263
-175.983	787.800	0.086	0.233
-174.969	-200.000	0.004	-0.096
-173.954	800.000	-0.089	-0.299
-172.939	-200.000	-0.019	0.177
-171.925	-200.000	-0.006	-0.065
-170.910	319.458	0.095	-0.178
-169.896	-67.931	0.153	0.059
-168.881	328.913	0.090	0.171
-167.866	21.509	0.179	0.144
-166.852	381.515	-0.107	-0.217
-165.837	61.937	-0.217	-0.214
-164.823	-111.006	-0.289	0.059
-163.808	130.488	0.256	0.324
-162.793	28.193	-0.047	-0.039
-161.779	800.000	0.164	0.525
-160.764	219.980	0.172	-0.272
-159.750	248.709	0.064	-0.108
-158.735	37.478	0.110	-0.096
-157.720	162.927	-0.095	0.132
-156.706	-135.428	0.397	0.047
-155.691	-108.369	0.234	0.050
-154.677	-93.669	-0.306	0.083
-153.662	-139.925	0.299	0.031
-152.647	53.108	-0.153	-0.145
-151.633	-200.000	0.033	-0.227
-150.618	-103.251	-0.104	0.024
-149.604	-52.687	0.162	0.074
-148.589	40.774	-0.068	0.060
-147.574	800.000	0.068	0.263
-146.560	69.947	0.154	0.157
-145.545	20.924	0.112	0.090
-144.531	25.585	-0.176	-0.145
-143.516	-200.000	0.587	-0.001
-142.502	-55.583	0.115	0.051
-141.487	800.000	0.048	0.195
-140.472	122.203	-0.095	-0.118
-139.458	663.685	0.139	0.354
-138.443	-102.845	-0.390	0.092
-137.429	-108.209	0.333	0.071
-136.414	494.676	-0.138	0.313
-135.399	192.322	0.128	0.191
-134.385	-69.517	0.147	-0.056
-133.370	145.820	-0.141	-0.187
-132.356	-29.719	0.073	0.041
-131.341	-20.110	0.067	0.041
-130.326	800.000	-0.062	-0.186
-129.312	-0.670	0.226	-0.158
-128.297	-76.341	0.131	-0.046
-127.283	-200.000	0.021	-0.237
-126.268	-200.000	0.075	-0.356
-125.253	83.906	-0.314	0.338
-124.239	-122.222	0.358	-0.058
-123.224	800.000	-0.017	-0.064
-122.210	279.218	-0.165	-0.291
-121.195	421.936	-0.084	0.178
-120.180	-51.345	0.182	-0.084
-119.166	-200.000	-0.012	-0.115
-118.151	-12.161	-0.122	0.079
-117.137	672.422	0.140	-0.358
-116.122	-200.000	-0.016	-0.172
-115.107	-200.000	0.038	0.195
-114.093	-200.000	-0.019	0.324
-113.078	126.516	0.138	-0.173
-112.064	-200.000	0.041	0.410
-111.049	-41.685	-0.231	0.117
-110.034	-35.944	-0.164	0.088
-109.020	-38.876	0.268	0.140
-108.005	-155.973	-0.270	0.017
-106.991	800.000	-0.061	0.181
-105.976	116.842	0.095	-0.115
-104.962	-113.976	0.168	0.032
-103.947	37.787	-0.107	-0.094
-102.932	5.007	-0.124	0.090
-101.918	-34.913	0.213	-0.114
-100.903	152.525	0.186	0.250
-99.889	565.324	-0.092	0.221
-98.874	-200.000	-0.016	0.276
-97.859	42.073	0.080	-0.071
-96.845	366.371	-0.098	-0.195
-95.830	-18.783	0.145	-0.089
-94.816	-200.000	-0.015	0.185
-93.801	-117.024	0.219	-0.039
-92.786	-144.446	0.375	-0.034
-91.772	-82.029	0.310	-0.100
-90.757	63.233	-0.076	0.075
-89.743	96.290	-0.061	-0.069
-88.728	13.293	0.201	-0.154
-87.713	-1.428	-0.278	-0.194
-86.699	-109.649	-0.085	0.018
-85.684	-81.406	0.250	0.081
-84.670	128.991	0.146	0.183
-83.655	-200.000	0.009	-0.160
-82.640	-98.743	0.194	0.049
-81.626	-92.227	-0.035	-0.010
-80.611	-136.166	0.466	0.054
-79.597	-49.036	0.223	0.105
-78.582	-104.926	-0.335	0.076
-77.567	-37.140	0.130	0.069
-76.553	-46.677	0.300	0.145
-75.538	454.769	-0.153	0.334
-74.524	-200.000	-0.018	0.148
-73.509	86.216	-0.158	0.171
-72.494	5.621	0.107	0.078
-71.480	-91.002	0.118	-0.034
-70.465	183.003	-0.185	-0.268
-69.451	-54.239	0.106	0.047
-68.436	23.757	-0.205	0.167
-67.422	-81.852	0.182	0.059
-66.407	-136.224	-0.032	0.004
-65.392	-0.684	0.168	-0.117
-64.378	276.021	-0.252	-0.441
-63.363	116.706	-0.042	-0.051
-62.349	62.088	-0.149	0.146
-61.334	58.424	-1.042	-1.006
-60.319	-44.755	0.495	0.243
-59.305	110.385	-0.492	-0.583
-58.290	88.825	1.049	1.149
-57.276	800.000	0.513	1.705
-56.261	-200.000	95.209	593.501
-55.246	659.788	1366.422	3462.173
-54.232	200.145	2541.632	3841.725
-53.217	119.421	2158.391	2629.643
-52.203	42.822	1704.564	1528.562
-51.188	35.262	1517.601	1309.459
-50.173	32.823	1490.930	1270.001
-49.159	52.515	1539.122	1446.075
-48.144	54.255	1557.059	1474.760
-47.130	35.503	1516.946	1310.329
-46.115	32.341	1502.175	1276.108
-45.100	32.091	1499.362	1271.969
-44.086	32.060	1497.215	1269.887
-43.071	32.047	1495.401	1268.216
-42.057	31.980	1494.067	1266.581
-41.042	31.915	1492.480	1264.746
-40.027	32.046	1490.795	1264.148
-39.013	31.992	1489.343	1262.502
-37.998	32.027	1488.129	1261.661
-36.984	31.998	1487.185	1260.614
-35.969	32.086	1485.540	1259.765
-34.954	32.132	1483.891	1258.625
-33.940	32.087	1482.718	1257.274
-32.925	32.058	1481.404	1255.921
-31.911	32.099	1479.990	1254.945
-30.896	32.004	1479.135	1253.535
-29.881	32.113	1477.458	1252.790
-28.867	32.057	1476.211	1251.310
-27.852	32.127	1474.468	1250.248
-26.838	32.108	1473.186	1248.988
-25.823	32.120	1471.410	1247.510
-24.809	32.073	1470.254	1246.166
-23.794	32.142	1468.176	1244.813
-22.779	32.123	1467.287	1243.883
-21.765	32.086	1466.251	1242.716
-20.750	32.066	1465.011	1241.481
-19.736	32.076	1464.096	1240.721
-18.721	31.977	1463.275	1239.325
-17.706	32.003	1461.893	1238.272
-16.692	32.048	1460.586	1237.415
-15.677	32.054	1459.238	1236.264
-14.663	31.963	1458.539	1235.026
-13.648	31.934	1457.810	1234.166
-12.633	31.990	1456.828	1233.658
-11.619	31.949	1456.259	1232.854
-10.604	31.973	1455.293	1232.144
-9.590	32.012	1454.100	1231.339
-8.575	31.961	1453.849	1230.749
-7.560	31.999	1452.524	1229.823
-6.546	31.849	1451.848	1228.220
-5.531	32.009	1450.611	1228.171
-4.517	31.900	1449.739	1226.675
-3.502	31.919	1448.750	1225.911
-2.487	32.054	1447.028	1225.286
-1.473	31.957	1446.503	1224.163
-0.458	32.004	1445.425	1223.504
0.556	30.576	1435.822	1212.221
1.571	27.586	1410.324	1171.405
2.586	24.301	1351.080	1101.837
3.600	22.500	1269.706	1024.910
4.615	21.164	1223.503	980.036
5.629	18.342	1167.019	919.572
6.644	10.926	1084.671	817.463
7.659	5.266	1045.283	760.230
8.673	4.649	1039.779	753.169
9.688	4.572	1036.705	750.504
10.702	4.530	1035.161	749.118
11.717	4.409	1033.533	747.293
12.731	6.450	1035.251	758.299
13.746	13.304	1044.658	798.314
14.761	18.428	1050.346	827.397
15.775	18.339	1049.820	826.478
16.790	17.288	1047.569	819.569
17.804	16.266	1045.233	812.749
18.819	15.378	1043.627	807.157
19.834	14.874	1042.482	803.779
20.848	14.567	1041.072	801.149
21.863	14.522	1040.438	800.371
22.877	14.215	1039.668	798.238
23.892	14.124	1038.692	796.980
24.907	13.956	1038.412	795.891
25.921	13.943	1037.514	795.070
26.936	13.959	1036.997	794.683
27.950	14.002	1035.819	793.911
28.965	14.103	1034.398	793.235
29.980	14.121	1033.773	792.771
30.994	14.174	1032.333	791.847
32.009	14.271	1031.498	791.599
33.023	14.354	1030.642	791.267
34.038	14.325	1029.754	790.380
35.053	14.270	1028.830	789.339
36.067	14.055	1028.353	787.883
37.082	14.196	1026.906	787.370
38.096	14.115	1026.477	786.591
39.111	14.191	1025.703	786.285
40.126	14.258	1024.532	785.634
41.140	14.185	1023.701	784.586
42.155	13.976	1022.808	782.846
43.169	13.922	1021.285	781.356
44.184	13.911	1020.180	780.391
45.199	13.824	1019.437	779.344
46.213	13.834	1018.292	778.449
47.228	13.923	1017.591	778.261
48.242	14.056	1016.427	777.925
49.257	14.026	1015.823	777.254
50.271	13.992	1014.639	776.118
51.286	14.179	1013.725	776.225
52.301	14.159	1013.242	775.693
53.315	14.115	1012.365	774.746
54.330	14.028	1011.476	773.595
55.344	14.033	1010.414	772.736
56.359	14.138	1009.398	772.376
57.374	13.943	1009.027	771.120
58.388	13.882	1008.438	770.318
59.403	14.020	1007.316	770.034
60.417	13.952	1006.426	768.969
61.432	13.953	1005.783	768.415
62.447	13.875	1004.972	767.365
63.461	13.635	1004.596	765.902
64.476	13.873	1003.001	765.716
65.490	13.704	1002.638	764.591
66.505	13.764	1001.667	764.062
67.520	13.746	1001.137	763.505
68.534	13.887	999.952	763.185
69.549	13.939	999.412	762.945
70.563	13.961	998.487	762.272
71.578	13.875	997.971	761.416
72.593	13.752	996.920	759.984
73.607	13.820	995.713	759.304
74.622	13.644	995.239	758.072
75.636	13.611	994.739	757.474
76.651	13.718	993.738	757.135
77.666	13.777	992.873	756.677
78.680	13.730	992.204	755.883
79.695	13.623	991.967	755.152
80.709	13.766	990.854	754.885
81.724	13.891	989.760	754.555
82.739	13.918	989.308	754.267
83.753	13.974	988.670	753.968
84.768	14.015	988.110	753.658
85.782	14.194	987.289	753.778
86.797	14.299	986.706	753.740
87.812	14.325	985.727	753.042
88.826	14.186	984.910	751.723
89.841	14.114	984.149	750.751
90.855	14.138	983.481	750.285
91.870	14.237	982.957	750.264
92.884	14.366	981.871	749.951
93.899	14.186	981.446	748.750
94.914	14.248	980.501	748.242
95.928	14.358	979.432	747.853
96.943	14.334	979.365	747.628
97.957	14.230	978.471	746.413
98.972	14.160	977.893	745.593
99.987	14.197	976.824	744.876
101.001	14.251	976.330	744.674
102.016	14.182	975.479	743.652
103.030	14.182	974.612	742.927
104.045	14.251	973.174	742.073
105.060	14.166	972.550	741.152
106.074	14.207	971.475	740.451
107.089	14.118	970.496	739.242
108.103	13.976	969.789	738.005
109.118	13.866	968.826	736.722
110.133	13.818	967.927	735.759
111.147	13.889	966.976	735.286
112.162	13.967	966.055	734.866
113.176	13.857	965.387	733.804
114.191	14.073	964.340	733.897
115.206	13.948	963.957	732.992
116.220	14.076	962.875	732.665
117.235	14.006	962.120	731.718
118.249	13.914	961.646	730.888
119.264	13.982	960.318	730.114
120.279	13.877	959.911	729.280
121.293	13.811	959.206	728.390
122.308	13.930	958.279	728.142
123.322	13.798	957.263	726.727
124.337	13.860	956.021	725.992
125.352	13.758	955.306	724.941
126.366	13.753	954.148	723.976
127.381	13.872	952.913	723.490
128.395	13.855	952.170	722.788
129.410	13.920	951.002	722.123
130.424	13.954	950.101	721.523
131.439	13.838	949.544	720.530
132.454	13.894	948.826	720.165
133.468	14.062	948.116	720.291
134.483	13.934	947.871	719.488
135.497	14.091	946.734	719.239
136.512	13.996	945.996	718.206
137.527	14.003	945.337	717.671
138.541	13.892	944.600	716.569
139.556	13.961	943.775	716.177
140.570	14.031	942.890	715.745
141.585	14.125	941.968	715.384
142.600	14.191	941.851	715.516
143.614	14.251	940.907	714.995
144.629	14.359	939.962	714.674
145.643	14.325	939.683	714.255
146.658	14.331	938.393	713.235
147.673	14.242	937.714	712.278
148.687	14.040	937.023	710.826
149.702	13.957	936.104	709.710
150.716	13.899	935.066	708.614
151.731	14.027	934.183	708.426
152.746	14.045	933.406	707.850
153.760	14.061	932.794	707.393
154.775	14.298	931.572	707.410
155.789	14.185	931.145	706.542
156.804	14.265	930.241	706.135
157.819	14.223	929.471	705.310
158.833	14.194	928.868	704.668
159.848	14.251	928.714	704.728
160.862	14.345	927.862	704.419
161.877	14.212	927.126	703.233
162.892	14.119	926.534	702.330
163.906	14.211	925.203	701.648
164.921	14.214	924.667	701.193
165.935	14.138	923.831	700.174
166.950	14.102	922.559	699.001
167.964	14.268	921.713	698.994
168.979	14.200	920.781	697.938
169.994	14.264	920.022	697.571
171.008	14.172	918.744	696.155
172.023	14.255	917.868	695.777
173.037	14.220	917.325	695.156
174.052	14.460	916.996	695.846
175.067	14.450	916.297	695.214
176.081	14.327	915.638	694.140
177.096	14.270	914.370	692.879
178.110	14.291	913.703	692.401
179.125	14.269	912.875	691.621
180.140	14.318	912.032	691.123
181.154	14.292	911.384	690.465
182.169	14.429	911.059	690.723
183.183	14.442	910.158	690.035
184.198	14.489	909.545	689.700
185.213	14.484	909.237	689.390
186.227	14.612	908.163	689.043
187.242	14.524	908.106	688.572
188.256	14.570	907.341	688.122
189.271	14.675	906.658	687.974
190.286	14.735	905.921	687.602
191.300	14.717	904.631	686.491
192.315	14.322	904.169	684.455
193.329	14.235	903.222	683.319
194.344	14.333	902.525	683.134
195.359	14.141	902.606	682.347
196.373	14.427	901.847	682.883
197.388	14.572	901.216	682.940
198.402	14.561	900.793	682.516
199.417	14.562	900.571	682.289
200.432	14.599	900.371	682.230
201.446	14.745	899.629	682.204
202.461	14.805	899.122	682.005
203.475	14.962	898.385	682.025
204.490	14.876	898.104	681.402
205.504	14.688	897.363	680.013
206.519	14.663	896.794	679.420
207.534	14.723	895.679	678.756
208.548	14.686	894.916	677.969
209.563	14.725	894.154	677.489
210.577	14.705	893.679	676.988
211.592	14.742	892.806	676.416
212.607	14.856	892.518	676.602
213.621	14.900	892.461	676.676
214.636	14.845	891.043	675.317
215.650	14.786	890.988	674.977
216.665	14.750	889.865	673.923
217.680	15.019	889.622	674.764
218.694	15.068	889.030	674.453
219.709	15.081	888.413	673.977
220.723	15.024	887.802	673.223
221.738	14.958	887.196	672.440
222.753	14.953	886.593	671.905
223.767	15.002	885.495	671.211
224.782	15.055	884.998	670.984
225.796	15.150	884.306	670.782
226.811	15.171	883.689	670.337
227.826	15.115	883.128	669.631
228.840	15.078	882.351	668.834
229.855	15.190	881.255	668.392
230.869	15.221	880.684	668.020
231.884	15.129	880.155	667.197
232.899	15.080	879.183	666.206
233.913	14.945	878.696	665.239
234.928	14.916	878.002	664.542
235.942	14.896	877.600	664.096
236.957	15.048	876.366	663.706
237.972	14.989	876.065	663.187
238.986	15.001	875.434	662.700
240.001	15.046	874.830	662.359
241.015	15.110	874.054	661.968
242.030	15.030	873.546	661.206
243.045	14.999	873.169	660.741
244.059	15.205	872.219	660.778
245.074	15.090	871.798	659.945
246.088	15.126	871.180	659.564
247.103	15.173	870.518	659.186
248.117	15.260	869.953	659.044
249.132	15.377	869.516	659.113
250.147	15.491	868.954	659.075
251.161	15.568	868.263	658.795
252.176	15.552	867.862	658.372
253.190	15.679	866.818	658.017
254.205	15.649	866.856	657.871
255.220	15.772	866.395	657.946
256.234	15.743	865.440	657.049
257.249	15.583	865.131	656.130
258.263	15.695	864.145	655.762
259.278	15.765	863.415	655.422
260.293	15.650	863.294	654.822
261.307	15.663	862.949	654.557
262.322	15.926	861.732	654.596
263.336	15.707	861.982	653.876
264.351	15.893	860.957	653.763
265.366	15.952	860.391	653.503
266.380	15.744	859.921	652.282
267.395	15.962	858.872	652.275
268.409	15.823	858.121	651.107
269.424	15.814	857.378	650.452
270.439	15.766	857.190	650.067
271.453	15.906	856.051	649.684
272.468	15.699	855.311	648.268
273.482	15.752	854.690	647.943
274.497	15.773	854.341	647.704
275.512	15.805	853.764	647.331
276.526	15.738	852.576	646.115
277.541	15.788	851.741	645.619
278.555	15.867	851.642	645.789
279.570	15.816	851.522	645.443
280.585	15.916	850.765	645.199
281.599	16.010	849.739	644.720
282.614	15.839	849.305	643.681
283.628	15.941	848.645	643.513
284.643	15.880	848.266	642.936
285.657	15.888	847.589	642.397
286.672	16.001	846.877	642.234
287.687	16.092	846.277	642.066
288.701	15.983	845.894	641.305
289.716	16.057	845.198	641.002
290.730	16.011	844.857	640.511
291.745	16.138	844.217	640.450
292.760	16.144	843.502	639.875
293.774	16.197	842.926	639.585
294.789	16.144	842.753	639.195
295.803	16.220	841.811	638.711
296.818	16.167	841.277	638.049
297.833	16.083	840.386	636.998
298.847	16.115	840.222	636.941
299.862	16.268	839.356	636.805
300.876	16.135	838.825	635.842
301.891	16.264	838.102	635.723
302.906	16.232	837.828	635.341
303.920	16.360	836.810	634.994
304.935	16.210	836.426	634.082
305.949	16.363	835.830	634.147
306.964	16.439	834.925	633.689
307.979	16.396	834.537	633.179
308.993	16.351	834.170	632.676
310.008	16.419	833.480	632.349
311.022	16.286	833.175	631.564
312.037	16.503	832.704	631.963
313.052	16.486	831.735	631.110
314.066	16.475	831.269	630.659
315.081	16.312	830.576	629.470
316.095	16.368	830.092	629.258
317.110	16.326	829.721	628.761
318.125	16.185	829.421	627.954
319.139	16.350	828.209	627.595
320.154	16.305	827.788	627.054
321.168	16.325	827.550	626.892
322.183	16.398	827.066	626.739
323.197	16.511	826.462	626.647
324.212	16.313	826.238	625.687
325.227	16.447	825.256	625.383
326.241	16.549	824.872	625.416
327.256	16.410	824.444	624.520
328.270	16.518	823.815	624.388
329.285	16.369	823.491	623.538
330.300	16.415	822.857	623.173
331.314	16.346	822.323	622.458
332.329	16.390	821.960	622.290
333.343	16.514	820.814	621.826
334.358	16.687	820.200	621.941
335.373	16.501	819.799	620.898
336.387	16.767	819.048	621.249
337.402	16.742	818.946	621.024
338.416	16.676	818.113	620.096
339.431	16.845	817.618	620.287
340.446	16.852	817.207	619.945
341.460	16.860	816.546	619.416
342.475	16.955	815.779	619.129
343.489	16.988	815.158	618.722
344.504	16.848	815.288	618.255
345.519	17.005	814.672	618.304
346.533	17.009	814.215	617.920
347.548	16.995	813.641	617.379
348.562	16.951	812.879	616.585
349.577	16.849	812.388	615.788
350.592	16.751	812.198	615.232
351.606	16.904	811.233	615.001
352.621	16.991	810.728	614.879
353.635	16.784	810.774	614.109
354.650	16.766	810.274	613.612
355.665	16.737	810.051	613.284
356.679	16.924	808.904	613.037
357.694	17.074	808.731	613.392
358.708	16.998	808.333	612.763
359.723	16.934	807.860	612.120
360.738	17.029	807.238	611.938
361.752	17.055	806.645	611.525
362.767	17.051	806.424	611.291
363.781	17.089	806.048	611.087
364.796	17.055	806.025	610.894
365.810	17.258	805.121	610.883
366.825	17.284	804.647	610.567
367.840	17.433	804.538	610.963
368.854	17.297	803.962	609.983
369.869	17.341	803.139	609.463
370.883	17.275	802.896	608.987
371.898	17.329	802.232	608.625
372.913	17.234	802.013	608.063
373.927	17.338	801.618	608.083
374.942	17.500	800.322	607.624
375.956	17.350	800.030	606.812
376.971	17.361	799.419	606.337
377.986	17.338	799.122	605.975
379.000	17.568	798.395	606.187
380.015	17.563	797.946	605.777
381.029	17.715	797.459	605.892
382.044	17.498	797.038	604.750
383.059	17.516	796.227	604.142
384.073	17.472	795.747	603.570
385.088	17.523	795.425	603.451
386.102	17.415	794.846	602.579
387.117	17.469	793.814	601.932
388.132	17.368	793.798	601.509
389.146	17.446	793.035	601.156
390.161	17.596	792.760	601.421
391.175	17.434	792.816	600.839
392.190	17.610	792.134	600.890
393.205	17.477	792.016	600.278
394.219	17.629	791.122	600.083
395.234	17.601	790.415	599.397
396.248	17.425	790.304	598.638
397.263	17.399	789.779	598.098
398.278	17.413	789.356	597.773
399.292	17.458	788.997	597.606
400.307	17.433	788.713	597.251
401.321	17.425	788.054	596.672
402.336	17.474	787.876	596.656
403.350	17.350	787.349	595.768
404.365	17.636	787.080	596.513
405.380	17.684	786.298	596.036
406.394	17.821	785.859	596.131
407.409	17.835	785.779	596.065
408.423	17.809	785.071	595.384
409.438	17.743	784.855	594.938
410.453	17.917	784.271	595.048
411.467	18.031	783.956	595.155
412.482	18.021	783.329	594.589
413.496	18.036	783.061	594.386
414.511	17.967	782.641	593.776
415.526	18.021	782.333	593.676
416.540	18.057	781.717	593.283
417.555	17.955	781.344	592.594
418.569	18.062	780.966	592.624
419.584	17.941	780.703	591.953
420.599	17.984	780.492	591.890
421.613	155.669	1369.126	1794.521
422.628	134.322	1454.899	1794.616
