DTS Sentinel unit serial number:	SN413079Multiplexer serial number:	ORYXHardware model number:	OX4-SRSoftware version number:	ORYX F/W v4.00 Oryx Data Collector v3.7.2.0data status	okinstallation	princeton_trtdifferential loss correction	single-endedforward channel	channel 3reverse channel	N/Adate	2019/09/19time	04:24:35forward acquisition time	60.00reverse acquisition time	0.00gamma	496.2192k internal	0.2346k external	0.2346temperature offset calibration	0.9991default loss term (dB/km)	0.3790temperature slope calibration	1.0000multiplexer offset coefficient	1.0000multiplexer slope coefficient	1.0000fibre end	0.00T internal ref (°C)	20.19T ext. ref 1 (°C)	0.62T ext. ref 2 (°C)	13.36length (m)	temperature (°C)	Stokes	anti-Stokes-747.200	-13.252	0.338	0.219
-746.185	-100.011	-0.170	-0.042
-745.171	390.234	-0.209	0.433
-744.156	-49.396	-0.254	-0.121
-743.142	-200.000	0.044	0.351
-742.127	-200.000	0.018	0.182
-741.112	25.984	0.118	-0.098
-740.098	420.042	-0.097	0.207
-739.083	290.138	0.255	0.463
-738.069	-35.837	-0.022	0.012
-737.054	800.000	0.034	0.141
-736.039	41.266	-0.119	-0.108
-735.025	33.775	0.193	0.168
-734.010	-200.000	0.045	-0.433
-732.996	800.000	0.108	-0.361
-731.981	800.000	0.129	0.438
-730.966	-200.000	-0.011	0.118
-729.952	-26.584	-0.121	0.071
-728.937	-200.000	0.026	-0.392
-727.923	-84.578	-0.299	0.094
-726.908	92.468	-0.315	-0.356
-725.894	-200.000	0.002	0.088
-724.879	230.696	0.086	0.141
-723.864	-22.123	-0.268	0.162
-722.850	21.722	0.244	-0.199
-721.835	-82.573	-0.053	0.017
-720.821	32.894	0.206	-0.179
-719.806	31.461	-0.232	0.199
-718.791	253.022	-0.085	0.146
-717.777	110.560	-0.044	0.053
-716.762	800.000	-0.057	-0.167
-715.748	1.019	0.221	-0.158
-714.733	59.488	-0.097	0.096
-713.718	-200.000	0.013	0.125
-712.704	462.436	-0.176	-0.392
-711.689	-200.000	0.080	-0.590
-710.675	77.448	-0.087	-0.093
-709.660	-200.000	-0.002	0.202
-708.645	-77.753	-0.274	-0.095
-707.631	157.560	0.359	-0.497
-706.616	-110.960	-0.209	-0.043
-705.602	21.817	-0.150	-0.122
-704.587	800.000	0.068	0.198
-703.572	-200.000	0.004	0.124
-702.558	97.146	0.064	0.074
-701.543	800.000	-0.043	0.169
-700.529	41.948	0.369	-0.334
-699.514	-110.804	-0.059	-0.012
-698.499	27.507	0.226	-0.190
-697.485	-164.074	-0.161	-0.007
-696.470	563.649	-0.082	0.198
-695.456	-69.983	-0.168	-0.064
-694.441	-200.000	-0.053	-0.461
-693.426	-97.649	0.257	-0.066
-692.412	800.000	-0.069	-0.255
-691.397	-110.177	-0.126	0.026
-690.383	595.149	0.174	-0.430
-689.368	61.623	-0.152	-0.151
-688.354	-113.081	0.384	0.076
-687.339	-200.000	-0.033	-0.149
-686.324	800.000	0.042	0.158
-685.310	770.338	0.074	-0.201
-684.295	-200.000	-0.005	0.205
-683.281	126.658	0.076	0.096
-682.266	-123.162	-0.284	-0.045
-681.251	55.920	-0.202	-0.195
-680.237	-154.962	0.425	0.028
-679.222	-200.000	0.005	0.416
-678.208	800.000	0.068	0.283
-677.193	-129.036	-0.186	-0.026
-676.178	-88.973	0.368	0.109
-675.164	101.692	-0.135	0.157
-674.149	20.774	-0.157	-0.127
-673.135	-4.631	-0.140	0.097
-672.120	800.000	0.090	-0.301
-671.105	800.000	0.051	-0.184
-670.091	-130.650	-0.188	0.025
-669.076	-42.438	0.194	0.099
-668.062	-57.285	0.181	0.079
-667.047	296.564	0.052	-0.095
-666.032	146.997	0.159	0.213
-665.018	315.299	-0.130	-0.244
-664.003	-74.063	-0.149	-0.054
-662.989	71.981	0.171	-0.177
-661.974	-192.070	-0.077	-0.001
-660.959	-11.968	-0.208	0.136
-659.945	93.482	0.358	0.404
-658.930	216.357	0.181	-0.286
-657.916	-200.000	0.038	-0.440
-656.901	136.040	-0.078	-0.102
-655.886	280.773	0.028	-0.051
-654.872	140.206	0.197	-0.259
-653.857	-117.515	0.037	-0.007
-652.843	-46.181	-0.115	0.056
-651.828	768.656	0.021	0.058
-650.814	-200.000	0.048	-0.235
-649.799	99.318	-0.197	-0.227
-648.784	351.732	0.060	-0.117
-647.770	-178.121	0.327	0.008
-646.755	-200.000	0.004	-0.235
-645.741	291.399	0.121	-0.218
-644.726	-155.007	0.292	0.019
-643.711	800.000	-0.121	0.354
-642.697	8.657	-0.122	-0.091
-641.682	-200.000	-0.002	0.185
-640.668	87.419	0.147	0.162
-639.653	-62.998	0.407	0.167
-638.638	66.712	-0.217	0.220
-637.624	17.311	0.177	0.140
-636.609	32.891	-0.075	-0.064
-635.595	-117.286	-0.400	-0.072
-634.580	65.879	0.130	0.131
-633.565	800.000	0.052	0.179
-632.551	-200.000	0.069	-0.329
-631.536	-200.000	0.001	0.042
-630.522	43.359	-0.052	0.047
-629.507	-80.217	-0.301	0.100
-628.492	-200.000	0.006	-0.241
-627.478	567.498	-0.108	-0.260
-626.463	33.162	0.055	0.047
-625.449	800.000	-0.055	0.211
-624.434	-94.934	0.147	0.040
-623.419	-117.354	0.227	0.041
-622.405	-52.586	-0.094	0.043
-621.390	-41.760	0.161	0.082
-620.376	-7.791	-0.135	0.091
-619.361	800.000	0.050	-0.174
-618.346	800.000	0.022	-0.062
-617.332	132.021	0.116	-0.148
-616.317	-99.979	-0.048	0.012
-615.303	-200.000	-0.001	0.043
-614.288	-91.152	0.170	0.048
-613.273	-200.000	-0.009	-0.054
-612.259	651.933	-0.108	0.275
-611.244	-200.000	0.017	0.119
-610.230	495.275	-0.046	-0.106
-609.215	-33.890	0.216	-0.118
-608.201	82.005	-0.126	-0.135
-607.186	468.145	0.025	-0.056
-606.171	-200.000	-0.060	-0.305
-605.157	169.462	0.097	-0.138
-604.142	48.376	0.232	0.216
-603.128	-37.740	0.137	-0.072
-602.113	20.647	-0.208	-0.167
-601.098	800.000	-0.111	0.458
-600.084	112.167	-0.134	-0.161
-599.069	-200.000	-0.008	-0.125
-598.055	53.271	-0.180	0.172
-597.040	103.193	0.167	0.195
-596.025	-97.910	-0.139	0.036
-595.011	800.000	-0.030	0.117
-593.996	800.000	-0.121	0.450
-592.982	48.092	0.038	-0.035
-591.967	306.191	-0.199	0.368
-590.952	-200.000	0.025	0.167
-589.938	800.000	-0.062	0.194
-588.923	-200.000	-0.033	-0.384
-587.909	-200.000	0.031	-0.410
-586.894	-84.969	0.102	0.032
-585.879	-115.452	-0.103	-0.019
-584.865	301.886	0.091	-0.167
-583.850	-189.386	0.074	0.001
-582.836	-93.542	0.096	0.026
-581.821	-89.665	0.100	-0.029
-580.806	-200.000	-0.138	0.000
-579.792	166.609	0.165	-0.233
-578.777	-200.000	-0.018	0.210
-577.763	-167.171	-0.312	0.013
-576.748	-200.000	-0.024	0.212
-575.733	-200.000	0.038	-0.183
-574.719	60.728	0.229	0.226
-573.704	800.000	-0.050	0.184
-572.690	768.731	0.040	-0.107
-571.675	188.046	0.116	-0.172
-570.661	18.858	-0.162	-0.129
-569.646	120.376	-0.100	-0.123
-568.631	3.132	-0.093	0.067
-567.617	87.834	-0.148	0.163
-566.602	187.667	0.152	0.226
-565.588	82.060	-0.194	0.208
-564.573	22.108	-0.228	-0.185
-563.558	117.956	-0.344	-0.421
-562.544	78.040	0.197	0.208
-561.529	-129.281	0.152	-0.021
-560.515	38.054	0.185	0.163
-559.500	800.000	0.069	0.212
-558.485	109.879	0.067	0.080
-557.471	800.000	0.054	-0.151
-556.456	-111.183	0.113	-0.023
-555.442	-200.000	-0.029	-0.335
-554.427	24.182	-0.148	0.121
-553.412	345.119	0.095	-0.186
-552.398	-200.000	-0.018	-0.398
-551.383	27.997	0.044	-0.037
-550.369	-154.762	0.034	-0.002
-549.354	129.826	-0.080	0.101
-548.339	-200.000	-0.044	0.421
-547.325	29.886	-0.218	-0.184
-546.310	800.000	0.024	-0.098
-545.296	235.877	-0.189	0.309
-544.281	-134.833	-0.048	-0.006
-543.266	-165.956	-0.247	0.011
-542.252	192.813	0.126	0.190
-541.237	50.451	-0.085	0.080
-540.223	-153.266	0.289	-0.020
-539.208	29.909	-0.124	-0.105
-538.193	90.835	-0.192	0.214
-537.179	372.754	-0.012	-0.025
-536.164	72.086	0.010	0.010
-535.150	-20.566	-0.098	0.060
-534.135	-106.910	-0.174	-0.038
-533.121	-107.439	-0.251	0.055
-532.106	98.345	-0.239	-0.273
-531.091	-98.377	0.217	0.055
-530.077	-200.000	-0.019	0.174
-529.062	20.503	0.280	-0.225
-528.048	-122.973	0.024	-0.004
-527.033	-104.106	-0.138	-0.032
-526.018	65.403	0.151	-0.152
-525.004	281.294	0.126	-0.224
-523.989	-154.277	0.118	-0.008
-522.975	-200.000	-0.001	0.380
-521.960	-200.000	-0.039	-0.193
-520.945	-200.000	0.017	-0.358
-519.931	-16.428	-0.195	-0.123
-518.916	800.000	-0.059	-0.166
-517.902	47.143	-0.128	-0.118
-516.887	256.825	-0.114	-0.193
-515.872	55.935	-0.215	-0.207
-514.858	150.404	-0.194	-0.261
-513.843	-200.000	-0.054	0.330
-512.829	-88.577	-0.283	-0.084
-511.814	-200.000	0.046	-0.225
-510.799	-173.590	-0.116	-0.003
-509.785	800.000	0.037	0.124
-508.770	-68.510	0.101	-0.039
-507.756	495.034	0.109	-0.248
-506.741	192.681	0.148	0.222
-505.726	-66.403	-0.218	0.086
-504.712	-112.122	-0.050	0.010
-503.697	638.794	0.054	0.137
-502.683	-189.652	0.401	0.005
-501.668	11.947	-0.044	-0.034
-500.653	195.490	-0.146	0.220
-499.639	-123.877	0.248	0.039
-498.624	202.334	-0.166	0.254
-497.610	268.094	-0.124	0.215
-496.595	614.340	-0.080	-0.198
-495.581	-89.976	0.203	-0.059
-494.566	-200.000	0.012	0.087
-493.551	-110.418	0.022	0.005
-492.537	-187.954	-0.141	-0.002
-491.522	-56.010	-0.089	0.039
-490.508	187.932	-0.058	0.086
-489.493	800.000	0.087	0.339
-488.478	-15.224	0.105	-0.066
-487.464	-133.264	0.421	0.053
-486.449	335.680	0.161	0.310
-485.435	-53.796	0.211	-0.095
-484.420	-89.539	0.159	0.046
-483.405	800.000	0.036	-0.127
-482.391	-47.284	-0.177	-0.085
-481.376	35.301	-0.176	0.153
-480.362	27.346	-0.309	-0.257
-479.347	394.272	-0.050	-0.103
-478.332	57.807	0.178	-0.173
-477.318	-74.307	-0.280	-0.100
-476.303	-162.507	0.278	0.014
-475.289	10.148	0.194	-0.146
-474.274	51.037	0.140	-0.131
-473.259	-109.071	-0.173	0.036
-472.245	552.136	0.194	0.462
-471.230	-39.008	-0.107	-0.056
-470.216	-62.053	0.170	0.070
-469.201	-38.729	-0.206	-0.107
-468.186	50.433	-0.100	0.093
-467.172	237.348	-0.065	0.107
-466.157	-155.898	0.055	-0.003
-465.143	-94.615	-0.325	-0.088
-464.128	-107.780	-0.208	0.045
-463.113	-42.399	0.200	0.101
-462.099	800.000	0.088	0.332
-461.084	-149.910	-0.127	0.010
-460.070	-25.739	-0.223	-0.130
-459.055	-200.000	-0.028	0.211
-458.040	-73.261	0.227	-0.082
-457.026	8.495	0.321	0.239
-456.011	-200.000	-0.007	-0.060
-454.997	-55.240	0.189	0.084
-453.982	195.908	-0.081	0.122
-452.968	-16.111	0.140	-0.088
-451.953	117.880	-0.431	-0.524
-450.938	-33.775	-0.320	-0.174
-449.924	-200.000	-0.004	0.109
-448.909	800.000	-0.032	0.119
-447.895	-39.568	0.249	-0.129
-446.880	-163.857	-0.189	0.009
-445.865	183.398	-0.105	-0.153
-444.851	532.406	0.211	-0.494
-443.836	131.357	-0.043	0.055
-442.822	-200.000	-0.037	-0.349
-441.807	-144.273	0.365	0.034
-440.792	800.000	-0.090	0.338
-439.778	-200.000	0.001	0.223
-438.763	-34.525	-0.258	-0.139
-437.749	553.443	0.036	0.086
-436.734	-50.496	0.116	0.054
-435.719	119.542	0.017	0.021
-434.705	121.807	0.115	0.142
-433.690	13.836	0.105	-0.081
-432.676	-200.000	0.005	0.234
-431.661	-200.000	-0.035	0.205
-430.646	-74.291	-0.111	0.040
-429.632	441.109	0.060	0.129
-428.617	61.640	-0.071	-0.070
-427.603	-82.797	0.084	0.027
-426.588	-23.012	0.255	0.152
-425.573	-12.908	0.124	0.079
-424.559	-200.000	-0.015	0.070
-423.544	-187.166	0.343	-0.005
-422.530	-164.208	-0.085	-0.004
-421.515	-5.342	-0.479	0.325
-420.500	-52.033	0.330	0.151
-419.486	-95.991	-0.076	-0.020
-418.471	-200.000	0.084	-0.379
-417.457	-34.282	-0.158	0.086
-416.442	-71.669	-0.223	-0.082
-415.428	40.928	0.075	-0.067
-414.413	17.822	-0.045	0.035
-413.398	800.000	-0.094	0.385
-412.384	-152.716	0.386	0.027
-411.369	378.572	0.149	0.301
-410.355	368.667	0.134	0.267
-409.340	-129.996	-0.301	0.041
-408.325	800.000	0.039	-0.113
-407.311	-97.372	-0.471	-0.121
-406.296	662.356	0.074	-0.188
-405.282	95.738	-0.218	0.245
-404.267	106.295	0.283	0.330
-403.252	6.836	0.147	-0.108
-402.238	123.678	0.130	-0.161
-401.223	-200.000	0.008	-0.078
-400.209	-63.375	-0.275	0.112
-399.194	-200.000	-0.025	0.117
-398.179	42.419	-0.308	0.277
-397.165	-117.100	-0.059	0.011
-396.150	-12.695	-0.047	0.030
-395.136	-78.878	0.108	0.036
-394.121	-200.000	-0.036	-0.199
-393.106	-33.165	-0.249	0.136
-392.092	-84.571	0.153	0.047
-391.077	-139.692	0.455	0.048
-390.063	106.011	-0.188	0.219
-389.048	-200.000	0.036	0.179
-388.033	-161.836	0.172	0.009
-387.019	-99.679	0.339	-0.084
-386.004	-83.921	0.273	0.086
-384.990	-156.682	-0.178	-0.011
-383.975	57.256	-0.181	-0.174
-382.960	557.834	0.069	-0.165
-381.946	-2.299	-0.197	-0.136
-380.931	6.261	-0.170	-0.124
-379.917	-200.000	-0.040	0.177
-378.902	-197.035	0.391	0.002
-377.888	-150.793	0.151	0.011
-376.873	334.252	-0.091	-0.174
-375.858	550.397	-0.074	-0.175
-374.844	-22.241	0.144	-0.086
-373.829	55.649	-0.027	-0.026
-372.815	800.000	0.068	-0.242
-371.800	-200.000	0.035	-0.160
-370.785	-156.258	0.250	-0.015
-369.771	-52.719	0.186	0.084
-368.756	800.000	-0.011	0.043
-367.742	-69.588	0.194	0.073
-366.727	-107.436	0.119	0.026
-365.712	205.061	-0.148	-0.226
-364.698	-149.619	-0.127	0.010
-363.683	230.627	-0.149	-0.240
-362.669	-200.000	0.012	-0.265
-361.654	-151.770	0.088	-0.006
-360.639	84.743	-0.195	-0.211
-359.625	-200.000	-0.032	0.146
-358.610	-44.169	0.292	0.144
-357.596	1.867	-0.061	0.043
-356.581	174.463	0.080	0.114
-355.566	115.040	0.248	0.298
-354.552	-200.000	-0.027	-0.140
-353.537	-105.659	-0.298	0.066
-352.523	207.409	0.120	0.185
-351.508	-89.904	-0.028	-0.008
-350.493	-172.155	0.228	0.007
-349.479	48.776	-0.026	-0.024
-348.464	-200.000	-0.010	0.215
-347.450	-200.000	-0.054	-0.238
-346.435	282.195	-0.083	-0.146
-345.420	-132.048	0.258	-0.033
-344.406	50.190	-0.220	0.205
-343.391	22.508	0.142	0.114
-342.377	-150.566	0.238	0.018
-341.362	718.360	0.037	0.096
-340.348	-59.186	-0.139	-0.059
-339.333	14.119	-0.187	-0.144
-338.318	-117.001	0.153	-0.027
-337.304	85.286	-0.135	-0.146
-336.289	-113.279	0.103	-0.020
-335.275	-41.072	0.074	0.038
-334.260	194.157	-0.039	0.058
-333.245	-48.657	-0.177	0.084
-332.231	-132.393	0.375	0.048
-331.216	522.600	-0.077	-0.177
-330.202	121.861	-0.063	-0.077
-329.187	-200.000	-0.058	-0.322
-328.172	124.995	0.060	-0.074
-327.158	259.137	-0.133	-0.226
-326.143	-200.000	0.031	-0.152
-325.129	-70.464	0.097	-0.036
-324.114	181.430	0.248	-0.359
-323.099	-65.112	-0.325	-0.129
-322.085	-57.532	-0.076	0.033
-321.070	-200.000	0.015	-0.149
-320.056	-149.449	-0.384	0.030
-319.041	-29.834	0.201	-0.113
-318.026	-158.898	0.320	0.018
-317.012	-103.785	0.063	-0.015
-315.997	-58.261	0.085	-0.036
-314.983	800.000	-0.056	-0.176
-313.968	-39.385	-0.384	0.198
-312.953	55.086	-0.181	-0.172
-311.939	4.496	-0.188	0.136
-310.924	-156.972	-0.296	0.018
-309.910	-102.475	0.589	0.139
-308.895	492.094	0.060	-0.134
-307.880	-200.000	0.012	-0.166
-306.866	2.523	0.311	0.221
-305.851	100.525	-0.130	-0.148
-304.837	17.021	0.046	-0.035
-303.822	-72.701	-0.144	0.052
-302.807	22.615	-0.140	0.112
-301.793	-131.135	-0.308	-0.040
-300.778	-200.000	0.047	0.281
-299.764	377.985	0.169	0.340
-298.749	147.996	0.205	-0.272
-297.735	51.928	-0.221	-0.207
-296.720	-49.367	0.240	0.112
-295.705	-16.152	0.199	-0.124
-294.691	-200.000	0.019	0.148
-293.676	214.189	0.069	0.107
-292.662	-127.096	-0.161	-0.023
-291.647	-22.483	0.209	-0.124
-290.632	-42.033	-0.337	0.169
-289.618	71.702	-0.241	-0.246
-288.603	82.059	-0.080	-0.085
-287.589	5.880	-0.185	0.134
-286.574	-186.972	0.229	0.003
-285.559	444.811	0.122	0.264
-284.545	-149.981	-0.196	0.015
-283.530	-200.000	0.032	-0.190
-282.516	-38.599	0.222	0.115
-281.501	-70.252	-0.316	0.118
-280.486	-32.982	0.127	-0.069
-279.472	202.906	0.156	0.237
-278.457	-129.480	-0.225	-0.031
-277.443	-72.563	-0.112	-0.041
-276.428	-64.597	0.140	0.056
-275.413	154.970	0.158	-0.213
-274.399	-24.227	-0.056	-0.033
-273.384	278.108	-0.033	-0.057
-272.370	800.000	-0.050	0.145
-271.355	32.847	0.280	-0.238
-270.340	279.221	-0.133	0.232
-269.326	109.936	0.273	0.322
-268.311	112.824	0.255	-0.303
-267.297	444.119	0.110	-0.236
-266.282	144.552	0.001	-0.001
-265.267	-50.594	0.421	0.195
-264.253	127.112	-0.066	0.082
-263.238	54.736	0.051	-0.048
-262.224	-117.220	0.047	-0.008
-261.209	-120.291	-0.065	-0.011
-260.195	-44.599	-0.153	0.075
-259.180	-200.000	-0.015	0.268
-258.165	-130.938	-0.293	0.038
-257.151	-200.000	0.005	-0.231
-256.136	-15.507	-0.162	-0.102
-255.122	-146.111	-0.248	0.021
-254.107	-63.877	0.050	-0.020
-253.092	800.000	-0.043	-0.123
-252.078	17.646	0.114	-0.089
-251.063	116.615	-0.119	0.143
-250.049	-154.225	-0.123	-0.008
-249.034	98.503	-0.490	-0.554
-248.019	-200.000	0.011	-0.117
-247.005	141.188	-0.091	-0.118
-245.990	-128.987	-0.150	0.021
-244.976	-200.000	-0.060	-0.372
-243.961	202.879	0.047	0.072
-242.946	-122.977	-0.310	0.049
-241.932	-61.646	0.327	-0.134
-240.917	10.844	0.195	-0.146
-239.903	-73.696	0.407	-0.145
-238.888	124.073	-0.141	0.174
-237.873	800.000	0.038	-0.128
-236.859	-200.000	0.009	-0.146
-235.844	17.162	0.193	0.150
-234.830	37.740	-0.084	-0.073
-233.815	-66.964	0.189	-0.073
-232.800	-179.806	0.163	-0.003
-231.786	800.000	0.070	0.195
-230.771	800.000	0.048	-0.170
-229.757	-56.633	-0.161	-0.070
-228.742	27.261	0.063	0.052
-227.727	-87.514	-0.283	0.084
-226.713	-94.241	0.239	-0.064
-225.698	89.174	-0.199	0.218
-224.684	-35.951	0.091	-0.048
-223.669	-6.271	-0.282	-0.189
-222.655	83.894	0.110	0.117
-221.640	-159.643	0.271	-0.015
-220.625	549.039	-0.079	0.184
-219.611	-57.812	-0.257	-0.110
-218.596	-200.000	-0.035	0.253
-217.582	-8.695	-0.233	-0.153
-216.567	800.000	0.085	-0.263
-215.552	-100.440	-0.210	-0.051
-214.538	6.639	0.242	0.176
-213.523	459.222	-0.049	0.108
-212.509	-12.842	0.220	0.140
-211.494	-11.795	-0.243	0.156
-210.479	-72.362	0.323	-0.117
-209.465	-70.896	-0.207	0.076
-208.450	-108.547	-0.024	-0.005
-207.436	-51.878	0.143	-0.065
-206.421	-64.113	-0.282	0.113
-205.406	-103.736	-0.258	-0.059
-204.392	335.644	-0.067	0.128
-203.377	301.691	0.100	-0.181
-202.363	-49.144	-0.346	-0.162
-201.348	116.945	-0.018	0.021
-200.333	-47.572	0.177	0.084
-199.319	-109.848	-0.109	0.022
-198.304	35.040	-0.167	0.143
-197.290	351.974	0.143	-0.276
-196.275	142.310	-0.114	0.148
-195.260	-200.000	-0.023	-0.431
-194.246	-170.475	-0.077	0.003
-193.231	284.163	0.125	-0.219
-192.217	800.000	0.063	0.187
-191.202	-66.751	-0.080	-0.031
-190.187	225.116	0.035	-0.056
-189.173	282.831	-0.220	0.387
-188.158	324.973	0.095	-0.177
-187.144	-19.604	-0.137	0.083
-186.129	800.000	-0.058	0.227
-185.114	186.810	0.093	-0.136
-184.100	255.693	0.056	-0.094
-183.085	-200.000	0.025	0.138
-182.071	153.184	0.104	-0.139
-181.056	-200.000	-0.006	0.046
-180.042	-82.174	-0.286	0.091
-179.027	-200.000	0.175	0.001
-178.012	2.831	0.261	0.185
-176.998	57.642	0.209	0.199
-175.983	157.356	-0.358	0.485
-174.969	800.000	0.062	-0.211
-173.954	359.144	0.055	-0.108
-172.939	-200.000	0.039	0.206
-171.925	284.641	0.056	-0.098
-170.910	-130.845	-0.217	0.028
-169.896	-200.000	-0.043	0.332
-168.881	-200.000	0.047	-0.268
-167.866	-11.475	0.267	0.172
-166.852	-200.000	0.046	-0.250
-165.837	-34.328	0.143	-0.077
-164.823	-200.000	-0.082	0.510
-163.808	-39.709	0.193	0.099
-162.793	-200.000	0.002	0.181
-161.779	-97.025	0.390	-0.100
-160.764	-200.000	-0.046	-0.213
-159.750	-159.747	-0.088	0.005
-158.735	800.000	-0.009	0.030
-157.720	-20.374	-0.180	0.108
-156.706	-200.000	-0.007	0.127
-155.691	62.986	0.091	-0.089
-154.677	-11.200	0.180	-0.116
-153.662	800.000	-0.030	-0.113
-152.647	490.292	-0.038	-0.084
-151.633	-200.000	0.035	-0.232
-150.618	-60.652	-0.273	0.113
-149.604	-200.000	-0.007	-0.414
-148.589	0.422	-0.228	-0.159
-147.574	-73.532	-0.230	-0.082
-146.560	409.210	0.166	0.343
-145.545	-52.104	-0.342	-0.155
-144.531	258.704	0.061	0.103
-143.516	498.539	0.178	0.401
-142.502	800.000	-0.054	0.210
-141.487	-16.219	0.162	0.100
-140.472	72.714	-0.262	-0.267
-139.458	228.048	-0.251	0.398
-138.443	0.169	-0.076	0.053
-137.429	134.261	-0.227	0.288
-136.414	-187.956	0.199	-0.003
-135.399	18.453	0.119	0.093
-134.385	-113.945	0.178	-0.034
-133.370	265.333	0.046	-0.078
-132.356	-200.000	-0.082	-0.392
-131.341	-200.000	-0.004	-0.164
-130.326	-147.611	0.233	0.019
-129.312	-175.534	0.100	0.003
-128.297	-200.000	0.045	-0.222
-127.283	187.809	0.147	-0.214
-126.268	23.870	-0.260	0.209
-125.253	72.448	0.266	0.271
-124.239	-111.250	0.115	-0.023
-123.224	744.895	0.027	0.071
-122.210	27.951	-0.140	0.115
-121.195	-200.000	-0.003	0.150
-120.180	88.291	0.214	0.232
-119.166	-88.132	0.216	0.063
-118.151	45.767	-0.115	-0.104
-117.137	-64.858	-0.084	0.033
-116.122	-200.000	0.045	-0.275
-115.107	140.360	-0.141	0.181
-114.093	243.313	-0.176	0.288
-113.078	-200.000	-0.006	-0.121
-112.064	-37.352	0.272	0.141
-111.049	191.258	0.208	0.305
-110.034	59.028	-0.070	-0.067
-109.020	-119.648	-0.235	0.040
-108.005	-153.309	0.388	0.026
-106.991	-34.140	0.060	0.032
-105.976	182.147	-0.109	-0.156
-104.962	-200.000	-0.007	-0.045
-103.947	-104.117	-0.241	0.055
-102.932	800.000	-0.128	0.376
-101.918	800.000	-0.025	0.075
-100.903	-66.920	-0.184	-0.071
-99.889	250.932	0.109	-0.180
-98.874	-20.368	-0.122	-0.073
-97.859	264.549	0.091	0.155
-96.845	84.439	-0.043	0.046
-95.830	141.107	0.104	0.134
-94.816	-37.709	0.135	-0.070
-93.801	30.806	0.138	-0.115
-92.786	617.636	0.109	0.266
-91.772	271.896	-0.142	-0.244
-90.757	319.878	-0.015	-0.029
-89.743	-186.921	0.187	0.003
-88.728	-200.000	0.044	-0.354
-87.713	-57.831	-0.206	-0.088
-86.699	-200.000	0.005	-0.339
-85.684	-200.000	-0.000	0.205
-84.670	-195.949	-0.060	0.000
-83.655	-200.000	-0.004	-0.357
-82.640	-25.927	-0.331	-0.190
-81.626	593.197	0.125	-0.300
-80.611	79.207	0.129	0.135
-79.597	131.523	0.271	-0.339
-78.582	-10.729	0.341	-0.220
-77.567	-35.925	-0.082	-0.043
-76.553	-66.337	0.293	-0.114
-75.538	-64.011	-0.232	-0.092
-74.524	263.481	-0.227	-0.385
-73.509	-110.513	-0.062	0.012
-72.494	-7.312	0.232	-0.153
-71.480	270.107	0.114	0.194
-70.465	168.227	-0.042	-0.058
-69.451	87.173	-0.097	-0.104
-68.436	-200.000	0.007	-0.077
-67.422	-17.502	0.260	0.159
-66.407	-58.261	-0.218	0.092
-65.392	-78.656	0.143	-0.048
-64.378	-19.770	0.242	-0.145
-63.363	-55.159	0.173	0.076
-62.349	596.010	0.126	0.305
-61.334	161.588	-0.971	-1.322
-60.319	212.730	0.727	1.116
-59.305	336.649	-0.715	-1.351
-58.290	178.514	0.884	1.257
-57.276	558.203	0.677	1.589
-56.261	-200.000	136.581	645.191
-55.246	336.206	1662.247	3139.872
-54.232	135.402	2794.255	3537.041
-53.217	83.808	2191.460	2327.284
-52.203	29.860	1709.155	1417.076
-51.188	23.039	1533.087	1224.002
-50.173	21.523	1511.951	1196.718
-49.159	44.927	1588.630	1423.215
-48.144	41.271	1598.713	1406.446
-47.130	23.131	1547.526	1235.971
-46.115	20.485	1531.853	1205.080
-45.100	20.266	1528.634	1200.986
-44.086	20.183	1527.297	1199.313
-43.071	20.160	1524.856	1197.190
-42.057	20.146	1523.692	1196.136
-41.042	20.093	1522.108	1194.478
-40.027	20.175	1520.386	1193.643
-39.013	20.075	1518.769	1191.638
-37.998	20.073	1517.712	1190.748
-36.984	20.107	1516.463	1189.956
-35.969	20.121	1515.412	1189.179
-34.954	20.225	1513.400	1188.264
-33.940	20.059	1512.538	1186.402
-32.925	20.222	1510.976	1186.247
-31.911	20.236	1509.519	1185.151
-30.896	20.219	1508.449	1184.146
-29.881	20.286	1507.479	1183.794
-28.867	20.225	1506.076	1182.235
-27.852	20.214	1504.295	1180.713
-26.838	20.233	1503.173	1179.916
-25.823	20.242	1501.598	1178.695
-24.809	20.194	1499.915	1177.000
-23.794	20.176	1498.740	1175.910
-22.779	20.163	1497.323	1174.660
-21.765	20.204	1496.368	1174.144
-20.750	20.296	1494.941	1173.602
-19.736	20.329	1494.195	1173.190
-18.721	20.214	1493.029	1171.454
-17.706	20.144	1492.172	1170.260
-16.692	20.200	1490.800	1169.515
-15.677	20.142	1490.862	1169.127
-14.663	20.173	1489.052	1167.867
-13.648	20.182	1487.858	1166.946
-12.633	20.152	1486.960	1165.993
-11.619	20.152	1486.540	1165.621
-10.604	20.194	1485.515	1165.053
-9.590	20.218	1484.316	1164.223
-8.575	20.265	1483.633	1163.959
-7.560	20.195	1482.701	1162.713
-6.546	20.201	1481.663	1161.893
-5.531	20.258	1480.830	1161.571
-4.517	20.132	1479.788	1159.871
-3.502	20.271	1478.363	1159.636
-2.487	20.188	1477.756	1158.558
-1.473	20.087	1476.638	1156.959
-0.458	20.166	1475.480	1156.533
0.556	19.039	1465.580	1144.072
1.571	15.650	1440.901	1102.519
2.586	12.015	1377.430	1031.026
3.600	10.442	1291.570	957.390
4.615	9.534	1247.644	919.562
5.629	8.476	1191.785	872.540
6.644	4.392	1112.483	793.567
7.659	1.061	1078.165	752.495
8.673	0.683	1072.655	746.717
9.688	0.671	1069.670	744.514
10.702	0.528	1068.370	742.839
11.717	0.608	1065.710	741.320
12.731	1.900	1065.852	747.692
13.746	6.989	1072.169	777.110
14.761	13.448	1080.939	815.305
15.775	16.725	1085.182	834.608
16.790	16.958	1083.714	834.553
17.804	15.908	1082.413	828.314
18.819	14.981	1080.643	822.329
19.834	14.480	1079.031	818.575
20.848	14.366	1077.951	817.122
21.863	14.150	1077.540	815.680
22.877	13.962	1076.537	813.925
23.892	13.882	1074.942	812.257
24.907	13.562	1074.735	810.462
25.921	13.569	1074.300	810.100
26.936	13.628	1073.455	809.679
27.950	13.680	1072.716	809.305
28.965	13.736	1071.664	808.710
29.980	13.762	1070.720	808.055
30.994	13.870	1069.671	807.716
32.009	13.940	1068.858	807.368
33.023	13.751	1068.886	806.401
34.038	13.960	1067.339	806.177
35.053	13.820	1066.842	805.051
36.067	13.788	1065.788	804.030
37.082	13.834	1065.169	803.714
38.096	13.751	1064.215	802.522
39.111	13.909	1063.457	802.644
40.126	13.849	1062.675	801.690
41.140	13.804	1061.303	800.369
42.155	13.793	1060.246	799.448
43.169	13.594	1059.920	798.173
44.184	13.641	1058.600	797.333
45.199	13.630	1057.755	796.573
46.213	13.610	1056.721	795.631
47.228	13.787	1055.462	795.458
48.242	13.735	1054.266	794.239
49.257	13.675	1053.472	793.282
50.271	13.701	1052.121	792.322
51.286	13.766	1051.657	792.211
52.301	13.858	1050.590	791.774
53.315	13.859	1049.666	791.015
54.330	13.771	1049.067	790.073
55.344	13.796	1048.284	789.533
56.359	13.776	1047.160	788.524
57.374	13.678	1046.845	787.748
58.388	13.686	1045.705	786.860
59.403	13.651	1044.702	785.868
60.417	13.649	1043.922	785.203
61.432	13.687	1043.127	784.714
62.447	13.502	1042.549	783.337
63.461	13.586	1041.750	783.063
64.476	13.624	1040.461	782.205
65.490	13.711	1039.400	781.750
66.505	13.528	1038.977	780.501
67.520	13.682	1038.128	780.516
68.534	13.782	1037.259	780.266
69.549	13.721	1036.402	779.263
70.563	13.689	1035.562	778.416
71.578	13.677	1034.976	777.848
72.593	13.648	1034.055	776.952
73.607	13.579	1033.051	775.807
74.622	13.499	1032.347	774.832
75.636	13.514	1031.462	774.173
76.651	13.515	1030.981	773.747
77.666	13.543	1029.830	772.944
78.680	13.477	1029.300	772.169
79.695	13.502	1028.721	771.785
80.709	13.721	1027.974	772.176
81.724	13.614	1026.917	770.814
82.739	13.762	1025.976	770.731
83.753	13.703	1025.252	769.842
84.768	13.710	1024.351	769.131
85.782	13.670	1024.032	768.636
86.797	13.809	1022.960	768.407
87.812	13.741	1022.383	767.590
88.826	13.710	1021.474	766.698
89.841	13.694	1020.313	765.684
90.855	13.747	1019.489	765.243
91.870	13.782	1018.892	764.891
92.884	13.897	1017.845	764.564
93.899	13.874	1017.467	764.111
94.914	13.959	1016.296	763.553
95.928	13.884	1015.647	762.653
96.943	13.982	1015.038	762.577
97.957	13.938	1014.061	761.572
98.972	13.973	1013.355	761.137
99.987	13.927	1012.451	760.180
101.001	13.783	1011.858	759.009
102.016	13.792	1011.073	758.394
103.030	13.837	1009.821	757.592
104.045	13.843	1009.216	757.100
105.060	13.795	1008.138	756.005
106.074	13.825	1006.769	755.050
107.089	13.857	1005.890	754.465
108.103	13.801	1005.193	753.625
109.118	13.765	1004.281	752.709
110.133	13.778	1003.586	752.183
111.147	13.765	1002.544	751.275
112.162	13.707	1001.689	750.307
113.176	13.644	1000.911	749.371
114.191	13.806	1000.025	749.375
115.206	13.753	998.864	748.197
116.220	13.682	998.413	747.476
117.235	13.708	997.537	746.870
118.249	13.791	996.192	746.171
119.264	13.877	995.275	745.804
120.279	13.758	994.456	744.588
121.293	13.609	993.881	743.426
122.308	13.615	993.359	742.995
123.322	13.726	992.300	742.634
124.337	13.765	990.723	741.563
125.352	13.689	989.345	740.125
126.366	13.591	989.204	739.517
127.381	13.676	987.909	738.864
128.395	13.714	986.983	738.276
129.410	13.735	986.036	737.595
130.424	13.701	984.981	736.591
131.439	13.704	984.340	736.058
132.454	13.683	983.295	735.120
133.468	13.733	982.510	734.689
134.483	13.855	981.467	734.383
135.497	13.776	981.241	733.799
136.512	13.731	980.591	733.048
137.527	13.834	979.720	732.790
138.541	13.715	978.892	731.581
139.556	13.832	978.241	731.544
140.570	13.841	977.299	730.816
141.585	13.846	976.702	730.324
142.600	13.858	976.521	730.178
143.614	13.870	975.298	729.249
144.629	13.896	974.611	728.788
145.643	14.002	973.926	728.676
146.658	13.944	972.841	727.546
147.673	13.851	971.800	726.296
148.687	13.854	971.016	725.656
149.702	13.963	970.159	725.429
150.716	13.931	969.589	724.798
151.731	13.852	968.930	723.897
152.746	13.880	968.065	723.308
153.760	13.990	967.149	723.039
154.775	13.981	966.467	722.429
155.789	14.006	965.773	721.953
156.804	13.885	965.051	720.823
157.819	14.041	963.989	720.646
158.833	14.071	963.326	720.214
159.848	13.982	962.666	719.271
160.862	14.150	962.075	719.493
161.877	13.966	961.748	718.388
162.892	14.072	960.476	717.833
163.906	14.048	959.241	716.742
164.921	14.023	958.971	716.369
165.935	13.863	958.307	715.124
166.950	14.077	956.654	714.744
167.964	14.146	955.885	714.402
168.979	14.103	954.653	713.234
169.994	14.079	953.751	712.396
171.008	13.931	953.547	711.546
172.023	14.001	952.433	710.951
173.037	14.160	951.615	710.960
174.052	14.221	950.639	710.425
175.067	14.208	950.145	709.940
176.081	14.195	949.154	709.079
177.096	14.208	948.172	708.340
178.110	14.164	947.543	707.618
179.125	14.093	947.124	706.941
180.140	14.133	946.453	706.549
181.154	14.200	945.286	705.897
182.169	14.185	944.830	705.432
183.183	14.288	943.998	705.183
184.198	14.367	943.256	704.904
185.213	14.423	942.165	704.260
186.227	14.349	941.818	703.629
187.242	14.399	941.489	703.531
188.256	14.313	940.747	702.550
189.271	14.457	940.033	702.562
190.286	14.378	939.067	701.446
191.300	14.288	938.114	700.294
192.315	14.258	937.996	700.018
193.329	14.244	937.219	699.318
194.344	14.153	936.610	698.417
195.359	14.283	935.783	698.285
196.373	14.281	935.517	698.015
197.388	14.347	934.863	697.742
198.402	14.434	934.132	697.499
199.417	14.585	933.692	697.740
200.432	14.632	933.043	697.390
201.446	14.633	932.360	696.825
202.461	14.605	932.258	696.568
203.475	14.684	931.470	696.247
204.490	14.628	931.007	695.606
205.504	14.605	929.866	694.597
206.519	14.623	929.217	694.127
207.534	14.678	928.508	693.763
208.548	14.621	927.376	692.621
209.563	14.555	926.870	691.905
210.577	14.689	926.265	691.950
211.592	14.651	925.409	691.089
212.607	14.681	925.061	690.894
213.621	14.821	924.811	691.226
214.636	14.649	924.055	689.886
215.650	14.766	923.004	689.524
216.665	14.693	922.269	688.613
217.680	14.676	922.312	688.516
218.694	14.861	921.395	688.530
219.709	14.633	921.952	687.946
220.723	14.907	920.402	687.858
221.738	14.896	919.731	687.251
222.753	14.789	919.408	686.508
223.767	14.834	918.214	685.738
224.782	14.760	917.431	684.791
225.796	14.755	916.716	684.177
226.811	14.799	916.404	684.063
227.826	15.010	914.917	683.753
228.840	15.082	914.138	683.405
229.855	14.901	914.118	682.592
230.869	14.922	913.409	682.086
231.884	14.849	913.064	681.472
232.899	14.833	912.497	680.921
233.913	14.953	910.959	680.202
234.928	14.914	910.666	679.765
235.942	14.839	909.584	678.594
236.957	14.935	909.095	678.560
237.972	14.911	908.579	678.015
238.986	14.951	907.904	677.614
240.001	14.941	907.118	676.926
241.015	14.978	906.459	676.525
242.030	15.018	906.103	676.362
243.045	14.998	904.941	675.352
244.059	15.129	904.460	675.462
245.074	15.094	904.147	675.029
246.088	15.017	903.490	674.169
247.103	15.060	902.702	673.692
248.117	15.161	901.925	673.461
249.132	15.229	901.341	673.239
250.147	15.185	900.778	672.580
251.161	15.368	900.041	672.706
252.176	15.274	899.452	671.829
253.190	15.374	898.480	671.445
254.205	15.240	898.311	670.723
255.220	15.457	897.260	670.744
256.234	15.456	896.571	670.167
257.249	15.436	896.055	669.642
258.263	15.487	895.409	669.304
259.278	15.501	894.521	668.637
260.293	15.465	894.410	668.349
261.307	15.542	893.803	668.145
262.322	15.457	893.177	667.277
263.336	15.495	892.525	666.882
264.351	15.568	892.076	666.778
265.366	15.619	891.218	666.281
266.380	15.571	890.918	665.806
267.395	15.755	889.816	665.655
268.409	15.621	889.371	664.733
269.424	15.656	888.315	664.023
270.439	15.759	887.495	663.757
271.453	15.573	887.063	662.639
272.468	15.639	886.213	662.205
273.482	15.733	885.776	662.191
274.497	15.667	885.136	661.395
275.512	15.750	884.371	661.089
276.526	15.607	883.700	659.969
277.541	15.688	882.804	659.559
278.555	15.811	882.241	659.563
279.570	15.826	882.061	659.428
280.585	15.782	881.195	658.551
281.599	15.913	880.492	658.478
282.614	15.797	880.027	657.619
283.628	15.681	879.865	656.987
284.643	15.752	879.025	656.580
285.657	15.804	878.375	656.239
286.672	15.825	878.402	656.282
287.687	15.840	877.460	655.577
288.701	15.923	876.909	655.431
289.716	15.885	876.419	654.861
290.730	15.921	875.780	654.464
291.745	15.812	875.193	653.545
292.760	15.995	874.415	653.615
293.774	16.019	873.237	652.772
294.789	16.012	872.624	652.229
295.803	16.109	872.032	652.105
296.818	16.157	871.415	651.769
297.833	16.066	871.034	651.077
298.847	16.028	870.269	650.299
299.862	16.085	869.882	650.170
300.876	16.123	868.855	649.495
301.891	16.131	868.179	648.963
302.906	16.250	867.472	648.832
303.920	16.235	867.193	648.509
304.935	16.120	866.359	647.386
305.949	16.296	865.502	647.365
306.964	16.278	864.958	646.833
307.979	16.250	864.776	646.530
308.993	16.309	864.007	646.125
310.008	16.305	863.074	645.355
311.022	16.310	862.947	645.221
312.037	16.304	862.600	644.883
313.052	16.362	862.006	644.600
314.066	16.243	861.365	643.612
315.081	16.335	860.719	643.422
316.095	16.239	860.408	642.766
317.110	16.203	859.814	642.130
318.125	16.292	859.272	642.009
319.139	16.271	858.891	641.585
320.154	16.233	858.155	640.834
321.168	16.309	857.427	640.523
322.183	16.260	856.990	639.954
323.197	16.389	856.393	639.940
324.212	16.276	856.111	639.244
325.227	16.441	855.158	639.101
326.241	16.504	854.397	638.715
327.256	16.393	854.180	638.077
328.270	16.397	853.680	637.659
329.285	16.464	852.926	637.292
330.300	16.377	852.625	636.685
331.314	16.535	851.627	636.475
332.329	16.446	851.314	635.851
333.343	16.444	850.832	635.427
334.358	16.560	850.146	635.294
335.373	16.594	849.317	634.746
336.387	16.683	848.744	634.597
337.402	16.723	848.288	634.350
338.416	16.580	847.951	633.507
339.431	16.716	847.032	633.271
340.446	16.690	846.311	632.581
341.460	16.644	846.016	632.131
342.475	16.743	845.336	631.937
343.489	16.765	845.113	631.795
344.504	16.842	844.201	631.346
345.519	16.872	843.816	631.111
346.533	16.830	843.306	630.521
347.548	16.856	842.938	630.286
348.562	16.891	842.238	629.837
349.577	16.867	841.605	629.218
350.592	16.792	841.221	628.597
351.606	16.813	840.634	628.179
352.621	16.961	840.084	628.263
353.635	16.796	839.948	627.494
354.650	16.792	839.574	627.146
355.665	16.750	839.231	626.678
356.679	16.860	838.788	626.697
357.694	17.010	837.628	626.329
358.708	16.954	837.104	625.674
359.723	16.899	836.576	625.024
360.738	16.893	836.566	624.939
361.752	17.007	835.672	624.634
362.767	16.996	835.238	624.215
363.781	17.253	834.446	624.511
364.796	16.898	834.943	623.524
365.810	17.071	834.048	623.437
366.825	17.201	833.454	623.411
367.840	17.252	833.067	623.257
368.854	17.203	832.706	622.750
369.869	17.243	832.268	622.516
370.883	17.303	831.384	622.016
371.898	17.097	831.054	620.963
372.913	17.222	830.540	620.980
373.927	17.305	829.938	620.776
374.942	17.334	829.229	620.298
375.956	17.279	828.934	619.824
376.971	17.383	828.038	619.478
377.986	17.288	827.691	618.816
379.000	17.438	826.605	618.496
380.015	17.473	826.499	618.488
381.029	17.389	825.953	617.720
382.044	17.626	825.042	617.843
383.059	17.500	824.652	617.040
384.073	17.612	823.972	616.883
385.088	17.538	823.500	616.207
386.102	17.515	822.710	615.476
387.117	17.490	822.761	615.369
388.132	17.479	822.067	614.756
389.146	17.426	821.836	614.340
390.161	17.511	821.450	614.303
391.175	17.458	821.161	613.843
392.190	17.454	820.824	613.521
393.205	17.392	820.335	612.878
394.219	17.533	819.574	612.760
395.234	17.399	819.494	612.167
396.248	17.518	818.652	611.909
397.263	17.442	818.497	611.467
398.278	17.509	817.987	611.274
399.292	17.638	817.437	611.271
400.307	17.576	817.164	610.791
401.321	17.621	816.579	610.461
402.336	17.464	816.268	609.610
403.350	17.589	815.982	609.790
404.365	17.684	815.436	609.670
405.380	17.713	814.936	609.344
406.394	17.681	814.556	608.893
407.409	17.519	814.569	608.270
408.423	17.713	813.513	608.119
409.438	17.764	812.901	607.789
410.453	17.685	812.842	607.411
411.467	17.861	812.084	607.416
412.482	17.857	811.668	607.036
413.496	18.006	811.090	607.081
414.511	18.056	810.491	606.754
415.526	17.973	810.396	606.337
416.540	18.021	810.249	606.342
417.555	18.079	809.453	605.901
418.569	17.992	808.915	605.137
419.584	17.932	808.694	604.705
420.599	17.942	807.910	604.098
421.613	115.621	1300.573	1492.283
422.628	99.963	1372.310	1492.342
