DTS Sentinel unit serial number:	SN413079Multiplexer serial number:	ORYXHardware model number:	OX4-SRSoftware version number:	ORYX F/W v4.00 Oryx Data Collector v3.7.2.0data status	okinstallation	princeton_trtdifferential loss correction	single-endedforward channel	channel 3reverse channel	N/Adate	2019/09/14time	18:48:35forward acquisition time	60.00reverse acquisition time	0.00gamma	496.2192k internal	0.2305k external	0.2305temperature offset calibration	1.0017default loss term (dB/km)	0.3790temperature slope calibration	1.0000multiplexer offset coefficient	1.0000multiplexer slope coefficient	1.0000fibre end	0.00T internal ref (°C)	36.02T ext. ref 1 (°C)	4.90T ext. ref 2 (°C)	29.76length (m)	temperature (°C)	Stokes	anti-Stokes-747.200	520.574	0.104	0.248
-746.185	275.667	0.112	-0.202
-745.171	-11.806	-0.164	0.110
-744.156	55.917	-0.106	-0.105
-743.142	-154.450	0.312	0.021
-742.127	-200.000	-0.031	0.465
-741.112	632.984	0.094	-0.242
-740.098	-200.000	0.004	0.181
-739.083	-200.000	-0.002	-0.314
-738.069	52.469	0.281	0.273
-737.054	66.501	0.333	0.344
-736.039	800.000	-0.089	-0.324
-735.025	393.523	-0.101	-0.214
-734.010	78.638	-0.147	-0.160
-732.996	-51.683	0.322	-0.153
-731.981	-58.294	-0.433	0.192
-730.966	-52.033	-0.218	0.103
-729.952	26.082	-0.073	-0.062
-728.937	800.000	-0.079	-0.277
-727.923	244.887	0.158	0.269
-726.908	269.345	0.136	-0.243
-725.894	-148.598	-0.434	-0.036
-724.879	-200.000	0.032	0.244
-723.864	-200.000	-0.059	-0.405
-722.850	39.322	-0.109	-0.099
-721.835	-129.447	-0.367	-0.052
-720.821	75.872	-0.119	-0.128
-719.806	49.192	-0.141	-0.135
-718.791	-101.655	-0.051	0.013
-717.777	13.923	-0.210	0.166
-716.762	441.437	0.044	0.097
-715.748	-96.436	-0.148	0.040
-714.733	-200.000	0.021	0.099
-713.718	251.740	0.090	0.156
-712.704	231.210	0.125	-0.208
-711.689	224.798	-0.081	-0.134
-710.675	-89.461	-0.152	-0.045
-709.660	800.000	-0.065	-0.198
-708.645	687.157	0.087	-0.230
-707.631	-133.993	-0.250	0.031
-706.616	517.265	0.068	0.163
-705.602	77.961	0.105	-0.114
-704.587	297.311	0.121	-0.225
-703.572	-200.000	-0.008	-0.273
-702.558	-200.000	-0.048	0.227
-701.543	-154.559	0.243	-0.016
-700.529	-200.000	0.054	-0.276
-699.514	-0.230	0.223	-0.161
-698.499	-200.000	-0.036	-0.410
-697.485	-54.677	-0.100	0.046
-696.470	-42.841	-0.354	-0.183
-695.456	267.482	-0.228	-0.404
-694.441	3.058	-0.291	-0.215
-693.426	-200.000	-0.348	0.001
-692.412	800.000	0.087	-0.295
-691.397	-200.000	-0.005	-0.282
-690.383	-200.000	-0.027	-0.236
-689.368	197.323	-0.084	-0.130
-688.354	-55.022	-0.125	0.057
-687.339	152.391	0.131	0.182
-686.324	-68.792	0.148	-0.058
-685.310	44.423	0.146	-0.137
-684.295	628.403	-0.070	0.179
-683.281	306.367	0.034	0.064
-682.266	364.150	0.148	-0.301
-681.251	-109.559	-0.471	-0.101
-680.237	-28.330	0.388	0.227
-679.222	-117.405	0.361	0.066
-678.208	800.000	-0.116	-0.359
-677.193	-200.000	0.049	-0.318
-676.178	800.000	-0.057	-0.233
-675.164	575.488	0.039	0.097
-674.149	624.742	-0.054	-0.139
-673.135	-98.547	-0.215	0.056
-672.120	-200.000	-0.005	-0.249
-671.105	-31.660	0.187	-0.106
-670.091	-52.357	0.221	-0.104
-669.076	351.159	0.104	0.209
-668.062	136.025	-0.116	-0.153
-667.047	297.934	-0.125	-0.234
-666.032	-128.729	-0.360	0.052
-665.018	2.431	-0.134	0.098
-664.003	-102.053	0.246	-0.060
-662.989	-200.000	0.015	0.284
-661.974	-19.012	0.103	0.065
-660.959	-73.860	-0.313	0.115
-659.945	149.908	-0.187	0.257
-658.930	800.000	-0.145	-0.408
-657.916	-102.562	-0.265	-0.064
-656.901	-86.494	-0.048	0.015
-655.886	-200.000	0.012	0.110
-654.872	-125.113	-0.110	0.017
-653.857	62.248	-0.164	-0.166
-652.843	57.261	-0.104	-0.102
-651.828	-133.418	0.090	-0.011
-650.814	26.675	-0.193	-0.164
-649.799	-106.205	0.323	0.073
-648.784	609.716	-0.135	-0.341
-647.770	-200.000	-0.060	-0.280
-646.755	-164.008	-0.227	-0.011
-645.741	15.479	-0.035	-0.028
-644.726	122.536	-0.115	0.145
-643.711	-3.180	-0.200	-0.141
-642.697	-131.469	-0.316	0.042
-641.682	-29.362	-0.105	-0.061
-640.668	202.395	0.096	0.150
-639.653	-200.000	-0.021	-0.371
-638.638	20.712	-0.214	0.176
-637.624	490.156	-0.092	0.213
-636.609	7.510	-0.120	-0.091
-635.595	593.582	0.047	0.118
-634.580	-54.985	-0.218	-0.099
-633.565	122.286	-0.108	0.137
-632.551	-65.853	-0.341	-0.138
-631.536	-200.000	-0.007	-0.285
-630.522	-100.587	0.174	0.044
-629.507	800.000	-0.052	-0.167
-628.492	348.612	0.120	0.240
-627.478	227.947	0.106	0.176
-626.463	800.000	-0.016	0.061
-625.449	-200.000	0.029	0.376
-624.434	346.725	0.095	-0.190
-623.419	-200.000	0.039	-0.202
-622.405	-200.000	0.028	-0.232
-621.390	609.537	-0.104	-0.264
-620.376	-103.792	-0.242	-0.057
-619.361	79.683	-0.177	-0.193
-618.346	-200.000	-0.011	-0.083
-617.332	161.552	-0.102	-0.145
-616.317	-159.231	-0.175	0.010
-615.303	-200.000	0.316	-0.001
-614.288	800.000	0.097	0.296
-613.273	-53.375	0.171	-0.079
-612.259	-76.031	0.256	-0.092
-611.244	-74.090	-0.098	-0.036
-610.230	-200.000	-0.001	-0.031
-609.215	158.189	-0.104	0.146
-608.201	-200.000	-0.073	0.342
-607.186	228.213	-0.050	0.083
-606.171	542.843	0.105	-0.254
-605.157	800.000	-0.035	0.105
-604.142	-200.000	0.029	0.258
-603.128	800.000	-0.097	-0.306
-602.113	-100.744	0.326	0.081
-601.098	424.390	0.192	-0.419
-600.084	78.367	-0.224	-0.242
-599.069	-156.789	0.179	-0.011
-598.055	-11.338	0.148	0.099
-597.040	409.684	-0.092	-0.197
-596.025	-200.000	0.057	-0.307
-595.011	259.537	0.026	0.045
-593.996	-172.280	-0.298	-0.010
-592.982	-35.236	0.127	-0.070
-591.967	0.511	-0.079	0.057
-590.952	49.263	0.208	-0.197
-589.938	-23.166	0.136	-0.083
-588.923	47.457	0.242	0.228
-587.909	78.632	0.046	-0.050
-586.894	396.699	0.038	-0.080
-585.879	-64.956	-0.209	-0.085
-584.865	-138.149	-0.319	-0.036
-583.850	-100.948	-0.249	0.062
-582.836	-29.647	0.228	-0.132
-581.821	53.890	0.203	-0.197
-580.806	-19.808	-0.272	-0.170
-579.792	-200.000	0.014	0.147
-578.777	-122.600	0.177	-0.029
-577.763	800.000	0.071	0.278
-576.748	-90.353	0.267	-0.078
-575.733	-200.000	0.016	0.074
-574.719	176.561	0.122	0.179
-573.704	42.170	-0.151	0.138
-572.690	-100.215	0.225	0.056
-571.675	-87.300	0.117	-0.036
-570.661	63.420	-0.077	-0.078
-569.646	-120.230	-0.191	-0.033
-568.631	-200.000	0.005	-0.189
-567.617	-200.000	-0.027	-0.216
-566.602	-200.000	-0.019	-0.152
-565.588	26.442	-0.177	0.150
-564.573	-200.000	0.049	0.220
-563.558	-200.000	-0.078	-0.418
-562.544	158.902	0.187	-0.262
-561.529	-200.000	-0.020	-0.381
-560.515	-144.981	0.295	-0.027
-559.500	-171.362	-0.162	-0.005
-558.485	656.986	-0.069	0.179
-557.471	-200.000	-0.009	0.235
-556.456	36.521	0.185	-0.165
-555.442	233.988	0.224	0.372
-554.427	-69.219	-0.334	0.130
-553.412	800.000	0.031	0.112
-552.398	172.948	0.197	0.286
-551.383	153.168	-0.145	0.200
-550.369	-111.705	-0.315	-0.064
-549.354	84.333	0.289	-0.319
-548.339	11.330	0.237	0.183
-547.325	-23.341	-0.208	-0.126
-546.310	528.152	-0.042	-0.100
-545.296	800.000	-0.045	-0.142
-544.281	-200.000	-0.048	-0.293
-543.266	-200.000	-0.012	-0.095
-542.252	-174.702	-0.273	0.008
-541.237	-131.166	0.179	0.024
-540.223	-101.267	-0.160	-0.039
-539.208	35.416	-0.161	-0.143
-538.193	524.759	0.056	0.132
-537.179	-121.879	0.134	0.022
-536.164	349.033	0.102	-0.203
-535.150	800.000	0.074	0.249
-534.135	-79.041	0.203	-0.070
-533.121	17.598	-0.228	0.183
-532.106	-96.095	0.374	-0.100
-531.091	800.000	-0.069	0.208
-530.077	-88.500	0.125	-0.038
-529.062	-3.892	0.259	-0.181
-528.048	-153.472	-0.044	0.003
-527.033	284.412	0.153	-0.278
-526.018	87.986	-0.260	-0.291
-525.004	-150.869	-0.033	-0.003
-523.989	175.387	-0.100	0.147
-522.975	800.000	0.061	0.240
-521.960	-43.245	-0.172	-0.088
-520.945	-69.863	-0.146	-0.056
-519.931	800.000	0.041	-0.117
-518.916	-2.403	-0.115	0.081
-517.902	-56.347	0.085	-0.038
-516.887	73.232	0.106	-0.112
-515.872	-100.890	-0.261	-0.065
-514.858	-57.235	-0.215	0.096
-513.843	-119.089	-0.261	0.046
-512.829	-87.040	0.139	0.043
-511.814	800.000	-0.014	0.042
-510.799	-200.000	0.204	-0.000
-509.785	-200.000	0.015	-0.097
-508.770	-200.000	0.010	0.162
-507.756	800.000	-0.090	0.334
-506.741	153.669	-0.055	-0.077
-505.726	222.852	-0.139	-0.225
-504.712	17.090	-0.110	0.088
-503.697	-200.000	-0.016	0.168
-502.683	-0.912	0.124	0.088
-501.668	713.711	-0.010	0.027
-500.653	-99.922	0.111	0.028
-499.639	-57.372	-0.310	0.137
-498.624	-29.456	0.282	-0.162
-497.610	289.795	-0.128	0.234
-496.595	-178.852	0.311	0.007
-495.581	-153.568	0.259	0.018
-494.566	770.114	-0.046	-0.125
-493.551	-90.867	0.480	0.139
-492.537	-200.000	-0.027	-0.212
-491.522	-61.288	-0.301	0.128
-490.508	-200.000	-0.036	0.183
-489.493	-200.000	0.020	-0.135
-488.478	-90.936	-0.345	-0.100
-487.464	-200.000	0.026	-0.146
-486.449	103.556	0.176	-0.208
-485.435	580.141	0.054	-0.134
-484.420	-57.571	-0.115	0.051
-483.405	-85.014	-0.424	0.134
-482.391	800.000	-0.051	0.145
-481.376	-74.888	-0.143	-0.052
-480.362	146.244	-0.185	-0.250
-479.347	272.890	0.088	0.156
-478.332	-200.000	-0.003	-0.126
-477.318	151.187	-0.105	-0.144
-476.303	-114.748	0.221	-0.043
-475.289	-43.858	-0.326	-0.165
-474.274	138.207	0.011	-0.015
-473.259	398.853	-0.188	0.397
-472.245	-18.222	0.368	0.232
-471.230	246.504	-0.043	0.074
-470.216	8.850	-0.045	0.034
-469.201	-128.966	-0.306	-0.043
-468.186	198.397	-0.201	0.309
-467.172	122.676	0.012	-0.015
-466.157	-57.928	0.049	-0.021
-465.143	-9.140	0.502	-0.338
-464.128	-113.909	-0.238	0.047
-463.113	-65.543	-0.170	0.069
-462.099	-200.000	0.011	-0.312
-461.084	69.156	-0.130	0.135
-460.070	-172.474	-0.158	0.005
-459.055	196.034	0.094	0.144
-458.040	45.258	0.187	-0.173
-457.026	-200.000	-0.001	0.237
-456.011	1.041	-0.047	-0.034
-454.997	-46.172	0.223	-0.110
-453.982	144.312	-0.097	0.130
-452.968	311.393	-0.076	0.144
-451.953	16.100	0.200	-0.158
-450.938	800.000	-0.092	0.403
-449.924	-153.997	-0.245	0.017
-448.909	-55.036	-0.497	0.225
-447.895	489.130	0.117	-0.269
-446.880	547.998	0.111	-0.266
-445.865	-93.427	0.352	-0.098
-444.851	-200.000	-0.026	0.170
-443.836	561.950	-0.044	0.108
-442.822	-200.000	-0.014	0.111
-441.807	48.922	0.147	-0.139
-440.792	56.950	-0.161	-0.158
-439.778	-175.462	0.265	-0.007
-438.763	134.726	-0.120	-0.157
-437.749	68.155	-0.125	0.128
-436.734	-200.000	0.000	-0.250
-435.719	725.102	0.062	0.165
-434.705	362.395	-0.053	0.108
-433.690	121.017	0.189	-0.236
-432.676	-200.000	-0.008	-0.239
-431.661	315.002	0.193	0.366
-430.646	-200.000	0.015	-0.125
-429.632	-200.000	-0.019	0.184
-428.617	800.000	-0.056	0.231
-427.603	-150.364	0.205	0.016
-426.588	-3.121	-0.138	0.096
-425.573	234.825	0.116	0.192
-424.559	25.416	0.206	-0.172
-423.544	-84.806	-0.324	-0.102
-422.530	41.340	-0.186	0.169
-421.515	9.246	-0.228	0.173
-420.500	578.787	0.052	-0.128
-419.486	341.063	0.121	-0.237
-418.471	-98.821	-0.330	0.084
-417.457	-200.000	-0.033	0.188
-416.442	-21.616	-0.183	-0.112
-415.428	69.615	0.095	-0.098
-414.413	-138.936	0.100	0.011
-413.398	-114.305	0.119	-0.023
-412.384	-186.553	-0.110	0.002
-411.369	22.470	-0.254	-0.209
-410.355	-8.543	-0.263	-0.178
-409.340	-200.000	-0.052	-0.250
-408.325	-200.000	-0.031	-0.187
-407.311	293.564	-0.074	-0.136
-406.296	90.933	0.230	0.259
-405.282	204.097	-0.048	0.075
-404.267	-20.518	0.086	0.053
-403.252	-200.000	-0.003	-0.171
-402.238	130.559	-0.244	-0.314
-401.223	109.204	-0.136	0.163
-400.209	48.411	0.201	0.189
-399.194	384.753	0.070	-0.144
-398.179	-99.022	0.177	-0.045
-397.165	-5.674	0.114	-0.079
-396.150	-200.000	-0.001	-0.265
-395.136	555.342	0.075	0.181
-394.121	-200.000	0.011	0.212
-393.106	-200.000	-0.009	0.176
-392.092	667.122	0.078	-0.202
-391.077	-136.499	-0.178	0.021
-390.063	232.554	-0.077	0.128
-389.048	96.982	-0.054	0.062
-388.033	-101.509	0.078	0.019
-387.019	-91.360	-0.157	0.045
-386.004	800.000	-0.042	0.171
-384.990	-111.508	0.262	0.053
-383.975	-96.342	0.389	0.103
-382.960	800.000	0.058	-0.201
-381.946	800.000	0.077	0.232
-380.931	435.031	0.067	0.145
-379.917	-154.424	-0.148	-0.010
-378.902	202.614	-0.120	0.186
-377.888	101.898	-0.236	0.276
-376.873	-47.467	0.208	-0.101
-375.858	-66.743	-0.356	0.141
-374.844	-200.000	0.009	-0.116
-373.829	-136.562	-0.174	0.020
-372.815	800.000	0.081	0.272
-371.800	-50.398	0.458	-0.217
-370.785	345.491	-0.073	-0.143
-369.771	-130.619	0.188	0.025
-368.756	106.526	-0.120	-0.142
-367.742	101.816	-0.235	-0.275
-366.727	272.452	0.109	-0.193
-365.712	183.225	0.184	-0.272
-364.698	414.733	-0.055	-0.118
-363.683	-200.000	-0.008	0.142
-362.669	-200.000	-0.003	0.019
-361.654	182.200	-0.095	0.140
-360.639	-200.000	0.051	0.252
-359.625	-8.080	0.263	-0.177
-358.610	-95.932	0.096	-0.026
-357.596	43.701	0.252	-0.231
-356.581	37.142	0.192	0.170
-355.566	-37.772	0.305	0.163
-354.552	-200.000	-0.009	0.153
-353.537	274.581	0.152	0.270
-352.523	-200.000	0.002	0.144
-351.508	103.852	0.148	-0.174
-350.493	-98.906	0.281	0.072
-349.479	-200.000	-0.012	0.254
-348.464	-44.271	0.174	0.088
-347.450	117.062	0.093	-0.114
-346.435	606.419	-0.090	-0.226
-345.420	800.000	0.091	-0.380
-344.406	-147.153	0.120	-0.010
-343.391	-27.983	-0.127	-0.073
-342.377	-124.994	-0.587	-0.090
-341.362	282.354	0.023	0.041
-340.348	-86.523	-0.236	-0.073
-339.333	436.477	-0.065	-0.141
-338.318	-97.141	-0.178	-0.047
-337.304	800.000	-0.082	0.294
-336.289	-200.000	-0.045	0.268
-335.275	-109.990	-0.348	0.073
-334.260	-144.058	0.129	-0.012
-333.245	-58.050	0.125	-0.054
-332.231	-166.297	-0.207	0.009
-331.216	217.682	-0.195	0.312
-330.202	-7.211	-0.163	-0.110
-329.187	141.553	-0.090	0.119
-328.172	-51.919	-0.134	-0.063
-327.158	800.000	0.077	0.318
-326.143	-200.000	-0.002	0.146
-325.129	-4.413	-0.268	-0.185
-324.114	800.000	0.037	-0.124
-323.099	794.185	-0.114	-0.315
-322.085	800.000	0.054	0.156
-321.070	-194.988	0.264	0.002
-320.056	-200.000	-0.044	0.207
-319.041	800.000	-0.042	-0.136
-318.026	34.785	0.132	-0.115
-317.012	100.880	-0.221	-0.257
-315.997	-200.000	0.027	-0.176
-314.983	-119.847	0.349	0.060
-313.968	396.697	0.031	-0.064
-312.953	-102.966	0.329	0.078
-311.939	706.129	-0.071	-0.187
-310.924	-200.000	0.032	-0.238
-309.910	-130.856	-0.090	0.012
-308.895	123.631	0.074	0.092
-307.880	-71.828	0.306	0.114
-306.866	19.081	-0.274	-0.220
-305.851	176.041	-0.144	-0.209
-304.837	-11.122	0.181	-0.119
-303.822	54.454	0.129	0.125
-302.807	800.000	-0.124	-0.388
-301.793	84.979	-0.103	-0.113
-300.778	-89.883	-0.450	0.132
-299.764	800.000	0.092	0.306
-298.749	-26.485	-0.160	0.094
-297.735	319.372	-0.062	0.118
-296.720	-200.000	-0.004	-0.025
-295.705	-59.632	-0.244	-0.105
-294.691	-200.000	-0.013	0.664
-293.676	800.000	0.036	0.107
-292.662	-200.000	-0.027	0.143
-291.647	-99.951	-0.211	0.053
-290.632	-68.918	-0.248	0.096
-289.618	-136.200	0.068	-0.008
-288.603	-72.109	0.458	0.170
-287.589	-90.415	-0.096	0.028
-286.574	71.841	-0.190	0.198
-285.559	56.788	0.160	0.155
-284.545	83.380	0.183	0.200
-283.530	-200.000	-0.053	0.277
-282.516	108.987	0.135	0.161
-281.501	-97.680	-0.265	0.069
-280.486	430.365	-0.054	-0.116
-279.472	-83.171	0.332	0.107
-278.457	800.000	-0.050	0.173
-277.443	-8.925	0.212	0.142
-276.428	43.230	-0.148	-0.135
-275.413	-150.941	-0.281	-0.021
-274.399	-200.000	0.007	0.175
-273.384	79.117	-0.088	-0.094
-272.370	28.614	-0.274	-0.232
-271.355	666.750	0.025	-0.064
-270.340	-200.000	0.005	-0.278
-269.326	-200.000	-0.025	0.163
-268.311	-150.282	0.145	0.011
-267.297	48.138	-0.174	0.162
-266.282	24.865	0.192	0.159
-265.267	183.501	0.079	-0.116
-264.253	29.300	-0.077	-0.065
-263.238	111.796	-0.038	-0.046
-262.224	-200.000	0.017	-0.218
-261.209	-200.000	-0.012	-0.298
-260.195	70.666	-0.181	0.187
-259.180	302.274	0.078	-0.144
-258.165	155.297	-0.178	0.245
-257.151	-26.169	0.118	-0.069
-256.136	-200.000	-0.046	0.350
-255.122	-134.506	-0.120	0.015
-254.107	604.119	-0.107	0.265
-253.092	-200.000	0.009	-0.280
-252.078	-190.879	0.108	0.001
-251.063	-151.154	0.075	0.006
-250.049	800.000	0.061	0.210
-249.034	-111.499	-0.170	-0.035
-248.019	-68.361	0.281	-0.109
-247.005	-104.209	-0.272	-0.063
-245.990	677.075	-0.217	0.562
-244.976	800.000	-0.094	-0.284
-243.961	85.949	-0.036	0.039
-242.946	-86.950	0.262	0.080
-241.932	800.000	-0.080	-0.331
-240.917	652.730	0.117	0.299
-239.903	800.000	-0.061	0.259
-238.888	73.223	0.052	-0.054
-237.873	394.268	0.045	0.094
-236.859	-40.628	0.283	0.147
-235.844	51.645	0.221	-0.209
-234.830	-56.261	0.369	-0.164
-233.815	61.610	-0.176	-0.175
-232.800	-35.204	-0.156	-0.085
-231.786	65.777	-0.021	0.021
-230.771	59.248	0.246	0.242
-229.757	-41.073	0.415	0.214
-228.742	297.551	0.059	-0.107
-227.727	90.388	-0.207	0.231
-226.713	-200.000	0.073	0.442
-225.698	555.807	0.077	-0.185
-224.684	-200.000	0.064	-0.356
-223.669	28.656	-0.113	-0.095
-222.655	54.782	0.143	0.138
-221.640	-200.000	-0.015	-0.148
-220.625	-109.593	0.351	-0.074
-219.611	-200.000	0.090	-0.495
-218.596	282.290	-0.088	-0.158
-217.582	541.522	-0.172	0.408
-216.567	-85.817	0.257	-0.079
-215.552	-177.864	0.258	0.006
-214.538	115.654	0.105	0.128
-213.523	-50.492	-0.076	-0.036
-212.509	11.200	0.050	0.038
-211.494	800.000	0.046	-0.163
-210.479	261.752	-0.088	-0.152
-209.465	93.793	0.048	0.054
-208.450	69.862	-0.149	0.153
-207.436	-160.654	0.239	-0.013
-206.421	-166.289	-0.201	-0.008
-205.406	158.348	0.118	-0.164
-204.392	692.047	-0.100	0.261
-203.377	-200.000	-0.060	0.396
-202.363	46.752	0.049	-0.046
-201.348	87.103	0.116	0.127
-200.333	-7.895	-0.128	0.086
-199.319	192.881	0.090	-0.136
-198.304	-200.000	-0.026	-0.240
-197.290	-61.154	0.203	-0.085
-196.275	800.000	-0.044	-0.184
-195.260	-200.000	0.050	0.276
-194.246	-35.994	0.172	0.093
-193.231	-200.000	-0.033	-0.180
-192.217	-93.324	0.227	-0.063
-191.202	-106.218	-0.155	-0.035
-190.187	800.000	-0.041	-0.162
-189.173	429.700	-0.043	-0.092
-188.158	-200.000	-0.021	0.313
-187.144	-108.528	0.369	-0.079
-186.129	50.376	0.057	-0.054
-185.114	-137.713	-0.164	-0.018
-184.100	98.193	0.253	-0.290
-183.085	97.744	0.130	-0.148
-182.071	87.164	0.045	0.049
-181.056	495.472	-0.026	0.058
-180.042	-143.252	-0.290	-0.028
-179.027	-113.095	0.245	0.048
-178.012	-200.000	0.000	-0.270
-176.998	36.304	0.063	0.055
-175.983	527.663	-0.089	-0.208
-174.969	648.419	0.163	-0.416
-173.954	-200.000	0.012	0.178
-172.939	-135.333	-0.035	-0.004
-171.925	86.159	-0.185	0.203
-170.910	-158.596	-0.266	0.015
-169.896	233.022	0.116	0.189
-168.881	-182.942	-0.330	0.006
-167.866	168.783	0.071	-0.101
-166.852	84.087	0.258	0.280
-165.837	58.080	0.109	-0.106
-164.823	-200.000	0.066	-0.334
-163.808	-200.000	-0.025	0.323
-162.793	-20.707	0.228	0.139
-161.779	-168.689	-0.102	-0.004
-160.764	-139.119	0.515	-0.055
-159.750	-200.000	0.053	-0.307
-158.735	117.790	-0.205	0.251
-157.720	53.528	0.177	-0.168
-156.706	92.171	-0.078	0.088
-155.691	800.000	-0.078	0.318
-154.677	13.729	0.195	0.150
-153.662	175.980	-0.080	0.115
-152.647	800.000	-0.103	0.313
-151.633	634.174	-0.131	0.329
-150.618	-200.000	0.064	-0.282
-149.604	-200.000	-0.012	-0.076
-148.589	-45.278	-0.329	-0.162
-147.574	301.703	0.092	-0.170
-146.560	467.569	-0.060	-0.133
-145.545	-105.663	0.394	-0.089
-144.531	667.799	-0.074	0.191
-143.516	-200.000	-0.015	0.129
-142.502	131.834	-0.102	0.131
-141.487	119.969	-0.134	-0.166
-140.472	-126.002	0.199	-0.030
-139.458	-200.000	0.011	-0.087
-138.443	27.434	-0.129	-0.108
-137.429	136.600	0.124	-0.161
-136.414	320.858	-0.062	-0.118
-135.399	-117.545	0.268	0.048
-134.385	36.757	-0.247	0.217
-133.370	-52.113	0.360	-0.166
-132.356	-200.000	0.020	0.085
-131.341	-200.000	-0.020	-0.383
-130.326	-200.000	0.006	-0.076
-129.312	-145.931	0.040	0.004
-128.297	-68.190	0.120	-0.046
-127.283	-28.505	0.165	-0.094
-126.268	798.211	-0.056	-0.154
-125.253	-200.000	-0.010	0.056
-124.239	-4.979	0.237	-0.162
-123.224	-46.173	0.318	-0.156
-122.210	-200.000	-0.051	-0.248
-121.195	274.091	0.246	-0.432
-120.180	371.079	0.059	-0.118
-119.166	-30.520	0.062	-0.035
-118.151	519.211	-0.186	-0.433
-117.137	659.105	-0.107	0.274
-116.122	-91.793	-0.118	-0.033
-115.107	800.000	-0.080	-0.281
-114.093	94.312	0.179	0.202
-113.078	64.787	0.186	-0.186
-112.064	363.085	0.079	0.157
-111.049	-163.064	0.306	0.015
-110.034	687.625	0.144	0.372
-109.020	20.475	0.176	0.141
-108.005	-22.433	0.127	-0.076
-106.991	800.000	-0.027	0.076
-105.976	314.895	0.168	-0.315
-104.962	208.645	0.183	0.284
-103.947	-142.335	-0.097	-0.010
-102.932	-111.357	-0.190	0.039
-101.918	-87.443	-0.301	-0.091
-100.903	-144.492	0.034	0.003
-99.889	-123.991	-0.071	0.011
-98.874	-180.557	0.326	0.007
-97.859	-200.000	-0.022	-0.343
-96.845	800.000	0.051	-0.159
-95.830	30.735	-0.129	0.110
-94.816	-42.581	-0.291	-0.147
-93.801	501.365	-0.092	0.211
-92.786	46.977	0.248	-0.229
-91.772	-200.000	-0.010	0.145
-90.757	-200.000	-0.033	-0.226
-89.743	-152.591	-0.137	0.010
-88.728	-115.645	-0.151	-0.028
-87.713	777.678	-0.070	-0.189
-86.699	632.649	-0.068	-0.170
-85.684	800.000	-0.007	-0.025
-84.670	800.000	0.051	-0.181
-83.655	24.238	-0.115	-0.095
-82.640	-159.770	0.299	0.016
-81.626	-37.615	0.260	-0.138
-80.611	195.932	0.078	0.118
-79.597	99.472	0.038	-0.043
-78.582	80.976	0.018	0.019
-77.567	-135.225	-0.157	-0.019
-76.553	417.005	-0.195	0.413
-75.538	69.556	0.180	-0.184
-74.524	800.000	0.050	-0.153
-73.509	743.150	-0.124	0.330
-72.494	-150.618	-0.214	0.016
-71.480	25.127	-0.137	-0.113
-70.465	-54.641	-0.198	-0.089
-69.451	-2.611	-0.208	-0.144
-68.436	-120.107	0.281	-0.048
-67.422	800.000	0.097	-0.274
-66.407	-147.611	0.388	0.032
-65.392	-47.198	0.459	0.222
-64.378	214.099	0.178	-0.280
-63.363	178.027	-0.071	0.102
-62.349	-200.000	0.015	0.127
-61.334	16.210	-1.014	-0.793
-60.319	179.279	0.271	0.393
-59.305	634.696	-0.302	-0.759
-58.290	472.462	0.394	0.880
-57.276	327.641	0.680	1.293
-56.261	-200.000	93.674	559.039
-55.246	636.506	1374.658	3457.770
-54.232	189.575	2582.332	3835.075
-53.217	123.712	2195.018	2728.293
-52.203	46.589	1731.281	1591.554
-51.188	39.051	1540.936	1364.424
-50.173	36.591	1513.991	1323.693
-49.159	55.184	1563.344	1496.582
-48.144	58.953	1582.403	1540.978
-47.130	39.470	1538.557	1365.000
-46.115	36.328	1522.456	1329.073
-45.100	36.062	1519.457	1324.576
-44.086	36.057	1517.248	1322.558
-43.071	35.944	1515.935	1320.591
-42.057	35.919	1514.198	1318.853
-41.042	35.866	1512.916	1317.319
-40.027	35.977	1511.354	1316.668
-39.013	36.097	1509.649	1315.948
-37.998	36.014	1508.050	1313.940
-36.984	35.907	1507.634	1312.790
-35.969	35.820	1506.251	1310.940
-34.954	35.999	1504.391	1310.493
-33.940	36.052	1503.015	1309.601
-32.925	36.043	1501.498	1308.167
-31.911	36.007	1500.358	1306.879
-30.896	36.069	1499.045	1306.100
-29.881	36.123	1497.763	1305.300
-28.867	36.160	1496.313	1304.231
-27.852	36.105	1495.051	1302.705
-26.838	36.108	1493.919	1301.688
-25.823	36.071	1491.865	1299.600
-24.809	36.059	1490.036	1297.876
-23.794	35.996	1489.071	1296.556
-22.779	36.111	1487.570	1295.975
-21.765	36.055	1486.547	1294.655
-20.750	35.995	1485.430	1293.225
-19.736	36.097	1484.475	1293.026
-18.721	35.920	1483.776	1291.182
-17.706	36.101	1481.977	1290.775
-16.692	36.048	1480.919	1289.453
-15.677	36.089	1480.165	1289.014
-14.663	36.049	1478.999	1287.682
-13.648	35.970	1478.471	1286.643
-12.633	36.006	1477.345	1285.855
-11.619	35.931	1476.865	1284.885
-10.604	35.945	1475.569	1283.801
-9.590	35.982	1474.692	1283.231
-8.575	36.026	1473.887	1282.773
-7.560	35.929	1473.091	1281.387
-6.546	35.972	1472.036	1280.699
-5.531	35.922	1471.202	1279.592
-4.517	35.937	1470.447	1278.986
-3.502	35.958	1469.397	1278.160
-2.487	36.014	1468.320	1277.541
-1.473	35.956	1466.914	1275.887
-0.458	35.990	1465.566	1274.889
0.556	35.390	1456.088	1262.468
1.571	32.028	1429.306	1217.373
2.586	27.951	1365.854	1137.901
3.600	25.735	1281.905	1054.894
4.615	24.143	1234.647	1006.928
5.629	20.704	1177.694	941.817
6.644	12.377	1093.000	832.006
7.659	5.721	1051.249	767.643
8.673	4.877	1045.540	759.292
9.688	4.899	1042.591	757.193
10.702	4.907	1041.295	756.225
11.717	4.917	1039.760	755.088
12.731	7.086	1041.967	767.150
13.746	14.623	1051.720	811.013
14.761	19.740	1058.437	841.082
15.775	19.418	1056.443	837.860
16.790	18.351	1054.391	830.984
17.804	17.296	1051.890	823.827
18.819	16.310	1050.206	817.664
19.834	15.991	1048.333	814.589
20.848	15.779	1047.825	813.100
21.863	15.378	1047.354	810.725
22.877	15.148	1046.551	808.919
23.892	15.121	1045.339	807.784
24.907	14.887	1044.851	806.206
25.921	14.974	1043.977	805.879
26.936	14.833	1043.592	804.829
27.950	15.017	1041.879	804.324
28.965	15.091	1040.834	803.802
29.980	15.112	1039.947	803.144
30.994	15.118	1039.272	802.580
32.009	15.225	1038.312	802.283
33.023	15.266	1037.805	802.015
34.038	15.274	1036.797	801.206
35.053	15.249	1035.936	800.346
36.067	15.112	1034.792	798.738
37.082	15.063	1034.098	797.903
38.096	15.014	1033.360	797.028
39.111	15.192	1032.615	797.231
40.126	15.123	1032.152	796.472
41.140	15.130	1030.701	795.314
42.155	14.937	1029.521	793.421
43.169	14.600	1029.434	791.683
44.184	14.688	1028.234	791.108
45.199	14.884	1026.797	790.860
46.213	14.803	1025.563	789.454
47.228	14.772	1025.011	788.814
48.242	14.868	1023.947	788.378
49.257	15.121	1022.954	788.739
50.271	15.090	1022.108	787.871
51.286	15.038	1021.214	786.864
52.301	15.209	1020.122	786.759
53.315	15.133	1019.370	785.749
54.330	15.034	1018.941	784.887
55.344	14.970	1017.924	783.735
56.359	14.928	1016.636	782.477
57.374	14.977	1015.918	782.083
58.388	14.855	1015.126	780.833
59.403	14.938	1014.077	780.347
60.417	14.792	1013.294	778.995
61.432	14.803	1012.969	778.726
62.447	14.817	1012.080	778.039
63.461	14.712	1011.449	776.995
64.476	14.746	1010.387	776.269
65.490	14.739	1009.126	775.201
66.505	14.719	1008.562	774.605
67.520	14.748	1007.614	773.945
68.534	14.805	1006.943	773.624
69.549	14.785	1006.217	772.907
70.563	14.756	1005.871	772.438
71.578	14.834	1004.996	772.058
72.593	14.610	1004.380	770.482
73.607	14.574	1003.174	769.321
74.622	14.569	1002.160	768.455
75.636	14.692	1000.928	768.008
76.651	14.608	1000.261	767.040
77.666	14.613	999.986	766.785
78.680	14.785	999.074	766.805
79.695	14.740	998.727	766.266
80.709	14.724	997.858	765.458
81.724	14.831	997.339	765.483
82.739	14.836	996.324	764.661
83.753	14.898	995.496	764.240
84.768	14.993	994.855	764.113
85.782	15.103	994.313	764.131
86.797	15.271	993.483	764.194
87.812	15.163	992.872	763.160
88.826	15.139	991.882	762.224
89.841	15.081	990.876	761.119
90.855	14.988	990.439	760.293
91.870	15.165	989.398	760.234
92.884	15.096	989.011	759.553
93.899	15.076	988.340	758.879
94.914	15.164	987.254	758.377
95.928	15.140	986.852	757.893
96.943	15.223	986.125	757.643
97.957	15.217	985.393	756.988
98.972	15.278	984.281	756.341
99.987	15.233	983.574	755.529
101.001	15.190	983.023	754.845
102.016	15.163	982.201	754.024
103.030	15.109	981.080	752.854
104.045	15.105	980.273	752.149
105.060	15.154	979.202	751.485
106.074	15.044	978.252	750.196
107.089	14.920	977.282	748.831
108.103	14.763	976.502	747.461
109.118	14.767	975.624	746.741
110.133	14.772	974.722	746.009
111.147	14.781	973.805	745.280
112.162	14.870	972.936	744.947
113.176	14.835	971.975	743.987
114.191	14.846	971.521	743.622
115.206	14.934	970.649	743.280
116.220	14.784	970.057	742.098
117.235	14.981	968.786	741.930
118.249	14.824	968.114	740.657
119.264	14.838	967.416	740.118
120.279	14.777	966.599	739.157
121.293	14.822	965.690	738.599
122.308	14.707	965.323	737.742
123.322	14.704	964.153	736.770
124.337	14.705	963.153	735.947
125.352	14.741	961.983	735.145
126.366	14.649	960.781	733.758
127.381	14.710	959.829	733.233
128.395	14.741	959.086	732.734
129.410	14.734	958.407	732.122
130.424	14.658	957.243	730.833
131.439	14.719	956.844	730.732
132.454	14.847	955.946	730.541
133.468	14.942	955.121	730.260
134.483	14.855	954.855	729.615
135.497	14.962	953.725	729.154
136.512	14.946	952.705	728.237
137.527	14.981	952.015	727.798
138.541	14.964	951.283	727.100
139.556	14.941	951.162	726.845
140.570	14.984	950.148	726.192
141.585	15.118	949.078	725.890
142.600	15.237	948.616	725.988
143.614	15.232	948.028	725.451
144.629	15.155	947.222	724.438
145.643	15.247	946.613	724.304
146.658	15.290	945.879	723.866
147.673	15.186	944.545	722.335
148.687	14.983	943.893	720.894
149.702	15.098	942.504	720.265
150.716	14.932	942.043	719.135
151.731	14.954	941.407	718.682
152.746	14.973	940.314	717.867
153.760	14.923	940.048	717.383
154.775	14.951	939.320	716.883
155.789	15.155	937.970	716.665
156.804	15.107	937.453	715.998
157.819	14.993	936.744	714.907
158.833	15.115	936.284	715.015
159.848	15.154	935.637	714.625
160.862	15.307	934.831	714.595
161.877	15.310	933.882	713.820
162.892	15.077	933.326	712.340
163.906	15.037	931.781	710.928
164.921	15.014	930.934	710.121
165.935	14.947	930.501	709.447
166.950	15.026	929.592	709.024
167.964	15.168	928.238	708.532
168.979	15.099	927.790	707.832
169.994	15.078	926.666	706.827
171.008	15.017	925.555	705.658
172.023	15.028	925.383	705.508
173.037	15.189	924.745	705.640
174.052	15.349	923.698	705.450
175.067	15.175	923.165	704.250
176.081	15.129	922.356	703.377
177.096	15.077	921.136	702.167
178.110	15.013	920.279	701.183
179.125	15.155	919.606	701.205
180.140	15.146	918.994	700.639
181.154	15.194	918.332	700.271
182.169	15.291	917.539	700.009
183.183	15.358	917.000	699.817
184.198	15.312	916.527	699.202
185.213	15.332	916.021	698.838
186.227	15.345	915.053	698.088
187.242	15.341	914.588	697.658
188.256	15.545	913.860	697.888
189.271	15.442	913.504	697.127
190.286	15.467	912.658	696.523
191.300	15.413	911.624	695.448
192.315	15.250	910.628	693.951
193.329	14.996	910.164	692.484
194.344	15.052	909.391	692.069
195.359	15.102	909.024	691.934
196.373	15.311	908.284	692.171
197.388	15.401	907.759	692.080
198.402	15.563	907.467	692.466
199.417	15.482	907.483	692.083
200.432	15.580	906.766	691.879
201.446	15.715	906.171	691.920
202.461	15.781	905.935	691.950
203.475	15.825	905.280	691.570
204.490	15.820	904.648	691.005
205.504	15.716	903.822	689.886
206.519	15.611	902.865	688.662
207.534	15.567	902.418	688.082
208.548	15.607	901.635	687.587
209.563	15.515	901.186	686.809
210.577	15.620	900.110	686.357
211.592	15.709	899.334	686.067
212.607	15.653	899.283	685.740
213.621	15.791	898.483	685.629
214.636	15.760	898.000	685.076
215.650	15.693	897.232	684.156
216.665	15.718	897.207	684.176
217.680	15.857	896.038	683.791
218.694	15.836	896.032	683.641
219.709	15.912	895.396	683.403
220.723	15.884	894.663	682.667
221.738	15.934	894.015	682.316
222.753	15.773	893.473	681.189
223.767	15.813	892.681	680.689
224.782	15.924	891.725	680.346
225.796	15.810	891.318	679.517
226.811	16.012	890.329	679.518
227.826	15.894	889.805	678.584
228.840	15.986	888.668	678.025
229.855	15.957	887.938	677.293
230.869	15.887	887.819	676.859
231.884	15.880	886.822	676.012
232.899	15.841	886.505	675.552
233.913	15.965	885.458	675.194
234.928	15.884	884.767	674.282
235.942	15.772	884.235	673.370
236.957	15.721	883.606	672.624
237.972	15.813	882.788	672.310
238.986	15.905	881.841	671.898
240.001	15.754	881.559	671.019
241.015	15.802	880.804	670.579
242.030	16.062	879.856	670.830
243.045	15.978	879.480	670.152
244.059	16.028	879.119	670.017
245.074	15.988	878.634	669.429
246.088	16.058	877.848	669.050
247.103	16.174	877.019	668.818
248.117	16.100	876.796	668.293
249.132	16.179	876.298	668.167
250.147	16.358	875.504	668.211
251.161	16.540	875.078	668.549
252.176	16.599	874.250	668.090
253.190	16.538	873.805	667.449
254.205	16.659	873.315	667.494
255.220	16.676	872.860	667.152
256.234	16.673	872.040	666.457
257.249	16.682	871.371	665.922
258.263	16.549	871.208	665.213
259.278	16.646	870.088	664.683
260.293	16.687	869.572	664.387
261.307	16.534	869.521	663.689
262.322	16.732	868.652	663.745
263.336	16.781	867.957	663.346
264.351	16.855	867.463	663.201
265.366	16.749	866.951	662.336
266.380	16.784	866.456	662.036
267.395	16.650	866.036	661.133
268.409	16.690	865.006	660.443
269.424	16.581	864.638	659.678
270.439	16.620	863.791	659.128
271.453	16.800	862.718	658.949
272.468	16.782	861.900	658.196
273.482	16.736	861.365	657.553
274.497	16.645	860.952	656.825
275.512	16.587	860.503	656.201
276.526	16.665	859.386	655.592
277.541	16.675	858.471	654.876
278.555	16.805	858.012	654.969
279.570	16.714	857.673	654.300
280.585	16.889	857.607	654.869
281.599	16.985	856.404	654.263
282.614	16.851	856.285	653.596
283.628	16.996	855.014	653.126
284.643	16.820	854.783	652.214
285.657	16.734	854.578	651.669
286.672	16.886	853.734	651.554
287.687	16.814	853.025	650.677
288.701	16.900	852.593	650.619
289.716	16.901	852.128	650.212
290.730	16.891	851.801	649.866
291.745	17.005	850.703	649.408
292.760	16.920	849.834	648.363
293.774	17.025	849.555	648.493
294.789	16.983	849.412	648.167
295.803	17.060	848.456	647.673
296.818	17.010	848.184	647.218
297.833	17.014	847.072	646.329
298.847	16.876	846.554	645.349
299.862	16.899	845.882	644.866
300.876	17.090	845.171	644.993
301.891	17.079	844.696	644.534
302.906	17.197	844.141	644.502
303.920	17.260	843.454	644.157
304.935	17.276	843.093	643.886
305.949	17.492	841.957	643.778
306.964	17.368	841.560	642.950
307.979	17.170	841.275	641.924
308.993	17.217	840.689	641.600
310.008	17.335	839.919	641.398
311.022	17.348	839.812	641.312
312.037	17.268	839.025	640.350
313.052	17.429	838.083	640.181
314.066	17.346	837.574	639.425
315.081	17.075	837.495	638.287
316.095	17.054	836.678	637.532
317.110	17.179	835.921	637.365
318.125	17.104	835.896	637.008
319.139	17.132	835.167	636.501
320.154	17.271	834.664	636.584
321.168	17.231	834.015	635.881
322.183	17.328	833.361	635.689
323.197	17.155	833.511	635.103
324.212	17.275	832.750	634.915
325.227	17.236	831.866	634.038
326.241	17.314	831.252	633.805
327.256	17.269	830.674	633.139
328.270	17.302	830.028	632.716
329.285	17.294	829.532	632.252
330.300	17.195	829.168	631.548
331.314	17.308	828.619	631.494
332.329	17.257	827.848	630.662
333.343	17.525	826.986	630.941
334.358	17.464	826.863	630.566
335.373	17.537	826.028	630.144
336.387	17.501	825.655	629.671
337.402	17.478	825.629	629.509
338.416	17.515	824.578	628.792
339.431	17.770	823.894	629.154
340.446	17.717	823.714	628.766
341.460	17.804	823.038	628.515
342.475	17.704	822.555	627.721
343.489	17.875	821.923	627.811
344.504	17.763	821.369	626.924
345.519	17.949	821.068	627.321
346.533	18.019	820.445	627.044
347.548	17.804	820.246	626.047
348.562	17.919	819.400	625.769
349.577	17.761	818.743	624.636
350.592	17.662	818.298	623.876
351.606	17.603	817.659	623.119
352.621	17.675	817.343	623.088
353.635	17.647	817.205	622.822
354.650	17.658	816.659	622.394
355.665	17.625	816.336	621.972
356.679	17.654	815.780	621.597
357.694	17.784	815.413	621.738
358.708	17.919	814.339	621.355
359.723	17.922	813.521	620.686
360.738	17.812	813.370	620.116
361.752	17.744	813.065	619.583
362.767	17.840	812.577	619.503
363.781	17.726	812.679	619.112
364.796	17.999	812.110	619.614
365.810	17.945	811.283	618.734
366.825	18.131	811.077	619.194
367.840	18.256	810.621	619.246
368.854	18.271	810.196	618.921
369.869	18.235	809.693	618.350
370.883	18.244	808.906	617.727
371.898	18.125	808.514	616.943
372.913	18.292	807.931	617.045
373.927	18.282	807.311	616.482
374.942	18.260	806.938	616.063
375.956	18.116	806.547	615.193
376.971	18.300	805.736	615.179
377.986	18.339	805.272	614.913
379.000	18.377	804.835	614.659
380.015	18.480	804.340	614.595
381.029	18.357	803.809	613.697
382.044	18.233	803.498	612.961
383.059	18.391	802.640	612.817
384.073	18.344	802.152	612.223
385.088	18.372	801.521	611.787
386.102	18.321	800.692	610.916
387.117	18.318	800.070	610.379
388.132	18.291	799.812	610.032
389.146	18.212	799.815	609.700
390.161	18.246	799.318	609.388
391.175	18.457	798.544	609.494
392.190	18.571	798.163	609.552
393.205	18.498	797.855	609.004
394.219	18.477	797.231	608.401
395.234	18.460	796.738	607.909
396.248	18.417	796.422	607.462
397.263	18.423	795.944	607.064
398.278	18.275	795.379	606.056
399.292	18.221	794.981	605.509
400.307	18.281	794.265	605.122
401.321	18.137	794.390	604.653
402.336	18.231	794.097	604.709
403.350	18.393	793.298	604.618
404.365	18.447	792.816	604.387
405.380	18.453	792.349	603.999
406.394	18.495	791.910	603.762
407.409	18.681	791.408	603.978
408.423	18.743	790.853	603.721
409.438	18.709	790.469	603.254
410.453	18.916	790.238	603.750
411.467	18.897	789.897	603.370
412.482	18.713	789.845	602.631
413.496	18.830	789.042	602.378
414.511	18.967	788.369	602.289
415.526	19.047	787.687	601.996
416.540	18.771	787.991	601.208
417.555	18.847	787.507	601.052
418.569	18.850	787.095	600.695
419.584	18.897	786.619	600.440
420.599	18.746	786.157	599.510
421.613	154.244	1367.453	1787.410
422.628	133.261	1452.169	1787.541
