DTS Sentinel unit serial number:	SN413079Multiplexer serial number:	ORYXHardware model number:	OX4-SRSoftware version number:	ORYX F/W v4.00 Oryx Data Collector v3.7.2.0data status	okinstallation	princeton_trtdifferential loss correction	single-endedforward channel	channel 3reverse channel	N/Adate	2019/09/12time	18:16:03forward acquisition time	15.00reverse acquisition time	0.00gamma	496.2192k internal	0.2317k external	0.2317temperature offset calibration	1.0093default loss term (dB/km)	0.3790temperature slope calibration	1.0000multiplexer offset coefficient	1.0000multiplexer slope coefficient	1.0000fibre end	0.00T internal ref (°C)	33.50T ext. ref 1 (°C)	2.91T ext. ref 2 (°C)	28.08length (m)	temperature (°C)	Stokes	anti-Stokes-747.200	20.546	-0.228	0.186
-746.185	-9.662	0.716	-0.483
-745.171	-14.692	-0.346	-0.225
-744.156	800.000	0.272	1.132
-743.142	-200.000	-0.142	-0.921
-742.127	-200.000	0.085	0.696
-741.112	-80.408	-0.381	-0.129
-740.098	800.000	0.119	-0.465
-739.083	-150.910	1.160	-0.089
-738.069	159.916	0.303	-0.427
-737.054	621.731	-0.272	-0.693
-736.039	-7.756	0.332	-0.227
-735.025	-200.000	-0.012	0.185
-734.010	800.000	-0.299	-0.901
-732.996	165.650	-0.293	0.419
-731.981	591.843	-0.144	-0.360
-730.966	15.486	-0.338	-0.269
-729.952	43.271	-0.831	-0.768
-728.937	-107.629	-0.484	0.107
-727.923	-157.326	-0.762	-0.047
-726.908	-24.917	-0.075	-0.045
-725.894	-33.361	0.564	-0.316
-724.879	175.040	-0.224	-0.329
-723.864	100.263	-0.478	-0.561
-722.850	95.426	-0.504	-0.582
-721.835	-146.645	-0.728	0.064
-720.821	-200.000	-0.061	-0.589
-719.806	26.705	0.444	-0.376
-718.791	20.728	0.156	0.128
-717.777	189.000	-0.260	0.395
-716.762	787.169	-0.111	-0.308
-715.748	-70.791	1.010	0.385
-714.733	-135.028	-0.644	-0.079
-713.718	113.091	-0.312	0.383
-712.704	58.039	0.194	0.192
-711.689	-200.000	-0.012	-0.149
-710.675	-93.036	0.143	0.040
-709.660	-54.936	0.142	0.065
-708.645	800.000	-0.290	0.822
-707.631	-88.783	0.188	-0.057
-706.616	-200.000	-0.091	-0.875
-705.602	-92.067	0.356	-0.102
-704.587	78.888	-0.352	-0.381
-703.572	800.000	-0.080	-0.332
-702.558	800.000	-0.121	0.424
-701.543	160.775	0.385	-0.544
-700.529	-200.000	-0.042	-0.451
-699.514	-121.253	-0.886	0.150
-698.499	-200.000	0.082	0.535
-697.485	-200.000	0.040	-0.501
-696.470	28.275	-0.441	0.377
-695.456	-48.598	-0.300	0.146
-694.441	-96.525	0.123	-0.033
-693.426	-62.667	0.504	-0.211
-692.412	-200.000	0.017	-0.546
-691.397	595.403	0.120	-0.301
-690.383	-74.130	-0.675	0.247
-689.368	4.633	0.210	0.156
-688.354	172.605	-0.341	0.496
-687.339	-100.518	0.096	0.024
-686.324	-200.000	0.129	0.718
-685.310	-119.368	-0.469	0.082
-684.295	347.610	-0.245	-0.488
-683.281	407.865	-0.171	-0.365
-682.266	35.589	0.495	-0.440
-681.251	201.646	0.158	0.245
-680.237	800.000	0.043	0.184
-679.222	23.034	0.848	-0.703
-678.208	-77.346	-0.463	-0.163
-677.193	279.520	0.425	-0.766
-676.178	-7.049	-0.274	0.188
-675.164	-70.926	-0.574	0.218
-674.149	-15.585	-0.409	-0.264
-673.135	-184.116	-0.320	-0.005
-672.120	-159.712	-1.128	-0.063
-671.105	150.223	0.143	-0.196
-670.091	-52.567	-0.164	0.076
-669.076	-30.214	-0.855	0.491
-668.062	-4.563	0.313	-0.218
-667.047	-200.000	-0.690	-0.000
-666.032	121.643	-0.516	0.650
-665.018	-50.236	0.914	0.436
-664.003	-200.000	0.004	1.563
-662.989	-2.257	0.046	-0.033
-661.974	-200.000	0.024	-0.705
-660.959	800.000	-0.147	0.543
-659.945	90.242	0.178	0.200
-658.930	800.000	-0.221	-0.651
-657.916	85.454	-0.387	-0.429
-656.901	-106.458	-0.744	0.168
-655.886	434.937	-0.014	-0.031
-654.872	602.580	0.267	-0.670
-653.857	-200.000	0.033	0.725
-652.843	800.000	-0.121	-0.441
-651.828	-200.000	-0.082	-0.863
-650.814	-200.000	0.321	-1.597
-649.799	800.000	0.109	-0.336
-648.784	-18.107	0.190	0.120
-647.770	-14.471	-0.394	-0.256
-646.755	-60.361	0.355	-0.153
-645.741	-200.000	-0.082	-0.412
-644.726	800.000	-0.239	0.800
-643.711	-74.893	0.674	0.244
-642.697	800.000	0.091	-0.393
-641.682	-146.216	-0.501	0.044
-640.668	-143.596	-0.477	0.046
-639.653	-200.000	-0.125	-0.642
-638.638	42.249	0.454	-0.416
-637.624	-149.266	0.726	-0.058
-636.609	175.070	0.192	-0.280
-635.595	-97.253	0.501	0.132
-634.580	-22.083	-0.325	-0.199
-633.565	-17.001	-0.372	-0.237
-632.551	-150.211	-0.309	-0.024
-631.536	-10.200	-0.227	-0.152
-630.522	-200.000	-0.001	0.061
-629.507	-28.874	0.453	-0.262
-628.492	-123.778	0.691	0.110
-627.478	-41.743	-0.267	-0.138
-626.463	174.641	-0.242	-0.353
-625.449	-200.000	-0.003	-0.069
-624.434	-67.316	-0.317	0.126
-623.419	-82.276	0.804	-0.264
-622.405	109.938	-0.242	-0.292
-621.390	40.971	0.223	-0.203
-620.376	-181.010	0.135	0.003
-619.361	601.599	-0.056	-0.140
-618.346	386.436	0.468	-0.975
-617.332	14.746	0.361	0.284
-616.317	-200.000	0.053	0.859
-615.303	-86.737	0.373	-0.115
-614.288	-200.000	0.044	-0.577
-613.273	-98.774	0.410	-0.105
-612.259	-170.138	0.560	0.020
-611.244	132.297	0.297	0.386
-610.230	-200.000	-0.021	0.134
-609.215	224.186	-0.256	0.417
-608.201	-106.221	-0.427	0.096
-607.186	-168.662	0.721	-0.028
-606.171	63.496	-0.425	0.429
-605.157	-131.736	-0.464	-0.061
-604.142	-89.313	-0.296	-0.088
-603.128	-200.000	0.028	0.695
-602.113	-160.991	0.530	0.028
-601.098	4.099	-0.640	-0.472
-600.084	260.569	-0.243	0.423
-599.069	621.444	0.183	-0.464
-598.055	-152.591	-0.962	0.069
-597.040	-45.305	-0.331	0.166
-596.025	800.000	-0.159	0.576
-595.011	-0.099	0.126	0.090
-593.996	-24.636	0.497	-0.298
-592.982	60.591	0.343	0.342
-591.967	800.000	0.267	-0.794
-590.952	-200.000	0.068	-0.815
-589.938	-63.562	0.700	-0.289
-588.923	-64.549	-0.673	-0.275
-587.909	425.654	0.205	-0.444
-586.894	24.167	0.567	0.471
-585.879	-200.000	0.149	1.350
-584.865	93.904	-0.221	-0.252
-583.850	-40.045	0.659	-0.346
-582.836	-111.396	-0.648	-0.133
-581.821	-0.911	0.324	-0.231
-580.806	113.643	0.138	0.169
-579.792	-200.000	-0.014	0.239
-578.777	-37.472	0.336	-0.180
-577.763	-99.759	-0.426	-0.107
-576.748	-200.000	0.093	0.647
-575.733	9.635	0.388	0.296
-574.719	286.139	-0.422	-0.765
-573.704	-78.136	-0.715	0.247
-572.690	800.000	-0.014	-0.041
-571.675	-200.000	0.004	0.152
-570.661	-73.801	0.341	0.125
-569.646	-200.000	-0.078	0.829
-568.631	800.000	-0.081	-0.236
-567.617	-121.385	-0.616	0.103
-566.602	181.185	-0.413	0.611
-565.588	36.167	0.321	-0.284
-564.573	255.678	0.125	-0.215
-563.558	-69.835	0.112	-0.043
-562.544	109.865	0.203	-0.244
-561.529	-125.042	0.345	-0.053
-560.515	29.229	-0.174	-0.149
-559.500	-155.606	1.106	-0.071
-558.485	-19.234	0.705	-0.440
-557.471	235.686	0.331	-0.549
-556.456	800.000	-0.121	0.458
-555.442	-172.644	-0.217	0.007
-554.427	-61.683	0.102	0.043
-553.412	-200.000	0.045	-0.421
-552.398	-64.072	-0.585	0.240
-551.383	-80.019	0.284	0.096
-550.369	12.031	0.246	-0.190
-549.354	-177.886	-0.635	-0.015
-548.339	-200.000	-0.024	0.222
-547.325	-43.117	-1.095	0.558
-546.310	-93.221	-0.476	0.133
-545.296	178.394	-0.327	-0.480
-544.281	4.252	0.254	0.187
-543.266	-31.083	0.303	0.172
-542.252	149.749	0.202	0.276
-541.237	-28.738	0.674	-0.390
-540.223	-62.965	-0.701	0.291
-539.208	505.504	-0.116	0.271
-538.193	248.182	0.083	0.141
-537.179	-148.158	-0.503	-0.042
-536.164	800.000	-0.202	0.590
-535.150	800.000	-0.161	-0.690
-534.135	216.005	0.115	-0.184
-533.121	-73.983	0.676	0.246
-532.106	-36.005	-0.696	0.378
-531.091	68.580	0.511	-0.526
-530.077	10.245	-0.347	0.265
-529.062	-71.556	-0.269	0.101
-528.048	-200.000	0.041	-0.356
-527.033	-110.256	0.237	0.050
-526.018	-107.942	0.255	-0.056
-525.004	-12.484	-0.531	-0.348
-523.989	-200.000	-0.011	0.129
-522.975	7.085	-0.298	-0.223
-521.960	-111.075	-1.043	0.215
-520.945	-59.686	-0.481	0.207
-519.931	-32.027	-0.305	-0.171
-518.916	83.165	-0.243	-0.266
-517.902	-200.000	0.043	-0.466
-516.887	183.451	-0.124	0.185
-515.872	-78.362	-0.598	0.206
-514.858	238.632	0.260	0.433
-513.843	-86.344	-0.485	0.150
-512.829	336.415	-0.555	-1.082
-511.814	-7.997	0.432	-0.292
-510.799	-90.164	0.108	0.031
-509.785	-137.007	0.461	-0.053
-508.770	-25.879	0.063	-0.037
-507.756	-114.650	-0.142	0.027
-506.741	-188.913	0.454	0.006
-505.726	193.911	-0.327	-0.497
-504.712	-105.279	0.428	-0.098
-503.697	120.547	0.091	0.113
-502.683	-96.442	0.108	-0.029
-501.668	64.670	-0.302	-0.305
-500.653	-114.997	0.428	-0.082
-499.639	515.094	0.274	0.643
-498.624	-85.603	-0.265	0.083
-497.610	127.322	0.223	-0.283
-496.595	-200.000	0.016	0.627
-495.581	16.154	-0.286	0.226
-494.566	-200.000	-0.012	-0.478
-493.551	-24.206	-0.589	-0.352
-492.537	53.730	0.404	0.389
-491.522	177.166	0.421	-0.615
-490.508	-0.934	0.664	-0.471
-489.493	-200.000	0.070	0.334
-488.478	-74.331	-0.414	-0.150
-487.464	368.275	0.292	0.593
-486.449	186.415	-0.273	0.407
-485.435	261.173	0.308	-0.534
-484.420	-66.152	-0.119	-0.048
-483.405	-38.404	0.312	0.166
-482.391	59.357	-0.271	0.267
-481.376	202.473	0.379	0.587
-480.362	568.117	0.477	-1.161
-479.347	-117.506	0.625	0.113
-478.332	498.247	-0.208	-0.479
-477.318	40.190	0.345	-0.311
-476.303	-81.226	-0.573	-0.190
-475.289	-200.000	0.081	0.503
-474.274	-148.768	-0.478	0.039
-473.259	-200.000	-0.179	-1.461
-472.245	-17.752	0.499	-0.314
-471.230	-200.000	0.102	-1.089
-470.216	800.000	0.129	0.363
-469.201	-27.890	0.251	-0.146
-468.186	421.611	0.220	0.472
-467.172	-12.029	-0.328	-0.215
-466.157	-103.994	-0.314	-0.073
-465.143	-89.574	-0.960	0.282
-464.128	-81.275	-0.605	0.200
-463.113	147.689	-0.204	-0.275
-462.099	563.343	0.113	-0.275
-461.084	-41.749	-0.065	0.034
-460.070	167.280	-0.087	0.124
-459.055	698.868	-0.247	-0.650
-458.040	-102.757	0.726	-0.173
-457.026	800.000	-0.060	0.242
-456.011	-156.579	0.439	-0.027
-454.997	-24.135	0.330	-0.197
-453.982	-6.008	0.555	0.380
-452.968	-200.000	-0.016	0.901
-451.953	-200.000	0.070	0.675
-450.938	-200.000	-0.062	-0.791
-449.924	642.397	0.277	0.706
-448.909	-18.052	0.427	-0.268
-447.895	-200.000	0.018	0.210
-446.880	-17.057	-0.383	0.242
-445.865	760.272	0.192	0.522
-444.851	44.916	-0.673	-0.620
-443.836	-48.075	0.313	-0.151
-442.822	-75.985	-0.808	-0.286
-441.807	-14.878	0.311	0.200
-440.792	-9.316	-0.415	0.277
-439.778	230.742	-0.488	-0.800
-438.763	800.000	-0.173	-0.509
-437.749	-200.000	-0.023	0.172
-436.734	-73.957	-0.819	0.297
-435.719	-200.000	-0.069	-0.340
-434.705	-200.000	0.076	0.541
-433.690	119.816	-0.106	-0.131
-432.676	-86.676	0.403	0.123
-431.661	54.203	-0.430	0.414
-430.646	-15.707	0.531	-0.338
-429.632	-85.108	-0.520	0.163
-428.617	32.364	0.902	0.779
-427.603	-100.330	0.215	-0.053
-426.588	-98.009	-0.135	-0.035
-425.573	-54.724	0.393	-0.178
-424.559	37.784	0.302	-0.268
-423.544	-67.787	-0.275	-0.108
-422.530	-112.624	0.521	0.104
-421.515	-200.000	-0.009	-0.693
-420.500	420.240	0.121	-0.259
-419.486	800.000	0.078	-0.272
-418.471	254.501	-0.279	-0.477
-417.457	-22.486	-0.294	0.178
-416.442	520.319	0.181	0.423
-415.428	-32.770	-0.658	0.366
-414.413	-22.234	1.051	0.637
-413.398	275.077	-0.258	0.457
-412.384	-36.328	0.702	-0.378
-411.369	-34.397	0.118	0.064
-410.355	-72.407	0.457	0.169
-409.340	800.000	0.180	0.775
-408.325	141.153	-0.561	-0.742
-407.311	245.415	-0.157	0.264
-406.296	403.154	0.162	-0.341
-405.282	-200.000	-0.147	0.903
-404.267	-65.218	-0.530	0.213
-403.252	-108.721	-0.252	-0.054
-402.238	64.855	-0.438	-0.442
-401.223	-200.000	-0.000	-0.159
-400.209	174.425	-0.166	0.239
-399.194	280.968	-0.117	0.209
-398.179	-41.929	0.307	-0.157
-397.165	621.767	-0.263	0.662
-396.150	3.897	0.395	0.288
-395.136	34.455	0.472	-0.412
-394.121	78.506	-0.616	-0.657
-393.106	-200.000	0.026	-0.603
-392.092	122.722	0.522	-0.652
-391.077	-44.188	0.596	-0.298
-390.063	141.055	0.234	-0.309
-389.048	245.408	-0.028	-0.046
-388.033	-28.660	-1.134	0.652
-387.019	-25.379	0.588	0.347
-386.004	-6.625	0.422	0.287
-384.990	67.618	-0.170	0.174
-383.975	47.353	0.392	-0.365
-382.960	341.091	-0.481	-0.938
-381.946	-200.000	0.010	-0.072
-380.931	-147.230	0.513	0.044
-379.917	-38.562	0.788	0.416
-378.902	-61.492	-0.489	0.205
-377.888	68.119	-0.281	0.287
-376.873	147.900	0.282	0.380
-375.858	54.107	0.258	0.248
-374.844	270.870	-0.470	0.826
-373.829	-117.764	0.523	0.094
-372.815	-124.530	1.092	-0.169
-371.800	41.711	-0.456	0.412
-370.785	-138.574	0.711	0.078
-369.771	-87.417	-0.371	0.112
-368.756	-45.911	0.533	0.263
-367.742	-200.000	0.033	-0.157
-366.727	-119.316	0.316	-0.055
-365.712	106.537	-0.118	-0.140
-364.698	-200.000	-0.170	1.095
-363.683	387.356	-0.111	0.229
-362.669	36.711	-0.513	-0.452
-361.654	519.343	-0.246	0.575
-360.639	49.920	-0.336	-0.316
-359.625	-18.792	-0.236	-0.146
-358.610	-200.000	0.026	-0.509
-357.596	220.924	0.162	-0.260
-356.581	-133.128	-0.350	0.044
-355.566	-124.699	-0.443	-0.068
-354.552	-200.000	0.096	-0.752
-353.537	-200.000	0.008	-0.369
-352.523	-22.057	-0.207	0.125
-351.508	-114.169	-0.880	0.170
-350.493	-120.541	0.333	-0.056
-349.479	72.784	0.620	-0.646
-348.464	-200.000	0.037	0.252
-347.450	800.000	0.090	0.277
-346.435	-86.544	0.138	-0.042
-345.420	800.000	0.229	0.654
-344.406	94.640	-0.186	-0.210
-343.391	218.173	-0.261	0.416
-342.377	46.857	0.742	-0.687
-341.362	-49.733	-0.340	0.161
-340.348	-182.949	-1.047	0.019
-339.333	24.781	0.910	-0.752
-338.318	-156.717	-0.784	0.048
-337.304	-178.280	0.702	0.016
-336.289	-53.647	0.610	0.278
-335.275	-200.000	-0.136	-1.101
-334.260	-157.433	-0.444	-0.027
-333.245	-200.000	-0.019	-0.125
-332.231	-62.778	-1.027	0.424
-331.216	-83.419	0.746	0.238
-330.202	-51.911	-0.233	-0.108
-329.187	467.201	-0.180	0.402
-328.172	800.000	-0.143	0.406
-327.158	206.397	0.508	-0.787
-326.143	173.372	-0.327	0.470
-325.129	-87.996	-0.783	0.234
-324.114	-159.580	-0.319	-0.018
-323.099	42.538	-0.309	-0.280
-322.085	-113.699	-0.644	-0.125
-321.070	-51.715	-0.097	0.045
-320.056	-15.660	-0.311	-0.197
-319.041	-200.000	0.146	-1.019
-318.026	245.236	-0.448	-0.751
-317.012	86.044	0.474	0.520
-315.997	800.000	0.069	-0.218
-314.983	15.250	-0.239	0.187
-313.968	-80.966	-0.287	0.095
-312.953	-17.744	0.145	-0.091
-311.939	45.474	-0.067	0.061
-310.924	-168.025	0.155	0.006
-309.910	-94.832	-0.527	0.142
-308.895	-48.609	-0.728	-0.348
-307.880	800.000	-0.268	0.805
-306.866	16.850	0.230	0.181
-305.851	-98.017	-0.634	-0.163
-304.837	-125.514	-0.702	0.106
-303.822	66.243	0.640	-0.647
-302.807	-1.086	0.647	0.455
-301.793	-122.907	-0.428	-0.069
-300.778	405.626	-0.028	0.059
-299.764	13.137	-0.607	0.468
-298.749	800.000	0.059	0.174
-297.735	10.137	0.407	-0.308
-296.720	800.000	-0.330	-0.929
-295.705	-2.260	0.301	0.210
-294.691	-72.824	-1.061	0.388
-293.676	177.029	0.086	-0.125
-292.662	-28.795	-0.274	-0.157
-291.647	47.291	-0.693	0.642
-290.632	45.286	-0.343	-0.315
-289.618	-104.162	0.401	0.093
-288.603	-43.429	-0.285	-0.143
-287.589	-55.382	-0.585	0.261
-286.574	720.924	0.058	0.154
-285.559	162.095	-0.407	-0.567
-284.545	219.949	0.113	-0.180
-283.530	-147.061	-0.368	-0.031
-282.516	81.868	-0.812	-0.874
-281.501	-41.830	-0.412	0.210
-280.486	-126.755	0.664	-0.098
-279.472	-200.000	-0.011	-0.168
-278.457	-200.000	0.146	-0.809
-277.443	-121.403	0.070	0.012
-276.428	-89.492	-0.507	-0.148
-275.413	18.235	-0.401	-0.318
-274.399	-48.354	-0.180	-0.086
-273.384	-156.997	-0.562	0.034
-272.370	-53.634	-0.183	0.083
-271.355	-80.580	-0.368	0.122
-270.340	-163.149	-0.276	-0.013
-269.326	162.671	0.493	-0.688
-268.311	434.523	-0.528	1.142
-267.297	151.864	0.207	0.280
-266.282	-76.629	0.253	-0.088
-265.267	12.660	-0.362	0.278
-264.253	193.796	0.624	0.939
-263.238	800.000	0.280	0.800
-262.224	-22.784	0.172	0.103
-261.209	580.281	-0.220	-0.535
-260.195	-32.334	-0.203	-0.113
-259.180	800.000	0.104	0.316
-258.165	-51.396	-0.523	0.243
-257.151	-35.976	-0.651	-0.350
-256.136	7.989	-0.347	-0.259
-255.122	333.785	-0.233	0.448
-254.107	800.000	0.234	-0.933
-253.092	515.799	0.072	0.168
-252.078	341.279	-0.460	0.894
-251.063	-200.000	-0.058	-0.478
-250.049	287.692	-0.420	0.755
-249.034	-75.533	0.900	-0.318
-248.019	-95.443	-0.927	0.247
-247.005	-164.579	-0.231	0.010
-245.990	579.939	-0.263	0.639
-244.976	-200.000	0.003	-0.253
-243.961	170.700	0.249	-0.354
-242.946	-200.000	-0.104	-1.191
-241.932	-127.957	0.847	0.121
-240.917	23.506	0.416	0.340
-239.903	519.861	-0.216	0.502
-238.888	-58.850	-0.665	0.285
-237.873	-48.538	-0.282	0.134
-236.859	6.101	-0.545	-0.401
-235.844	-186.551	0.455	-0.006
-234.830	-87.145	0.411	-0.124
-233.815	-159.563	0.540	0.030
-232.800	-143.745	0.765	0.072
-231.786	67.604	0.250	-0.253
-230.771	-93.341	-0.941	-0.259
-229.757	-85.565	0.438	0.135
-228.742	-3.189	-0.712	-0.492
-227.727	-144.312	-0.389	-0.036
-226.713	800.000	-0.295	1.130
-225.698	-141.054	-0.710	-0.072
-224.684	74.586	0.630	-0.658
-223.669	3.833	0.124	-0.090
-222.655	-200.000	0.133	0.907
-221.640	245.182	0.212	-0.354
-220.625	307.818	0.086	-0.160
-219.611	117.424	-0.228	-0.278
-218.596	800.000	-0.307	-1.275
-217.582	-200.000	0.099	0.532
-216.567	382.395	0.155	0.316
-215.552	-140.611	0.668	0.069
-214.538	-55.840	-0.162	-0.072
-213.523	-200.000	0.072	0.607
-212.509	65.885	0.156	0.157
-211.494	14.361	0.301	-0.233
-210.479	-200.000	0.187	-1.106
-209.465	33.183	0.490	0.422
-208.450	362.206	0.122	-0.243
-207.436	-200.000	0.015	0.877
-206.421	-89.830	-0.108	0.031
-205.406	-97.869	0.678	0.174
-204.392	220.262	0.213	0.338
-203.377	-122.905	-0.573	0.092
-202.363	-200.000	0.030	0.638
-201.348	-200.000	0.078	0.391
-200.333	-105.470	0.798	-0.180
-199.319	-40.072	0.573	-0.296
-198.304	-162.403	-0.927	0.046
-197.290	-200.000	0.040	0.305
-196.275	-163.878	1.100	0.051
-195.260	-200.000	0.017	-0.103
-194.246	-200.000	0.009	-0.936
-193.231	76.626	0.292	-0.307
-192.217	39.269	-0.371	-0.329
-191.202	242.501	0.066	-0.109
-190.187	-98.710	0.453	0.114
-189.173	207.371	-0.488	0.755
-188.158	376.281	0.413	0.836
-187.144	-29.128	-0.198	0.112
-186.129	-200.000	-0.083	-0.741
-185.114	210.407	0.303	-0.471
-184.100	-200.000	-0.061	-0.697
-183.085	-200.000	0.040	0.424
-182.071	-200.000	0.077	1.001
-181.056	426.630	-0.302	0.644
-180.042	800.000	0.103	0.405
-179.027	648.949	0.284	0.719
-178.012	-96.435	0.729	0.191
-176.998	-200.000	-0.082	-0.713
-175.983	-143.417	0.351	0.033
-174.969	105.131	-0.242	0.282
-173.954	-46.275	0.618	0.301
-172.939	129.252	0.531	-0.671
-171.925	257.311	0.240	-0.409
-170.910	-8.682	0.944	0.627
-169.896	98.930	0.438	-0.501
-168.881	432.397	-0.078	0.167
-167.866	331.215	0.367	-0.700
-166.852	101.330	0.149	-0.172
-165.837	-20.033	0.574	0.351
-164.823	177.849	-0.221	0.319
-163.808	-200.000	0.923	-0.002
-162.793	22.365	0.186	-0.150
-161.779	-200.000	-0.055	0.473
-160.764	795.854	-0.019	-0.053
-159.750	253.864	0.251	0.424
-158.735	354.402	-0.480	0.945
-157.720	735.263	0.108	0.287
-156.706	-103.400	-0.356	0.083
-155.691	586.782	0.254	0.618
-154.677	-200.000	0.079	0.761
-153.662	-200.000	-0.138	1.111
-152.647	-31.877	0.523	-0.290
-151.633	-94.520	0.342	0.092
-150.618	-149.180	-0.452	-0.036
-149.604	25.748	0.451	-0.372
-148.589	28.247	-0.585	-0.489
-147.574	800.000	-0.178	0.535
-146.560	158.006	-0.310	0.425
-145.545	31.931	0.189	-0.161
-144.531	-25.432	0.521	0.305
-143.516	80.506	-0.506	0.539
-142.502	-35.837	0.206	-0.110
-141.487	-26.252	0.163	-0.094
-140.472	-200.000	0.064	-0.700
-139.458	173.538	-0.266	0.380
-138.443	10.723	0.454	0.343
-137.429	-7.396	0.690	-0.462
-136.414	-200.000	0.004	0.188
-135.399	800.000	-0.115	0.323
-134.385	-103.608	-0.304	0.071
-133.370	460.921	-0.177	0.391
-132.356	-136.051	-0.818	0.095
-131.341	158.818	-0.256	-0.351
-130.326	-200.000	-0.058	-0.503
-129.312	800.000	0.043	-0.119
-128.297	-200.000	-0.045	-0.422
-127.283	-200.000	-0.171	0.811
-126.268	-200.000	0.014	0.505
-125.253	-200.000	0.031	0.755
-124.239	776.513	0.164	0.443
-123.224	242.043	0.118	-0.195
-122.210	173.536	-0.082	0.117
-121.195	800.000	0.152	-0.645
-120.180	-67.629	0.531	0.206
-119.166	43.632	0.609	-0.551
-118.151	-53.045	0.874	0.397
-117.137	-90.852	-0.474	-0.135
-116.122	498.388	-0.171	0.389
-115.107	80.557	0.184	-0.196
-114.093	185.556	-0.451	-0.662
-113.078	-200.000	0.055	1.094
-112.064	-173.283	0.424	-0.013
-111.049	317.108	-0.332	0.620
-110.034	-51.989	-0.482	0.221
-109.020	-88.267	0.648	0.192
-108.005	162.278	0.197	0.273
-106.991	-200.000	-0.078	-0.611
-105.976	-164.186	0.444	-0.020
-104.962	800.000	-0.080	-0.261
-103.947	130.080	-0.247	0.312
-102.932	800.000	0.139	-0.412
-101.918	-127.187	-0.597	-0.086
-100.903	-85.285	0.453	0.140
-99.889	-200.000	-0.002	0.071
-98.874	-162.122	0.471	0.023
-97.859	288.197	-0.382	0.684
-96.845	800.000	0.259	1.030
-95.830	-119.764	0.139	0.024
-94.816	-200.000	-0.066	-0.470
-93.801	321.850	-0.456	-0.857
-92.786	-200.000	0.005	0.263
-91.772	-126.409	0.921	-0.135
-90.757	-200.000	-0.001	0.646
-89.743	146.332	-0.097	0.128
-88.728	-111.864	-0.511	-0.102
-87.713	-200.000	-0.113	0.807
-86.699	-93.835	-0.062	-0.017
-85.684	568.029	0.404	-0.969
-84.670	-200.000	-0.022	-0.403
-83.655	31.010	-0.399	-0.338
-82.640	-45.334	0.591	-0.290
-81.626	124.368	0.864	-1.072
-80.611	256.133	0.477	-0.808
-79.597	-200.000	0.011	0.134
-78.582	318.559	0.266	0.496
-77.567	223.903	-0.318	0.507
-76.553	73.185	0.440	0.454
-75.538	-200.000	0.119	0.639
-74.524	-100.295	0.257	-0.063
-73.509	9.813	0.780	0.584
-72.494	24.879	-0.105	0.086
-71.480	-174.206	0.368	-0.011
-70.465	48.136	0.165	0.152
-69.451	-200.000	-0.008	-0.323
-68.436	-25.245	0.830	-0.484
-67.422	97.154	-0.259	0.293
-66.407	26.809	-0.227	-0.187
-65.392	556.002	-0.224	-0.531
-64.378	738.370	0.165	0.436
-63.363	-156.681	0.254	0.016
-62.349	-200.000	0.049	-0.845
-61.334	-59.562	-0.975	-0.413
-60.319	34.429	0.703	0.605
-59.305	312.135	-0.533	-0.987
-58.290	-22.392	1.111	0.663
-57.276	800.000	0.458	1.558
-56.261	-200.000	93.558	560.976
-55.246	636.548	1368.506	3425.473
-54.232	198.179	2547.188	3838.719
-53.217	117.516	2155.760	2613.978
-52.203	43.844	1701.317	1535.554
-51.188	36.890	1514.109	1319.383
-50.173	34.215	1488.312	1278.913
-49.159	54.201	1538.619	1459.041
-48.144	55.264	1556.985	1483.665
-47.130	36.988	1514.639	1320.302
-46.115	33.819	1500.027	1286.095
-45.100	33.475	1497.663	1281.693
-44.086	33.499	1495.179	1279.672
-43.071	33.704	1493.596	1279.654
-42.057	33.473	1492.094	1276.756
-41.042	33.571	1490.344	1275.869
-40.027	33.534	1488.721	1274.183
-39.013	33.500	1487.171	1272.577
-37.998	33.697	1485.428	1272.357
-36.984	33.448	1485.723	1270.889
-35.969	33.436	1483.714	1269.038
-34.954	33.592	1483.158	1269.554
-33.940	33.423	1481.115	1266.628
-32.925	33.598	1480.300	1267.052
-31.911	33.634	1479.224	1266.320
-30.896	33.703	1477.978	1265.659
-29.881	33.413	1475.874	1261.881
-28.867	33.644	1474.729	1262.385
-27.852	33.622	1472.513	1260.291
-26.838	33.433	1472.106	1258.637
-25.823	33.489	1470.046	1257.200
-24.809	33.497	1467.471	1254.997
-23.794	33.415	1467.204	1254.180
-22.779	33.784	1464.696	1254.422
-21.765	33.319	1466.549	1252.886
-20.750	33.437	1463.437	1250.959
-19.736	33.529	1462.310	1250.547
-18.721	33.417	1461.844	1249.359
-17.706	33.368	1461.199	1248.437
-16.692	33.464	1459.929	1247.936
-15.677	33.493	1458.521	1246.873
-14.663	33.384	1458.221	1245.849
-13.648	33.295	1457.361	1244.485
-12.633	33.464	1456.065	1244.437
-11.619	33.505	1454.728	1243.516
-10.604	33.607	1453.380	1242.982
-9.590	33.694	1452.382	1242.643
-8.575	33.567	1451.731	1241.209
-7.560	33.507	1451.129	1240.252
-6.546	33.456	1450.503	1239.334
-5.531	33.412	1449.845	1238.433
-4.517	33.623	1448.212	1238.371
-3.502	33.456	1447.776	1236.856
-2.487	33.728	1445.996	1237.064
-1.473	33.612	1446.432	1236.627
-0.458	33.438	1443.992	1233.363
0.556	34.241	1436.269	1222.411
1.571	31.179	1409.344	1180.066
2.586	27.316	1350.191	1106.988
3.600	25.747	1270.165	1032.295
4.615	24.269	1223.385	986.018
5.629	20.745	1166.995	921.858
6.644	11.231	1082.486	808.069
7.659	4.297	1039.828	743.032
8.673	3.197	1034.037	733.590
9.688	3.103	1030.813	730.792
10.702	2.516	1029.466	726.988
11.717	2.825	1027.470	726.977
12.731	5.953	1031.720	744.776
13.746	15.336	1044.337	798.692
14.761	23.310	1054.729	844.761
15.775	25.633	1056.707	857.354
16.790	25.969	1056.645	858.832
17.804	25.509	1056.421	856.383
18.819	25.883	1054.770	856.745
19.834	25.787	1053.981	855.575
20.848	25.653	1053.883	854.782
21.863	26.279	1053.162	857.090
22.877	25.999	1052.995	855.550
23.892	26.000	1052.001	854.674
24.907	25.757	1051.321	852.895
25.921	25.830	1049.912	852.022
26.936	25.940	1050.155	852.663
27.950	25.777	1049.047	850.919
28.965	26.000	1047.511	850.650
29.980	25.459	1047.159	847.737
30.994	25.753	1046.016	848.122
32.009	25.916	1044.967	847.965
33.023	26.093	1043.540	847.560
34.038	25.567	1043.284	844.810
35.053	25.422	1042.880	843.727
36.067	25.891	1041.901	845.060
37.082	25.871	1040.091	843.424
38.096	25.877	1040.203	843.466
39.111	25.694	1040.286	842.601
40.126	26.250	1038.045	843.307
41.140	25.936	1037.495	841.324
42.155	25.804	1036.247	839.619
43.169	25.774	1034.582	838.056
44.184	25.549	1034.828	837.134
45.199	25.678	1033.276	836.407
46.213	25.724	1032.622	836.016
47.228	25.505	1031.166	833.746
48.242	25.851	1029.865	834.224
49.257	25.962	1030.669	835.317
50.271	25.793	1029.484	833.497
51.286	26.076	1029.863	835.040
52.301	25.954	1028.572	833.359
53.315	26.175	1027.548	833.475
54.330	26.225	1026.248	832.574
55.344	25.803	1025.582	830.019
56.359	26.036	1024.750	830.345
57.374	26.026	1023.714	829.386
58.388	25.831	1022.490	827.423
59.403	25.545	1022.671	826.185
60.417	25.543	1022.592	826.040
61.432	25.593	1021.420	825.246
62.447	25.414	1021.979	824.806
63.461	25.760	1020.586	825.193
64.476	25.599	1019.229	823.285
65.490	25.544	1018.805	822.617
66.505	25.483	1018.234	821.804
67.520	25.869	1015.875	821.592
68.534	25.698	1015.702	820.597
69.549	25.450	1015.018	818.842
70.563	25.345	1014.260	817.679
71.578	25.166	1012.748	815.574
72.593	25.442	1011.758	815.959
73.607	25.069	1011.048	813.622
74.622	24.999	1010.425	812.732
75.636	25.293	1009.975	813.628
76.651	25.457	1008.893	813.431
77.666	25.299	1008.845	812.605
78.680	25.512	1006.555	811.647
79.695	25.530	1007.030	812.041
80.709	25.206	1006.529	810.101
81.724	25.550	1005.427	810.695
82.739	25.550	1004.242	809.669
83.753	25.578	1003.777	809.346
84.768	25.656	1003.261	809.208
85.782	26.353	1002.935	812.010
86.797	26.323	1002.483	811.435
87.812	26.363	1001.210	810.514
88.826	26.418	1000.463	810.083
89.841	25.896	1000.265	807.513
90.855	26.621	997.275	808.265
91.870	26.475	998.085	808.195
92.884	26.447	997.067	807.178
93.899	26.463	995.519	805.922
94.914	26.328	994.865	804.721
95.928	26.317	994.630	804.413
96.943	26.161	994.837	803.812
97.957	25.640	993.639	800.457
98.972	25.890	991.669	799.907
99.987	25.890	990.206	798.659
101.001	25.610	990.486	797.573
102.016	25.966	990.212	798.857
103.030	26.257	988.884	799.001
104.045	25.581	988.940	795.987
105.060	26.027	985.912	795.448
106.074	25.991	985.213	794.654
107.089	25.846	985.083	793.840
108.103	26.006	984.636	794.112
109.118	26.037	983.806	793.511
110.133	25.849	982.853	791.844
111.147	25.729	981.736	790.347
112.162	25.869	980.039	789.528
113.176	25.259	979.867	786.645
114.191	25.461	979.333	787.030
115.206	25.615	977.734	786.349
116.220	25.332	977.128	784.555
117.235	25.743	975.335	784.837
118.249	25.333	975.091	782.787
119.264	25.510	974.003	782.613
120.279	25.428	974.211	782.357
121.293	25.321	972.569	780.502
122.308	25.515	971.420	780.352
123.322	25.558	970.873	780.033
124.337	25.596	970.608	779.914
125.352	25.114	969.540	776.897
126.366	25.012	966.690	774.104
127.381	24.723	966.055	772.282
128.395	25.028	966.551	773.929
129.410	25.879	965.921	777.024
130.424	25.991	965.195	776.853
131.439	25.938	964.036	775.627
132.454	26.082	963.405	775.667
133.468	26.032	962.330	774.518
134.483	25.851	962.055	773.451
135.497	26.019	961.399	773.576
136.512	26.355	960.202	773.983
137.527	26.188	960.008	773.046
138.541	26.141	958.770	771.780
139.556	26.216	957.972	771.388
140.570	26.209	958.339	771.586
141.585	26.253	956.650	770.344
142.600	26.489	955.697	770.513
143.614	26.490	954.787	769.719
144.629	26.358	954.288	768.687
145.643	26.439	954.266	768.943
146.658	26.491	951.968	767.244
147.673	26.175	951.487	765.450
148.687	26.279	950.874	765.327
149.702	26.154	950.133	764.135
150.716	26.101	948.276	762.353
151.731	25.720	948.490	760.847
152.746	25.912	947.245	760.591
153.760	26.608	945.614	762.143
154.775	26.320	946.117	761.268
155.789	26.512	944.681	760.851
156.804	26.665	944.118	760.978
157.819	26.498	943.368	759.604
158.833	26.240	943.246	758.354
159.848	26.518	942.371	758.748
160.862	26.518	941.431	757.924
161.877	26.382	939.504	755.741
162.892	26.238	939.188	754.816
163.906	26.473	938.017	754.789
164.921	26.368	937.559	753.913
165.935	26.002	936.776	751.696
166.950	26.374	935.592	752.226
167.964	26.253	935.423	751.518
168.979	26.319	933.986	750.571
169.994	26.332	931.975	748.946
171.008	26.109	931.793	747.807
172.023	26.537	931.302	749.122
173.037	26.607	930.315	748.550
174.052	26.628	928.960	747.481
175.067	26.249	928.433	745.426
176.081	26.255	927.842	744.910
177.096	26.402	926.841	744.644
178.110	26.214	926.235	743.321
179.125	26.085	924.895	741.648
180.140	25.486	924.318	738.659
181.154	25.842	923.657	739.525
182.169	25.904	923.312	739.439
183.183	26.397	922.074	740.402
184.198	26.379	923.161	741.135
185.213	26.128	922.059	739.159
186.227	26.344	920.317	738.579
187.242	26.734	919.533	739.473
188.256	26.600	919.094	738.511
189.271	26.325	919.994	738.047
190.286	26.684	917.898	737.760
191.300	26.326	917.536	735.946
192.315	25.807	916.517	732.952
193.329	25.114	914.593	728.535
194.344	24.644	913.507	725.698
195.359	24.981	914.103	727.475
196.373	26.347	914.339	733.143
197.388	26.489	914.124	733.482
198.402	26.541	913.605	733.210
199.417	26.257	912.879	731.413
200.432	26.242	912.217	730.757
201.446	26.500	911.800	731.402
202.461	26.227	910.903	729.515
203.475	26.088	910.152	728.288
204.490	25.772	910.131	726.932
205.504	24.727	907.557	720.602
206.519	24.973	907.808	721.730
207.534	25.566	907.923	724.147
208.548	26.128	906.524	725.224
209.563	26.115	906.529	725.114
210.577	26.177	906.530	725.301
211.592	25.907	905.695	723.482
212.607	26.459	904.724	724.856
213.621	26.598	903.863	724.656
214.636	26.776	902.491	724.205
215.650	26.536	902.367	723.083
216.665	26.502	902.530	723.015
217.680	26.470	901.577	722.057
218.694	26.470	901.640	722.043
219.709	26.175	901.575	720.752
220.723	26.068	899.755	718.807
221.738	26.149	899.722	719.040
222.753	26.138	899.483	718.740
223.767	26.209	897.683	717.523
224.782	26.474	897.451	718.324
225.796	26.769	897.072	719.130
226.811	26.898	895.681	718.461
227.826	26.243	894.999	715.258
228.840	25.825	892.994	711.942
229.855	25.550	892.672	710.534
230.869	25.411	893.152	710.305
231.884	25.257	891.695	708.474
232.899	25.571	890.836	708.966
233.913	26.248	891.182	711.847
234.928	26.561	890.611	712.563
235.942	25.900	890.415	709.741
236.957	26.321	890.288	711.232
237.972	25.887	888.858	708.321
238.986	25.820	889.357	708.394
240.001	25.878	887.514	707.092
241.015	26.021	887.340	707.451
242.030	26.171	887.116	707.797
243.045	26.250	886.586	707.621
244.059	25.960	886.689	706.504
245.074	26.677	884.991	707.891
246.088	26.294	884.898	706.258
247.103	26.054	883.430	704.088
248.117	26.010	884.062	704.356
249.132	26.686	883.671	706.621
250.147	26.755	883.609	706.779
251.161	27.239	883.142	708.226
252.176	27.296	882.061	707.518
253.190	27.501	881.274	707.621
254.205	27.483	881.455	707.634
255.220	27.648	880.539	707.476
256.234	27.487	879.268	705.769
257.249	27.476	878.817	705.302
258.263	27.362	878.918	704.880
259.278	27.240	878.318	703.863
260.293	27.292	877.295	703.183
261.307	27.328	877.352	703.306
262.322	27.011	876.500	701.334
263.336	27.127	875.725	701.101
264.351	26.825	874.871	699.191
265.366	25.708	871.718	692.316
266.380	25.232	871.380	690.155
267.395	26.543	872.250	695.828
268.409	27.131	872.404	698.148
269.424	26.581	872.143	695.766
270.439	26.929	870.784	695.952
271.453	27.049	870.681	696.270
272.468	26.764	869.819	694.428
273.482	27.107	869.427	695.364
274.497	27.508	869.489	696.887
275.512	27.232	867.307	694.024
276.526	26.597	867.325	691.552
277.541	26.575	867.288	691.379
278.555	26.847	866.537	691.758
279.570	26.728	866.118	690.907
280.585	26.998	865.051	691.024
281.599	27.432	864.161	691.901
282.614	27.204	864.678	691.385
283.628	26.518	862.892	687.293
284.643	26.319	862.399	686.086
285.657	26.726	862.525	687.669
286.672	26.936	860.788	687.018
287.687	26.081	860.289	683.321
288.701	26.390	861.099	685.076
289.716	27.009	859.852	686.366
290.730	26.447	858.882	683.406
291.745	26.744	858.315	684.018
292.760	26.343	857.829	682.057
293.774	26.020	857.493	680.508
294.789	27.258	856.602	684.405
295.803	27.470	857.365	685.753
296.818	27.323	857.600	685.327
297.833	28.107	855.896	686.847
298.847	27.540	855.860	684.629
299.862	26.894	854.616	681.150
300.876	26.998	853.599	680.668
301.891	27.467	853.739	682.476
302.906	27.586	853.337	682.540
303.920	27.161	852.648	680.339
304.935	27.321	851.457	679.928
305.949	27.487	852.462	681.289
306.964	27.556	851.382	680.624
307.979	27.215	851.039	679.019
308.993	27.289	849.837	678.275
310.008	27.974	849.355	680.381
311.022	27.991	848.698	679.856
312.037	27.649	848.106	678.052
313.052	27.159	848.649	676.604
314.066	27.375	846.539	675.663
315.081	26.948	845.222	672.968
316.095	25.875	844.542	668.389
317.110	26.533	844.922	671.070
318.125	27.234	844.828	673.536
319.139	26.767	844.003	671.088
320.154	25.387	842.958	665.093
321.168	25.289	841.465	663.496
322.183	25.902	841.601	665.806
323.197	26.586	841.979	668.574
324.212	26.979	841.962	669.951
325.227	27.198	841.706	670.497
326.241	27.522	841.652	671.589
327.256	27.329	840.426	669.840
328.270	27.217	839.278	668.456
329.285	27.156	839.334	668.217
330.300	27.046	838.781	667.312
331.314	26.590	837.476	664.543
332.329	26.994	836.580	665.253
333.343	27.177	836.935	666.148
334.358	27.289	836.219	665.930
335.373	27.345	835.519	665.520
336.387	27.449	835.531	665.848
337.402	27.906	835.372	667.335
338.416	28.033	834.603	667.123
339.431	27.521	834.415	665.045
340.446	27.798	833.713	665.437
341.460	28.118	833.194	666.129
342.475	28.139	832.292	665.425
343.489	27.859	831.401	663.639
344.504	27.985	831.465	664.087
345.519	27.761	831.185	662.993
346.533	28.156	830.610	663.909
347.548	28.409	830.041	664.313
348.562	28.165	830.241	663.527
349.577	28.309	828.835	662.866
350.592	28.379	828.321	662.650
351.606	28.041	828.001	661.115
352.621	28.564	827.277	662.367
353.635	28.241	827.300	661.158
354.650	27.886	827.024	659.598
355.665	28.207	824.784	658.910
356.679	26.607	824.103	652.547
357.694	26.499	823.832	651.887
358.708	27.517	823.107	654.916
359.723	27.585	822.866	654.911
360.738	27.615	823.362	655.355
361.752	27.562	822.695	654.575
362.767	28.022	822.183	655.762
363.781	28.247	822.242	656.558
364.796	28.403	822.072	656.923
365.810	28.454	822.228	657.173
366.825	28.718	821.613	657.570
367.840	28.544	820.714	656.167
368.854	28.262	820.644	655.046
369.869	28.257	819.652	654.176
370.883	28.257	818.350	653.082
371.898	28.073	817.393	651.602
372.913	28.307	816.488	651.658
373.927	28.366	816.309	651.666
374.942	27.969	816.315	650.200
375.956	28.128	815.945	650.416
376.971	27.912	816.502	650.031
377.986	28.028	815.173	649.329
379.000	28.470	814.872	650.600
380.015	28.576	814.003	650.225
381.029	28.084	813.785	648.248
382.044	28.131	812.915	647.664
383.059	28.243	812.956	648.037
384.073	28.145	812.484	647.256
385.088	28.355	811.642	647.270
386.102	28.557	810.497	647.013
387.117	28.083	811.162	645.812
388.132	28.353	809.361	645.275
389.146	28.186	808.228	643.725
390.161	27.578	807.303	640.796
391.175	27.853	807.032	641.489
392.190	28.320	807.557	643.489
393.205	28.525	807.240	643.902
394.219	27.235	805.724	638.110
395.234	25.657	802.543	630.017
396.248	24.933	802.501	627.391
397.263	25.859	803.245	631.165
398.278	27.650	804.625	638.471
399.292	28.389	804.042	640.534
400.307	27.457	803.532	636.815
401.321	27.915	802.695	637.694
402.336	28.051	802.517	637.972
403.350	28.038	802.603	637.939
404.365	28.879	802.555	640.776
405.380	28.709	802.488	640.074
406.394	29.649	801.853	642.781
407.409	29.032	802.465	641.067
408.423	29.730	800.380	641.770
409.438	29.360	800.668	640.659
410.453	29.258	800.987	640.501
411.467	29.412	799.446	639.745
412.482	29.080	799.594	638.655
413.496	29.297	798.657	638.603
414.511	28.936	799.095	637.647
415.526	29.049	798.627	637.608
416.540	29.310	798.453	638.316
417.555	29.248	797.218	637.057
418.569	29.166	796.382	636.050
419.584	29.061	796.091	635.399
420.599	28.932	795.347	634.305
421.613	159.473	1369.555	1792.855
422.628	138.243	1453.244	1792.914
