DTS Sentinel unit serial number:	SN413079Multiplexer serial number:	ORYXHardware model number:	OX4-SRSoftware version number:	ORYX F/W v4.00 Oryx Data Collector v3.7.2.0data status	okinstallation	princeton_trtdifferential loss correction	single-endedforward channel	channel 3reverse channel	N/Adate	2019/09/18time	15:56:34forward acquisition time	60.00reverse acquisition time	0.00gamma	496.2192k internal	0.2294k external	0.2294temperature offset calibration	0.9978default loss term (dB/km)	0.3790temperature slope calibration	1.0000multiplexer offset coefficient	1.0000multiplexer slope coefficient	1.0000fibre end	0.00T internal ref (°C)	37.03T ext. ref 1 (°C)	0.80T ext. ref 2 (°C)	36.28length (m)	temperature (°C)	Stokes	anti-Stokes-747.200	46.532	0.019	-0.018
-746.185	108.025	-0.237	0.289
-745.171	13.587	-0.137	0.109
-744.156	-200.000	0.001	-0.034
-743.142	-200.000	0.045	0.246
-742.127	20.191	-0.132	0.109
-741.112	114.695	0.156	0.195
-740.098	-46.627	0.343	0.172
-739.083	-92.439	-0.315	0.090
-738.069	-111.285	-0.414	-0.086
-737.054	278.165	0.077	0.139
-736.039	-101.330	-0.268	0.067
-735.025	800.000	0.091	-0.338
-734.010	-200.000	-0.003	-0.110
-732.996	114.125	-0.032	-0.040
-731.981	304.805	0.022	0.043
-730.966	-120.787	-0.156	0.027
-729.952	71.102	-0.108	-0.114
-728.937	800.000	0.038	-0.128
-727.923	-127.995	-0.124	0.018
-726.908	-119.046	-0.142	-0.025
-725.894	54.047	0.206	0.203
-724.879	-165.412	0.148	0.007
-723.864	56.308	-0.100	-0.100
-722.850	-81.296	-0.082	-0.028
-721.835	63.570	0.131	-0.134
-720.821	-200.000	-0.012	-0.110
-719.806	59.956	0.219	-0.221
-718.791	16.521	-0.170	0.137
-717.777	-95.872	-0.385	0.105
-716.762	308.991	-0.166	0.317
-715.748	-52.361	0.132	0.062
-714.733	-160.396	0.288	-0.016
-713.718	95.625	-0.145	0.169
-712.704	-91.641	-0.294	-0.085
-711.689	-177.535	-0.167	0.004
-710.675	319.861	0.178	-0.346
-709.660	-200.000	-0.015	-0.129
-708.645	-200.000	-0.002	-0.133
-707.631	613.765	0.074	-0.190
-706.616	-27.684	0.152	0.090
-705.602	800.000	0.074	0.250
-704.587	209.171	-0.071	-0.113
-703.572	-200.000	-0.023	-0.116
-702.558	18.449	0.045	0.037
-701.543	-133.942	-0.047	-0.006
-700.529	-74.788	-0.305	0.112
-699.514	-45.921	0.148	-0.075
-698.499	48.799	-0.139	-0.133
-697.485	-114.638	0.244	0.048
-696.470	-200.000	0.070	-0.437
-695.456	-38.633	0.278	0.150
-694.441	-115.139	0.259	0.050
-693.426	-28.037	-0.242	-0.143
-692.412	1.363	-0.251	0.184
-691.397	-71.360	0.094	0.036
-690.383	-79.430	-0.210	-0.073
-689.368	278.244	0.214	0.389
-688.354	-146.306	0.047	0.004
-687.339	-8.535	-0.103	-0.071
-686.324	336.594	-0.116	-0.229
-685.310	-78.336	0.134	0.047
-684.295	-6.816	0.183	0.127
-683.281	482.336	-0.093	0.215
-682.266	-24.728	0.185	0.112
-681.251	31.843	0.314	0.276
-680.237	220.852	-0.087	0.142
-679.222	27.909	-0.196	0.169
-678.208	-85.967	-0.321	0.101
-677.193	-126.058	0.123	-0.019
-676.178	-21.573	-0.124	0.077
-675.164	313.403	0.157	0.302
-674.149	-63.901	0.097	0.041
-673.135	-200.000	0.007	0.064
-672.120	-200.000	0.023	0.111
-671.105	-200.000	-0.063	0.508
-670.091	69.164	-0.146	0.153
-669.076	397.462	-0.063	0.134
-668.062	-118.242	-0.223	0.040
-667.047	77.476	0.194	0.210
-666.032	0.597	0.082	0.060
-665.018	800.000	-0.024	-0.105
-664.003	-56.796	0.199	-0.090
-662.989	417.570	-0.142	-0.308
-661.974	-200.000	0.005	-0.164
-660.959	-58.102	-0.119	-0.053
-659.945	-46.088	-0.061	-0.031
-658.930	-5.554	0.297	0.208
-657.916	-1.627	0.267	-0.191
-656.901	-84.813	0.201	0.064
-655.886	58.073	-0.133	-0.133
-654.872	232.525	0.172	-0.287
-653.857	-4.107	-0.267	-0.188
-652.843	84.135	-0.266	0.297
-651.828	147.606	0.120	0.165
-650.814	-83.405	-0.089	-0.029
-649.799	-38.008	0.040	0.022
-648.784	16.416	-0.470	0.378
-647.770	50.861	0.031	0.030
-646.755	124.060	0.149	-0.191
-645.741	-174.387	-0.448	0.013
-644.726	-33.999	0.207	-0.116
-643.711	-133.386	0.270	0.035
-642.697	800.000	-0.099	-0.356
-641.682	-40.814	0.267	0.141
-640.668	69.890	0.194	0.204
-639.653	-137.707	0.278	-0.032
-638.638	-39.374	-0.197	-0.105
-637.624	223.500	0.055	-0.091
-636.609	-24.020	-0.105	-0.064
-635.595	-151.672	-0.228	0.017
-634.580	800.000	0.026	-0.082
-633.565	118.048	0.168	-0.211
-632.551	800.000	0.081	0.252
-631.536	-53.910	-0.232	0.108
-630.522	20.873	0.239	-0.197
-629.507	-49.412	0.385	-0.187
-628.492	-200.000	-0.001	-0.115
-627.478	89.147	-0.232	-0.263
-626.463	-136.356	-0.173	-0.020
-625.449	-191.377	0.365	-0.004
-624.434	-200.000	-0.046	-0.228
-623.419	-101.200	-0.383	0.095
-622.405	-172.030	-0.382	-0.013
-621.390	121.061	0.049	0.062
-620.376	-85.869	-0.115	0.036
-619.361	800.000	-0.015	0.048
-618.346	-31.852	0.170	0.097
-617.332	800.000	0.052	0.222
-616.317	346.443	-0.077	0.154
-615.303	-82.727	0.204	0.067
-614.288	2.569	-0.194	0.143
-613.273	-200.000	0.015	-0.248
-612.259	241.928	-0.055	-0.093
-611.244	-169.676	0.272	0.010
-610.230	388.674	0.048	-0.101
-609.215	-78.272	-0.047	-0.016
-608.201	-200.000	-0.044	0.322
-607.186	109.615	0.197	-0.241
-606.171	-80.146	0.115	-0.039
-605.157	87.117	-0.103	-0.116
-604.142	-160.385	-0.287	-0.016
-603.128	322.673	0.082	-0.159
-602.113	72.712	0.217	-0.230
-601.098	241.415	-0.123	0.209
-600.084	-78.760	-0.184	0.064
-599.069	-152.530	-0.133	-0.010
-598.055	-57.165	0.120	-0.054
-597.040	526.657	-0.107	0.257
-596.025	222.422	-0.038	-0.062
-595.011	-130.658	0.236	-0.032
-593.996	-12.936	0.167	-0.110
-592.982	-200.000	0.043	0.376
-591.967	-68.953	-0.119	0.046
-590.952	166.324	-0.078	0.112
-589.938	-115.444	-0.171	0.033
-588.923	185.132	-0.224	-0.337
-587.909	-200.000	0.028	0.139
-586.894	-6.536	0.025	0.017
-585.879	800.000	-0.153	0.452
-584.865	-200.000	0.045	0.318
-583.850	-81.067	0.156	-0.053
-582.836	-48.180	0.069	0.034
-581.821	-163.159	0.237	0.012
-580.806	1.872	-0.180	0.132
-579.792	324.158	-0.077	0.149
-578.777	1.753	-0.317	0.232
-577.763	800.000	0.079	0.312
-576.748	46.490	-0.151	0.142
-575.733	156.173	-0.154	-0.215
-574.719	-12.277	-0.424	0.281
-573.704	-200.000	-0.003	0.208
-572.690	-153.629	0.080	0.006
-571.675	-52.590	0.331	-0.155
-570.661	32.069	-0.107	0.093
-569.646	388.392	-0.101	-0.213
-568.631	800.000	0.047	0.142
-567.617	36.044	-0.193	-0.173
-566.602	-200.000	0.020	-0.381
-565.588	-140.796	-0.134	-0.014
-564.573	-47.841	0.255	-0.126
-563.558	-67.033	0.202	0.081
-562.544	423.573	0.123	0.267
-561.529	21.918	-0.112	0.093
-560.515	-12.501	0.075	-0.049
-559.500	22.805	-0.091	0.076
-558.485	643.251	0.083	0.214
-557.471	-45.683	0.339	-0.170
-556.456	-200.000	0.025	-0.171
-555.442	-17.190	-0.272	-0.174
-554.427	-137.575	-0.588	-0.067
-553.412	-65.049	-0.144	0.059
-552.398	383.601	0.068	0.142
-551.383	-91.948	-0.120	-0.035
-550.369	71.931	0.038	-0.041
-549.354	20.042	0.094	0.077
-548.339	9.611	0.258	0.199
-547.325	-70.141	0.241	0.093
-546.310	130.031	0.108	0.140
-545.296	-10.010	-0.139	0.094
-544.281	-26.392	0.096	0.057
-543.266	-200.000	0.000	0.025
-542.252	272.550	-0.117	0.210
-541.237	-200.000	0.020	-0.146
-540.223	-48.366	0.191	0.093
-539.208	0.910	0.221	-0.161
-538.193	99.553	-0.104	-0.122
-537.179	326.320	-0.130	-0.253
-536.164	295.043	0.166	-0.308
-535.150	-75.546	-0.485	0.175
-534.135	-111.806	0.357	-0.073
-533.121	231.459	0.275	-0.458
-532.106	-94.524	0.175	-0.048
-531.091	58.819	-0.069	0.068
-530.077	-69.394	-0.424	-0.165
-529.062	-104.035	-0.271	-0.064
-528.048	800.000	-0.026	-0.074
-527.033	800.000	-0.063	-0.244
-526.018	-123.474	-0.170	0.027
-525.004	-47.033	0.293	0.145
-523.989	-100.146	0.218	-0.055
-522.975	33.678	0.122	-0.108
-521.960	-98.506	-0.378	0.098
-520.945	-33.102	0.342	-0.192
-519.931	-200.000	-0.018	-0.108
-518.916	-18.214	0.178	0.113
-517.902	53.783	0.472	0.459
-516.887	800.000	0.033	0.143
-515.872	9.901	-0.108	0.083
-514.858	61.077	0.238	0.240
-513.843	-72.160	-0.051	0.019
-512.829	172.986	0.036	-0.052
-511.814	-188.784	0.283	0.004
-510.799	-134.105	0.171	-0.021
-509.785	800.000	0.096	0.341
-508.770	-25.475	-0.159	-0.095
-507.756	-200.000	-0.037	-0.237
-506.741	178.919	0.050	0.073
-505.726	16.535	-0.055	0.044
-504.712	109.387	0.065	0.079
-503.697	-68.588	0.376	-0.148
-502.683	-64.450	-0.174	-0.072
-501.668	-200.000	0.000	0.047
-500.653	690.739	-0.117	0.311
-499.639	-74.729	-0.256	0.093
-498.624	354.474	0.154	-0.309
-497.610	-112.155	-0.195	0.040
-496.595	-114.476	-0.149	-0.029
-495.581	-19.177	-0.262	-0.165
-494.566	-200.000	0.020	0.224
-493.551	-2.417	0.241	-0.171
-492.537	-200.000	-0.017	0.110
-491.522	-45.707	-0.200	-0.100
-490.508	800.000	0.076	-0.293
-489.493	-90.720	-0.080	-0.024
-488.478	-143.140	-0.425	-0.042
-487.464	224.176	-0.205	-0.335
-486.449	-25.781	0.349	-0.208
-485.435	-127.214	0.117	0.017
-484.420	-7.346	-0.127	0.087
-483.405	800.000	0.134	0.412
-482.391	519.615	-0.140	-0.333
-481.376	800.000	0.107	0.390
-480.362	329.935	0.048	-0.093
-479.347	-200.000	-0.004	0.214
-478.332	195.050	-0.046	-0.071
-477.318	-51.401	0.207	-0.098
-476.303	-200.000	0.046	-0.237
-475.289	800.000	0.103	0.297
-474.274	528.442	0.020	-0.047
-473.259	800.000	-0.052	0.218
-472.245	687.258	-0.071	0.189
-471.230	-200.000	0.016	0.171
-470.216	-114.600	0.121	-0.023
-469.201	152.365	-0.097	-0.135
-468.186	-200.000	0.019	0.121
-467.172	800.000	0.081	-0.341
-466.157	-0.582	-0.102	0.073
-465.143	800.000	0.073	-0.276
-464.128	-200.000	-0.002	-0.280
-463.113	-99.570	-0.445	0.113
-462.099	-101.938	0.340	0.083
-461.084	518.777	-0.045	0.106
-460.070	-45.101	-0.152	-0.076
-459.055	-200.000	-0.016	-0.332
-458.040	124.262	0.161	0.205
-457.026	-200.000	-0.018	0.220
-456.011	8.869	-0.122	-0.093
-454.997	-32.930	-0.110	0.062
-453.982	87.646	0.173	0.194
-452.968	-45.277	-0.180	-0.090
-451.953	355.807	0.015	-0.030
-450.938	91.732	-0.289	-0.328
-449.924	-93.688	-0.095	0.026
-448.909	-61.948	-0.101	-0.043
-447.895	-200.000	0.036	-0.254
-446.880	118.425	0.135	-0.169
-445.865	22.807	-0.230	-0.191
-444.851	-200.000	-0.005	-0.388
-443.836	-91.304	0.107	0.031
-442.822	143.807	-0.062	-0.083
-441.807	131.946	0.065	0.085
-440.792	-200.000	0.001	0.185
-439.778	130.175	-0.285	0.369
-438.763	36.410	0.197	-0.176
-437.749	-46.293	0.369	0.183
-436.734	-200.000	-0.053	-0.310
-435.719	-95.499	0.108	-0.029
-434.705	2.983	0.199	0.146
-433.690	270.281	-0.029	0.052
-432.676	33.589	-0.048	0.042
-431.661	-200.000	-0.007	-0.205
-430.646	91.916	-0.086	-0.098
-429.632	-107.513	0.195	0.043
-428.617	-106.763	-0.181	-0.041
-427.603	-103.845	-0.096	0.023
-426.588	-113.434	-0.132	0.026
-425.573	140.517	0.244	-0.325
-424.559	-111.668	0.018	-0.004
-423.544	-120.568	0.261	-0.045
-422.530	800.000	-0.021	0.087
-421.515	-31.722	0.179	-0.101
-420.500	-200.000	-0.010	0.043
-419.486	57.120	-0.083	0.082
-418.471	-59.746	0.111	0.048
-417.457	-10.517	-0.123	0.083
-416.442	-28.617	0.054	0.031
-415.428	-3.081	-0.050	0.035
-414.413	-96.950	-0.070	-0.018
-413.398	41.156	0.042	0.039
-412.384	583.366	-0.018	-0.045
-411.369	-47.751	0.004	-0.002
-410.355	193.688	-0.037	-0.056
-409.340	166.150	-0.250	-0.357
-408.325	-200.000	-0.052	0.368
-407.311	228.238	0.073	0.120
-406.296	800.000	0.061	-0.173
-405.282	-165.102	-0.232	0.010
-404.267	-200.000	-0.051	0.371
-403.252	361.127	-0.071	-0.143
-402.238	-90.770	0.404	-0.118
-401.223	-27.581	-0.341	0.200
-400.209	-52.574	0.208	-0.097
-399.194	-42.455	-0.055	0.028
-398.179	170.075	-0.095	-0.137
-397.165	41.559	-0.229	-0.209
-396.150	-200.000	0.002	0.414
-395.136	464.671	-0.039	-0.087
-394.121	245.167	-0.083	0.141
-393.106	-103.432	0.219	-0.052
-392.092	161.402	-0.138	-0.195
-391.077	77.516	0.145	0.156
-390.063	-141.949	-0.183	-0.018
-389.048	800.000	0.091	0.291
-388.033	-46.901	-0.201	-0.099
-387.019	-200.000	0.017	0.120
-386.004	751.963	-0.149	-0.405
-384.990	-133.007	-0.133	-0.017
-383.975	-200.000	-0.027	0.132
-382.960	399.100	-0.102	-0.215
-381.946	5.647	0.213	-0.159
-380.931	-88.680	0.155	0.046
-379.917	-55.574	-0.251	0.113
-378.902	-19.477	-0.056	0.035
-377.888	759.268	0.032	0.088
-376.873	-200.000	-0.037	0.228
-375.858	-200.000	0.021	-0.113
-374.844	59.361	-0.018	-0.018
-373.829	306.815	-0.090	-0.169
-372.815	-155.918	-0.174	0.011
-371.800	36.462	-0.163	-0.145
-370.785	122.937	-0.183	-0.231
-369.771	41.517	-0.141	-0.129
-368.756	-161.968	-0.269	0.014
-367.742	-200.000	0.002	-0.084
-366.727	-86.005	0.298	-0.093
-365.712	136.660	0.063	0.083
-364.698	-13.925	0.142	-0.092
-363.683	-133.030	0.051	0.006
-362.669	-129.118	-0.069	0.010
-361.654	-76.222	-0.158	-0.056
-360.639	299.832	0.176	0.327
-359.625	-54.548	-0.242	-0.110
-358.610	-200.000	0.052	-0.335
-357.596	221.331	0.113	-0.183
-356.581	-200.000	-0.036	0.231
-355.566	-46.251	0.044	0.022
-354.552	-5.756	0.083	-0.057
-353.537	800.000	-0.064	-0.213
-352.523	-86.133	0.279	-0.087
-351.508	556.731	-0.122	-0.295
-350.493	658.291	0.181	-0.469
-349.479	-200.000	-0.026	0.245
-348.464	-200.000	0.066	0.313
-347.450	-107.708	0.300	0.066
-346.435	-124.022	-0.150	0.024
-345.420	-176.273	0.269	0.007
-344.406	-123.552	0.236	-0.038
-343.391	800.000	0.055	-0.159
-342.377	141.021	-0.113	0.151
-341.362	-31.311	-0.275	0.156
-340.348	-200.000	0.046	0.243
-339.333	-14.112	-0.213	0.138
-338.318	-23.140	0.322	0.195
-337.304	-200.000	0.027	-0.143
-336.289	-200.000	0.051	-0.282
-335.275	494.669	0.143	0.331
-334.260	-91.923	-0.156	-0.045
-333.245	296.924	0.034	0.063
-332.231	15.506	-0.046	0.036
-331.216	-166.557	0.108	0.005
-330.202	7.934	-0.273	0.206
-329.187	219.631	0.108	0.174
-328.172	31.921	-0.178	0.154
-327.158	84.253	0.187	-0.205
-326.143	380.909	0.052	0.108
-325.129	-10.730	0.132	-0.088
-324.114	104.118	0.326	0.385
-323.099	111.472	0.085	0.103
-322.085	-200.000	-0.063	-0.295
-321.070	-48.241	0.260	0.126
-320.056	2.016	-0.138	0.100
-319.041	-106.673	-0.108	-0.024
-318.026	800.000	-0.092	-0.268
-317.012	800.000	-0.045	-0.159
-315.997	-36.347	-0.210	-0.114
-314.983	96.781	-0.114	-0.131
-313.968	793.762	0.100	0.276
-312.953	-200.000	-0.001	0.133
-311.939	-5.967	-0.075	0.052
-310.924	-114.553	0.078	0.015
-309.910	-55.927	0.397	0.178
-308.895	800.000	-0.057	0.206
-307.880	402.355	-0.178	0.377
-306.866	342.732	-0.137	-0.269
-305.851	-116.801	-0.213	0.039
-304.837	-200.000	0.025	-0.242
-303.822	-67.129	0.033	-0.013
-302.807	428.294	0.096	-0.208
-301.793	26.071	-0.071	0.060
-300.778	-200.000	0.026	-0.129
-299.764	84.460	0.171	-0.188
-298.749	-200.000	-0.073	-0.418
-297.735	-153.608	-0.126	-0.009
-296.720	-114.582	-0.233	-0.045
-295.705	-149.773	0.202	0.016
-294.691	154.468	0.046	0.063
-293.676	-200.000	0.015	0.174
-292.662	-200.000	0.046	0.272
-291.647	-200.000	0.031	-0.174
-290.632	-200.000	-0.057	0.286
-289.618	29.481	-0.120	-0.102
-288.603	-126.457	0.348	0.052
-287.589	205.455	0.160	0.249
-286.574	-125.033	0.341	0.053
-285.559	-114.502	-0.260	0.050
-284.545	-91.930	0.286	-0.082
-283.530	173.701	0.064	-0.092
-282.516	-48.811	-0.156	-0.075
-281.501	297.141	0.163	0.301
-280.486	276.504	-0.056	-0.100
-279.472	23.636	0.249	-0.205
-278.457	-200.000	0.050	-0.322
-277.443	-160.227	0.104	0.006
-276.428	59.705	0.280	-0.278
-275.413	-86.031	0.211	-0.066
-274.399	800.000	0.111	-0.370
-273.384	-53.787	0.196	0.090
-272.370	-44.388	-0.133	-0.067
-271.355	21.961	-0.039	-0.032
-270.340	-11.855	-0.128	0.084
-269.326	-200.000	0.232	0.000
-268.311	-200.000	-0.014	0.152
-267.297	-200.000	0.022	-0.262
-266.282	-14.474	0.114	0.074
-265.267	448.413	-0.079	-0.175
-264.253	-200.000	-0.033	-0.290
-263.238	133.865	-0.087	-0.113
-262.224	-200.000	-0.026	-0.260
-261.209	-43.749	0.208	-0.105
-260.195	-200.000	-0.015	0.201
-259.180	23.888	-0.038	0.032
-258.165	-144.348	0.435	-0.041
-257.151	139.064	-0.067	-0.088
-256.136	621.095	-0.124	-0.312
-255.122	-103.841	-0.487	-0.114
-254.107	43.048	0.116	-0.106
-253.092	-200.000	0.023	-0.105
-252.078	95.426	-0.154	-0.176
-251.063	167.348	0.219	0.312
-250.049	60.629	0.270	0.269
-249.034	-100.601	0.096	-0.024
-248.019	208.951	0.049	0.077
-247.005	-200.000	-0.002	-0.301
-245.990	21.537	0.168	0.137
-244.976	-100.986	-0.278	-0.069
-243.961	729.245	0.052	0.139
-242.946	800.000	-0.057	0.197
-241.932	62.680	0.156	0.156
-240.917	-102.354	-0.381	0.092
-239.903	800.000	0.123	-0.401
-238.888	800.000	-0.069	-0.230
-237.873	800.000	-0.029	-0.096
-236.859	-70.218	0.305	0.116
-235.844	-61.123	-0.239	-0.101
-234.830	87.471	0.112	0.125
-233.815	-41.349	0.362	-0.187
-232.800	-200.000	-0.005	0.059
-231.786	72.061	0.111	-0.116
-230.771	-200.000	-0.031	0.148
-229.757	800.000	0.067	0.211
-228.742	79.381	-0.159	-0.171
-227.727	91.444	-0.212	0.238
-226.713	-200.000	-0.031	0.476
-225.698	-200.000	-0.090	-0.434
-224.684	127.951	-0.090	-0.115
-223.669	-156.962	-0.217	0.013
-222.655	-35.319	-0.360	-0.196
-221.640	-86.111	-0.365	0.113
-220.625	-96.185	0.073	0.019
-219.611	-98.151	-0.129	0.033
-218.596	800.000	-0.060	-0.170
-217.582	56.316	-0.160	-0.155
-216.567	2.113	0.155	0.112
-215.552	413.962	-0.034	0.073
-214.538	-200.000	-0.025	-0.353
-213.523	800.000	-0.061	-0.250
-212.509	184.500	-0.252	0.375
-211.494	-77.587	-0.178	-0.062
-210.479	-200.000	0.001	-0.020
-209.465	268.866	-0.041	0.072
-208.450	-121.606	0.085	-0.014
-207.436	233.162	-0.080	0.131
-206.421	-85.654	0.088	-0.027
-205.406	75.340	0.097	0.102
-204.392	-200.000	-0.001	0.143
-203.377	-99.735	0.242	-0.061
-202.363	-25.337	-0.017	0.010
-201.348	60.835	0.110	0.109
-200.333	800.000	-0.082	-0.310
-199.319	34.339	0.113	-0.099
-198.304	676.592	0.064	-0.166
-197.290	31.713	-0.159	0.137
-196.275	-63.865	-0.222	0.091
-195.260	-104.384	-0.123	0.029
-194.246	614.784	0.132	0.330
-193.231	1.639	-0.184	0.133
-192.217	18.745	0.072	0.057
-191.202	327.049	-0.197	0.377
-190.187	-39.098	0.243	0.128
-189.173	-200.000	-0.037	0.179
-188.158	-107.098	0.348	0.077
-187.144	-200.000	-0.028	-0.137
-186.129	-15.042	-0.114	0.073
-185.114	-200.000	0.008	0.222
-184.100	-19.375	-0.237	-0.147
-183.085	11.020	-0.250	0.191
-182.071	549.432	0.012	0.028
-181.056	40.614	-0.040	0.036
-180.042	11.112	-0.242	0.185
-179.027	186.059	-0.076	0.113
-178.012	-200.000	-0.052	0.238
-176.998	-98.714	-0.057	0.014
-175.983	216.390	0.119	-0.189
-174.969	-55.502	-0.101	0.045
-173.954	449.471	0.114	0.251
-172.939	67.060	0.153	0.156
-171.925	800.000	-0.060	-0.230
-170.910	-48.246	0.172	0.083
-169.896	200.632	0.097	0.149
-168.881	-116.417	0.255	-0.047
-167.866	-80.490	0.190	-0.063
-166.852	800.000	0.024	0.102
-165.837	-200.000	-0.035	0.162
-164.823	-46.838	0.105	0.052
-163.808	-200.000	0.041	-0.191
-162.793	-161.613	-0.140	-0.007
-161.779	326.452	0.044	0.084
-160.764	57.599	-0.061	0.059
-159.750	-132.638	-0.269	0.034
-158.735	186.605	0.249	0.370
-157.720	5.951	-0.110	-0.081
-156.706	-95.466	-0.431	-0.115
-155.691	-92.318	-0.094	0.026
-154.677	-120.586	0.228	0.039
-153.662	-200.000	-0.006	0.055
-152.647	-200.000	0.003	0.229
-151.633	-90.942	0.326	-0.094
-150.618	-27.312	0.348	0.203
-149.604	-200.000	-0.007	0.270
-148.589	55.417	0.274	0.265
-147.574	-200.000	0.043	0.216
-146.560	800.000	-0.023	0.094
-145.545	632.247	-0.094	-0.238
-144.531	781.032	0.144	-0.393
-143.516	-17.081	0.257	-0.162
-142.502	190.213	-0.098	-0.147
-141.487	2.327	0.053	-0.038
-140.472	60.348	-0.043	0.043
-139.458	134.821	-0.321	-0.416
-138.443	-112.670	-0.157	0.031
-137.429	-200.000	0.007	0.222
-136.414	-19.447	0.183	0.113
-135.399	523.403	0.016	0.038
-134.385	80.713	0.118	0.127
-133.370	139.164	0.204	-0.268
-132.356	553.487	-0.116	-0.279
-131.341	51.136	0.110	0.104
-130.326	56.966	-0.097	-0.094
-129.312	-49.411	0.195	0.093
-128.297	789.388	0.028	0.078
-127.283	82.872	0.046	-0.050
-126.268	-58.712	-0.210	-0.091
-125.253	-130.009	0.549	-0.075
-124.239	174.629	-0.251	0.362
-123.224	-18.291	-0.352	-0.220
-122.210	-182.194	-0.116	0.002
-121.195	-184.328	0.047	0.001
-120.180	238.681	0.018	0.030
-119.166	-118.961	-0.325	-0.057
-118.151	605.072	-0.127	0.317
-117.137	-81.399	0.191	0.063
-116.122	-87.734	-0.099	-0.030
-115.107	142.166	0.034	0.045
-114.093	-23.911	-0.021	-0.013
-113.078	323.426	0.053	-0.101
-112.064	800.000	-0.068	-0.222
-111.049	-173.704	0.280	0.008
-110.034	-200.000	0.045	-0.366
-109.020	402.474	0.047	0.098
-108.005	100.671	-0.217	0.252
-106.991	528.431	-0.061	0.144
-105.976	285.704	-0.042	-0.075
-104.962	88.744	0.056	0.062
-103.947	51.167	0.084	-0.080
-102.932	-66.472	-0.151	-0.060
-101.918	-181.346	0.133	0.003
-100.903	-50.466	0.060	-0.028
-99.889	-200.000	0.041	-0.248
-98.874	42.170	-0.131	0.119
-97.859	-169.309	-0.099	0.004
-96.845	201.588	0.116	0.179
-95.830	44.475	0.045	-0.041
-94.816	-98.443	0.168	0.043
-93.801	-200.000	-0.018	-0.220
-92.786	800.000	0.023	-0.089
-91.772	-141.667	0.156	-0.016
-90.757	48.631	-0.167	-0.156
-89.743	-200.000	-0.008	-0.082
-88.728	174.890	-0.106	0.153
-87.713	-200.000	0.009	0.196
-86.699	231.002	-0.213	-0.348
-85.684	-200.000	0.078	0.341
-84.670	82.479	-0.219	0.236
-83.655	-27.034	0.190	0.110
-82.640	-96.627	0.184	0.048
-81.626	-123.363	0.278	-0.044
-80.611	-150.993	0.156	0.012
-79.597	106.823	0.130	-0.154
-78.582	-164.166	0.145	-0.007
-77.567	449.887	0.070	0.153
-76.553	-156.628	0.385	0.024
-75.538	-200.000	-0.015	0.077
-74.524	-146.055	-0.332	-0.029
-73.509	-7.460	-0.314	-0.211
-72.494	223.571	-0.125	0.200
-71.480	441.651	0.096	0.210
-70.465	-109.448	0.235	-0.050
-69.451	-120.154	0.353	-0.060
-68.436	32.274	0.153	0.132
-67.422	-200.000	-0.035	-0.311
-66.407	800.000	0.074	-0.285
-65.392	-32.876	0.297	-0.164
-64.378	-200.000	-0.007	-0.038
-63.363	223.448	-0.042	0.067
-62.349	-135.875	-0.359	-0.042
-61.334	15.916	-0.893	-0.700
-60.319	111.489	0.505	0.606
-59.305	-200.000	0.077	-1.405
-58.290	800.000	0.216	0.742
-57.276	555.675	0.742	1.777
-56.261	-200.000	86.106	497.484
-55.246	430.183	1410.680	3038.436
-54.232	141.053	2636.083	3469.606
-53.217	106.512	2273.915	2683.758
-52.203	46.385	1788.029	1650.121
-51.188	39.861	1589.189	1419.848
-50.173	37.517	1559.982	1377.130
-49.159	53.878	1604.663	1534.356
-48.144	57.867	1624.277	1581.709
-47.130	40.617	1582.754	1419.286
-46.115	37.353	1567.191	1382.106
-45.100	37.103	1563.918	1377.391
-44.086	37.101	1561.921	1375.567
-43.071	37.039	1559.543	1372.980
-42.057	36.985	1558.255	1371.407
-41.042	37.045	1556.422	1370.162
-40.027	37.003	1555.417	1368.924
-39.013	36.977	1553.668	1367.153
-37.998	36.919	1552.549	1365.701
-36.984	36.976	1551.077	1364.753
-35.969	36.924	1549.892	1363.292
-34.954	37.003	1548.334	1362.424
-33.940	37.025	1546.714	1361.098
-32.925	37.125	1545.233	1360.439
-31.911	37.040	1543.992	1358.700
-30.896	37.065	1542.659	1357.649
-29.881	37.089	1541.605	1356.832
-28.867	37.081	1540.260	1355.537
-27.852	36.954	1538.750	1353.272
-26.838	37.036	1536.656	1351.945
-25.823	37.065	1535.625	1351.186
-24.809	37.019	1533.782	1349.196
-23.794	37.032	1532.351	1347.969
-22.779	37.063	1531.241	1347.155
-21.765	37.129	1530.015	1346.484
-20.750	37.118	1528.727	1345.221
-19.736	37.122	1527.750	1344.332
-18.721	37.084	1526.763	1343.151
-17.706	37.132	1525.187	1342.042
-16.692	37.064	1524.379	1340.810
-15.677	37.038	1523.311	1339.637
-14.663	37.067	1522.193	1338.800
-13.648	37.004	1521.182	1337.421
-12.633	37.003	1519.988	1336.311
-11.619	37.007	1519.120	1335.525
-10.604	37.162	1517.489	1335.104
-9.590	37.027	1517.468	1334.106
-8.575	37.043	1516.614	1333.410
-7.560	36.971	1515.953	1332.278
-6.546	37.015	1514.741	1331.461
-5.531	36.933	1513.733	1329.966
-4.517	36.933	1512.986	1329.251
-3.502	37.003	1511.280	1328.182
-2.487	36.950	1510.951	1327.475
-1.473	36.917	1509.313	1325.761
-0.458	37.071	1508.197	1325.782
0.556	36.513	1500.048	1319.696
1.571	34.670	1474.865	1285.037
2.586	31.188	1410.000	1205.965
3.600	28.083	1321.081	1110.982
4.615	25.221	1270.009	1051.199
5.629	20.686	1210.199	976.223
6.644	10.566	1118.442	849.386
7.659	2.430	1072.806	773.658
8.673	1.047	1066.071	761.784
9.688	0.716	1063.498	758.216
10.702	0.742	1061.635	756.955
11.717	0.676	1060.194	755.526
12.731	3.280	1063.043	770.534
13.746	11.919	1074.712	822.471
14.761	17.787	1081.840	857.431
15.775	17.727	1081.006	856.394
16.790	17.063	1078.702	851.166
17.804	15.990	1076.793	844.213
18.819	15.003	1075.221	837.964
19.834	14.582	1073.361	834.333
20.848	14.335	1072.292	832.195
21.863	14.103	1071.325	830.212
22.877	13.790	1070.866	828.220
23.892	13.600	1070.058	826.578
24.907	13.470	1069.115	825.126
25.921	13.529	1068.201	824.643
26.936	13.541	1067.680	824.225
27.950	13.545	1066.915	823.581
28.965	13.603	1066.370	823.377
29.980	13.574	1065.020	822.120
30.994	13.730	1064.053	822.072
32.009	13.659	1063.504	821.225
33.023	13.655	1062.920	820.680
34.038	13.679	1062.171	820.148
35.053	13.780	1061.197	819.822
36.067	13.627	1060.410	818.386
37.082	13.646	1059.379	817.613
38.096	13.629	1058.662	816.902
39.111	13.669	1057.309	815.982
40.126	13.602	1056.718	815.128
41.140	13.755	1055.613	814.954
42.155	13.486	1055.072	813.140
43.169	13.451	1054.286	812.290
44.184	13.526	1052.689	811.357
45.199	13.467	1051.964	810.439
46.213	13.497	1051.078	809.832
47.228	13.438	1050.085	808.707
48.242	13.501	1049.201	808.262
49.257	13.498	1047.888	807.165
50.271	13.515	1047.072	806.544
51.286	13.552	1045.961	805.797
52.301	13.457	1045.415	804.847
53.315	13.611	1044.144	804.541
54.330	13.589	1044.058	804.300
55.344	13.613	1042.633	803.249
56.359	13.521	1041.726	802.030
57.374	13.476	1041.104	801.262
58.388	13.459	1039.870	800.162
59.403	13.532	1039.210	799.934
60.417	13.454	1038.569	798.992
61.432	13.447	1038.123	798.544
62.447	13.380	1037.054	797.329
63.461	13.439	1036.131	796.836
64.476	13.424	1035.099	795.899
65.490	13.418	1034.354	795.226
66.505	13.355	1033.486	794.185
67.520	13.438	1032.626	793.855
68.534	13.430	1031.754	793.075
69.549	13.410	1031.376	792.618
70.563	13.503	1030.581	792.381
71.578	13.446	1029.907	791.522
72.593	13.426	1029.355	790.933
73.607	13.394	1027.905	789.593
74.622	13.306	1027.084	788.472
75.636	13.384	1025.889	787.859
76.651	13.458	1024.625	787.168
77.666	13.360	1024.510	786.544
78.680	13.383	1023.764	786.011
79.695	13.399	1022.813	785.289
80.709	13.318	1022.815	784.839
81.724	13.416	1021.893	784.524
82.739	13.547	1021.040	784.420
83.753	13.460	1020.366	783.423
84.768	13.453	1019.669	782.782
85.782	13.561	1018.551	782.368
86.797	13.671	1017.628	782.109
87.812	13.627	1017.221	781.517
88.826	13.561	1015.769	780.020
89.841	13.634	1015.437	780.040
90.855	13.551	1014.391	778.777
91.870	13.553	1013.826	778.284
92.884	13.709	1013.108	778.397
93.899	13.609	1012.539	777.423
94.914	13.545	1011.736	776.438
95.928	13.590	1010.940	775.967
96.943	13.603	1010.009	775.245
97.957	13.701	1009.479	775.229
98.972	13.667	1008.428	774.197
99.987	13.645	1007.491	773.303
101.001	13.612	1007.144	772.814
102.016	13.659	1006.157	772.207
103.030	13.717	1004.942	771.477
104.045	13.547	1004.407	770.209
105.060	13.734	1002.751	769.739
106.074	13.697	1002.025	768.944
107.089	13.627	1001.106	767.842
108.103	13.606	1000.687	767.359
109.118	13.401	999.457	765.396
110.133	13.507	998.962	765.440
111.147	13.527	997.567	764.399
112.162	13.555	996.762	763.841
113.176	13.584	996.038	763.355
114.191	13.536	995.357	762.544
115.206	13.630	993.992	761.859
116.220	13.589	993.403	761.153
117.235	13.545	992.727	760.367
118.249	13.608	991.753	759.842
119.264	13.601	990.754	758.980
120.279	13.543	989.995	758.064
121.293	13.599	989.035	757.518
122.308	13.681	988.286	757.250
123.322	13.494	987.877	756.016
124.337	13.605	986.639	755.511
125.352	13.565	985.492	754.383
126.366	13.484	984.497	753.184
127.381	13.502	983.577	752.497
128.395	13.512	982.355	751.538
129.410	13.582	981.359	751.029
130.424	13.662	980.253	750.480
131.439	13.665	979.485	749.838
132.454	13.602	978.679	748.870
133.468	13.615	978.486	748.714
134.483	13.635	977.422	747.926
135.497	13.786	976.540	747.863
136.512	13.615	975.910	746.545
137.527	13.661	975.128	746.088
138.541	13.699	974.185	745.472
139.556	13.608	973.870	744.756
140.570	13.586	972.896	743.846
141.585	13.663	972.156	743.559
142.600	13.630	971.150	742.578
143.614	13.719	970.319	742.276
144.629	13.783	969.737	742.050
145.643	13.758	969.266	741.512
146.658	13.663	967.988	740.042
147.673	13.748	967.105	739.681
148.687	13.702	966.125	738.662
149.702	13.598	965.430	737.603
150.716	13.686	964.212	736.997
151.731	13.612	963.354	735.947
152.746	13.534	963.282	735.484
153.760	13.654	962.487	735.345
154.775	13.680	961.095	734.329
155.789	13.832	960.509	734.489
156.804	13.724	959.678	733.313
157.819	13.738	958.895	732.709
158.833	13.754	958.580	732.476
159.848	13.857	957.789	732.262
160.862	13.894	956.877	731.663
161.877	13.915	956.202	731.173
162.892	13.884	954.937	730.003
163.906	13.771	954.560	729.158
164.921	13.790	953.822	728.610
165.935	13.815	952.721	727.814
166.950	13.754	951.935	726.881
167.964	13.727	951.132	726.086
168.979	13.811	949.709	725.302
169.994	13.772	949.292	724.748
171.008	13.793	948.121	723.883
172.023	13.867	947.162	723.412
173.037	13.916	946.062	722.720
174.052	13.806	945.861	722.023
175.067	13.935	944.978	721.848
176.081	13.819	944.290	720.751
177.096	13.856	943.391	720.162
178.110	13.860	942.771	719.645
179.125	13.836	941.930	718.834
180.140	13.988	940.774	718.546
181.154	13.853	940.633	717.790
182.169	13.915	939.660	717.253
183.183	13.935	939.101	716.850
184.198	13.909	938.488	716.203
185.213	13.859	937.995	715.551
186.227	14.004	937.137	715.456
187.242	14.099	936.267	715.140
188.256	14.099	935.589	714.556
189.271	14.082	934.916	713.908
190.286	14.123	934.337	713.575
191.300	13.950	933.492	712.126
192.315	13.981	932.667	711.568
193.329	13.828	931.997	710.338
194.344	13.829	931.488	709.891
195.359	13.966	930.965	710.016
196.373	13.957	930.406	709.489
197.388	14.155	929.563	709.627
198.402	14.147	929.268	709.304
199.417	14.175	929.126	709.252
200.432	14.223	928.207	708.695
201.446	14.286	927.825	708.609
202.461	14.302	927.333	708.238
203.475	14.365	926.897	708.110
204.490	14.223	926.435	707.091
205.504	14.299	925.056	706.296
206.519	14.343	924.074	705.672
207.534	14.318	923.589	705.131
208.548	14.333	922.792	704.524
209.563	14.218	922.273	703.579
210.577	14.323	921.294	703.216
211.592	14.389	921.010	703.215
212.607	14.422	920.501	702.903
213.621	14.471	919.778	702.494
214.636	14.403	919.229	701.729
215.650	14.330	918.506	700.808
216.665	14.394	917.691	700.392
217.680	14.454	917.113	700.140
218.694	14.442	916.624	699.657
219.709	14.590	916.149	699.852
220.723	14.525	915.502	699.021
221.738	14.340	914.968	697.779
222.753	14.472	914.231	697.708
223.767	14.461	913.412	696.975
224.782	14.633	912.534	696.963
225.796	14.594	911.750	696.138
226.811	14.706	910.846	695.851
227.826	14.601	910.427	695.034
228.840	14.558	909.910	694.400
229.855	14.516	909.285	693.685
230.869	14.654	908.671	693.730
231.884	14.544	907.789	692.538
232.899	14.586	907.041	692.080
233.913	14.579	906.399	691.499
234.928	14.549	905.814	690.870
235.942	14.557	905.095	690.293
236.957	14.700	904.031	690.011
237.972	14.542	903.763	689.092
238.986	14.644	903.009	688.877
240.001	14.569	902.433	688.066
241.015	14.633	901.572	687.613
242.030	14.749	900.887	687.508
243.045	14.688	900.230	686.693
244.059	14.636	899.990	686.235
245.074	14.712	898.946	685.695
246.088	14.737	898.192	685.160
247.103	14.646	897.784	684.413
248.117	14.876	897.097	684.770
249.132	14.824	896.819	684.288
250.147	14.850	896.102	683.787
251.161	14.941	895.575	683.694
252.176	14.961	894.475	682.878
253.190	15.031	893.532	682.381
254.205	15.081	893.206	682.277
255.220	15.114	892.893	682.112
256.234	15.038	892.018	681.073
257.249	15.147	891.322	680.922
258.263	14.987	891.073	680.023
259.278	15.063	890.277	679.666
260.293	15.090	889.832	679.374
261.307	15.292	888.800	679.345
262.322	15.300	888.410	679.017
263.336	15.195	888.095	678.292
264.351	15.226	887.511	677.912
265.366	15.289	886.920	677.653
266.380	15.194	886.103	676.586
267.395	15.250	885.426	676.238
268.409	15.281	884.877	675.883
269.424	15.317	883.870	675.198
270.439	15.366	883.281	674.887
271.453	15.332	882.161	673.834
272.468	15.384	881.356	673.370
273.482	15.435	880.695	673.007
274.497	15.458	880.491	672.886
275.512	15.413	879.902	672.197
276.526	15.379	879.088	671.376
277.541	15.401	878.393	670.876
278.555	15.322	877.859	670.093
279.570	15.384	877.169	669.753
280.585	15.398	876.831	669.493
281.599	15.487	875.959	669.124
282.614	15.424	875.743	668.648
283.628	15.358	874.939	667.710
284.643	15.384	874.277	667.251
285.657	15.505	873.603	667.158
286.672	15.594	872.964	666.963
287.687	15.534	872.831	666.563
288.701	15.591	872.149	666.211
289.716	15.633	871.537	665.852
290.730	15.581	870.811	665.032
291.745	15.559	870.594	664.718
292.760	15.623	869.386	663.991
293.774	15.558	868.797	663.225
294.789	15.713	868.364	663.450
295.803	15.596	867.938	662.602
296.818	15.657	867.018	662.082
297.833	15.632	866.737	661.712
298.847	15.744	865.642	661.259
299.862	15.717	865.428	660.928
300.876	15.815	864.338	660.422
301.891	15.826	863.615	659.855
302.906	15.664	863.332	658.946
303.920	15.873	862.222	658.857
304.935	15.815	861.818	658.264
305.949	15.967	861.057	658.217
306.964	15.827	860.836	657.445
307.979	15.938	860.029	657.202
308.993	15.781	860.028	656.532
310.008	15.834	858.814	655.751
311.022	15.991	858.435	656.018
312.037	15.870	858.228	655.330
313.052	15.983	857.619	655.246
314.066	15.928	856.759	654.318
315.081	15.898	856.023	653.580
316.095	15.912	855.933	653.508
317.110	15.976	855.155	653.105
318.125	15.875	854.648	652.267
319.139	15.947	854.340	652.254
320.154	15.980	853.967	652.041
321.168	15.849	853.025	650.757
322.183	15.920	852.796	650.798
323.197	16.001	852.024	650.466
324.212	16.097	851.305	650.229
325.227	16.163	850.638	649.914
326.241	16.223	850.021	649.617
327.256	16.109	849.911	649.039
328.270	16.060	849.609	648.561
329.285	16.049	848.677	647.750
330.300	16.024	847.993	647.076
331.314	16.134	847.027	646.701
332.329	16.138	846.523	646.275
333.343	16.138	846.122	645.912
334.358	16.162	845.658	645.594
335.373	16.109	845.376	645.118
336.387	16.153	844.659	644.683
337.402	16.229	843.814	644.269
338.416	16.219	843.228	643.728
339.431	16.378	842.608	643.803
340.446	16.349	842.121	643.263
341.460	16.475	841.477	643.195
342.475	16.447	840.991	642.660
343.489	16.427	840.498	642.151
344.504	16.426	840.209	641.869
345.519	16.537	839.287	641.526
346.533	16.642	838.580	641.328
347.548	16.556	838.350	640.769
348.562	16.467	837.764	639.929
349.577	16.382	837.218	639.133
350.592	16.350	836.799	638.635
351.606	16.393	836.466	638.488
352.621	16.476	835.816	638.248
353.635	16.509	835.548	638.114
354.650	16.503	835.153	637.730
355.665	16.571	834.801	637.662
356.679	16.460	834.335	636.832
357.694	16.496	833.836	636.531
358.708	16.541	833.283	636.223
359.723	16.584	832.474	635.708
360.738	16.545	832.070	635.198
361.752	16.657	831.314	634.984
362.767	16.667	831.131	634.827
363.781	16.839	830.444	634.890
364.796	16.723	830.008	634.067
365.810	16.666	829.410	633.339
366.825	16.843	829.133	633.734
367.840	16.721	829.001	633.120
368.854	16.791	828.626	633.041
369.869	16.788	828.170	632.624
370.883	16.849	827.210	632.061
371.898	16.878	826.789	631.791
372.913	16.856	826.345	631.316
373.927	16.917	825.396	630.761
374.942	16.996	824.840	630.573
375.956	16.907	824.353	629.817
376.971	16.913	823.824	629.378
377.986	16.892	823.504	629.000
379.000	17.263	822.681	629.690
380.015	17.198	822.106	628.956
381.029	17.299	821.331	628.680
382.044	17.186	821.003	627.957
383.059	17.055	820.540	627.060
384.073	17.025	820.048	626.519
385.088	16.956	819.768	625.996
386.102	17.010	819.314	625.793
387.117	16.965	818.670	625.081
388.132	17.078	817.845	624.809
389.146	17.068	817.401	624.379
390.161	17.170	817.189	624.537
391.175	17.132	816.756	624.009
392.190	17.247	816.184	623.940
393.205	17.072	815.655	622.839
394.219	17.075	815.869	622.957
395.234	17.140	815.304	622.709
396.248	17.028	814.570	621.683
397.263	17.164	813.859	621.586
398.278	17.109	813.457	621.023
399.292	17.140	813.115	620.818
400.307	17.079	813.093	620.524
401.321	17.038	812.472	619.847
402.336	17.205	812.264	620.242
403.350	17.164	811.724	619.624
404.365	17.246	811.002	619.318
405.380	17.367	810.514	619.330
406.394	17.362	809.821	618.729
407.409	17.491	809.413	618.830
408.423	17.482	809.149	618.542
409.438	17.473	808.403	617.883
410.453	17.441	808.304	617.636
411.467	17.568	807.502	617.430
412.482	17.475	807.121	616.748
413.496	17.499	807.046	616.721
414.511	17.451	806.814	616.318
415.526	17.569	806.183	616.206
416.540	17.581	805.866	615.955
417.555	17.655	805.520	615.903
418.569	17.525	804.944	614.938
419.584	17.516	804.385	614.424
420.599	17.647	803.919	614.487
421.613	99.518	1278.579	1421.661
422.628	85.380	1347.748	1421.793
