DTS Sentinel unit serial number:	SN413079Multiplexer serial number:	ORYXHardware model number:	OX4-SRSoftware version number:	ORYX F/W v4.00 Oryx Data Collector v3.7.2.0data status	okinstallation	princeton_trtdifferential loss correction	single-endedforward channel	channel 3reverse channel	N/Adate	2019/09/12time	09:54:11forward acquisition time	60.00reverse acquisition time	0.00gamma	496.2192k internal	0.2300k external	0.2300temperature offset calibration	1.0034default loss term (dB/km)	0.3790temperature slope calibration	1.0000multiplexer offset coefficient	1.0000multiplexer slope coefficient	1.0000fibre end	0.00T internal ref (°C)	36.11T ext. ref 1 (°C)	1.87T ext. ref 2 (°C)	32.42length (m)	temperature (°C)	Stokes	anti-Stokes-747.200	301.588	0.053	0.101
-746.185	800.000	0.025	0.083
-745.171	58.423	-0.151	-0.152
-744.156	184.977	-0.054	0.082
-743.142	-200.000	0.037	0.274
-742.127	-200.000	0.009	-0.059
-741.112	340.452	-0.125	0.248
-740.098	-200.000	-0.102	0.000
-739.083	-148.864	0.100	0.008
-738.069	-200.000	0.003	0.091
-737.054	109.939	0.183	0.224
-736.039	-200.000	0.010	0.063
-735.025	-200.000	0.018	0.432
-734.010	-32.626	-0.182	-0.103
-732.996	-200.000	0.242	0.000
-731.981	128.644	0.113	-0.147
-730.966	-10.087	-0.245	0.166
-729.952	800.000	-0.053	0.153
-728.937	-142.809	-0.487	0.048
-727.923	-200.000	-0.012	-0.192
-726.908	559.013	0.013	-0.031
-725.894	466.099	-0.140	-0.321
-724.879	800.000	0.054	-0.187
-723.864	-37.597	0.061	0.033
-722.850	-77.387	-0.237	0.084
-721.835	309.832	-0.131	0.250
-720.821	800.000	0.054	0.221
-719.806	-72.355	0.252	0.095
-718.791	-22.575	0.051	-0.031
-717.777	-58.490	-0.121	0.053
-716.762	-109.615	-0.165	-0.035
-715.748	-200.000	-0.008	-0.183
-714.733	288.589	0.065	0.119
-713.718	-200.000	-0.015	-0.292
-712.704	-200.000	0.015	-0.180
-711.689	800.000	0.075	-0.306
-710.675	-153.875	-0.045	-0.003
-709.660	169.685	-0.056	0.081
-708.645	150.616	-0.162	0.225
-707.631	-200.000	0.054	0.249
-706.616	18.793	0.090	-0.074
-705.602	-200.000	0.022	-0.217
-704.587	-200.000	-0.022	0.145
-703.572	-85.952	-0.122	0.038
-702.558	72.804	-0.100	-0.107
-701.543	-25.643	0.334	-0.201
-700.529	-200.000	0.018	0.083
-699.514	-200.000	-0.005	0.266
-698.499	800.000	-0.058	0.197
-697.485	160.757	-0.087	-0.123
-696.470	52.683	-0.188	0.183
-695.456	130.652	-0.068	-0.089
-694.441	-74.727	0.281	0.103
-693.426	-106.986	0.262	0.059
-692.412	46.102	0.105	0.099
-691.397	-200.000	0.005	0.202
-690.383	102.383	0.215	0.256
-689.368	155.809	0.057	0.081
-688.354	168.861	0.122	-0.178
-687.339	44.092	-0.100	-0.093
-686.324	95.617	0.219	-0.254
-685.310	-135.598	-0.197	-0.024
-684.295	211.613	-0.110	-0.176
-683.281	40.908	-0.100	-0.092
-682.266	-36.212	0.244	-0.134
-681.251	-42.127	-0.237	0.123
-680.237	1.017	0.485	0.354
-679.222	-76.487	-0.244	-0.087
-678.208	-24.552	-0.264	-0.160
-677.193	-76.471	-0.301	0.108
-676.178	-35.463	-0.163	0.090
-675.164	-118.246	0.134	-0.024
-674.149	-46.719	-0.064	0.032
-673.135	-200.000	0.027	-0.165
-672.120	-60.234	0.323	-0.140
-671.105	5.088	-0.428	-0.320
-670.091	-37.792	0.441	-0.238
-669.076	-112.961	-0.205	0.041
-668.062	-81.020	0.189	0.064
-667.047	217.380	0.047	0.076
-666.032	-96.475	-0.251	0.067
-665.018	800.000	0.056	-0.245
-664.003	556.959	0.080	0.196
-662.989	62.852	0.248	0.252
-661.974	800.000	-0.059	0.191
-660.959	-200.000	-0.014	0.158
-659.945	296.951	0.150	0.280
-658.930	-43.317	0.187	-0.096
-657.916	427.627	0.076	0.167
-656.901	58.528	0.192	0.192
-655.886	20.352	0.136	-0.111
-654.872	-160.071	0.270	0.015
-653.857	-132.785	-0.206	-0.027
-652.843	-64.724	-0.273	0.113
-651.828	31.625	-0.082	0.072
-650.814	-140.460	-0.189	0.020
-649.799	-200.000	-0.003	0.116
-648.784	-110.369	-0.371	0.078
-647.770	-136.257	-0.154	0.018
-646.755	-96.980	-0.177	-0.047
-645.741	-11.541	0.115	-0.077
-644.726	-200.000	0.054	-0.367
-643.711	800.000	0.044	0.148
-642.697	320.335	0.126	-0.243
-641.682	800.000	-0.053	0.214
-640.668	-89.442	0.179	-0.053
-639.653	800.000	0.011	0.043
-638.638	-163.401	-0.356	-0.017
-637.624	172.792	-0.194	0.284
-636.609	257.315	0.038	-0.066
-635.595	7.096	-0.050	0.038
-634.580	-143.404	-0.192	0.019
-633.565	-89.384	-0.217	-0.065
-632.551	-109.977	-0.043	0.009
-631.536	450.734	0.013	0.030
-630.522	-141.245	-0.179	0.018
-629.507	800.000	0.132	0.402
-628.492	-40.549	-0.154	0.081
-627.478	-68.942	0.249	0.098
-626.463	739.816	-0.053	-0.144
-625.449	-147.225	0.212	0.018
-624.434	765.170	-0.108	-0.299
-623.419	-76.036	0.314	-0.113
-622.405	-64.035	0.238	-0.099
-621.390	-97.511	-0.167	0.044
-620.376	-69.915	-0.056	-0.022
-619.361	-25.682	-0.144	0.086
-618.346	13.448	0.460	-0.362
-617.332	151.038	0.196	0.271
-616.317	-85.021	-0.231	0.073
-615.303	-61.972	0.144	0.061
-614.288	72.377	0.173	0.183
-613.273	542.937	0.092	0.222
-612.259	-200.000	0.013	-0.062
-611.244	116.987	-0.094	0.117
-610.230	159.110	0.088	-0.125
-609.215	-42.144	0.311	0.161
-608.201	6.902	-0.249	0.188
-607.186	-26.824	0.158	0.094
-606.171	-34.482	-0.175	0.098
-605.157	-99.226	-0.293	0.075
-604.142	-118.100	-0.241	0.044
-603.128	-127.806	-0.116	0.017
-602.113	-200.000	-0.066	0.305
-601.098	-135.869	0.110	0.013
-600.084	-198.066	0.315	0.002
-599.069	-104.360	0.220	-0.052
-598.055	-200.000	-0.015	0.091
-597.040	-42.205	0.215	0.112
-596.025	800.000	-0.107	0.311
-595.011	-37.587	-0.097	-0.052
-593.996	165.305	-0.210	-0.301
-592.982	800.000	0.110	-0.355
-591.967	800.000	-0.064	-0.213
-590.952	19.481	0.264	-0.215
-589.938	800.000	-0.066	0.239
-588.923	-155.022	-0.145	-0.010
-587.909	-76.620	0.233	-0.083
-586.894	-200.000	-0.001	0.202
-585.879	-71.954	-0.359	-0.135
-584.865	172.011	-0.132	-0.193
-583.850	163.702	-0.084	0.120
-582.836	-19.354	-0.150	-0.094
-581.821	233.306	-0.064	0.106
-580.806	-200.000	-0.047	-0.449
-579.792	800.000	-0.108	0.337
-578.777	-200.000	0.006	0.043
-577.763	118.467	-0.091	-0.113
-576.748	311.150	0.019	-0.037
-575.733	-112.876	-0.086	0.017
-574.719	-69.681	0.067	-0.026
-573.704	-109.062	0.066	0.014
-572.690	165.742	0.096	-0.138
-571.675	-54.086	-0.155	0.071
-570.661	-158.675	0.186	0.011
-569.646	428.907	-0.108	0.237
-568.631	388.290	-0.111	-0.234
-567.617	-200.000	-0.003	0.098
-566.602	-101.419	0.267	0.066
-565.588	-151.424	0.289	0.022
-564.573	54.111	-0.088	-0.086
-563.558	-200.000	0.065	0.314
-562.544	-193.264	-0.148	0.001
-561.529	441.478	0.045	0.099
-560.515	-93.409	-0.195	0.055
-559.500	-12.940	0.176	0.116
-558.485	18.729	0.238	-0.193
-557.471	-49.228	-0.123	0.059
-556.456	-52.403	0.199	-0.093
-555.442	151.851	0.010	-0.013
-554.427	-138.941	0.078	-0.009
-553.412	-84.256	-0.478	0.153
-552.398	-200.000	0.045	-0.257
-551.383	-200.000	-0.041	-0.367
-550.369	-83.951	-0.079	-0.025
-549.354	16.264	-0.218	0.174
-548.339	52.970	0.256	-0.248
-547.325	-38.019	0.223	0.120
-546.310	605.116	0.032	0.079
-545.296	-200.000	0.002	-0.267
-544.281	-42.434	0.173	-0.089
-543.266	-116.751	0.112	0.021
-542.252	-200.000	0.088	0.467
-541.237	626.705	-0.075	0.191
-540.223	-96.220	-0.396	0.106
-539.208	-121.042	0.369	-0.063
-538.193	-77.223	0.154	0.054
-537.179	-83.028	-0.149	0.049
-536.164	281.328	0.201	0.364
-535.150	247.569	0.043	0.073
-534.135	-124.398	0.153	0.024
-533.121	-200.000	-0.020	0.094
-532.106	800.000	-0.064	-0.222
-531.091	-71.122	-0.286	0.109
-530.077	-155.109	0.079	-0.005
-529.062	53.559	0.107	-0.104
-528.048	-115.106	-0.046	-0.009
-527.033	250.009	-0.042	0.073
-526.018	-139.677	-0.154	0.017
-525.004	165.112	0.049	-0.070
-523.989	786.208	-0.050	0.139
-522.975	-58.362	-0.099	0.044
-521.960	142.761	0.158	0.212
-520.945	800.000	0.021	-0.063
-519.931	-94.781	-0.139	-0.038
-518.916	-200.000	-0.039	-0.293
-517.902	-121.408	-0.449	-0.076
-516.887	36.464	-0.130	0.116
-515.872	216.005	-0.130	0.209
-514.858	243.119	-0.070	0.118
-513.843	297.115	-0.121	-0.224
-512.829	455.637	-0.086	-0.192
-511.814	776.700	-0.111	0.307
-510.799	-80.649	-0.196	0.066
-509.785	800.000	0.040	-0.142
-508.770	-91.040	-0.186	-0.054
-507.756	703.324	-0.033	-0.088
-506.741	-64.163	0.147	-0.061
-505.726	-200.000	0.004	0.227
-504.712	-44.424	0.036	0.018
-503.697	-81.965	0.201	-0.066
-502.683	-111.281	-0.189	-0.039
-501.668	-69.383	0.146	-0.057
-500.653	701.234	-0.022	-0.058
-499.639	-200.000	0.001	-0.129
-498.624	129.207	-0.137	0.177
-497.610	-75.829	-0.137	0.049
-496.595	-200.000	0.089	0.000
-495.581	-200.000	0.008	-0.149
-494.566	-109.517	0.175	-0.037
-493.551	-59.828	-0.263	0.114
-492.537	-7.603	-0.191	-0.131
-491.522	-136.568	-0.190	-0.022
-490.508	800.000	-0.046	-0.149
-489.493	-200.000	0.012	0.183
-488.478	241.590	0.253	-0.428
-487.464	218.218	0.053	-0.085
-486.449	-107.462	0.464	-0.103
-485.435	800.000	-0.024	0.090
-484.420	-200.000	-0.005	-0.053
-483.405	-87.176	-0.194	0.060
-482.391	-116.621	-0.175	0.032
-481.376	-148.832	0.274	-0.022
-480.362	393.229	-0.143	0.300
-479.347	-118.822	-0.064	-0.011
-478.332	132.097	0.226	0.294
-477.318	126.863	-0.041	0.053
-476.303	486.662	0.061	-0.140
-475.289	800.000	0.025	-0.097
-474.274	-104.686	0.188	0.044
-473.259	800.000	-0.075	0.244
-472.245	800.000	0.040	-0.153
-471.230	-132.851	0.118	-0.015
-470.216	177.945	-0.141	0.207
-469.201	522.229	0.050	-0.118
-468.186	-122.320	0.271	0.045
-467.172	-146.726	0.316	0.028
-466.157	42.015	-0.277	0.254
-465.143	-200.000	0.050	-0.264
-464.128	800.000	0.026	-0.105
-463.113	82.975	-0.160	-0.175
-462.099	800.000	-0.019	0.068
-461.084	-186.003	0.108	0.002
-460.070	-175.674	-0.320	0.009
-459.055	-200.000	0.017	-0.280
-458.040	800.000	-0.030	-0.129
-457.026	-200.000	0.047	-0.242
-456.011	6.026	-0.040	0.030
-454.997	-143.610	-0.166	-0.016
-453.982	-50.217	0.396	-0.189
-452.968	-198.455	0.003	0.000
-451.953	262.206	0.227	-0.396
-450.938	-47.758	-0.166	-0.081
-449.924	-136.871	-0.185	0.021
-448.909	44.746	0.058	-0.054
-447.895	-63.734	-0.219	0.090
-446.880	-43.644	-0.149	-0.076
-445.865	800.000	0.102	-0.371
-444.851	-14.219	-0.161	-0.104
-443.836	-61.437	-0.243	-0.103
-442.822	-200.000	-0.019	-0.189
-441.807	-200.000	0.024	-0.180
-440.792	-200.000	0.018	0.167
-439.778	49.295	0.106	-0.101
-438.763	431.880	0.058	0.128
-437.749	-40.024	-0.177	0.093
-436.734	-6.758	0.320	-0.219
-435.719	-45.168	0.324	0.162
-434.705	295.194	0.078	-0.144
-433.690	237.643	-0.140	-0.234
-432.676	800.000	-0.023	0.088
-431.661	361.154	0.061	-0.124
-430.646	-92.647	0.152	0.043
-429.632	-24.983	-0.096	0.057
-428.617	-59.008	-0.108	0.047
-427.603	211.234	0.084	-0.132
-426.588	-22.996	-0.178	-0.108
-425.573	-200.000	-0.031	0.173
-424.559	-143.003	0.196	-0.019
-423.544	703.554	0.126	-0.336
-422.530	524.066	-0.108	-0.256
-421.515	-142.376	0.347	-0.034
-420.500	783.937	-0.050	0.137
-419.486	126.923	-0.054	-0.068
-418.471	-200.000	-0.004	-0.146
-417.457	43.178	0.247	-0.227
-416.442	-61.948	-0.320	-0.135
-415.428	-62.838	-0.241	0.101
-414.413	-22.230	-0.255	-0.156
-413.398	-95.839	0.219	-0.059
-412.384	-10.373	0.066	-0.044
-411.369	800.000	0.065	-0.286
-410.355	77.964	-0.229	0.246
-409.340	-200.000	0.027	-0.158
-408.325	78.678	0.193	-0.208
-407.311	-184.660	-0.043	0.001
-406.296	800.000	0.041	-0.175
-405.282	-93.775	0.192	-0.053
-404.267	-14.347	0.147	-0.096
-403.252	45.433	0.288	0.268
-402.238	-109.274	0.079	-0.017
-401.223	800.000	0.104	-0.357
-400.209	-120.061	-0.215	-0.037
-399.194	-200.000	-0.006	0.044
-398.179	69.433	0.201	-0.208
-397.165	800.000	0.039	0.160
-396.150	-150.945	-0.076	0.006
-395.136	-200.000	0.004	0.107
-394.121	-200.000	0.037	0.217
-393.106	800.000	0.066	0.189
-392.092	731.230	-0.074	-0.198
-391.077	-128.669	-0.236	0.033
-390.063	800.000	0.077	-0.267
-389.048	-167.461	0.282	0.011
-388.033	322.578	-0.071	0.135
-387.019	193.054	-0.119	0.181
-386.004	62.327	0.274	-0.275
-384.990	123.510	-0.249	0.315
-383.975	800.000	0.037	-0.118
-382.960	4.751	-0.067	0.050
-381.946	325.172	0.086	-0.166
-380.931	97.522	0.076	0.088
-379.917	-200.000	0.007	0.389
-378.902	85.949	-0.156	-0.173
-377.888	151.160	-0.119	0.163
-376.873	-78.098	0.164	-0.057
-375.858	-200.000	-0.001	0.130
-374.844	-47.988	-0.096	-0.047
-373.829	30.762	0.201	0.173
-372.815	-200.000	0.002	0.027
-371.800	442.513	0.126	0.278
-370.785	344.040	-0.154	0.303
-369.771	-195.939	0.164	0.001
-368.756	-141.932	0.170	-0.017
-367.742	601.817	-0.024	-0.061
-366.727	800.000	-0.037	-0.154
-365.712	-111.861	-0.195	-0.040
-364.698	140.719	-0.117	-0.156
-363.683	10.226	0.346	0.264
-362.669	-156.594	-0.243	-0.015
-361.654	-100.970	0.268	-0.066
-360.639	-200.000	-0.039	0.354
-359.625	-117.716	0.143	0.026
-358.610	-166.281	-0.150	0.006
-357.596	29.235	0.071	-0.061
-356.581	301.739	-0.115	-0.214
-355.566	-66.497	-0.063	0.025
-354.552	-159.131	0.349	-0.020
-353.537	-79.148	0.084	0.029
-352.523	-200.000	0.038	0.169
-351.508	-94.778	0.265	0.072
-350.493	-13.354	0.327	0.213
-349.479	186.565	-0.159	-0.238
-348.464	11.926	0.068	0.052
-347.450	-200.000	-0.055	-0.392
-346.435	166.366	-0.238	-0.338
-345.420	-13.368	0.240	-0.156
-344.406	-200.000	-0.018	0.255
-343.391	22.200	0.134	0.110
-342.377	-89.854	-0.328	0.096
-341.362	-69.828	0.052	-0.020
-340.348	150.646	-0.054	-0.073
-339.333	8.977	-0.257	-0.194
-338.318	-54.512	-0.189	-0.086
-337.304	-67.431	0.354	0.140
-336.289	-57.102	0.138	0.061
-335.275	432.369	-0.128	0.279
-334.260	-121.190	0.235	-0.039
-333.245	-200.000	-0.028	-0.235
-332.231	-46.408	-0.260	-0.128
-331.216	800.000	0.062	-0.197
-330.202	-200.000	0.003	-0.016
-329.187	105.476	-0.069	0.082
-328.172	-200.000	-0.053	-0.294
-327.158	-200.000	0.030	0.240
-326.143	-94.618	0.277	0.076
-325.129	369.965	-0.137	0.279
-324.114	670.290	0.218	0.565
-323.099	-152.431	-0.140	0.010
-322.085	-2.593	0.080	0.056
-321.070	-142.478	0.109	-0.011
-320.056	-39.446	0.143	-0.075
-319.041	-157.961	-0.369	-0.022
-318.026	15.018	-0.094	-0.074
-317.012	-68.328	-0.045	0.017
-315.997	373.028	-0.103	0.209
-314.983	-104.877	-0.207	0.048
-313.968	324.603	0.169	0.324
-312.953	-6.476	0.115	-0.078
-311.939	0.520	0.244	-0.175
-310.924	800.000	-0.115	0.452
-309.910	-200.000	-0.001	-0.096
-308.895	246.375	-0.183	-0.309
-307.880	-200.000	-0.046	-0.325
-306.866	800.000	0.037	-0.125
-305.851	94.968	-0.125	-0.143
-304.837	7.439	-0.172	-0.129
-303.822	308.628	0.089	-0.167
-302.807	-141.338	0.189	0.019
-301.793	-172.618	-0.354	-0.011
-300.778	800.000	0.162	-0.458
-299.764	158.271	0.153	0.212
-298.749	53.619	0.178	0.172
-297.735	-44.910	0.387	-0.193
-296.720	-91.898	-0.084	-0.024
-295.705	53.747	0.242	-0.233
-294.691	-151.365	-0.292	0.022
-293.676	-77.975	-0.126	0.043
-292.662	466.452	-0.181	0.405
-291.647	52.977	0.209	0.200
-290.632	800.000	-0.091	-0.268
-289.618	123.877	0.127	-0.159
-288.603	-7.131	0.238	-0.162
-287.589	-132.029	-0.217	0.028
-286.574	-91.970	-0.151	0.043
-285.559	173.083	-0.094	-0.136
-284.545	-200.000	-0.011	0.497
-283.530	-200.000	0.010	0.343
-282.516	-21.692	0.321	-0.196
-281.501	-200.000	0.010	-0.200
-280.486	89.552	-0.193	-0.216
-279.472	232.179	0.175	-0.288
-278.457	19.337	-0.159	-0.128
-277.443	40.111	-0.103	-0.092
-276.428	-124.577	-0.160	0.025
-275.413	800.000	0.040	-0.170
-274.399	-49.289	-0.240	0.115
-273.384	800.000	0.066	-0.188
-272.370	-53.743	-0.161	-0.074
-271.355	-70.100	-0.240	0.091
-270.340	319.803	-0.096	-0.182
-269.326	-81.121	0.324	-0.107
-268.311	-79.330	0.137	-0.046
-267.297	-27.952	-0.191	0.111
-266.282	15.494	-0.189	0.149
-265.267	-44.508	0.095	-0.047
-264.253	12.418	0.222	0.171
-263.238	-200.000	-0.025	0.272
-262.224	185.361	-0.106	-0.158
-261.209	-50.955	-0.195	0.092
-260.195	-200.000	0.049	-0.241
-259.180	741.342	-0.036	-0.097
-258.165	307.084	-0.163	-0.303
-257.151	518.833	0.044	-0.104
-256.136	-200.000	0.020	0.120
-255.122	38.835	-0.214	0.191
-254.107	-97.700	-0.170	-0.044
-253.092	36.025	-0.024	0.021
-252.078	-2.191	0.138	0.097
-251.063	-123.650	-0.334	0.053
-250.049	800.000	0.086	0.274
-249.034	13.665	0.071	0.055
-248.019	-84.330	-0.041	0.013
-247.005	-107.546	-0.114	-0.025
-245.990	353.563	-0.082	0.163
-244.976	-200.000	0.002	-0.257
-243.961	-110.825	-0.195	-0.040
-242.946	-55.665	-0.199	0.089
-241.932	596.666	-0.155	-0.383
-240.917	114.886	-0.091	0.111
-239.903	78.126	-0.179	-0.191
-238.888	-105.157	0.166	-0.038
-237.873	109.894	0.083	0.099
-236.859	-117.744	-0.120	0.022
-235.844	48.106	0.140	-0.131
-234.830	-108.659	0.151	0.032
-233.815	-8.610	-0.126	0.084
-232.800	-139.476	0.314	-0.034
-231.786	800.000	0.030	0.121
-230.771	119.660	-0.054	0.067
-229.757	-151.353	0.710	0.053
-228.742	29.004	-0.153	-0.130
-227.727	168.445	0.235	-0.335
-226.713	99.958	-0.077	0.089
-225.698	210.338	-0.101	0.159
-224.684	-200.000	-0.020	0.336
-223.669	146.752	-0.098	-0.132
-222.655	-9.752	0.070	-0.047
-221.640	-200.000	-0.005	-0.267
-220.625	243.762	-0.043	0.071
-219.611	-35.071	-0.258	0.140
-218.596	-120.380	0.332	-0.057
-217.582	-200.000	-0.026	0.173
-216.567	12.197	0.064	0.049
-215.552	-139.117	-0.276	-0.030
-214.538	-23.850	0.502	-0.301
-213.523	-136.995	0.228	-0.026
-212.509	52.237	0.154	-0.147
-211.494	-167.669	-0.199	-0.008
-210.479	93.038	-0.180	0.203
-209.465	61.341	-0.300	0.298
-208.450	-158.308	0.172	-0.010
-207.436	-49.705	-0.067	0.032
-206.421	10.256	0.190	-0.144
-205.406	200.043	0.034	-0.053
-204.392	19.318	0.243	0.195
-203.377	50.159	-0.155	0.146
-202.363	-54.896	-0.199	-0.089
-201.348	555.743	0.048	0.114
-200.333	46.875	0.324	0.300
-199.319	-200.000	-0.049	0.242
-198.304	20.457	-0.120	-0.097
-197.290	-136.866	-0.067	-0.008
-196.275	346.515	0.013	-0.025
-195.260	800.000	-0.052	-0.213
-194.246	126.326	0.169	0.214
-193.231	64.555	0.295	-0.297
-192.217	-58.879	-0.266	0.115
-191.202	800.000	-0.045	-0.142
-190.187	-111.681	-0.303	0.061
-189.173	-105.025	0.062	-0.014
-188.158	-8.064	0.195	0.131
-187.144	-200.000	-0.066	0.352
-186.129	666.872	0.138	0.355
-185.114	47.602	0.190	-0.177
-184.100	-142.558	0.517	0.051
-183.085	20.977	-0.061	0.049
-182.071	800.000	0.058	-0.209
-181.056	800.000	0.049	0.188
-180.042	799.626	0.075	0.205
-179.027	-60.960	0.116	0.049
-178.012	-125.900	0.143	0.021
-176.998	800.000	-0.123	0.354
-175.983	399.760	-0.098	0.205
-174.969	-69.197	-0.238	-0.091
-173.954	70.355	0.227	0.234
-172.939	-9.972	0.127	-0.084
-171.925	158.619	-0.037	-0.051
-170.910	-102.648	-0.111	0.026
-169.896	-200.000	0.044	-0.569
-168.881	76.863	-0.125	0.132
-167.866	-15.172	-0.218	-0.139
-166.852	343.202	-0.159	0.310
-165.837	800.000	-0.147	0.536
-164.823	315.650	-0.096	0.180
-163.808	-200.000	-0.006	-0.351
-162.793	-200.000	0.019	0.333
-161.779	800.000	-0.034	0.108
-160.764	-200.000	-0.011	0.196
-159.750	192.492	0.146	-0.219
-158.735	-13.032	0.193	0.125
-157.720	-95.647	-0.366	0.098
-156.706	8.586	0.133	0.100
-155.691	773.499	-0.064	0.175
-154.677	800.000	-0.075	-0.284
-153.662	-27.479	0.258	0.150
-152.647	-63.898	0.105	0.043
-151.633	-181.421	-0.279	0.005
-150.618	245.459	-0.235	-0.394
-149.604	-4.789	0.196	-0.135
-148.589	40.824	-0.310	0.279
-147.574	19.407	-0.128	-0.103
-146.560	-193.685	0.313	0.003
-145.545	9.257	0.100	0.076
-144.531	-107.249	0.209	-0.046
-143.516	-49.772	-0.323	-0.153
-142.502	-173.678	-0.079	0.002
-141.487	-11.107	0.201	0.132
-140.472	-152.850	0.328	-0.023
-139.458	73.671	-0.052	0.055
-138.443	-68.836	-0.152	-0.058
-137.429	-61.905	0.255	0.106
-136.414	-129.141	0.146	-0.020
-135.399	61.618	-0.195	0.193
-134.385	-23.476	-0.205	-0.123
-133.370	166.741	-0.096	-0.136
-132.356	284.942	0.313	0.562
-131.341	4.175	0.113	0.083
-130.326	-200.000	0.012	-0.074
-129.312	-200.000	-0.010	-0.138
-128.297	-4.495	0.163	0.112
-127.283	-200.000	0.023	-0.143
-126.268	-132.215	-0.137	-0.018
-125.253	-121.163	0.399	0.067
-124.239	51.121	-0.332	0.313
-123.224	-149.234	0.218	0.017
-122.210	-19.124	0.048	-0.030
-121.195	-200.000	-0.006	-0.108
-120.180	765.151	0.201	-0.544
-119.166	-200.000	-0.002	0.027
-118.151	115.149	-0.095	-0.115
-117.137	32.086	-0.191	-0.164
-116.122	43.900	-0.102	0.093
-115.107	-76.473	0.229	-0.080
-114.093	-200.000	0.014	-0.074
-113.078	-144.725	-0.129	0.012
-112.064	696.090	-0.071	0.185
-111.049	-31.296	-0.336	-0.188
-110.034	-124.290	-0.257	0.040
-109.020	333.674	0.163	-0.314
-108.005	76.481	-0.299	-0.315
-106.991	-22.517	0.283	0.170
-105.976	23.706	0.285	0.233
-104.962	-200.000	-0.004	0.297
-103.947	9.883	0.020	-0.015
-102.932	72.495	0.134	-0.139
-101.918	-183.683	0.141	-0.002
-100.903	482.737	0.123	0.278
-99.889	-49.661	0.461	0.218
-98.874	581.685	-0.089	0.216
-97.859	30.976	-0.445	0.379
-96.845	291.178	0.149	0.270
-95.830	-200.000	-0.034	0.247
-94.816	-73.922	-0.384	0.139
-93.801	20.138	0.274	-0.220
-92.786	-78.102	0.354	0.121
-91.772	159.641	-0.144	0.199
-90.757	110.978	-0.374	0.447
-89.743	-133.278	0.324	-0.041
-88.728	689.268	-0.027	-0.070
-87.713	10.767	-0.289	0.219
-86.699	800.000	-0.057	0.169
-85.684	-178.640	0.118	-0.003
-84.670	-111.790	-0.481	0.097
-83.655	4.316	-0.415	-0.302
-82.640	119.984	0.310	0.382
-81.626	800.000	0.024	0.070
-80.611	-180.304	0.255	0.005
-79.597	-90.988	0.117	0.033
-78.582	651.028	-0.095	0.241
-77.567	278.794	-0.126	-0.223
-76.553	-77.029	-0.183	0.064
-75.538	178.441	-0.106	-0.154
-74.524	-90.889	0.216	-0.062
-73.509	82.025	0.075	-0.080
-72.494	372.610	0.027	0.054
-71.480	91.202	0.230	-0.256
-70.465	363.138	0.228	0.456
-69.451	-136.010	0.184	0.021
-68.436	-32.534	0.064	-0.035
-67.422	24.006	-0.238	0.195
-66.407	89.516	-0.132	-0.146
-65.392	-200.000	0.013	0.329
-64.378	32.440	-0.151	-0.130
-63.363	800.000	0.022	0.090
-62.349	-47.292	0.349	-0.169
-61.334	22.787	-0.863	-0.702
-60.319	-11.267	0.694	0.454
-59.305	316.594	-0.394	-0.738
-58.290	136.620	0.695	0.901
-57.276	382.044	0.617	1.259
-56.261	-200.000	90.569	520.063
-55.246	482.519	1390.160	3136.238
-54.232	147.728	2600.003	3478.946
-53.217	111.184	2222.401	2658.228
-52.203	45.942	1750.365	1607.813
-51.188	39.088	1557.218	1382.336
-50.173	36.740	1529.004	1340.989
-49.159	54.037	1576.451	1504.685
-48.144	57.795	1596.058	1549.802
-47.130	39.641	1553.345	1382.556
-46.115	36.354	1538.109	1346.072
-45.100	36.216	1534.685	1342.064
-44.086	36.167	1532.569	1339.818
-43.071	36.099	1530.846	1337.784
-42.057	36.030	1529.446	1336.030
-41.042	36.067	1528.073	1335.038
-40.027	36.055	1526.729	1333.726
-39.013	36.146	1524.785	1332.605
-37.998	36.114	1523.672	1331.358
-36.984	36.002	1522.889	1329.848
-35.969	36.031	1521.182	1328.505
-34.954	36.110	1519.373	1327.412
-33.940	36.164	1518.148	1326.665
-32.925	36.054	1517.188	1325.018
-31.911	36.156	1515.673	1324.338
-30.896	36.178	1514.383	1323.311
-29.881	36.122	1513.331	1321.953
-28.867	36.183	1511.678	1320.875
-27.852	36.060	1510.181	1318.676
-26.838	36.247	1508.196	1318.168
-25.823	36.184	1507.077	1316.710
-24.809	36.192	1505.279	1315.135
-23.794	36.067	1503.853	1312.988
-22.779	36.069	1503.358	1312.515
-21.765	36.170	1502.062	1312.023
-20.750	36.190	1500.560	1310.794
-19.736	36.154	1499.604	1309.664
-18.721	36.127	1498.035	1308.056
-17.706	36.146	1497.211	1307.415
-16.692	36.130	1495.671	1305.906
-15.677	36.155	1494.860	1305.317
-14.663	36.076	1494.205	1304.158
-13.648	36.039	1493.293	1303.064
-12.633	36.129	1491.851	1302.357
-11.619	36.080	1491.495	1301.667
-10.604	36.114	1489.855	1300.409
-9.590	36.064	1489.151	1299.410
-8.575	36.173	1488.105	1299.181
-7.560	36.117	1487.703	1298.400
-6.546	36.015	1487.286	1297.300
-5.531	36.008	1486.086	1296.154
-4.517	35.984	1485.216	1295.181
-3.502	36.008	1484.204	1294.404
-2.487	36.058	1482.945	1293.595
-1.473	36.027	1481.915	1292.439
-0.458	36.057	1480.381	1291.249
0.556	36.067	1471.091	1280.810
1.571	33.487	1444.844	1240.979
2.586	30.126	1383.326	1166.915
3.600	28.363	1300.803	1086.761
4.615	26.843	1252.948	1037.997
5.629	22.378	1193.519	964.270
6.644	11.468	1102.615	835.222
7.659	3.301	1058.060	761.171
8.673	2.142	1052.640	751.506
9.688	1.910	1049.672	748.181
10.702	1.765	1047.592	745.924
11.717	1.643	1046.286	744.332
12.731	4.844	1050.127	762.693
13.746	15.366	1065.008	825.453
14.761	23.522	1075.533	873.897
15.775	25.117	1076.625	882.563
16.790	25.339	1075.924	883.002
17.804	25.164	1075.425	881.656
18.819	24.932	1074.876	879.990
19.834	25.118	1073.636	879.808
20.848	25.120	1073.639	879.744
21.863	25.182	1073.789	880.091
22.877	25.249	1072.904	879.615
23.892	25.185	1072.354	878.773
24.907	25.086	1071.454	877.476
25.921	25.122	1070.800	877.039
26.936	25.090	1069.771	875.961
27.950	25.133	1068.855	875.341
28.965	25.151	1067.650	874.366
29.980	25.015	1066.462	872.655
30.994	24.944	1065.325	871.303
32.009	25.195	1064.471	871.744
33.023	25.276	1064.087	871.747
34.038	25.070	1062.424	869.307
35.053	25.050	1061.845	868.660
36.067	25.224	1061.411	869.070
37.082	25.192	1060.465	868.066
38.096	25.193	1059.522	867.220
39.111	25.300	1059.303	867.482
40.126	25.493	1058.435	867.627
41.140	25.376	1056.879	865.712
42.155	25.104	1055.517	863.208
43.169	24.777	1054.478	860.710
44.184	24.684	1053.607	859.477
45.199	24.712	1052.582	858.697
46.213	24.734	1051.540	857.880
47.228	24.771	1050.620	857.230
48.242	24.885	1049.863	857.082
49.257	25.027	1049.385	857.294
50.271	25.029	1048.513	856.513
51.286	25.230	1047.879	856.880
52.301	25.365	1046.770	856.543
53.315	25.246	1046.192	855.425
54.330	25.118	1045.447	854.131
55.344	25.028	1044.751	853.059
56.359	25.043	1043.626	852.136
57.374	25.122	1042.970	851.902
58.388	24.930	1041.581	849.782
59.403	24.893	1041.285	849.289
60.417	24.665	1041.150	848.023
61.432	24.577	1040.177	846.737
62.447	24.792	1039.003	846.724
63.461	24.829	1038.610	846.505
64.476	24.852	1037.871	845.936
65.490	24.903	1036.937	845.340
66.505	24.788	1035.691	843.708
67.520	24.908	1034.596	843.308
68.534	24.923	1034.210	842.988
69.549	24.788	1033.362	841.585
70.563	24.570	1031.983	839.366
71.578	24.312	1031.651	837.811
72.593	24.357	1031.133	837.524
73.607	24.088	1029.814	835.116
74.622	24.295	1028.596	835.025
75.636	24.594	1027.990	835.860
76.651	24.661	1027.498	835.700
77.666	24.659	1026.529	834.826
78.680	24.672	1025.329	833.838
79.695	24.512	1024.663	832.479
80.709	24.647	1023.776	832.310
81.724	24.728	1023.449	832.350
82.739	24.723	1022.886	831.796
83.753	24.705	1021.595	830.589
84.768	24.929	1021.219	831.248
85.782	25.338	1020.665	832.622
86.797	25.554	1019.892	832.918
87.812	25.482	1019.207	831.949
88.826	25.312	1018.184	830.256
89.841	25.277	1017.616	829.559
90.855	25.474	1016.721	829.664
91.870	25.341	1015.893	828.302
92.884	25.379	1015.097	827.756
93.899	25.241	1014.215	826.327
94.914	25.195	1012.957	825.017
95.928	25.374	1012.396	825.311
96.943	25.242	1011.744	824.096
97.957	25.087	1009.936	821.841
98.972	24.750	1009.097	819.541
99.987	24.758	1008.167	818.753
101.001	24.770	1007.604	818.276
102.016	25.002	1007.551	819.223
103.030	25.143	1006.340	818.808
104.045	24.979	1005.307	817.150
105.060	25.087	1003.962	816.474
106.074	24.674	1003.314	813.998
107.089	24.778	1002.117	813.427
108.103	25.147	1002.016	814.950
109.118	25.173	1001.026	814.189
110.133	24.835	1000.180	811.896
111.147	24.870	998.811	810.872
112.162	24.678	998.172	809.413
113.176	24.430	996.902	807.188
114.191	24.638	996.016	807.339
115.206	24.696	995.445	807.070
116.220	24.426	994.042	804.640
117.235	24.261	993.102	803.065
118.249	24.263	993.038	802.953
119.264	24.476	991.824	802.856
120.279	24.359	991.450	801.959
121.293	24.362	990.353	801.014
122.308	24.371	990.151	800.820
123.322	24.497	989.071	800.437
124.337	24.527	987.648	799.350
125.352	24.428	986.357	797.794
126.366	23.954	985.150	794.629
127.381	23.716	983.665	792.299
128.395	24.305	983.233	794.506
129.410	24.822	982.892	796.462
130.424	24.899	982.603	796.503
131.439	24.946	981.486	795.734
132.454	25.047	980.069	794.961
133.468	24.964	979.512	794.074
134.483	24.827	978.724	792.758
135.497	24.918	978.667	793.044
136.512	25.142	977.419	792.952
137.527	25.296	976.508	792.823
138.541	25.137	976.138	791.750
139.556	25.226	975.389	791.468
140.570	25.355	974.459	791.213
141.585	25.238	974.051	790.293
142.600	25.361	972.677	789.649
143.614	25.242	971.850	788.384
144.629	25.235	971.477	787.984
145.643	25.564	970.662	788.698
146.658	25.505	969.371	787.317
147.673	25.166	968.165	784.786
148.687	25.063	967.572	783.784
149.702	24.970	966.391	782.354
150.716	25.134	964.867	781.765
151.731	24.965	964.511	780.671
152.746	24.835	964.216	779.795
153.760	25.190	963.247	780.490
154.775	25.390	962.223	780.460
155.789	25.438	961.443	779.967
156.804	25.382	960.322	778.745
157.819	25.350	959.496	777.867
158.833	25.411	958.477	777.237
159.848	25.411	958.298	777.024
160.862	25.385	957.578	776.259
161.877	25.355	956.308	775.032
162.892	25.280	955.644	774.101
163.906	25.449	954.185	773.577
164.921	25.190	953.875	772.143
165.935	25.293	952.634	771.512
166.950	25.442	951.488	771.155
167.964	25.431	950.304	770.081
168.979	25.280	949.423	768.651
169.994	25.267	948.450	767.739
171.008	25.027	947.635	765.989
172.023	25.265	947.102	766.507
173.037	25.379	946.727	766.621
174.052	25.355	944.973	765.033
175.067	25.039	944.088	762.901
176.081	25.018	943.478	762.254
177.096	25.273	942.353	762.360
178.110	24.973	942.070	760.788
179.125	25.001	940.938	759.924
180.140	24.683	939.752	757.555
181.154	24.668	938.975	756.797
182.169	24.877	938.615	757.325
183.183	24.981	938.510	757.613
184.198	25.318	938.246	758.757
185.213	25.366	936.921	757.820
186.227	25.235	936.562	756.911
187.242	25.250	936.388	756.768
188.256	25.402	935.415	756.553
189.271	25.289	934.694	755.427
190.286	25.495	934.064	755.718
191.300	25.291	933.102	754.016
192.315	24.773	931.884	750.789
193.329	24.094	929.695	746.116
194.344	23.468	929.228	743.054
195.359	24.040	929.522	745.618
196.373	25.151	929.580	750.252
197.388	25.335	929.469	750.865
198.402	25.164	928.999	749.704
199.417	25.088	928.415	748.849
200.432	25.210	927.935	748.903
201.446	25.190	926.915	747.931
202.461	24.888	926.336	746.138
203.475	24.832	925.961	745.537
204.490	24.448	924.920	743.035
205.504	23.399	922.278	736.490
206.519	23.777	921.824	737.632
207.534	24.732	922.317	741.926
208.548	24.857	921.648	741.841
209.563	25.216	921.480	743.127
210.577	25.362	920.853	743.162
211.592	25.024	919.958	740.973
212.607	25.338	919.893	742.157
213.621	25.415	919.575	742.149
214.636	25.357	919.213	741.554
215.650	25.402	918.570	741.155
216.665	25.433	917.612	740.445
217.680	25.342	917.312	739.760
218.694	25.440	917.349	740.129
219.709	25.187	915.651	737.653
220.723	24.779	914.713	735.158
221.738	25.010	914.491	735.863
222.753	25.431	913.392	736.640
223.767	25.139	913.355	735.346
224.782	25.283	912.150	734.902
225.796	25.514	911.429	735.201
226.811	25.576	911.173	735.183
227.826	25.145	910.354	732.697
228.840	24.274	908.675	727.724
229.855	24.317	907.836	727.165
230.869	24.461	907.720	727.596
231.884	24.201	906.806	725.738
232.899	24.232	906.287	725.386
233.913	25.040	906.376	728.682
234.928	25.212	906.048	729.050
235.942	25.019	905.398	727.680
236.957	25.142	904.531	727.419
237.972	24.715	904.074	725.255
238.986	24.829	903.191	724.942
240.001	24.962	902.181	724.608
241.015	24.713	901.971	723.366
242.030	24.983	901.279	723.839
243.045	25.203	900.403	723.959
244.059	25.191	899.923	723.459
245.074	25.320	899.545	723.614
246.088	25.308	898.965	723.032
247.103	25.005	898.050	721.014
248.117	24.901	897.694	720.245
249.132	25.419	897.628	722.214
250.147	25.871	897.300	723.701
251.161	25.966	896.776	723.596
252.176	26.028	896.606	723.642
253.190	26.052	895.853	723.067
254.205	26.029	895.318	722.480
255.220	26.317	895.232	723.500
256.234	26.391	894.286	722.968
257.249	26.169	893.564	721.430
258.263	26.083	893.242	720.763
259.278	25.986	892.590	719.786
260.293	26.090	891.896	719.577
261.307	26.223	891.190	719.477
262.322	26.082	891.003	718.699
263.336	25.942	890.263	717.481
264.351	25.576	888.761	714.755
265.366	24.463	886.704	708.619
266.380	24.063	885.558	706.057
267.395	24.933	886.253	709.998
268.409	25.743	886.374	713.243
269.424	25.465	885.903	711.699
270.439	25.712	885.543	712.327
271.453	25.883	884.934	712.450
272.468	25.899	884.075	711.756
273.482	25.961	884.003	711.881
274.497	26.173	883.690	712.404
275.512	26.043	882.293	710.701
276.526	25.466	880.866	707.221
277.541	25.503	880.793	707.242
278.555	25.855	880.707	708.496
279.570	25.807	879.857	707.561
280.585	25.691	878.913	706.282
281.599	25.681	878.644	705.965
282.614	25.913	877.977	706.276
283.628	25.415	876.769	703.294
284.643	25.023	875.947	701.039
285.657	25.509	876.037	702.952
286.672	25.324	875.559	701.783
287.687	24.821	873.894	698.421
288.701	25.189	874.230	700.063
289.716	25.554	873.908	701.168
290.730	25.206	873.029	699.046
291.745	25.130	872.439	698.216
292.760	24.990	871.300	696.697
293.774	24.852	870.697	695.616
294.789	25.812	871.418	699.864
295.803	26.431	871.638	702.384
296.818	26.424	870.712	701.548
297.833	26.584	870.370	701.830
298.847	26.149	869.210	699.150
299.862	25.887	868.306	697.347
300.876	26.081	867.944	697.745
301.891	26.336	867.873	698.611
302.906	26.375	866.914	697.928
303.920	25.949	866.027	695.507
304.935	26.011	865.084	694.931
305.949	26.266	864.994	695.779
306.964	26.350	864.801	695.886
307.979	26.139	864.056	694.410
308.993	25.997	863.423	693.296
310.008	26.273	863.474	694.337
311.022	26.402	862.932	694.332
312.037	26.353	862.053	693.377
313.052	26.126	861.714	692.174
314.066	26.015	860.808	690.958
315.081	25.417	859.148	687.278
316.095	24.657	857.857	683.279
317.110	25.156	857.922	685.177
318.125	26.068	858.310	688.913
319.139	25.747	857.320	686.834
320.154	24.510	855.439	680.552
321.168	23.981	854.359	677.621
322.183	24.684	854.676	680.487
323.197	25.725	855.208	684.815
324.212	25.980	854.923	685.492
325.227	25.915	854.779	685.073
326.241	26.062	854.417	685.280
327.256	26.122	853.563	684.759
328.270	25.993	852.852	683.641
329.285	25.863	851.978	682.387
330.300	25.736	851.351	681.346
331.314	25.520	850.490	679.780
332.329	25.741	849.533	679.787
333.343	26.029	849.908	681.115
334.358	26.365	849.423	681.935
335.373	26.317	848.595	681.027
336.387	26.180	848.327	680.238
337.402	26.547	847.774	681.115
338.416	26.705	847.613	681.519
339.431	26.823	847.116	681.503
340.446	26.665	846.509	680.361
341.460	26.895	846.030	680.779
342.475	26.915	845.678	680.511
343.489	26.553	844.847	678.425
344.504	26.756	844.240	678.637
345.519	26.929	843.904	678.956
346.533	27.088	843.688	679.317
347.548	27.246	843.262	679.502
348.562	27.171	842.548	678.586
349.577	27.283	841.792	678.338
350.592	26.956	841.335	676.688
351.606	27.044	840.682	676.431
352.621	26.882	840.577	675.685
353.635	26.967	839.750	675.276
354.650	26.927	839.266	674.678
355.665	26.549	838.551	672.641
356.679	25.581	836.924	667.684
357.694	25.356	836.249	666.251
358.708	25.958	836.296	668.463
359.723	25.986	835.445	667.825
360.738	26.303	835.092	668.657
361.752	26.667	834.894	669.788
362.767	26.725	835.092	670.101
363.781	27.032	834.654	670.823
364.796	27.313	834.729	671.864
365.810	27.452	834.050	671.771
366.825	27.577	833.817	671.984
367.840	27.537	833.716	671.693
368.854	27.332	832.931	670.249
369.869	26.943	831.892	667.923
370.883	26.788	831.478	666.959
371.898	26.878	830.864	666.740
372.913	26.606	830.142	665.101
373.927	26.789	829.295	665.034
374.942	26.916	828.705	664.969
375.956	26.926	828.226	664.564
376.971	27.254	827.541	665.152
377.986	27.161	827.284	664.549
379.000	27.373	826.520	664.651
380.015	27.364	826.436	664.490
381.029	27.251	825.836	663.539
382.044	27.284	824.938	662.877
383.059	27.399	824.363	662.775
384.073	27.498	824.044	662.822
385.088	27.369	823.747	662.055
386.102	27.412	823.086	661.621
387.117	27.221	822.408	660.323
388.132	27.099	821.939	659.448
389.146	26.956	821.328	658.380
390.161	26.460	819.532	655.086
391.175	26.588	819.477	655.447
392.190	27.020	819.667	657.103
393.205	27.002	819.503	656.851
394.219	26.182	817.537	652.253
395.234	24.459	815.178	644.105
396.248	23.761	813.898	640.521
397.263	24.716	814.895	644.692
398.278	26.463	816.636	652.320
399.292	27.034	816.525	654.228
400.307	26.912	815.556	652.957
401.321	26.659	815.037	651.573
402.336	26.789	814.641	651.668
403.350	27.003	814.771	652.481
404.365	27.389	814.828	653.857
405.380	27.651	814.730	654.660
406.394	28.046	814.171	655.569
407.409	28.229	813.868	655.924
408.423	28.063	813.837	655.247
409.438	28.067	813.043	654.563
410.453	28.066	812.693	654.220
411.467	27.959	812.319	653.478
412.482	28.046	811.638	653.185
413.496	27.966	811.150	652.450
414.511	28.227	810.555	652.844
415.526	28.113	810.444	652.290
416.540	28.210	810.037	652.248
417.555	28.047	809.466	651.150
418.569	27.744	808.678	649.381
419.584	27.739	807.919	648.697
420.599	27.763	807.847	648.666
421.613	103.317	1280.055	1430.912
422.628	88.979	1348.866	1431.035
