DTS Sentinel unit serial number:	SN413079Multiplexer serial number:	ORYXHardware model number:	OX4-SRSoftware version number:	ORYX F/W v4.00 Oryx Data Collector v3.7.2.0data status	okinstallation	princeton_trtdifferential loss correction	single-endedforward channel	channel 3reverse channel	N/Adate	2019/09/16time	22:32:35forward acquisition time	60.00reverse acquisition time	0.00gamma	496.2192k internal	0.2324k external	0.2324temperature offset calibration	0.9943default loss term (dB/km)	0.3790temperature slope calibration	1.0000multiplexer offset coefficient	1.0000multiplexer slope coefficient	1.0000fibre end	0.00T internal ref (°C)	30.77T ext. ref 1 (°C)	0.08T ext. ref 2 (°C)	24.43length (m)	temperature (°C)	Stokes	anti-Stokes-747.200	339.638	-0.133	0.261
-746.185	-164.431	0.174	-0.008
-745.171	206.014	-0.032	0.051
-744.156	173.388	0.183	0.266
-743.142	800.000	0.082	0.243
-742.127	-0.524	0.149	0.106
-741.112	7.932	-0.133	0.101
-740.098	-200.000	-0.040	0.317
-739.083	317.045	-0.094	-0.180
-738.069	525.752	-0.186	0.442
-737.054	-84.419	0.338	-0.108
-736.039	-13.279	0.058	-0.038
-735.025	261.201	0.074	0.130
-734.010	112.207	0.061	-0.074
-732.996	26.226	-0.508	-0.428
-731.981	-11.681	-0.066	-0.044
-730.966	800.000	-0.052	0.189
-729.952	-57.960	0.057	0.025
-728.937	90.878	0.067	-0.076
-727.923	94.460	0.149	-0.171
-726.908	671.434	-0.047	-0.122
-725.894	-200.000	-0.016	-0.424
-724.879	-14.208	-0.137	-0.089
-723.864	800.000	-0.056	-0.205
-722.850	-17.715	0.307	-0.194
-721.835	243.214	-0.202	0.341
-720.821	-105.099	-0.228	-0.053
-719.806	-119.426	0.444	0.078
-718.791	-79.789	-0.173	-0.059
-717.777	-163.575	-0.282	0.013
-716.762	327.171	0.076	-0.147
-715.748	800.000	-0.015	0.045
-714.733	473.221	-0.118	-0.269
-713.718	-149.798	0.249	0.020
-712.704	58.024	0.031	0.030
-711.689	-109.436	-0.114	-0.024
-710.675	-193.855	0.233	-0.002
-709.660	-122.553	-0.441	0.072
-708.645	-43.368	-0.270	0.138
-707.631	-53.536	-0.254	-0.117
-706.616	-47.285	-0.282	-0.138
-705.602	-74.221	-0.106	0.039
-704.587	-200.000	-0.021	-0.111
-703.572	-200.000	-0.059	-0.343
-702.558	-56.976	0.344	0.153
-701.543	-21.830	-0.093	-0.057
-700.529	-96.822	0.090	-0.024
-699.514	-200.000	-0.014	0.160
-698.499	-200.000	-0.004	-0.186
-697.485	18.043	-0.383	0.307
-696.470	-40.602	-0.056	-0.029
-695.456	-59.287	0.278	-0.121
-694.441	-75.835	-0.135	0.048
-693.426	-73.517	0.132	0.049
-692.412	188.729	-0.098	-0.148
-691.397	800.000	-0.079	0.238
-690.383	-91.611	-0.294	0.084
-689.368	-131.400	0.182	-0.024
-688.354	800.000	-0.068	0.199
-687.339	-200.000	0.010	0.176
-686.324	-114.418	0.326	-0.063
-685.310	-39.144	0.104	-0.055
-684.295	-64.485	-0.118	-0.048
-683.281	-200.000	0.038	0.412
-682.266	-26.926	0.130	0.076
-681.251	800.000	0.080	0.300
-680.237	38.316	-0.235	0.211
-679.222	302.886	0.153	0.285
-678.208	-90.860	-0.193	0.056
-677.193	800.000	-0.092	0.257
-676.178	800.000	-0.044	-0.193
-675.164	391.109	0.078	-0.163
-674.149	298.626	-0.059	-0.109
-673.135	150.056	-0.114	0.156
-672.120	-9.733	-0.051	0.034
-671.105	147.138	0.032	0.043
-670.091	-200.000	0.026	-0.172
-669.076	-26.338	0.100	0.059
-668.062	-112.785	0.107	0.021
-667.047	145.061	0.220	0.296
-666.032	143.270	-0.251	-0.337
-665.018	-104.883	0.473	0.109
-664.003	-73.193	0.280	-0.103
-662.989	340.886	0.084	-0.165
-661.974	-140.131	0.186	-0.020
-660.959	-139.299	0.211	0.023
-659.945	-137.657	0.361	0.041
-658.930	15.051	0.224	-0.176
-657.916	-103.125	-0.366	0.087
-656.901	-80.510	0.132	-0.044
-655.886	21.074	-0.414	0.338
-654.872	285.078	-0.074	-0.134
-653.857	-131.227	-0.282	0.038
-652.843	-157.820	-0.179	0.011
-651.828	267.218	-0.083	0.147
-650.814	-65.921	0.411	-0.165
-649.799	203.993	0.038	0.059
-648.784	-137.783	0.343	0.039
-647.770	587.827	-0.036	-0.088
-646.755	219.352	0.202	-0.325
-645.741	298.492	-0.164	-0.304
-644.726	237.563	-0.142	-0.236
-643.711	-78.107	0.187	0.065
-642.697	-88.804	0.503	0.150
-641.682	-200.000	0.023	0.150
-640.668	-60.008	-0.167	0.072
-639.653	-200.000	-0.028	-0.189
-638.638	-200.000	0.091	0.469
-637.624	-200.000	0.018	0.158
-636.609	409.256	0.091	-0.194
-635.595	-128.769	-0.202	-0.029
-634.580	10.637	-0.049	-0.038
-633.565	50.681	-0.147	-0.140
-632.551	-19.652	0.277	-0.172
-631.536	-27.002	0.253	0.148
-630.522	134.929	-0.088	-0.115
-629.507	386.557	0.153	-0.318
-628.492	-128.345	0.110	-0.016
-627.478	-72.526	-0.360	-0.134
-626.463	800.000	0.011	-0.042
-625.449	-113.373	0.125	-0.025
-624.434	-80.821	0.136	0.045
-623.419	-162.579	-0.347	0.017
-622.405	445.744	-0.014	-0.030
-621.390	800.000	-0.024	-0.103
-620.376	800.000	-0.032	-0.091
-619.361	-200.000	0.027	-0.160
-618.346	145.383	0.106	0.143
-617.332	110.693	-0.043	-0.052
-616.317	-200.000	-0.003	0.015
-615.303	-128.154	-0.319	0.046
-614.288	-56.336	0.260	-0.116
-613.273	-22.024	-0.127	0.078
-612.259	-6.444	-0.146	0.100
-611.244	-57.046	-0.215	-0.095
-610.230	-139.141	0.157	0.017
-609.215	142.346	0.023	0.031
-608.201	-51.878	0.153	-0.071
-607.186	-200.000	-0.012	-0.122
-606.171	-18.325	-0.023	0.015
-605.157	-200.000	-0.001	-0.025
-604.142	-97.910	-0.194	-0.050
-603.128	-23.324	0.106	-0.064
-602.113	-200.000	0.011	0.121
-601.098	-116.056	0.254	0.047
-600.084	27.615	-0.095	0.080
-599.069	29.312	0.220	0.187
-598.055	-110.602	-0.600	0.125
-597.040	166.898	0.130	-0.185
-596.025	-111.700	0.343	0.070
-595.011	69.890	-0.160	-0.166
-593.996	157.813	0.161	-0.224
-592.982	-61.459	-0.333	-0.140
-591.967	-50.976	-0.481	-0.227
-590.952	-91.475	-0.133	-0.038
-589.938	72.661	0.102	-0.106
-588.923	-53.554	0.124	-0.057
-587.909	288.788	0.015	0.027
-586.894	47.633	0.178	-0.167
-585.879	800.000	0.066	-0.203
-584.865	-2.485	-0.226	0.159
-583.850	-104.947	-0.177	-0.041
-582.836	-13.270	0.212	0.138
-581.821	158.233	0.101	-0.141
-580.806	229.244	0.014	0.023
-579.792	72.962	0.134	-0.140
-578.777	-200.000	0.065	0.296
-577.763	76.737	-0.172	-0.183
-576.748	-200.000	0.001	-0.134
-575.733	362.184	0.088	-0.177
-574.719	606.042	-0.074	-0.185
-573.704	0.640	-0.314	0.225
-572.690	129.100	0.105	0.134
-571.675	-54.294	-0.352	0.160
-570.661	219.939	0.134	0.214
-569.646	12.400	-0.138	0.107
-568.631	135.962	0.073	-0.096
-567.617	800.000	-0.058	0.228
-566.602	-200.000	-0.044	-0.250
-565.588	-66.703	-0.143	0.057
-564.573	-200.000	0.013	-0.072
-563.558	-89.199	-0.101	0.030
-562.544	202.501	-0.072	-0.111
-561.529	248.094	0.109	-0.185
-560.515	800.000	-0.136	0.398
-559.500	105.370	-0.196	-0.233
-558.485	308.501	-0.095	-0.178
-557.471	59.121	-0.022	0.022
-556.456	-137.123	0.231	-0.026
-555.442	-116.432	0.068	-0.013
-554.427	56.372	0.162	0.158
-553.412	-200.000	-0.000	0.218
-552.398	137.504	-0.061	-0.080
-551.383	-89.201	-0.121	0.036
-550.369	31.012	0.118	0.102
-549.354	800.000	0.073	-0.241
-548.339	-200.000	-0.038	-0.234
-547.325	429.741	0.122	-0.265
-546.310	-108.879	0.337	0.072
-545.296	226.206	0.102	0.165
-544.281	121.307	-0.083	0.104
-543.266	-138.782	0.183	-0.020
-542.252	31.013	0.159	0.136
-541.237	162.665	-0.064	-0.090
-540.223	144.064	-0.213	0.285
-539.208	437.988	-0.175	0.383
-538.193	-132.267	-0.175	0.023
-537.179	-119.141	0.173	-0.030
-536.164	-200.000	0.038	-0.198
-535.150	278.641	-0.056	0.101
-534.135	-89.500	-0.097	0.028
-533.121	222.779	-0.028	0.044
-532.106	-200.000	-0.028	-0.366
-531.091	76.653	0.224	-0.238
-530.077	757.656	-0.107	0.291
-529.062	800.000	0.050	-0.177
-528.048	-200.000	0.060	0.343
-527.033	175.242	-0.046	0.067
-526.018	-48.699	-0.486	-0.234
-525.004	156.053	-0.297	-0.410
-523.989	800.000	0.052	0.169
-522.975	140.833	-0.225	0.298
-521.960	-147.808	0.154	0.013
-520.945	224.463	-0.065	-0.106
-519.931	92.315	0.329	-0.371
-518.916	-145.286	0.165	0.015
-517.902	579.381	-0.081	-0.199
-516.887	35.725	0.056	-0.050
-515.872	-11.241	-0.145	0.095
-514.858	19.766	-0.331	-0.267
-513.843	15.668	0.221	-0.174
-512.829	27.234	0.059	0.049
-511.814	100.787	-0.200	-0.233
-510.799	800.000	-0.018	0.061
-509.785	800.000	-0.042	0.156
-508.770	130.427	-0.110	-0.141
-507.756	-151.732	0.106	0.008
-506.741	-27.242	-0.131	0.076
-505.726	800.000	0.079	0.240
-504.712	17.564	0.124	-0.099
-503.697	-121.432	0.239	-0.040
-502.683	182.102	0.101	-0.149
-501.668	-141.708	-0.466	0.047
-500.653	222.636	-0.040	0.065
-499.639	-143.003	-0.354	0.034
-498.624	-200.000	-0.036	0.227
-497.610	146.046	-0.193	-0.259
-496.595	800.000	-0.016	-0.055
-495.581	-2.338	-0.334	-0.234
-494.566	800.000	-0.040	0.125
-493.551	123.973	-0.300	0.377
-492.537	344.447	0.189	-0.371
-491.522	254.545	-0.124	-0.212
-490.508	800.000	-0.042	-0.131
-489.493	-34.242	-0.228	0.125
-488.478	800.000	0.034	-0.141
-487.464	83.734	0.253	-0.276
-486.449	800.000	-0.086	0.323
-485.435	-31.748	-0.032	-0.018
-484.420	-47.260	-0.090	0.044
-483.405	-200.000	-0.011	-0.227
-482.391	-17.255	0.403	0.254
-481.376	398.668	-0.181	0.379
-480.362	800.000	-0.099	0.305
-479.347	800.000	-0.131	0.393
-478.332	-54.640	-0.295	0.133
-477.318	-67.735	0.211	0.083
-476.303	-170.215	0.134	0.005
-475.289	792.585	-0.131	0.360
-474.274	-161.857	0.447	0.023
-473.259	-112.150	-0.213	0.043
-472.245	-6.159	0.228	0.156
-471.230	108.499	-0.138	0.165
-470.216	448.253	0.091	0.199
-469.201	800.000	0.057	-0.209
-468.186	36.901	-0.215	-0.190
-467.172	800.000	-0.027	0.089
-466.157	-139.703	0.099	-0.011
-465.143	-200.000	-0.021	0.149
-464.128	800.000	-0.064	0.233
-463.113	364.788	-0.133	0.267
-462.099	-106.253	0.274	-0.061
-461.084	-54.071	-0.217	-0.098
-460.070	800.000	0.066	-0.289
-459.055	-89.919	0.023	-0.007
-458.040	800.000	-0.065	0.226
-457.026	-200.000	0.000	0.019
-456.011	126.797	0.133	-0.169
-454.997	166.270	0.079	-0.111
-453.982	44.978	0.323	0.296
-452.968	-200.000	-0.002	-0.318
-451.953	68.475	-0.214	-0.219
-450.938	800.000	-0.057	-0.227
-449.924	698.020	-0.072	-0.189
-448.909	-200.000	0.007	0.104
-447.895	-200.000	0.029	-0.148
-446.880	-200.000	-0.045	-0.351
-445.865	9.352	-0.148	0.112
-444.851	-20.197	0.078	-0.048
-443.836	-94.022	0.079	-0.022
-442.822	265.962	0.168	0.292
-441.807	-200.000	0.020	-0.259
-440.792	-29.902	0.217	-0.124
-439.778	-94.200	-0.115	0.031
-438.763	-200.000	-0.071	0.431
-437.749	-200.000	-0.049	-0.362
-436.734	800.000	0.083	0.241
-435.719	91.797	-0.267	-0.299
-434.705	-103.259	0.246	0.058
-433.690	-40.512	-0.228	-0.118
-432.676	-40.536	-0.173	-0.090
-431.661	18.238	0.166	0.132
-430.646	-76.309	-0.117	-0.041
-429.632	800.000	0.044	0.181
-428.617	68.645	-0.121	-0.124
-427.603	280.451	-0.177	0.316
-426.588	-146.080	-0.192	0.017
-425.573	64.961	-0.155	0.156
-424.559	165.587	0.132	-0.186
-423.544	1.141	-0.220	0.157
-422.530	222.629	-0.060	0.097
-421.515	42.335	0.123	0.112
-420.500	-200.000	-0.001	-0.088
-419.486	128.017	-0.141	0.179
-418.471	-35.259	0.013	-0.007
-417.457	-22.908	-0.235	0.141
-416.442	-137.567	0.227	-0.026
-415.428	-75.814	0.110	-0.039
-414.413	-14.117	-0.239	-0.154
-413.398	204.105	0.156	0.241
-412.384	-128.155	0.291	-0.041
-411.369	382.721	-0.019	-0.039
-410.355	-47.520	-0.116	-0.056
-409.340	30.579	-0.229	-0.195
-408.325	-121.482	0.199	-0.033
-407.311	91.791	-0.047	-0.053
-406.296	54.006	0.221	-0.211
-405.282	800.000	0.021	0.062
-404.267	-48.526	-0.339	0.162
-403.252	24.013	-0.039	0.032
-402.238	-200.000	-0.030	0.278
-401.223	-130.058	-0.203	-0.028
-400.209	43.053	0.326	0.297
-399.194	800.000	0.066	0.203
-398.179	119.216	0.138	0.170
-397.165	106.737	0.148	0.175
-396.150	179.835	0.079	0.115
-395.136	-152.476	-0.247	0.018
-394.121	-65.499	-0.135	0.054
-393.106	632.391	0.146	-0.369
-392.092	62.447	0.054	-0.054
-391.077	-14.542	-0.087	0.055
-390.063	-56.194	0.128	-0.057
-389.048	-200.000	0.036	0.314
-388.033	-6.009	-0.257	-0.175
-387.019	-85.998	0.213	-0.066
-386.004	25.944	-0.094	0.078
-384.990	800.000	0.116	-0.331
-383.975	-13.580	0.011	-0.007
-382.960	-109.076	-0.122	-0.026
-381.946	800.000	0.075	0.290
-380.931	382.233	0.108	0.221
-379.917	714.416	-0.107	-0.282
-378.902	126.739	0.210	-0.264
-377.888	164.029	-0.155	0.217
-376.873	-177.862	-0.187	-0.004
-375.858	-17.616	-0.168	-0.105
-374.844	45.296	0.178	-0.163
-373.829	-132.201	-0.197	0.025
-372.815	420.942	0.089	-0.189
-371.800	62.116	0.357	-0.354
-370.785	478.857	-0.129	-0.290
-369.771	316.557	0.085	-0.159
-368.756	-129.735	0.176	0.024
-367.742	537.890	0.099	-0.234
-366.727	77.343	-0.216	-0.229
-365.712	-91.909	-0.362	0.102
-364.698	-200.000	-0.012	0.530
-363.683	169.000	0.147	-0.208
-362.669	323.637	-0.057	-0.109
-361.654	364.990	0.151	0.302
-360.639	304.403	-0.016	0.030
-359.625	714.101	0.071	-0.187
-358.610	11.566	0.153	0.117
-357.596	-154.066	-0.253	-0.017
-356.581	-200.000	-0.002	-0.159
-355.566	800.000	-0.035	-0.144
-354.552	-158.456	-0.155	-0.009
-353.537	800.000	0.033	-0.106
-352.523	-200.000	0.026	0.146
-351.508	-50.589	0.277	-0.130
-350.493	-64.814	-0.365	0.147
-349.479	800.000	-0.056	0.191
-348.464	-13.182	0.199	-0.128
-347.450	191.363	-0.203	0.304
-346.435	800.000	0.095	0.273
-345.420	-73.148	0.376	0.137
-344.406	59.627	0.039	0.038
-343.391	262.247	-0.136	0.235
-342.377	398.656	0.089	-0.185
-341.362	-200.000	-0.055	0.310
-340.348	800.000	0.059	0.234
-339.333	-200.000	-0.014	0.076
-338.318	-71.727	0.221	-0.082
-337.304	582.031	0.130	-0.316
-336.289	-105.426	-0.142	-0.032
-335.275	48.542	-0.109	0.101
-334.260	800.000	0.066	0.236
-333.245	134.137	-0.164	-0.211
-332.231	16.849	-0.142	-0.112
-331.216	14.156	-0.091	-0.071
-330.202	264.905	0.149	-0.259
-329.187	800.000	0.034	0.143
-328.172	-40.066	0.394	0.204
-327.158	42.124	0.170	-0.154
-326.143	-92.305	0.170	-0.047
-325.129	190.218	-0.272	-0.406
-324.114	62.212	0.141	-0.140
-323.099	126.745	-0.156	0.196
-322.085	55.414	-0.125	0.120
-321.070	-200.000	0.009	0.073
-320.056	57.419	-0.170	0.165
-319.041	139.463	-0.058	0.076
-318.026	-32.311	0.403	-0.223
-317.012	170.294	0.067	-0.095
-315.997	589.207	0.021	-0.050
-314.983	9.472	-0.271	0.204
-313.968	118.555	-0.258	0.316
-312.953	-105.523	0.399	-0.090
-311.939	133.204	0.089	0.114
-310.924	102.771	0.148	-0.172
-309.910	-200.000	0.007	0.055
-308.895	-173.991	-0.301	-0.009
-307.880	-10.742	-0.123	0.081
-306.866	-154.169	-0.083	0.006
-305.851	87.968	-0.272	0.300
-304.837	-181.256	0.285	0.006
-303.822	156.544	-0.181	-0.248
-302.807	-200.000	-0.331	-0.000
-301.793	-31.666	-0.220	0.123
-300.778	800.000	0.016	0.049
-299.764	40.390	0.226	0.202
-298.749	10.434	0.164	0.124
-297.735	280.166	-0.105	0.186
-296.720	-111.321	-0.034	-0.007
-295.705	271.594	-0.198	-0.346
-294.691	-106.420	0.224	-0.050
-293.676	-64.740	-0.183	-0.074
-292.662	-200.000	0.175	0.000
-291.647	800.000	-0.077	-0.216
-290.632	-70.226	0.096	0.036
-289.618	601.629	-0.037	0.091
-288.603	-92.236	0.130	-0.036
-287.589	-115.692	0.439	0.082
-286.574	800.000	0.102	0.299
-285.559	-86.613	-0.304	-0.092
-284.545	800.000	-0.071	-0.203
-283.530	-188.647	0.107	0.001
-282.516	-180.944	0.262	-0.005
-281.501	-200.000	0.024	-0.164
-280.486	-32.840	0.074	0.041
-279.472	-134.984	-0.317	0.038
-278.457	-200.000	0.058	-0.293
-277.443	800.000	0.021	-0.070
-276.428	-83.432	0.073	0.023
-275.413	-197.754	0.342	0.002
-274.399	-200.000	-0.021	0.096
-273.384	800.000	0.031	0.087
-272.370	142.605	0.101	0.134
-271.355	169.480	-0.230	-0.325
-270.340	92.026	-0.053	0.059
-269.326	680.455	-0.052	-0.135
-268.311	-26.989	-0.335	-0.193
-267.297	-103.159	0.247	0.058
-266.282	79.261	0.105	-0.112
-265.267	136.905	-0.256	-0.332
-264.253	-200.000	0.008	0.178
-263.238	-86.630	0.040	0.012
-262.224	291.096	0.223	-0.402
-261.209	-200.000	-0.063	0.287
-260.195	-38.373	0.086	-0.045
-259.180	144.847	0.104	-0.137
-258.165	546.278	0.158	-0.374
-257.151	456.945	0.106	-0.233
-256.136	-116.295	-0.016	-0.003
-255.122	-180.537	0.422	-0.009
-254.107	465.489	0.151	0.335
-253.092	-102.269	0.117	0.028
-252.078	-143.391	-0.283	0.027
-251.063	50.160	-0.141	-0.131
-250.049	-87.071	0.181	0.055
-249.034	-8.206	-0.166	0.111
-248.019	800.000	0.009	-0.033
-247.005	-200.000	0.055	0.345
-245.990	450.787	0.072	-0.157
-244.976	-112.524	0.521	-0.103
-243.961	-66.033	0.362	-0.143
-242.946	405.426	-0.070	0.145
-241.932	13.261	0.158	0.121
-240.917	-45.485	-0.236	-0.116
-239.903	-42.254	0.121	0.061
-238.888	-200.000	-0.038	-0.232
-237.873	360.521	0.072	0.142
-236.859	-123.491	0.156	-0.024
-235.844	0.224	-0.316	-0.223
-234.830	-163.426	0.094	0.004
-233.815	490.725	-0.061	0.139
-232.800	285.796	0.073	0.130
-231.786	800.000	0.024	-0.089
-230.771	286.358	0.073	-0.131
-229.757	78.385	0.032	0.034
-228.742	-200.000	-0.069	0.336
-227.727	174.592	0.013	0.018
-226.713	-200.000	0.029	-0.127
-225.698	341.356	0.115	0.221
-224.684	-33.511	-0.134	0.073
-223.669	127.370	0.105	0.131
-222.655	800.000	-0.026	0.081
-221.640	-200.000	0.071	0.438
-220.625	83.987	-0.059	0.064
-219.611	-200.000	-0.015	0.066
-218.596	69.449	0.225	-0.229
-217.582	224.047	-0.100	0.160
-216.567	-43.237	0.110	0.055
-215.552	-200.000	-0.050	-0.296
-214.538	467.772	-0.242	0.536
-213.523	-200.000	0.006	0.049
-212.509	-63.044	0.067	-0.027
-211.494	800.000	0.090	-0.297
-210.479	40.728	0.044	0.039
-209.465	-200.000	-0.012	0.081
-208.450	270.280	0.115	0.200
-207.436	575.473	0.111	0.267
-206.421	-200.000	0.006	-0.056
-205.406	-59.448	-0.059	-0.025
-204.392	-200.000	0.018	-0.095
-203.377	155.977	0.175	-0.238
-202.363	-40.686	0.026	-0.013
-201.348	-25.290	0.217	0.127
-200.333	-51.511	-0.263	-0.121
-199.319	-200.000	0.027	0.212
-198.304	800.000	-0.052	-0.166
-197.290	-34.563	0.165	-0.089
-196.275	654.006	0.100	0.252
-195.260	501.796	0.061	-0.139
-194.246	-140.291	-0.136	0.014
-193.231	348.390	0.085	0.166
-192.217	800.000	0.054	-0.214
-191.202	-200.000	0.027	0.158
-190.187	430.370	0.087	-0.187
-189.173	-33.588	0.190	-0.104
-188.158	-200.000	-0.001	-0.041
-187.144	44.309	0.220	0.199
-186.129	281.519	-0.181	-0.319
-185.114	-97.900	-0.278	0.071
-184.100	-117.024	0.310	0.056
-183.085	-178.764	-0.173	-0.004
-182.071	-73.295	-0.362	0.131
-181.056	452.363	0.046	0.101
-180.042	270.450	-0.114	-0.198
-179.027	181.439	0.173	-0.251
-178.012	-114.407	-0.103	-0.020
-176.998	-52.401	-0.100	-0.046
-175.983	65.234	0.164	0.164
-174.969	-153.089	0.266	-0.018
-173.954	43.488	-0.255	0.230
-172.939	9.435	0.099	-0.074
-171.925	34.727	-0.203	0.176
-170.910	800.000	-0.062	0.237
-169.896	-29.356	0.307	-0.173
-168.881	-61.555	-0.345	-0.143
-167.866	4.864	0.089	0.065
-166.852	-200.000	0.066	0.342
-165.837	217.868	0.086	0.135
-164.823	-41.853	-0.072	0.037
-163.808	51.876	-0.047	0.044
-162.793	167.425	0.036	0.050
-161.779	29.233	0.165	0.138
-160.764	68.228	0.177	0.179
-159.750	-118.687	-0.230	0.040
-158.735	17.739	-0.229	-0.180
-157.720	-200.000	0.038	0.193
-156.706	-150.608	-0.245	-0.018
-155.691	-200.000	-0.014	0.126
-154.677	800.000	-0.026	-0.107
-153.662	-55.141	-0.274	0.122
-152.647	-82.323	0.180	-0.058
-151.633	-192.997	0.203	-0.002
-150.618	-47.539	0.551	-0.264
-149.604	-23.090	0.136	0.081
-148.589	-162.816	-0.331	-0.016
-147.574	800.000	-0.084	0.241
-146.560	-42.366	-0.210	-0.106
-145.545	642.899	0.023	-0.057
-144.531	-23.172	-0.142	-0.084
-143.516	-20.065	-0.175	0.106
-142.502	23.706	-0.298	0.242
-141.487	510.379	-0.092	-0.210
-140.472	800.000	0.069	0.199
-139.458	-16.847	0.089	-0.056
-138.443	-200.000	-0.025	-0.229
-137.429	479.103	0.093	-0.208
-136.414	-163.527	-0.191	-0.009
-135.399	20.042	0.178	0.141
-134.385	-76.112	0.487	-0.170
-133.370	148.039	0.156	-0.208
-132.356	13.518	0.124	-0.095
-131.341	-200.000	0.064	0.499
-130.326	-47.639	0.231	0.110
-129.312	-77.530	0.206	0.070
-128.297	-200.000	0.032	0.226
-127.283	43.063	0.123	-0.111
-126.268	100.236	0.137	0.157
-125.253	-42.622	0.176	0.088
-124.239	150.738	-0.075	-0.101
-123.224	-52.804	-0.239	0.109
-122.210	-159.270	-0.202	-0.011
-121.195	-117.870	-0.177	-0.031
-120.180	-27.414	0.211	-0.121
-119.166	661.208	0.116	0.294
-118.151	-173.241	0.347	-0.010
-117.137	-200.000	0.016	0.161
-116.122	-200.000	0.004	0.039
-115.107	-143.996	0.168	-0.016
-114.093	-200.000	-0.006	0.099
-113.078	-67.810	0.349	0.134
-112.064	591.972	0.031	0.074
-111.049	-116.172	-0.234	-0.043
-110.034	-139.557	-0.163	-0.017
-109.020	297.602	-0.084	0.153
-108.005	-104.769	0.366	-0.083
-106.991	229.481	0.242	0.389
-105.976	-16.122	0.102	0.064
-104.962	180.974	0.246	0.356
-103.947	48.173	-0.191	0.175
-102.932	-82.747	0.065	-0.021
-101.918	304.818	-0.119	0.218
-100.903	-200.000	-0.013	-0.327
-99.889	-101.819	-0.263	0.063
-98.874	81.779	0.154	-0.164
-97.859	-96.622	0.087	-0.022
-96.845	-109.861	0.202	0.042
-95.830	380.240	-0.165	0.332
-94.816	-200.000	0.035	-0.309
-93.801	281.170	0.181	0.320
-92.786	-61.877	-0.301	0.124
-91.772	-200.000	0.010	0.325
-90.757	8.739	0.140	-0.104
-89.743	-59.927	0.230	-0.097
-88.728	-200.000	-0.067	-0.294
-87.713	-200.000	0.012	-0.190
-86.699	403.770	0.129	0.268
-85.684	-200.000	0.013	-0.201
-84.670	-200.000	-0.240	-0.001
-83.655	-148.940	0.274	0.022
-82.640	347.701	0.088	-0.171
-81.626	359.490	-0.083	0.163
-80.611	93.561	-0.167	-0.186
-79.597	392.713	0.135	0.275
-78.582	-156.295	0.246	-0.015
-77.567	224.613	0.149	0.236
-76.553	-200.000	0.001	0.479
-75.538	-78.291	0.158	-0.053
-74.524	-33.357	0.197	0.107
-73.509	64.204	-0.048	-0.047
-72.494	124.457	0.146	-0.181
-71.480	19.357	-0.095	-0.075
-70.465	-149.456	-0.262	0.020
-69.451	800.000	0.079	-0.272
-68.436	800.000	-0.045	0.125
-67.422	757.310	0.126	0.336
-66.407	-200.000	-0.006	-0.078
-65.392	132.541	-0.180	0.228
-64.378	104.512	-0.154	-0.178
-63.363	-109.306	0.103	-0.022
-62.349	-200.000	0.016	0.104
-61.334	4.318	-0.949	-0.684
-60.319	48.420	0.443	0.407
-59.305	263.594	-0.575	-0.981
-58.290	89.216	0.869	0.951
-57.276	498.896	0.740	1.674
-56.261	-200.000	102.385	572.657
-55.246	484.113	1428.969	3194.397
-54.232	154.337	2604.521	3511.882
-53.217	108.470	2162.536	2536.105
-52.203	41.267	1694.657	1505.108
-51.188	33.887	1505.589	1287.366
-50.173	31.449	1478.531	1247.929
-49.159	51.218	1531.443	1427.455
-48.144	52.682	1548.905	1453.631
-47.130	34.105	1506.494	1289.411
-46.115	30.984	1491.622	1255.646
-45.100	30.882	1488.268	1252.090
-44.086	30.834	1485.913	1249.734
-43.071	30.775	1484.365	1247.986
-42.057	30.716	1482.510	1245.982
-41.042	30.654	1481.301	1244.504
-40.027	30.709	1479.810	1243.571
-39.013	30.626	1478.430	1241.805
-37.998	30.655	1477.080	1240.818
-36.984	30.744	1475.532	1240.058
-35.969	30.754	1474.187	1238.946
-34.954	30.798	1472.712	1237.953
-33.940	30.650	1472.358	1236.623
-32.925	30.749	1470.438	1235.613
-31.911	30.771	1469.269	1234.728
-30.896	30.791	1468.056	1233.794
-29.881	30.876	1466.263	1232.801
-28.867	30.877	1465.010	1231.704
-27.852	30.855	1463.726	1230.431
-26.838	30.823	1462.350	1229.015
-25.823	30.853	1461.204	1228.198
-24.809	30.844	1459.036	1226.269
-23.794	30.841	1457.973	1225.311
-22.779	30.767	1457.229	1224.147
-21.765	30.809	1455.786	1223.162
-20.750	30.839	1454.646	1222.351
-19.736	30.771	1453.369	1220.783
-18.721	30.731	1452.628	1219.855
-17.706	30.812	1451.293	1219.217
-16.692	30.751	1450.195	1217.845
-15.677	30.702	1449.102	1216.558
-14.663	30.726	1448.316	1216.003
-13.648	30.791	1447.092	1215.353
-12.633	30.821	1446.324	1214.857
-11.619	30.831	1445.386	1214.086
-10.604	30.758	1444.764	1213.039
-9.590	30.749	1443.776	1212.102
-8.575	30.771	1443.125	1211.655
-7.560	30.712	1442.180	1210.429
-6.546	30.691	1441.550	1209.716
-5.531	30.735	1440.532	1209.099
-4.517	30.710	1439.645	1208.145
-3.502	30.719	1438.452	1207.155
-2.487	30.763	1437.857	1206.890
-1.473	30.718	1436.256	1205.204
-0.458	30.681	1435.306	1204.125
0.556	28.884	1425.126	1192.606
1.571	25.656	1400.529	1151.305
2.586	22.002	1341.305	1080.086
3.600	20.316	1260.164	1004.905
4.615	19.116	1214.998	962.099
5.629	16.411	1159.126	903.333
6.644	8.319	1074.586	797.118
7.659	1.331	1033.915	733.222
8.673	0.367	1028.183	724.461
9.688	0.050	1025.260	720.820
10.702	-0.071	1024.149	719.394
11.717	-0.025	1022.384	718.314
12.731	2.657	1024.407	732.497
13.746	11.064	1035.230	780.629
14.761	17.079	1042.778	815.220
15.775	17.439	1042.506	816.663
16.790	16.563	1040.136	810.539
17.804	15.478	1038.088	803.683
18.819	14.499	1036.354	797.589
19.834	14.133	1034.914	794.661
20.848	13.848	1034.010	792.537
21.863	13.558	1033.330	790.559
22.877	13.346	1032.638	788.951
23.892	13.100	1031.702	786.990
24.907	13.083	1031.042	786.341
25.921	13.128	1030.006	785.692
26.936	13.165	1029.333	785.287
27.950	13.127	1028.861	784.675
28.965	13.228	1027.660	784.170
29.980	13.301	1026.963	783.913
30.994	13.280	1026.247	783.200
32.009	13.367	1025.548	783.009
33.023	13.464	1024.941	782.932
34.038	13.436	1023.834	781.886
35.053	13.353	1022.950	780.750
36.067	13.301	1022.148	779.825
37.082	13.227	1021.463	778.882
38.096	13.372	1021.022	779.162
39.111	13.484	1019.890	778.758
40.126	13.402	1019.233	777.798
41.140	13.291	1018.375	776.557
42.155	13.205	1017.093	775.106
43.169	13.113	1016.481	774.140
44.184	13.169	1015.218	773.373
45.199	13.037	1014.467	772.114
46.213	13.082	1013.495	771.516
47.228	13.142	1012.338	770.845
48.242	13.120	1011.649	770.152
49.257	13.202	1010.493	769.587
50.271	13.264	1009.872	769.331
51.286	13.122	1009.017	767.953
52.301	13.350	1007.555	767.830
53.315	13.193	1007.124	766.706
54.330	13.219	1006.158	766.022
55.344	13.105	1005.624	765.022
56.359	13.124	1004.741	764.368
57.374	13.238	1003.544	763.919
58.388	13.111	1002.756	762.661
59.403	13.136	1002.113	762.221
60.417	13.037	1001.812	761.471
61.432	13.160	1000.566	761.021
62.447	13.025	999.965	759.877
63.461	13.064	999.118	759.344
64.476	13.009	998.223	758.343
65.490	13.105	997.384	758.081
66.505	13.138	996.729	757.669
67.520	13.163	995.657	756.901
68.534	13.134	994.746	756.008
69.549	13.108	994.306	755.487
70.563	13.005	993.793	754.559
71.578	12.997	993.190	753.996
72.593	12.979	992.298	753.172
73.607	12.884	991.053	751.728
74.622	12.886	990.349	751.135
75.636	13.099	988.957	750.984
76.651	12.986	988.451	750.017
77.666	13.033	987.868	749.721
78.680	13.060	986.838	748.999
79.695	12.951	986.652	748.296
80.709	13.105	985.868	748.333
81.724	13.082	985.142	747.611
82.739	13.036	984.703	747.003
83.753	13.188	983.795	746.937
84.768	13.265	982.839	746.490
85.782	13.262	982.629	746.251
86.797	13.409	981.439	745.946
87.812	13.377	980.654	745.139
88.826	13.168	980.241	743.819
89.841	13.272	979.124	743.372
90.855	13.232	978.406	742.582
91.870	13.303	978.139	742.634
92.884	13.360	976.920	741.897
93.899	13.303	976.151	740.991
94.914	13.321	975.404	740.440
95.928	13.477	974.633	740.487
96.943	13.423	974.076	739.759
97.957	13.356	973.570	739.006
98.972	13.400	972.338	738.205
99.987	13.344	971.664	737.377
101.001	13.383	971.096	737.052
102.016	13.216	970.242	735.596
103.030	13.300	969.586	735.408
104.045	13.325	968.412	734.567
105.060	13.375	967.573	734.086
106.074	13.315	966.310	732.795
107.089	13.302	965.679	732.193
108.103	13.166	964.767	730.838
109.118	13.244	963.951	730.498
110.133	13.115	963.074	729.201
111.147	13.058	962.323	728.317
112.162	13.211	960.858	727.815
113.176	13.226	960.389	727.461
114.191	13.269	959.542	726.944
115.206	13.240	958.737	726.145
116.220	13.306	957.963	725.783
117.235	13.190	957.295	724.706
118.249	13.112	956.836	723.951
119.264	13.264	955.496	723.537
120.279	13.185	954.982	722.738
121.293	13.230	953.966	722.105
122.308	13.148	953.293	721.171
123.322	13.205	952.741	720.940
124.337	13.188	951.222	719.652
125.352	13.192	950.183	718.820
126.366	13.232	949.260	718.234
127.381	13.175	948.220	717.136
128.395	13.173	947.268	716.340
129.410	13.268	946.228	715.905
130.424	13.138	945.859	714.998
131.439	13.110	944.829	714.034
132.454	13.099	944.051	713.335
133.468	13.167	943.596	713.223
134.483	13.265	942.598	712.828
135.497	13.180	941.822	711.811
136.512	13.338	940.780	711.641
137.527	13.119	940.735	710.602
138.541	13.216	939.653	710.139
139.556	13.181	938.993	709.427
140.570	13.175	938.577	709.024
141.585	13.355	937.313	708.777
142.600	13.406	936.854	708.589
143.614	13.393	936.051	707.860
144.629	13.349	935.237	706.995
145.643	13.414	934.452	706.615
146.658	13.378	934.187	706.202
147.673	13.435	932.997	705.481
148.687	13.329	932.125	704.307
149.702	13.320	931.069	703.409
150.716	13.294	930.192	702.574
151.731	13.240	929.776	701.969
152.746	13.143	929.039	700.940
153.760	13.339	927.857	700.815
154.775	13.433	927.175	700.637
155.789	13.291	926.450	699.426
156.804	13.388	925.795	699.278
157.819	13.380	925.268	698.786
158.833	13.539	924.071	698.488
159.848	13.514	923.671	698.020
160.862	13.643	923.050	698.031
161.877	13.638	922.107	697.238
162.892	13.600	921.551	696.597
163.906	13.395	920.803	695.106
164.921	13.414	919.576	694.201
165.935	13.346	918.929	693.364
166.950	13.396	917.871	692.715
167.964	13.592	916.454	692.404
168.979	13.528	915.534	691.380
169.994	13.556	914.474	690.633
171.008	13.508	914.134	690.115
172.023	13.527	913.354	689.546
173.037	13.518	912.713	688.965
174.052	13.700	911.711	688.900
175.067	13.543	911.274	687.857
176.081	13.435	910.333	686.639
177.096	13.544	909.470	686.379
178.110	13.484	908.989	685.709
179.125	13.561	907.977	685.201
180.140	13.412	907.647	684.277
181.154	13.609	906.858	684.436
182.169	13.693	906.064	684.120
183.183	13.563	905.659	683.220
184.198	13.693	904.378	682.725
185.213	13.742	903.826	682.453
186.227	13.750	903.492	682.170
187.242	13.693	903.280	681.718
188.256	13.661	902.408	680.867
189.271	13.752	901.818	680.736
190.286	13.800	900.821	680.118
191.300	13.792	899.713	679.188
192.315	13.511	899.421	677.758
193.329	13.452	898.872	677.046
194.344	13.621	898.167	677.145
195.359	13.531	897.635	676.313
196.373	13.732	896.983	676.586
197.388	13.781	896.080	676.042
198.402	13.913	895.707	676.238
199.417	13.951	895.612	676.263
200.432	13.946	894.855	675.609
201.446	14.016	894.358	675.460
202.461	14.053	893.918	675.220
203.475	13.970	893.676	674.639
204.490	13.950	893.149	674.101
205.504	14.117	891.657	673.590
206.519	13.962	891.454	672.749
207.534	13.894	890.524	671.712
208.548	13.946	889.773	671.296
209.563	14.033	888.786	670.844
210.577	13.930	888.512	670.163
211.592	14.018	887.807	669.927
212.607	13.973	887.726	669.627
213.621	14.053	887.127	669.435
214.636	14.138	886.206	669.024
215.650	14.076	885.513	668.195
216.665	14.131	884.623	667.682
217.680	14.309	884.251	668.057
218.694	14.176	884.136	667.377
219.709	14.270	883.720	667.383
220.723	14.295	882.863	666.777
221.738	14.208	882.073	665.773
222.753	14.112	881.466	664.872
223.767	14.184	880.695	664.518
224.782	14.231	879.791	663.964
225.796	14.220	879.360	663.536
226.811	14.197	878.624	662.833
227.826	14.446	877.900	663.216
228.840	14.395	877.428	662.600
229.855	14.371	876.190	661.512
230.869	14.306	875.908	660.981
231.884	14.274	875.441	660.445
232.899	14.231	874.609	659.588
233.913	14.404	873.640	659.480
234.928	14.291	873.123	658.587
235.942	14.189	872.627	657.749
236.957	14.237	872.055	657.451
237.972	14.310	871.097	656.960
238.986	14.183	871.310	656.561
240.001	14.271	870.121	655.952
241.015	14.411	869.320	655.842
242.030	14.314	868.640	654.890
243.045	14.515	867.883	655.050
244.059	14.335	867.795	654.219
245.074	14.411	867.236	654.038
246.088	14.356	866.560	653.257
247.103	14.521	865.522	653.059
248.117	14.513	865.098	652.651
249.132	14.620	864.550	652.599
250.147	14.746	864.128	652.716
251.161	14.801	863.196	652.169
252.176	14.612	862.808	651.081
253.190	14.778	862.264	651.260
254.205	14.742	861.744	650.669
255.220	14.975	860.885	650.869
256.234	14.969	859.982	650.106
257.249	14.779	860.181	649.461
258.263	14.840	859.407	649.055
259.278	14.900	858.671	648.673
260.293	14.909	858.177	648.280
261.307	14.846	857.550	647.503
262.322	15.048	857.100	647.889
263.336	15.005	856.434	647.160
264.351	14.968	855.908	646.561
265.366	15.028	855.345	646.312
266.380	15.057	854.567	645.780
267.395	14.990	854.310	645.269
268.409	15.103	853.224	644.828
269.424	15.179	852.431	644.464
270.439	15.029	852.117	643.591
271.453	15.016	851.352	642.908
272.468	15.044	850.346	642.199
273.482	15.034	849.686	641.606
274.497	15.058	849.228	641.294
275.512	14.954	848.609	640.373
276.526	15.002	848.197	640.188
277.541	15.010	847.624	639.730
278.555	15.043	847.082	639.390
279.570	15.232	846.140	639.345
280.585	15.205	845.816	638.941
281.599	15.310	844.714	638.449
282.614	15.323	844.572	638.337
283.628	15.100	844.067	637.048
284.643	15.229	843.190	636.822
285.657	15.304	842.575	636.585
286.672	15.286	842.197	636.177
287.687	15.222	841.898	635.648
288.701	15.270	841.391	635.393
289.716	15.181	840.687	634.468
290.730	15.252	840.241	634.342
291.745	15.294	839.803	634.114
292.760	15.282	839.166	633.532
293.774	15.364	838.168	633.034
294.789	15.385	837.865	632.827
295.803	15.315	837.449	632.192
296.818	15.521	836.214	631.982
297.833	15.282	836.016	630.875
298.847	15.450	835.136	630.788
299.862	15.425	834.859	630.429
300.876	15.475	834.055	629.954
301.891	15.400	833.423	629.139
302.906	15.570	832.766	629.225
303.920	15.620	831.993	628.772
304.935	15.601	831.175	628.025
305.949	15.672	830.839	627.985
306.964	15.725	830.367	627.768
307.979	15.663	829.893	627.121
308.993	15.722	829.104	626.690
310.008	15.614	828.812	626.011
311.022	15.758	828.162	626.003
312.037	15.661	827.807	625.318
313.052	15.641	827.409	624.887
314.066	15.640	826.606	624.222
315.081	15.581	826.012	623.499
316.095	15.603	825.265	622.961
317.110	15.666	825.039	622.970
318.125	15.493	824.802	622.096
319.139	15.667	823.768	621.902
320.154	15.762	823.176	621.753
321.168	15.673	822.837	621.114
322.183	15.729	822.670	621.139
323.197	15.732	821.756	620.405
324.212	15.830	821.200	620.292
325.227	15.840	821.093	620.194
326.241	15.772	820.409	619.369
327.256	15.761	819.746	618.775
328.270	15.696	819.023	617.937
329.285	15.789	818.121	617.542
330.300	15.797	817.865	617.322
331.314	15.740	817.476	616.766
332.329	15.891	816.350	616.414
333.343	15.734	815.824	615.387
334.358	15.921	815.467	615.747
335.373	15.819	815.026	614.989
336.387	15.862	814.459	614.662
337.402	16.006	813.739	614.592
338.416	16.043	813.344	614.372
339.431	16.042	813.037	614.082
340.446	16.236	812.127	614.046
341.460	15.979	811.713	612.746
342.475	16.161	811.013	612.824
343.489	16.099	810.508	612.162
344.504	16.093	810.071	611.758
345.519	16.191	809.790	611.846
346.533	16.080	809.333	611.043
347.548	16.051	809.209	610.790
348.562	16.291	808.180	610.828
349.577	16.185	807.318	609.739
350.592	16.166	807.017	609.390
351.606	16.083	806.680	608.784
352.621	16.243	806.054	608.834
353.635	16.378	805.469	608.823
354.650	16.284	805.265	608.276
355.665	16.146	805.225	607.695
356.679	16.157	804.808	607.368
357.694	16.431	803.829	607.560
358.708	16.540	803.291	607.489
359.723	16.130	803.247	605.930
360.738	16.223	802.740	605.829
361.752	16.414	802.086	605.966
362.767	16.375	801.677	605.465
363.781	16.265	801.416	604.820
364.796	16.407	800.999	604.957
365.810	16.456	800.306	604.558
366.825	16.552	799.938	604.569
367.840	16.555	799.597	604.269
368.854	16.579	799.060	603.894
369.869	16.615	798.255	603.361
370.883	16.524	798.136	602.895
371.898	16.513	797.465	602.296
372.913	16.545	797.105	602.083
373.927	16.552	796.517	601.609
374.942	16.578	795.776	601.091
375.956	16.547	795.079	600.401
376.971	16.813	794.218	600.640
377.986	16.585	794.240	599.795
379.000	16.741	793.498	599.736
380.015	16.845	792.702	599.449
381.029	16.826	792.600	599.252
382.044	16.848	791.706	598.600
383.059	16.874	791.161	598.225
384.073	16.864	790.816	597.878
385.088	16.820	790.468	597.407
386.102	16.991	789.679	597.359
387.117	16.872	789.026	596.392
388.132	16.753	788.956	595.868
389.146	16.703	788.856	595.565
390.161	16.845	788.159	595.486
391.175	16.920	787.773	595.405
392.190	16.863	787.511	594.954
393.205	16.880	786.821	594.439
394.219	16.904	786.310	594.084
395.234	16.803	786.111	593.528
396.248	16.702	785.849	592.925
397.263	16.674	785.401	592.436
398.278	16.742	784.824	592.185
399.292	16.814	784.163	591.886
400.307	16.739	783.909	591.379
401.321	16.907	783.437	591.558
402.336	16.870	782.802	590.895
403.350	16.915	782.564	590.821
404.365	16.862	781.857	590.051
405.380	16.993	781.778	590.394
406.394	16.926	781.215	589.686
407.409	17.211	780.778	590.294
408.423	17.123	780.051	589.387
409.438	17.108	779.964	589.216
410.453	17.107	779.393	588.731
411.467	17.309	778.724	588.870
412.482	17.280	778.408	588.478
413.496	17.160	778.452	588.046
414.511	17.340	777.749	588.086
415.526	17.156	777.648	587.321
416.540	17.255	776.913	587.056
417.555	17.478	776.591	587.530
418.569	17.324	776.331	586.751
419.584	17.331	775.634	586.195
420.599	17.256	775.110	585.490
421.613	108.277	1289.207	1463.946
422.628	92.453	1364.095	1464.045
