DTS Sentinel unit serial number:	SN413079Multiplexer serial number:	ORYXHardware model number:	OX4-SRSoftware version number:	ORYX F/W v4.00 Oryx Data Collector v3.7.2.0data status	okinstallation	princeton_trtdifferential loss correction	single-endedforward channel	channel 3reverse channel	N/Adate	2019/09/16time	22:00:35forward acquisition time	60.00reverse acquisition time	0.00gamma	496.2192k internal	0.2324k external	0.2324temperature offset calibration	0.9940default loss term (dB/km)	0.3790temperature slope calibration	1.0000multiplexer offset coefficient	1.0000multiplexer slope coefficient	1.0000fibre end	0.00T internal ref (°C)	31.19T ext. ref 1 (°C)	0.07T ext. ref 2 (°C)	25.33length (m)	temperature (°C)	Stokes	anti-Stokes-747.200	18.536	-0.153	0.124
-746.185	-200.000	-0.038	0.222
-745.171	80.731	-0.120	-0.130
-744.156	-200.000	0.026	0.134
-743.142	-72.383	-0.120	-0.045
-742.127	445.060	0.047	0.104
-741.112	195.684	-0.108	-0.166
-740.098	800.000	-0.053	-0.175
-739.083	-67.917	0.211	-0.083
-738.069	398.013	-0.253	0.535
-737.054	-188.107	-0.214	-0.003
-736.039	-60.733	-0.252	-0.108
-735.025	599.297	0.088	-0.219
-734.010	-109.595	-0.198	0.042
-732.996	23.175	0.219	0.181
-731.981	163.844	0.153	0.217
-730.966	213.305	-0.191	-0.305
-729.952	432.093	0.139	-0.304
-728.937	-126.793	-0.140	0.021
-727.923	109.604	0.219	-0.265
-726.908	710.564	0.112	-0.299
-725.894	96.784	-0.266	-0.308
-724.879	-133.748	-0.215	-0.027
-723.864	-200.000	0.001	-0.210
-722.850	-69.684	0.158	0.061
-721.835	-95.280	0.244	0.066
-720.821	-13.284	-0.256	-0.167
-719.806	288.152	-0.102	-0.186
-718.791	800.000	-0.037	0.122
-717.777	6.308	-0.324	0.242
-716.762	-74.310	0.343	0.125
-715.748	60.072	0.139	-0.138
-714.733	-128.065	0.202	0.029
-713.718	48.438	0.218	0.206
-712.704	-108.012	-0.126	0.028
-711.689	-115.287	0.064	0.012
-710.675	52.552	0.063	0.061
-709.660	800.000	-0.109	0.376
-708.645	364.964	0.107	-0.217
-707.631	342.256	-0.057	0.113
-706.616	59.728	-0.225	0.224
-705.602	-21.420	-0.283	0.174
-704.587	279.948	0.132	-0.237
-703.572	157.726	0.051	-0.071
-702.558	-65.203	-0.169	0.069
-701.543	-160.583	0.176	0.009
-700.529	-29.784	-0.170	-0.098
-699.514	-70.090	0.326	-0.125
-698.499	800.000	-0.043	-0.124
-697.485	-200.000	0.002	-0.283
-696.470	-29.393	0.302	-0.174
-695.456	413.247	-0.108	-0.232
-694.441	-22.470	0.166	-0.101
-693.426	800.000	0.035	-0.113
-692.412	104.544	-0.069	-0.082
-691.397	-125.865	0.304	-0.046
-690.383	800.000	-0.086	0.268
-689.368	88.411	0.057	-0.064
-688.354	800.000	0.062	0.187
-687.339	800.000	0.064	-0.220
-686.324	-200.000	-0.047	0.210
-685.310	56.400	-0.047	0.046
-684.295	-84.444	-0.236	0.075
-683.281	-200.000	-0.004	0.102
-682.266	-37.641	0.212	-0.114
-681.251	178.541	-0.241	0.354
-680.237	47.130	0.245	0.229
-679.222	369.533	0.141	0.287
-678.208	52.108	-0.147	0.141
-677.193	32.590	0.160	0.140
-676.178	-72.821	0.461	0.171
-675.164	-200.000	-0.005	0.115
-674.149	-31.562	0.078	-0.044
-673.135	-66.604	0.118	-0.047
-672.120	-74.852	0.254	-0.092
-671.105	-200.000	-0.025	0.149
-670.091	-44.683	0.088	-0.044
-669.076	-200.000	-0.002	0.107
-668.062	153.827	0.187	-0.258
-667.047	-200.000	0.009	0.154
-666.032	320.670	-0.136	0.260
-665.018	-10.407	0.111	-0.074
-664.003	-200.000	-0.003	0.384
-662.989	191.758	0.190	0.287
-661.974	800.000	-0.052	-0.208
-660.959	-53.503	-0.413	-0.190
-659.945	669.676	0.080	0.209
-658.930	-200.000	-0.055	0.289
-657.916	158.292	0.115	-0.161
-656.901	-111.190	0.259	-0.053
-655.886	-78.945	0.180	0.062
-654.872	-129.350	0.147	0.021
-653.857	-200.000	-0.005	0.099
-652.843	800.000	0.072	-0.211
-651.828	42.398	0.205	0.187
-650.814	-27.646	-0.021	0.012
-649.799	-65.314	0.085	-0.034
-648.784	80.336	0.167	-0.181
-647.770	297.261	-0.189	0.349
-646.755	-200.000	-0.032	0.279
-645.741	-200.000	0.023	-0.215
-644.726	400.385	0.169	-0.357
-643.711	-6.546	-0.122	0.083
-642.697	306.536	-0.061	0.114
-641.682	800.000	-0.098	-0.320
-640.668	-78.035	-0.194	0.067
-639.653	62.926	-0.072	-0.072
-638.638	10.272	0.218	-0.167
-637.624	30.781	-0.109	0.094
-636.609	202.598	-0.148	-0.229
-635.595	11.839	-0.170	0.131
-634.580	-94.691	0.130	0.036
-633.565	90.394	-0.089	0.100
-632.551	217.582	-0.212	-0.340
-631.536	-165.498	0.107	-0.005
-630.522	163.775	-0.151	-0.214
-629.507	-200.000	-0.024	-0.126
-628.492	-113.709	-0.228	-0.045
-627.478	800.000	0.053	-0.163
-626.463	-200.000	-0.051	0.239
-625.449	336.727	-0.152	0.296
-624.434	800.000	-0.026	0.079
-623.419	40.760	-0.049	0.045
-622.405	-200.000	0.052	0.373
-621.390	402.747	-0.075	-0.157
-620.376	-200.000	0.025	0.267
-619.361	-125.538	0.284	0.043
-618.346	-200.000	-0.015	-0.118
-617.332	-200.000	-0.024	-0.178
-616.317	-200.000	-0.047	-0.486
-615.303	174.165	0.208	0.302
-614.288	14.306	0.190	0.148
-613.273	800.000	0.067	-0.211
-612.259	91.342	-0.075	-0.084
-611.244	-200.000	-0.004	-0.249
-610.230	-200.000	-0.006	0.156
-609.215	16.473	0.141	0.112
-608.201	145.514	-0.154	-0.207
-607.186	744.682	0.035	0.095
-606.171	10.313	0.217	0.166
-605.157	-158.126	-0.284	0.017
-604.142	373.250	-0.166	0.340
-603.128	-66.623	-0.333	0.133
-602.113	-102.579	-0.358	0.086
-601.098	-37.634	0.069	0.037
-600.084	258.516	-0.115	0.199
-599.069	12.832	0.191	-0.148
-598.055	-83.865	-0.178	0.057
-597.040	514.075	-0.119	0.278
-596.025	-140.200	-0.219	-0.023
-595.011	-76.912	0.238	-0.084
-593.996	-200.000	-0.026	-0.142
-592.982	-131.753	-0.223	-0.029
-591.967	-200.000	0.063	-0.282
-590.952	-200.000	0.247	-0.000
-589.938	-79.121	0.292	-0.100
-588.923	-200.000	0.029	0.131
-587.909	63.474	-0.117	-0.118
-586.894	-200.000	0.014	-0.403
-585.879	21.385	-0.244	0.199
-584.865	237.490	0.134	-0.222
-583.850	-200.000	-0.011	-0.430
-582.836	39.268	0.111	-0.100
-581.821	378.499	0.034	-0.070
-580.806	-200.000	-0.005	0.070
-579.792	147.518	0.057	-0.078
-578.777	-135.893	-0.285	-0.034
-577.763	-187.902	-0.175	-0.002
-576.748	-114.987	0.229	-0.044
-575.733	30.630	0.106	-0.091
-574.719	-75.915	0.073	0.026
-573.704	-48.663	0.075	0.036
-572.690	14.852	0.212	0.166
-571.675	112.308	-0.146	0.177
-570.661	341.166	0.069	0.134
-569.646	-43.731	-0.124	-0.063
-568.631	-130.806	-0.214	-0.029
-567.617	79.588	-0.052	0.056
-566.602	-200.000	-0.014	-0.220
-565.588	506.516	-0.129	-0.300
-564.573	-7.512	-0.253	0.172
-563.558	-87.698	-0.406	0.123
-562.544	800.000	0.055	0.174
-561.529	800.000	-0.128	-0.464
-560.515	339.913	0.172	-0.337
-559.500	-71.966	0.112	0.042
-558.485	-75.519	-0.215	0.077
-557.471	-105.376	0.120	0.027
-556.456	-200.000	0.048	0.254
-555.442	800.000	0.037	0.138
-554.427	-200.000	0.020	-0.246
-553.412	-200.000	-0.031	-0.378
-552.398	-200.000	0.035	-0.175
-551.383	31.205	-0.111	0.095
-550.369	-35.579	-0.346	0.188
-549.354	-200.000	0.015	0.273
-548.339	17.398	0.072	-0.058
-547.325	140.245	-0.140	-0.184
-546.310	38.685	-0.113	-0.101
-545.296	26.862	-0.043	0.036
-544.281	17.252	0.195	0.155
-543.266	-57.548	0.130	0.057
-542.252	-66.811	-0.154	-0.061
-541.237	61.928	0.006	0.006
-540.223	663.399	-0.056	-0.146
-539.208	800.000	-0.154	-0.434
-538.193	-200.000	-0.010	-0.095
-537.179	788.317	-0.062	0.169
-536.164	-200.000	-0.014	-0.181
-535.150	-200.000	0.055	-0.388
-534.135	16.751	-0.187	-0.148
-533.121	10.010	0.080	-0.061
-532.106	-22.272	-0.244	0.148
-531.091	-61.234	0.065	-0.027
-530.077	-60.157	0.182	0.078
-529.062	-139.801	0.154	-0.016
-528.048	319.796	0.071	-0.134
-527.033	47.659	0.117	-0.110
-526.018	368.837	-0.051	-0.102
-525.004	-112.090	0.214	0.043
-523.989	-200.000	-0.010	-0.240
-522.975	-200.000	-0.005	0.068
-521.960	-200.000	0.008	0.052
-520.945	800.000	0.016	-0.060
-519.931	54.461	0.172	0.166
-518.916	16.273	0.075	-0.059
-517.902	466.041	0.087	0.195
-516.887	-200.000	0.022	0.180
-515.872	800.000	0.056	0.198
-514.858	125.083	0.118	-0.148
-513.843	134.814	-0.132	0.172
-512.829	-6.744	0.077	0.053
-511.814	247.894	0.167	-0.282
-510.799	185.699	-0.204	0.303
-509.785	-124.070	0.228	-0.036
-508.770	236.926	-0.116	-0.193
-507.756	-55.030	0.029	-0.013
-506.741	240.803	-0.158	0.264
-505.726	19.498	-0.331	-0.266
-504.712	-127.606	-0.066	0.010
-503.697	-200.000	0.009	0.058
-502.683	124.247	0.164	0.206
-501.668	-200.000	-0.000	0.163
-500.653	-160.425	0.430	-0.023
-499.639	120.497	-0.031	0.039
-498.624	-200.000	-0.083	-0.448
-497.610	-52.316	-0.147	-0.068
-496.595	-34.124	-0.154	-0.085
-495.581	13.623	0.129	0.100
-494.566	-102.343	-0.386	0.092
-493.551	-200.000	0.011	0.113
-492.537	800.000	0.016	-0.068
-491.522	800.000	0.246	-0.778
-490.508	610.958	0.070	-0.174
-489.493	126.469	0.047	-0.060
-488.478	46.232	0.257	0.238
-487.464	-164.927	-0.217	0.010
-486.449	-200.000	0.039	-0.353
-485.435	800.000	-0.075	-0.272
-484.420	396.256	-0.022	-0.046
-483.405	-200.000	-0.004	0.110
-482.391	-200.000	-0.030	0.195
-481.376	95.153	0.253	0.288
-480.362	119.811	0.234	-0.290
-479.347	-200.000	-0.019	-0.215
-478.332	453.212	-0.111	0.245
-477.318	351.332	-0.083	-0.163
-476.303	-147.032	-0.284	0.024
-475.289	78.240	-0.110	-0.117
-474.274	-89.940	0.249	0.073
-473.259	198.066	0.211	-0.322
-472.245	-200.000	0.000	-0.073
-471.230	677.307	0.197	-0.512
-470.216	-8.884	0.251	0.168
-469.201	-153.255	-0.318	0.022
-468.186	-200.000	0.020	-0.320
-467.172	-43.640	-0.270	-0.136
-466.157	183.331	0.125	0.184
-465.143	-28.328	0.283	-0.163
-464.128	800.000	-0.020	-0.082
-463.113	-43.423	0.252	-0.127
-462.099	-4.331	0.194	0.134
-461.084	-72.106	0.304	-0.113
-460.070	-200.000	-0.023	0.284
-459.055	-65.918	0.096	-0.038
-458.040	-98.995	-0.063	0.016
-457.026	161.315	0.189	0.263
-456.011	-200.000	0.018	0.181
-454.997	240.171	-0.073	0.121
-453.982	800.000	-0.113	-0.329
-452.968	42.849	0.332	-0.302
-451.953	-200.000	0.006	0.039
-450.938	-57.169	0.150	0.066
-449.924	55.293	0.216	0.209
-448.909	-200.000	-0.014	-0.094
-447.895	244.456	-0.115	0.193
-446.880	-106.565	0.224	-0.050
-445.865	60.583	0.102	0.100
-444.851	-103.004	-0.435	0.103
-443.836	148.000	-0.156	0.210
-442.822	434.447	0.148	0.320
-441.807	645.223	-0.097	0.247
-440.792	-41.346	-0.387	0.199
-439.778	-86.898	0.126	0.038
-438.763	-80.917	0.268	-0.089
-437.749	-54.820	0.116	-0.052
-436.734	-168.963	0.133	0.005
-435.719	200.214	0.161	-0.247
-434.705	-200.000	-0.010	0.109
-433.690	-162.822	0.362	0.018
-432.676	-200.000	-0.003	0.100
-431.661	-104.413	-0.349	-0.081
-430.646	-21.176	0.106	-0.064
-429.632	-104.121	0.124	-0.029
-428.617	-77.314	0.175	0.060
-427.603	800.000	-0.069	-0.253
-426.588	-200.000	0.006	-0.132
-425.573	144.940	0.188	-0.251
-424.559	800.000	-0.046	0.200
-423.544	380.729	-0.026	-0.053
-422.530	-69.874	-0.185	0.070
-421.515	-200.000	0.002	-0.253
-420.500	-200.000	-0.031	-0.140
-419.486	431.754	-0.189	0.408
-418.471	-200.000	0.002	0.213
-417.457	47.547	-0.094	0.087
-416.442	-66.510	-0.090	0.035
-415.428	555.496	0.088	0.210
-414.413	-72.241	-0.310	0.115
-413.398	-45.183	0.121	-0.060
-412.384	129.185	0.159	-0.203
-411.369	-50.939	0.225	-0.105
-410.355	509.433	-0.107	-0.247
-409.340	-58.275	-0.165	0.072
-408.325	-49.497	0.106	-0.050
-407.311	167.030	-0.083	-0.117
-406.296	136.598	0.047	-0.061
-405.282	-19.553	-0.073	-0.045
-404.267	-200.000	0.039	-0.194
-403.252	-78.279	-0.200	-0.068
-402.238	-200.000	-0.006	0.139
-401.223	-115.804	-0.158	0.029
-400.209	120.583	-0.169	-0.209
-399.194	-178.560	-0.011	0.000
-398.179	85.156	0.045	0.049
-397.165	-34.602	0.063	-0.034
-396.150	121.648	0.273	0.339
-395.136	107.249	-0.035	0.042
-394.121	141.127	0.049	-0.064
-393.106	800.000	-0.133	-0.417
-392.092	15.126	-0.147	-0.114
-391.077	391.290	-0.076	0.157
-390.063	-68.107	-0.171	-0.066
-389.048	800.000	-0.029	-0.098
-388.033	85.128	0.096	0.104
-387.019	-39.922	-0.507	0.263
-386.004	517.443	0.141	-0.328
-384.990	45.522	-0.168	0.154
-383.975	-200.000	-0.001	-0.427
-382.960	-200.000	-0.000	0.002
-381.946	657.425	-0.156	0.400
-380.931	273.463	0.170	0.300
-379.917	800.000	0.124	-0.396
-378.902	-28.843	0.157	-0.090
-377.888	-181.047	-0.295	-0.006
-376.873	-167.557	0.032	0.001
-375.858	387.087	-0.080	0.164
-374.844	-106.654	-0.388	-0.086
-373.829	-81.603	0.246	-0.080
-372.815	50.283	-0.064	-0.060
-371.800	-200.000	0.026	0.141
-370.785	800.000	-0.111	0.324
-369.771	231.536	0.216	0.352
-368.756	-93.008	-0.242	0.067
-367.742	-200.000	-0.025	0.249
-366.727	800.000	-0.039	0.155
-365.712	-68.098	-0.238	0.092
-364.698	120.003	0.133	-0.165
-363.683	14.621	-0.271	-0.210
-362.669	65.177	0.195	-0.196
-361.654	-60.400	-0.098	0.041
-360.639	-200.000	-0.004	0.186
-359.625	-200.000	0.013	0.641
-358.610	267.027	-0.237	0.412
-357.596	114.862	-0.171	0.207
-356.581	16.424	0.197	0.155
-355.566	-46.080	0.131	-0.064
-354.552	-89.360	-0.290	-0.085
-353.537	10.551	-0.042	-0.032
-352.523	-35.819	0.221	0.119
-351.508	18.332	0.109	0.087
-350.493	-200.000	-0.029	-0.273
-349.479	-84.464	0.108	-0.034
-348.464	-155.808	0.366	-0.023
-347.450	155.778	-0.259	-0.355
-346.435	106.855	0.093	-0.110
-345.420	45.425	-0.275	0.252
-344.406	-116.406	0.123	0.023
-343.391	-77.773	0.445	-0.153
-342.377	308.761	0.040	-0.075
-341.362	-200.000	0.021	-0.230
-340.348	-200.000	-0.016	0.082
-339.333	62.160	0.028	-0.028
-338.318	64.899	-0.070	0.071
-337.304	-3.039	0.064	-0.044
-336.289	800.000	-0.045	-0.164
-335.275	72.895	0.152	-0.158
-334.260	-192.935	-0.011	0.000
-333.245	9.538	-0.331	-0.249
-332.231	-11.598	-0.200	0.131
-331.216	98.097	-0.119	0.136
-330.202	-104.658	0.420	0.096
-329.187	-155.718	-0.248	0.016
-328.172	800.000	0.020	-0.086
-327.158	800.000	-0.102	0.333
-326.143	-200.000	0.039	-0.184
-325.129	-106.330	0.609	-0.135
-324.114	-200.000	0.011	0.367
-323.099	337.520	-0.136	-0.262
-322.085	190.390	0.093	0.139
-321.070	-200.000	-0.024	-0.104
-320.056	-114.911	0.149	-0.028
-319.041	32.139	-0.075	-0.065
-318.026	198.982	0.095	0.144
-317.012	37.121	0.284	0.249
-315.997	739.884	0.047	0.126
-314.983	127.033	-0.198	0.249
-313.968	-200.000	0.017	0.222
-312.953	-20.571	0.283	-0.173
-311.939	671.614	0.049	0.127
-310.924	-143.222	-0.256	0.024
-309.910	440.621	-0.021	0.046
-308.895	56.048	0.096	0.092
-307.880	-105.281	-0.113	0.026
-306.866	-55.473	0.101	-0.045
-305.851	-53.420	0.392	-0.178
-304.837	123.098	0.160	0.199
-303.822	120.293	0.026	0.032
-302.807	-84.750	-0.211	0.066
-301.793	-82.070	0.217	-0.070
-300.778	800.000	0.029	0.101
-299.764	49.969	0.139	0.130
-298.749	-58.763	0.197	0.085
-297.735	785.643	0.073	-0.199
-296.720	-3.985	-0.070	0.048
-295.705	29.221	-0.097	-0.081
-294.691	29.694	0.221	-0.186
-293.676	89.814	0.050	0.055
-292.662	283.465	0.016	-0.028
-291.647	800.000	0.098	-0.369
-290.632	-190.706	0.174	0.002
-289.618	121.014	0.204	-0.252
-288.603	-126.145	0.038	0.006
-287.589	107.656	-0.166	0.196
-286.574	16.572	-0.095	-0.074
-285.559	-200.000	0.056	0.385
-284.545	-155.682	-0.185	0.012
-283.530	800.000	-0.052	-0.204
-282.516	140.325	0.152	0.199
-281.501	24.463	0.265	-0.217
-280.486	-30.640	-0.330	0.185
-279.472	-103.303	0.210	-0.049
-278.457	-85.461	-0.118	-0.036
-277.443	-34.741	0.273	0.148
-276.428	-200.000	0.022	0.104
-275.413	476.923	-0.067	0.149
-274.399	46.702	-0.146	0.134
-273.384	95.353	-0.122	0.138
-272.370	-6.059	-0.162	0.110
-271.355	-176.008	-0.122	0.003
-270.340	-3.991	0.388	-0.267
-269.326	42.398	-0.042	-0.038
-268.311	666.304	0.129	0.329
-267.297	-91.247	0.094	0.027
-266.282	-20.038	0.198	0.121
-265.267	-200.000	0.077	-0.387
-264.253	-44.180	-0.132	-0.065
-263.238	-175.548	0.086	0.002
-262.224	-200.000	-0.014	0.134
-261.209	800.000	0.107	-0.304
-260.195	60.146	-0.244	0.239
-259.180	-26.917	0.078	0.045
-258.165	334.162	0.192	-0.369
-257.151	-72.094	0.219	0.081
-256.136	-123.966	-0.256	0.040
-255.122	-167.639	-0.137	-0.005
-254.107	-200.000	-0.036	0.333
-253.092	-114.239	-0.223	0.043
-252.078	48.012	-0.318	-0.294
-251.063	-115.300	-0.186	0.035
-250.049	227.698	-0.038	-0.062
-249.034	-34.641	0.208	0.113
-248.019	-89.393	-0.448	0.130
-247.005	-54.311	-0.208	0.093
-245.990	-200.000	0.050	0.228
-244.976	314.633	-0.098	-0.182
-243.961	-21.098	-0.209	-0.127
-242.946	81.904	-0.238	-0.255
-241.932	5.891	0.060	-0.044
-240.917	-46.239	0.290	0.141
-239.903	800.000	-0.056	0.220
-238.888	352.487	0.024	-0.046
-237.873	54.031	0.118	-0.113
-236.859	-200.000	-0.218	0.001
-235.844	-36.973	0.384	-0.204
-234.830	164.510	-0.142	0.198
-233.815	109.971	-0.087	-0.104
-232.800	43.770	0.271	-0.246
-231.786	305.118	0.073	0.135
-230.771	-200.000	-0.004	-0.239
-229.757	-80.672	0.156	-0.051
-228.742	305.065	0.067	0.124
-227.727	-200.000	-0.040	-0.211
-226.713	11.737	-0.195	0.148
-225.698	33.126	0.393	-0.337
-224.684	-129.386	-0.195	0.027
-223.669	732.525	0.048	-0.128
-222.655	-200.000	0.047	0.342
-221.640	-41.091	-0.046	-0.023
-220.625	14.474	0.272	-0.210
-219.611	21.882	0.145	-0.117
-218.596	109.277	-0.127	0.151
-217.582	-43.565	0.141	-0.070
-216.567	135.948	-0.143	0.184
-215.552	355.957	-0.145	0.286
-214.538	43.202	0.163	-0.148
-213.523	800.000	0.045	-0.126
-212.509	800.000	-0.010	0.039
-211.494	425.653	-0.020	0.042
-210.479	800.000	0.170	0.473
-209.465	-200.000	0.031	-0.191
-208.450	-85.713	-0.334	-0.102
-207.436	76.805	-0.097	-0.102
-206.421	-91.978	0.182	-0.051
-205.406	8.648	0.094	-0.070
-204.392	-200.000	0.023	-0.109
-203.377	-73.464	-0.311	-0.112
-202.363	-200.000	0.014	0.147
-201.348	800.000	0.097	0.273
-200.333	522.492	0.012	-0.027
-199.319	65.787	-0.195	0.195
-198.304	129.857	-0.071	-0.090
-197.290	258.434	0.178	0.302
-196.275	-136.458	0.116	-0.013
-195.260	32.605	0.187	0.160
-194.246	-32.521	-0.099	0.054
-193.231	-94.253	0.221	0.060
-192.217	97.993	-0.227	0.257
-191.202	-200.000	0.014	0.227
-190.187	150.833	0.044	-0.059
-189.173	27.320	-0.170	0.141
-188.158	307.403	-0.143	0.264
-187.144	-116.481	-0.208	-0.038
-186.129	8.983	0.060	0.045
-185.114	-59.656	-0.292	0.123
-184.100	800.000	-0.086	-0.324
-183.085	-47.629	-0.253	0.121
-182.071	274.662	-0.176	-0.307
-181.056	-94.687	0.312	0.084
-180.042	-149.074	-0.378	0.030
-179.027	-181.684	0.026	0.001
-178.012	11.683	0.124	0.094
-176.998	800.000	-0.099	0.379
-175.983	-55.652	-0.093	0.041
-174.969	451.155	0.073	0.160
-173.954	-200.000	-0.010	0.222
-172.939	-74.038	0.121	-0.043
-171.925	-20.273	0.079	-0.048
-170.910	-24.053	0.061	-0.036
-169.896	742.123	0.137	-0.363
-168.881	-200.000	0.013	-0.061
-167.866	-65.583	0.344	0.136
-166.852	-200.000	0.019	-0.163
-165.837	107.517	-0.131	-0.154
-164.823	391.683	0.006	-0.012
-163.808	800.000	0.125	0.511
-162.793	29.173	0.053	0.044
-161.779	487.042	0.079	-0.179
-160.764	-64.916	0.220	-0.088
-159.750	-200.000	0.000	0.202
-158.735	-200.000	0.055	0.240
-157.720	374.761	0.098	0.196
-156.706	299.155	-0.331	0.601
-155.691	-93.758	-0.243	0.066
-154.677	-200.000	0.024	-0.357
-153.662	800.000	0.125	-0.372
-152.647	-27.540	-0.347	0.199
-151.633	-115.212	0.191	0.036
-150.618	105.425	0.272	0.317
-149.604	-0.573	-0.180	0.126
-148.589	85.142	-0.065	0.070
-147.574	320.269	-0.151	0.283
-146.560	800.000	-0.079	0.300
-145.545	-36.571	-0.051	0.027
-144.531	-126.581	-0.199	0.029
-143.516	44.964	0.317	0.288
-142.502	-78.381	0.346	0.117
-141.487	-200.000	0.062	0.307
-140.472	-31.977	0.085	0.047
-139.458	800.000	0.023	-0.068
-138.443	198.770	-0.047	0.071
-137.429	-200.000	-0.015	0.187
-136.414	-200.000	-0.037	0.185
-135.399	-200.000	0.013	-0.265
-134.385	488.141	-0.112	0.253
-133.370	-43.452	0.622	0.310
-132.356	-71.611	0.196	-0.072
-131.341	205.183	-0.300	0.460
-130.326	195.304	0.099	0.148
-129.312	-200.000	0.018	0.376
-128.297	-69.441	-0.145	-0.055
-127.283	-200.000	0.011	0.245
-126.268	-16.024	0.312	0.196
-125.253	-78.438	-0.139	-0.047
-124.239	-106.512	-0.348	0.077
-123.224	-200.000	0.019	0.399
-122.210	45.058	0.149	0.135
-121.195	-138.145	0.135	-0.015
-120.180	-200.000	-0.019	0.185
-119.166	-169.831	0.224	-0.008
-118.151	-68.335	-0.189	-0.072
-117.137	-79.297	0.054	-0.018
-116.122	80.214	-0.154	0.163
-115.107	-88.013	-0.154	-0.046
-114.093	11.643	0.180	0.136
-113.078	-21.397	0.161	-0.097
-112.064	800.000	0.057	-0.189
-111.049	624.209	-0.039	-0.096
-110.034	45.072	0.164	-0.149
-109.020	59.413	-0.243	-0.236
-108.005	356.616	0.140	-0.274
-106.991	-200.000	-0.064	0.319
-105.976	-200.000	0.008	0.337
-104.962	164.687	0.081	0.112
-103.947	441.729	-0.041	0.089
-102.932	-200.000	0.024	-0.111
-101.918	21.149	0.138	0.110
-100.903	162.201	0.143	0.197
-99.889	118.617	-0.218	0.265
-98.874	-160.711	-0.144	0.008
-97.859	-31.269	0.114	-0.063
-96.845	138.764	0.197	0.254
-95.830	800.000	-0.062	0.231
-94.816	800.000	0.085	-0.335
-93.801	24.993	-0.135	-0.110
-92.786	225.500	-0.070	0.112
-91.772	-81.532	0.118	-0.038
-90.757	-105.362	0.308	0.069
-89.743	49.555	0.270	0.250
-88.728	340.046	-0.150	0.288
-87.713	-57.650	-0.286	0.123
-86.699	-80.950	0.060	0.019
-85.684	-35.701	0.303	0.162
-84.670	19.857	-0.070	0.055
-83.655	84.665	-0.071	0.076
-82.640	282.532	-0.069	-0.121
-81.626	-21.889	0.178	0.106
-80.611	-200.000	-0.006	0.189
-79.597	-161.467	0.480	-0.024
-78.582	567.632	-0.026	-0.061
-77.567	-2.202	-0.180	-0.124
-76.553	800.000	-0.051	-0.170
-75.538	96.701	0.146	-0.165
-74.524	-28.084	-0.176	-0.100
-73.509	800.000	-0.063	-0.180
-72.494	-124.411	-0.227	0.035
-71.480	422.459	0.049	0.104
-70.465	181.725	0.124	0.180
-69.451	500.484	0.089	-0.201
-68.436	157.143	-0.072	-0.098
-67.422	254.275	0.054	0.091
-66.407	800.000	0.062	0.200
-65.392	71.905	-0.198	0.203
-64.378	193.837	-0.087	-0.130
-63.363	97.779	-0.180	-0.204
-62.349	32.107	0.137	-0.116
-61.334	276.037	-0.606	-1.058
-60.319	-58.436	0.636	0.272
-59.305	-200.000	-0.140	-1.077
-58.290	800.000	0.337	1.261
-57.276	457.387	0.797	1.739
-56.261	-200.000	99.970	584.223
-55.246	510.089	1405.620	3211.138
-54.232	158.400	2575.617	3510.961
-53.217	110.335	2156.642	2545.165
-52.203	41.735	1692.896	1507.030
-51.188	34.270	1503.372	1288.017
-50.173	31.886	1476.226	1248.859
-49.159	51.729	1527.420	1427.093
-48.144	53.422	1545.762	1455.650
-47.130	34.535	1504.194	1290.308
-46.115	31.476	1489.362	1257.016
-45.100	31.284	1485.927	1252.773
-44.086	31.252	1483.822	1250.735
-43.071	31.167	1481.765	1248.383
-42.057	31.048	1480.601	1246.563
-41.042	31.108	1479.263	1245.782
-40.027	31.157	1477.601	1244.665
-39.013	31.068	1476.288	1242.916
-37.998	31.061	1474.840	1241.603
-36.984	31.029	1474.023	1240.651
-35.969	31.141	1472.012	1239.652
-34.954	31.160	1470.575	1238.521
-33.940	31.149	1469.073	1237.129
-32.925	31.181	1468.607	1236.904
-31.911	31.243	1467.015	1235.924
-30.896	31.324	1465.236	1234.907
-29.881	31.288	1464.637	1234.117
-28.867	31.317	1462.906	1232.803
-27.852	31.203	1461.747	1231.021
-26.838	31.248	1460.415	1230.150
-25.823	31.190	1459.211	1228.708
-24.809	31.269	1457.129	1227.425
-23.794	31.263	1455.725	1226.154
-22.779	31.314	1454.370	1225.300
-21.765	31.156	1454.110	1223.992
-20.750	31.192	1452.448	1222.779
-19.736	31.207	1451.081	1221.680
-18.721	31.315	1449.838	1221.289
-17.706	31.196	1449.198	1219.926
-16.692	31.199	1448.023	1218.910
-15.677	31.156	1447.024	1217.736
-14.663	31.087	1446.441	1216.748
-13.648	31.245	1445.044	1216.555
-12.633	31.129	1444.727	1215.485
-11.619	31.239	1443.228	1214.891
-10.604	31.274	1442.257	1214.253
-9.590	31.213	1441.187	1212.909
-8.575	31.172	1440.901	1212.355
-7.560	31.156	1440.011	1211.454
-6.546	31.138	1439.009	1210.447
-5.531	31.083	1438.472	1209.584
-4.517	31.172	1437.368	1209.188
-3.502	31.162	1436.157	1208.058
-2.487	31.172	1435.030	1207.124
-1.473	31.161	1434.387	1206.466
-0.458	31.120	1432.597	1204.645
0.556	29.202	1423.222	1193.343
1.571	26.153	1398.730	1153.264
2.586	22.704	1338.908	1082.713
3.600	20.890	1258.343	1006.996
4.615	19.702	1213.703	964.562
5.629	17.026	1157.517	905.565
6.644	8.558	1073.075	797.372
7.659	1.478	1032.085	732.798
8.673	0.246	1026.389	722.782
9.688	0.068	1023.257	719.663
10.702	-0.095	1021.862	717.836
11.717	0.062	1019.943	717.173
12.731	2.712	1022.800	731.776
13.746	11.036	1034.294	779.964
14.761	17.330	1041.262	815.427
15.775	17.460	1040.736	815.566
16.790	16.508	1038.277	809.013
17.804	15.328	1036.033	801.557
18.819	14.529	1034.437	796.435
19.834	14.168	1033.075	793.597
20.848	13.795	1032.449	791.268
21.863	13.550	1031.760	789.502
22.877	13.401	1030.661	787.881
23.892	13.202	1029.849	786.243
24.907	13.158	1028.743	785.120
25.921	13.032	1027.972	783.862
26.936	13.132	1027.511	783.916
27.950	13.186	1026.732	783.509
28.965	13.160	1026.025	782.776
29.980	13.200	1025.311	782.352
30.994	13.377	1024.344	782.384
32.009	13.252	1023.998	781.459
33.023	13.418	1023.220	781.581
34.038	13.408	1021.985	780.519
35.053	13.317	1021.577	779.712
36.067	13.369	1020.287	778.904
37.082	13.310	1019.687	778.095
38.096	13.328	1019.100	777.665
39.111	13.389	1018.091	777.115
40.126	13.368	1017.302	776.342
41.140	13.265	1016.212	774.959
42.155	13.070	1016.037	773.845
43.169	13.127	1014.526	772.892
44.184	13.051	1013.905	771.996
45.199	13.143	1012.748	771.477
46.213	13.095	1011.912	770.545
47.228	12.981	1010.979	769.235
48.242	13.102	1009.509	768.611
49.257	13.225	1008.486	768.337
50.271	13.287	1007.710	767.969
51.286	13.178	1007.226	767.022
52.301	13.248	1006.431	766.677
53.315	13.355	1005.475	766.376
54.330	13.299	1004.827	765.553
55.344	13.094	1004.148	764.022
56.359	13.179	1003.039	763.501
57.374	13.134	1002.176	762.568
58.388	13.116	1001.400	761.827
59.403	13.105	1001.111	761.489
60.417	13.074	999.894	760.355
61.432	13.071	999.045	759.627
62.447	13.140	998.374	759.366
63.461	13.061	997.322	758.137
64.476	12.955	996.736	757.139
65.490	13.010	995.809	756.622
66.505	12.820	995.610	755.529
67.520	13.103	994.238	755.718
68.534	13.218	993.438	755.568
69.549	13.108	992.734	754.462
70.563	13.116	992.224	754.048
71.578	13.087	991.365	753.192
72.593	13.177	990.412	752.813
73.607	13.099	989.222	751.487
74.622	13.077	988.524	750.791
75.636	12.915	988.168	749.718
76.651	12.996	986.841	749.014
77.666	12.931	986.670	748.521
78.680	12.991	985.755	748.034
79.695	12.933	985.440	747.465
80.709	13.019	984.725	747.247
81.724	13.041	984.033	746.754
82.739	13.088	983.038	746.145
83.753	13.173	982.272	745.884
84.768	13.212	981.283	745.240
85.782	13.218	980.835	744.861
86.797	13.349	979.805	744.601
87.812	13.339	979.270	744.087
88.826	13.278	978.439	743.115
89.841	13.327	977.609	742.640
90.855	13.181	976.828	741.326
91.870	13.282	976.269	741.289
92.884	13.265	975.822	740.807
93.899	13.326	974.836	740.265
94.914	13.314	974.087	739.579
95.928	13.345	973.521	739.219
96.943	13.363	972.708	738.619
97.957	13.418	971.691	738.027
98.972	13.343	970.937	737.053
99.987	13.273	970.518	736.359
101.001	13.366	969.358	735.827
102.016	13.267	968.923	734.992
103.030	13.384	967.552	734.408
104.045	13.449	966.792	734.052
105.060	13.291	965.811	732.541
106.074	13.266	965.366	732.028
107.089	13.297	964.232	731.241
108.103	13.186	963.583	730.196
109.118	13.134	962.409	729.012
110.133	13.186	961.441	728.441
111.147	13.130	960.935	727.747
112.162	13.113	959.814	726.761
113.176	13.049	959.222	725.966
114.191	13.296	958.543	726.471
115.206	13.295	957.402	725.538
116.220	13.212	956.902	724.731
117.235	13.219	956.112	724.099
118.249	13.215	955.285	723.391
119.264	13.177	954.411	722.500
120.279	13.244	953.129	721.761
121.293	13.198	952.406	720.949
122.308	13.236	951.881	720.653
123.322	13.154	950.547	719.219
124.337	13.183	950.042	718.901
125.352	13.061	949.211	717.678
126.366	13.077	947.929	716.714
127.381	13.196	946.612	716.173
128.395	13.270	945.552	715.625
129.410	13.202	944.435	714.424
130.424	13.116	943.932	713.608
131.439	13.302	942.729	713.440
132.454	13.150	941.888	712.083
133.468	13.266	941.290	712.068
134.483	13.247	941.328	711.955
135.497	13.250	940.418	711.213
136.512	13.322	939.635	710.868
137.527	13.262	938.889	709.985
138.541	13.114	938.080	708.675
139.556	13.254	937.484	708.760
140.570	13.217	936.589	707.864
141.585	13.326	936.022	707.838
142.600	13.288	935.442	707.174
143.614	13.426	934.500	706.990
144.629	13.378	933.424	705.907
145.643	13.353	932.971	705.395
146.658	13.332	932.274	704.716
147.673	13.302	931.390	703.860
148.687	13.397	930.449	703.492
149.702	13.349	929.283	702.342
150.716	13.242	928.701	701.388
151.731	13.310	927.778	700.915
152.746	13.375	927.022	700.557
153.760	13.358	926.501	700.032
154.775	13.377	925.899	699.595
155.789	13.489	924.790	699.167
156.804	13.261	924.744	698.107
157.819	13.506	923.243	697.945
158.833	13.467	923.095	697.605
159.848	13.452	922.510	697.039
160.862	13.513	921.619	696.563
161.877	13.573	920.686	696.047
162.892	13.515	920.193	695.368
163.906	13.359	919.307	693.984
164.921	13.459	918.211	693.514
165.935	13.389	917.114	692.331
166.950	13.414	916.284	691.749
167.964	13.528	915.330	691.441
168.979	13.506	914.577	690.720
169.994	13.586	913.201	689.956
171.008	13.550	912.880	689.502
172.023	13.462	912.006	688.413
173.037	13.535	911.279	688.108
174.052	13.525	910.890	687.713
175.067	13.552	910.088	687.157
176.081	13.487	909.441	686.337
177.096	13.545	908.374	685.713
178.110	13.467	907.770	684.872
179.125	13.529	907.364	684.764
180.140	13.452	906.491	683.726
181.154	13.501	905.651	683.234
182.169	13.515	905.299	682.965
183.183	13.648	904.496	682.847
184.198	13.765	903.333	682.388
185.213	13.733	902.878	681.855
186.227	13.669	902.387	681.158
187.242	13.800	901.755	681.162
188.256	13.729	901.338	680.494
189.271	13.789	900.394	679.967
190.286	13.886	899.620	679.720
191.300	13.591	899.190	678.127
192.315	13.542	898.171	677.099
193.329	13.603	897.662	676.902
194.344	13.689	897.016	676.706
195.359	13.611	896.640	676.045
196.373	13.648	895.871	675.558
197.388	13.746	895.609	675.700
198.402	13.767	895.251	675.453
199.417	13.988	894.300	675.576
200.432	13.988	893.781	675.124
201.446	13.950	893.630	674.797
202.461	14.024	893.792	675.158
203.475	14.094	892.496	674.404
204.490	14.009	892.075	673.684
205.504	14.053	890.753	672.800
206.519	13.995	890.493	672.310
207.534	14.026	889.474	671.609
208.548	13.906	889.017	670.717
209.563	13.943	888.289	670.258
210.577	14.056	887.543	670.094
211.592	13.986	887.139	669.448
212.607	14.093	886.506	669.340
213.621	14.091	886.131	668.991
214.636	14.176	885.137	668.521
215.650	14.121	884.657	667.879
216.665	14.085	883.936	667.133
217.680	14.172	883.470	667.071
218.694	14.331	882.962	667.263
219.709	14.184	882.366	666.168
220.723	14.225	881.944	665.952
221.738	14.256	881.192	665.449
222.753	14.344	880.368	665.119
223.767	14.270	879.475	664.092
224.782	14.212	878.718	663.228
225.796	14.235	878.563	663.146
226.811	14.323	877.667	662.761
227.826	14.362	877.013	662.364
228.840	14.398	876.266	661.885
229.855	14.327	875.529	660.988
230.869	14.290	875.362	660.654
231.884	14.277	874.308	659.749
232.899	14.245	873.564	659.003
233.913	14.192	873.067	658.360
234.928	14.168	872.265	657.603
235.942	14.327	871.363	657.492
236.957	14.154	871.087	656.543
237.972	14.401	870.147	656.749
238.986	14.294	869.700	655.934
240.001	14.278	869.528	655.683
241.015	14.484	868.188	655.424
242.030	14.359	867.949	654.694
243.045	14.444	867.219	654.419
244.059	14.617	866.381	654.406
245.074	14.388	866.371	653.444
246.088	14.482	865.551	653.137
247.103	14.481	864.985	652.648
248.117	14.577	864.152	652.337
249.132	14.636	863.795	652.241
250.147	14.719	863.218	652.071
251.161	14.827	862.249	651.700
252.176	14.754	862.096	651.246
253.190	14.862	861.119	650.868
254.205	14.875	860.742	650.578
255.220	14.835	860.574	650.238
256.234	14.816	859.493	649.290
257.249	14.730	859.062	648.572
258.263	14.782	858.678	648.425
259.278	14.791	857.655	647.630
260.293	15.021	856.861	647.866
261.307	14.846	856.640	646.962
262.322	14.909	856.184	646.804
263.336	14.985	855.734	646.701
264.351	14.979	854.930	646.012
265.366	15.023	854.312	645.658
266.380	15.116	853.409	645.277
267.395	14.964	853.094	644.398
268.409	14.974	852.575	643.987
269.424	14.954	851.407	642.969
270.439	15.066	850.584	642.722
271.453	15.122	849.947	642.400
272.468	14.983	849.212	641.256
273.482	15.046	848.792	641.121
274.497	15.110	848.312	640.947
275.512	15.050	847.398	639.971
276.526	15.062	846.864	639.558
277.541	14.943	846.308	638.627
278.555	15.092	845.541	638.560
279.570	15.279	844.999	638.805
280.585	15.346	844.441	638.581
281.599	15.219	844.092	637.777
282.614	15.199	843.300	637.047
283.628	15.229	842.914	636.813
284.643	15.038	842.732	635.895
285.657	15.194	841.820	635.743
286.672	15.113	841.465	635.110
287.687	15.283	840.987	635.338
288.701	15.266	840.420	634.787
289.716	15.268	839.768	634.246
290.730	15.201	839.257	633.553
291.745	15.371	838.420	633.507
292.760	15.316	837.645	632.658
293.774	15.325	837.226	632.320
294.789	15.424	836.914	632.401
295.803	15.504	836.035	631.980
296.818	15.318	836.071	631.253
297.833	15.344	835.184	630.625
298.847	15.431	834.288	630.220
299.862	15.425	833.631	629.645
300.876	15.584	832.533	629.355
301.891	15.482	832.367	628.794
302.906	15.726	831.345	628.878
303.920	15.483	831.288	627.871
304.935	15.588	830.501	627.613
305.949	15.567	829.663	626.845
306.964	15.749	829.195	627.115
307.979	15.586	829.018	626.317
308.993	15.726	828.404	626.318
310.008	15.820	827.967	626.284
311.022	15.755	827.300	625.481
312.037	15.705	826.933	624.961
313.052	15.700	826.458	624.529
314.066	15.649	825.494	623.558
315.081	15.602	825.097	623.028
316.095	15.571	824.526	622.426
317.110	15.646	823.777	622.085
318.125	15.574	823.329	621.423
319.139	15.517	823.026	620.928
320.154	15.702	822.317	621.021
321.168	15.735	821.970	620.828
322.183	15.660	821.659	620.260
323.197	15.743	821.050	620.054
324.212	15.865	820.155	619.772
325.227	15.795	819.634	619.065
326.241	15.747	819.168	618.482
327.256	15.649	818.839	617.819
328.270	15.689	818.218	617.441
329.285	15.793	817.885	617.519
330.300	15.868	816.811	616.926
331.314	15.864	816.236	616.424
332.329	15.912	815.711	616.148
333.343	15.768	815.121	615.121
334.358	15.865	814.838	615.210
335.373	15.865	814.247	614.709
336.387	15.915	813.489	614.265
337.402	15.932	813.113	613.986
338.416	15.959	812.599	613.645
339.431	16.177	811.551	613.592
340.446	16.085	811.664	613.287
341.460	16.075	811.040	612.723
342.475	16.157	810.042	612.213
343.489	15.965	810.129	611.529
344.504	16.126	809.258	611.402
345.519	16.351	808.896	611.888
346.533	16.250	808.502	611.171
347.548	16.122	807.933	610.222
348.562	16.059	807.470	609.590
349.577	16.307	806.797	609.927
350.592	16.253	806.061	609.119
351.606	16.104	806.012	608.493
352.621	16.269	805.307	608.500
353.635	16.177	804.939	607.839
354.650	16.252	804.559	607.766
355.665	16.229	804.084	607.270
356.679	16.384	803.508	607.339
357.694	16.374	803.202	607.018
358.708	16.421	802.688	606.744
359.723	16.262	802.419	605.917
360.738	16.348	801.743	605.662
361.752	16.322	801.206	605.110
362.767	16.540	800.757	605.498
363.781	16.407	800.416	604.709
364.796	16.447	799.965	604.460
365.810	16.398	799.393	603.800
366.825	16.509	799.390	604.139
367.840	16.446	799.106	603.645
368.854	16.459	798.618	603.270
369.869	16.499	797.821	602.760
370.883	16.470	797.118	602.070
371.898	16.552	796.399	601.764
372.913	16.661	795.968	601.775
373.927	16.523	795.772	601.080
374.942	16.576	794.971	600.613
375.956	16.715	793.916	600.254
376.971	16.585	793.659	599.548
377.986	16.838	793.321	600.132
379.000	16.631	792.806	598.959
380.015	16.855	792.549	599.503
381.029	16.904	791.542	598.861
382.044	16.797	791.192	598.165
383.059	16.863	790.534	597.850
384.073	16.706	790.324	597.082
385.088	16.829	789.808	597.073
386.102	16.857	789.137	596.612
387.117	16.700	788.703	595.679
388.132	16.709	788.273	595.334
389.146	16.710	787.846	594.963
390.161	16.783	787.382	594.817
391.175	16.871	787.106	594.864
392.190	16.971	786.593	594.774
393.205	16.817	786.270	593.937
394.219	16.860	785.991	593.823
395.234	16.813	785.352	593.123
396.248	16.830	784.840	592.744
397.263	16.760	784.408	592.123
398.278	16.776	784.020	591.831
399.292	16.752	783.752	591.492
400.307	16.803	783.392	591.346
401.321	16.816	782.654	590.785
402.336	16.934	782.192	590.794
403.350	16.877	782.175	590.530
404.365	17.051	781.375	590.480
405.380	17.189	780.721	590.414
406.394	17.093	780.860	590.131
407.409	17.049	780.230	589.452
408.423	17.228	779.561	589.515
409.438	17.011	779.284	588.501
410.453	17.283	778.610	588.879
411.467	17.322	777.959	588.472
412.482	17.229	777.729	587.925
413.496	17.272	777.545	587.880
414.511	17.221	776.823	587.106
415.526	17.289	776.704	587.199
416.540	17.313	776.339	586.956
417.555	17.289	775.983	586.553
418.569	17.332	775.481	586.268
419.584	17.271	774.996	585.638
420.599	17.374	774.220	585.357
421.613	108.382	1287.599	1462.975
422.628	92.549	1362.401	1463.080
