DTS Sentinel unit serial number:	SN413079Multiplexer serial number:	ORYXHardware model number:	OX4-SRSoftware version number:	ORYX F/W v4.00 Oryx Data Collector v3.7.2.0data status	okinstallation	princeton_trtdifferential loss correction	single-endedforward channel	channel 3reverse channel	N/Adate	2019/09/15time	04:36:35forward acquisition time	60.00reverse acquisition time	0.00gamma	496.2192k internal	0.2323k external	0.2323temperature offset calibration	0.9974default loss term (dB/km)	0.3790temperature slope calibration	1.0000multiplexer offset coefficient	1.0000multiplexer slope coefficient	1.0000fibre end	0.00T internal ref (°C)	30.81T ext. ref 1 (°C)	4.68T ext. ref 2 (°C)	25.46length (m)	temperature (°C)	Stokes	anti-Stokes-747.200	89.965	0.130	0.146
-746.185	43.200	0.036	-0.033
-745.171	92.053	-0.072	0.082
-744.156	-175.488	0.369	-0.010
-743.142	-106.031	-0.056	-0.013
-742.127	87.816	-0.285	0.319
-741.112	-107.141	0.182	0.041
-740.098	-200.000	0.002	0.137
-739.083	105.068	-0.054	-0.064
-738.069	-200.000	-0.074	0.450
-737.054	633.842	-0.061	0.157
-736.039	-59.953	0.284	0.123
-735.025	46.057	0.228	0.213
-734.010	-127.593	-0.368	0.054
-732.996	125.343	0.082	-0.104
-731.981	-139.206	-0.385	-0.042
-730.966	-200.000	-0.002	0.169
-729.952	-58.945	-0.202	0.088
-728.937	56.935	0.317	-0.311
-727.923	4.297	0.314	-0.232
-726.908	-137.984	-0.122	-0.014
-725.894	556.165	-0.096	-0.232
-724.879	-106.063	-0.322	-0.073
-723.864	96.457	0.144	0.166
-722.850	-200.000	0.071	0.386
-721.835	-34.112	-0.549	-0.304
-720.821	800.000	-0.052	0.165
-719.806	-11.756	-0.073	-0.048
-718.791	784.405	0.147	-0.405
-717.777	-125.151	-0.182	-0.028
-716.762	305.304	0.038	-0.070
-715.748	-62.010	0.200	0.084
-714.733	-161.400	0.129	-0.007
-713.718	800.000	0.112	-0.410
-712.704	55.467	0.055	0.053
-711.689	345.926	0.050	-0.100
-710.675	346.683	-0.093	-0.185
-709.660	-200.000	0.009	-0.134
-708.645	-200.000	0.022	-0.442
-707.631	-15.799	-0.102	0.066
-706.616	800.000	0.026	-0.096
-705.602	29.003	0.217	-0.185
-704.587	-26.452	-0.215	-0.127
-703.572	800.000	-0.069	-0.199
-702.558	39.665	0.107	-0.097
-701.543	-40.497	-0.231	-0.121
-700.529	281.753	-0.083	-0.150
-699.514	800.000	-0.053	0.206
-698.499	11.306	-0.050	0.039
-697.485	66.600	0.173	0.178
-696.470	-200.000	0.020	-0.159
-695.456	281.382	0.052	0.094
-694.441	74.237	0.210	-0.222
-693.426	98.418	-0.157	-0.183
-692.412	800.000	-0.034	0.109
-691.397	-30.400	0.030	0.017
-690.383	-200.000	0.020	-0.238
-689.368	107.210	-0.190	0.228
-688.354	800.000	0.098	0.298
-687.339	54.696	0.045	0.044
-686.324	48.479	-0.086	0.081
-685.310	-69.152	0.148	0.057
-684.295	-200.000	0.198	0.001
-683.281	183.183	-0.072	-0.108
-682.266	-141.019	-0.231	0.024
-681.251	-133.644	-0.234	-0.029
-680.237	-110.900	0.336	-0.070
-679.222	-112.507	-0.146	0.029
-678.208	6.682	0.177	0.132
-677.193	800.000	-0.008	-0.035
-676.178	-54.748	-0.160	0.073
-675.164	-103.872	0.213	-0.050
-674.149	47.041	-0.293	0.274
-673.135	7.356	0.283	0.213
-672.120	454.350	-0.076	-0.170
-671.105	800.000	0.035	0.153
-670.091	156.835	0.061	0.084
-669.076	-200.000	0.024	-0.242
-668.062	345.854	0.172	0.339
-667.047	-200.000	-0.059	-0.280
-666.032	-105.257	0.136	-0.031
-665.018	470.801	-0.092	0.208
-664.003	108.080	-0.363	-0.435
-662.989	117.577	-0.123	-0.153
-661.974	800.000	0.105	-0.304
-660.959	-170.723	0.109	0.004
-659.945	226.005	0.107	0.175
-658.930	-151.084	-0.032	-0.002
-657.916	800.000	-0.133	-0.376
-656.901	96.438	0.195	0.225
-655.886	-154.945	0.599	0.040
-654.872	451.742	-0.127	-0.283
-653.857	-6.234	0.259	-0.178
-652.843	102.121	0.270	-0.318
-651.828	392.198	-0.078	0.162
-650.814	-96.705	0.271	0.072
-649.799	-200.000	0.003	0.145
-648.784	-17.777	-0.205	-0.129
-647.770	-151.148	-0.014	-0.001
-646.755	800.000	-0.031	0.100
-645.741	61.243	0.082	-0.082
-644.726	249.277	-0.129	0.219
-643.711	-67.549	-0.091	0.036
-642.697	-179.384	-0.158	0.003
-641.682	-162.095	0.133	-0.007
-640.668	83.510	-0.183	0.201
-639.653	-74.333	0.111	0.040
-638.638	-105.384	0.284	0.065
-637.624	-23.766	0.029	0.017
-636.609	-158.889	-0.372	0.021
-635.595	-65.719	-0.220	0.089
-634.580	-45.983	-0.198	-0.098
-633.565	86.061	-0.175	0.194
-632.551	800.000	0.049	0.175
-631.536	-106.519	0.133	0.030
-630.522	215.851	-0.110	-0.175
-629.507	178.345	-0.092	-0.135
-628.492	-27.677	0.180	-0.105
-627.478	-200.000	0.018	0.290
-626.463	48.292	-0.261	-0.246
-625.449	-8.692	-0.193	-0.130
-624.434	-130.410	0.193	0.026
-623.419	34.891	-0.239	-0.210
-622.405	-159.323	-0.270	-0.015
-621.390	75.294	0.100	-0.107
-620.376	-135.741	0.255	-0.030
-619.361	-121.121	-0.208	0.035
-618.346	-200.000	-0.025	-0.271
-617.332	-149.950	0.431	-0.034
-616.317	-200.000	0.007	0.142
-615.303	-200.000	-0.025	-0.333
-614.288	-200.000	-0.021	0.215
-613.273	800.000	0.138	0.412
-612.259	154.004	-0.133	-0.183
-611.244	75.979	-0.272	-0.289
-610.230	-167.939	0.187	0.007
-609.215	180.209	0.127	-0.188
-608.201	-94.169	0.124	0.034
-607.186	-84.547	-0.169	0.054
-606.171	-104.266	-0.395	-0.092
-605.157	111.255	0.174	0.211
-604.142	-101.284	-0.243	-0.060
-603.128	-200.000	0.001	0.124
-602.113	321.921	0.068	-0.131
-601.098	-71.339	-0.202	0.076
-600.084	-24.756	-0.090	0.054
-599.069	24.594	-0.209	-0.174
-598.055	191.631	0.195	-0.295
-597.040	-200.000	-0.013	0.192
-596.025	-84.302	-0.080	0.025
-595.011	-200.000	-0.009	0.184
-593.996	-200.000	-0.054	0.261
-592.982	800.000	0.117	0.336
-591.967	-126.230	0.040	-0.006
-590.952	-200.000	-0.001	-0.490
-589.938	211.460	0.129	0.204
-588.923	131.003	-0.098	0.127
-587.909	-143.632	0.065	0.006
-586.894	215.102	-0.145	0.231
-585.879	-81.583	0.327	0.108
-584.865	800.000	0.098	-0.365
-583.850	45.944	0.134	-0.125
-582.836	-99.909	-0.327	-0.082
-581.821	-94.518	-0.065	-0.018
-580.806	-36.978	-0.088	0.048
-579.792	127.825	0.258	-0.329
-578.777	34.209	-0.214	-0.187
-577.763	800.000	-0.068	-0.201
-576.748	26.606	-0.270	0.227
-575.733	246.947	0.357	0.605
-574.719	-97.719	-0.305	-0.079
-573.704	-91.671	-0.365	-0.104
-572.690	-200.000	0.018	0.185
-571.675	-47.442	0.346	-0.169
-570.661	-200.000	-0.022	-0.111
-569.646	39.358	-0.137	-0.123
-568.631	-27.495	0.307	0.179
-567.617	-200.000	0.006	-0.083
-566.602	19.928	0.114	0.092
-565.588	-200.000	-0.038	0.250
-564.573	-86.871	-0.151	-0.046
-563.558	170.328	0.027	-0.039
-562.544	10.365	-0.171	-0.131
-561.529	-200.000	-0.050	0.224
-560.515	292.245	0.090	0.164
-559.500	37.029	0.219	-0.194
-558.485	-20.977	0.092	-0.057
-557.471	-111.313	-0.033	-0.007
-556.456	-22.332	-0.313	0.190
-555.442	46.668	-0.121	0.112
-554.427	111.215	-0.137	0.166
-553.412	800.000	-0.034	-0.123
-552.398	-200.000	-0.010	0.055
-551.383	320.616	0.085	0.161
-550.369	-151.497	0.034	-0.003
-549.354	-145.900	0.249	-0.022
-548.339	-200.000	-0.028	-0.266
-547.325	-200.000	-0.031	-0.269
-546.310	-153.763	0.110	0.008
-545.296	213.025	-0.094	0.149
-544.281	121.865	0.119	-0.149
-543.266	270.920	-0.092	0.162
-542.252	-83.745	0.032	-0.010
-541.237	-58.801	-0.185	0.080
-540.223	-139.299	0.302	-0.033
-539.208	215.550	-0.252	0.401
-538.193	-200.000	-0.005	-0.288
-537.179	144.326	0.191	-0.255
-536.164	800.000	0.021	0.082
-535.150	-200.000	-0.039	-0.339
-534.135	-200.000	-0.042	0.263
-533.121	-200.000	0.008	-0.073
-532.106	-31.018	0.116	-0.065
-531.091	-29.855	-0.052	-0.030
-530.077	-53.320	-0.223	-0.103
-529.062	305.852	-0.067	0.125
-528.048	-200.000	-0.050	-0.269
-527.033	-1.957	0.172	-0.121
-526.018	-148.444	-0.115	0.009
-525.004	800.000	0.051	-0.212
-523.989	-60.315	-0.205	-0.087
-522.975	800.000	0.056	-0.230
-521.960	-107.199	0.041	-0.009
-520.945	249.442	-0.096	-0.162
-519.931	-33.623	-0.254	0.140
-518.916	209.419	-0.067	0.105
-517.902	-85.004	-0.381	-0.120
-516.887	155.208	0.120	0.165
-515.872	103.700	0.242	-0.284
-514.858	-106.837	0.170	0.038
-513.843	-68.021	0.211	-0.082
-512.829	-200.000	-0.033	-0.178
-511.814	12.952	-0.237	0.183
-510.799	24.430	0.064	-0.053
-509.785	324.939	0.124	0.237
-508.770	140.496	0.154	-0.203
-507.756	-25.623	0.092	-0.055
-506.741	-156.764	-0.165	0.010
-505.726	129.251	-0.252	-0.322
-504.712	59.911	-0.202	0.199
-503.697	285.019	0.134	0.242
-502.683	157.508	0.037	-0.051
-501.668	-135.852	-0.051	0.006
-500.653	-1.989	-0.072	0.051
-499.639	-200.000	-0.002	-0.058
-498.624	9.463	0.202	0.153
-497.610	-10.842	-0.054	-0.036
-496.595	235.363	-0.164	-0.270
-495.581	-19.169	0.096	0.060
-494.566	249.988	0.283	-0.481
-493.551	51.260	-0.106	-0.100
-492.537	6.330	0.180	-0.134
-491.522	-182.874	0.126	-0.002
-490.508	49.427	0.037	0.034
-489.493	228.368	0.131	0.213
-488.478	-46.950	0.092	-0.045
-487.464	64.981	-0.188	0.190
-486.449	-53.974	-0.117	0.053
-485.435	800.000	0.038	-0.158
-484.420	-200.000	0.018	-0.133
-483.405	-111.581	-0.199	-0.040
-482.391	-34.989	0.489	0.266
-481.376	-79.127	0.276	0.094
-480.362	31.244	0.141	-0.121
-479.347	162.815	-0.073	0.103
-478.332	461.189	-0.073	0.162
-477.318	-3.280	0.228	-0.159
-476.303	-65.806	0.155	0.062
-475.289	-200.000	-0.006	-0.131
-474.274	-27.655	0.212	-0.123
-473.259	719.926	-0.078	-0.207
-472.245	-112.519	0.429	-0.085
-471.230	800.000	-0.054	-0.235
-470.216	-200.000	0.007	-0.190
-469.201	466.725	-0.088	-0.198
-468.186	-26.502	-0.284	-0.166
-467.172	-162.156	0.273	-0.014
-466.157	90.060	-0.167	0.186
-465.143	-191.874	0.316	0.003
-464.128	-97.376	0.295	0.077
-463.113	-66.250	0.191	-0.076
-462.099	-16.995	-0.296	0.187
-461.084	85.283	0.124	0.136
-460.070	107.354	-0.282	-0.335
-459.055	-31.571	0.046	-0.026
-458.040	-1.998	0.078	0.055
-457.026	-200.000	0.037	-0.341
-456.011	-6.710	-0.145	-0.099
-454.997	-69.622	-0.316	-0.121
-453.982	-130.252	0.228	0.031
-452.968	-132.917	0.036	-0.005
-451.953	328.208	0.078	0.149
-450.938	575.341	0.071	-0.174
-449.924	-38.290	-0.271	0.143
-448.909	431.102	0.097	0.209
-447.895	202.457	-0.144	-0.222
-446.880	-200.000	-0.041	-0.189
-445.865	-13.662	-0.324	-0.209
-444.851	-161.495	0.343	0.018
-443.836	123.570	0.133	-0.167
-442.822	-4.962	0.235	-0.162
-441.807	-200.000	0.003	0.154
-440.792	289.352	-0.038	0.069
-439.778	-200.000	0.080	-0.360
-438.763	7.733	0.220	0.165
-437.749	-133.595	-0.450	0.056
-436.734	583.417	0.097	0.237
-435.719	-120.930	-0.223	-0.037
-434.705	-98.385	0.284	0.072
-433.690	-200.000	0.060	-0.277
-432.676	-200.000	-0.003	0.079
-431.661	-200.000	0.020	0.125
-430.646	88.118	0.362	-0.401
-429.632	-200.000	0.057	-0.534
-428.617	108.471	0.145	0.172
-427.603	125.642	-0.056	0.071
-426.588	800.000	0.119	0.485
-425.573	35.759	-0.114	-0.100
-424.559	16.278	-0.198	-0.156
-423.544	800.000	-0.113	-0.427
-422.530	-58.338	-0.046	0.020
-421.515	800.000	-0.054	-0.201
-420.500	-200.000	0.006	-0.116
-419.486	-114.444	0.089	0.017
-418.471	-161.613	-0.239	-0.012
-417.457	643.116	-0.012	-0.030
-416.442	-62.040	-0.226	-0.094
-415.428	-200.000	0.026	0.149
-414.413	40.322	0.048	-0.043
-413.398	307.863	-0.210	-0.391
-412.384	-200.000	0.030	-0.266
-411.369	-114.236	0.292	-0.056
-410.355	-17.007	-0.138	-0.087
-409.340	110.087	0.222	0.266
-408.325	-14.639	-0.126	-0.080
-407.311	-10.748	0.145	0.096
-406.296	356.225	0.091	0.180
-405.282	387.360	0.109	0.225
-404.267	800.000	0.046	-0.168
-403.252	-5.492	-0.058	0.040
-402.238	199.486	0.061	-0.093
-401.223	0.542	0.093	0.066
-400.209	56.707	0.174	-0.169
-399.194	600.433	0.027	0.067
-398.179	-200.000	-0.007	0.115
-397.165	447.762	-0.071	0.155
-396.150	-200.000	-0.010	0.165
-395.136	-200.000	0.007	0.160
-394.121	-200.000	0.059	-0.308
-393.106	-182.160	-0.314	0.006
-392.092	-111.453	0.246	0.050
-391.077	800.000	0.167	0.534
-390.063	-58.660	-0.220	0.095
-389.048	-29.517	-0.269	-0.153
-388.033	-200.000	-0.004	0.098
-387.019	-200.000	-0.006	0.119
-386.004	-41.743	-0.060	-0.030
-384.990	-107.509	-0.232	0.051
-383.975	121.832	0.270	0.336
-382.960	677.530	-0.105	0.271
-381.946	795.782	0.077	-0.212
-380.931	800.000	-0.093	-0.315
-379.917	-200.000	-0.028	0.226
-378.902	-20.963	-0.184	0.112
-377.888	800.000	-0.037	0.133
-376.873	371.559	-0.227	0.459
-375.858	157.032	0.174	-0.239
-374.844	-6.216	-0.145	0.099
-373.829	-200.000	-0.034	-0.254
-372.815	355.156	0.042	0.083
-371.800	800.000	-0.056	0.168
-370.785	201.372	-0.159	0.244
-369.771	187.178	-0.060	-0.089
-368.756	15.790	0.229	0.179
-367.742	-77.389	0.216	0.075
-366.727	800.000	-0.052	-0.158
-365.712	-18.922	-0.097	-0.060
-364.698	-15.557	0.439	0.279
-363.683	-200.000	-0.023	0.237
-362.669	97.216	0.078	-0.089
-361.654	-87.356	-0.151	-0.046
-360.639	233.276	0.105	0.173
-359.625	-119.009	0.020	0.004
-358.610	-53.789	-0.465	0.211
-357.596	-57.932	-0.139	-0.061
-356.581	4.028	-0.124	0.090
-355.566	-85.398	-0.179	0.055
-354.552	193.486	0.006	-0.009
-353.537	66.182	-0.119	-0.120
-352.523	165.712	0.187	0.263
-351.508	800.000	-0.107	-0.300
-350.493	800.000	0.015	0.057
-349.479	-26.274	-0.219	0.128
-348.464	-63.681	-0.032	-0.013
-347.450	-200.000	0.042	0.226
-346.435	161.662	-0.225	0.313
-345.420	800.000	0.079	-0.225
-344.406	800.000	0.051	0.220
-343.391	237.270	-0.013	0.022
-342.377	800.000	-0.100	0.365
-341.362	111.144	0.177	-0.212
-340.348	-30.022	0.085	-0.048
-339.333	-200.000	0.011	0.109
-338.318	68.463	0.119	-0.122
-337.304	-84.630	0.300	0.094
-336.289	-200.000	-0.015	-0.193
-335.275	147.875	-0.153	0.205
-334.260	-123.004	0.273	-0.044
-333.245	-184.122	-0.217	-0.004
-332.231	151.764	0.034	-0.047
-331.216	308.603	0.076	-0.140
-330.202	800.000	0.014	-0.043
-329.187	-23.625	-0.149	0.089
-328.172	731.383	-0.130	0.345
-327.158	56.034	0.270	-0.260
-326.143	-200.000	-0.039	-0.253
-325.129	-77.682	0.194	0.067
-324.114	-69.494	-0.147	0.056
-323.099	-200.000	-0.049	-0.265
-322.085	-96.504	-0.210	0.055
-321.070	-105.358	-0.046	-0.010
-320.056	12.772	0.084	-0.064
-319.041	-200.000	-0.002	0.109
-318.026	-200.000	0.005	-0.291
-317.012	270.622	-0.046	-0.080
-315.997	-11.216	-0.022	-0.014
-314.983	127.432	0.033	0.042
-313.968	-122.077	-0.109	0.018
-312.953	63.186	0.217	-0.216
-311.939	-200.000	0.007	0.105
-310.924	116.322	0.023	0.028
-309.910	25.207	0.234	0.193
-308.895	50.155	0.205	0.193
-307.880	-23.175	0.163	0.098
-306.866	-84.963	-0.180	0.056
-305.851	-200.000	0.046	-0.208
-304.837	-200.000	0.023	-0.205
-303.822	-41.130	-0.162	-0.083
-302.807	250.532	0.028	0.046
-301.793	42.981	-0.194	0.176
-300.778	-73.158	0.156	-0.057
-299.764	-91.845	0.299	-0.084
-298.749	-93.383	-0.625	-0.172
-297.735	7.495	-0.215	0.159
-296.720	800.000	0.063	0.259
-295.705	800.000	0.025	-0.073
-294.691	800.000	0.019	0.060
-293.676	800.000	-0.119	-0.370
-292.662	74.197	-0.038	-0.040
-291.647	-101.722	0.108	0.026
-290.632	4.291	-0.152	0.111
-289.618	-27.931	0.145	0.083
-288.603	-133.694	0.219	-0.027
-287.589	118.521	0.031	-0.037
-286.574	68.342	0.048	0.049
-285.559	-200.000	0.039	-0.181
-284.545	-200.000	-0.042	0.480
-283.530	-10.035	0.053	-0.035
-282.516	-200.000	0.014	-0.274
-281.501	283.523	0.109	0.195
-280.486	-200.000	0.029	0.133
-279.472	-23.783	-0.181	0.107
-278.457	-200.000	-0.029	0.228
-277.443	292.168	0.138	-0.250
-276.428	-200.000	0.021	-0.124
-275.413	800.000	-0.060	0.205
-274.399	38.296	0.267	-0.235
-273.384	100.886	0.141	0.163
-272.370	-23.821	0.223	0.132
-271.355	-55.160	-0.126	-0.056
-270.340	147.376	-0.200	0.267
-269.326	-200.000	0.017	0.436
-268.311	19.984	0.176	-0.141
-267.297	800.000	-0.118	0.452
-266.282	800.000	-0.071	0.201
-265.267	50.752	-0.114	0.107
-264.253	97.065	0.012	0.014
-263.238	140.435	-0.058	0.076
-262.224	-77.799	-0.181	-0.062
-261.209	26.984	0.159	-0.132
-260.195	51.503	-0.283	-0.266
-259.180	-200.000	-0.028	-0.428
-258.165	-178.582	0.096	0.002
-257.151	280.402	0.103	0.182
-256.136	-200.000	0.001	0.045
-255.122	-18.181	0.307	-0.190
-254.107	-23.777	0.183	-0.109
-253.092	-200.000	-0.001	0.033
-252.078	-200.000	0.018	0.183
-251.063	-160.015	-0.100	-0.005
-250.049	-200.000	-0.008	0.110
-249.034	244.906	-0.288	-0.480
-248.019	-200.000	-0.006	-0.237
-247.005	-60.643	-0.133	0.056
-245.990	410.459	-0.101	0.212
-244.976	155.409	-0.064	0.087
-243.961	800.000	0.006	-0.023
-242.946	0.775	-0.016	0.012
-241.932	207.690	-0.144	0.223
-240.917	82.829	-0.203	0.219
-239.903	357.945	-0.095	0.187
-238.888	-50.696	-0.075	-0.035
-237.873	15.858	-0.126	-0.098
-236.859	0.275	0.146	-0.103
-235.844	-200.000	-0.025	0.244
-234.830	800.000	0.086	-0.360
-233.815	-135.328	0.134	0.016
-232.800	-200.000	0.025	0.134
-231.786	24.940	-0.253	-0.207
-230.771	265.200	-0.092	0.159
-229.757	325.559	0.142	0.269
-228.742	-200.000	0.013	0.193
-227.727	280.702	-0.075	0.133
-226.713	-171.192	-0.282	-0.009
-225.698	-44.600	-0.230	-0.114
-224.684	-34.711	0.213	0.115
-223.669	-15.939	0.097	-0.061
-222.655	-17.036	0.091	0.057
-221.640	-32.019	0.174	0.096
-220.625	256.046	-0.229	-0.389
-219.611	60.999	-0.149	-0.147
-218.596	43.699	0.226	0.205
-217.582	362.368	0.134	0.267
-216.567	564.324	-0.080	-0.192
-215.552	168.303	0.139	-0.195
-214.538	15.186	0.110	-0.085
-213.523	-38.927	0.032	0.017
-212.509	-44.363	-0.202	0.100
-211.494	-47.135	-0.293	0.141
-210.479	-108.395	-0.086	-0.018
-209.465	371.939	-0.061	-0.123
-208.450	102.599	-0.074	0.085
-207.436	12.443	0.262	0.200
-206.421	-75.488	0.088	-0.031
-205.406	-26.635	0.197	0.114
-204.392	201.501	-0.073	0.111
-203.377	-124.800	-0.192	-0.029
-202.363	-200.000	0.019	-0.147
-201.348	291.547	-0.258	0.464
-200.333	232.647	-0.086	-0.139
-199.319	-185.260	0.318	0.005
-198.304	-60.842	-0.275	0.115
-197.290	-200.000	-0.075	0.000
-196.275	37.365	0.271	-0.238
-195.260	176.864	-0.085	-0.122
-194.246	-90.667	0.606	-0.173
-193.231	259.763	-0.087	0.148
-192.217	-200.000	0.007	0.048
-191.202	800.000	0.162	0.465
-190.187	127.367	-0.072	-0.090
-189.173	-200.000	0.013	-0.190
-188.158	144.361	0.019	-0.025
-187.144	64.148	0.190	-0.189
-186.129	139.716	0.081	-0.106
-185.114	54.629	-0.087	0.083
-184.100	29.793	0.275	-0.231
-183.085	-38.070	-0.219	-0.115
-182.071	-200.000	-0.020	-0.106
-181.056	-6.414	0.188	0.127
-180.042	-86.138	0.133	-0.041
-179.027	-6.090	-0.197	0.133
-178.012	326.103	-0.097	-0.183
-176.998	-40.079	-0.381	-0.196
-175.983	-200.000	0.000	0.181
-174.969	-200.000	0.028	-0.249
-173.954	-121.968	0.367	0.060
-172.939	-200.000	-0.028	-0.282
-171.925	-26.527	-0.062	0.036
-170.910	566.526	0.114	-0.274
-169.896	395.493	-0.082	0.168
-168.881	38.082	0.250	0.219
-167.866	-143.269	0.340	-0.032
-166.852	-99.522	0.163	-0.041
-165.837	-200.000	0.002	-0.110
-164.823	-13.262	0.147	0.094
-163.808	-200.000	-0.020	0.116
-162.793	-0.550	0.088	-0.062
-161.779	-88.704	0.081	0.024
-160.764	-200.000	-0.019	-0.117
-159.750	-114.751	-0.210	0.040
-158.735	56.205	0.360	0.345
-157.720	-200.000	0.008	0.044
-156.706	-61.365	-0.330	-0.137
-155.691	-28.175	0.219	0.125
-154.677	800.000	-0.007	-0.024
-153.662	88.399	0.154	0.168
-152.647	34.657	0.139	0.120
-151.633	35.410	-0.101	0.087
-150.618	677.946	-0.053	0.136
-149.604	-150.108	-0.081	0.006
-148.589	200.243	0.101	0.153
-147.574	525.866	0.071	-0.164
-146.560	800.000	-0.025	-0.097
-145.545	-88.463	0.318	-0.094
-144.531	-200.000	-0.037	0.394
-143.516	-112.116	0.289	-0.057
-142.502	-37.820	0.156	-0.082
-141.487	800.000	-0.008	-0.027
-140.472	-200.000	-0.012	0.167
-139.458	-34.002	0.219	0.119
-138.443	-200.000	-0.004	0.050
-137.429	39.907	0.071	-0.063
-136.414	-131.560	0.303	0.039
-135.399	30.984	0.168	0.142
-134.385	-51.555	0.052	0.024
-133.370	-15.632	0.261	-0.164
-132.356	-60.355	0.103	-0.043
-131.341	265.218	-0.112	0.192
-130.326	25.124	0.318	-0.260
-129.312	-1.041	0.101	-0.071
-128.297	-181.953	0.220	0.004
-127.283	-92.067	-0.106	0.030
-126.268	28.241	0.093	-0.078
-125.253	558.384	-0.125	-0.298
-124.239	327.235	0.020	-0.038
-123.224	-165.966	-0.108	0.005
-122.210	-200.000	0.116	-0.607
-121.195	122.744	0.084	0.103
-120.180	58.729	0.309	-0.299
-119.166	-47.256	-0.173	0.083
-118.151	800.000	0.037	0.117
-117.137	-148.294	-0.269	-0.022
-116.122	800.000	0.013	-0.042
-115.107	800.000	-0.024	-0.081
-114.093	-77.547	-0.186	0.064
-113.078	576.743	-0.057	0.137
-112.064	108.328	-0.157	0.185
-111.049	-40.051	0.109	0.056
-110.034	336.337	-0.076	0.146
-109.020	-145.965	0.167	-0.015
-108.005	792.693	-0.029	0.080
-106.991	-96.230	0.150	0.039
-105.976	-45.105	0.241	-0.118
-104.962	162.325	-0.014	0.019
-103.947	-80.683	-0.301	0.099
-102.932	-60.452	0.302	0.127
-101.918	-139.806	-0.243	0.025
-100.903	-200.000	0.065	0.388
-99.889	-106.070	0.273	-0.060
-98.874	-114.032	-0.276	-0.053
-97.859	800.000	-0.047	-0.129
-96.845	800.000	-0.119	-0.413
-95.830	-29.617	-0.226	-0.127
-94.816	2.292	-0.186	-0.132
-93.801	305.168	0.112	0.205
-92.786	-129.333	0.228	-0.031
-91.772	-200.000	-0.017	0.294
-90.757	-36.984	-0.149	0.079
-89.743	306.504	-0.129	0.237
-88.728	461.332	-0.062	0.135
-87.713	-200.000	0.005	-0.223
-86.699	87.785	0.014	0.015
-85.684	-75.220	-0.092	0.032
-84.670	800.000	0.084	0.247
-83.655	280.635	0.115	-0.203
-82.640	800.000	0.068	0.258
-81.626	268.605	-0.075	0.130
-80.611	800.000	-0.084	0.238
-79.597	-129.378	0.089	-0.012
-78.582	-145.858	0.342	0.030
-77.567	-200.000	-0.009	-0.142
-76.553	227.083	0.151	-0.242
-75.538	95.303	-0.133	0.149
-74.524	104.074	-0.068	0.079
-73.509	-200.000	-0.065	0.340
-72.494	104.428	-0.067	-0.078
-71.480	-179.567	0.278	-0.006
-70.465	45.755	-0.187	-0.170
-69.451	-104.212	0.259	-0.059
-68.436	786.931	0.176	-0.474
-67.422	800.000	-0.011	-0.032
-66.407	-141.181	0.221	0.022
-65.392	-18.988	-0.316	0.193
-64.378	-117.963	-0.436	-0.077
-63.363	-134.990	-0.298	0.035
-62.349	-55.822	0.146	0.064
-61.334	69.081	-0.891	-0.900
-60.319	199.113	0.228	0.343
-59.305	800.000	-0.252	-1.080
-58.290	143.729	0.919	1.204
-57.276	590.913	0.542	1.314
-56.261	-200.000	102.476	594.711
-55.246	559.466	1427.015	3386.763
-54.232	189.044	2611.840	3844.576
-53.217	116.127	2164.024	2605.004
-52.203	41.541	1696.300	1509.456
-51.188	33.908	1507.137	1289.525
-50.173	31.641	1479.538	1250.735
-49.159	51.487	1532.527	1431.050
-48.144	53.251	1549.598	1458.935
-47.130	34.194	1507.290	1291.392
-46.115	31.061	1492.959	1257.970
-45.100	30.920	1489.232	1253.834
-44.086	30.846	1487.562	1251.881
-43.071	30.916	1484.954	1250.107
-42.057	30.835	1483.528	1248.310
-41.042	30.791	1482.529	1247.127
-40.027	30.832	1480.750	1245.857
-39.013	30.795	1479.230	1244.282
-37.998	30.687	1478.210	1242.649
-36.984	30.721	1476.827	1241.667
-35.969	30.672	1475.586	1240.249
-34.954	30.785	1474.054	1239.659
-33.940	30.760	1472.918	1238.494
-32.925	30.830	1471.424	1237.648
-31.911	30.904	1469.900	1236.808
-30.896	30.897	1468.904	1235.875
-29.881	30.939	1467.405	1234.846
-28.867	30.890	1466.241	1233.493
-27.852	30.901	1464.585	1232.126
-26.838	30.969	1463.171	1231.335
-25.823	30.929	1461.756	1229.831
-24.809	30.877	1460.137	1228.078
-23.794	30.885	1458.689	1226.864
-22.779	30.936	1457.988	1226.560
-21.765	30.849	1457.101	1225.193
-20.750	30.845	1455.542	1223.809
-19.736	30.701	1455.062	1222.409
-18.721	30.792	1453.451	1221.606
-17.706	30.754	1452.390	1220.412
-16.692	30.804	1451.187	1219.685
-15.677	30.756	1450.017	1218.335
-14.663	30.853	1448.733	1217.842
-13.648	30.817	1448.181	1217.097
-12.633	30.814	1447.078	1216.099
-11.619	30.725	1446.825	1215.261
-10.604	30.844	1445.472	1214.851
-9.590	30.763	1444.991	1213.874
-8.575	30.878	1443.782	1213.553
-7.560	30.783	1443.460	1212.621
-6.546	30.749	1442.292	1211.370
-5.531	30.748	1441.024	1210.247
-4.517	30.752	1440.602	1209.870
-3.502	30.751	1439.266	1208.694
-2.487	30.771	1438.609	1208.228
-1.473	30.801	1437.266	1207.245
-0.458	30.682	1436.444	1205.732
0.556	29.516	1426.501	1194.796
1.571	26.500	1401.787	1154.780
2.586	23.171	1343.246	1086.059
3.600	21.517	1262.922	1011.476
4.615	20.180	1217.286	967.386
5.629	17.499	1161.775	908.895
6.644	10.739	1080.054	811.227
7.659	5.432	1042.454	757.275
8.673	4.838	1037.005	750.390
9.688	4.795	1033.784	747.785
10.702	4.597	1032.272	745.675
11.717	4.510	1030.853	744.170
12.731	6.619	1031.414	754.604
13.746	13.023	1040.951	792.348
14.761	18.000	1047.132	820.959
15.775	18.268	1046.546	821.714
16.790	17.327	1044.294	815.363
17.804	16.267	1041.948	808.389
18.819	15.313	1040.472	802.607
19.834	14.941	1039.217	799.788
20.848	14.695	1037.813	797.463
21.863	14.569	1036.768	795.988
22.877	14.239	1036.495	794.133
23.892	14.105	1035.453	792.626
24.907	13.889	1035.115	791.266
25.921	14.053	1034.073	791.184
26.936	14.066	1032.949	790.317
27.950	14.050	1032.061	789.490
28.965	13.965	1031.527	788.609
29.980	14.034	1030.302	787.926
30.994	14.111	1029.304	787.461
32.009	14.344	1027.453	787.077
33.023	14.345	1027.259	786.862
34.038	14.379	1026.404	786.299
35.053	14.172	1025.847	784.827
36.067	14.158	1024.714	783.821
37.082	14.124	1023.654	782.784
38.096	14.114	1022.751	781.973
39.111	14.116	1022.369	781.623
40.126	14.161	1021.290	780.941
41.140	14.217	1020.227	780.323
42.155	14.073	1018.883	778.549
43.169	13.941	1017.841	777.066
44.184	13.924	1016.986	776.267
45.199	13.946	1015.949	775.509
46.213	13.909	1015.108	774.626
47.228	13.942	1014.390	774.164
48.242	14.049	1013.114	773.618
49.257	14.106	1012.254	773.158
50.271	14.132	1011.135	772.357
51.286	14.110	1010.423	771.645
52.301	14.211	1009.678	771.472
53.315	14.083	1009.542	770.708
54.330	14.004	1008.385	769.389
55.344	14.017	1007.189	768.470
56.359	14.029	1006.221	767.720
57.374	13.959	1005.364	766.673
58.388	13.966	1004.620	766.069
59.403	13.981	1003.465	765.192
60.417	13.902	1002.837	764.282
61.432	13.860	1002.420	763.704
62.447	13.903	1001.284	762.966
63.461	13.915	1000.796	762.583
64.476	13.839	999.715	761.345
65.490	13.759	999.109	760.447
66.505	13.770	998.083	759.651
67.520	13.794	997.491	759.244
68.534	13.922	996.454	758.970
69.549	13.884	995.992	758.378
70.563	13.859	995.511	757.833
71.578	13.906	994.708	757.369
72.593	13.824	993.666	756.132
73.607	13.681	992.858	754.801
74.622	13.719	991.916	754.189
75.636	13.676	991.176	753.366
76.651	13.772	990.154	752.957
77.666	13.842	989.299	752.557
78.680	13.766	989.125	752.015
79.695	13.857	987.860	751.398
80.709	13.803	987.604	750.894
81.724	13.831	986.974	750.472
82.739	13.931	986.531	750.523
83.753	13.990	985.681	750.077
84.768	14.019	984.669	749.368
85.782	14.165	984.175	749.584
86.797	14.205	983.442	749.143
87.812	14.239	982.655	748.628
88.826	14.173	982.083	747.831
89.841	14.074	981.165	746.621
90.855	14.233	979.796	746.224
91.870	14.140	979.416	745.454
92.884	14.309	978.902	745.753
93.899	14.244	977.490	744.321
94.914	14.066	977.696	743.616
95.928	14.249	976.507	743.461
96.943	14.356	976.039	743.517
97.957	14.243	975.216	742.320
98.972	14.268	974.114	741.527
99.987	14.140	973.699	740.577
101.001	14.289	972.738	740.445
102.016	14.142	972.219	739.329
103.030	14.050	971.316	738.170
104.045	14.182	970.302	737.919
105.060	14.306	969.002	737.412
106.074	14.238	968.058	736.331
107.089	13.945	968.073	734.979
108.103	13.967	966.301	733.664
109.118	13.861	965.628	732.621
110.133	13.869	964.833	731.990
111.147	13.987	963.717	731.599
112.162	13.914	963.362	730.940
113.176	13.953	962.335	730.269
114.191	13.954	961.167	729.323
115.206	13.992	960.863	729.196
116.220	14.012	959.641	728.292
117.235	13.948	959.143	727.569
118.249	14.033	958.102	727.087
119.264	14.024	957.292	726.367
120.279	13.915	956.882	725.515
121.293	13.886	955.513	724.286
122.308	13.846	955.075	723.716
123.322	13.923	954.271	723.379
124.337	13.912	953.286	722.522
125.352	13.769	952.192	721.008
126.366	13.834	950.785	720.157
127.381	13.885	949.962	719.694
128.395	13.763	948.820	718.236
129.410	13.808	948.199	717.897
130.424	13.865	947.248	717.358
131.439	13.941	946.108	716.759
132.454	13.946	945.511	716.265
133.468	14.031	944.699	715.955
134.483	14.075	944.195	715.700
135.497	13.944	943.547	714.579
136.512	14.135	942.930	714.871
137.527	14.078	941.954	713.825
138.541	13.929	941.424	712.720
139.556	13.985	940.604	712.274
140.570	13.992	940.171	711.912
141.585	14.017	939.201	711.223
142.600	14.136	938.459	711.106
143.614	14.232	937.944	711.064
144.629	14.176	937.419	710.362
145.643	14.182	936.324	709.499
146.658	14.238	935.401	708.975
147.673	14.319	934.458	708.543
148.687	14.234	933.790	707.612
149.702	14.138	932.755	706.355
150.716	14.043	931.927	705.264
151.731	14.156	930.952	704.940
152.746	14.149	930.025	704.148
153.760	14.072	929.903	703.667
154.775	14.189	929.175	703.549
155.789	14.055	928.614	702.494
156.804	14.284	927.567	702.607
157.819	14.405	926.800	702.476
158.833	14.272	926.118	701.334
159.848	14.324	925.470	701.004
160.862	14.519	924.762	701.225
161.877	14.389	924.134	700.140
162.892	14.336	923.216	699.158
163.906	14.148	922.040	697.417
164.921	14.024	921.610	696.511
165.935	14.068	920.293	695.638
166.950	14.207	919.500	695.558
167.964	14.325	918.540	695.264
168.979	14.256	917.650	694.242
169.994	14.303	916.857	693.776
171.008	14.137	916.787	692.970
172.023	14.201	915.585	692.267
173.037	14.363	914.697	692.206
174.052	14.318	913.827	691.300
175.067	14.327	913.370	690.933
176.081	14.321	912.096	689.882
177.096	14.117	911.236	688.324
178.110	14.252	910.430	688.216
179.125	14.189	910.152	687.683
180.140	14.245	909.245	687.168
181.154	14.407	908.281	687.045
182.169	14.368	908.052	686.651
183.183	14.295	907.309	685.730
184.198	14.514	906.671	686.086
185.213	14.518	905.868	685.433
186.227	14.464	905.328	684.743
187.242	14.495	905.129	684.658
188.256	14.569	904.450	684.389
189.271	14.577	903.578	683.703
190.286	14.677	902.724	683.402
191.300	14.487	902.243	682.200
192.315	14.340	901.224	680.772
193.329	14.135	900.824	679.569
194.344	14.187	899.992	679.093
195.359	14.260	899.486	678.951
196.373	14.413	898.600	678.846
197.388	14.373	898.532	678.570
198.402	14.496	898.195	678.759
199.417	14.722	897.576	679.149
200.432	14.900	896.954	679.339
201.446	14.873	896.893	679.126
202.461	14.885	896.429	678.760
203.475	14.867	895.875	678.211
204.490	14.764	895.493	677.444
205.504	14.775	894.515	676.688
206.519	14.760	893.713	675.962
207.534	14.624	892.905	674.739
208.548	14.604	892.103	673.991
209.563	14.621	891.615	673.633
210.577	14.798	890.710	673.604
211.592	14.708	890.244	672.829
212.607	14.925	889.718	673.244
213.621	14.905	889.300	672.788
214.636	14.858	888.407	671.865
215.650	14.899	887.917	671.599
216.665	14.831	887.446	670.911
217.680	14.847	886.745	670.388
218.694	15.039	886.303	670.760
219.709	15.012	885.863	670.261
220.723	14.983	885.288	669.652
221.738	14.977	884.474	668.954
222.753	14.926	883.900	668.254
223.767	14.975	883.048	667.747
224.782	15.017	882.327	667.312
225.796	15.055	881.449	666.740
226.811	15.099	881.093	666.584
227.826	15.157	880.307	666.162
228.840	15.156	879.607	665.569
229.855	15.090	878.787	664.629
230.869	14.964	878.696	664.001
231.884	14.984	877.820	663.358
232.899	14.942	876.857	662.406
233.913	14.878	876.687	661.966
234.928	15.018	875.499	661.563
235.942	14.878	875.001	660.578
236.957	14.871	874.601	660.188
237.972	14.901	873.849	659.683
238.986	14.974	873.415	659.581
240.001	14.920	872.449	658.582
241.015	15.116	871.606	658.659
242.030	14.978	870.857	657.491
243.045	15.136	870.333	657.660
244.059	15.179	869.985	657.507
245.074	15.175	868.825	656.557
246.088	15.086	868.604	655.983
247.103	15.149	868.131	655.815
248.117	15.200	867.210	655.259
249.132	15.450	866.130	655.361
250.147	15.359	866.508	655.234
251.161	15.461	865.778	655.024
252.176	15.642	864.957	655.049
253.190	15.662	864.220	654.510
254.205	15.673	863.885	654.242
255.220	15.755	863.083	653.895
256.234	15.692	862.872	653.432
257.249	15.745	861.889	652.837
258.263	15.668	861.653	652.300
259.278	15.645	860.873	651.562
260.293	15.635	860.476	651.166
261.307	15.787	860.133	651.439
262.322	15.938	859.014	651.115
263.336	15.934	858.614	650.741
264.351	15.758	858.119	649.627
265.366	15.795	857.807	649.477
266.380	15.865	856.767	648.901
267.395	15.884	856.299	648.563
268.409	15.838	855.593	647.795
269.424	15.834	854.871	647.174
270.439	15.895	853.676	646.446
271.453	15.868	853.177	645.910
272.468	15.737	852.588	644.904
273.482	15.775	851.686	644.311
274.497	15.775	851.822	644.355
275.512	15.729	851.081	643.561
276.526	15.676	850.171	642.613
277.541	15.756	849.408	642.284
278.555	15.736	849.076	641.901
279.570	15.824	848.686	641.886
280.585	15.904	848.193	641.761
281.599	16.076	847.502	641.835
282.614	15.881	846.685	640.420
283.628	15.985	846.088	640.306
284.643	15.899	845.575	639.535
285.657	16.100	845.143	639.916
286.672	15.998	844.617	639.071
287.687	16.083	844.087	638.937
288.701	16.053	843.446	638.280
289.716	15.851	843.044	637.158
290.730	15.976	842.636	637.264
291.745	16.282	841.389	637.422
292.760	16.093	841.090	636.423
293.774	16.075	840.552	635.893
294.789	16.133	840.116	635.727
295.803	16.185	839.223	635.191
296.818	16.234	838.778	634.982
297.833	16.232	838.063	634.376
298.847	16.144	837.288	633.404
299.862	16.123	836.779	632.883
300.876	16.306	836.258	633.119
301.891	16.197	835.528	632.100
302.906	16.385	834.679	632.109
303.920	16.190	834.595	631.257
304.935	16.362	833.918	631.335
305.949	16.436	833.614	631.325
306.964	16.533	832.826	631.033
307.979	16.515	831.992	630.277
308.993	16.516	831.669	629.980
310.008	16.441	830.927	629.083
311.022	16.483	830.426	628.805
312.037	16.508	830.006	628.525
313.052	16.444	829.384	627.762
314.066	16.290	829.043	626.874
315.081	16.220	828.663	626.273
316.095	16.280	827.859	625.831
317.110	16.409	827.330	625.854
318.125	16.304	826.837	625.037
319.139	16.295	826.295	624.540
320.154	16.267	825.646	623.888
321.168	16.324	825.040	623.589
322.183	16.437	824.633	623.640
323.197	16.377	824.316	623.125
324.212	16.467	823.470	622.762
325.227	16.461	823.106	622.408
326.241	16.495	822.229	621.816
327.256	16.396	821.925	621.169
328.270	16.360	821.628	620.756
329.285	16.419	821.044	620.475
330.300	16.448	820.439	620.069
331.314	16.505	819.506	619.520
332.329	16.514	818.828	618.984
333.343	16.562	818.242	618.664
334.358	16.584	817.949	618.467
335.373	16.562	817.284	617.829
336.387	16.700	816.755	617.877
337.402	16.670	816.273	617.350
338.416	16.768	815.782	617.281
339.431	16.657	815.544	616.642
340.446	16.792	814.525	616.308
341.460	16.776	814.229	615.973
342.475	16.903	813.712	615.986
343.489	16.858	813.146	615.339
344.504	16.940	812.618	615.184
345.519	16.979	812.127	614.900
346.533	17.049	811.455	614.589
347.548	17.035	811.078	614.201
348.562	17.001	810.788	613.800
349.577	16.946	809.773	612.780
350.592	16.705	810.077	612.086
351.606	16.643	809.290	611.212
352.621	16.676	808.510	610.690
353.635	16.728	808.338	610.692
354.650	16.794	807.876	610.526
355.665	16.936	807.510	610.708
356.679	17.053	806.823	610.556
357.694	16.983	806.422	609.947
358.708	16.959	806.007	609.491
359.723	16.910	805.509	608.886
360.738	16.869	805.272	608.504
361.752	17.000	803.965	607.933
362.767	17.059	803.946	608.075
363.781	17.098	803.467	607.799
364.796	17.231	803.151	607.983
365.810	17.258	802.632	607.634
366.825	17.426	802.245	607.887
367.840	17.254	802.487	607.402
368.854	17.585	801.219	607.570
369.869	17.242	800.965	606.100
370.883	17.307	800.459	605.896
371.898	17.290	799.874	605.337
372.913	17.375	799.141	605.032
373.927	17.273	798.818	604.369
374.942	17.354	798.176	604.119
375.956	17.397	797.456	603.672
376.971	17.414	796.602	603.034
377.986	17.463	796.676	603.209
379.000	17.451	796.012	602.613
380.015	17.491	795.846	602.575
381.029	17.707	794.493	602.259
382.044	17.580	794.627	601.858
383.059	17.625	793.825	601.356
384.073	17.548	793.611	600.871
385.088	17.508	792.831	600.087
386.102	17.501	792.269	599.582
387.117	17.280	791.812	598.405
388.132	17.521	791.251	598.775
389.146	17.495	790.736	598.241
390.161	17.549	790.143	597.931
391.175	17.560	790.216	597.969
392.190	17.601	790.069	597.950
393.205	17.563	789.652	597.447
394.219	17.516	788.860	596.631
395.234	17.491	788.250	596.030
396.248	17.562	787.597	595.730
397.263	17.350	787.295	594.709
398.278	17.280	786.997	594.188
399.292	17.446	786.372	594.243
400.307	17.475	786.001	594.011
401.321	17.419	785.741	593.566
402.336	17.531	785.359	593.617
403.350	17.381	785.169	592.897
404.365	17.446	784.954	592.909
405.380	17.694	784.143	593.107
406.394	17.771	783.464	592.807
407.409	17.840	783.190	592.787
408.423	17.915	782.535	592.501
409.438	17.741	782.283	591.652
410.453	17.867	781.859	591.717
411.467	17.953	781.631	591.790
412.482	17.952	781.013	591.267
413.496	17.907	780.827	590.917
414.511	18.022	780.348	590.901
415.526	18.040	780.198	590.797
416.540	17.994	779.771	590.262
417.555	17.933	779.343	589.677
418.569	17.987	778.627	589.268
419.584	18.092	778.143	589.213
420.599	17.877	778.104	588.389
421.613	157.040	1369.404	1797.483
422.628	135.475	1455.559	1797.578
