DTS Sentinel unit serial number:	SN413079Multiplexer serial number:	ORYXHardware model number:	OX4-SRSoftware version number:	ORYX F/W v4.00 Oryx Data Collector v3.7.2.0data status	okinstallation	princeton_trtdifferential loss correction	single-endedforward channel	channel 3reverse channel	N/Adate	2019/09/19time	07:16:35forward acquisition time	60.00reverse acquisition time	0.00gamma	496.2192k internal	0.2347k external	0.2347temperature offset calibration	0.9981default loss term (dB/km)	0.3790temperature slope calibration	1.0000multiplexer offset coefficient	1.0000multiplexer slope coefficient	1.0000fibre end	0.00T internal ref (°C)	19.06T ext. ref 1 (°C)	0.57T ext. ref 2 (°C)	13.55length (m)	temperature (°C)	Stokes	anti-Stokes-747.200	-200.000	-0.001	0.232
-746.185	403.618	-0.053	0.112
-745.171	-200.000	0.040	0.241
-744.156	-69.785	-0.405	0.155
-743.142	491.053	0.046	-0.106
-742.127	-75.949	-0.298	0.105
-741.112	-180.001	-0.333	-0.007
-740.098	-200.000	-0.093	-0.499
-739.083	-13.237	0.131	-0.085
-738.069	615.713	-0.101	0.254
-737.054	72.506	-0.265	-0.276
-736.039	-200.000	-0.007	0.113
-735.025	-200.000	-0.060	-0.342
-734.010	800.000	0.046	-0.168
-732.996	597.371	-0.020	-0.049
-731.981	160.554	-0.076	-0.105
-730.966	-128.147	-0.152	0.022
-729.952	726.398	0.047	-0.124
-728.937	676.485	-0.112	0.291
-727.923	-200.000	-0.006	-0.156
-726.908	-200.000	0.016	-0.218
-725.894	-200.000	-0.040	-0.191
-724.879	-200.000	0.023	0.377
-723.864	65.894	0.191	-0.193
-722.850	119.106	-0.048	0.059
-721.835	22.856	0.060	0.049
-720.821	721.125	-0.019	0.049
-719.806	-154.802	-0.089	0.006
-718.791	-200.000	-0.014	0.104
-717.777	-90.790	0.113	-0.033
-716.762	363.277	-0.172	-0.344
-715.748	-170.250	-0.074	0.003
-714.733	-46.940	-0.095	0.046
-713.718	-134.834	-0.390	0.047
-712.704	-40.327	0.134	0.069
-711.689	222.206	-0.081	0.130
-710.675	-148.927	0.123	-0.010
-709.660	47.830	0.098	0.091
-708.645	290.579	-0.085	0.154
-707.631	-56.193	0.193	0.085
-706.616	-127.232	-0.155	-0.023
-705.602	800.000	0.142	-0.492
-704.587	304.987	0.172	-0.318
-703.572	-200.000	-0.028	-0.310
-702.558	800.000	0.098	-0.361
-701.543	97.974	-0.171	-0.196
-700.529	135.935	-0.019	-0.024
-699.514	1.031	-0.185	0.132
-698.499	-31.194	0.239	0.134
-697.485	-200.000	-0.014	-0.141
-696.470	-41.092	-0.060	0.031
-695.456	-200.000	-0.009	0.169
-694.441	109.023	0.057	-0.068
-693.426	-121.557	-0.359	0.059
-692.412	275.959	0.086	0.153
-691.397	-200.000	-0.049	-0.369
-690.383	-18.860	0.183	-0.113
-689.368	125.814	-0.132	-0.166
-688.354	-200.000	0.022	-0.162
-687.339	-146.414	-0.164	0.014
-686.324	-200.000	-0.031	-0.162
-685.310	-42.537	-0.326	-0.166
-684.295	-200.000	0.016	-0.071
-683.281	34.968	0.168	-0.146
-682.266	14.827	0.180	-0.140
-681.251	-114.798	-0.277	0.053
-680.237	800.000	0.022	-0.065
-679.222	34.022	-0.097	-0.084
-678.208	-200.000	0.044	-0.385
-677.193	347.801	0.100	0.196
-676.178	19.264	-0.225	-0.180
-675.164	-120.803	0.338	0.057
-674.149	-89.813	-0.358	-0.104
-673.135	45.082	0.098	0.090
-672.120	161.029	-0.192	0.268
-671.105	-200.000	-0.003	0.043
-670.091	-110.929	0.271	-0.056
-669.076	-200.000	0.043	0.283
-668.062	-29.746	0.033	0.019
-667.047	-40.055	-0.104	-0.054
-666.032	-200.000	0.011	0.116
-665.018	40.771	0.229	-0.206
-664.003	50.184	-0.158	-0.149
-662.989	-67.061	0.134	0.053
-661.974	-62.709	-0.068	0.028
-660.959	-71.954	-0.022	-0.008
-659.945	-104.357	0.313	0.072
-658.930	8.013	0.164	-0.122
-657.916	-126.260	-0.571	-0.085
-656.901	92.988	-0.041	-0.046
-655.886	-117.603	-0.299	0.054
-654.872	-94.975	-0.039	0.011
-653.857	-200.000	-0.019	0.177
-652.843	-200.000	-0.013	0.113
-651.828	59.115	-0.058	0.057
-650.814	332.920	0.014	0.027
-649.799	86.409	0.183	0.201
-648.784	700.948	0.056	0.146
-647.770	40.213	0.213	-0.191
-646.755	-200.000	0.035	0.354
-645.741	-190.297	0.161	-0.002
-644.726	575.077	0.010	0.025
-643.711	800.000	0.159	-0.464
-642.697	-166.574	0.105	-0.004
-641.682	-200.000	-0.048	-0.324
-640.668	-99.301	0.169	-0.042
-639.653	88.958	-0.030	0.034
-638.638	-64.629	-0.191	-0.077
-637.624	158.430	-0.201	-0.278
-636.609	-51.590	0.044	0.021
-635.595	15.693	-0.104	0.081
-634.580	-98.527	0.204	0.052
-633.565	62.916	-0.008	-0.008
-632.551	-53.320	-0.047	-0.021
-631.536	-20.191	-0.076	0.047
-630.522	-200.000	0.023	-0.142
-629.507	62.733	-0.243	-0.242
-628.492	32.683	-0.013	0.011
-627.478	-200.000	0.081	0.431
-626.463	-105.302	0.406	-0.092
-625.449	-119.043	0.093	-0.016
-624.434	372.764	-0.166	-0.336
-623.419	-0.261	0.090	0.063
-622.405	12.018	0.151	-0.116
-621.390	466.685	0.015	0.034
-620.376	-22.447	-0.344	-0.207
-619.361	800.000	0.159	-0.457
-618.346	-200.000	0.006	0.128
-617.332	67.440	0.216	-0.219
-616.317	183.350	0.100	-0.146
-615.303	-18.842	-0.082	0.051
-614.288	-103.555	-0.401	0.094
-613.273	325.931	0.038	-0.073
-612.259	252.689	-0.093	0.158
-611.244	83.593	0.129	0.140
-610.230	-161.836	-0.272	0.014
-609.215	493.987	-0.120	0.274
-608.201	-162.157	0.103	-0.005
-607.186	-81.375	0.192	0.063
-606.171	800.000	-0.069	-0.247
-605.157	-200.000	0.033	0.179
-604.142	-200.000	0.009	0.147
-603.128	-0.584	0.111	0.078
-602.113	-200.000	-0.002	-0.202
-601.098	37.490	-0.279	0.246
-600.084	783.290	0.042	0.116
-599.069	-96.741	0.171	-0.045
-598.055	36.009	0.247	0.216
-597.040	138.218	-0.173	0.226
-596.025	57.061	0.180	-0.174
-595.011	800.000	-0.162	-0.699
-593.996	-95.151	0.179	0.048
-592.982	-72.407	-0.115	-0.042
-591.967	4.289	-0.121	-0.088
-590.952	232.787	-0.131	-0.214
-589.938	-200.000	0.056	0.303
-588.923	-102.134	0.222	0.053
-587.909	-200.000	-0.000	0.047
-586.894	800.000	0.066	-0.205
-585.879	-45.977	-0.303	0.148
-584.865	-63.245	-0.167	-0.068
-583.850	-96.173	-0.199	-0.053
-582.836	-46.544	0.251	0.122
-581.821	-35.580	0.091	-0.049
-580.806	-88.683	-0.375	-0.111
-579.792	165.754	-0.164	-0.230
-578.777	800.000	-0.014	0.048
-577.763	-50.588	0.193	-0.091
-576.748	58.512	0.099	-0.097
-575.733	-130.648	-0.212	-0.028
-574.719	800.000	-0.016	0.067
-573.704	-137.237	-0.417	0.047
-572.690	-10.943	-0.242	-0.158
-571.675	-130.482	0.411	-0.055
-570.661	-86.019	-0.139	-0.043
-569.646	-44.614	0.187	0.093
-568.631	35.650	0.149	0.130
-567.617	800.000	-0.095	0.315
-566.602	111.438	0.222	-0.266
-565.588	51.298	-0.185	-0.174
-564.573	-153.043	0.064	0.004
-563.558	-86.797	-0.403	0.122
-562.544	-177.521	-0.166	0.004
-561.529	800.000	-0.038	0.126
-560.515	-200.000	0.001	-0.160
-559.500	-37.470	0.191	0.101
-558.485	-200.000	-0.000	0.291
-557.471	-61.616	0.076	0.032
-556.456	10.124	0.126	0.095
-555.442	-61.549	-0.433	0.181
-554.427	800.000	-0.094	-0.258
-553.412	22.389	0.228	0.185
-552.398	800.000	0.098	-0.293
-551.383	216.429	-0.055	-0.086
-550.369	800.000	0.060	0.209
-549.354	-116.424	-0.074	0.014
-548.339	-23.040	-0.196	-0.117
-547.325	-200.000	0.112	-0.534
-546.310	-28.320	0.276	-0.158
-545.296	124.013	0.039	0.048
-544.281	72.117	0.119	-0.123
-543.266	-63.066	0.207	-0.085
-542.252	-200.000	0.053	0.364
-541.237	34.976	-0.137	-0.119
-540.223	-40.372	0.279	-0.144
-539.208	307.340	0.080	-0.148
-538.193	-87.916	0.324	0.097
-537.179	-200.000	0.082	0.437
-536.164	-4.241	0.138	-0.095
-535.150	-64.115	-0.303	0.123
-534.135	-127.011	-0.124	0.018
-533.121	-109.685	-0.088	-0.018
-532.106	-91.409	0.058	-0.016
-531.091	-94.342	0.168	0.045
-530.077	38.465	-0.165	0.146
-529.062	34.056	0.145	-0.126
-528.048	-34.803	0.152	-0.082
-527.033	31.425	-0.168	-0.143
-526.018	-91.683	0.098	0.028
-525.004	659.561	-0.128	-0.326
-523.989	-101.550	0.147	0.035
-522.975	-106.881	-0.142	-0.031
-521.960	77.413	-0.277	-0.292
-520.945	-16.393	0.216	-0.136
-519.931	-126.212	0.190	0.028
-518.916	800.000	-0.057	0.200
-517.902	652.868	0.051	0.131
-516.887	262.555	-0.057	0.099
-515.872	51.697	0.177	-0.167
-514.858	-200.000	0.010	0.121
-513.843	552.985	0.112	-0.266
-512.829	-200.000	-0.070	-0.403
-511.814	-102.080	-0.256	-0.061
-510.799	-109.345	0.127	-0.027
-509.785	-200.000	0.007	-0.310
-508.770	-33.398	-0.136	-0.074
-507.756	-200.000	0.006	0.099
-506.741	-200.000	0.104	0.468
-505.726	193.387	0.189	-0.283
-504.712	335.717	0.108	0.208
-503.697	74.113	0.152	0.158
-502.683	-200.000	0.002	-0.429
-501.668	-7.064	-0.078	0.053
-500.653	-104.460	0.114	-0.026
-499.639	-95.271	-0.395	0.105
-498.624	-54.685	0.178	0.080
-497.610	192.001	0.083	0.123
-496.595	-116.978	0.294	-0.053
-495.581	84.630	-0.142	-0.154
-494.566	-36.824	-0.122	0.065
-493.551	-182.905	-0.118	0.002
-492.537	-2.407	-0.223	0.154
-491.522	-28.836	-0.419	0.238
-490.508	314.066	0.147	0.273
-489.493	-200.000	-0.002	-0.074
-488.478	424.010	-0.178	-0.378
-487.464	-94.277	-0.162	0.044
-486.449	800.000	0.012	0.035
-485.435	7.078	-0.319	-0.235
-484.420	-200.000	-0.044	-0.224
-483.405	-66.032	-0.277	-0.109
-482.391	228.107	0.141	-0.226
-481.376	24.942	0.115	-0.094
-480.362	-200.000	-0.028	-0.340
-479.347	310.535	0.097	-0.180
-478.332	-200.000	0.231	-0.000
-477.318	-83.789	-0.227	0.071
-476.303	-200.000	0.015	0.196
-475.289	800.000	0.077	0.263
-474.274	-43.338	-0.239	-0.120
-473.259	-181.205	-0.354	-0.007
-472.245	-200.000	-0.018	-0.137
-471.230	-28.339	0.244	-0.139
-470.216	2.944	0.170	-0.122
-469.201	135.109	0.083	-0.106
-468.186	8.678	0.154	0.115
-467.172	-200.000	-0.097	-0.454
-466.157	-200.000	-0.049	-0.272
-465.143	584.415	-0.160	0.387
-464.128	-21.618	0.205	-0.123
-463.113	-200.000	0.032	0.223
-462.099	42.832	-0.199	0.179
-461.084	-58.567	-0.151	-0.065
-460.070	520.199	-0.017	0.040
-459.055	800.000	-0.073	-0.240
-458.040	563.280	-0.071	0.170
-457.026	-13.008	0.229	0.147
-456.011	-60.232	0.254	0.107
-454.997	-55.777	-0.144	0.064
-453.982	214.341	-0.067	-0.104
-452.968	54.695	-0.381	0.363
-451.953	736.924	-0.189	0.501
-450.938	330.282	0.141	0.267
-449.924	249.868	-0.135	-0.227
-448.909	-200.000	0.002	0.255
-447.895	-20.639	-0.191	-0.116
-446.880	133.064	-0.125	0.160
-445.865	601.402	0.127	0.312
-444.851	-200.000	-0.086	0.382
-443.836	132.847	0.139	0.178
-442.822	-11.841	-0.065	-0.042
-441.807	800.000	0.113	-0.335
-440.792	-144.068	-0.164	0.015
-439.778	-200.000	-0.014	-0.195
-438.763	-200.000	-0.026	-0.444
-437.749	-200.000	0.015	-0.201
-436.734	1.516	-0.134	0.095
-435.719	-89.583	0.208	-0.060
-434.705	-200.000	-0.024	0.153
-433.690	16.281	-0.064	-0.050
-432.676	-86.051	-0.139	0.042
-431.661	54.995	-0.169	0.161
-430.646	514.459	-0.150	0.345
-429.632	-50.421	-0.231	-0.108
-428.617	0.719	-0.189	-0.134
-427.603	301.144	-0.147	0.268
-426.588	-36.439	0.056	-0.030
-425.573	87.826	-0.292	-0.319
-424.559	-3.522	0.240	0.165
-423.544	-22.584	-0.296	-0.177
-422.530	-35.730	0.033	0.018
-421.515	-171.123	0.171	-0.006
-420.500	800.000	-0.071	0.194
-419.486	-84.751	0.373	0.116
-418.471	800.000	-0.054	-0.172
-417.457	580.826	-0.116	-0.281
-416.442	-200.000	0.035	0.159
-415.428	-182.939	0.425	0.007
-414.413	80.000	-0.107	-0.114
-413.398	-12.546	0.591	-0.380
-412.384	67.236	-0.142	-0.143
-411.369	0.343	-0.385	-0.271
-410.355	-15.897	-0.149	-0.094
-409.340	-13.004	0.124	0.080
-408.325	-25.095	-0.473	-0.276
-407.311	-103.270	-0.082	-0.019
-406.296	-200.000	0.023	0.137
-405.282	-200.000	-0.032	-0.209
-404.267	-101.562	-0.103	-0.025
-403.252	-53.632	0.285	-0.128
-402.238	-200.000	0.008	-0.092
-401.223	-116.339	0.124	-0.023
-400.209	336.139	0.130	-0.249
-399.194	7.603	0.270	-0.199
-398.179	425.697	0.208	-0.442
-397.165	-149.235	-0.084	0.007
-396.150	-88.650	-0.180	0.053
-395.136	-98.919	0.258	-0.065
-394.121	-200.000	0.034	-0.254
-393.106	-200.000	-0.030	-0.149
-392.092	-17.781	-0.152	-0.094
-391.077	198.033	0.043	-0.064
-390.063	800.000	0.020	-0.073
-389.048	-54.092	0.135	-0.061
-388.033	215.048	0.111	-0.173
-387.019	-131.578	0.267	-0.035
-386.004	800.000	0.081	0.311
-384.990	89.311	-0.285	0.313
-383.975	138.104	-0.053	0.069
-382.960	800.000	-0.062	0.183
-381.946	-176.538	-0.100	0.003
-380.931	131.735	0.210	-0.266
-379.917	800.000	-0.058	-0.222
-378.902	332.959	0.054	0.103
-377.888	46.795	0.105	0.096
-376.873	-61.016	-0.269	0.112
-375.858	-17.267	0.197	0.123
-374.844	660.986	0.030	0.077
-373.829	-69.665	0.075	-0.028
-372.815	348.739	-0.070	-0.136
-371.800	213.548	-0.033	0.051
-370.785	-80.222	-0.203	-0.067
-369.771	199.861	0.025	-0.038
-368.756	600.151	0.080	-0.196
-367.742	143.982	0.192	0.253
-366.727	0.744	-0.145	-0.102
-365.712	-9.837	0.010	-0.007
-364.698	276.728	-0.075	0.130
-363.683	-129.179	0.074	-0.010
-362.669	85.476	-0.149	-0.161
-361.654	-74.049	0.283	-0.101
-360.639	233.091	-0.078	-0.126
-359.625	-43.223	-0.490	0.244
-358.610	20.926	-0.255	-0.203
-357.596	-26.915	0.203	0.117
-356.581	-200.000	-0.018	-0.206
-355.566	42.602	-0.163	-0.146
-354.552	-8.534	0.236	0.156
-353.537	-85.309	-0.052	0.016
-352.523	-130.362	-0.216	-0.029
-351.508	-9.084	0.185	-0.122
-350.493	-57.565	-0.100	-0.043
-349.479	145.037	0.047	0.062
-348.464	-63.961	0.068	0.027
-347.450	-200.000	-0.043	0.264
-346.435	800.000	-0.116	0.375
-345.420	-25.877	0.228	-0.132
-344.406	-200.000	0.028	0.312
-343.391	-200.000	0.008	0.133
-342.377	30.792	-0.037	-0.031
-341.362	-128.846	0.298	0.041
-340.348	-200.000	-0.008	-0.249
-339.333	-200.000	-0.004	0.146
-338.318	-195.683	0.238	-0.002
-337.304	-8.978	0.095	-0.063
-336.289	53.430	-0.042	0.040
-335.275	-200.000	0.010	-0.152
-334.260	370.735	-0.091	0.181
-333.245	97.431	-0.264	0.298
-332.231	800.000	0.105	-0.305
-331.216	800.000	-0.010	-0.042
-330.202	800.000	-0.065	0.227
-329.187	135.028	0.070	0.090
-328.172	-200.000	0.199	0.000
-327.158	12.611	-0.321	0.244
-326.143	-200.000	-0.076	0.455
-325.129	-42.839	0.186	-0.093
-324.114	136.015	0.121	-0.155
-323.099	46.667	-0.066	0.060
-322.085	-99.739	0.052	0.013
-321.070	-200.000	-0.064	0.297
-320.056	-66.739	-0.250	0.097
-319.041	626.186	-0.083	0.206
-318.026	624.847	0.102	-0.253
-317.012	206.515	0.326	-0.498
-315.997	-22.066	0.190	-0.114
-314.983	141.585	-0.180	-0.234
-313.968	-120.547	-0.190	-0.032
-312.953	-73.241	-0.218	0.078
-311.939	-200.000	0.047	-0.214
-310.924	-36.239	0.181	0.096
-309.910	-146.761	-0.205	0.017
-308.895	794.223	0.064	-0.174
-307.880	-144.309	-0.153	0.014
-306.866	-109.333	-0.126	0.026
-305.851	748.372	0.047	-0.125
-304.837	-200.000	-0.005	0.032
-303.822	-19.949	0.156	0.095
-302.807	156.087	0.188	0.254
-301.793	50.692	-0.194	0.181
-300.778	-73.901	0.237	-0.084
-299.764	155.866	0.198	0.268
-298.749	134.042	-0.102	0.130
-297.735	-80.053	0.072	0.024
-296.720	68.384	-0.157	-0.158
-295.705	168.207	0.179	0.250
-294.691	-153.181	0.351	-0.024
-293.676	-96.167	0.187	0.049
-292.662	-23.621	0.127	-0.075
-291.647	125.840	0.233	0.289
-290.632	51.316	0.284	-0.265
-289.618	42.424	-0.173	0.154
-288.603	-92.337	-0.202	-0.056
-287.589	-97.683	0.225	-0.057
-286.574	-120.001	-0.278	0.047
-285.559	-200.000	0.056	0.423
-284.545	189.209	-0.140	0.206
-283.530	-112.432	-0.275	-0.054
-282.516	-111.456	-0.184	-0.037
-281.501	-200.000	-0.082	-0.383
-280.486	3.303	0.228	0.163
-279.472	-22.374	0.071	0.042
-278.457	-200.000	-0.016	-0.070
-277.443	800.000	-0.042	0.122
-276.428	800.000	-0.074	0.235
-275.413	162.479	0.327	0.450
-274.399	-138.301	0.232	-0.025
-273.384	97.471	0.270	0.304
-272.370	411.914	-0.069	0.145
-271.355	-30.640	-0.073	0.040
-270.340	68.372	-0.050	-0.050
-269.326	800.000	-0.029	-0.100
-268.311	-26.064	0.160	0.093
-267.297	-122.230	-0.244	0.039
-266.282	305.155	0.072	-0.131
-265.267	-75.004	0.216	0.076
-264.253	-200.000	-0.033	-0.223
-263.238	-108.399	-0.369	0.078
-262.224	-76.435	-0.319	-0.110
-261.209	-48.450	-0.220	-0.104
-260.195	-102.953	0.201	0.047
-259.180	-116.569	-0.539	0.097
-258.165	800.000	-0.025	0.102
-257.151	333.535	-0.184	0.349
-256.136	291.178	0.087	-0.155
-255.122	144.411	-0.197	0.258
-254.107	318.028	0.278	0.516
-253.092	261.856	0.042	0.072
-252.078	-142.825	-0.232	0.022
-251.063	-79.858	0.216	-0.071
-250.049	-174.311	-0.299	0.008
-249.034	283.270	0.068	-0.119
-248.019	29.256	0.193	0.160
-247.005	-98.236	-0.189	0.048
-245.990	69.709	0.161	-0.162
-244.976	547.199	-0.109	0.255
-243.961	-149.418	0.153	0.012
-242.946	-200.000	0.022	-0.176
-241.932	-2.813	0.250	0.171
-240.917	101.410	-0.246	0.281
-239.903	800.000	0.090	-0.271
-238.888	309.119	0.105	-0.193
-237.873	-42.676	0.065	-0.032
-236.859	-200.000	0.016	-0.154
-235.844	15.990	-0.347	0.268
-234.830	-29.854	0.280	-0.156
-233.815	172.726	0.104	-0.146
-232.800	51.530	0.127	-0.118
-231.786	62.328	-0.075	-0.074
-230.771	-200.000	0.002	-0.018
-229.757	-21.286	0.221	0.132
-228.742	800.000	-0.083	-0.311
-227.727	630.426	0.084	-0.208
-226.713	180.479	0.115	-0.165
-225.698	-200.000	0.003	0.140
-224.684	800.000	-0.076	0.253
-223.669	-200.000	0.027	-0.177
-222.655	-59.990	0.304	-0.127
-221.640	-160.581	0.570	-0.030
-220.625	800.000	0.055	-0.206
-219.611	800.000	-0.016	-0.056
-218.596	-200.000	0.054	0.259
-217.582	-98.385	0.208	-0.052
-216.567	-94.020	0.116	-0.031
-215.552	328.587	-0.016	-0.031
-214.538	78.966	0.143	0.150
-213.523	103.083	-0.100	-0.114
-212.509	-99.460	-0.346	-0.085
-211.494	-19.940	-0.102	0.062
-210.479	164.785	0.076	-0.104
-209.465	-172.981	-0.249	-0.008
-208.450	235.464	-0.071	-0.114
-207.436	293.534	0.140	0.250
-206.421	23.606	-0.083	0.067
-205.406	-133.935	-0.076	0.009
-204.392	-81.146	0.463	0.150
-203.377	800.000	-0.107	0.426
-202.363	292.428	0.042	0.076
-201.348	59.443	0.265	0.255
-200.333	-125.128	-0.004	-0.001
-199.319	329.558	0.077	-0.144
-198.304	-200.000	0.040	-0.297
-197.290	340.601	0.166	-0.317
-196.275	-200.000	0.006	-0.094
-195.260	194.989	0.228	0.339
-194.246	800.000	0.062	0.180
-193.231	301.810	0.109	0.198
-192.217	-200.000	-0.018	0.193
-191.202	350.436	-0.020	0.039
-190.187	-160.870	-0.174	0.009
-189.173	-56.644	0.044	0.019
-188.158	-9.420	-0.164	-0.107
-187.144	-200.000	-0.043	0.320
-186.129	-200.000	-0.002	0.039
-185.114	143.153	0.084	0.109
-184.100	-8.011	0.314	0.207
-183.085	106.359	-0.101	0.117
-182.071	425.120	-0.165	0.347
-181.056	-46.780	0.198	0.095
-180.042	-31.569	0.263	0.145
-179.027	800.000	-0.088	0.316
-178.012	-135.995	0.226	-0.026
-176.998	-24.447	0.099	-0.058
-175.983	-200.000	0.015	-0.097
-174.969	152.921	-0.088	0.117
-173.954	-112.346	-0.252	0.049
-172.939	61.526	-0.134	-0.131
-171.925	-65.339	0.266	0.105
-170.910	-200.000	0.020	0.090
-169.896	-37.345	-0.133	0.069
-168.881	8.212	-0.163	-0.120
-167.866	36.618	-0.069	-0.060
-166.852	23.616	0.141	0.113
-165.837	-200.000	0.017	0.123
-164.823	800.000	0.058	-0.194
-163.808	800.000	0.037	-0.119
-162.793	19.270	-0.168	0.132
-161.779	7.007	-0.147	0.107
-160.764	-57.452	-0.309	-0.133
-159.750	-141.548	-0.160	0.016
-158.735	176.353	-0.257	-0.364
-157.720	37.187	0.059	0.051
-156.706	800.000	-0.038	0.102
-155.691	-24.135	-0.413	-0.241
-154.677	96.341	-0.082	-0.092
-153.662	800.000	0.100	0.279
-152.647	184.380	0.052	0.075
-151.633	-152.688	-0.154	-0.011
-150.618	800.000	0.108	0.378
-149.604	-111.865	-0.124	-0.025
-148.589	84.898	0.119	0.128
-147.574	331.143	-0.128	0.240
-146.560	-200.000	0.001	0.162
-145.545	-34.510	0.249	0.133
-144.531	179.858	-0.087	0.125
-143.516	-200.000	-0.033	0.266
-142.502	-200.000	0.048	-0.266
-141.487	-137.818	0.096	0.010
-140.472	176.623	0.287	-0.408
-139.458	800.000	0.061	0.237
-138.443	709.973	-0.200	-0.515
-137.429	152.433	-0.138	-0.184
-136.414	-48.480	-0.312	-0.146
-135.399	126.408	0.150	0.185
-134.385	800.000	-0.114	0.394
-133.370	26.450	-0.250	-0.204
-132.356	-102.861	-0.431	-0.100
-131.341	22.296	0.286	0.228
-130.326	68.190	-0.140	0.140
-129.312	123.121	-0.097	0.118
-128.297	-179.380	-0.192	-0.004
-127.283	127.215	-0.105	0.130
-126.268	-200.000	0.022	-0.110
-125.253	800.000	0.138	-0.568
-124.239	153.866	0.155	-0.208
-123.224	-42.892	-0.218	-0.108
-122.210	-23.220	-0.075	0.044
-121.195	211.520	-0.095	-0.146
-120.180	-29.146	0.185	-0.103
-119.166	-52.378	0.168	0.076
-118.151	-200.000	-0.017	-0.158
-117.137	367.359	0.097	0.190
-116.122	-40.523	0.137	0.069
-115.107	-200.000	-0.024	-0.201
-114.093	-34.782	-0.229	0.122
-113.078	800.000	-0.176	0.614
-112.064	-200.000	-0.058	-0.303
-111.049	435.636	0.178	-0.378
-110.034	-71.413	0.475	-0.173
-109.020	528.831	0.112	0.257
-108.005	194.993	0.259	0.384
-106.991	-4.783	0.112	-0.075
-105.976	-200.000	0.034	0.207
-104.962	684.354	0.007	0.019
-103.947	-200.000	0.017	0.103
-102.932	474.281	-0.089	0.196
-101.918	-73.542	-0.392	-0.139
-100.903	-31.063	0.285	-0.157
-99.889	-7.898	0.089	-0.059
-98.874	2.137	0.219	-0.154
-97.859	-200.000	0.004	-0.042
-96.845	-185.120	0.288	0.004
-95.830	800.000	-0.061	0.251
-94.816	-133.348	0.354	0.043
-93.801	53.763	0.058	-0.054
-92.786	-177.100	0.296	0.007
-91.772	120.509	-0.073	-0.088
-90.757	477.148	-0.126	-0.277
-89.743	800.000	-0.040	0.120
-88.728	800.000	0.032	-0.132
-87.713	-145.322	-0.173	-0.015
-86.699	467.728	0.104	0.228
-85.684	126.379	-0.141	0.174
-84.670	800.000	-0.093	-0.356
-83.655	-47.099	-0.177	-0.084
-82.640	58.440	-0.210	-0.201
-81.626	99.911	0.138	0.155
-80.611	-200.000	-0.013	0.375
-79.597	109.114	-0.108	-0.125
-78.582	194.291	-0.232	0.343
-77.567	-70.325	0.277	0.102
-76.553	199.690	0.058	0.087
-75.538	-200.000	0.035	-0.199
-74.524	87.590	-0.139	0.150
-73.509	800.000	-0.047	0.150
-72.494	-200.000	0.053	-0.330
-71.480	708.881	0.083	0.213
-70.465	204.585	0.085	-0.128
-69.451	322.159	-0.139	0.258
-68.436	800.000	0.044	-0.174
-67.422	-200.000	0.029	0.208
-66.407	800.000	-0.039	0.110
-65.392	-14.029	0.190	0.119
-64.378	192.207	-0.058	-0.085
-63.363	-200.000	0.109	0.672
-62.349	800.000	-0.075	0.257
-61.334	69.748	-1.494	-1.498
-60.319	157.569	0.614	0.826
-59.305	338.376	-0.781	-1.478
-58.290	215.917	1.058	1.635
-57.276	363.629	0.679	1.328
-56.261	-200.000	136.491	624.913
-55.246	341.311	1642.327	3121.743
-54.232	137.266	2778.842	3535.229
-53.217	80.567	2180.998	2285.713
-52.203	28.659	1699.999	1399.628
-51.188	22.011	1524.741	1209.653
-50.173	20.527	1504.819	1183.697
-49.159	43.415	1581.649	1405.742
-48.144	39.425	1591.634	1386.539
-47.130	21.919	1540.694	1221.473
-46.115	19.412	1525.022	1191.703
-45.100	19.120	1521.646	1187.003
-44.086	19.020	1519.620	1184.684
-43.071	18.971	1517.903	1182.963
-42.057	19.020	1516.522	1182.176
-41.042	19.047	1515.242	1181.317
-40.027	18.958	1513.825	1179.553
-39.013	18.945	1511.995	1177.994
-37.998	18.975	1511.084	1177.443
-36.984	19.059	1509.514	1176.749
-35.969	19.112	1508.120	1175.973
-34.954	18.945	1507.222	1174.090
-33.940	18.989	1505.461	1172.974
-32.925	19.036	1503.997	1172.101
-31.911	18.943	1502.873	1170.549
-30.896	19.187	1500.725	1170.488
-29.881	19.112	1500.305	1169.604
-28.867	19.014	1499.108	1167.960
-27.852	19.058	1497.749	1167.150
-26.838	19.125	1495.903	1166.119
-25.823	19.105	1494.787	1165.072
-24.809	19.184	1492.850	1164.048
-23.794	19.127	1492.047	1162.986
-22.779	19.020	1491.105	1161.488
-21.765	19.114	1489.723	1160.996
-20.750	19.123	1488.326	1159.923
-19.736	19.140	1487.008	1158.965
-18.721	19.100	1485.780	1157.692
-17.706	19.035	1485.456	1156.961
-16.692	19.207	1484.122	1157.025
-15.677	19.110	1482.777	1155.280
-14.663	19.110	1481.786	1154.467
-13.648	19.062	1481.268	1153.693
-12.633	19.027	1479.942	1152.384
-11.619	19.069	1478.984	1151.873
-10.604	18.989	1478.775	1151.128
-9.590	19.060	1477.770	1150.776
-8.575	19.028	1477.098	1149.990
-7.560	19.084	1476.103	1149.547
-6.546	19.098	1475.282	1148.952
-5.531	19.043	1474.075	1147.602
-4.517	19.078	1472.773	1146.777
-3.502	19.083	1472.001	1146.164
-2.487	19.044	1471.085	1145.143
-1.473	19.108	1470.332	1144.936
-0.458	19.053	1469.130	1143.589
0.556	17.904	1458.540	1131.646
1.571	14.895	1434.914	1093.564
2.586	11.684	1374.431	1027.233
3.600	10.409	1289.978	956.505
4.615	9.567	1247.379	920.030
5.629	8.586	1190.569	872.698
6.644	4.360	1111.029	792.774
7.659	1.055	1077.925	752.687
8.673	0.645	1072.207	746.600
9.688	0.563	1069.055	743.935
10.702	0.506	1067.470	742.489
11.717	0.556	1064.553	740.638
12.731	2.056	1064.479	747.873
13.746	6.907	1071.520	776.636
14.761	13.056	1080.622	813.550
15.775	16.599	1084.418	833.829
16.790	16.761	1083.281	833.678
17.804	15.729	1081.698	827.313
18.819	14.954	1079.365	821.650
19.834	14.426	1078.018	817.958
20.848	14.274	1077.042	816.400
21.863	14.057	1076.270	814.682
22.877	13.828	1075.638	813.008
23.892	13.608	1074.700	811.149
24.907	13.468	1073.977	809.848
25.921	13.541	1073.318	809.635
26.936	13.437	1072.600	808.516
27.950	13.603	1071.497	808.422
28.965	13.495	1071.558	807.870
29.980	13.689	1070.437	807.896
30.994	13.808	1069.041	807.353
32.009	13.819	1068.234	806.726
33.023	13.769	1067.855	806.123
34.038	13.755	1067.464	805.692
35.053	13.742	1066.060	804.494
36.067	13.610	1065.676	803.497
37.082	13.682	1064.191	802.653
38.096	13.756	1063.314	802.278
39.111	13.885	1062.532	802.240
40.126	13.759	1061.630	800.879
41.140	13.642	1060.795	799.615
42.155	13.644	1059.434	798.529
43.169	13.611	1058.734	797.771
44.184	13.572	1057.842	796.842
45.199	13.516	1056.456	795.456
46.213	13.602	1055.610	795.163
47.228	13.604	1055.056	794.683
48.242	13.606	1053.553	793.492
49.257	13.504	1052.979	792.502
50.271	13.687	1051.177	791.947
51.286	13.557	1051.199	791.277
52.301	13.809	1049.573	791.183
53.315	13.728	1049.247	790.479
54.330	13.766	1048.667	790.154
55.344	13.609	1047.550	788.495
56.359	13.688	1046.282	787.847
57.374	13.600	1045.342	786.653
58.388	13.630	1044.652	786.207
59.403	13.698	1043.786	785.807
60.417	13.616	1042.998	784.757
61.432	13.476	1042.627	783.746
62.447	13.508	1041.708	783.133
63.461	13.484	1040.616	782.131
64.476	13.458	1040.097	781.550
65.490	13.637	1038.622	781.214
66.505	13.553	1038.002	780.285
67.520	13.461	1037.725	779.575
68.534	13.531	1036.430	778.864
69.549	13.601	1035.515	778.435
70.563	13.607	1034.995	778.004
71.578	13.556	1034.165	777.070
72.593	13.627	1032.908	776.391
73.607	13.481	1032.242	775.137
74.622	13.396	1031.517	774.128
75.636	13.558	1030.536	774.081
76.651	13.535	1029.525	773.142
77.666	13.436	1029.336	772.470
78.680	13.471	1028.412	771.871
79.695	13.413	1028.098	771.301
80.709	13.407	1027.357	770.644
81.724	13.531	1026.467	770.487
82.739	13.626	1025.462	770.109
83.753	13.537	1024.657	769.019
84.768	13.715	1023.645	769.018
85.782	13.643	1023.331	768.381
86.797	13.814	1021.814	767.967
87.812	13.709	1021.319	767.041
88.826	13.638	1020.897	766.326
89.841	13.449	1020.495	765.085
90.855	13.475	1019.534	764.417
91.870	13.621	1018.268	764.070
92.884	13.851	1016.893	764.030
93.899	13.803	1016.833	763.699
94.914	13.791	1015.953	762.914
95.928	13.886	1014.876	762.472
96.943	13.848	1014.617	762.039
97.957	13.774	1013.511	760.801
98.972	13.756	1012.983	760.252
99.987	13.799	1012.091	759.714
101.001	13.734	1011.439	758.861
102.016	13.720	1010.618	758.111
103.030	13.803	1009.219	757.377
104.045	13.780	1008.358	756.556
105.060	13.787	1007.400	755.805
106.074	13.738	1006.283	754.674
107.089	13.748	1005.432	754.015
108.103	13.618	1004.902	752.962
109.118	13.556	1003.941	751.894
110.133	13.512	1003.362	751.193
111.147	13.624	1001.990	750.606
112.162	13.617	1001.610	750.223
113.176	13.689	1000.514	749.662
114.191	13.581	999.799	748.573
115.206	13.770	998.144	748.119
116.220	13.633	998.079	747.389
117.235	13.702	996.764	746.646
118.249	13.739	995.963	746.146
119.264	13.554	995.548	744.938
120.279	13.760	994.206	744.792
121.293	13.684	993.445	743.817
122.308	13.604	993.035	743.086
123.322	13.725	991.632	742.512
124.337	13.679	990.726	741.562
125.352	13.618	989.492	740.299
126.366	13.621	988.184	739.270
127.381	13.633	987.341	738.625
128.395	13.611	986.454	737.797
129.410	13.705	985.122	737.157
130.424	13.663	984.686	736.576
131.439	13.800	983.459	736.205
132.454	13.635	982.519	734.701
133.468	13.734	981.559	734.358
134.483	13.657	981.348	733.794
135.497	13.674	980.549	733.207
136.512	13.740	979.712	732.808
137.527	13.612	979.096	731.716
138.541	13.700	978.105	731.299
139.556	13.591	978.031	730.701
140.570	13.642	977.073	730.145
141.585	13.779	975.791	729.723
142.600	13.897	975.131	729.685
143.614	13.839	974.647	729.003
144.629	13.862	973.833	728.432
145.643	13.968	973.014	728.219
146.658	13.799	972.578	727.085
147.673	13.924	971.180	726.522
148.687	13.832	970.611	725.631
149.702	13.826	969.359	724.605
150.716	13.692	968.922	723.630
151.731	13.751	967.870	723.039
152.746	13.918	967.016	723.065
153.760	13.939	966.293	722.549
154.775	13.855	965.288	721.370
155.789	13.933	964.733	721.229
156.804	13.835	964.151	720.305
157.819	13.921	963.322	719.993
158.833	13.883	962.684	719.291
159.848	14.236	961.330	719.741
160.862	13.971	961.426	718.605
161.877	14.008	960.530	718.028
162.892	13.946	959.697	717.076
163.906	13.834	958.627	715.729
164.921	13.881	958.200	715.550
165.935	14.000	956.989	715.095
166.950	13.944	956.194	714.199
167.964	13.872	954.934	712.886
168.979	13.769	954.538	712.085
169.994	14.006	952.941	711.844
171.008	13.941	952.523	711.188
172.023	13.982	951.735	710.712
173.037	14.155	950.469	710.446
174.052	14.134	949.914	709.879
175.067	14.125	949.393	709.386
176.081	14.008	948.429	708.106
177.096	14.054	947.637	707.646
178.110	14.123	946.655	707.144
179.125	14.176	945.687	706.583
180.140	14.235	944.533	705.909
181.154	14.161	944.377	705.418
182.169	14.072	944.202	704.847
183.183	14.209	943.342	704.724
184.198	14.202	942.469	703.976
185.213	14.299	941.501	703.602
186.227	14.313	941.084	703.289
187.242	14.276	940.717	702.796
188.256	14.431	939.858	702.747
189.271	14.411	938.935	701.907
190.286	14.342	938.200	701.006
191.300	14.264	937.661	700.214
192.315	14.254	936.628	699.339
193.329	14.150	936.113	698.456
194.344	14.220	935.347	698.117
195.359	14.421	934.602	698.341
196.373	14.292	934.230	697.462
197.388	14.375	933.816	697.438
198.402	14.407	933.430	697.222
199.417	14.420	932.983	696.879
200.432	14.542	932.387	696.884
201.446	14.397	932.138	696.030
202.461	14.410	931.561	695.590
203.475	14.478	931.048	695.432
204.490	14.556	930.046	694.945
205.504	14.551	929.351	694.342
206.519	14.522	928.264	693.351
207.534	14.477	927.643	692.639
208.548	14.554	927.029	692.436
209.563	14.512	926.519	691.820
210.577	14.641	925.414	691.468
211.592	14.658	924.636	690.898
212.607	14.661	924.420	690.686
213.621	14.691	923.707	690.217
214.636	14.815	922.983	690.128
215.650	14.616	922.821	689.125
216.665	14.630	922.145	688.613
217.680	14.731	921.279	688.324
218.694	14.677	921.043	687.864
219.709	14.690	920.617	687.538
220.723	14.697	919.738	686.851
221.738	14.797	918.861	686.544
222.753	14.750	917.890	685.566
223.767	14.663	917.198	684.632
224.782	14.754	916.509	684.428
225.796	14.821	915.709	684.045
226.811	14.818	914.726	683.239
227.826	14.888	914.081	682.982
228.840	14.843	914.037	682.705
229.855	14.696	913.130	681.368
230.869	14.744	912.380	680.945
231.884	14.971	911.189	680.918
232.899	14.861	910.931	680.218
233.913	14.931	910.170	679.873
234.928	14.856	909.236	678.811
235.942	14.729	909.197	678.205
236.957	14.897	907.862	677.832
237.972	14.945	907.240	677.502
238.986	14.966	906.807	677.206
240.001	14.969	905.784	676.392
241.015	14.983	905.186	675.944
242.030	14.982	904.900	675.664
243.045	15.091	904.008	675.377
244.059	14.995	903.360	674.450
245.074	15.035	902.766	674.105
246.088	14.862	902.314	673.011
247.103	14.985	901.751	673.028
248.117	15.055	901.070	672.740
249.132	15.035	900.409	672.109
250.147	15.216	899.455	672.063
251.161	15.191	899.269	671.762
252.176	15.258	898.165	671.148
253.190	15.172	897.869	670.523
254.205	15.214	897.317	670.221
255.220	15.312	896.289	669.782
256.234	15.298	895.918	669.393
257.249	15.350	895.325	669.096
258.263	15.388	894.719	668.735
259.278	15.330	894.097	667.980
260.293	15.418	893.568	667.877
261.307	15.448	893.045	667.545
262.322	15.442	892.278	666.890
263.336	15.453	891.782	666.503
264.351	15.616	891.023	666.525
265.366	15.515	890.239	665.477
266.380	15.583	889.752	665.324
267.395	15.503	889.532	664.784
268.409	15.721	888.040	664.471
269.424	15.646	887.471	663.690
270.439	15.706	887.061	663.562
271.453	15.685	886.239	662.807
272.468	15.631	885.237	661.786
273.482	15.618	884.685	661.264
274.497	15.630	884.244	660.921
275.512	15.702	883.209	660.371
276.526	15.649	882.649	659.688
277.541	15.614	882.006	659.013
278.555	15.520	882.207	658.737
279.570	15.728	881.374	658.868
280.585	15.740	880.349	658.092
281.599	15.820	879.476	657.694
282.614	15.797	879.127	657.286
283.628	15.762	878.403	656.550
284.643	15.750	878.130	656.242
285.657	15.657	877.885	655.635
286.672	15.745	877.248	655.446
287.687	15.833	876.454	655.136
288.701	15.881	875.824	654.793
289.716	15.960	875.155	654.544
290.730	15.859	874.964	653.949
291.745	15.930	873.949	653.410
292.760	16.100	873.134	653.403
293.774	16.034	872.338	652.491
294.789	15.876	872.097	651.642
295.803	16.042	871.151	651.518
296.818	15.936	870.693	650.709
297.833	15.988	870.005	650.338
298.847	15.984	869.305	649.742
299.862	15.928	868.725	649.038
300.876	16.031	868.060	648.879
301.891	16.127	867.310	648.628
302.906	16.162	866.476	648.083
303.920	16.161	865.845	647.549
304.935	16.122	865.447	647.046
305.949	16.108	864.750	646.414
306.964	16.293	863.920	646.445
307.979	16.153	863.722	645.704
308.993	16.167	863.139	645.263
310.008	16.192	862.714	644.985
311.022	16.235	862.195	644.704
312.037	16.266	861.508	644.250
313.052	16.230	861.024	643.695
314.066	16.182	860.720	643.228
315.081	16.199	860.164	642.818
316.095	16.315	859.362	642.607
317.110	16.251	858.719	641.825
318.125	16.283	858.093	641.421
319.139	16.144	858.000	640.768
320.154	16.366	856.816	640.666
321.168	16.219	856.571	639.869
322.183	16.408	855.972	640.081
323.197	16.271	855.645	639.263
324.212	16.418	854.637	639.011
325.227	16.347	854.476	638.563
326.241	16.383	853.771	638.117
327.256	16.444	853.261	637.907
328.270	16.344	852.932	637.227
329.285	16.429	851.980	636.783
330.300	16.386	851.797	636.428
331.314	16.456	851.119	636.128
332.329	16.444	850.572	635.618
333.343	16.551	849.630	635.259
334.358	16.585	849.049	634.897
335.373	16.366	848.829	633.855
336.387	16.697	847.886	634.334
337.402	16.600	847.498	633.624
338.416	16.550	846.876	632.914
339.431	16.608	846.610	632.877
340.446	16.633	845.821	632.323
341.460	16.591	845.232	631.674
342.475	16.727	844.740	631.756
343.489	16.716	844.278	631.313
344.504	16.738	843.650	630.870
345.519	16.693	843.475	630.516
346.533	16.794	842.734	630.282
347.548	17.036	841.646	630.311
348.562	16.936	841.152	629.513
349.577	16.752	841.126	628.755
350.592	16.749	840.656	628.338
351.606	16.750	840.270	627.998
352.621	16.771	839.534	627.471
353.635	16.654	839.620	627.044
354.650	16.806	838.989	627.080
355.665	16.845	838.404	626.733
356.679	16.903	837.806	626.445
357.694	16.913	837.355	626.088
358.708	16.965	836.422	625.526
359.723	16.873	836.006	624.820
360.738	16.905	835.658	624.623
361.752	16.894	835.017	624.051
362.767	17.045	834.420	624.105
363.781	17.101	834.517	624.326
364.796	17.061	834.088	623.803
365.810	17.119	833.028	623.170
366.825	17.178	832.671	623.062
367.840	17.251	832.492	623.141
368.854	17.180	832.031	622.482
369.869	17.062	831.845	621.855
370.883	17.209	830.878	621.615
371.898	17.215	830.209	621.081
372.913	17.337	829.437	620.894
373.927	17.203	828.950	619.985
374.942	17.072	828.568	619.165
375.956	17.237	827.800	619.141
376.971	17.206	827.618	618.835
377.986	17.235	826.981	618.412
379.000	17.324	826.222	618.110
380.015	17.333	826.005	617.926
381.029	17.352	825.078	617.248
382.044	17.527	824.587	617.462
383.059	17.509	824.017	616.913
384.073	17.432	823.685	616.331
385.088	17.517	822.830	615.947
386.102	17.438	822.465	615.332
387.117	17.378	822.064	614.761
388.132	17.318	821.629	614.164
389.146	17.414	821.237	614.164
390.161	17.319	821.013	613.599
391.175	17.642	820.057	613.995
392.190	17.658	819.716	613.742
393.205	17.499	819.538	612.982
394.219	17.534	819.053	612.690
395.234	17.589	818.156	612.162
396.248	17.537	818.069	611.857
397.263	17.537	817.377	611.287
398.278	17.504	817.161	610.950
399.292	17.584	816.489	610.679
400.307	17.476	816.391	610.168
401.321	17.592	815.524	609.879
402.336	17.493	815.671	609.580
403.350	17.530	815.226	609.328
404.365	17.439	814.852	608.670
405.380	17.654	813.799	608.597
406.394	17.612	813.771	608.370
407.409	17.654	813.412	608.197
408.423	17.716	813.148	608.170
409.438	17.778	812.073	607.531
410.453	17.712	811.837	607.067
411.467	17.771	811.520	606.986
412.482	17.817	810.914	606.641
413.496	17.852	810.528	606.424
414.511	17.982	809.948	606.398
415.526	17.960	809.689	606.074
416.540	18.033	809.442	606.093
417.555	17.985	809.095	605.608
418.569	17.803	808.557	604.508
419.584	17.844	807.889	604.102
420.599	18.024	806.965	603.992
421.613	115.663	1300.068	1492.673
422.628	99.980	1371.879	1492.729
