DTS Sentinel unit serial number:	SN413079Multiplexer serial number:	ORYXHardware model number:	OX4-SRSoftware version number:	ORYX F/W v4.00 Oryx Data Collector v3.7.2.0data status	okinstallation	princeton_trtdifferential loss correction	single-endedforward channel	channel 3reverse channel	N/Adate	2019/09/19time	14:20:35forward acquisition time	60.00reverse acquisition time	0.00gamma	496.2192k internal	0.2322k external	0.2322temperature offset calibration	0.9998default loss term (dB/km)	0.3790temperature slope calibration	1.0000multiplexer offset coefficient	1.0000multiplexer slope coefficient	1.0000fibre end	0.00T internal ref (°C)	31.86T ext. ref 1 (°C)	1.05T ext. ref 2 (°C)	29.21length (m)	temperature (°C)	Stokes	anti-Stokes-747.200	-186.764	0.420	0.006
-746.185	-200.000	0.014	0.139
-745.171	-116.744	0.223	0.041
-744.156	-160.947	-0.223	0.012
-743.142	-22.141	-0.088	-0.054
-742.127	490.154	-0.085	0.196
-741.112	-18.797	-0.142	-0.089
-740.098	-26.041	-0.254	0.151
-739.083	-200.000	0.038	0.210
-738.069	-42.042	-0.068	-0.035
-737.054	20.632	0.257	-0.210
-736.039	-200.000	-0.027	0.000
-735.025	-35.762	0.286	-0.156
-734.010	-200.000	-0.005	0.053
-732.996	-76.356	0.064	0.023
-731.981	-200.000	-0.001	-0.316
-730.966	800.000	-0.046	-0.191
-729.952	6.168	-0.195	-0.146
-728.937	-32.290	-0.156	-0.088
-727.923	-21.121	-0.204	-0.126
-726.908	-200.000	-0.016	-0.134
-725.894	-26.271	-0.191	-0.113
-724.879	-164.543	-0.321	0.015
-723.864	-53.213	-0.327	-0.152
-722.850	55.905	-0.217	0.213
-721.835	74.351	-0.241	-0.255
-720.821	-165.845	-0.380	0.016
-719.806	21.590	0.043	-0.035
-718.791	561.579	-0.038	-0.093
-717.777	-200.000	0.080	-0.426
-716.762	-172.400	-0.130	0.004
-715.748	510.290	0.119	0.279
-714.733	-130.269	0.257	-0.035
-713.718	140.027	-0.045	-0.060
-712.704	-200.000	-0.045	0.370
-711.689	-20.641	-0.113	-0.070
-710.675	-39.141	-0.051	0.027
-709.660	-200.000	0.034	0.318
-708.645	182.520	0.120	-0.178
-707.631	58.969	0.069	-0.068
-706.616	-43.860	0.359	0.182
-705.602	-200.000	0.001	0.179
-704.587	476.174	0.125	0.285
-703.572	25.684	0.288	0.242
-702.558	270.285	-0.099	-0.176
-701.543	-136.604	0.468	0.055
-700.529	-19.849	0.234	-0.146
-699.514	257.544	0.333	0.578
-698.499	33.493	0.100	-0.088
-697.485	-52.024	-0.079	-0.037
-696.470	61.202	0.268	0.269
-695.456	90.872	-0.122	0.138
-694.441	40.836	0.215	0.196
-693.426	-39.317	-0.100	0.053
-692.412	-105.322	0.204	0.047
-691.397	591.773	-0.121	-0.301
-690.383	-167.104	-0.108	-0.004
-689.368	-200.000	-0.023	-0.129
-688.354	-176.973	0.164	0.004
-687.339	-164.316	0.420	0.019
-686.324	151.996	0.077	0.106
-685.310	-150.525	0.096	-0.007
-684.295	-173.998	-0.091	0.003
-683.281	337.146	0.084	-0.164
-682.266	676.761	-0.080	-0.209
-681.251	-200.000	-0.003	0.074
-680.237	13.149	-0.020	0.015
-679.222	-200.000	0.054	0.241
-678.208	-200.000	-0.074	-0.342
-677.193	206.810	0.146	-0.229
-676.178	592.118	0.052	0.128
-675.164	40.001	0.150	0.136
-674.149	228.544	-0.141	0.232
-673.135	-200.000	-0.078	-0.379
-672.120	13.219	0.249	-0.195
-671.105	-200.000	0.044	0.452
-670.091	-92.582	0.408	0.115
-669.076	-73.459	-0.315	-0.116
-668.062	-27.945	-0.159	-0.093
-667.047	-200.000	0.004	0.420
-666.032	12.115	-0.209	0.162
-665.018	-128.651	0.267	-0.038
-664.003	-200.000	-0.056	0.279
-662.989	670.046	-0.132	-0.344
-661.974	90.014	0.162	0.183
-660.959	800.000	-0.028	0.091
-659.945	-71.644	-0.305	-0.115
-658.930	-106.918	-0.166	-0.037
-657.916	-97.156	-0.178	0.047
-656.901	20.411	-0.197	-0.161
-655.886	566.933	0.109	0.267
-654.872	231.469	0.050	0.082
-653.857	-19.397	-0.107	0.067
-652.843	33.439	0.132	0.115
-651.828	319.805	0.055	0.105
-650.814	-102.365	-0.375	0.091
-649.799	-194.898	0.093	-0.001
-648.784	360.722	0.197	-0.397
-647.770	166.676	0.147	0.210
-646.755	544.178	0.043	0.104
-645.741	-79.790	0.114	0.039
-644.726	15.499	0.100	0.079
-643.711	-200.000	0.018	-0.190
-642.697	-184.455	-0.126	0.002
-641.682	-200.000	-0.032	-0.159
-640.668	-23.890	0.108	-0.065
-639.653	-200.000	0.070	-0.350
-638.638	92.292	0.148	-0.167
-637.624	291.707	-0.140	-0.257
-636.609	193.232	-0.224	-0.340
-635.595	29.722	0.201	-0.172
-634.580	-58.178	-0.133	-0.058
-633.565	160.089	-0.153	-0.215
-632.551	-7.970	0.232	-0.157
-631.536	-141.012	-0.236	0.024
-630.522	-16.589	0.279	-0.178
-629.507	381.867	0.046	-0.095
-628.492	-77.073	-0.029	0.010
-627.478	-13.138	-0.283	-0.185
-626.463	75.956	-0.018	-0.019
-625.449	-94.751	0.137	-0.037
-624.434	-200.000	-0.056	0.391
-623.419	-77.719	-0.296	0.103
-622.405	-30.506	-0.081	-0.046
-621.390	91.439	0.083	-0.093
-620.376	800.000	0.012	0.034
-619.361	65.216	0.192	0.195
-618.346	-117.325	-0.185	0.034
-617.332	178.785	0.106	0.156
-616.317	-70.745	-0.134	0.051
-615.303	-116.032	-0.212	-0.040
-614.288	-52.495	-0.204	0.095
-613.273	800.000	-0.057	0.206
-612.259	-54.205	0.037	-0.017
-611.244	-200.000	0.002	-0.226
-610.230	-200.000	0.002	-0.268
-609.215	-132.189	-0.238	0.031
-608.201	-26.264	-0.257	-0.151
-607.186	34.273	0.224	-0.196
-606.171	-135.803	-0.234	0.028
-605.157	-200.000	0.008	0.155
-604.142	-30.576	-0.322	-0.183
-603.128	-200.000	-0.003	0.145
-602.113	585.527	0.185	0.457
-601.098	39.654	-0.178	-0.160
-600.084	202.441	-0.170	-0.264
-599.069	674.008	-0.038	0.100
-598.055	145.611	-0.211	-0.284
-597.040	-1.764	-0.333	-0.236
-596.025	-116.645	0.189	0.035
-595.011	306.741	0.094	0.176
-593.996	-200.000	0.024	0.144
-592.982	-132.566	0.231	0.030
-591.967	130.674	-0.043	0.055
-590.952	298.703	-0.126	0.232
-589.938	42.939	0.119	-0.109
-588.923	251.332	0.054	-0.092
-587.909	-78.258	0.234	0.081
-586.894	296.725	-0.196	-0.360
-585.879	-0.160	0.283	-0.202
-584.865	36.668	-0.180	0.160
-583.850	133.827	0.110	-0.143
-582.836	-200.000	-0.071	-0.333
-581.821	800.000	-0.035	0.154
-580.806	-53.569	0.267	-0.123
-579.792	1.123	0.215	-0.155
-578.777	-144.024	0.103	0.010
-577.763	-140.905	-0.293	0.030
-576.748	403.124	0.028	0.058
-575.733	-15.364	0.414	-0.266
-574.719	-29.123	0.281	-0.162
-573.704	20.184	-0.090	0.073
-572.690	-18.011	-0.112	0.071
-571.675	-68.186	0.206	0.081
-570.661	-200.000	0.041	-0.220
-569.646	-200.000	0.003	-0.130
-568.631	-150.508	0.191	-0.015
-567.617	800.000	0.069	0.201
-566.602	-200.000	-0.013	-0.078
-565.588	772.310	0.056	0.153
-564.573	-23.603	-0.097	0.059
-563.558	-200.000	-0.003	-0.070
-562.544	-200.000	0.030	0.278
-561.529	-122.363	0.376	-0.062
-560.515	-200.000	0.015	-0.072
-559.500	271.620	0.098	0.173
-558.485	341.095	-0.095	0.185
-557.471	-130.775	0.109	-0.015
-556.456	800.000	-0.032	0.136
-555.442	49.950	-0.247	0.234
-554.427	-152.116	-0.112	-0.008
-553.412	-200.000	-0.032	0.196
-552.398	271.263	-0.002	-0.003
-551.383	466.615	0.059	0.133
-550.369	317.708	-0.132	-0.250
-549.354	-123.229	-0.279	-0.045
-548.339	618.473	0.094	-0.238
-547.325	-200.000	0.013	0.080
-546.310	79.492	0.277	0.298
-545.296	800.000	0.037	0.148
-544.281	-200.000	0.051	-0.281
-543.266	-200.000	-0.008	-0.202
-542.252	221.736	-0.236	0.380
-541.237	-113.780	0.211	0.041
-540.223	-116.872	0.168	-0.031
-539.208	364.028	-0.077	-0.155
-538.193	184.331	-0.021	-0.032
-537.179	-200.000	-0.054	0.408
-536.164	-200.000	-0.019	-0.268
-535.150	-200.000	-0.045	0.205
-534.135	202.457	0.186	-0.288
-533.121	-14.690	-0.219	0.141
-532.106	800.000	-0.060	-0.255
-531.091	-91.300	0.208	0.060
-530.077	-50.241	-0.033	-0.016
-529.062	-69.090	-0.299	-0.115
-528.048	-200.000	-0.012	-0.092
-527.033	595.192	0.017	-0.043
-526.018	689.144	-0.048	-0.125
-525.004	145.989	-0.060	-0.081
-523.989	69.266	0.176	-0.181
-522.975	19.187	-0.222	0.179
-521.960	-134.506	0.092	-0.011
-520.945	-200.000	0.008	0.463
-519.931	617.890	-0.113	-0.285
-518.916	404.397	0.059	-0.125
-517.902	476.326	-0.125	-0.283
-516.887	800.000	-0.062	0.240
-515.872	-158.642	0.103	0.006
-514.858	139.049	0.110	-0.145
-513.843	-64.836	-0.364	0.147
-512.829	-164.108	0.118	0.005
-511.814	276.736	0.150	0.267
-510.799	-200.000	-0.010	0.080
-509.785	-29.621	-0.180	-0.103
-508.770	68.364	-0.238	-0.244
-507.756	-9.438	0.124	0.083
-506.741	210.599	-0.155	0.243
-505.726	-68.019	0.146	-0.057
-504.712	233.678	0.007	-0.012
-503.697	-130.622	-0.223	0.030
-502.683	30.846	-0.019	-0.016
-501.668	800.000	-0.016	-0.049
-500.653	-83.093	0.260	-0.084
-499.639	696.654	0.058	-0.154
-498.624	-28.996	0.169	-0.097
-497.610	-39.970	0.203	0.106
-496.595	155.874	-0.174	0.240
-495.581	-74.991	0.045	0.016
-494.566	800.000	-0.040	-0.113
-493.551	-152.524	-0.213	-0.015
-492.537	-200.000	0.005	0.143
-491.522	98.719	-0.157	-0.181
-490.508	-200.000	-0.040	0.204
-489.493	94.701	0.191	-0.217
-488.478	152.679	-0.020	-0.027
-487.464	800.000	-0.099	-0.396
-486.449	41.241	-0.123	-0.111
-485.435	87.159	-0.078	-0.086
-484.420	558.224	0.026	0.062
-483.405	-200.000	-0.322	-0.001
-482.391	-200.000	0.011	-0.134
-481.376	-68.332	0.282	-0.110
-480.362	109.693	-0.171	-0.205
-479.347	280.062	-0.030	0.053
-478.332	-92.525	0.114	0.032
-477.318	144.080	-0.060	0.080
-476.303	-109.948	-0.278	-0.058
-475.289	452.203	-0.131	-0.290
-474.274	-200.000	0.003	0.141
-473.259	124.735	-0.183	-0.231
-472.245	800.000	-0.055	0.185
-471.230	142.241	-0.288	-0.382
-470.216	800.000	0.081	-0.277
-469.201	228.635	-0.003	0.006
-468.186	481.265	-0.140	0.318
-467.172	101.768	0.091	0.106
-466.157	59.404	0.136	0.134
-465.143	176.503	0.026	0.038
-464.128	255.562	-0.198	-0.339
-463.113	-28.218	0.125	-0.072
-462.099	-119.382	-0.175	0.030
-461.084	800.000	-0.098	-0.283
-460.070	272.142	-0.140	-0.247
-459.055	-147.990	0.209	0.017
-458.040	70.138	-0.209	-0.216
-457.026	-109.491	0.366	0.077
-456.011	-200.000	0.021	0.166
-454.997	199.371	0.153	0.234
-453.982	800.000	-0.112	-0.419
-452.968	-34.086	0.087	0.048
-451.953	-16.173	-0.387	-0.246
-450.938	357.071	-0.089	-0.178
-449.924	-24.468	-0.053	0.031
-448.909	137.894	-0.194	0.255
-447.895	433.142	0.074	-0.161
-446.880	0.835	0.201	-0.144
-445.865	-110.300	0.162	0.034
-444.851	-186.639	-0.285	0.004
-443.836	49.178	-0.141	-0.132
-442.822	-119.955	0.351	0.060
-441.807	-64.660	-0.226	0.092
-440.792	555.337	-0.037	0.089
-439.778	57.035	0.206	0.200
-438.763	-96.937	-0.123	0.032
-437.749	82.453	-0.118	0.128
-436.734	203.624	-0.058	0.089
-435.719	-63.834	0.189	0.077
-434.705	509.794	0.125	0.290
-433.690	800.000	0.099	-0.277
-432.676	800.000	0.069	-0.238
-431.661	101.101	0.165	0.191
-430.646	-200.000	0.060	0.311
-429.632	475.556	-0.041	-0.092
-428.617	-116.249	-0.183	-0.034
-427.603	614.014	-0.059	0.147
-426.588	800.000	0.053	0.169
-425.573	-143.515	0.310	0.030
-424.559	74.484	-0.192	-0.201
-423.544	-102.812	0.234	-0.056
-422.530	-6.333	0.388	0.264
-421.515	205.807	0.050	0.078
-420.500	800.000	0.032	0.126
-419.486	171.026	-0.201	-0.287
-418.471	-3.578	0.216	-0.150
-417.457	-10.327	0.190	-0.126
-416.442	-119.378	-0.249	0.043
-415.428	-62.863	-0.230	-0.095
-414.413	-68.523	0.179	-0.069
-413.398	63.701	-0.134	-0.134
-412.384	-200.000	0.029	-0.322
-411.369	-200.000	-0.002	-0.080
-410.355	-120.667	-0.333	-0.056
-409.340	179.669	0.111	-0.162
-408.325	-200.000	-0.002	0.071
-407.311	800.000	0.090	0.299
-406.296	-52.453	-0.041	0.019
-405.282	-30.122	0.142	-0.081
-404.267	-200.000	-0.020	-0.214
-403.252	-200.000	0.001	-0.260
-402.238	-67.471	0.161	0.063
-401.223	134.829	-0.100	0.129
-400.209	526.389	-0.123	-0.288
-399.194	-200.000	0.048	-0.222
-398.179	-87.983	0.056	0.017
-397.165	-159.068	-0.108	0.006
-396.150	-200.000	0.008	0.148
-395.136	301.145	0.201	0.370
-394.121	-4.051	0.113	0.078
-393.106	-200.000	-0.013	0.111
-392.092	-69.883	-0.089	-0.034
-391.077	-70.209	0.349	0.132
-390.063	-23.705	-0.120	0.071
-389.048	800.000	-0.165	-0.533
-388.033	646.558	-0.051	0.129
-387.019	-52.169	-0.084	0.039
-386.004	19.300	-0.262	0.210
-384.990	800.000	-0.041	0.161
-383.975	800.000	0.079	0.235
-382.960	-14.306	-0.044	0.028
-381.946	353.652	-0.146	0.289
-380.931	-6.974	-0.276	0.187
-379.917	-200.000	-0.036	0.173
-378.902	61.709	-0.295	-0.292
-377.888	335.353	0.024	-0.047
-376.873	4.922	0.271	0.199
-375.858	800.000	0.045	0.168
-374.844	-53.397	0.416	0.190
-373.829	110.453	0.182	0.218
-372.815	-24.198	0.360	-0.214
-371.800	-59.404	0.315	-0.135
-370.785	141.245	-0.124	-0.164
-369.771	-140.747	-0.254	0.026
-368.756	226.692	0.017	0.028
-367.742	-200.000	0.006	0.280
-366.727	187.149	0.255	0.378
-365.712	800.000	-0.049	-0.136
-364.698	35.226	0.088	-0.077
-363.683	-51.180	-0.212	-0.099
-362.669	-120.944	0.320	0.054
-361.654	136.101	-0.196	0.255
-360.639	158.721	-0.079	0.109
-359.625	148.853	0.215	-0.289
-358.610	800.000	-0.101	-0.297
-357.596	800.000	0.018	-0.056
-356.581	-132.479	0.254	0.032
-355.566	-136.868	-0.140	-0.016
-354.552	-200.000	-0.011	0.207
-353.537	64.261	0.264	0.264
-352.523	-101.701	-0.178	0.043
-351.508	147.049	0.074	0.099
-350.493	192.276	-0.090	0.135
-349.479	-38.597	-0.303	0.159
-348.464	25.734	-0.128	0.106
-347.450	-200.000	-0.004	0.186
-346.435	-52.454	-0.117	0.054
-345.420	-62.648	-0.324	-0.134
-344.406	-86.728	-0.064	0.020
-343.391	-105.369	0.391	-0.088
-342.377	-36.826	0.235	-0.126
-341.362	-10.099	-0.208	0.137
-340.348	800.000	0.081	-0.300
-339.333	163.451	-0.094	0.131
-338.318	-200.000	-0.015	0.355
-337.304	547.785	0.059	0.141
-336.289	374.074	-0.086	0.174
-335.275	192.461	0.027	0.041
-334.260	1.792	0.204	0.146
-333.245	125.504	0.198	-0.249
-332.231	-53.944	-0.155	-0.070
-331.216	-200.000	-0.015	0.083
-330.202	81.229	0.051	0.054
-329.187	-200.000	0.008	-0.048
-328.172	-52.723	-0.202	0.093
-327.158	-73.563	0.156	-0.057
-326.143	-67.202	-0.102	-0.040
-325.129	-79.239	0.385	-0.130
-324.114	127.698	0.016	0.020
-323.099	800.000	-0.061	0.196
-322.085	-70.923	0.196	-0.073
-321.070	47.603	0.142	-0.132
-320.056	-50.131	0.362	-0.171
-319.041	-101.182	0.098	0.024
-318.026	220.968	-0.035	0.055
-317.012	-137.080	0.145	-0.016
-315.997	800.000	-0.074	0.279
-314.983	-33.274	-0.211	0.116
-313.968	-106.003	-0.363	0.081
-312.953	145.699	-0.253	0.337
-311.939	-78.144	0.165	0.056
-310.924	-104.111	0.186	0.043
-309.910	-99.184	0.054	-0.014
-308.895	800.000	-0.104	-0.412
-307.880	-130.935	0.183	0.024
-306.866	29.558	-0.441	-0.373
-305.851	6.250	-0.289	0.213
-304.837	-200.000	0.001	0.097
-303.822	-200.000	-0.006	-0.113
-302.807	800.000	-0.161	-0.529
-301.793	-200.000	0.040	-0.223
-300.778	-141.459	-0.274	-0.028
-299.764	500.664	-0.014	0.033
-298.749	274.727	-0.109	0.193
-297.735	8.928	0.105	0.079
-296.720	-78.498	0.548	0.186
-295.705	35.731	0.102	-0.089
-294.691	-54.392	-0.107	-0.048
-293.676	-28.863	-0.400	-0.228
-292.662	-43.147	0.029	-0.015
-291.647	-65.556	0.092	-0.037
-290.632	-104.808	-0.337	0.077
-289.618	-0.263	0.105	-0.074
-288.603	800.000	-0.135	0.373
-287.589	14.379	0.352	-0.272
-286.574	-200.000	-0.038	0.218
-285.559	126.415	-0.034	0.043
-284.545	-155.500	0.211	-0.013
-283.530	-200.000	-0.009	-0.065
-282.516	-200.000	-0.010	0.087
-281.501	-70.995	-0.204	-0.076
-280.486	-200.000	-0.010	-0.102
-279.472	267.100	0.104	-0.180
-278.457	-200.000	-0.069	0.534
-277.443	-167.562	-0.157	0.006
-276.428	800.000	0.061	-0.220
-275.413	284.931	0.061	-0.108
-274.399	1.453	0.209	0.149
-273.384	800.000	0.018	0.072
-272.370	137.030	0.013	-0.017
-271.355	-200.000	0.002	0.127
-270.340	121.200	-0.093	0.114
-269.326	-191.850	-0.106	0.001
-268.311	165.580	0.037	-0.052
-267.297	533.632	-0.102	-0.241
-266.282	312.843	0.084	0.156
-265.267	-80.937	0.231	-0.076
-264.253	70.119	-0.034	-0.035
-263.238	-200.000	0.059	-0.284
-262.224	156.447	0.111	0.152
-261.209	18.334	-0.259	0.205
-260.195	235.525	-0.139	-0.227
-259.180	800.000	-0.086	-0.267
-258.165	-111.399	-0.029	-0.006
-257.151	-36.584	-0.081	0.043
-256.136	271.267	-0.153	0.267
-255.122	-118.278	0.173	0.031
-254.107	-0.466	0.129	-0.091
-253.092	-200.000	0.006	0.076
-252.078	-118.416	-0.098	0.017
-251.063	-200.000	0.001	-0.250
-250.049	-200.000	0.036	0.161
-249.034	202.267	0.130	-0.199
-248.019	-145.152	-0.095	-0.009
-247.005	223.077	0.186	0.298
-245.990	-111.029	-0.243	0.049
-244.976	290.927	0.186	0.335
-243.961	-34.192	0.257	-0.140
-242.946	30.433	0.206	-0.174
-241.932	276.460	-0.057	0.101
-240.917	135.198	-0.274	0.354
-239.903	309.775	0.085	-0.158
-238.888	-200.000	-0.038	0.169
-237.873	14.094	0.082	-0.064
-236.859	-200.000	-0.023	0.132
-235.844	170.588	-0.058	0.083
-234.830	-192.246	-0.140	0.001
-233.815	-4.033	-0.279	0.191
-232.800	45.489	-0.115	-0.105
-231.786	-137.259	0.266	-0.030
-230.771	-200.000	-0.003	-0.303
-229.757	-200.000	0.006	-0.176
-228.742	-40.409	-0.136	-0.070
-227.727	19.575	0.250	-0.199
-226.713	-200.000	0.067	0.306
-225.698	800.000	-0.027	-0.107
-224.684	20.605	-0.144	-0.115
-223.669	150.265	-0.061	-0.082
-222.655	-144.788	0.244	-0.022
-221.640	41.865	0.184	-0.165
-220.625	-200.000	-0.044	0.358
-219.611	-2.673	-0.161	0.111
-218.596	11.963	0.177	-0.134
-217.582	22.997	-0.186	0.151
-216.567	146.476	0.192	-0.255
-215.552	553.083	-0.120	0.285
-214.538	-23.018	-0.108	0.064
-213.523	-3.801	-0.065	-0.045
-212.509	137.381	0.196	-0.253
-211.494	217.570	0.045	0.072
-210.479	-13.759	-0.103	0.066
-209.465	-200.000	0.021	-0.128
-208.450	-200.000	0.009	-0.117
-207.436	262.071	-0.102	-0.175
-206.421	-78.131	0.144	-0.049
-205.406	-78.141	0.099	-0.034
-204.392	466.748	-0.126	-0.279
-203.377	69.653	0.155	-0.158
-202.363	-68.042	0.418	-0.161
-201.348	156.492	0.291	0.398
-200.333	155.160	-0.096	0.130
-199.319	1.675	-0.127	-0.091
-198.304	790.866	0.056	0.152
-197.290	200.109	0.241	0.366
-196.275	132.830	-0.231	0.295
-195.260	2.188	-0.079	0.056
-194.246	800.000	-0.196	-0.548
-193.231	408.036	0.102	-0.213
-192.217	459.352	-0.098	0.216
-191.202	-200.000	0.029	0.203
-190.187	800.000	-0.007	-0.029
-189.173	147.600	0.224	0.298
-188.158	-104.487	0.332	0.076
-187.144	-74.905	-0.190	-0.067
-186.129	-160.050	-0.190	0.010
-185.114	-115.106	-0.474	0.089
-184.100	11.820	0.234	0.177
-183.085	-198.505	0.340	-0.002
-182.071	-200.000	0.014	0.234
-181.056	-200.000	-0.006	-0.051
-180.042	513.281	0.080	0.184
-179.027	-97.144	-0.152	-0.039
-178.012	-170.437	-0.232	0.008
-176.998	-74.223	0.115	-0.041
-175.983	-145.884	0.279	-0.025
-174.969	254.529	0.048	-0.081
-173.954	800.000	-0.092	-0.383
-172.939	800.000	-0.054	0.184
-171.925	57.632	-0.093	-0.090
-170.910	-10.841	0.194	0.127
-169.896	-200.000	-0.011	0.161
-168.881	-85.364	0.211	0.065
-167.866	272.022	0.194	0.337
-166.852	666.798	0.120	0.306
-165.837	-200.000	0.001	-0.041
-164.823	4.661	-0.149	0.108
-163.808	-81.260	-0.177	-0.058
-162.793	72.008	0.019	0.019
-161.779	77.392	-0.276	0.290
-160.764	181.802	0.091	-0.132
-159.750	-61.935	-0.351	0.145
-158.735	479.762	0.056	0.126
-157.720	-189.262	-0.230	-0.003
-156.706	-139.624	0.109	0.011
-155.691	-37.264	0.173	0.091
-154.677	-200.000	0.023	0.296
-153.662	-142.397	-0.078	0.008
-152.647	30.411	0.096	0.081
-151.633	229.605	0.107	0.172
-150.618	466.287	-0.126	0.278
-149.604	-200.000	-0.027	0.117
-148.589	-89.017	-0.187	-0.055
-147.574	-44.209	0.190	-0.094
-146.560	-200.000	-0.019	-0.121
-145.545	800.000	0.113	0.335
-144.531	-3.349	0.210	0.144
-143.516	707.747	0.048	0.125
-142.502	14.865	0.213	0.165
-141.487	-133.976	0.283	-0.035
-140.472	17.099	-0.171	0.134
-139.458	-162.002	0.060	-0.003
-138.443	741.058	-0.065	-0.172
-137.429	22.609	0.214	0.172
-136.414	800.000	0.094	-0.268
-135.399	12.885	0.057	0.044
-134.385	-51.629	-0.149	-0.068
-133.370	-101.944	-0.170	0.041
-132.356	76.477	-0.144	-0.151
-131.341	208.536	-0.049	0.076
-130.326	-200.000	-0.044	-0.191
-129.312	-91.922	-0.210	-0.059
-128.297	-200.000	-0.011	-0.200
-127.283	-37.944	-0.192	0.100
-126.268	-200.000	0.061	0.389
-125.253	-1.377	0.180	-0.125
-124.239	-200.000	-0.029	-0.534
-123.224	-158.781	0.087	-0.005
-122.210	430.467	0.030	0.063
-121.195	323.214	0.008	0.015
-120.180	-55.675	0.216	0.095
-119.166	-70.892	0.082	-0.031
-118.151	206.839	0.062	0.095
-117.137	59.303	-0.141	-0.137
-116.122	521.402	0.112	-0.259
-115.107	800.000	-0.044	-0.148
-114.093	-34.799	0.113	-0.061
-113.078	-21.406	0.097	0.058
-112.064	446.814	0.110	-0.238
-111.049	115.046	0.231	-0.277
-110.034	125.376	-0.227	0.282
-109.020	8.429	-0.185	-0.137
-108.005	800.000	-0.056	0.199
-106.991	-200.000	-0.031	0.153
-105.976	212.959	0.082	-0.128
-104.962	12.354	0.086	0.065
-103.947	-112.680	0.234	-0.046
-102.932	88.245	0.367	-0.402
-101.918	106.541	0.147	-0.172
-100.903	39.698	0.120	-0.106
-99.889	587.824	0.154	0.373
-98.874	-60.860	-0.215	0.090
-97.859	-91.289	0.057	-0.016
-96.845	-152.619	0.072	-0.005
-95.830	800.000	-0.066	0.197
-94.816	113.634	-0.107	0.128
-93.801	724.802	-0.033	0.087
-92.786	60.344	-0.255	-0.249
-91.772	-147.849	0.312	-0.026
-90.757	800.000	0.090	0.280
-89.743	-28.820	-0.192	-0.109
-88.728	800.000	0.088	0.305
-87.713	737.053	-0.129	0.340
-86.699	711.831	0.101	0.264
-85.684	-63.533	0.115	0.046
-84.670	-200.000	-0.028	0.199
-83.655	113.733	-0.180	0.216
-82.640	-124.924	-0.194	0.029
-81.626	758.968	0.022	0.059
-80.611	-200.000	0.009	0.082
-79.597	12.443	-0.058	0.044
-78.582	-200.000	0.132	-0.001
-77.567	34.036	-0.098	0.084
-76.553	-200.000	-0.042	-0.275
-75.538	32.564	0.263	0.224
-74.524	-87.992	0.223	-0.066
-73.509	-79.254	0.281	-0.094
-72.494	-106.762	0.027	0.006
-71.480	-10.626	-0.211	-0.138
-70.465	-72.738	0.332	-0.121
-69.451	-176.875	0.124	-0.003
-68.436	35.988	-0.087	0.075
-67.422	-200.000	-0.022	0.258
-66.407	399.470	-0.096	0.198
-65.392	-63.690	-0.075	0.030
-64.378	-176.452	0.135	-0.003
-63.363	-41.870	0.193	0.097
-62.349	-52.213	0.351	0.160
-61.334	69.605	-1.057	-1.071
-60.319	35.061	0.394	0.339
-59.305	-200.000	-0.260	-1.152
-58.290	800.000	0.249	0.736
-57.276	-200.000	0.331	1.624
-56.261	-200.000	93.880	563.201
-55.246	509.482	1403.922	3209.746
-54.232	152.580	2612.504	3510.153
-53.217	110.198	2219.645	2621.624
-52.203	42.770	1748.789	1566.833
-51.188	34.958	1556.764	1340.276
-50.173	32.658	1528.925	1300.410
-49.159	51.787	1576.810	1475.508
-48.144	53.317	1593.845	1502.104
-47.130	35.346	1554.829	1341.110
-46.115	32.201	1540.054	1306.487
-45.100	32.060	1536.965	1302.837
-44.086	31.930	1534.787	1300.039
-43.071	32.006	1533.006	1299.003
-42.057	31.857	1531.332	1296.504
-41.042	31.858	1530.152	1295.458
-40.027	31.932	1528.420	1294.456
-39.013	31.821	1526.774	1292.242
-37.998	31.938	1525.212	1291.673
-36.984	31.865	1524.475	1290.499
-35.969	31.804	1523.259	1288.996
-34.954	31.933	1521.401	1288.258
-33.940	31.831	1520.357	1286.624
-32.925	31.829	1518.874	1285.305
-31.911	31.910	1517.290	1284.466
-30.896	32.002	1515.612	1283.625
-29.881	31.940	1514.285	1282.030
-28.867	31.875	1513.399	1280.782
-27.852	31.878	1511.802	1279.398
-26.838	31.928	1509.868	1278.057
-25.823	31.964	1508.934	1277.458
-24.809	31.916	1507.150	1275.574
-23.794	31.895	1505.331	1273.835
-22.779	31.936	1504.222	1273.128
-21.765	31.899	1503.244	1272.000
-20.750	31.916	1501.979	1270.994
-19.736	31.824	1501.276	1269.723
-18.721	31.896	1499.838	1268.947
-17.706	31.912	1498.696	1268.039
-16.692	31.822	1498.208	1266.964
-15.677	31.775	1496.782	1265.393
-14.663	31.872	1495.333	1264.773
-13.648	31.771	1494.855	1263.638
-12.633	31.845	1493.655	1263.069
-11.619	31.759	1492.971	1261.861
-10.604	31.840	1492.105	1261.623
-9.590	31.840	1490.953	1260.602
-8.575	31.785	1490.608	1259.886
-7.560	31.912	1489.004	1259.336
-6.546	31.797	1488.710	1258.265
-5.531	31.727	1487.914	1257.075
-4.517	31.804	1486.156	1256.055
-3.502	31.664	1485.989	1254.926
-2.487	31.726	1484.629	1254.144
-1.473	31.867	1482.950	1253.613
-0.458	31.807	1481.685	1252.095
0.556	31.179	1473.317	1243.013
1.571	28.763	1446.302	1204.296
2.586	25.159	1383.599	1129.334
3.600	22.889	1296.953	1045.098
4.615	20.526	1250.208	993.850
5.629	17.223	1191.566	929.115
6.644	8.934	1104.141	818.708
7.659	2.264	1062.740	755.079
8.673	1.199	1057.362	745.952
9.688	1.024	1054.067	742.705
10.702	1.064	1052.386	741.653
11.717	0.923	1050.695	739.707
12.731	3.329	1053.011	753.043
13.746	10.856	1062.855	797.039
14.761	16.376	1070.012	829.510
15.775	17.544	1070.285	835.385
16.790	17.158	1069.424	832.743
17.804	16.122	1067.363	825.996
18.819	15.395	1065.177	820.676
19.834	14.808	1064.179	816.967
20.848	14.590	1062.714	814.705
21.863	14.348	1061.611	812.607
22.877	14.081	1061.081	810.827
23.892	13.738	1060.674	808.772
24.907	13.765	1059.403	807.860
25.921	13.767	1058.555	807.156
26.936	13.697	1058.226	806.490
27.950	13.852	1057.360	806.511
28.965	13.793	1056.805	805.732
29.980	13.834	1055.705	805.023
30.994	14.074	1054.265	805.013
32.009	14.047	1053.984	804.597
33.023	14.018	1053.084	803.698
34.038	14.101	1052.318	803.445
35.053	13.906	1051.633	801.910
36.067	13.958	1050.748	801.412
37.082	13.927	1050.148	800.737
38.096	13.927	1049.319	800.033
39.111	13.910	1048.545	799.289
40.126	13.946	1047.259	798.413
41.140	13.891	1046.349	797.382
42.155	13.782	1045.770	796.347
43.169	13.856	1044.545	795.700
44.184	13.732	1044.156	794.739
45.199	13.671	1042.868	793.395
46.213	13.812	1041.517	792.971
47.228	13.826	1040.777	792.406
48.242	13.854	1039.728	791.669
49.257	13.969	1038.441	791.169
50.271	13.940	1037.813	790.481
51.286	13.869	1037.037	789.483
52.301	13.941	1035.774	788.795
53.315	13.920	1035.443	788.371
54.330	13.835	1034.658	787.300
55.344	13.831	1033.797	786.555
56.359	13.889	1032.473	785.756
57.374	13.873	1031.973	785.230
58.388	13.836	1030.857	784.138
59.403	13.760	1030.013	783.068
60.417	13.760	1029.262	782.424
61.432	13.717	1028.749	781.764
62.447	13.848	1027.384	781.273
63.461	13.795	1026.853	780.552
64.476	13.695	1026.132	779.463
65.490	13.571	1025.750	778.521
66.505	13.766	1024.641	778.527
67.520	13.691	1023.842	777.499
68.534	13.678	1023.373	777.013
69.549	13.752	1022.290	776.471
70.563	13.839	1021.578	776.267
71.578	13.801	1020.607	775.280
72.593	13.709	1020.090	774.391
73.607	13.703	1019.146	773.580
74.622	13.687	1018.120	772.657
75.636	13.575	1017.723	771.766
76.651	13.694	1016.537	771.353
77.666	13.682	1015.707	770.597
78.680	13.703	1014.840	769.970
79.695	13.790	1014.533	770.074
80.709	13.773	1013.857	769.412
81.724	13.685	1013.051	768.324
82.739	13.761	1011.817	767.671
83.753	13.794	1011.365	767.415
84.768	13.867	1010.751	767.218
85.782	13.897	1009.950	766.679
86.797	14.016	1009.344	766.700
87.812	13.906	1008.383	765.399
88.826	13.922	1007.716	764.898
89.841	13.819	1006.791	763.652
90.855	13.848	1005.850	763.003
91.870	14.015	1004.527	762.701
92.884	14.060	1004.191	762.582
93.899	13.843	1003.630	761.095
94.914	14.126	1002.884	761.760
95.928	13.953	1002.219	760.396
96.943	14.031	1001.699	760.289
97.957	14.043	1000.498	759.368
98.972	13.980	999.842	758.514
99.987	13.908	998.905	757.405
101.001	13.978	998.416	757.288
102.016	13.824	997.655	755.942
103.030	13.976	996.399	755.616
104.045	14.022	994.934	754.647
105.060	14.010	994.841	754.456
106.074	13.853	993.738	752.840
107.089	13.940	992.738	752.408
108.103	13.769	991.917	750.945
109.118	13.777	991.114	750.307
110.133	13.795	990.331	749.729
111.147	13.886	989.162	749.189
112.162	13.745	988.680	748.120
113.176	13.729	987.443	747.049
114.191	13.989	986.604	747.515
115.206	13.818	985.868	746.125
116.220	13.955	984.891	745.933
117.235	14.031	983.755	745.348
118.249	13.800	983.421	743.995
119.264	13.875	982.394	743.485
120.279	13.932	981.748	743.187
121.293	13.801	980.983	741.959
122.308	13.916	980.126	741.758
123.322	13.914	979.446	741.169
124.337	13.791	978.434	739.789
125.352	13.798	977.152	738.785
126.366	13.905	975.946	738.282
127.381	13.939	975.065	737.704
128.395	13.905	973.807	736.533
129.410	13.829	972.950	735.484
130.424	13.879	971.989	734.912
131.439	13.982	970.482	734.167
132.454	13.817	970.591	733.452
133.468	13.961	969.768	733.404
134.483	13.989	968.678	732.638
135.497	13.969	967.966	731.945
136.512	13.991	967.471	731.601
137.527	14.010	966.487	730.879
138.541	13.980	965.632	730.036
139.556	13.883	965.274	729.273
140.570	13.976	964.240	728.834
141.585	13.931	963.397	727.934
142.600	14.025	962.905	727.911
143.614	14.170	962.036	727.824
144.629	14.144	961.125	726.957
145.643	13.998	960.743	725.966
146.658	14.119	959.772	725.698
147.673	14.074	958.807	724.706
148.687	14.114	958.322	724.451
149.702	14.051	957.253	723.305
150.716	13.995	956.139	722.157
151.731	13.989	955.254	721.395
152.746	13.980	954.577	720.784
153.760	14.054	953.975	720.584
154.775	13.985	953.527	719.884
155.789	14.058	952.214	719.145
156.804	14.094	951.651	718.812
157.819	14.101	950.695	718.058
158.833	14.252	949.850	718.005
159.848	14.075	949.256	716.731
160.862	14.223	948.588	716.800
161.877	14.212	948.016	716.255
162.892	14.157	946.967	715.164
163.906	13.998	946.516	714.079
164.921	14.055	945.571	713.545
165.935	14.151	944.083	712.772
166.950	14.256	943.085	712.403
167.964	14.207	942.262	711.509
168.979	14.280	941.495	711.181
169.994	14.345	940.120	710.358
171.008	13.966	940.222	708.755
172.023	14.244	939.391	709.247
173.037	14.181	938.640	708.349
174.052	14.340	937.389	708.020
175.067	14.265	936.891	707.264
176.081	14.221	936.256	706.535
177.096	14.230	935.486	705.927
178.110	14.184	934.905	705.232
179.125	14.342	933.643	704.887
180.140	14.249	933.139	704.050
181.154	14.281	932.264	703.462
182.169	14.173	932.108	702.829
183.183	14.361	930.869	702.625
184.198	14.460	930.020	702.340
185.213	14.485	929.404	701.917
186.227	14.357	928.990	701.004
187.242	14.483	928.199	700.876
188.256	14.316	928.063	700.008
189.271	14.393	926.951	699.428
190.286	14.532	926.071	699.285
191.300	14.482	925.516	698.596
192.315	14.328	924.973	697.481
193.329	14.359	924.178	696.948
194.344	14.441	923.332	696.591
195.359	14.466	922.671	696.135
196.373	14.427	922.255	695.595
197.388	14.508	921.572	695.357
198.402	14.533	921.203	695.122
199.417	14.500	920.879	694.677
200.432	14.564	920.141	694.325
201.446	14.647	919.587	694.194
202.461	14.606	919.570	693.948
203.475	14.640	918.957	693.565
204.490	14.477	918.297	692.329
205.504	14.674	917.032	692.130
206.519	14.621	916.523	691.467
207.534	14.648	915.851	691.008
208.548	14.503	915.437	690.034
209.563	14.742	914.391	690.173
210.577	14.604	913.620	688.960
211.592	14.676	913.404	689.033
212.607	14.802	912.616	688.897
213.621	14.834	912.190	688.647
214.636	14.757	911.570	687.804
215.650	14.791	910.649	687.188
216.665	14.685	910.606	686.657
217.680	14.909	909.817	686.919
218.694	14.851	908.879	685.913
219.709	14.792	909.061	685.749
220.723	14.966	907.629	685.321
221.738	14.915	907.178	684.712
222.753	14.924	906.426	684.120
223.767	14.990	905.663	683.754
224.782	14.963	905.256	683.277
225.796	15.080	904.257	682.938
226.811	14.982	903.691	682.049
227.826	14.951	902.726	681.136
228.840	15.017	902.128	680.894
229.855	15.056	901.641	680.623
230.869	15.018	900.913	679.858
231.884	15.042	900.149	679.318
232.899	15.083	899.415	678.872
233.913	15.053	898.786	678.214
234.928	14.991	898.237	677.492
235.942	15.071	897.528	677.221
236.957	14.986	897.305	676.647
237.972	14.900	896.379	675.543
238.986	14.971	895.657	675.226
240.001	15.013	894.730	674.635
241.015	14.953	894.373	674.064
242.030	15.131	893.167	673.811
243.045	15.156	892.524	673.368
244.059	15.188	892.009	673.048
245.074	15.160	891.522	672.510
246.088	15.184	890.891	672.069
247.103	15.296	890.489	672.155
248.117	15.137	890.313	671.327
249.132	15.184	889.162	670.588
250.147	15.431	888.486	671.004
251.161	15.361	887.667	670.050
252.176	15.263	887.319	669.336
253.190	15.261	886.633	668.751
254.205	15.431	885.590	668.582
255.220	15.486	885.201	668.449
256.234	15.471	884.684	667.939
257.249	15.589	883.978	667.815
258.263	15.543	883.640	667.320
259.278	15.611	882.978	667.030
260.293	15.442	882.476	665.921
261.307	15.552	881.909	665.872
262.322	15.591	880.982	665.265
263.336	15.538	880.958	664.980
264.351	15.637	880.180	664.725
265.366	15.716	879.350	664.352
266.380	15.704	878.755	663.794
267.395	15.774	878.147	663.555
268.409	15.692	877.161	662.427
269.424	15.763	876.742	662.329
270.439	15.606	876.073	661.151
271.453	15.656	875.230	660.653
272.468	15.629	874.490	659.928
273.482	15.694	874.086	659.820
274.497	15.776	873.411	659.575
275.512	15.791	872.830	659.135
276.526	15.686	872.023	658.058
277.541	15.703	871.211	657.451
278.555	15.784	870.607	657.255
279.570	15.971	870.084	657.532
280.585	15.769	869.792	656.466
281.599	15.957	869.263	656.742
282.614	15.957	868.220	655.895
283.628	15.805	867.905	655.007
284.643	15.925	867.551	655.147
285.657	15.918	866.648	654.381
286.672	15.854	866.274	653.791
287.687	15.910	865.695	653.516
288.701	15.924	865.150	653.099
289.716	15.925	864.603	652.633
290.730	16.095	864.112	652.864
291.745	16.058	863.255	652.014
292.760	16.040	862.756	651.509
293.774	15.957	862.419	650.878
294.789	16.000	861.498	650.290
295.803	16.047	860.965	650.011
296.818	16.130	860.241	649.729
297.833	16.114	859.677	649.181
298.847	16.151	858.842	648.636
299.862	16.210	857.908	648.101
300.876	16.206	857.307	647.575
301.891	16.249	856.784	647.287
302.906	16.183	855.996	646.381
303.920	16.268	855.287	646.116
304.935	16.218	855.047	645.683
305.949	16.312	854.500	645.573
306.964	16.425	853.487	645.183
307.979	16.352	852.979	644.464
308.993	16.355	852.538	644.085
310.008	16.412	852.304	644.070
311.022	16.343	851.387	643.054
312.037	16.307	851.303	642.796
313.052	16.256	850.869	642.220
314.066	16.433	849.885	642.092
315.081	16.381	849.062	641.216
316.095	16.302	848.904	640.742
317.110	16.274	848.554	640.315
318.125	16.317	847.927	639.948
319.139	16.289	847.333	639.336
320.154	16.402	846.658	639.198
321.168	16.606	845.992	639.408
322.183	16.477	845.437	638.444
323.197	16.526	845.039	638.272
324.212	16.647	844.032	637.912
325.227	16.554	843.759	637.299
326.241	16.496	843.318	636.691
327.256	16.543	842.631	636.294
328.270	16.520	841.997	635.674
329.285	16.409	841.839	635.077
330.300	16.582	840.807	634.895
331.314	16.504	840.373	634.217
332.329	16.556	839.773	633.903
333.343	16.560	839.158	633.397
334.358	16.644	838.598	633.235
335.373	16.759	837.766	632.977
336.387	16.679	837.574	632.480
337.402	16.686	837.002	632.017
338.416	16.731	836.212	631.533
339.431	16.814	835.747	631.436
340.446	16.795	835.234	630.921
341.460	16.764	834.508	630.200
342.475	16.724	833.984	629.601
343.489	16.776	833.653	629.488
344.504	16.771	833.289	629.141
345.519	16.914	832.535	629.045
346.533	17.041	831.591	628.746
347.548	17.019	831.563	628.587
348.562	17.084	830.801	628.198
349.577	16.933	830.432	627.305
350.592	16.918	829.881	626.777
351.606	17.013	829.314	626.644
352.621	16.948	828.876	626.017
353.635	16.932	828.562	625.667
354.650	16.984	827.965	625.351
355.665	17.043	827.617	625.251
356.679	16.985	827.409	624.823
357.694	17.092	826.851	624.740
358.708	17.052	826.114	623.984
359.723	17.203	825.350	623.903
360.738	17.101	824.827	623.080
361.752	17.094	824.729	622.925
362.767	17.042	824.059	622.172
363.781	17.144	823.536	622.097
364.796	17.058	823.535	621.726
365.810	17.116	822.916	621.416
366.825	17.233	822.347	621.361
367.840	17.332	821.802	621.255
368.854	17.201	821.842	620.750
369.869	17.288	820.974	620.358
370.883	17.303	820.484	619.989
371.898	17.163	820.189	619.198
372.913	17.222	819.579	618.898
373.927	17.152	819.137	618.255
374.942	17.280	818.258	618.004
375.956	17.407	817.530	617.861
376.971	17.504	816.881	617.667
377.986	17.402	816.518	616.967
379.000	17.388	816.079	616.529
380.015	17.610	815.505	616.845
381.029	17.551	814.864	616.092
382.044	17.511	814.386	615.534
383.059	17.466	813.843	614.907
384.073	17.576	812.967	614.584
385.088	17.501	812.696	614.057
386.102	17.484	812.358	613.685
387.117	17.584	811.606	613.423
388.132	17.556	811.276	613.020
389.146	17.487	810.914	612.443
390.161	17.581	810.255	612.229
391.175	17.571	810.241	612.129
392.190	17.597	809.896	611.907
393.205	17.594	809.209	611.322
394.219	17.551	808.864	610.852
395.234	17.669	808.016	610.583
396.248	17.587	807.933	610.172
397.263	17.618	807.317	609.761
398.278	17.525	806.834	609.011
399.292	17.735	806.351	609.342
400.307	17.577	805.776	608.291
401.321	17.604	805.842	608.383
402.336	17.652	805.220	608.032
403.350	17.621	805.096	607.775
404.365	17.690	804.489	607.507
405.380	17.715	803.559	606.840
406.394	17.858	803.203	607.028
407.409	17.937	802.422	606.663
408.423	17.835	802.326	606.173
409.438	17.843	802.191	606.046
410.453	17.803	801.978	605.691
411.467	17.867	801.484	605.491
412.482	17.848	801.041	605.034
413.496	17.945	800.151	604.654
414.511	18.033	799.656	604.538
415.526	18.051	799.502	604.429
416.540	17.931	799.515	603.962
417.555	18.043	798.708	603.697
418.569	18.094	798.213	603.449
419.584	17.860	798.058	602.452
420.599	18.002	797.332	602.349
421.613	109.104	1289.477	1462.146
422.628	93.850	1361.174	1462.248
