DTS Sentinel unit serial number:	SN413079Multiplexer serial number:	ORYXHardware model number:	OX4-SRSoftware version number:	ORYX F/W v4.00 Oryx Data Collector v3.7.2.0data status	okinstallation	princeton_trtdifferential loss correction	single-endedforward channel	channel 3reverse channel	N/Adate	2019/09/14time	19:44:35forward acquisition time	60.00reverse acquisition time	0.00gamma	496.2192k internal	0.2313k external	0.2313temperature offset calibration	1.0010default loss term (dB/km)	0.3790temperature slope calibration	1.0000multiplexer offset coefficient	1.0000multiplexer slope coefficient	1.0000fibre end	0.00T internal ref (°C)	34.44T ext. ref 1 (°C)	4.90T ext. ref 2 (°C)	28.61length (m)	temperature (°C)	Stokes	anti-Stokes-747.200	-114.199	-0.402	0.079
-746.185	-200.000	-0.002	0.101
-745.171	-200.000	-0.017	0.306
-744.156	104.677	0.082	0.098
-743.142	65.189	0.104	0.107
-742.127	187.759	0.245	0.371
-741.112	1.929	0.123	0.090
-740.098	133.416	-0.181	0.237
-739.083	-200.000	0.023	0.110
-738.069	-119.941	-0.120	-0.021
-737.054	1.895	-0.238	-0.174
-736.039	340.171	0.172	-0.341
-735.025	5.823	0.336	-0.252
-734.010	249.615	-0.179	-0.307
-732.996	-23.539	-0.242	0.147
-731.981	156.185	0.166	0.233
-730.966	-91.904	-0.122	-0.035
-729.952	145.540	0.115	0.156
-728.937	3.279	-0.399	0.294
-727.923	-200.000	0.050	-0.226
-726.908	485.158	0.026	0.059
-725.894	-120.306	0.070	-0.012
-724.879	232.043	-0.114	0.189
-723.864	-133.386	-0.327	0.042
-722.850	105.132	0.047	-0.057
-721.835	-144.738	-0.362	-0.034
-720.821	308.436	0.121	0.230
-719.806	-72.024	-0.257	0.097
-718.791	40.410	0.124	0.113
-717.777	131.596	-0.083	-0.109
-716.762	181.137	0.084	-0.124
-715.748	800.000	0.021	-0.062
-714.733	800.000	0.073	0.230
-713.718	-200.000	-0.015	0.135
-712.704	-144.367	-0.051	0.005
-711.689	187.142	-0.101	0.153
-710.675	127.225	0.057	0.073
-709.660	71.703	0.126	0.133
-708.645	-200.000	-0.041	0.187
-707.631	26.795	0.098	0.083
-706.616	800.000	-0.055	-0.163
-705.602	-48.321	-0.215	0.105
-704.587	-49.120	-0.064	0.031
-703.572	-87.748	-0.313	0.095
-702.558	-42.797	-0.338	-0.174
-701.543	29.617	-0.168	-0.145
-700.529	681.887	-0.067	0.176
-699.514	541.216	-0.075	-0.180
-698.499	-114.600	-0.283	-0.055
-697.485	-53.547	-0.083	0.038
-696.470	-130.719	-0.243	0.033
-695.456	-86.275	-0.232	0.072
-694.441	16.748	-0.026	-0.021
-693.426	-81.630	0.080	0.027
-692.412	-200.000	0.038	-0.444
-691.397	116.233	0.193	-0.239
-690.383	276.927	-0.150	0.269
-689.368	213.135	0.050	-0.080
-688.354	-39.430	-0.149	0.079
-687.339	219.908	-0.292	0.473
-686.324	76.575	-0.212	0.227
-685.310	-96.773	0.340	-0.090
-684.295	-200.000	0.004	-0.152
-683.281	30.906	-0.328	-0.284
-682.266	-94.127	-0.090	0.025
-681.251	378.541	0.197	0.408
-680.237	-37.882	-0.174	-0.094
-679.222	-200.000	-0.053	0.251
-678.208	-128.660	0.230	-0.033
-677.193	1.050	0.330	0.240
-676.178	-41.994	0.076	-0.039
-675.164	-200.000	-0.076	-0.341
-674.149	-69.124	-0.452	-0.176
-673.135	-27.805	0.363	0.213
-672.120	-200.000	-0.004	-0.160
-671.105	54.137	0.286	-0.278
-670.091	-200.000	-0.003	-0.366
-669.076	198.604	0.096	-0.148
-668.062	75.509	0.109	-0.116
-667.047	-59.547	0.261	-0.113
-666.032	-87.208	-0.100	-0.031
-665.018	-44.211	0.245	0.124
-664.003	-200.000	0.017	-0.281
-662.989	-200.000	-0.014	-0.278
-661.974	26.466	-0.113	-0.096
-660.959	34.330	0.122	-0.108
-659.945	-82.829	0.170	0.056
-658.930	653.579	0.031	-0.080
-657.916	-61.345	0.202	-0.086
-656.901	213.980	-0.114	0.183
-655.886	128.926	0.053	0.068
-654.872	-82.517	-0.250	0.082
-653.857	180.259	0.081	-0.120
-652.843	800.000	-0.071	0.285
-651.828	-200.000	-0.001	0.163
-650.814	86.158	-0.159	0.177
-649.799	309.172	0.109	-0.205
-648.784	800.000	0.108	0.312
-647.770	149.234	-0.055	0.076
-646.755	108.641	-0.204	0.246
-645.741	8.750	-0.239	0.182
-644.726	-46.647	-0.479	-0.237
-643.711	800.000	0.069	0.195
-642.697	-148.046	-0.239	0.020
-641.682	-118.000	0.057	-0.010
-640.668	291.032	0.036	-0.067
-639.653	733.798	-0.108	0.291
-638.638	-12.822	-0.319	0.210
-637.624	635.448	-0.104	0.266
-636.609	15.440	-0.134	-0.107
-635.595	769.735	-0.114	-0.313
-634.580	-137.082	-0.058	-0.007
-633.565	-36.922	0.069	-0.037
-632.551	168.335	-0.038	-0.054
-631.536	-77.054	0.187	0.066
-630.522	-70.779	-0.273	-0.104
-629.507	120.221	-0.159	0.199
-628.492	-47.065	-0.011	0.005
-627.478	-23.833	0.126	0.076
-626.463	-20.826	-0.236	-0.146
-625.449	-200.000	0.043	-0.250
-624.434	-9.327	-0.507	-0.342
-623.419	800.000	0.069	-0.278
-622.405	-170.621	0.111	-0.004
-621.390	800.000	0.042	0.117
-620.376	-79.888	0.356	-0.121
-619.361	-122.869	-0.110	0.018
-618.346	-84.932	0.214	-0.068
-617.332	-109.593	0.160	0.034
-616.317	27.918	-0.151	0.129
-615.303	-200.000	0.007	0.301
-614.288	-200.000	0.019	0.326
-613.273	428.406	-0.071	-0.154
-612.259	-72.995	0.498	-0.184
-611.244	-184.624	0.227	-0.004
-610.230	-120.123	-0.216	-0.037
-609.215	-145.853	-0.505	0.045
-608.201	-22.393	0.247	0.151
-607.186	-200.000	-0.001	0.020
-606.171	-73.366	0.127	-0.047
-605.157	575.342	-0.096	-0.235
-604.142	-74.331	-0.163	-0.059
-603.128	-28.948	-0.055	-0.032
-602.113	317.523	-0.027	-0.051
-601.098	157.309	-0.236	-0.329
-600.084	-145.744	0.343	-0.031
-599.069	398.658	-0.029	0.061
-598.055	211.833	0.050	-0.080
-597.040	800.000	-0.047	0.187
-596.025	-110.953	0.293	-0.061
-595.011	192.166	-0.130	0.198
-593.996	-200.000	0.057	-0.317
-592.982	701.731	0.067	-0.177
-591.967	-80.397	-0.264	0.089
-590.952	-174.014	0.200	-0.006
-589.938	800.000	-0.144	-0.443
-588.923	392.643	-0.033	0.070
-587.909	-200.000	-0.016	0.137
-586.894	128.561	0.219	0.281
-585.879	39.166	0.139	0.126
-584.865	-137.267	0.092	0.011
-583.850	126.091	-0.069	0.087
-582.836	-104.696	-0.248	0.058
-581.821	345.354	0.082	-0.162
-580.806	212.385	-0.144	-0.228
-579.792	-47.119	-0.159	0.078
-578.777	285.670	-0.096	0.174
-577.763	-80.555	0.247	-0.083
-576.748	313.725	0.061	-0.115
-575.733	-200.000	0.022	0.148
-574.719	66.824	-0.134	-0.137
-573.704	213.249	-0.216	-0.344
-572.690	-113.946	-0.428	-0.084
-571.675	-110.127	0.164	-0.035
-570.661	178.481	-0.039	-0.058
-569.646	60.533	0.080	0.080
-568.631	-34.533	0.206	-0.114
-567.617	800.000	-0.040	-0.116
-566.602	-21.784	0.122	0.075
-565.588	178.534	-0.096	-0.142
-564.573	1.170	-0.251	0.182
-563.558	626.788	-0.095	0.241
-562.544	-122.854	0.213	-0.035
-561.529	197.341	0.056	-0.086
-560.515	-200.000	-0.028	0.138
-559.500	-120.951	0.290	0.049
-558.485	-200.000	0.045	0.335
-557.471	-120.609	-0.263	0.045
-556.456	-200.000	-0.046	-0.222
-555.442	-117.570	0.185	-0.034
-554.427	5.383	-0.025	0.018
-553.412	-142.930	-0.232	0.023
-552.398	-200.000	-0.002	0.065
-551.383	-5.566	-0.080	-0.055
-550.369	194.702	0.058	0.088
-549.354	-200.000	-0.005	-0.133
-548.339	-200.000	-0.018	-0.223
-547.325	78.015	0.320	0.344
-546.310	800.000	-0.057	-0.194
-545.296	-1.574	0.087	-0.062
-544.281	-200.000	0.007	0.513
-543.266	750.735	-0.074	-0.202
-542.252	800.000	-0.011	0.036
-541.237	371.699	-0.119	0.243
-540.223	-200.000	-0.006	0.039
-539.208	-122.247	-0.283	0.047
-538.193	-200.000	0.007	0.108
-537.179	178.607	-0.157	0.231
-536.164	-134.398	-0.172	-0.021
-535.150	-60.041	-0.130	-0.056
-534.135	800.000	-0.079	0.241
-533.121	-39.911	-0.190	-0.100
-532.106	388.983	0.143	0.299
-531.091	-45.287	-0.490	0.245
-530.077	333.182	-0.142	-0.277
-529.062	-200.000	0.045	0.300
-528.048	163.786	-0.155	0.220
-527.033	-200.000	-0.007	-0.036
-526.018	-12.413	0.248	0.163
-525.004	-20.728	0.384	-0.237
-523.989	-51.137	0.288	0.136
-522.975	-148.361	-0.325	-0.027
-521.960	-70.463	-0.099	0.038
-520.945	-23.090	-0.173	-0.105
-519.931	-3.240	-0.102	-0.071
-518.916	-19.260	0.063	0.039
-517.902	-1.266	-0.107	-0.076
-516.887	-37.921	-0.104	-0.056
-515.872	-17.466	-0.328	0.207
-514.858	-4.654	-0.063	0.044
-513.843	-47.032	-0.319	-0.156
-512.829	-200.000	0.013	-0.266
-511.814	-200.000	0.015	-0.178
-510.799	-157.464	0.034	0.002
-509.785	800.000	0.082	-0.231
-508.770	-98.144	-0.239	-0.062
-507.756	10.811	0.088	-0.068
-506.741	230.235	-0.233	-0.384
-505.726	92.338	0.167	0.190
-504.712	52.147	0.159	0.152
-503.697	-200.000	-0.017	0.242
-502.683	224.394	-0.029	-0.047
-501.668	-200.000	-0.007	0.157
-500.653	-200.000	-0.038	0.242
-499.639	743.024	-0.095	0.256
-498.624	40.721	0.063	0.057
-497.610	-124.136	-0.104	0.016
-496.595	-89.032	0.246	0.073
-495.581	800.000	-0.046	-0.128
-494.566	69.639	0.115	-0.119
-493.551	245.618	0.059	-0.100
-492.537	524.802	-0.067	0.159
-491.522	-120.668	0.017	0.003
-490.508	-61.926	-0.163	-0.068
-489.493	159.944	0.223	-0.312
-488.478	755.828	0.202	0.550
-487.464	-72.582	0.095	0.035
-486.449	486.261	-0.033	0.075
-485.435	-42.029	-0.291	-0.150
-484.420	-45.614	0.214	-0.106
-483.405	800.000	-0.036	-0.144
-482.391	350.701	-0.030	0.059
-481.376	-139.653	0.108	0.012
-480.362	-37.565	0.355	-0.190
-479.347	-11.758	0.067	0.044
-478.332	419.516	0.059	0.128
-477.318	-126.929	0.083	-0.012
-476.303	-111.600	0.266	-0.054
-475.289	-84.329	0.247	-0.079
-474.274	800.000	0.097	0.352
-473.259	-116.715	-0.313	0.058
-472.245	-180.240	-0.233	-0.005
-471.230	-46.232	-0.057	-0.028
-470.216	-85.290	-0.233	0.073
-469.201	-73.556	0.062	0.023
-468.186	-87.780	0.495	-0.150
-467.172	-121.967	-0.065	-0.011
-466.157	82.776	0.082	0.089
-465.143	406.318	0.081	-0.171
-464.128	118.919	-0.173	-0.215
-463.113	-143.278	-0.203	-0.020
-462.099	315.183	-0.167	0.317
-461.084	-200.000	-0.022	0.145
-460.070	-41.649	-0.132	-0.068
-459.055	-178.845	-0.143	-0.003
-458.040	-54.621	0.111	0.050
-457.026	-124.784	-0.391	0.061
-456.011	45.391	0.153	-0.142
-454.997	-28.324	0.234	0.135
-453.982	-200.000	-0.052	0.309
-452.968	-99.272	0.116	0.029
-451.953	-49.003	-0.190	-0.091
-450.938	455.860	0.130	0.289
-449.924	-104.038	0.257	-0.060
-448.909	-175.217	0.199	0.005
-447.895	-200.000	-0.021	0.170
-446.880	161.554	-0.037	0.051
-445.865	-70.669	-0.297	-0.113
-444.851	-77.879	-0.236	0.082
-443.836	187.375	0.067	-0.101
-442.822	58.063	-0.079	0.077
-441.807	77.211	0.068	-0.072
-440.792	-200.000	-0.005	0.468
-439.778	34.541	0.199	0.174
-438.763	93.207	-0.043	0.048
-437.749	-106.856	-0.207	0.046
-436.734	-200.000	0.018	0.166
-435.719	-200.000	-0.005	0.140
-434.705	-200.000	0.014	-0.256
-433.690	800.000	-0.021	-0.063
-432.676	105.915	0.139	0.164
-431.661	800.000	0.056	0.226
-430.646	-160.304	-0.181	0.010
-429.632	-87.067	-0.245	0.075
-428.617	182.435	-0.215	-0.318
-427.603	-83.858	0.288	-0.092
-426.588	-200.000	0.033	0.155
-425.573	118.160	0.196	-0.242
-424.559	12.536	-0.349	0.270
-423.544	106.308	0.030	-0.036
-422.530	800.000	0.051	0.180
-421.515	-72.024	0.265	0.099
-420.500	800.000	0.011	0.032
-419.486	-127.713	-0.039	0.006
-418.471	228.938	0.100	0.163
-417.457	138.885	0.139	0.183
-416.442	-200.000	-0.003	-0.046
-415.428	-48.132	0.072	-0.035
-414.413	-56.195	0.305	0.136
-413.398	-128.369	0.208	0.030
-412.384	800.000	-0.087	0.289
-411.369	57.217	-0.115	0.113
-410.355	-119.068	0.160	0.028
-409.340	117.461	-0.038	-0.047
-408.325	-81.147	0.358	-0.118
-407.311	13.115	-0.293	0.227
-406.296	-114.658	0.405	0.078
-405.282	296.845	-0.214	-0.392
-404.267	32.587	-0.060	-0.052
-403.252	-200.000	0.025	-0.146
-402.238	-52.631	-0.254	-0.117
-401.223	800.000	0.037	0.153
-400.209	-45.642	0.252	-0.125
-399.194	455.798	-0.045	0.099
-398.179	290.552	0.089	-0.163
-397.165	571.159	0.015	0.036
-396.150	-131.070	-0.148	0.020
-395.136	-200.000	0.001	0.161
-394.121	319.629	-0.087	-0.164
-393.106	-32.612	-0.297	0.166
-392.092	-86.898	0.209	-0.064
-391.077	-200.000	0.012	0.202
-390.063	-13.224	-0.110	-0.071
-389.048	-200.000	0.005	-0.249
-388.033	735.889	0.138	-0.371
-387.019	-147.263	-0.338	0.029
-386.004	-13.187	-0.074	0.048
-384.990	-11.917	-0.102	-0.067
-383.975	51.124	0.249	0.236
-382.960	-200.000	0.639	0.002
-381.946	-200.000	-0.022	0.184
-380.931	259.315	-0.098	0.169
-379.917	-138.007	0.050	-0.006
-378.902	800.000	0.088	-0.247
-377.888	-96.585	0.339	0.089
-376.873	-65.636	-0.407	-0.163
-375.858	160.993	0.113	0.158
-374.844	-103.287	0.263	-0.062
-373.829	-114.929	-0.153	-0.029
-372.815	-182.982	-0.107	0.002
-371.800	-132.695	0.236	-0.030
-370.785	-32.036	0.240	-0.134
-369.771	-61.386	-0.207	0.087
-368.756	-14.713	0.071	0.046
-367.742	800.000	-0.067	0.219
-366.727	11.831	0.124	0.095
-365.712	-6.334	-0.201	0.137
-364.698	-200.000	-0.000	0.307
-363.683	-38.647	0.077	0.041
-362.669	-67.631	0.139	0.054
-361.654	48.139	0.216	0.201
-360.639	466.685	0.031	0.070
-359.625	-70.812	0.076	0.029
-358.610	78.089	-0.198	0.211
-357.596	20.872	0.179	-0.145
-356.581	-200.000	0.011	-0.122
-355.566	-159.822	-0.281	0.015
-354.552	170.811	0.200	-0.287
-353.537	-200.000	-0.154	-0.000
-352.523	508.901	0.123	-0.284
-351.508	800.000	-0.084	-0.253
-350.493	101.064	-0.062	-0.073
-349.479	-40.166	0.040	0.021
-348.464	-101.471	0.397	-0.097
-347.450	-124.905	-0.063	-0.010
-346.435	35.474	-0.344	0.301
-345.420	142.150	0.069	0.091
-344.406	204.193	-0.060	0.093
-343.391	373.766	-0.184	-0.374
-342.377	-200.000	-0.321	0.000
-341.362	-164.582	0.167	-0.008
-340.348	-177.900	-0.243	-0.006
-339.333	426.192	0.078	-0.169
-338.318	-200.000	0.010	0.046
-337.304	185.676	0.107	-0.158
-336.289	-14.945	-0.176	-0.113
-335.275	-5.341	-0.103	0.071
-334.260	-120.877	-0.371	-0.062
-333.245	-112.479	-0.398	-0.079
-332.231	-200.000	-0.007	-0.106
-331.216	-88.074	0.401	-0.120
-330.202	-1.043	-0.141	0.099
-329.187	-57.624	0.366	-0.160
-328.172	214.091	0.131	-0.207
-327.158	136.931	0.133	-0.173
-326.143	-13.690	0.115	0.074
-325.129	12.524	-0.243	0.187
-324.114	800.000	0.096	0.362
-323.099	-23.536	-0.242	-0.145
-322.085	-95.522	0.100	0.027
-321.070	628.224	0.090	-0.227
-320.056	29.178	0.271	-0.230
-319.041	-183.789	0.193	0.003
-318.026	-29.419	0.217	-0.124
-317.012	-128.388	0.208	0.030
-315.997	-99.487	-0.066	0.017
-314.983	-67.101	0.101	0.040
-313.968	-109.444	-0.192	-0.041
-312.953	-112.417	-0.154	-0.031
-311.939	-200.000	-0.047	0.256
-310.924	-200.000	-0.032	0.247
-309.910	98.856	0.091	-0.105
-308.895	-48.062	0.105	-0.050
-307.880	-58.946	0.420	-0.181
-306.866	-37.027	-0.241	-0.129
-305.851	-200.000	0.028	0.420
-304.837	247.677	0.074	-0.124
-303.822	-200.000	0.038	-0.213
-302.807	-200.000	-0.004	0.253
-301.793	100.101	-0.025	0.029
-300.778	136.933	0.101	0.131
-299.764	-200.000	-0.021	0.144
-298.749	-171.698	0.407	0.013
-297.735	18.524	-0.132	-0.105
-296.720	188.501	0.073	-0.108
-295.705	118.833	0.156	-0.193
-294.691	-200.000	0.053	0.292
-293.676	800.000	0.078	0.244
-292.662	452.260	-0.145	-0.319
-291.647	800.000	0.075	-0.279
-290.632	-94.745	-0.181	-0.049
-289.618	28.547	0.164	0.139
-288.603	158.836	0.163	-0.225
-287.589	-32.165	-0.163	-0.091
-286.574	234.451	-0.103	-0.170
-285.559	-72.412	0.255	0.094
-284.545	-200.000	-0.020	-0.309
-283.530	590.793	-0.159	-0.390
-282.516	240.602	-0.026	-0.043
-281.501	-200.000	-0.034	0.178
-280.486	800.000	-0.068	-0.203
-279.472	-43.186	-0.200	0.101
-278.457	-15.893	-0.239	0.152
-277.443	7.329	-0.155	-0.115
-276.428	-147.818	-0.103	-0.009
-275.413	118.542	0.206	0.253
-274.399	433.638	0.031	-0.068
-273.384	-200.000	-0.017	0.083
-272.370	-59.056	0.246	0.106
-271.355	-200.000	-0.004	0.214
-270.340	188.330	0.131	-0.195
-269.326	-200.000	-0.004	-0.189
-268.311	10.973	-0.133	-0.101
-267.297	88.810	-0.058	-0.065
-266.282	-131.514	-0.357	-0.047
-265.267	-200.000	-0.048	-0.299
-264.253	-200.000	-0.005	-0.031
-263.238	-174.164	0.071	0.002
-262.224	-52.594	0.332	0.153
-261.209	614.091	-0.065	-0.163
-260.195	242.566	-0.172	-0.287
-259.180	-200.000	0.112	-0.566
-258.165	800.000	-0.056	0.189
-257.151	-200.000	-0.046	0.237
-256.136	477.559	-0.063	-0.141
-255.122	-142.178	-0.064	0.006
-254.107	67.007	0.105	0.107
-253.092	31.811	0.222	-0.191
-252.078	-135.289	-0.148	-0.018
-251.063	87.365	0.035	-0.039
-250.049	-200.000	0.047	-0.222
-249.034	270.197	0.088	-0.153
-248.019	432.921	-0.112	0.242
-247.005	-151.263	0.197	0.015
-245.990	-77.096	-0.097	0.034
-244.976	-3.602	0.160	0.110
-243.961	110.283	-0.229	-0.274
-242.946	655.852	-0.040	-0.103
-241.932	-119.256	-0.184	0.032
-240.917	94.709	0.207	0.234
-239.903	108.997	-0.164	0.195
-238.888	71.651	-0.129	0.134
-237.873	-36.012	0.080	-0.043
-236.859	-156.255	0.124	-0.008
-235.844	-172.979	0.414	-0.013
-234.830	-79.731	-0.209	0.070
-233.815	-27.890	-0.017	-0.010
-232.800	629.699	0.065	-0.163
-231.786	-200.000	0.081	-0.502
-230.771	-24.640	-0.326	0.193
-229.757	-21.212	0.210	0.128
-228.742	-111.062	0.198	0.040
-227.727	301.940	0.072	-0.132
-226.713	-200.000	-0.057	0.338
-225.698	-200.000	0.035	-0.320
-224.684	-200.000	-0.017	-0.117
-223.669	78.823	-0.087	0.093
-222.655	215.457	-0.115	0.182
-221.640	15.514	-0.340	-0.265
-220.625	800.000	0.023	0.082
-219.611	528.566	-0.151	-0.354
-218.596	32.323	0.120	-0.103
-217.582	-158.173	0.319	-0.019
-216.567	-48.089	0.372	-0.179
-215.552	-200.000	-0.008	0.263
-214.538	-200.000	-0.015	0.095
-213.523	25.573	-0.199	-0.165
-212.509	-102.139	0.182	0.044
-211.494	-31.641	0.148	-0.083
-210.479	-14.329	0.141	0.090
-209.465	-56.607	0.296	0.130
-208.450	109.762	0.202	0.240
-207.436	-188.470	-0.107	-0.001
-206.421	-61.338	-0.136	0.057
-205.406	43.549	-0.059	-0.054
-204.392	86.384	0.039	-0.043
-203.377	278.029	0.116	0.205
-202.363	-85.413	0.076	0.023
-201.348	-122.667	0.221	0.036
-200.333	444.362	-0.082	-0.178
-199.319	350.094	-0.037	-0.073
-198.304	-200.000	0.017	-0.139
-197.290	-200.000	0.015	0.271
-196.275	143.705	-0.056	0.074
-195.260	-9.247	-0.281	-0.187
-194.246	-190.340	-0.094	0.001
-193.231	360.241	0.054	-0.107
-192.217	369.487	0.185	-0.371
-191.202	34.059	0.189	-0.164
-190.187	-75.764	-0.241	-0.085
-189.173	-45.212	-0.396	-0.195
-188.158	-48.368	0.168	0.080
-187.144	-200.000	-0.006	-0.285
-186.129	-101.368	0.392	0.095
-185.114	-106.876	0.070	0.015
-184.100	-70.094	-0.319	-0.120
-183.085	375.841	-0.047	0.096
-182.071	772.340	-0.158	0.426
-181.056	631.892	-0.055	-0.138
-180.042	9.063	0.281	-0.210
-179.027	505.677	0.106	0.244
-178.012	316.030	-0.078	-0.145
-176.998	-81.547	-0.255	-0.083
-175.983	-43.812	-0.274	0.137
-174.969	-162.601	0.113	0.005
-173.954	139.020	-0.199	-0.260
-172.939	24.993	0.317	0.260
-171.925	-99.212	0.344	-0.086
-170.910	800.000	0.041	0.152
-169.896	64.248	0.195	-0.195
-168.881	-85.494	-0.045	0.014
-167.866	-200.000	0.022	-0.396
-166.852	800.000	0.097	0.298
-165.837	-41.833	-0.129	0.066
-164.823	800.000	0.067	-0.214
-163.808	-200.000	-0.059	0.365
-162.793	45.184	0.081	0.074
-161.779	-66.257	-0.013	0.005
-160.764	-67.500	0.019	0.008
-159.750	288.697	-0.056	-0.100
-158.735	800.000	0.062	-0.173
-157.720	217.323	-0.054	-0.085
-156.706	87.701	0.301	0.330
-155.691	-61.348	-0.412	0.172
-154.677	62.503	0.113	-0.112
-153.662	160.449	0.253	0.350
-152.647	193.572	-0.080	-0.120
-151.633	-103.600	-0.059	-0.014
-150.618	10.053	-0.320	-0.241
-149.604	-110.563	0.155	0.032
-148.589	800.000	-0.066	0.268
-147.574	-200.000	0.011	-0.327
-146.560	127.552	-0.192	0.241
-145.545	112.360	-0.035	-0.041
-144.531	-135.153	-0.114	-0.014
-143.516	-102.731	-0.158	-0.037
-142.502	-200.000	-0.013	-0.082
-141.487	-118.637	0.313	-0.055
-140.472	151.772	0.167	0.226
-139.458	-157.264	-0.136	-0.008
-138.443	-195.246	-0.138	-0.001
-137.429	-20.145	-0.146	-0.089
-136.414	-142.188	-0.136	0.013
-135.399	800.000	0.079	-0.246
-134.385	1.796	0.055	0.039
-133.370	-10.595	0.245	-0.161
-132.356	49.890	0.111	-0.103
-131.341	14.734	-0.213	0.165
-130.326	591.175	-0.117	-0.285
-129.312	-194.969	0.236	-0.002
-128.297	-68.512	0.240	0.092
-127.283	-148.450	-0.342	0.028
-126.268	52.447	-0.296	-0.280
-125.253	800.000	-0.059	0.173
-124.239	124.487	0.161	-0.201
-123.224	-200.000	-0.004	-0.158
-122.210	-200.000	-0.219	0.001
-121.195	-49.465	0.217	0.102
-120.180	-42.047	-0.191	-0.097
-119.166	-118.374	0.246	0.043
-118.151	-28.644	-0.266	-0.152
-117.137	-200.000	-0.082	0.463
-116.122	532.634	0.086	0.201
-115.107	94.315	-0.206	-0.232
-114.093	60.899	-0.144	-0.141
-113.078	609.849	0.043	-0.107
-112.064	-136.118	-0.083	-0.010
-111.049	-110.515	0.159	-0.033
-110.034	102.587	0.133	0.153
-109.020	530.360	0.081	-0.190
-108.005	-39.746	0.140	-0.072
-106.991	800.000	0.093	0.291
-105.976	-47.540	-0.141	-0.068
-104.962	45.609	0.174	0.159
-103.947	-71.977	0.350	-0.129
-102.932	-24.171	-0.166	-0.098
-101.918	-101.133	0.301	-0.073
-100.903	-41.050	0.244	-0.125
-99.889	62.330	-0.172	0.170
-98.874	-37.785	0.141	-0.074
-97.859	257.479	0.163	-0.277
-96.845	26.980	0.228	-0.189
-95.830	-144.294	0.453	0.042
-94.816	-200.000	-0.021	-0.114
-93.801	-19.442	-0.128	-0.079
-92.786	603.861	-0.059	0.146
-91.772	118.720	-0.195	0.238
-90.757	362.464	-0.124	0.245
-89.743	-141.149	-0.399	-0.040
-88.728	-0.314	0.173	-0.121
-87.713	-93.476	-0.283	-0.078
-86.699	746.092	0.124	-0.330
-85.684	4.562	-0.170	0.124
-84.670	25.157	0.456	-0.374
-83.655	323.698	-0.236	-0.445
-82.640	-147.909	-0.387	-0.032
-81.626	-88.190	-0.200	-0.059
-80.611	137.098	-0.128	0.165
-79.597	-200.000	0.028	0.174
-78.582	800.000	-0.089	0.320
-77.567	-96.756	-0.195	-0.051
-76.553	-200.000	0.031	0.160
-75.538	800.000	-0.043	0.172
-74.524	20.416	-0.173	-0.138
-73.509	60.496	0.125	0.122
-72.494	-23.278	-0.360	0.214
-71.480	179.477	-0.177	-0.256
-70.465	266.100	0.137	0.236
-69.451	-129.390	0.197	0.027
-68.436	143.414	0.027	0.035
-67.422	159.263	0.060	0.082
-66.407	15.323	0.103	-0.080
-65.392	-200.000	-0.024	0.152
-64.378	39.621	-0.342	0.303
-63.363	800.000	0.046	0.180
-62.349	251.141	0.033	-0.056
-61.334	-27.558	-1.074	-0.616
-60.319	396.666	0.278	0.573
-59.305	463.886	-0.296	-0.652
-58.290	146.919	0.662	0.879
-57.276	680.633	0.615	1.582
-56.261	-200.000	97.357	577.098
-55.246	633.808	1393.814	3489.018
-54.232	190.007	2590.146	3838.150
-53.217	119.818	2181.965	2670.056
-52.203	44.810	1718.050	1560.705
-51.188	37.532	1530.231	1340.129
-50.173	35.157	1503.022	1300.152
-49.159	54.673	1553.118	1478.527
-48.144	57.902	1572.187	1518.880
-47.130	37.979	1527.944	1340.987
-46.115	34.758	1512.356	1305.294
-45.100	34.532	1508.894	1300.718
-44.086	34.511	1507.500	1299.318
-43.071	34.498	1505.884	1297.785
-42.057	34.396	1503.987	1295.408
-41.042	34.564	1501.945	1294.740
-40.027	34.510	1501.267	1293.734
-39.013	34.441	1499.598	1291.776
-37.998	34.405	1498.266	1290.332
-36.984	34.386	1497.533	1289.526
-35.969	34.436	1496.180	1288.644
-34.954	34.431	1494.756	1287.337
-33.940	34.464	1493.359	1286.299
-32.925	34.436	1491.786	1284.709
-31.911	34.463	1490.185	1283.461
-30.896	34.539	1489.004	1282.900
-29.881	34.512	1487.514	1281.387
-28.867	34.437	1486.572	1280.023
-27.852	34.505	1485.097	1279.159
-26.838	34.532	1483.716	1278.098
-25.823	34.457	1482.255	1276.283
-24.809	34.550	1480.395	1275.254
-23.794	34.541	1479.342	1274.235
-22.779	34.459	1477.930	1272.425
-21.765	34.442	1476.967	1271.429
-20.750	34.548	1475.516	1270.839
-19.736	34.379	1475.177	1269.370
-18.721	34.407	1474.261	1268.719
-17.706	34.404	1473.241	1267.771
-16.692	34.451	1471.627	1266.646
-15.677	34.382	1470.874	1265.488
-14.663	34.483	1469.547	1264.962
-13.648	34.428	1469.558	1264.556
-12.633	34.363	1468.332	1263.025
-11.619	34.324	1467.280	1261.808
-10.604	34.400	1466.443	1261.543
-9.590	34.449	1465.304	1260.837
-8.575	34.445	1464.561	1260.118
-7.560	34.404	1463.983	1259.302
-6.546	34.436	1463.028	1258.645
-5.531	34.366	1462.093	1257.326
-4.517	34.402	1460.882	1256.471
-3.502	34.305	1460.715	1255.638
-2.487	34.392	1458.891	1254.592
-1.473	34.303	1458.100	1253.277
-0.458	34.449	1456.609	1252.905
0.556	33.789	1446.768	1240.746
1.571	30.516	1420.866	1197.375
2.586	26.636	1358.757	1120.974
3.600	24.779	1276.308	1042.056
4.615	23.206	1230.122	995.419
5.629	19.901	1173.901	932.074
6.644	11.958	1089.628	825.219
7.659	5.720	1049.411	764.349
8.673	4.960	1044.007	756.655
9.688	4.871	1041.800	754.560
10.702	4.898	1039.500	752.956
11.717	4.861	1037.830	751.504
12.731	6.859	1039.885	762.573
13.746	14.137	1049.867	805.174
14.761	19.404	1056.067	835.440
15.775	19.219	1054.672	833.363
16.790	18.111	1053.085	826.685
17.804	17.270	1050.361	820.416
18.819	16.138	1048.768	813.640
19.834	15.914	1047.174	811.251
20.848	15.470	1046.150	808.249
21.863	15.273	1045.735	806.910
22.877	15.079	1044.790	805.177
23.892	14.957	1043.817	803.768
24.907	14.754	1043.321	802.340
25.921	14.779	1042.632	801.861
26.936	14.792	1041.623	801.077
27.950	14.865	1040.673	800.622
28.965	14.848	1039.333	799.442
29.980	14.975	1038.556	799.379
30.994	15.001	1037.339	798.494
32.009	15.181	1036.523	798.652
33.023	15.136	1036.133	798.071
34.038	15.137	1035.168	797.258
35.053	15.147	1033.840	796.216
36.067	15.017	1032.916	794.816
37.082	14.928	1032.291	793.842
38.096	14.981	1031.375	793.319
39.111	15.124	1030.379	793.158
40.126	15.147	1029.813	792.760
41.140	15.018	1028.775	791.282
42.155	14.824	1027.261	789.132
43.169	14.743	1026.443	788.050
44.184	14.682	1025.674	787.104
45.199	14.667	1024.618	786.151
46.213	14.710	1023.512	785.439
47.228	14.689	1022.779	784.708
48.242	14.900	1021.387	784.561
49.257	15.062	1020.370	784.470
50.271	14.939	1019.606	783.234
51.286	14.947	1018.571	782.406
52.301	15.126	1017.706	782.511
53.315	15.024	1017.553	781.849
54.330	14.864	1016.610	780.309
55.344	14.817	1015.660	779.289
56.359	14.703	1014.532	777.823
57.374	14.775	1013.398	777.222
58.388	14.752	1013.169	776.871
59.403	14.759	1012.116	776.025
60.417	14.715	1011.033	774.924
61.432	14.620	1010.423	773.948
62.447	14.669	1009.884	773.690
63.461	14.638	1008.695	772.572
64.476	14.500	1007.846	771.214
65.490	14.638	1006.962	771.103
66.505	14.556	1006.663	770.429
67.520	14.577	1005.504	769.572
68.534	14.576	1005.008	769.119
69.549	14.640	1004.303	768.807
70.563	14.827	1002.994	768.596
71.578	14.596	1002.742	767.274
72.593	14.449	1001.898	765.882
73.607	14.602	1000.590	765.517
74.622	14.449	999.798	764.142
75.636	14.479	998.848	763.486
76.651	14.527	998.131	763.091
77.666	14.524	997.715	762.694
78.680	14.511	996.948	761.978
79.695	14.576	996.429	761.811
80.709	14.588	996.006	761.474
81.724	14.617	994.729	760.562
82.739	14.670	994.406	760.489
83.753	14.736	993.750	760.224
84.768	14.908	992.644	760.092
85.782	15.020	992.095	760.114
86.797	15.253	991.501	760.647
87.812	15.085	990.645	759.162
88.826	15.009	989.773	758.084
89.841	14.957	989.270	757.393
90.855	15.039	988.394	757.025
91.870	15.000	987.767	756.306
92.884	15.053	987.152	756.005
93.899	15.095	986.268	755.450
94.914	15.011	985.801	754.647
95.928	15.202	984.737	754.626
96.943	15.191	983.894	753.864
97.957	15.000	983.224	752.427
98.972	15.102	982.179	752.019
99.987	15.035	981.671	751.263
101.001	14.947	980.949	750.248
102.016	15.077	979.739	749.836
103.030	15.132	979.049	749.492
104.045	15.030	978.039	748.196
105.060	15.001	977.244	747.388
106.074	14.965	976.592	746.666
107.089	14.853	975.396	745.185
108.103	14.804	974.211	743.998
109.118	14.718	973.090	742.691
110.133	14.678	972.618	742.089
111.147	14.662	971.780	741.310
112.162	14.627	970.790	740.334
113.176	14.715	970.003	740.061
114.191	14.800	968.885	739.517
115.206	14.783	968.563	739.130
116.220	14.650	967.978	738.032
117.235	14.874	966.443	737.785
118.249	14.776	965.682	736.705
119.264	14.825	964.917	736.273
120.279	14.712	963.963	734.983
121.293	14.622	963.603	734.250
122.308	14.809	962.220	733.950
123.322	14.559	961.876	732.524
124.337	14.522	960.731	731.425
125.352	14.561	959.468	730.569
126.366	14.660	958.621	730.292
127.381	14.666	957.719	729.570
128.395	14.530	956.832	728.233
129.410	14.724	955.485	727.991
130.424	14.739	954.740	727.423
131.439	14.675	954.097	726.590
132.454	14.758	953.345	726.316
133.468	14.745	952.856	725.821
134.483	14.763	952.028	725.206
135.497	14.716	951.369	724.434
136.512	14.963	950.246	724.586
137.527	14.935	949.444	723.789
138.541	14.823	949.054	722.944
139.556	14.998	947.775	722.659
140.570	14.938	947.172	721.879
141.585	14.992	946.678	721.669
142.600	14.995	946.115	721.193
143.614	15.092	945.566	721.128
144.629	15.124	944.500	720.385
145.643	15.234	943.656	720.152
146.658	14.934	943.269	718.505
147.673	14.982	941.978	717.663
148.687	14.963	940.964	716.744
149.702	14.916	940.275	715.956
150.716	14.813	939.721	715.028
151.731	14.830	938.855	714.382
152.746	14.820	938.020	713.640
153.760	14.863	937.267	713.188
154.775	14.868	936.660	712.684
155.789	14.910	936.260	712.496
156.804	15.014	935.522	712.316
157.819	15.230	934.410	712.322
158.833	15.026	934.243	711.264
159.848	15.023	933.545	710.656
160.862	15.227	932.588	710.730
161.877	15.280	931.520	710.078
162.892	15.037	931.013	708.600
163.906	15.099	930.051	708.070
164.921	15.058	929.197	707.183
165.935	14.940	928.295	705.935
166.950	14.956	927.355	705.226
167.964	15.200	926.257	705.354
168.979	15.027	925.809	704.226
169.994	15.051	924.613	703.353
171.008	14.933	924.094	702.399
172.023	15.070	922.880	701.991
173.037	15.162	922.662	702.147
174.052	15.287	921.663	701.849
175.067	15.129	921.075	700.678
176.081	15.152	920.174	700.026
177.096	15.073	919.239	698.924
178.110	15.060	918.204	698.019
179.125	14.993	917.663	697.268
180.140	15.042	917.031	696.932
181.154	15.144	915.965	696.484
182.169	15.162	915.711	696.303
183.183	15.141	915.230	695.787
184.198	15.342	914.525	696.026
185.213	15.312	913.785	695.276
186.227	15.265	913.236	694.602
187.242	15.256	912.757	694.138
188.256	15.257	912.594	693.958
189.271	15.511	911.589	694.180
190.286	15.488	910.495	693.193
191.300	15.422	909.788	692.320
192.315	14.975	909.601	690.273
193.329	14.800	908.570	688.708
194.344	14.947	907.813	688.678
195.359	15.068	906.888	688.414
196.373	15.251	906.435	688.763
197.388	15.353	905.866	688.688
198.402	15.412	905.760	688.785
199.417	15.585	905.085	688.923
200.432	15.497	904.657	688.174
201.446	15.584	904.451	688.314
202.461	15.672	903.926	688.212
203.475	15.706	903.408	687.896
204.490	15.899	902.191	687.700
205.504	15.608	901.893	686.222
206.519	15.615	900.949	685.471
207.534	15.485	900.180	684.297
208.548	15.487	899.641	683.832
209.563	15.473	899.120	683.322
210.577	15.417	898.467	682.535
211.592	15.570	897.307	682.217
212.607	15.734	897.279	682.801
213.621	15.829	896.907	682.843
214.636	15.660	896.138	681.509
215.650	15.616	895.642	680.894
216.665	15.847	894.490	680.892
217.680	15.698	894.192	680.003
218.694	15.687	894.384	680.046
219.709	15.884	893.226	679.902
220.723	15.867	892.442	679.175
221.738	15.921	891.597	678.688
222.753	15.888	891.013	678.051
223.767	15.922	890.217	677.522
224.782	15.883	889.640	676.869
225.796	15.974	888.959	676.654
226.811	15.901	888.116	675.661
227.826	15.882	887.644	675.166
228.840	15.903	887.115	674.787
229.855	15.798	886.402	673.763
230.869	15.931	885.563	673.599
231.884	15.779	884.748	672.313
232.899	15.742	884.365	671.813
233.913	15.699	883.761	671.122
234.928	15.773	882.960	670.751
235.942	15.839	881.999	670.225
236.957	15.806	881.487	669.645
237.972	15.825	880.552	668.953
238.986	15.871	880.041	668.687
240.001	15.746	879.337	667.597
241.015	15.837	879.042	667.675
242.030	15.758	878.774	667.099
243.045	15.785	877.668	666.309
244.059	16.087	876.843	666.816
245.074	16.022	876.695	666.389
246.088	15.870	876.209	665.359
247.103	15.930	875.816	665.238
248.117	16.012	874.854	664.772
249.132	16.151	874.162	664.734
250.147	16.284	873.957	665.045
251.161	16.242	873.260	664.291
252.176	16.319	872.859	664.230
253.190	16.516	872.275	664.499
254.205	16.561	871.553	664.067
255.220	16.593	870.457	663.298
256.234	16.445	870.176	662.446
257.249	16.569	869.258	662.175
258.263	16.448	869.130	661.544
259.278	16.545	868.385	661.300
260.293	16.517	868.465	661.192
261.307	16.495	867.370	660.215
262.322	16.699	866.418	660.227
263.336	16.656	866.229	659.856
264.351	16.728	865.440	659.479
265.366	16.773	864.654	658.994
266.380	16.818	864.031	658.638
267.395	16.650	863.698	657.670
268.409	16.626	863.007	656.994
269.424	16.559	862.483	656.277
270.439	16.708	861.548	656.085
271.453	16.719	860.475	655.254
272.468	16.680	859.728	654.474
273.482	16.658	859.127	653.873
274.497	16.569	859.153	653.493
275.512	16.536	858.897	653.111
276.526	16.548	857.644	652.150
277.541	16.740	856.823	652.206
278.555	16.654	856.432	651.521
279.570	16.772	855.974	651.569
280.585	17.007	855.259	651.870
281.599	16.994	854.726	651.356
282.614	16.709	854.231	649.825
283.628	16.754	853.434	649.334
284.643	16.584	852.970	648.275
285.657	16.622	852.564	648.054
286.672	16.629	852.087	647.660
287.687	16.822	851.179	647.649
288.701	16.739	850.955	647.103
289.716	16.896	850.275	647.130
290.730	16.812	849.871	646.444
291.745	16.895	848.878	645.950
292.760	16.871	848.457	645.480
293.774	16.869	847.924	645.010
294.789	16.930	847.354	644.752
295.803	17.041	847.001	644.848
296.818	16.956	846.020	643.720
297.833	16.983	845.453	643.333
298.847	16.962	845.059	642.897
299.862	17.004	844.255	642.387
300.876	16.893	843.650	641.451
301.891	16.875	843.267	641.035
302.906	17.111	842.442	641.241
303.920	17.181	841.504	640.737
304.935	17.125	841.120	640.175
305.949	17.389	840.327	640.510
306.964	17.327	839.791	639.810
307.979	17.262	839.157	639.028
308.993	17.122	838.774	638.153
310.008	17.062	838.410	637.595
311.022	17.284	837.830	637.929
312.037	17.220	837.217	637.169
313.052	17.269	836.608	636.830
314.066	17.091	835.979	635.631
315.081	16.963	835.213	634.510
316.095	17.105	834.884	634.738
317.110	16.982	834.558	633.972
318.125	17.013	834.120	633.702
319.139	17.164	833.322	633.603
320.154	17.165	832.832	633.176
321.168	17.115	832.092	632.372
322.183	17.144	831.376	631.880
323.197	17.256	831.057	631.998
324.212	17.298	830.435	631.624
325.227	17.147	830.102	630.756
326.241	17.195	829.722	630.589
327.256	17.227	829.185	630.243
328.270	17.189	828.477	629.508
329.285	17.184	827.958	629.038
330.300	17.279	826.955	628.572
331.314	17.144	826.647	627.784
332.329	17.202	826.086	627.518
333.343	17.285	825.329	627.192
334.358	17.497	824.747	627.477
335.373	17.535	824.510	627.381
336.387	17.454	824.077	626.696
337.402	17.354	823.898	626.137
338.416	17.622	822.457	625.970
339.431	17.702	822.241	626.045
340.446	17.654	821.816	625.491
341.460	17.614	821.383	624.960
342.475	17.767	820.956	625.138
343.489	17.846	820.277	624.858
344.504	17.679	820.192	624.124
345.519	17.886	819.275	624.130
346.533	17.951	818.500	623.721
347.548	17.821	818.407	623.121
348.562	17.940	817.534	622.835
349.577	17.641	817.099	621.359
350.592	17.602	816.714	620.866
351.606	17.584	816.098	620.279
352.621	17.498	815.700	619.609
353.635	17.694	815.161	619.856
354.650	17.610	814.956	619.340
355.665	17.722	814.207	619.125
356.679	17.720	814.007	618.908
357.694	17.754	813.707	618.751
358.708	17.847	812.599	618.190
359.723	17.784	812.156	617.569
360.738	17.934	811.260	617.375
361.752	17.843	811.233	616.972
362.767	17.775	810.848	616.378
363.781	17.954	810.834	616.962
364.796	17.931	810.106	616.268
365.810	18.047	809.922	616.494
366.825	18.063	809.569	616.227
367.840	18.293	808.984	616.556
368.854	18.210	808.689	615.978
369.869	18.210	808.248	615.589
370.883	17.985	807.683	614.295
371.898	18.166	807.081	614.433
372.913	18.127	806.511	613.804
373.927	18.104	805.894	613.195
374.942	18.177	805.304	612.958
375.956	18.202	804.588	612.448
376.971	18.231	804.138	612.154
377.986	18.317	803.302	611.769
379.000	18.395	803.166	611.890
380.015	18.242	802.812	611.021
381.029	18.406	801.850	610.819
382.044	18.512	801.192	610.641
383.059	18.387	800.999	609.996
384.073	18.400	800.284	609.443
385.088	18.424	799.711	609.038
386.102	18.294	799.365	608.257
387.117	18.370	798.829	608.065
388.132	18.098	798.553	606.839
389.146	18.216	797.937	606.735
390.161	18.301	797.348	606.535
391.175	18.420	796.780	606.470
392.190	18.419	796.692	606.344
393.205	18.398	796.266	605.892
394.219	18.430	795.464	605.342
395.234	18.339	795.443	604.953
396.248	18.300	794.672	604.175
397.263	18.379	793.912	603.820
398.278	18.170	793.797	602.943
399.292	18.225	793.332	602.731
400.307	18.127	792.988	602.071
401.321	18.177	792.649	601.936
402.336	18.296	791.979	601.791
403.350	18.320	791.513	601.470
404.365	18.353	791.206	601.300
405.380	18.349	790.831	600.947
406.394	18.464	790.592	601.116
407.409	18.618	789.968	601.126
408.423	18.628	789.701	600.906
409.438	18.703	788.953	600.547
410.453	18.658	788.928	600.318
411.467	18.656	788.263	599.749
412.482	18.871	787.630	599.966
413.496	18.763	787.284	599.274
414.511	18.928	787.024	599.597
415.526	18.856	786.939	599.228
416.540	18.857	786.259	598.662
417.555	18.797	786.123	598.297
418.569	18.728	785.597	597.601
419.584	18.876	785.118	597.701
420.599	18.824	784.224	596.785
421.613	155.446	1369.183	1790.944
422.628	134.239	1454.442	1791.033
