DTS Sentinel unit serial number:	SN413079Multiplexer serial number:	ORYXHardware model number:	OX4-SRSoftware version number:	ORYX F/W v4.00 Oryx Data Collector v3.7.2.0data status	okinstallation	princeton_trtdifferential loss correction	single-endedforward channel	channel 3reverse channel	N/Adate	2019/09/17time	13:16:35forward acquisition time	60.00reverse acquisition time	0.00gamma	496.2192k internal	0.2309k external	0.2309temperature offset calibration	0.9953default loss term (dB/km)	0.3790temperature slope calibration	1.0000multiplexer offset coefficient	1.0000multiplexer slope coefficient	1.0000fibre end	0.00T internal ref (°C)	34.06T ext. ref 1 (°C)	0.42T ext. ref 2 (°C)	31.56length (m)	temperature (°C)	Stokes	anti-Stokes-747.200	363.815	-0.112	-0.228
-746.185	-200.000	0.019	0.335
-745.171	-111.528	-0.183	0.038
-744.156	800.000	0.040	-0.122
-743.142	415.925	-0.036	0.077
-742.127	52.537	0.324	0.314
-741.112	-200.000	0.052	0.271
-740.098	-134.726	0.118	-0.015
-739.083	-158.556	0.191	0.011
-738.069	-22.305	0.098	-0.061
-737.054	-129.614	-0.299	0.042
-736.039	-56.141	-0.048	-0.022
-735.025	-8.376	0.241	-0.164
-734.010	-200.000	-0.004	-0.124
-732.996	-133.594	-0.452	-0.057
-731.981	-200.000	0.004	-0.035
-730.966	-93.701	0.383	-0.107
-729.952	-81.287	-0.523	-0.175
-728.937	15.273	-0.196	0.156
-727.923	-175.791	0.325	0.009
-726.908	-166.244	0.248	-0.011
-725.894	-34.724	-0.093	0.051
-724.879	478.909	0.041	0.094
-723.864	-193.102	0.027	0.000
-722.850	55.215	-0.173	0.170
-721.835	4.231	0.135	0.100
-720.821	44.784	-0.080	0.075
-719.806	-92.247	0.512	-0.147
-718.791	548.920	0.094	0.230
-717.777	-65.146	-0.072	-0.029
-716.762	112.198	-0.098	-0.121
-715.748	762.949	0.038	-0.104
-714.733	-200.000	-0.002	-0.191
-713.718	568.160	-0.155	-0.383
-712.704	27.241	0.244	-0.208
-711.689	606.919	-0.066	-0.168
-710.675	-67.063	-0.138	-0.055
-709.660	139.866	-0.075	-0.100
-708.645	-91.550	-0.222	0.064
-707.631	-28.752	-0.277	0.161
-706.616	-57.915	0.099	0.044
-705.602	67.079	0.334	-0.345
-704.587	-200.000	-0.016	0.080
-703.572	-200.000	0.013	0.084
-702.558	190.753	0.077	-0.118
-701.543	800.000	-0.032	0.133
-700.529	800.000	-0.010	0.037
-699.514	800.000	-0.092	-0.324
-698.499	0.053	0.112	0.081
-697.485	800.000	-0.061	0.235
-696.470	225.638	-0.160	0.263
-695.456	93.781	-0.114	-0.131
-694.441	85.252	-0.138	-0.153
-693.426	255.433	-0.003	-0.006
-692.412	150.116	0.228	0.313
-691.397	-58.490	-0.153	0.067
-690.383	800.000	-0.147	0.481
-689.368	800.000	-0.047	0.203
-688.354	-7.481	0.251	-0.172
-687.339	-40.146	-0.134	0.071
-686.324	-200.000	0.042	-0.386
-685.310	36.749	-0.102	0.091
-684.295	152.542	0.087	0.121
-683.281	31.532	-0.327	-0.285
-682.266	14.560	0.204	0.161
-681.251	-200.000	0.069	0.369
-680.237	800.000	0.078	-0.324
-679.222	522.810	0.189	0.450
-678.208	-200.000	0.071	0.382
-677.193	-122.019	-0.082	0.014
-676.178	0.050	-0.143	0.103
-675.164	-177.065	0.173	0.004
-674.149	456.717	0.105	0.237
-673.135	-179.045	-0.291	0.007
-672.120	4.603	0.220	0.164
-671.105	-119.175	-0.081	0.014
-670.091	532.156	0.190	0.456
-669.076	800.000	0.079	-0.296
-668.062	-20.611	-0.127	-0.079
-667.047	131.758	0.090	0.118
-666.032	-86.314	-0.685	-0.214
-665.018	454.198	-0.178	-0.400
-664.003	34.412	-0.177	0.157
-662.989	800.000	0.126	-0.486
-661.974	-200.000	-0.060	-0.297
-660.959	-24.078	0.073	-0.044
-659.945	-42.121	0.072	-0.037
-658.930	23.941	-0.247	-0.206
-657.916	-200.000	-0.013	0.152
-656.901	-12.199	-0.226	-0.149
-655.886	390.541	0.103	0.217
-654.872	42.492	-0.170	0.157
-653.857	489.207	-0.136	-0.314
-652.843	-134.745	0.274	-0.034
-651.828	136.475	0.118	-0.156
-650.814	-79.880	-0.337	0.115
-649.799	-58.003	0.467	-0.206
-648.784	2.498	0.198	0.145
-647.770	800.000	0.064	0.240
-646.755	349.280	-0.141	-0.281
-645.741	800.000	0.071	-0.217
-644.726	-61.196	-0.229	0.098
-643.711	-56.911	-0.203	0.091
-642.697	25.293	-0.120	0.101
-641.682	800.000	-0.033	0.141
-640.668	800.000	0.027	-0.115
-639.653	320.475	0.096	-0.185
-638.638	14.511	0.105	0.083
-637.624	35.471	0.150	0.133
-636.609	-31.294	0.156	-0.089
-635.595	-200.000	-0.004	0.133
-634.580	71.859	-0.094	0.099
-633.565	81.339	-0.132	0.145
-632.551	-139.228	-0.052	-0.006
-631.536	-0.958	0.133	0.095
-630.522	134.813	0.087	-0.114
-629.507	546.764	-0.104	-0.251
-628.492	42.280	-0.156	-0.143
-627.478	148.794	0.052	0.070
-626.463	-69.495	-0.213	-0.083
-625.449	421.534	-0.105	0.228
-624.434	320.586	0.081	0.155
-623.419	-20.787	-0.379	0.235
-622.405	49.460	0.113	-0.108
-621.390	100.183	-0.134	-0.158
-620.376	-200.000	-0.033	0.477
-619.361	-168.725	-0.061	-0.002
-618.346	402.304	0.030	-0.065
-617.332	-41.962	-0.154	-0.080
-616.317	119.996	-0.141	0.177
-615.303	800.000	-0.060	-0.253
-614.288	187.867	0.081	0.122
-613.273	122.776	0.139	-0.176
-612.259	-51.053	-0.178	-0.084
-611.244	469.628	0.028	0.065
-610.230	136.678	0.168	-0.221
-609.215	-200.000	-0.018	0.128
-608.201	153.807	0.151	-0.209
-607.186	519.157	-0.135	-0.320
-606.171	-200.000	0.014	-0.175
-605.157	325.198	0.066	0.127
-604.142	-26.000	0.067	-0.040
-603.128	128.693	0.160	-0.206
-602.113	-200.000	-0.027	0.186
-601.098	-138.477	-0.210	0.023
-600.084	-200.000	-0.015	-0.183
-599.069	-138.038	0.083	-0.009
-598.055	-58.539	0.144	0.063
-597.040	233.653	-0.128	0.213
-596.025	-200.000	-0.011	-0.243
-595.011	-153.575	0.065	-0.005
-593.996	-26.112	0.045	-0.026
-592.982	-200.000	-0.008	-0.229
-591.967	-32.838	-0.160	-0.090
-590.952	389.530	-0.157	-0.329
-589.938	256.677	0.182	-0.315
-588.923	55.465	-0.181	-0.176
-587.909	-200.000	0.024	0.269
-586.894	-164.510	0.137	0.006
-585.879	92.218	-0.290	0.330
-584.865	634.912	0.075	0.192
-583.850	-33.252	0.153	0.086
-582.836	-200.000	0.063	-0.297
-581.821	-200.000	-0.001	-0.101
-580.806	-13.541	0.247	0.162
-579.792	642.465	-0.178	-0.458
-578.777	-84.942	0.409	0.129
-577.763	16.213	-0.126	0.100
-576.748	-142.885	0.320	0.031
-575.733	184.662	-0.205	0.307
-574.719	-21.998	0.235	-0.144
-573.704	-30.880	-0.111	-0.063
-572.690	-200.000	-0.037	-0.167
-571.675	-36.586	0.170	0.092
-570.661	-135.757	0.145	0.017
-569.646	-66.205	0.029	-0.012
-568.631	-86.035	0.178	-0.056
-567.617	-200.000	0.042	0.196
-566.602	800.000	0.062	0.266
-565.588	455.362	-0.185	0.414
-564.573	-23.665	0.158	0.095
-563.558	318.992	-0.069	-0.132
-562.544	800.000	0.075	-0.267
-561.529	-200.000	0.052	-0.278
-560.515	-74.284	0.351	0.128
-559.500	-200.000	-0.002	0.139
-558.485	-90.049	0.250	-0.073
-557.471	61.822	-0.299	0.300
-556.456	-123.559	0.249	-0.040
-555.442	-200.000	-0.004	-0.107
-554.427	33.823	0.249	0.218
-553.412	800.000	0.044	-0.185
-552.398	-200.000	-0.055	-0.437
-551.383	-75.701	-0.162	-0.058
-550.369	764.131	0.058	0.159
-549.354	-94.408	-0.277	-0.076
-548.339	-200.000	0.009	0.149
-547.325	344.485	-0.172	0.340
-546.310	-37.859	-0.319	-0.171
-545.296	-164.781	0.129	-0.006
-544.281	-121.065	0.523	-0.088
-543.266	185.623	0.048	0.072
-542.252	-168.003	-0.157	-0.006
-541.237	-200.000	0.024	0.371
-540.223	-200.000	-0.032	0.189
-539.208	-200.000	-0.040	-0.228
-538.193	-122.779	0.144	-0.023
-537.179	-200.000	-0.003	-0.058
-536.164	246.187	0.056	-0.096
-535.150	-128.388	-0.197	0.028
-534.135	-110.426	-0.231	0.048
-533.121	313.740	-0.052	0.098
-532.106	-158.897	-0.286	-0.016
-531.091	800.000	-0.072	0.272
-530.077	-200.000	0.006	0.333
-529.062	35.823	0.122	-0.108
-528.048	-76.423	0.390	0.138
-527.033	-200.000	-0.022	-0.371
-526.018	197.308	-0.190	0.293
-525.004	800.000	0.056	-0.171
-523.989	-55.837	-0.231	0.104
-522.975	-48.412	-0.223	-0.108
-521.960	-67.070	0.278	0.110
-520.945	-200.000	-0.057	-0.316
-519.931	-92.598	-0.327	-0.092
-518.916	-64.077	-0.130	-0.053
-517.902	-200.000	-0.018	0.392
-516.887	464.347	-0.133	0.298
-515.872	-200.000	-0.003	0.081
-514.858	17.021	-0.083	0.066
-513.843	-110.723	-0.188	-0.039
-512.829	800.000	0.047	-0.203
-511.814	187.367	-0.163	-0.245
-510.799	-39.133	0.071	0.038
-509.785	800.000	0.012	0.045
-508.770	-59.876	-0.117	0.050
-507.756	-163.010	-0.120	0.006
-506.741	-43.012	-0.113	-0.058
-505.726	17.509	-0.275	-0.220
-504.712	212.385	-0.083	0.132
-503.697	139.015	-0.198	0.261
-502.683	-86.281	-0.132	-0.041
-501.668	-50.637	0.296	-0.140
-500.653	-125.927	-0.017	0.003
-499.639	70.649	0.017	-0.018
-498.624	105.838	-0.032	0.038
-497.610	75.566	-0.055	0.058
-496.595	-29.410	0.190	0.110
-495.581	340.553	0.144	0.283
-494.566	-21.917	-0.089	-0.054
-493.551	558.694	0.155	0.377
-492.537	-60.876	-0.164	0.070
-491.522	41.579	-0.019	-0.018
-490.508	786.743	0.104	0.287
-489.493	-88.397	0.294	-0.088
-488.478	43.103	-0.086	0.079
-487.464	800.000	-0.019	0.056
-486.449	164.739	0.132	-0.187
-485.435	-38.735	0.155	0.082
-484.420	118.109	0.105	-0.130
-483.405	-200.000	0.006	-0.107
-482.391	800.000	-0.035	-0.103
-481.376	62.871	-0.293	0.295
-480.362	-200.000	-0.006	0.170
-479.347	-200.000	-0.051	-0.254
-478.332	-66.322	0.056	-0.022
-477.318	-64.951	-0.233	0.095
-476.303	-30.406	-0.191	0.109
-475.289	-64.071	-0.013	-0.005
-474.274	53.391	0.074	-0.071
-473.259	-108.548	-0.223	0.048
-472.245	28.715	-0.107	0.091
-471.230	78.851	-0.199	-0.214
-470.216	492.170	-0.088	-0.202
-469.201	46.079	0.133	0.124
-468.186	43.063	-0.107	-0.099
-467.172	787.583	-0.069	-0.191
-466.157	-93.826	0.203	-0.056
-465.143	172.473	-0.077	0.111
-464.128	-16.145	0.142	0.091
-463.113	800.000	0.097	-0.317
-462.099	-105.452	-0.123	0.028
-461.084	-137.228	0.234	0.027
-460.070	-78.135	0.265	0.091
-459.055	372.190	-0.051	0.105
-458.040	42.592	0.068	-0.062
-457.026	-200.000	0.002	0.052
-456.011	63.692	-0.136	0.137
-454.997	360.527	-0.029	-0.057
-453.982	310.847	0.081	0.153
-452.968	-76.733	-0.061	0.022
-451.953	45.736	-0.243	-0.225
-450.938	-200.000	-0.059	-0.316
-449.924	800.000	-0.037	-0.129
-448.909	-65.662	0.064	-0.026
-447.895	-115.772	0.199	-0.037
-446.880	328.719	-0.242	-0.468
-445.865	193.617	-0.170	-0.258
-444.851	458.410	-0.048	-0.107
-443.836	800.000	-0.022	0.084
-442.822	123.838	-0.073	0.092
-441.807	668.166	0.097	0.252
-440.792	135.848	0.046	-0.060
-439.778	-190.562	0.119	0.001
-438.763	-200.000	-0.006	0.133
-437.749	123.463	0.214	0.269
-436.734	-29.607	0.144	0.082
-435.719	-173.357	-0.206	-0.006
-434.705	800.000	0.054	0.211
-433.690	-97.499	0.323	-0.084
-432.676	-126.137	0.125	-0.019
-431.661	8.389	0.102	0.077
-430.646	-68.859	-0.190	-0.074
-429.632	87.345	0.144	-0.160
-428.617	800.000	-0.061	0.216
-427.603	175.453	0.186	-0.271
-426.588	-185.077	0.204	-0.003
-425.573	122.969	-0.196	-0.246
-424.559	-70.550	-0.226	-0.086
-423.544	115.170	0.355	-0.435
-422.530	1.838	-0.131	0.095
-421.515	-200.000	0.013	-0.151
-420.500	476.394	0.067	0.151
-419.486	-66.221	0.079	0.032
-418.471	-200.000	0.015	-0.173
-417.457	-23.654	0.368	0.221
-416.442	-200.000	0.012	-0.218
-415.428	259.194	-0.162	-0.280
-414.413	800.000	-0.024	0.078
-413.398	55.993	-0.115	0.112
-412.384	-34.288	-0.213	0.117
-411.369	-28.425	0.403	0.233
-410.355	800.000	0.037	0.130
-409.340	-116.643	0.371	0.068
-408.325	-65.870	0.079	-0.032
-407.311	72.067	-0.218	0.228
-406.296	392.726	0.101	-0.211
-405.282	-86.582	-0.169	-0.052
-404.267	-85.746	0.166	-0.052
-403.252	-35.018	0.142	-0.078
-402.238	800.000	0.068	-0.250
-401.223	-85.017	-0.143	0.045
-400.209	369.408	-0.159	0.323
-399.194	-134.444	-0.342	-0.042
-398.179	-200.000	-0.025	0.184
-397.165	800.000	-0.065	-0.194
-396.150	-200.000	-0.002	0.099
-395.136	-170.267	0.423	0.015
-394.121	-39.231	0.128	-0.067
-393.106	800.000	-0.091	-0.275
-392.092	188.140	-0.135	0.201
-391.077	-89.833	-0.178	0.052
-390.063	33.056	0.178	-0.155
-389.048	94.626	0.080	0.092
-388.033	-57.539	-0.160	0.070
-387.019	-200.000	0.023	-0.100
-386.004	-96.490	0.211	0.056
-384.990	-138.192	-0.158	0.018
-383.975	115.777	-0.181	0.222
-382.960	32.005	0.252	-0.217
-381.946	800.000	0.049	0.205
-380.931	429.324	0.069	-0.149
-379.917	51.821	0.137	0.131
-378.902	298.024	0.078	0.144
-377.888	-80.930	-0.160	-0.053
-376.873	316.090	-0.161	0.305
-375.858	56.184	-0.283	-0.275
-374.844	800.000	0.088	-0.328
-373.829	126.455	0.186	0.235
-372.815	-24.797	0.230	0.137
-371.800	13.207	-0.208	0.161
-370.785	-200.000	-0.025	0.466
-369.771	-15.323	-0.148	-0.095
-368.756	-200.000	-0.011	0.137
-367.742	276.297	-0.016	0.029
-366.727	-200.000	-0.021	0.193
-365.712	800.000	-0.023	-0.066
-364.698	499.600	-0.106	-0.245
-363.683	800.000	-0.121	-0.411
-362.669	-29.529	-0.378	0.216
-361.654	-28.260	-0.257	-0.149
-360.639	-130.427	0.169	0.023
-359.625	-200.000	0.027	0.237
-358.610	46.328	0.123	-0.114
-357.596	11.796	-0.018	-0.014
-356.581	-91.301	-0.220	-0.063
-355.566	16.601	0.160	0.126
-354.552	-89.549	0.303	0.089
-353.537	13.751	0.424	-0.330
-352.523	9.860	0.256	-0.194
-351.508	-127.653	-0.269	-0.039
-350.493	-2.861	-0.156	0.109
-349.479	152.105	-0.221	-0.302
-348.464	156.226	-0.169	-0.234
-347.450	388.757	0.107	-0.221
-346.435	800.000	-0.112	-0.347
-345.420	4.435	-0.056	0.041
-344.406	26.676	0.186	0.156
-343.391	302.881	-0.187	0.346
-342.377	-45.882	-0.279	-0.138
-341.362	-200.000	0.022	-0.155
-340.348	20.571	-0.080	-0.065
-339.333	-39.283	0.161	0.084
-338.318	23.024	0.105	0.086
-337.304	15.227	-0.329	-0.258
-336.289	234.037	-0.072	0.119
-335.275	541.873	0.074	0.175
-334.260	-90.394	0.339	-0.098
-333.245	-200.000	0.040	-0.222
-332.231	545.844	0.065	-0.156
-331.216	-128.215	-0.167	-0.024
-330.202	-12.293	0.120	-0.078
-329.187	800.000	0.060	-0.243
-328.172	147.973	-0.141	0.190
-327.158	53.736	-0.087	-0.083
-326.143	-200.000	-0.469	-0.000
-325.129	132.221	0.255	0.329
-324.114	800.000	-0.118	-0.357
-323.099	-127.009	-0.111	0.016
-322.085	67.610	0.088	0.090
-321.070	-27.519	-0.213	0.124
-320.056	62.218	-0.240	0.240
-319.041	86.811	0.124	-0.136
-318.026	-9.269	0.065	0.043
-317.012	800.000	0.044	0.133
-315.997	-7.813	-0.174	-0.118
-314.983	212.145	0.114	-0.179
-313.968	-197.286	-0.227	0.001
-312.953	168.593	0.064	0.092
-311.939	25.353	-0.056	0.046
-310.924	-200.000	0.074	-0.327
-309.910	-200.000	-0.062	-0.278
-308.895	800.000	0.050	-0.212
-307.880	259.800	-0.135	-0.232
-306.866	-163.306	0.247	-0.012
-305.851	-200.000	-0.001	-0.049
-304.837	-200.000	0.025	-0.145
-303.822	66.208	0.089	0.091
-302.807	-0.752	-0.038	-0.027
-301.793	-53.777	0.240	-0.109
-300.778	-200.000	-0.034	0.152
-299.764	-141.888	-0.399	-0.040
-298.749	-169.570	-0.264	-0.010
-297.735	-68.234	0.141	0.055
-296.720	-53.023	0.127	0.058
-295.705	-74.701	-0.326	0.117
-294.691	59.806	0.125	0.123
-293.676	-2.869	0.255	0.178
-292.662	-117.413	0.152	0.027
-291.647	158.550	0.232	0.322
-290.632	251.381	-0.084	0.143
-289.618	800.000	0.065	0.207
-288.603	-29.991	0.199	-0.113
-287.589	-140.541	-0.185	-0.019
-286.574	1.028	0.296	0.212
-285.559	-9.594	0.027	-0.018
-284.545	-174.355	0.090	0.003
-283.530	84.002	0.185	-0.202
-282.516	455.377	0.008	0.018
-281.501	775.998	-0.120	0.327
-280.486	-37.822	-0.059	0.031
-279.472	23.837	0.357	0.293
-278.457	-92.568	-0.311	0.087
-277.443	-154.620	-0.244	-0.016
-276.428	275.107	-0.110	-0.194
-275.413	200.779	0.141	-0.217
-274.399	-26.494	0.287	-0.168
-273.384	-64.529	-0.160	0.065
-272.370	-47.123	-0.095	0.046
-271.355	-200.000	-0.018	-0.115
-270.340	800.000	-0.032	0.113
-269.326	-61.356	-0.129	0.054
-268.311	11.730	-0.115	-0.088
-267.297	-106.018	0.025	-0.006
-266.282	726.670	-0.060	0.159
-265.267	78.305	0.092	-0.098
-264.253	3.318	0.064	0.046
-263.238	-71.351	-0.095	-0.035
-262.224	-8.599	-0.025	-0.017
-261.209	21.736	-0.060	0.049
-260.195	-195.612	-0.253	0.002
-259.180	179.534	0.180	0.263
-258.165	-62.615	-0.056	-0.023
-257.151	-200.000	0.003	-0.029
-256.136	-200.000	0.024	-0.205
-255.122	-11.900	0.206	0.134
-254.107	-64.060	0.093	-0.038
-253.092	35.257	0.183	-0.160
-252.078	96.010	0.085	0.097
-251.063	-133.146	0.362	0.046
-250.049	14.487	-0.089	0.069
-249.034	-26.186	-0.137	0.080
-248.019	-127.437	0.331	0.048
-247.005	94.120	-0.095	-0.108
-245.990	-140.720	0.027	-0.003
-244.976	-101.876	0.288	-0.069
-243.961	152.291	0.062	0.084
-242.946	255.971	0.211	0.360
-241.932	-59.336	-0.197	0.084
-240.917	-41.815	0.226	-0.116
-239.903	87.230	-0.213	-0.234
-238.888	-4.517	-0.248	-0.171
-237.873	-200.000	0.033	-0.329
-236.859	-200.000	-0.001	-0.169
-235.844	800.000	0.052	0.200
-234.830	800.000	0.060	0.195
-233.815	8.318	0.042	0.031
-232.800	-137.961	0.224	0.025
-231.786	218.928	-0.150	-0.238
-230.771	-122.173	0.393	0.064
-229.757	-143.447	-0.331	0.031
-228.742	-75.634	-0.193	-0.068
-227.727	39.830	-0.245	-0.219
-226.713	-97.965	0.183	0.047
-225.698	-200.000	0.033	0.288
-224.684	-200.000	0.004	0.233
-223.669	91.197	-0.079	-0.088
-222.655	-200.000	-0.054	-0.332
-221.640	800.000	-0.132	0.386
-220.625	336.228	-0.084	-0.163
-219.611	-184.385	0.049	0.001
-218.596	7.460	-0.204	0.152
-217.582	223.948	-0.164	-0.264
-216.567	-118.383	-0.428	0.076
-215.552	-200.000	-0.025	0.229
-214.538	8.558	-0.022	-0.017
-213.523	-200.000	0.052	-0.291
-212.509	33.641	-0.094	-0.081
-211.494	-124.873	0.289	-0.044
-210.479	63.792	-0.104	-0.104
-209.465	12.162	-0.236	-0.181
-208.450	-200.000	0.070	-0.471
-207.436	44.698	0.282	-0.258
-206.421	78.426	0.114	-0.121
-205.406	-200.000	0.014	0.182
-204.392	-44.494	-0.329	-0.163
-203.377	-106.490	0.218	-0.048
-202.363	-200.000	-0.016	0.355
-201.348	800.000	-0.071	0.226
-200.333	123.306	-0.193	-0.241
-199.319	64.086	0.306	-0.306
-198.304	-200.000	-0.018	0.201
-197.290	-200.000	-0.019	-0.147
-196.275	173.199	-0.129	-0.185
-195.260	800.000	-0.052	0.217
-194.246	384.834	0.108	0.222
-193.231	22.643	0.229	0.186
-192.217	-29.968	0.142	0.081
-191.202	800.000	0.014	0.049
-190.187	-66.522	0.257	0.102
-189.173	-200.000	0.078	-0.375
-188.158	-72.925	-0.300	-0.110
-187.144	-200.000	0.027	-0.284
-186.129	-188.396	0.241	-0.003
-185.114	-94.206	-0.169	0.046
-184.100	-16.055	-0.287	-0.181
-183.085	-91.787	-0.124	-0.035
-182.071	11.370	-0.061	-0.046
-181.056	139.035	0.053	0.069
-180.042	-117.253	0.305	0.055
-179.027	-200.000	-0.000	0.319
-178.012	-200.000	-0.001	0.178
-176.998	800.000	-0.027	0.080
-175.983	-138.873	-0.256	0.028
-174.969	-200.000	0.037	-0.400
-173.954	800.000	0.078	0.334
-172.939	-200.000	0.072	0.451
-171.925	275.514	0.126	0.222
-170.910	25.191	-0.245	0.202
-169.896	800.000	0.079	0.232
-168.881	800.000	-0.041	0.116
-167.866	79.895	0.229	-0.245
-166.852	-200.000	-0.061	0.313
-165.837	-191.984	0.051	-0.000
-164.823	261.985	-0.046	-0.079
-163.808	81.683	0.132	0.142
-162.793	-133.799	0.292	0.036
-161.779	375.593	0.089	0.181
-160.764	-104.114	0.215	0.050
-159.750	541.789	-0.038	0.090
-158.735	-200.000	-0.026	0.224
-157.720	-19.046	-0.148	-0.091
-156.706	-136.489	-0.386	-0.044
-155.691	174.916	-0.021	0.030
-154.677	-78.541	-0.293	-0.099
-153.662	-122.096	0.474	-0.077
-152.647	-128.440	-0.090	-0.013
-151.633	-160.194	0.291	0.016
-150.618	87.663	-0.068	-0.075
-149.604	8.279	-0.265	0.198
-148.589	78.683	0.098	0.104
-147.574	-78.839	-0.094	0.032
-146.560	-200.000	0.012	-0.254
-145.545	468.951	-0.050	0.112
-144.531	-47.221	-0.322	0.155
-143.516	-98.222	0.216	0.055
-142.502	-110.523	-0.220	0.045
-141.487	800.000	0.071	0.264
-140.472	513.472	0.110	0.254
-139.458	-128.224	0.350	-0.050
-138.443	354.271	-0.055	-0.109
-137.429	-200.000	-0.028	-0.240
-136.414	800.000	0.020	0.063
-135.399	135.887	-0.101	0.131
-134.385	4.547	-0.198	-0.144
-133.370	52.258	0.184	-0.174
-132.356	174.962	0.060	0.086
-131.341	67.177	-0.213	0.215
-130.326	0.459	0.235	0.167
-129.312	-66.333	-0.214	0.084
-128.297	-200.000	-0.014	0.108
-127.283	474.801	0.141	0.315
-126.268	218.161	-0.170	-0.270
-125.253	-21.560	0.209	-0.126
-124.239	-67.059	0.225	0.088
-123.224	-130.881	-0.523	0.070
-122.210	65.430	0.165	0.166
-121.195	156.313	0.155	0.212
-120.180	-128.803	-0.104	-0.014
-119.166	756.210	-0.086	-0.230
-118.151	-200.000	0.017	0.077
-117.137	-200.000	0.000	0.070
-116.122	-98.634	-0.247	-0.063
-115.107	-168.554	-0.266	0.010
-114.093	-200.000	0.008	-0.110
-113.078	-200.000	0.033	-0.239
-112.064	9.081	-0.099	-0.074
-111.049	-200.000	-0.004	-0.083
-110.034	-90.786	0.173	0.049
-109.020	41.310	0.249	0.223
-108.005	-168.346	-0.236	-0.009
-106.991	-200.000	-0.005	0.064
-105.976	292.856	0.080	0.144
-104.962	800.000	-0.022	-0.082
-103.947	-200.000	-0.085	0.401
-102.932	4.291	0.194	-0.141
-101.918	-200.000	0.033	-0.160
-100.903	4.086	-0.138	0.100
-99.889	-177.674	0.132	0.003
-98.874	-200.000	0.021	-0.096
-97.859	-200.000	0.001	-0.395
-96.845	369.409	0.110	-0.220
-95.830	9.633	-0.204	0.153
-94.816	-127.984	-0.189	0.027
-93.801	-82.771	-0.109	0.035
-92.786	-95.242	0.426	0.114
-91.772	524.926	-0.094	0.220
-90.757	-200.000	-0.029	0.173
-89.743	296.554	0.107	-0.194
-88.728	-111.212	0.224	-0.045
-87.713	-41.835	0.138	-0.070
-86.699	48.921	-0.267	-0.248
-85.684	106.164	-0.129	0.151
-84.670	245.790	-0.276	0.460
-83.655	274.155	0.205	-0.359
-82.640	-200.000	0.057	-0.381
-81.626	800.000	0.054	-0.226
-80.611	-61.995	-0.057	0.024
-79.597	282.578	-0.099	0.176
-78.582	-164.245	-0.307	-0.014
-77.567	5.954	-0.065	-0.048
-76.553	327.054	-0.083	-0.158
-75.538	-200.000	-0.045	-0.344
-74.524	-200.000	-0.028	0.277
-73.509	-200.000	-0.092	0.439
-72.494	-174.756	0.436	-0.012
-71.480	-112.454	-0.093	0.018
-70.465	-200.000	0.023	-0.281
-69.451	-58.660	0.171	-0.073
-68.436	89.295	0.120	0.133
-67.422	193.453	0.100	0.149
-66.407	-73.856	0.407	0.146
-65.392	-200.000	-0.054	-0.333
-64.378	325.846	0.085	0.160
-63.363	-200.000	0.020	0.121
-62.349	155.041	0.128	0.174
-61.334	183.010	-0.505	-0.737
-60.319	85.233	0.309	0.335
-59.305	800.000	-0.197	-0.841
-58.290	187.793	0.740	1.092
-57.276	702.799	0.515	1.343
-56.261	-200.000	95.276	543.122
-55.246	514.659	1400.499	3232.171
-54.232	147.935	2619.568	3492.917
-53.217	109.383	2232.333	2643.151
-52.203	44.165	1759.743	1595.905
-51.188	37.141	1567.982	1372.488
-50.173	34.776	1540.901	1332.262
-49.159	51.497	1590.393	1493.994
-48.144	54.340	1609.604	1532.173
-47.130	37.424	1565.702	1372.269
-46.115	34.329	1549.864	1336.662
-45.100	34.199	1546.391	1332.702
-44.086	34.126	1544.832	1330.797
-43.071	34.080	1542.529	1328.441
-42.057	34.025	1541.249	1326.905
-41.042	34.025	1540.098	1325.855
-40.027	34.037	1538.075	1324.150
-39.013	34.144	1536.711	1323.663
-37.998	34.007	1536.003	1322.046
-36.984	34.032	1534.571	1320.939
-35.969	34.076	1533.063	1319.893
-34.954	34.094	1531.758	1318.840
-33.940	34.050	1529.998	1316.970
-32.925	34.136	1528.810	1316.491
-31.911	34.201	1527.230	1315.529
-30.896	34.105	1525.962	1313.719
-29.881	34.192	1524.657	1313.147
-28.867	34.154	1523.235	1311.606
-27.852	34.160	1521.791	1310.350
-26.838	34.183	1520.305	1309.179
-25.823	33.973	1519.628	1307.097
-24.809	34.099	1517.649	1306.210
-23.794	34.014	1516.643	1304.708
-22.779	34.037	1515.042	1303.437
-21.765	34.113	1513.897	1302.918
-20.750	34.259	1512.107	1302.328
-19.736	34.098	1511.805	1300.912
-18.721	34.037	1510.847	1299.624
-17.706	34.044	1509.802	1298.718
-16.692	34.067	1508.502	1297.706
-15.677	34.018	1507.768	1296.689
-14.663	34.051	1506.380	1295.667
-13.648	33.940	1505.593	1294.184
-12.633	33.940	1504.786	1293.442
-11.619	34.055	1503.661	1293.205
-10.604	34.051	1502.173	1291.845
-9.590	33.987	1502.064	1291.262
-8.575	34.030	1500.949	1290.546
-7.560	34.092	1500.215	1290.287
-6.546	33.961	1499.492	1288.722
-5.531	33.954	1498.151	1287.470
-4.517	34.032	1496.831	1286.815
-3.502	33.947	1496.727	1286.103
-2.487	34.028	1495.518	1285.555
-1.473	33.894	1494.502	1283.725
-0.458	33.981	1492.941	1282.921
0.556	32.713	1483.676	1274.279
1.571	30.390	1458.084	1236.742
2.586	27.047	1394.515	1161.379
3.600	24.948	1309.613	1077.955
4.615	23.045	1262.206	1027.789
5.629	19.648	1203.447	960.995
6.644	9.899	1113.307	838.536
7.659	1.823	1068.645	764.434
8.673	0.664	1062.429	754.136
9.688	0.370	1059.568	750.574
10.702	0.436	1057.607	749.449
11.717	0.211	1056.223	747.284
12.731	3.002	1059.718	763.570
13.746	12.100	1071.927	817.854
14.761	17.959	1079.135	852.619
15.775	17.727	1077.547	850.128
16.790	16.587	1075.661	842.891
17.804	15.562	1073.414	835.957
18.819	14.763	1071.148	830.147
19.834	14.254	1070.194	826.809
20.848	14.058	1068.665	824.583
21.863	13.697	1068.017	822.222
22.877	13.424	1067.381	820.305
23.892	13.292	1066.323	818.765
24.907	13.140	1065.766	817.515
25.921	13.211	1064.795	817.049
26.936	13.250	1063.831	816.428
27.950	13.272	1063.576	816.270
28.965	13.233	1062.945	815.521
29.980	13.363	1061.422	814.919
30.994	13.483	1060.154	814.464
32.009	13.364	1060.395	813.993
33.023	13.492	1059.336	813.734
34.038	13.398	1058.622	812.654
35.053	13.564	1057.082	812.215
36.067	13.462	1056.087	810.877
37.082	13.388	1055.534	810.020
38.096	13.387	1054.839	809.407
39.111	13.417	1053.967	808.814
40.126	13.525	1053.006	808.533
41.140	13.404	1052.085	807.165
42.155	13.215	1051.277	805.552
43.169	13.283	1050.486	805.207
44.184	13.184	1049.181	803.652
45.199	13.225	1047.903	802.802
46.213	13.231	1047.287	802.288
47.228	13.278	1045.879	801.364
48.242	13.182	1045.361	800.435
49.257	13.286	1044.080	799.886
50.271	13.250	1043.402	799.122
51.286	13.322	1042.159	798.443
52.301	13.332	1041.387	797.834
53.315	13.364	1040.677	797.373
54.330	13.184	1040.188	796.058
55.344	13.296	1038.704	795.390
56.359	13.343	1037.566	794.674
57.374	13.315	1036.752	793.850
58.388	13.165	1035.793	792.324
59.403	13.154	1035.409	791.906
60.417	13.215	1034.613	791.518
61.432	13.216	1033.980	790.970
62.447	13.271	1033.106	790.496
63.461	13.151	1032.089	789.073
64.476	13.248	1030.929	788.578
65.490	13.066	1030.495	787.311
66.505	12.970	1029.593	786.095
67.520	13.120	1028.760	786.102
68.534	13.079	1028.221	785.428
69.549	13.184	1027.030	784.945
70.563	13.177	1026.371	784.338
71.578	13.178	1026.028	784.014
72.593	13.169	1024.985	783.103
73.607	13.102	1024.103	782.043
74.622	12.988	1023.476	780.957
75.636	13.033	1022.286	780.193
76.651	13.041	1021.899	779.867
77.666	13.018	1020.736	778.802
78.680	13.159	1019.489	778.442
79.695	13.032	1019.658	777.906
80.709	13.135	1018.964	777.791
81.724	13.174	1018.051	777.212
82.739	13.246	1017.209	776.836
83.753	13.256	1016.309	776.127
84.768	13.332	1015.820	776.044
85.782	13.323	1015.231	775.482
86.797	13.416	1014.353	775.177
87.812	13.403	1013.130	774.112
88.826	13.346	1012.579	773.356
89.841	13.303	1011.392	772.183
90.855	13.356	1010.651	771.795
91.870	13.357	1010.087	771.303
92.884	13.417	1009.532	771.087
93.899	13.428	1008.270	770.106
94.914	13.350	1008.050	769.509
95.928	13.485	1006.976	769.246
96.943	13.351	1006.681	768.331
97.957	13.394	1005.724	767.732
98.972	13.442	1004.495	766.950
99.987	13.386	1003.994	766.238
101.001	13.497	1003.008	765.934
102.016	13.388	1002.355	764.864
103.030	13.282	1001.482	763.641
104.045	13.497	1000.633	763.915
105.060	13.387	999.560	762.522
106.074	13.292	998.508	761.216
107.089	13.368	997.574	760.787
108.103	13.317	996.790	759.885
109.118	13.334	995.690	759.058
110.133	13.212	995.019	757.921
111.147	13.303	994.087	757.560
112.162	13.324	993.277	756.970
113.176	13.314	992.361	756.162
114.191	13.307	991.174	755.157
115.206	13.311	990.647	754.710
116.220	13.228	990.176	753.905
117.235	13.283	989.079	753.254
118.249	13.358	988.001	752.705
119.264	13.216	987.486	751.600
120.279	13.265	986.339	750.885
121.293	13.276	985.667	750.358
122.308	13.341	984.507	749.700
123.322	13.210	983.945	748.614
124.337	13.349	982.938	748.412
125.352	13.190	982.019	746.927
126.366	13.273	980.475	746.058
127.381	13.230	979.411	744.989
128.395	13.272	978.157	744.158
129.410	13.302	977.201	743.500
130.424	13.208	976.490	742.473
131.439	13.299	975.074	741.737
132.454	13.445	974.303	741.742
133.468	13.356	973.982	741.030
134.483	13.297	973.473	740.316
135.497	13.334	972.666	739.800
136.512	13.305	972.142	739.205
137.527	13.247	970.965	737.986
138.541	13.343	970.108	737.699
139.556	13.363	969.505	737.265
140.570	13.280	968.789	736.287
141.585	13.352	967.934	735.890
142.600	13.474	967.164	735.782
143.614	13.280	966.575	734.407
144.629	13.409	965.543	734.131
145.643	13.635	964.486	734.265
146.658	13.507	963.919	733.200
147.673	13.450	963.265	732.385
148.687	13.324	962.516	731.194
149.702	13.398	961.307	730.540
150.716	13.351	960.591	729.724
151.731	13.390	959.971	729.357
152.746	13.378	959.217	728.669
153.760	13.299	958.578	727.770
154.775	13.403	957.558	727.387
155.789	13.362	957.141	726.829
156.804	13.497	955.934	726.439
157.819	13.568	955.136	726.081
158.833	13.543	954.278	725.252
159.848	13.505	954.351	725.077
160.862	13.654	953.036	724.667
161.877	13.543	952.322	723.574
162.892	13.520	951.805	723.016
163.906	13.440	951.005	721.999
164.921	13.527	950.032	721.572
165.935	13.387	949.270	720.320
166.950	13.577	948.178	720.254
167.964	13.625	946.911	719.440
168.979	13.507	946.229	718.344
169.994	13.580	945.491	718.037
171.008	13.472	944.821	716.998
172.023	13.630	943.600	716.691
173.037	13.641	942.584	715.903
174.052	13.735	941.964	715.775
175.067	13.680	941.434	715.073
176.081	13.561	941.123	714.257
177.096	13.610	939.855	713.444
178.110	13.601	939.538	713.099
179.125	13.571	938.092	711.812
180.140	13.618	937.815	711.739
181.154	13.730	936.746	711.346
182.169	13.617	936.211	710.393
183.183	13.789	935.403	710.451
184.198	13.738	934.864	709.761
185.213	13.821	934.495	709.775
186.227	13.748	933.613	708.732
187.242	13.788	933.155	708.489
188.256	13.860	932.142	707.967
189.271	13.860	931.652	707.531
190.286	13.930	930.195	706.659
191.300	13.736	929.909	705.557
192.315	13.622	929.350	704.583
193.329	13.639	928.524	703.969
194.344	13.717	927.532	703.483
195.359	13.629	927.366	702.921
196.373	13.674	926.925	702.717
197.388	13.827	926.274	702.810
198.402	13.906	925.775	702.702
199.417	13.922	925.499	702.498
200.432	13.966	925.037	702.272
201.446	14.043	924.138	701.853
202.461	14.044	924.021	701.706
203.475	14.019	923.461	701.112
204.490	13.983	922.669	700.298
205.504	14.098	921.987	700.200
206.519	14.081	920.898	699.242
207.534	14.062	919.979	698.403
208.548	13.966	919.602	697.650
209.563	13.980	919.384	697.481
210.577	13.972	918.308	696.571
211.592	13.989	917.467	695.942
212.607	14.003	917.349	695.850
213.621	14.143	916.663	695.856
214.636	14.301	915.507	695.576
215.650	14.156	914.742	694.327
216.665	14.236	914.115	694.124
217.680	14.114	914.008	693.473
218.694	14.228	913.106	693.201
219.709	14.264	912.782	693.043
220.723	14.207	912.075	692.210
221.738	14.305	911.422	692.060
222.753	14.359	910.527	691.544
223.767	14.339	909.954	690.965
224.782	14.238	909.360	690.032
225.796	14.350	908.320	689.644
226.811	14.315	908.007	689.202
227.826	14.424	906.746	688.633
228.840	14.340	906.381	687.951
229.855	14.262	905.844	687.157
230.869	14.481	904.770	687.185
231.884	14.451	904.222	686.585
232.899	14.445	903.475	685.934
233.913	14.334	902.728	684.850
234.928	14.301	902.280	684.312
235.942	14.307	901.718	683.850
236.957	14.412	900.787	683.517
237.972	14.241	900.278	682.367
238.986	14.499	899.341	682.654
240.001	14.411	898.764	681.794
241.015	14.267	898.619	681.034
242.030	14.391	897.700	680.783
243.045	14.413	896.978	680.268
244.059	14.460	896.735	680.214
245.074	14.588	895.644	679.851
246.088	14.441	895.229	678.876
247.103	14.601	894.432	678.861
248.117	14.697	893.736	678.664
249.132	14.666	893.325	678.164
250.147	14.610	893.041	677.660
251.161	14.854	891.914	677.737
252.176	14.910	891.290	677.430
253.190	14.846	890.654	676.627
254.205	15.023	889.990	676.780
255.220	14.863	889.687	675.841
256.234	14.871	888.986	675.281
257.249	14.862	888.211	674.596
258.263	14.793	888.048	674.135
259.278	14.884	887.749	674.213
260.293	14.885	886.824	673.455
261.307	14.912	886.258	673.076
262.322	14.948	885.936	672.916
263.336	14.913	885.094	672.077
264.351	15.146	884.249	672.311
265.366	15.189	883.454	671.820
266.380	15.116	883.225	671.294
267.395	15.075	882.309	670.374
268.409	15.087	881.590	669.816
269.424	15.136	881.001	669.506
270.439	15.171	880.380	669.113
271.453	15.055	879.609	668.006
272.468	15.103	878.696	667.446
273.482	15.086	877.965	666.763
274.497	14.999	877.500	666.004
275.512	15.060	877.018	665.823
276.526	15.277	875.979	665.836
277.541	15.114	875.179	664.524
278.555	15.205	874.683	664.448
279.570	15.201	874.551	664.271
280.585	15.266	874.186	664.196
281.599	15.358	873.499	663.979
282.614	15.252	872.842	663.000
283.628	15.119	871.999	661.776
284.643	15.331	871.073	661.851
285.657	15.354	870.631	661.547
286.672	15.247	870.293	660.810
287.687	15.340	869.669	660.645
288.701	15.377	869.524	660.622
289.716	15.360	868.512	659.728
290.730	15.304	868.165	659.186
291.745	15.344	867.586	658.845
292.760	15.345	866.857	658.236
293.774	15.452	866.287	658.163
294.789	15.467	865.341	657.446
295.803	15.465	865.043	657.154
296.818	15.434	864.513	656.571
297.833	15.475	863.720	656.072
298.847	15.421	863.336	655.512
299.862	15.570	862.344	655.280
300.876	15.652	861.491	654.894
301.891	15.546	861.134	654.153
302.906	15.676	860.316	653.979
303.920	15.696	859.512	653.388
304.935	15.600	859.056	652.610
305.949	15.734	858.436	652.603
306.964	15.646	857.994	651.868
307.979	15.712	857.222	651.479
308.993	15.702	856.916	651.148
310.008	15.685	856.405	650.636
311.022	15.649	855.856	650.022
312.037	15.691	855.509	649.865
313.052	15.745	854.811	649.486
314.066	15.651	854.293	648.670
315.081	15.798	853.184	648.341
316.095	15.695	852.945	647.704
317.110	15.642	852.415	647.041
318.125	15.714	851.933	646.894
319.139	15.812	851.262	646.704
320.154	15.833	850.691	646.294
321.168	15.767	850.176	645.592
322.183	15.762	849.386	644.915
323.197	15.825	849.016	644.818
324.212	15.804	848.456	644.257
325.227	15.950	848.167	644.539
326.241	15.831	847.176	643.274
327.256	15.787	847.234	643.093
328.270	15.825	846.475	642.605
329.285	15.877	845.612	642.089
330.300	15.736	845.117	641.121
331.314	15.884	844.449	641.122
332.329	15.926	843.774	640.712
333.343	15.824	843.311	639.916
334.358	16.001	842.527	639.937
335.373	16.082	842.047	639.823
336.387	15.862	841.858	638.788
337.402	16.047	841.222	638.949
338.416	16.036	840.714	638.467
339.431	16.091	840.123	638.169
340.446	16.068	839.404	637.479
341.460	16.077	839.189	637.293
342.475	16.302	838.723	637.733
343.489	16.258	837.358	636.471
344.504	16.201	837.359	636.201
345.519	16.296	836.706	636.009
346.533	16.469	835.866	635.962
347.548	16.308	835.672	635.154
348.562	16.293	835.303	634.761
349.577	16.295	834.346	633.986
350.592	16.144	833.930	633.046
351.606	16.131	833.663	632.741
352.621	16.279	832.936	632.688
353.635	16.348	832.778	632.770
354.650	16.154	832.793	631.995
355.665	16.235	831.988	631.634
356.679	16.391	831.355	631.680
357.694	16.324	830.869	631.003
358.708	16.375	830.150	630.593
359.723	16.289	829.608	629.803
360.738	16.314	829.211	629.542
361.752	16.533	828.411	629.695
362.767	16.454	828.150	629.145
363.781	16.496	827.462	628.723
364.796	16.490	827.419	628.610
365.810	16.361	827.382	628.048
366.825	16.624	826.478	628.285
367.840	16.683	826.271	628.291
368.854	16.593	825.538	627.344
369.869	16.566	825.456	627.124
370.883	16.660	824.354	626.580
371.898	16.492	823.862	625.530
372.913	16.648	823.046	625.433
373.927	16.759	822.893	625.670
374.942	16.635	822.147	624.590
375.956	16.739	821.492	624.419
376.971	16.737	821.053	624.024
377.986	16.773	820.525	623.700
379.000	16.875	820.145	623.732
380.015	16.853	819.746	623.292
381.029	16.665	819.318	622.218
382.044	16.946	818.417	622.513
383.059	16.897	817.691	621.725
384.073	16.785	817.481	621.100
385.088	17.005	816.811	621.342
386.102	16.983	815.867	620.487
387.117	16.607	815.841	619.038
388.132	16.721	815.568	619.194
389.146	16.708	815.158	618.781
390.161	16.919	814.562	619.043
391.175	17.027	813.795	618.800
392.190	16.971	813.568	618.367
393.205	16.925	813.432	618.040
394.219	16.984	812.897	617.797
395.234	16.861	812.182	616.750
396.248	16.851	811.753	616.332
397.263	16.811	810.727	615.354
398.278	16.968	810.527	615.717
399.292	16.899	810.482	615.378
400.307	16.793	810.340	614.832
401.321	16.797	809.935	614.483
402.336	17.036	809.293	614.811
403.350	17.076	808.584	614.360
404.365	16.991	808.494	613.931
405.380	17.056	808.021	613.752
406.394	17.143	807.278	613.447
407.409	17.198	806.841	613.261
408.423	17.166	806.514	612.841
409.438	17.126	806.070	612.306
410.453	17.255	805.522	612.301
411.467	17.327	805.029	612.130
412.482	17.388	804.260	611.710
413.496	17.291	804.400	611.414
414.511	17.412	803.758	611.306
415.526	17.329	803.580	610.819
416.540	17.413	803.226	610.798
417.555	17.363	802.786	610.229
418.569	17.328	802.139	609.558
419.584	17.234	801.849	608.947
420.599	17.377	801.350	609.025
421.613	103.959	1284.555	1444.892
422.628	89.305	1354.961	1444.996
