DTS Sentinel unit serial number:	SN413079Multiplexer serial number:	ORYXHardware model number:	OX4-SRSoftware version number:	ORYX F/W v4.00 Oryx Data Collector v3.7.2.0data status	okinstallation	princeton_trtdifferential loss correction	single-endedforward channel	channel 3reverse channel	N/Adate	2019/09/18time	19:48:35forward acquisition time	60.00reverse acquisition time	0.00gamma	496.2192k internal	0.2327k external	0.2327temperature offset calibration	1.0003default loss term (dB/km)	0.3790temperature slope calibration	1.0000multiplexer offset coefficient	1.0000multiplexer slope coefficient	1.0000fibre end	0.00T internal ref (°C)	31.28T ext. ref 1 (°C)	1.03T ext. ref 2 (°C)	22.03length (m)	temperature (°C)	Stokes	anti-Stokes-747.200	74.930	0.278	-0.295
-746.185	-19.861	0.256	0.159
-745.171	-130.457	-0.013	0.002
-744.156	-127.212	-0.324	-0.048
-743.142	800.000	-0.064	-0.245
-742.127	229.695	-0.066	0.108
-741.112	-200.000	-0.003	0.104
-740.098	144.159	-0.124	0.167
-739.083	38.208	-0.177	0.159
-738.069	-29.930	-0.098	0.056
-737.054	-89.239	0.247	0.074
-736.039	3.850	-0.246	0.181
-735.025	-200.000	-0.004	0.226
-734.010	-21.390	-0.257	0.158
-732.996	-132.513	-0.168	0.022
-731.981	171.679	-0.077	0.112
-730.966	-98.633	-0.365	-0.094
-729.952	-200.000	-0.045	-0.211
-728.937	364.456	-0.157	-0.319
-727.923	-34.890	-0.253	0.139
-726.908	-20.749	-0.226	0.140
-725.894	-124.710	0.278	0.043
-724.879	800.000	-0.030	-0.101
-723.864	-5.112	-0.151	-0.105
-722.850	6.048	0.103	-0.077
-721.835	18.653	0.104	-0.083
-720.821	-105.127	0.218	-0.050
-719.806	-40.552	-0.226	-0.118
-718.791	44.125	0.141	-0.131
-717.777	-49.096	0.104	0.050
-716.762	-130.908	-0.235	-0.032
-715.748	-200.000	-0.053	-0.313
-714.733	-66.510	-0.096	-0.038
-713.718	57.920	-0.180	-0.177
-712.704	-200.000	-0.051	-0.284
-711.689	-160.778	0.382	0.020
-710.675	-8.552	0.045	-0.030
-709.660	-120.689	0.314	-0.053
-708.645	-105.491	0.228	-0.052
-707.631	11.184	-0.240	-0.185
-706.616	-200.000	0.023	-0.143
-705.602	800.000	0.011	0.033
-704.587	-200.000	0.022	-0.181
-703.572	-200.000	-0.073	-0.394
-702.558	800.000	0.081	-0.329
-701.543	-161.822	0.135	-0.007
-700.529	-15.476	-0.167	-0.107
-699.514	-200.000	-0.070	-0.509
-698.499	-200.000	0.001	-0.071
-697.485	170.959	0.263	-0.379
-696.470	792.886	-0.051	0.142
-695.456	119.540	-0.071	0.088
-694.441	227.187	0.216	-0.354
-693.426	-200.000	-0.065	-0.364
-692.412	-24.650	0.132	0.079
-691.397	126.913	-0.106	-0.136
-690.383	-13.186	0.261	0.171
-689.368	99.759	-0.259	-0.302
-688.354	158.494	-0.064	-0.089
-687.339	-200.000	-0.021	0.241
-686.324	6.973	-0.168	0.126
-685.310	-125.904	-0.213	0.032
-684.295	253.317	-0.123	0.211
-683.281	800.000	0.077	-0.226
-682.266	-166.646	-0.315	0.013
-681.251	-58.857	0.343	0.149
-680.237	31.169	-0.168	0.145
-679.222	173.803	-0.129	-0.187
-678.208	-105.763	0.399	-0.091
-677.193	-62.737	-0.219	0.091
-676.178	91.925	0.057	0.065
-675.164	5.407	-0.136	0.101
-674.149	84.291	-0.099	-0.109
-673.135	161.959	-0.193	-0.272
-672.120	308.722	-0.060	-0.113
-671.105	263.716	0.041	-0.072
-670.091	-60.464	-0.343	0.147
-669.076	-89.325	0.148	0.044
-668.062	345.166	-0.065	0.128
-667.047	-65.625	-0.273	0.110
-666.032	-18.818	-0.152	-0.095
-665.018	37.559	0.275	0.245
-664.003	6.408	-0.114	-0.085
-662.989	530.548	0.108	-0.256
-661.974	-1.789	-0.145	-0.103
-660.959	-157.634	-0.325	0.019
-659.945	738.226	0.027	0.074
-658.930	-200.000	0.008	0.170
-657.916	800.000	-0.067	0.256
-656.901	36.129	-0.149	0.132
-655.886	-200.000	-0.003	0.043
-654.872	-134.695	0.174	-0.021
-653.857	7.903	-0.116	-0.087
-652.843	-50.030	0.137	-0.065
-651.828	-200.000	-0.051	0.299
-650.814	118.740	-0.025	0.031
-649.799	529.388	0.124	-0.294
-648.784	84.517	0.104	-0.114
-647.770	-200.000	-0.006	0.045
-646.755	6.351	0.161	0.120
-645.741	800.000	-0.026	0.111
-644.726	-200.000	0.003	-0.250
-643.711	-76.132	-0.245	0.087
-642.697	-146.721	0.218	-0.019
-641.682	33.676	0.239	0.209
-640.668	800.000	0.107	-0.311
-639.653	116.414	-0.064	-0.079
-638.638	70.929	-0.298	-0.310
-637.624	595.932	0.080	-0.199
-636.609	-200.000	0.017	0.409
-635.595	-29.676	-0.308	-0.176
-634.580	-200.000	-0.014	-0.097
-633.565	-200.000	-0.028	0.130
-632.551	-200.000	-0.017	-0.107
-631.536	5.922	-0.353	-0.263
-630.522	42.718	0.016	-0.015
-629.507	116.148	-0.204	-0.251
-628.492	800.000	-0.051	0.150
-627.478	462.205	0.111	0.249
-626.463	-90.273	-0.225	0.066
-625.449	-200.000	0.054	-0.309
-624.434	766.632	-0.091	-0.248
-623.419	-23.366	0.212	-0.128
-622.405	800.000	-0.049	0.161
-621.390	-81.699	0.022	0.007
-620.376	800.000	0.033	0.130
-619.361	-38.474	0.132	-0.070
-618.346	-6.951	-0.176	0.120
-617.332	-73.815	0.162	-0.059
-616.317	463.687	-0.219	0.490
-615.303	147.607	0.068	0.092
-614.288	-123.081	0.340	-0.055
-613.273	19.186	-0.250	0.202
-612.259	-75.263	-0.086	-0.031
-611.244	29.079	0.113	0.096
-610.230	800.000	0.053	0.180
-609.215	-82.639	-0.054	-0.018
-608.201	60.167	0.120	0.119
-607.186	205.704	-0.267	0.416
-606.171	265.546	-0.269	0.471
-605.157	-200.000	0.023	-0.167
-604.142	-200.000	-0.005	-0.122
-603.128	-37.513	-0.392	0.210
-602.113	79.077	0.091	-0.098
-601.098	-93.353	0.073	-0.020
-600.084	-200.000	0.017	-0.357
-599.069	370.093	0.032	0.065
-598.055	0.268	0.170	0.122
-597.040	11.938	-0.168	0.129
-596.025	-147.371	0.173	0.015
-595.011	800.000	-0.110	0.316
-593.996	-26.071	0.085	-0.050
-592.982	-114.299	0.273	-0.053
-591.967	-200.000	-0.005	0.258
-590.952	-200.000	0.030	0.176
-589.938	-5.179	0.061	0.042
-588.923	30.769	-0.145	0.125
-587.909	800.000	0.025	-0.103
-586.894	570.042	0.140	-0.341
-585.879	185.128	-0.119	0.177
-584.865	-84.709	0.150	-0.047
-583.850	-101.962	-0.409	-0.099
-582.836	191.865	-0.025	0.038
-581.821	386.981	0.195	-0.404
-580.806	-147.178	-0.373	0.032
-579.792	27.306	0.110	-0.093
-578.777	32.033	-0.107	0.092
-577.763	-45.321	-0.240	0.119
-576.748	-117.270	-0.406	0.074
-575.733	800.000	-0.115	-0.326
-574.719	239.715	-0.032	-0.053
-573.704	-41.732	-0.093	0.048
-572.690	800.000	0.044	0.161
-571.675	678.227	0.065	0.170
-570.661	800.000	-0.011	0.032
-569.646	-51.958	0.207	0.097
-568.631	167.751	-0.058	0.083
-567.617	-65.157	-0.103	0.041
-566.602	-200.000	-0.018	0.451
-565.588	-200.000	0.170	-0.000
-564.573	-133.533	-0.368	0.046
-563.558	17.376	0.078	-0.062
-562.544	-41.845	-0.318	-0.163
-561.529	284.030	0.134	-0.241
-560.515	83.172	-0.224	-0.244
-559.500	127.923	-0.042	-0.054
-558.485	800.000	-0.116	-0.387
-557.471	34.031	0.109	0.095
-556.456	-177.396	-0.423	-0.010
-555.442	118.756	0.027	0.034
-554.427	417.229	0.153	0.327
-553.412	652.425	-0.038	-0.098
-552.398	379.495	-0.107	-0.220
-551.383	-125.773	0.087	-0.013
-550.369	-200.000	0.000	-0.069
-549.354	-155.498	0.284	-0.018
-548.339	-165.770	0.040	0.002
-547.325	-200.000	0.007	-0.308
-546.310	-92.625	-0.033	0.009
-545.296	800.000	-0.053	-0.184
-544.281	-142.923	-0.239	0.023
-543.266	-200.000	0.000	-0.007
-542.252	-73.085	0.117	-0.043
-541.237	-129.282	-0.215	-0.030
-540.223	-200.000	0.079	0.350
-539.208	-41.721	0.111	-0.057
-538.193	-63.763	0.092	-0.038
-537.179	-51.292	0.027	-0.013
-536.164	-95.660	0.448	0.120
-535.150	-65.145	0.162	-0.065
-534.135	69.088	-0.083	0.086
-533.121	72.025	-0.202	0.210
-532.106	-134.546	0.213	0.026
-531.091	-118.112	-0.153	-0.027
-530.077	102.254	-0.116	0.136
-529.062	278.412	-0.048	0.085
-528.048	-197.942	0.167	0.001
-527.033	-175.881	-0.208	0.006
-526.018	800.000	-0.076	-0.248
-525.004	667.581	0.090	0.233
-523.989	-148.311	0.091	-0.007
-522.975	-200.000	0.005	-0.563
-521.960	-19.602	0.159	-0.098
-520.945	394.067	0.131	0.272
-519.931	281.072	-0.029	-0.051
-518.916	66.630	-0.194	-0.197
-517.902	207.338	0.105	-0.163
-516.887	124.667	-0.131	0.165
-515.872	-98.700	-0.063	0.016
-514.858	-98.175	0.034	0.009
-513.843	36.187	0.209	-0.184
-512.829	94.818	-0.095	-0.108
-511.814	218.026	-0.024	-0.038
-510.799	-200.000	0.019	0.129
-509.785	-200.000	0.025	0.324
-508.770	-76.179	0.087	-0.031
-507.756	-85.468	-0.091	0.028
-506.741	17.351	-0.168	0.133
-505.726	-106.630	0.356	-0.079
-504.712	-200.000	0.047	-0.354
-503.697	366.668	0.178	-0.359
-502.683	446.782	0.094	0.206
-501.668	-75.774	0.273	0.097
-500.653	-200.000	-0.013	-0.315
-499.639	-15.168	-0.163	-0.104
-498.624	103.413	0.099	0.116
-497.610	-200.000	0.070	-0.317
-496.595	461.463	-0.054	-0.119
-495.581	124.202	-0.096	-0.121
-494.566	-23.710	-0.144	-0.086
-493.551	-39.928	0.195	-0.102
-492.537	800.000	0.161	-0.483
-491.522	-44.189	-0.133	-0.067
-490.508	130.011	-0.204	0.261
-489.493	-157.288	0.362	-0.022
-488.478	-52.582	-0.148	-0.068
-487.464	33.009	-0.101	0.088
-486.449	144.433	-0.166	-0.221
-485.435	-131.224	-0.319	-0.042
-484.420	116.439	0.096	0.117
-483.405	-157.327	0.099	-0.006
-482.391	-200.000	0.120	0.608
-481.376	-158.102	0.213	-0.012
-480.362	-73.027	-0.132	-0.048
-479.347	720.095	0.092	-0.244
-478.332	695.914	0.042	0.110
-477.318	568.796	-0.141	0.342
-476.303	219.038	0.112	0.178
-475.289	73.215	0.131	-0.136
-474.274	532.417	0.061	-0.144
-473.259	13.591	0.172	-0.133
-472.245	-31.848	-0.264	-0.148
-471.230	-58.695	0.083	0.036
-470.216	-103.192	0.227	0.053
-469.201	197.846	-0.060	0.091
-468.186	91.192	-0.167	-0.187
-467.172	-64.234	-0.275	0.112
-466.157	171.208	-0.118	-0.169
-465.143	29.638	-0.011	-0.009
-464.128	-57.264	0.187	-0.082
-463.113	-55.264	-0.439	0.197
-462.099	30.391	0.092	-0.078
-461.084	-132.599	0.293	-0.038
-460.070	401.254	0.125	-0.261
-459.055	122.900	0.214	0.268
-458.040	-200.000	0.025	-0.144
-457.026	-35.304	0.269	0.146
-456.011	268.995	-0.216	0.378
-454.997	268.367	-0.134	-0.233
-453.982	-50.815	0.069	-0.032
-452.968	77.413	0.133	-0.141
-451.953	26.946	0.230	0.192
-450.938	800.000	-0.045	0.141
-449.924	800.000	0.068	0.214
-448.909	-200.000	0.005	-0.053
-447.895	800.000	-0.074	0.283
-446.880	-134.540	0.255	-0.031
-445.865	10.497	0.273	0.207
-444.851	-48.193	0.115	-0.055
-443.836	186.654	-0.072	-0.106
-442.822	-178.233	0.220	0.005
-441.807	-183.664	0.258	-0.004
-440.792	13.105	0.217	0.168
-439.778	-71.220	0.378	-0.141
-438.763	-200.000	0.035	0.238
-437.749	800.000	0.068	-0.187
-436.734	332.898	0.190	0.366
-435.719	-103.875	0.197	-0.046
-434.705	-15.894	-0.090	-0.057
-433.690	346.189	0.042	-0.081
-432.676	314.401	0.145	0.271
-431.661	125.920	-0.146	-0.184
-430.646	-200.000	0.003	-0.331
-429.632	370.827	-0.204	-0.413
-428.617	800.000	0.087	0.271
-427.603	260.786	-0.118	0.204
-426.588	-118.576	-0.304	0.053
-425.573	506.567	-0.098	0.227
-424.559	-88.797	0.238	-0.070
-423.544	-61.998	-0.334	0.139
-422.530	800.000	0.072	0.211
-421.515	-200.000	0.019	0.140
-420.500	530.894	-0.074	0.175
-419.486	800.000	-0.038	0.109
-418.471	-138.989	0.160	0.017
-417.457	-117.381	0.189	0.034
-416.442	-178.375	0.299	0.007
-415.428	582.889	-0.091	0.221
-414.413	-127.289	-0.107	0.016
-413.398	800.000	-0.009	-0.037
-412.384	-163.801	-0.061	-0.003
-411.369	-187.511	0.175	-0.002
-410.355	80.901	-0.128	0.138
-409.340	417.877	-0.112	0.238
-408.325	-149.426	-0.237	-0.019
-407.311	800.000	-0.085	-0.282
-406.296	142.553	0.104	0.137
-405.282	800.000	0.032	0.138
-404.267	-34.107	-0.100	-0.055
-403.252	64.364	0.246	-0.247
-402.238	124.406	-0.324	0.406
-401.223	-200.000	-0.037	-0.271
-400.209	413.510	0.239	-0.506
-399.194	-200.000	-0.018	-0.158
-398.179	192.414	0.146	0.219
-397.165	335.866	0.166	0.321
-396.150	-200.000	-0.056	-0.280
-395.136	175.943	-0.074	-0.107
-394.121	11.691	0.059	-0.045
-393.106	800.000	-0.042	0.161
-392.092	800.000	-0.124	0.401
-391.077	8.196	0.046	0.034
-390.063	-38.854	-0.159	-0.083
-389.048	-65.310	0.205	0.082
-388.033	51.408	-0.129	0.122
-387.019	-104.017	0.218	0.051
-386.004	447.959	-0.073	0.159
-384.990	-168.719	0.135	0.005
-383.975	-138.498	0.207	-0.023
-382.960	37.924	-0.163	0.144
-381.946	176.552	-0.137	-0.198
-380.931	-200.000	0.062	0.297
-379.917	23.912	0.166	-0.136
-378.902	227.930	-0.086	0.138
-377.888	-125.560	-0.282	-0.043
-376.873	-7.108	0.279	0.188
-375.858	-61.074	-0.363	-0.152
-374.844	355.486	-0.021	-0.042
-373.829	-200.000	-0.103	-0.456
-372.815	-19.595	0.262	-0.161
-371.800	-27.935	-0.073	0.042
-370.785	378.721	0.050	-0.103
-369.771	-35.697	0.170	0.091
-368.756	-129.725	0.143	0.020
-367.742	139.813	-0.155	0.203
-366.727	46.694	0.097	-0.089
-365.712	466.528	-0.055	-0.122
-364.698	-45.575	-0.229	0.112
-363.683	-152.668	-0.148	0.010
-362.669	137.043	0.128	-0.166
-361.654	-149.752	-0.292	0.023
-360.639	-1.203	-0.135	-0.095
-359.625	531.735	-0.092	-0.216
-358.610	-120.836	0.058	-0.010
-357.596	-152.529	0.151	-0.011
-356.581	-103.637	0.069	0.016
-355.566	197.341	-0.055	-0.083
-354.552	-31.612	0.065	-0.036
-353.537	347.438	0.117	-0.228
-352.523	233.528	0.155	-0.253
-351.508	467.405	-0.039	-0.086
-350.493	-86.441	0.016	0.005
-349.479	173.642	-0.185	-0.265
-348.464	-200.000	0.073	-0.355
-347.450	-20.127	0.293	0.179
-346.435	800.000	0.076	0.251
-345.420	18.472	-0.155	-0.123
-344.406	800.000	0.031	-0.094
-343.391	79.925	-0.168	0.180
-342.377	-17.295	-0.075	0.047
-341.362	236.940	-0.099	-0.162
-340.348	57.133	0.289	-0.280
-339.333	-149.606	0.174	0.014
-338.318	433.718	0.084	-0.180
-337.304	-179.438	0.175	0.004
-336.289	49.531	-0.125	-0.116
-335.275	751.343	0.110	-0.295
-334.260	281.673	-0.198	-0.351
-333.245	-84.945	-0.251	0.078
-332.231	-41.246	0.125	0.064
-331.216	80.142	-0.208	-0.222
-330.202	800.000	-0.026	0.099
-329.187	150.687	-0.121	0.164
-328.172	-200.000	0.020	-0.136
-327.158	110.901	0.085	0.102
-326.143	3.214	-0.155	0.112
-325.129	-17.881	0.130	0.081
-324.114	800.000	-0.046	0.171
-323.099	-66.048	-0.166	0.066
-322.085	235.228	0.019	-0.032
-321.070	-150.888	-0.027	0.002
-320.056	91.220	0.160	0.178
-319.041	-123.052	-0.193	-0.031
-318.026	58.041	0.148	0.143
-317.012	65.188	-0.173	0.173
-315.997	-200.000	0.008	0.119
-314.983	142.539	-0.087	-0.115
-313.968	-121.128	0.124	0.021
-312.953	-177.389	-0.308	0.008
-311.939	631.365	0.029	-0.073
-310.924	-93.445	0.234	-0.064
-309.910	8.974	-0.282	-0.211
-308.895	-145.961	0.217	-0.019
-307.880	129.552	-0.325	-0.411
-306.866	-200.000	0.031	-0.281
-305.851	-20.299	0.177	-0.108
-304.837	-132.169	-0.305	0.039
-303.822	29.292	0.154	0.130
-302.807	468.317	-0.027	0.060
-301.793	-135.465	0.179	-0.021
-300.778	-93.457	0.184	-0.050
-299.764	-54.858	-0.221	-0.099
-298.749	58.102	-0.158	0.154
-297.735	-200.000	0.006	0.188
-296.720	800.000	0.060	-0.172
-295.705	-85.721	0.159	-0.049
-294.691	177.600	0.127	-0.183
-293.676	-32.829	0.035	-0.020
-292.662	-200.000	-0.489	-0.001
-291.647	168.290	-0.176	-0.248
-290.632	568.125	0.171	-0.410
-289.618	-147.762	-0.371	0.031
-288.603	388.001	0.158	-0.325
-287.589	93.638	-0.123	-0.138
-286.574	339.006	-0.214	-0.412
-285.559	-89.159	-0.145	-0.043
-284.545	-200.000	0.021	0.167
-283.530	-97.437	0.231	0.060
-282.516	244.215	0.137	0.228
-281.501	75.809	-0.323	0.338
-280.486	-132.053	0.509	0.066
-279.472	345.255	-0.095	0.185
-278.457	-200.000	0.001	0.119
-277.443	93.149	0.150	-0.168
-276.428	260.629	0.140	-0.240
-275.413	-85.320	-0.185	-0.057
-274.399	113.459	0.359	-0.431
-273.384	-200.000	-0.033	-0.342
-272.370	-154.186	0.215	-0.014
-271.355	-122.694	0.278	0.045
-270.340	39.140	0.173	-0.153
-269.326	-140.072	-0.187	0.019
-268.311	-200.000	0.051	0.289
-267.297	-200.000	-0.034	0.217
-266.282	-15.739	-0.073	0.046
-265.267	800.000	0.086	0.271
-264.253	723.277	0.072	-0.190
-263.238	-200.000	-0.034	0.178
-262.224	602.184	-0.054	-0.133
-261.209	-139.559	0.429	-0.045
-260.195	-1.270	0.268	0.187
-259.180	-155.789	0.332	-0.021
-258.165	-200.000	0.041	0.274
-257.151	-26.505	-0.281	-0.163
-256.136	800.000	-0.036	0.127
-255.122	43.936	0.256	-0.232
-254.107	-200.000	0.034	0.200
-253.092	-200.000	0.017	0.203
-252.078	-29.984	-0.314	0.177
-251.063	5.609	-0.097	-0.071
-250.049	461.076	-0.174	0.383
-249.034	46.720	0.379	-0.348
-248.019	800.000	0.063	-0.186
-247.005	-141.020	-0.374	0.038
-245.990	175.516	0.121	-0.174
-244.976	-71.840	-0.338	-0.124
-243.961	204.118	-0.038	0.059
-242.946	101.541	-0.138	0.159
-241.932	-200.000	0.013	0.180
-240.917	154.563	0.127	0.172
-239.903	-200.000	-0.031	-0.222
-238.888	83.390	0.085	0.092
-237.873	137.311	0.064	-0.083
-236.859	304.181	0.146	0.268
-235.844	-92.425	0.124	0.035
-234.830	-109.354	-0.369	-0.077
-233.815	379.489	0.125	0.253
-232.800	184.577	0.301	0.440
-231.786	402.095	-0.130	-0.270
-230.771	4.767	-0.121	0.088
-229.757	-95.471	0.190	0.050
-228.742	-129.795	-0.475	0.065
-227.727	-54.242	-0.344	0.154
-226.713	800.000	-0.120	0.447
-225.698	-200.000	-0.003	-0.124
-224.684	-200.000	-0.005	-0.172
-223.669	350.109	-0.004	0.008
-222.655	-60.388	-0.274	0.115
-221.640	-86.406	0.329	0.100
-220.625	-62.432	-0.155	-0.064
-219.611	48.149	0.135	0.125
-218.596	-159.018	-0.430	0.024
-217.582	-99.671	0.164	-0.041
-216.567	42.947	0.303	-0.273
-215.552	63.838	-0.173	-0.172
-214.538	137.521	-0.441	0.570
-213.523	33.784	0.313	0.269
-212.509	-5.794	0.164	0.111
-211.494	-144.063	0.212	-0.020
-210.479	-200.000	0.236	-0.001
-209.465	-74.927	0.202	0.071
-208.450	-200.000	0.032	0.237
-207.436	188.564	-0.178	-0.263
-206.421	22.456	0.159	0.128
-205.406	-141.382	0.262	0.026
-204.392	-74.767	-0.407	0.144
-203.377	-93.294	-0.029	-0.008
-202.363	-200.000	-0.001	0.036
-201.348	-23.807	-0.123	-0.073
-200.333	-200.000	0.010	-0.283
-199.319	-67.590	-0.098	0.038
-198.304	-97.568	-0.165	0.042
-197.290	16.619	-0.152	0.119
-196.275	-200.000	-0.055	-0.249
-195.260	58.606	-0.047	-0.045
-194.246	-147.265	0.135	-0.011
-193.231	-200.000	-0.025	-0.224
-192.217	-115.564	0.168	0.031
-191.202	180.367	-0.175	-0.253
-190.187	7.415	-0.189	-0.139
-189.173	-200.000	0.041	0.334
-188.158	800.000	0.012	0.040
-187.144	-200.000	-0.013	0.086
-186.129	8.216	0.251	0.186
-185.114	-35.279	0.298	0.160
-184.100	-200.000	-0.021	0.301
-183.085	83.372	-0.065	0.070
-182.071	-116.486	-0.232	-0.042
-181.056	800.000	-0.015	0.048
-180.042	-115.333	0.082	-0.015
-179.027	800.000	0.067	-0.259
-178.012	-116.201	-0.358	0.066
-176.998	-89.363	-0.455	-0.132
-175.983	-200.000	0.017	-0.149
-174.969	-200.000	0.026	0.387
-173.954	-200.000	-0.006	0.179
-172.939	23.923	-0.206	-0.167
-171.925	-80.620	0.049	0.016
-170.910	800.000	0.064	-0.257
-169.896	594.895	0.031	-0.075
-168.881	0.287	-0.234	-0.165
-167.866	-200.000	-0.006	-0.231
-166.852	-133.919	0.118	-0.014
-165.837	129.477	0.139	0.174
-164.823	291.556	-0.097	0.173
-163.808	75.033	-0.129	0.134
-162.793	49.035	-0.164	0.152
-161.779	-200.000	-0.015	0.082
-160.764	-101.260	0.068	-0.016
-159.750	-200.000	-0.099	-0.432
-158.735	101.020	0.243	0.278
-157.720	-200.000	-0.017	-0.262
-156.706	-56.232	0.293	0.128
-155.691	-107.965	-0.202	0.043
-154.677	261.920	0.026	0.044
-153.662	8.693	0.253	-0.188
-152.647	40.262	0.184	0.163
-151.633	-200.000	0.040	0.322
-150.618	142.226	0.109	0.142
-149.604	800.000	0.054	-0.188
-148.589	39.847	0.130	-0.115
-147.574	36.616	0.055	0.048
-146.560	-31.518	-0.172	0.095
-145.545	93.202	-0.166	0.185
-144.531	770.520	0.003	-0.007
-143.516	-167.092	-0.260	0.010
-142.502	-72.135	0.121	-0.044
-141.487	-200.000	-0.018	0.229
-140.472	-117.939	-0.194	0.034
-139.458	-143.860	-0.135	-0.013
-138.443	-131.291	0.106	0.014
-137.429	12.916	0.210	-0.160
-136.414	-200.000	-0.010	0.290
-135.399	-40.963	0.248	-0.126
-134.385	574.023	0.048	-0.115
-133.370	23.664	0.198	0.160
-132.356	55.228	-0.290	0.276
-131.341	161.533	-0.230	0.316
-130.326	142.375	-0.139	0.181
-129.312	3.654	-0.076	-0.055
-128.297	26.806	-0.142	0.117
-127.283	-200.000	0.045	0.210
-126.268	-83.831	0.349	-0.109
-125.253	-3.329	-0.108	0.074
-124.239	-200.000	-0.004	0.249
-123.224	-156.053	-0.249	0.015
-122.210	210.662	0.117	0.180
-121.195	-101.230	0.299	0.072
-120.180	-188.957	0.240	-0.003
-119.166	-117.394	-0.120	-0.021
-118.151	800.000	0.067	0.274
-117.137	800.000	-0.049	0.186
-116.122	-67.421	-0.323	0.125
-115.107	-24.452	-0.250	0.147
-114.093	451.700	0.139	-0.301
-113.078	129.028	-0.243	-0.305
-112.064	15.616	-0.213	0.164
-111.049	-52.025	0.093	-0.042
-110.034	295.594	-0.142	-0.256
-109.020	-200.000	0.001	-0.206
-108.005	-5.110	-0.099	0.067
-106.991	-21.750	0.165	0.099
-105.976	-89.575	-0.207	0.060
-104.962	98.534	-0.155	-0.176
-103.947	-77.305	0.292	-0.100
-102.932	-200.000	-0.049	0.325
-101.918	800.000	-0.040	-0.143
-100.903	-200.000	0.022	0.163
-99.889	48.956	0.157	0.145
-98.874	800.000	-0.052	0.207
-97.859	-47.138	-0.186	0.089
-96.845	61.867	0.140	-0.137
-95.830	-200.000	-0.013	-0.144
-94.816	-155.562	0.219	-0.014
-93.801	171.207	-0.131	0.184
-92.786	104.486	0.061	-0.070
-91.772	-200.000	-0.027	-0.209
-90.757	725.534	-0.089	-0.232
-89.743	83.208	0.073	-0.078
-88.728	-4.259	0.299	0.204
-87.713	65.455	-0.089	0.088
-86.699	-200.000	0.008	0.042
-85.684	204.203	0.133	0.203
-84.670	-162.283	0.395	-0.019
-83.655	-138.449	-0.166	-0.018
-82.640	800.000	0.084	-0.245
-81.626	43.307	-0.121	-0.109
-80.611	136.593	-0.117	0.150
-79.597	36.709	0.086	0.074
-78.582	-48.003	0.213	-0.101
-77.567	-77.703	-0.325	-0.111
-76.553	-142.571	-0.264	-0.025
-75.538	197.841	-0.144	0.216
-74.524	-64.190	-0.206	0.082
-73.509	-88.694	0.040	0.012
-72.494	245.733	-0.160	0.264
-71.480	-81.576	0.062	-0.020
-70.465	54.737	0.135	0.127
-69.451	-200.000	0.006	0.122
-68.436	-70.075	-0.070	0.026
-67.422	8.396	-0.125	0.092
-66.407	-200.000	-0.009	-0.627
-65.392	-200.000	0.035	-0.401
-64.378	-137.214	0.253	0.028
-63.363	218.327	0.192	0.301
-62.349	174.221	-0.097	0.137
-61.334	-24.283	-1.300	-0.761
-60.319	117.771	0.527	0.637
-59.305	557.231	-0.507	-1.200
-58.290	800.000	0.469	1.339
-57.276	405.741	0.759	1.571
-56.261	-200.000	106.794	613.079
-55.246	469.977	1474.505	3252.128
-54.232	148.410	2653.506	3516.521
-53.217	110.017	2175.290	2561.950
-52.203	42.004	1709.124	1522.062
-51.188	34.584	1523.207	1305.903
-50.173	32.076	1496.159	1265.783
-49.159	53.662	1549.891	1459.826
-48.144	54.777	1567.216	1483.722
-47.130	34.622	1524.168	1306.780
-46.115	31.485	1509.595	1272.925
-45.100	31.326	1505.946	1268.718
-44.086	31.419	1503.744	1267.446
-43.071	31.272	1501.252	1264.298
-42.057	31.311	1500.047	1263.496
-41.042	31.168	1499.143	1261.717
-40.027	31.191	1497.830	1260.718
-39.013	31.227	1495.453	1258.910
-37.998	31.243	1494.556	1258.213
-36.984	31.269	1493.383	1257.352
-35.969	31.299	1492.148	1256.463
-34.954	31.310	1490.802	1255.354
-33.940	31.291	1489.680	1254.234
-32.925	31.242	1488.366	1252.746
-31.911	31.350	1486.555	1251.894
-30.896	31.383	1485.341	1251.044
-29.881	31.365	1484.510	1250.178
-28.867	31.379	1482.561	1248.580
-27.852	31.355	1481.626	1247.579
-26.838	31.333	1480.702	1246.609
-25.823	31.361	1478.814	1245.157
-24.809	31.317	1477.212	1243.460
-23.794	31.488	1475.564	1243.163
-22.779	31.279	1474.682	1240.980
-21.765	31.312	1473.702	1240.329
-20.750	31.258	1472.772	1239.139
-19.736	31.306	1471.183	1238.069
-18.721	31.279	1469.910	1236.772
-17.706	31.242	1468.961	1235.678
-16.692	31.247	1468.360	1235.159
-15.677	31.237	1466.928	1233.839
-14.663	31.202	1466.362	1233.083
-13.648	31.286	1465.583	1232.931
-12.633	31.205	1464.546	1231.475
-11.619	31.245	1463.932	1231.175
-10.604	31.244	1462.757	1230.133
-9.590	31.219	1462.027	1229.306
-8.575	31.275	1460.854	1228.640
-7.560	31.193	1459.748	1227.116
-6.546	31.330	1458.321	1226.770
-5.531	31.224	1458.195	1225.917
-4.517	31.349	1457.306	1225.946
-3.502	31.241	1456.389	1224.417
-2.487	31.292	1455.051	1223.578
-1.473	31.267	1453.703	1222.227
-0.458	31.207	1452.689	1220.936
0.556	30.053	1441.785	1205.740
1.571	25.668	1414.177	1154.484
2.586	20.620	1349.411	1070.525
3.600	17.977	1266.056	989.026
4.615	16.532	1221.262	945.873
5.629	14.658	1166.119	893.069
6.644	8.042	1083.683	796.872
7.659	2.138	1044.687	739.599
8.673	1.160	1039.166	730.913
9.688	0.950	1036.307	727.827
10.702	1.030	1034.955	727.201
11.717	0.990	1033.146	725.673
12.731	3.166	1034.488	736.983
13.746	10.014	1044.239	776.879
14.761	16.069	1051.450	811.403
15.775	17.692	1052.608	820.038
16.790	17.267	1051.129	816.775
17.804	16.231	1049.309	810.313
18.819	15.464	1046.835	804.658
19.834	14.917	1046.075	801.383
20.848	14.692	1044.815	799.266
21.863	14.471	1043.928	797.464
22.877	14.231	1043.373	795.819
23.892	14.069	1041.991	793.923
24.907	14.097	1040.991	793.225
25.921	13.966	1040.534	792.179
26.936	14.011	1039.997	791.916
27.950	13.993	1039.696	791.532
28.965	14.041	1038.872	791.063
29.980	14.094	1037.878	790.489
30.994	14.139	1036.878	789.870
32.009	14.263	1035.738	789.520
33.023	14.129	1035.232	788.426
34.038	14.255	1034.203	788.169
35.053	14.162	1033.833	787.379
36.067	14.158	1033.206	786.811
37.082	13.975	1032.479	785.326
38.096	14.076	1031.640	785.093
39.111	14.253	1030.297	784.837
40.126	14.140	1029.590	783.699
41.140	14.092	1028.725	782.745
42.155	13.992	1027.682	781.411
43.169	13.910	1026.811	780.295
44.184	13.909	1026.169	779.733
45.199	13.884	1024.936	778.608
46.213	13.990	1023.121	777.657
47.228	13.922	1022.791	777.018
48.242	13.926	1022.239	776.551
49.257	14.025	1021.065	776.050
50.271	14.059	1019.852	775.221
51.286	14.135	1018.689	774.620
52.301	14.068	1017.887	773.630
53.315	14.026	1017.622	773.168
54.330	14.086	1016.673	772.656
55.344	13.960	1015.999	771.490
56.359	14.062	1014.368	770.656
57.374	14.017	1013.576	769.778
58.388	13.949	1013.295	769.181
59.403	13.983	1012.227	768.458
60.417	14.016	1011.188	767.756
61.432	13.949	1010.371	766.760
62.447	13.943	1010.188	766.523
63.461	13.763	1009.743	765.289
64.476	13.958	1008.077	764.855
65.490	13.843	1007.566	763.871
66.505	13.939	1006.717	763.601
67.520	13.850	1006.177	762.713
68.534	14.014	1004.908	762.436
69.549	14.052	1004.397	762.157
70.563	14.019	1003.812	761.496
71.578	13.976	1003.023	760.631
72.593	13.891	1002.015	759.413
73.607	13.966	1000.959	758.886
74.622	13.886	1000.087	757.792
75.636	13.802	999.342	756.780
76.651	13.961	998.806	757.031
77.666	13.929	998.261	756.404
78.680	13.809	997.204	754.990
79.695	13.809	997.073	754.824
80.709	13.691	996.951	754.127
81.724	13.988	995.540	754.343
82.739	13.964	994.835	753.632
83.753	13.940	994.244	753.012
84.768	14.113	993.056	752.827
85.782	14.078	992.172	751.934
86.797	14.111	991.288	751.344
87.812	14.124	990.584	750.802
88.826	14.044	989.704	749.708
89.841	14.039	989.103	749.165
90.855	14.021	988.617	748.648
91.870	14.138	987.688	748.409
92.884	14.151	987.162	748.001
93.899	14.114	986.101	746.963
94.914	14.167	985.121	746.395
95.928	14.116	985.143	746.114
96.943	14.206	984.292	745.807
97.957	14.109	983.613	744.794
98.972	13.992	982.726	743.534
99.987	14.063	982.267	743.435
101.001	14.032	981.110	742.356
102.016	14.272	979.861	742.417
103.030	14.212	979.157	741.549
104.045	14.311	977.782	740.884
105.060	14.085	977.433	739.547
106.074	14.155	976.456	739.053
107.089	14.160	975.589	738.355
108.103	14.150	974.897	737.724
109.118	14.038	973.681	736.240
110.133	14.047	973.037	735.728
111.147	14.027	972.095	734.860
112.162	13.978	971.456	734.097
113.176	14.092	970.296	733.658
114.191	14.191	969.472	733.409
115.206	14.132	968.845	732.610
116.220	14.097	967.986	731.741
117.235	14.107	967.398	731.277
118.249	14.175	966.296	730.675
119.264	14.106	965.268	729.532
120.279	14.034	964.477	728.555
121.293	14.143	963.755	728.423
122.308	14.167	962.954	727.858
123.322	14.141	962.233	727.134
124.337	14.119	961.131	726.141
125.352	13.987	960.145	724.754
126.366	14.146	958.582	724.204
127.381	14.067	958.112	723.441
128.395	14.085	957.014	722.625
129.410	14.046	956.155	721.742
130.424	14.141	954.936	721.172
131.439	14.020	954.376	720.161
132.454	14.076	953.519	719.694
133.468	14.078	953.303	719.473
134.483	14.091	952.013	718.495
135.497	14.101	951.327	717.955
136.512	14.171	950.444	717.527
137.527	14.062	949.967	716.633
138.541	14.028	949.235	715.871
139.556	14.266	948.156	716.019
140.570	14.107	947.829	715.024
141.585	14.188	946.532	714.329
142.600	14.124	946.704	714.123
143.614	14.273	945.147	713.525
144.629	14.226	944.571	712.824
145.643	14.251	944.472	712.794
146.658	14.365	943.043	712.138
147.673	14.225	942.395	710.991
148.687	14.283	941.038	710.150
149.702	14.248	940.436	709.483
150.716	14.253	939.580	708.796
151.731	14.230	938.581	707.881
152.746	14.250	937.970	707.444
153.760	14.191	937.270	706.605
154.775	14.190	936.614	706.040
155.789	14.188	935.902	705.433
156.804	14.332	934.931	705.250
157.819	14.311	934.233	704.572
158.833	14.307	933.537	703.968
159.848	14.513	932.738	704.171
160.862	14.434	932.403	703.522
161.877	14.347	931.545	702.449
162.892	14.428	930.922	702.256
163.906	14.406	929.866	701.305
164.921	14.471	929.316	701.101
165.935	14.211	928.634	699.435
166.950	14.239	927.474	698.614
167.964	14.248	926.403	697.786
168.979	14.382	925.340	697.481
169.994	14.343	924.619	696.715
171.008	14.414	923.580	696.167
172.023	14.536	922.899	696.101
173.037	14.520	922.239	695.475
174.052	14.403	921.685	694.507
175.067	14.500	920.622	694.051
176.081	14.419	920.272	693.386
177.096	14.389	919.166	692.370
178.110	14.508	918.201	692.074
179.125	14.360	917.817	691.109
180.140	14.548	916.569	690.885
181.154	14.488	916.460	690.496
182.169	14.371	915.943	689.561
183.183	14.518	915.130	689.494
184.198	14.557	914.347	689.006
185.213	14.672	913.441	688.737
186.227	14.787	913.038	688.846
187.242	14.471	912.627	687.172
188.256	14.644	912.112	687.434
189.271	14.668	911.029	686.658
190.286	14.681	910.320	686.114
191.300	14.649	909.690	685.447
192.315	14.561	909.096	684.580
193.329	14.525	908.524	683.938
194.344	14.596	907.543	683.433
195.359	14.437	907.240	682.491
196.373	14.566	906.611	682.487
197.388	14.553	906.037	681.939
198.402	14.685	905.253	681.830
199.417	14.785	904.872	681.892
200.432	14.716	904.613	681.354
201.446	14.850	903.722	681.167
202.461	14.842	903.566	680.958
203.475	14.934	902.833	680.718
204.490	14.981	902.096	680.294
205.504	15.004	901.410	679.809
206.519	14.867	900.830	678.759
207.534	14.917	899.518	677.911
208.548	14.950	898.767	677.420
209.563	14.974	898.369	677.156
210.577	15.006	897.955	676.911
211.592	14.961	897.338	676.204
212.607	15.050	896.700	676.025
213.621	15.061	895.686	675.244
214.636	14.957	895.486	674.613
215.650	15.028	894.728	674.269
216.665	14.961	894.478	673.751
217.680	15.009	893.871	673.427
218.694	15.019	893.138	672.857
219.709	15.068	892.690	672.658
220.723	14.981	892.390	672.021
221.738	15.025	891.315	671.332
222.753	15.067	890.658	670.943
223.767	15.105	889.789	670.383
224.782	15.225	888.943	670.163
225.796	15.148	888.444	669.422
226.811	15.190	887.674	668.950
227.826	15.242	887.056	668.631
228.840	15.134	886.770	667.927
229.855	15.193	885.992	667.518
230.869	15.207	885.192	666.910
231.884	15.164	884.420	666.099
232.899	15.209	883.944	665.861
233.913	15.097	883.454	664.989
234.928	15.156	882.564	664.492
235.942	15.236	881.423	663.894
236.957	15.181	881.100	663.373
237.972	15.281	880.607	663.339
238.986	15.233	879.983	662.621
240.001	15.324	878.771	662.009
241.015	15.263	878.480	661.489
242.030	15.406	877.683	661.395
243.045	15.354	877.153	660.732
244.059	15.493	876.369	660.629
245.074	15.478	875.893	660.153
246.088	15.400	875.067	659.167
247.103	15.403	874.783	658.905
248.117	15.396	874.075	658.288
249.132	15.418	873.647	657.993
250.147	15.445	873.052	657.591
251.161	15.554	872.172	657.296
252.176	15.636	871.750	657.240
253.190	15.495	871.264	656.268
254.205	15.764	870.198	656.454
255.220	15.617	869.639	655.401
256.234	15.838	869.063	655.770
257.249	15.724	868.452	654.810
258.263	15.651	868.210	654.286
259.278	15.754	867.438	654.044
260.293	15.669	867.246	653.510
261.307	15.821	866.472	653.460
262.322	15.860	865.436	652.771
263.336	15.785	865.230	652.267
264.351	15.876	864.809	652.247
265.366	15.903	863.713	651.466
266.380	15.841	863.462	650.981
267.395	15.834	863.098	650.621
268.409	15.847	862.099	649.860
269.424	15.887	861.523	649.524
270.439	15.923	860.565	648.884
271.453	15.821	860.055	648.049
272.468	16.022	858.809	647.825
273.482	15.707	858.777	646.530
274.497	15.921	858.025	646.729
275.512	15.999	857.213	646.360
276.526	15.701	856.546	644.658
277.541	15.934	855.931	645.031
278.555	16.033	855.266	644.851
279.570	15.884	854.936	643.976
280.585	16.066	854.513	644.295
281.599	16.154	853.473	643.791
282.614	16.043	853.073	643.009
283.628	16.211	852.433	643.110
284.643	16.213	851.806	642.585
285.657	16.120	851.277	641.775
286.672	16.103	850.640	641.176
287.687	16.075	850.252	640.720
288.701	16.242	849.927	641.051
289.716	16.124	849.076	639.906
290.730	16.148	848.559	639.552
291.745	16.306	847.643	639.401
292.760	16.202	847.523	638.860
293.774	16.286	846.930	638.674
294.789	16.287	846.232	638.096
295.803	16.397	845.367	637.801
296.818	16.296	845.315	637.327
297.833	16.091	844.849	636.145
298.847	16.323	843.706	636.103
299.862	16.274	843.115	635.417
300.876	16.274	842.559	634.940
301.891	16.477	841.537	634.877
302.906	16.370	841.169	634.140
303.920	16.576	840.394	634.274
304.935	16.596	839.510	633.623
305.949	16.475	839.482	633.096
306.964	16.450	838.726	632.373
307.979	16.436	838.241	631.902
308.993	16.504	837.476	631.522
310.008	16.550	837.137	631.382
311.022	16.548	836.421	630.781
312.037	16.529	836.256	630.528
313.052	16.622	835.296	630.095
314.066	16.548	834.936	629.492
315.081	16.596	834.302	629.137
316.095	16.518	833.912	628.496
317.110	16.506	833.230	627.883
318.125	16.588	832.515	627.591
319.139	16.605	832.066	627.260
320.154	16.546	831.914	626.875
321.168	16.671	830.766	626.416
322.183	16.568	830.889	626.073
323.197	16.564	830.325	625.578
324.212	16.797	829.470	625.736
325.227	16.668	829.007	624.856
326.241	16.746	828.742	624.890
327.256	16.897	827.587	624.518
328.270	16.663	827.448	623.498
329.285	16.625	827.213	623.126
330.300	16.686	826.116	622.467
331.314	16.505	825.790	621.502
332.329	16.666	825.372	621.723
333.343	16.750	824.674	621.450
334.358	16.904	823.658	621.194
335.373	16.875	823.396	620.837
336.387	16.937	822.876	620.615
337.402	16.894	822.234	619.920
338.416	16.786	822.075	619.351
339.431	16.910	821.506	619.319
340.446	17.053	820.542	619.060
341.460	17.003	819.968	618.389
342.475	17.043	819.936	618.457
343.489	16.963	819.131	617.504
344.504	17.140	818.682	617.756
345.519	17.157	818.021	617.262
346.533	17.184	817.394	616.834
347.548	17.258	816.663	616.496
348.562	17.152	816.269	615.759
349.577	17.259	815.173	615.266
350.592	17.137	815.432	614.966
351.606	17.118	815.125	614.610
352.621	17.060	814.727	614.047
353.635	17.058	814.315	613.673
354.650	17.198	813.834	613.763
355.665	17.130	813.101	612.908
356.679	17.196	812.753	612.829
357.694	17.271	812.169	612.607
358.708	17.169	811.653	611.798
359.723	17.265	811.243	611.778
360.738	17.294	810.579	611.327
361.752	17.280	810.350	611.051
362.767	17.385	809.993	611.103
363.781	17.410	809.393	610.689
364.796	17.283	809.201	610.034
365.810	17.307	808.727	609.706
366.825	17.319	808.195	609.295
367.840	17.545	807.790	609.747
368.854	17.513	807.499	609.359
369.869	17.470	806.972	608.751
370.883	17.523	806.206	608.310
371.898	17.536	805.446	607.728
372.913	17.489	805.561	607.593
373.927	17.455	804.649	606.732
374.942	17.519	804.198	606.565
375.956	17.626	803.436	606.319
376.971	17.632	803.099	606.029
377.986	17.641	802.556	605.600
379.000	17.780	801.829	605.490
380.015	17.709	800.970	604.538
381.029	17.726	800.723	604.356
382.044	17.798	800.090	604.080
383.059	17.654	800.053	603.491
384.073	17.791	799.144	603.235
385.088	17.790	798.611	602.778
386.102	17.732	798.206	602.211
387.117	17.627	797.781	601.468
388.132	17.621	797.498	601.181
389.146	17.762	796.874	601.153
390.161	17.764	796.561	600.870
391.175	17.673	796.296	600.296
392.190	17.756	795.492	599.929
393.205	17.756	795.302	599.733
394.219	17.794	794.949	599.548
395.234	17.791	794.232	598.943
396.248	17.787	793.610	598.407
397.263	17.862	792.966	598.133
398.278	17.751	792.852	597.603
399.292	17.762	792.519	597.339
400.307	17.735	792.169	596.926
401.321	17.901	791.182	596.713
402.336	17.816	790.700	595.998
403.350	18.029	790.692	596.684
404.365	17.987	790.057	596.004
405.380	17.956	789.721	595.590
406.394	17.810	789.445	594.819
407.409	17.812	789.318	594.680
408.423	18.060	788.306	594.727
409.438	18.000	787.954	594.200
410.453	18.101	787.602	594.234
411.467	18.134	786.925	593.784
412.482	18.162	786.750	593.697
413.496	18.109	786.234	593.072
414.511	18.186	785.885	593.025
415.526	18.068	785.607	592.350
416.540	18.068	785.538	592.246
417.555	18.300	784.685	592.356
418.569	18.198	784.304	591.661
419.584	18.346	783.644	591.625
420.599	18.292	783.341	591.155
421.613	110.953	1290.587	1468.533
422.628	95.132	1364.456	1468.638
