DTS Sentinel unit serial number:	SN413079Multiplexer serial number:	ORYXHardware model number:	OX4-SRSoftware version number:	ORYX F/W v4.00 Oryx Data Collector v3.7.2.0data status	okinstallation	princeton_trtdifferential loss correction	single-endedforward channel	channel 3reverse channel	N/Adate	2019/09/10time	18:42:11forward acquisition time	60.00reverse acquisition time	0.00gamma	496.2192k internal	0.2309k external	0.2309temperature offset calibration	0.9913default loss term (dB/km)	0.3790temperature slope calibration	1.0000multiplexer offset coefficient	1.0000multiplexer slope coefficient	1.0000fibre end	0.00T internal ref (°C)	35.34T ext. ref 1 (°C)	-0.39T ext. ref 2 (°C)	27.39length (m)	temperature (°C)	Stokes	anti-Stokes-747.200	381.039	0.030	0.062
-746.185	249.056	-0.183	0.315
-745.171	134.318	0.079	0.104
-744.156	-176.580	-0.398	0.010
-743.142	-182.491	0.494	-0.009
-742.127	-200.000	0.094	0.507
-741.112	-63.934	-0.282	0.117
-740.098	-200.000	-0.015	-0.206
-739.083	102.828	0.149	-0.177
-738.069	-97.469	0.225	-0.060
-737.054	-200.000	0.014	-0.250
-736.039	0.177	-0.233	0.169
-735.025	-200.000	0.013	0.235
-734.010	-200.000	-0.010	-0.344
-732.996	356.352	0.100	-0.203
-731.981	-88.539	-0.249	-0.075
-730.966	89.418	0.080	-0.091
-729.952	-166.564	-0.165	-0.007
-728.937	-140.089	0.493	-0.053
-727.923	32.689	0.137	0.120
-726.908	25.037	-0.167	-0.140
-725.894	800.000	0.080	-0.310
-724.879	-200.000	0.015	0.215
-723.864	800.000	-0.032	-0.115
-722.850	14.840	-0.205	-0.163
-721.835	-93.200	-0.030	0.009
-720.821	-64.125	-0.121	0.050
-719.806	800.000	-0.019	0.082
-718.791	141.102	-0.075	0.101
-717.777	621.604	-0.067	-0.171
-716.762	-200.000	0.051	0.268
-715.748	267.670	0.138	-0.244
-714.733	-122.946	-0.229	-0.037
-713.718	-200.000	-0.014	0.158
-712.704	-108.342	-0.217	-0.048
-711.689	-200.000	-0.081	-0.359
-710.675	-47.950	-0.113	-0.056
-709.660	115.437	0.330	-0.409
-708.645	800.000	0.040	0.138
-707.631	-94.102	0.165	-0.046
-706.616	119.655	-0.084	0.106
-705.602	394.901	0.019	0.041
-704.587	-179.512	0.335	-0.007
-703.572	48.525	0.184	0.175
-702.558	800.000	-0.031	0.102
-701.543	-151.835	0.267	0.020
-700.529	-128.757	0.162	0.023
-699.514	-115.799	0.231	0.044
-698.499	107.612	0.103	-0.125
-697.485	523.448	0.080	0.191
-696.470	-9.317	-0.115	-0.078
-695.456	68.029	0.037	-0.039
-694.441	-200.000	-0.158	-0.000
-693.426	3.803	0.135	-0.100
-692.412	-200.000	-0.016	0.090
-691.397	-119.569	-0.077	-0.014
-690.383	110.606	-0.141	0.172
-689.368	37.567	-0.224	-0.201
-688.354	30.319	-0.072	0.063
-687.339	-69.114	0.433	0.169
-686.324	28.398	-0.147	0.126
-685.310	-200.000	0.013	-0.188
-684.295	-200.000	-0.313	0.001
-683.281	-62.945	-0.186	-0.078
-682.266	-145.262	0.244	0.022
-681.251	241.912	0.093	-0.157
-680.237	-27.791	0.018	-0.011
-679.222	-1.308	-0.140	0.100
-678.208	-45.433	-0.575	0.289
-677.193	2.877	0.306	0.225
-676.178	-41.950	-0.157	0.082
-675.164	-63.162	-0.204	0.085
-674.149	104.680	0.175	-0.209
-673.135	-200.000	-0.017	-0.338
-672.120	-147.962	0.028	-0.002
-671.105	-166.426	0.178	0.008
-670.091	-43.911	0.232	0.118
-669.076	-200.000	-0.032	-0.186
-668.062	-119.663	-0.262	0.046
-667.047	-71.020	-0.224	-0.085
-666.032	645.154	-0.092	-0.239
-665.018	-14.445	-0.270	-0.176
-664.003	411.304	-0.098	0.210
-662.989	800.000	0.043	-0.173
-661.974	-90.586	-0.177	-0.052
-660.959	169.552	-0.232	0.336
-659.945	69.396	0.049	0.051
-658.930	-91.056	-0.033	0.010
-657.916	-63.670	0.061	-0.025
-656.901	75.700	0.048	0.051
-655.886	-200.000	0.012	-0.141
-654.872	-200.000	-0.039	0.309
-653.857	-200.000	0.036	0.414
-652.843	-127.057	-0.122	-0.018
-651.828	-109.796	-0.093	-0.020
-650.814	150.611	0.055	0.076
-649.799	-200.000	0.066	0.382
-648.784	42.193	0.141	-0.130
-647.770	-54.804	-0.188	-0.086
-646.755	-200.000	0.010	-0.142
-645.741	-200.000	-0.007	-0.197
-644.726	-200.000	0.034	-0.212
-643.711	-96.317	0.195	0.052
-642.697	26.401	0.143	-0.121
-641.682	-165.211	-0.292	0.013
-640.668	-200.000	0.107	0.511
-639.653	4.529	-0.029	-0.021
-638.638	-200.000	0.051	-0.280
-637.624	-34.657	-0.250	-0.138
-636.609	19.445	0.108	0.088
-635.595	219.321	-0.062	-0.100
-634.580	-91.891	0.340	-0.098
-633.565	-138.859	0.205	-0.023
-632.551	32.821	0.010	-0.009
-631.536	-123.071	0.244	-0.040
-630.522	70.349	0.188	0.197
-629.507	389.976	-0.026	-0.054
-628.492	-200.000	0.004	-0.026
-627.478	-157.258	-0.187	-0.011
-626.463	-42.135	-0.347	0.180
-625.449	-105.261	-0.102	-0.024
-624.434	124.033	0.156	0.198
-623.419	800.000	0.078	0.303
-622.405	-200.000	-0.026	-0.172
-621.390	-41.178	0.176	-0.092
-620.376	800.000	0.050	0.141
-619.361	106.993	-0.371	0.445
-618.346	-171.664	0.218	-0.007
-617.332	-175.296	0.060	-0.002
-616.317	72.438	-0.082	-0.086
-615.303	464.128	-0.072	0.162
-614.288	-11.394	0.182	-0.121
-613.273	-200.000	-0.021	-0.150
-612.259	-200.000	0.023	-0.269
-611.244	-90.409	-0.100	-0.029
-610.230	-200.000	0.308	0.000
-609.215	38.411	-0.073	-0.066
-608.201	-200.000	0.013	-0.174
-607.186	-200.000	-0.060	-0.279
-606.171	-108.663	-0.029	-0.006
-605.157	-57.198	-0.220	0.098
-604.142	800.000	-0.088	0.293
-603.128	-66.563	0.197	0.079
-602.113	-200.000	0.031	-0.338
-601.098	110.472	-0.147	0.179
-600.084	800.000	0.041	-0.120
-599.069	-106.192	-0.151	0.034
-598.055	-200.000	0.018	0.212
-597.040	-27.825	-0.274	0.161
-596.025	62.831	-0.189	0.191
-595.011	-200.000	-0.036	0.445
-593.996	-81.658	0.158	0.052
-592.982	-200.000	-0.041	-0.247
-591.967	297.609	-0.080	-0.148
-590.952	89.318	0.203	0.229
-589.938	110.008	0.126	0.153
-588.923	28.861	-0.249	-0.213
-587.909	-38.451	0.221	-0.118
-586.894	144.599	-0.072	-0.098
-585.879	0.109	0.307	-0.221
-584.865	-200.000	0.049	-0.319
-583.850	-73.765	0.169	-0.062
-582.836	683.053	-0.076	0.200
-581.821	305.188	-0.156	0.293
-580.806	-200.000	-0.048	0.360
-579.792	-200.000	-0.074	0.423
-578.777	-57.585	-0.215	0.095
-577.763	502.871	0.050	0.117
-576.748	-200.000	0.011	-0.087
-575.733	-200.000	0.010	0.102
-574.719	-200.000	0.034	-0.295
-573.704	800.000	0.051	0.185
-572.690	-200.000	0.018	0.387
-571.675	-125.919	0.235	-0.036
-570.661	-117.709	-0.086	0.016
-569.646	-129.426	-0.227	0.032
-568.631	250.444	0.040	0.069
-567.617	-75.884	-0.083	0.030
-566.602	-149.232	0.359	0.029
-565.588	800.000	-0.081	-0.249
-564.573	175.114	-0.088	-0.129
-563.558	-58.014	0.171	-0.075
-562.544	-150.401	0.258	0.020
-561.529	800.000	0.044	0.188
-560.515	-114.695	-0.109	0.021
-559.500	-136.357	-0.226	0.027
-558.485	746.163	-0.134	-0.364
-557.471	558.780	-0.053	-0.129
-556.456	157.381	-0.133	-0.186
-555.442	-122.873	0.459	-0.075
-554.427	-123.263	0.205	0.033
-553.412	-49.113	-0.073	-0.035
-552.398	733.241	-0.127	-0.343
-551.383	203.477	0.074	-0.115
-550.369	38.771	0.149	0.134
-549.354	50.905	0.062	-0.059
-548.339	-44.627	0.111	-0.056
-547.325	76.057	-0.170	-0.182
-546.310	-65.163	-0.178	0.072
-545.296	-200.000	-0.020	-0.176
-544.281	227.343	-0.257	0.421
-543.266	148.027	0.155	0.211
-542.252	248.815	0.191	0.326
-541.237	800.000	-0.039	0.142
-540.223	-136.715	-0.374	-0.044
-539.208	-118.724	-0.150	-0.027
-538.193	-26.283	0.020	-0.012
-537.179	739.886	-0.095	0.258
-536.164	-98.163	-0.116	-0.030
-535.150	116.120	0.149	0.184
-534.135	-51.066	0.044	0.021
-533.121	-137.875	-0.333	-0.038
-532.106	-93.708	-0.258	0.072
-531.091	-160.049	0.114	-0.006
-530.077	113.729	0.280	-0.342
-529.062	-173.511	-0.235	0.007
-528.048	800.000	-0.131	-0.384
-527.033	566.815	0.055	0.134
-526.018	800.000	0.072	0.291
-525.004	52.385	-0.273	-0.262
-523.989	285.130	0.134	0.244
-522.975	800.000	0.029	0.113
-521.960	44.280	0.084	-0.077
-520.945	26.037	0.221	0.185
-519.931	-200.000	-0.036	-0.285
-518.916	66.345	0.138	-0.141
-517.902	-36.143	0.215	-0.117
-516.887	19.356	0.152	0.123
-515.872	-18.912	-0.054	0.034
-514.858	149.265	0.097	0.132
-513.843	-67.911	-0.249	0.098
-512.829	-135.705	0.138	-0.016
-511.814	-200.000	-0.002	0.156
-510.799	-48.673	-0.197	-0.095
-509.785	800.000	-0.035	-0.103
-508.770	-23.983	0.269	-0.162
-507.756	800.000	-0.175	-0.514
-506.741	3.341	-0.214	-0.157
-505.726	247.317	-0.052	-0.088
-504.712	-200.000	-0.034	-0.154
-503.697	-119.151	0.071	0.012
-502.683	21.153	0.170	0.139
-501.668	-11.619	-0.091	-0.060
-500.653	-81.353	-0.135	-0.045
-499.639	254.362	-0.040	-0.068
-498.624	800.000	-0.028	0.077
-497.610	800.000	0.086	0.242
-496.595	53.988	-0.183	-0.177
-495.581	-200.000	0.018	-0.281
-494.566	-200.000	0.023	-0.343
-493.551	-40.741	0.093	-0.048
-492.537	-68.375	-0.169	-0.066
-491.522	140.860	0.167	0.222
-490.508	-141.975	0.300	0.030
-489.493	-146.113	0.163	-0.014
-488.478	130.656	0.021	0.027
-487.464	-0.349	0.230	0.164
-486.449	339.426	0.053	-0.103
-485.435	-27.475	-0.341	-0.199
-484.420	-200.000	-0.027	0.248
-483.405	123.592	-0.053	0.066
-482.391	-79.038	0.118	0.040
-481.376	-56.835	-0.227	-0.101
-480.362	-200.000	-0.037	-0.218
-479.347	800.000	-0.076	-0.224
-478.332	122.338	0.113	0.141
-477.318	-23.830	0.283	-0.171
-476.303	-200.000	-0.009	-0.317
-475.289	261.288	-0.122	-0.212
-474.274	-20.536	-0.412	-0.254
-473.259	-67.449	0.159	0.063
-472.245	35.434	-0.251	0.222
-471.230	9.480	0.225	0.172
-470.216	-56.202	0.455	0.203
-469.201	172.748	-0.029	0.043
-468.186	-200.000	0.001	-0.316
-467.172	800.000	-0.035	0.107
-466.157	24.269	-0.076	0.063
-465.143	-7.897	0.133	0.090
-464.128	-98.835	0.297	0.076
-463.113	-157.079	0.160	0.010
-462.099	-200.000	0.085	-0.381
-461.084	4.563	-0.224	-0.165
-460.070	6.222	0.130	-0.097
-459.055	-49.881	-0.131	-0.063
-458.040	-3.886	0.112	-0.078
-457.026	-110.275	-0.220	0.046
-456.011	-43.106	-0.102	-0.052
-454.997	-136.265	0.111	0.013
-453.982	-200.000	-0.004	-0.132
-452.968	180.297	-0.120	0.176
-451.953	112.329	-0.117	-0.142
-450.938	-23.651	0.114	0.069
-449.924	246.936	-0.076	0.129
-448.909	-35.015	-0.131	-0.072
-447.895	-189.680	-0.451	-0.005
-446.880	-200.000	-0.032	0.191
-445.865	183.716	-0.046	-0.069
-444.851	650.212	0.052	0.134
-443.836	-142.588	-0.259	0.026
-442.822	67.453	-0.069	0.071
-441.807	-21.428	-0.212	-0.130
-440.792	-200.000	0.033	-0.168
-439.778	-199.100	0.302	-0.002
-438.763	44.451	-0.151	0.139
-437.749	-200.000	-0.145	0.000
-436.734	137.689	0.406	-0.534
-435.719	-200.000	0.021	-0.097
-434.705	-114.960	-0.082	0.016
-433.690	-161.862	0.213	0.011
-432.676	61.443	0.049	-0.049
-431.661	800.000	-0.050	0.143
-430.646	13.960	-0.175	0.137
-429.632	-148.636	0.142	-0.012
-428.617	132.472	0.084	-0.108
-427.603	-126.394	-0.196	0.029
-426.588	220.993	-0.201	-0.324
-425.573	36.920	0.291	-0.258
-424.559	218.542	0.078	0.126
-423.544	-74.242	0.179	0.065
-422.530	-200.000	-0.025	0.131
-421.515	-50.137	-0.055	-0.026
-420.500	-109.323	0.163	0.035
-419.486	-23.766	-0.320	0.192
-418.471	-107.950	-0.250	-0.054
-417.457	63.395	0.207	-0.208
-416.442	190.918	-0.188	-0.283
-415.428	186.609	0.167	-0.249
-414.413	-71.843	0.313	0.117
-413.398	-153.471	0.262	0.018
-412.384	132.909	-0.119	-0.155
-411.369	-111.083	-0.113	0.023
-410.355	-200.000	-0.033	0.230
-409.340	263.018	0.203	0.353
-408.325	-200.000	0.006	-0.053
-407.311	134.400	0.069	-0.090
-406.296	-53.985	-0.135	-0.061
-405.282	110.370	-0.129	0.156
-404.267	-200.000	-0.035	0.327
-403.252	-5.285	0.337	0.232
-402.238	135.757	0.091	-0.119
-401.223	-87.584	0.263	0.080
-400.209	46.131	-0.231	0.214
-399.194	-200.000	-0.011	-0.135
-398.179	-200.000	-0.015	-0.144
-397.165	48.546	0.057	-0.054
-396.150	-200.000	0.004	0.242
-395.136	142.272	0.133	-0.177
-394.121	-48.685	0.248	0.119
-393.106	-151.171	-0.164	0.012
-392.092	203.908	-0.056	0.087
-391.077	800.000	0.041	0.129
-390.063	353.363	-0.162	0.323
-389.048	91.511	-0.035	0.039
-388.033	800.000	-0.034	0.127
-387.019	800.000	-0.087	-0.280
-386.004	-125.111	0.324	0.050
-384.990	-200.000	0.003	-0.318
-383.975	222.013	-0.137	-0.221
-382.960	123.340	-0.111	-0.140
-381.946	20.138	0.178	0.144
-380.931	139.750	0.073	0.096
-379.917	800.000	0.101	-0.351
-378.902	-200.000	0.012	0.217
-377.888	8.042	0.176	0.132
-376.873	-200.000	-0.044	-0.313
-375.858	85.202	-0.241	0.265
-374.844	-116.494	-0.239	0.044
-373.829	-172.355	0.292	0.009
-372.815	-200.000	0.022	-0.105
-371.800	-147.111	0.233	-0.020
-370.785	-98.777	0.440	-0.112
-369.771	-200.000	-0.011	-0.056
-368.756	105.555	-0.040	-0.047
-367.742	-65.297	0.130	-0.053
-366.727	204.928	-0.312	-0.485
-365.712	-116.782	-0.156	0.029
-364.698	-156.038	0.178	-0.011
-363.683	-27.717	-0.252	0.146
-362.669	-176.059	-0.331	-0.009
-361.654	-200.000	0.020	-0.163
-360.639	9.522	-0.097	-0.074
-359.625	-102.262	0.193	-0.046
-358.610	206.894	-0.065	0.102
-357.596	51.913	0.165	-0.158
-356.581	115.035	-0.097	0.118
-355.566	-61.579	-0.301	0.127
-354.552	-200.000	0.002	0.010
-353.537	-15.465	0.178	-0.114
-352.523	47.390	-0.176	0.164
-351.508	-29.035	0.089	0.051
-350.493	800.000	0.098	-0.289
-349.479	-200.000	0.036	-0.242
-348.464	794.066	-0.110	-0.304
-347.450	295.721	-0.062	-0.114
-346.435	-200.000	0.014	0.140
-345.420	-56.522	-0.277	-0.123
-344.406	-200.000	-0.026	0.305
-343.391	256.567	-0.160	-0.275
-342.377	-200.000	-0.013	0.199
-341.362	-120.301	0.245	0.042
-340.348	122.224	-0.055	0.069
-339.333	110.931	0.156	-0.188
-338.318	800.000	-0.086	0.373
-337.304	-123.379	0.213	0.034
-336.289	298.727	0.131	0.240
-335.275	800.000	0.025	0.080
-334.260	-112.906	-0.382	0.076
-333.245	-72.089	0.074	0.027
-332.231	-5.547	0.211	0.145
-331.216	800.000	-0.086	0.374
-330.202	-136.699	0.188	-0.022
-329.187	70.799	0.166	0.172
-328.172	800.000	0.083	-0.297
-327.158	-118.279	0.338	-0.060
-326.143	-82.674	-0.312	-0.101
-325.129	25.106	-0.210	-0.174
-324.114	-105.555	-0.248	0.056
-323.099	-200.000	0.004	0.137
-322.085	568.218	-0.079	0.193
-321.070	796.876	0.043	0.117
-320.056	514.900	-0.081	-0.190
-319.041	-200.000	0.020	-0.142
-318.026	-23.363	0.129	0.077
-317.012	-100.951	0.323	0.079
-315.997	-26.061	-0.403	0.237
-314.983	-85.274	-0.431	0.134
-313.968	-46.658	-0.173	0.084
-312.953	-113.716	-0.136	0.027
-311.939	800.000	-0.099	-0.426
-310.924	-39.897	-0.326	0.170
-309.910	-68.514	-0.158	-0.061
-308.895	-200.000	-0.027	0.191
-307.880	522.563	-0.095	-0.224
-306.866	-39.153	0.171	-0.090
-305.851	-200.000	-0.037	0.389
-304.837	-28.214	-0.076	0.044
-303.822	800.000	-0.049	-0.163
-302.807	-85.971	-0.235	0.073
-301.793	-68.901	0.171	-0.066
-300.778	-144.954	0.148	-0.014
-299.764	79.317	0.110	0.118
-298.749	-200.000	0.028	0.200
-297.735	-200.000	-0.057	0.321
-296.720	-85.336	-0.163	-0.051
-295.705	800.000	0.035	0.131
-294.691	-0.613	-0.131	-0.093
-293.676	-200.000	0.004	0.308
-292.662	-46.297	-0.127	-0.063
-291.647	14.666	-0.133	0.104
-290.632	-121.970	-0.131	-0.022
-289.618	-200.000	-0.001	-0.036
-288.603	-140.959	0.296	-0.030
-287.589	149.685	-0.063	-0.085
-286.574	-13.948	-0.157	-0.101
-285.559	-200.000	0.016	0.128
-284.545	-15.610	-0.237	0.151
-283.530	-97.194	-0.223	-0.058
-282.516	17.829	0.392	-0.311
-281.501	-200.000	-0.008	0.275
-280.486	274.522	0.151	0.266
-279.472	-37.777	0.054	-0.029
-278.457	51.560	-0.030	0.028
-277.443	800.000	0.035	-0.102
-276.428	-122.072	-0.170	0.028
-275.413	-172.786	0.377	-0.012
-274.399	-56.123	-0.135	-0.060
-273.384	-15.274	0.085	-0.054
-272.370	-200.000	-0.009	-0.535
-271.355	64.793	0.195	-0.196
-270.340	-20.246	-0.084	-0.052
-269.326	-159.748	-0.235	0.013
-268.311	661.536	-0.134	-0.343
-267.297	800.000	-0.028	0.106
-266.282	-59.255	0.185	0.080
-265.267	-1.787	-0.135	0.095
-264.253	800.000	-0.064	-0.228
-263.238	119.343	0.145	0.179
-262.224	-200.000	0.026	0.269
-261.209	738.755	0.108	0.289
-260.195	-200.000	-0.034	0.226
-259.180	68.561	-0.136	-0.139
-258.165	333.384	0.179	-0.344
-257.151	-56.771	0.073	-0.032
-256.136	-187.275	0.243	-0.003
-255.122	-74.488	0.119	0.043
-254.107	-10.674	0.171	0.113
-253.092	259.281	0.058	-0.100
-252.078	91.088	0.230	-0.258
-251.063	-200.000	0.060	0.468
-250.049	439.351	-0.197	0.428
-249.034	-153.260	-0.045	0.003
-248.019	800.000	-0.011	0.035
-247.005	-79.756	-0.081	-0.027
-245.990	-66.443	0.240	-0.095
-244.976	-200.000	-0.034	0.338
-243.961	-4.872	0.084	0.058
-242.946	-38.305	-0.342	0.180
-241.932	-48.907	0.297	0.142
-240.917	-40.087	-0.153	0.079
-239.903	-200.000	-0.066	-0.408
-238.888	237.149	0.168	-0.277
-237.873	210.317	-0.191	-0.298
-236.859	193.171	-0.187	0.282
-235.844	27.671	0.139	0.116
-234.830	-59.589	-0.089	-0.038
-233.815	-66.551	0.308	0.122
-232.800	121.990	-0.159	0.198
-231.786	306.166	0.120	0.222
-230.771	-105.529	-0.191	0.043
-229.757	17.358	-0.196	-0.155
-228.742	-200.000	-0.115	-0.517
-227.727	98.926	-0.111	0.127
-226.713	74.072	-0.121	0.126
-225.698	431.901	0.088	0.189
-224.684	9.647	-0.253	0.191
-223.669	100.713	-0.101	0.117
-222.655	-37.355	0.113	-0.060
-221.640	234.437	0.275	-0.452
-220.625	90.789	-0.133	-0.148
-219.611	800.000	-0.082	0.344
-218.596	-43.755	-0.307	-0.154
-217.582	-18.111	0.034	0.021
-216.567	-200.000	0.012	0.109
-215.552	800.000	-0.056	0.180
-214.538	300.600	0.146	0.268
-213.523	-200.000	-0.120	-0.000
-212.509	-182.515	0.260	-0.005
-211.494	314.680	0.334	-0.626
-210.479	-200.000	-0.025	-0.285
-209.465	104.226	0.066	-0.078
-208.450	375.575	0.118	0.240
-207.436	-40.149	-0.119	-0.062
-206.421	-200.000	0.021	0.114
-205.406	-200.000	-0.074	-0.389
-204.392	-200.000	0.015	0.111
-203.377	9.740	0.276	0.208
-202.363	800.000	0.075	-0.241
-201.348	85.088	-0.104	0.114
-200.333	73.293	-0.072	-0.075
-199.319	500.849	-0.065	-0.149
-198.304	417.704	-0.138	0.293
-197.290	-56.996	-0.410	0.180
-196.275	174.536	0.093	-0.134
-195.260	-106.892	0.367	-0.081
-194.246	-200.000	-0.055	0.423
-193.231	-19.264	-0.211	0.130
-192.217	60.429	0.137	-0.135
-191.202	191.280	0.258	0.386
-190.187	258.982	-0.055	0.093
-189.173	-17.309	0.123	-0.077
-188.158	-200.000	-0.019	-0.088
-187.144	-200.000	-0.058	-0.258
-186.129	392.876	0.048	0.099
-185.114	75.943	0.136	0.143
-184.100	-200.000	-0.003	-0.194
-183.085	-84.644	0.101	0.032
-182.071	31.252	0.259	-0.221
-181.056	126.077	-0.083	0.104
-180.042	619.886	0.150	-0.374
-179.027	170.341	-0.151	-0.215
-178.012	324.481	-0.078	-0.149
-176.998	70.463	-0.157	-0.162
-175.983	-200.000	-0.002	0.124
-174.969	-51.755	0.407	-0.188
-173.954	-151.835	-0.051	-0.004
-172.939	589.996	0.084	-0.206
-171.925	78.230	-0.291	-0.309
-170.910	81.290	0.093	0.100
-169.896	650.692	0.283	-0.720
-168.881	629.757	-0.029	0.072
-167.866	-3.355	-0.195	0.135
-166.852	-200.000	0.034	0.350
-165.837	-84.317	-0.061	0.019
-164.823	-200.000	0.013	0.222
-163.808	-63.561	-0.122	0.050
-162.793	-38.949	0.096	0.050
-161.779	800.000	0.096	0.284
-160.764	257.753	0.116	0.197
-159.750	-200.000	0.005	0.302
-158.735	-15.252	0.081	0.051
-157.720	161.083	-0.257	0.357
-156.706	-159.152	0.116	0.007
-155.691	-200.000	-0.019	0.190
-154.677	-98.963	-0.251	0.063
-153.662	-200.000	-0.028	-0.240
-152.647	71.729	-0.093	-0.096
-151.633	-163.834	0.275	-0.013
-150.618	15.606	-0.089	0.069
-149.604	-107.991	0.344	-0.074
-148.589	99.763	0.164	0.188
-147.574	-27.690	0.221	0.127
-146.560	-118.478	0.114	-0.020
-145.545	11.812	0.435	-0.331
-144.531	-92.505	0.123	0.034
-143.516	800.000	0.018	-0.070
-142.502	-99.419	-0.348	-0.087
-141.487	-200.000	0.003	-0.083
-140.472	800.000	0.039	0.162
-139.458	-3.515	-0.154	-0.106
-138.443	215.263	0.228	-0.358
-137.429	-33.632	0.250	-0.137
-136.414	0.320	0.370	0.262
-135.399	-75.600	-0.217	-0.077
-134.385	-200.000	-0.058	0.271
-133.370	800.000	0.070	0.301
-132.356	-88.237	-0.437	-0.130
-131.341	-200.000	0.007	0.232
-130.326	68.917	0.174	0.177
-129.312	225.625	-0.057	0.091
-128.297	-93.413	0.299	-0.082
-127.283	-107.336	0.032	0.007
-126.268	610.119	0.118	0.291
-125.253	65.533	-0.135	-0.135
-124.239	-8.412	-0.093	-0.062
-123.224	-200.000	0.029	-0.333
-122.210	-93.174	-0.303	-0.084
-121.195	235.215	0.176	0.288
-120.180	161.820	-0.087	-0.121
-119.166	-12.584	0.313	-0.202
-118.151	-70.778	-0.128	-0.048
-117.137	800.000	-0.111	0.387
-116.122	-153.842	0.223	-0.015
-115.107	-38.606	-0.090	-0.047
-114.093	-52.229	-0.097	-0.045
-113.078	-50.051	0.151	-0.071
-112.064	134.314	0.088	-0.113
-111.049	-169.705	-0.393	0.014
-110.034	-15.400	-0.077	0.049
-109.020	143.779	0.111	-0.147
-108.005	236.140	-0.008	-0.013
-106.991	-84.578	0.350	-0.110
-105.976	800.000	-0.036	-0.138
-104.962	523.763	0.086	0.200
-103.947	12.497	0.163	-0.124
-102.932	477.559	0.044	-0.098
-101.918	-8.178	0.238	0.159
-100.903	-20.641	0.180	-0.109
-99.889	395.556	-0.108	-0.224
-98.874	800.000	-0.071	0.250
-97.859	800.000	-0.048	0.189
-96.845	-17.045	-0.118	0.074
-95.830	-155.515	-0.060	0.004
-94.816	16.798	-0.158	-0.123
-93.801	-41.018	-0.336	0.172
-92.786	327.419	0.143	0.272
-91.772	800.000	0.064	0.196
-90.757	-95.161	0.242	-0.065
-89.743	211.482	-0.087	-0.136
-88.728	294.389	0.012	0.021
-87.713	85.257	-0.032	0.035
-86.699	488.920	-0.087	0.196
-85.684	574.395	-0.093	-0.225
-84.670	-12.663	0.189	0.122
-83.655	-113.545	0.397	0.077
-82.640	-200.000	0.053	-0.260
-81.626	-20.217	0.261	0.159
-80.611	-200.000	0.014	-0.115
-79.597	800.000	0.090	-0.296
-78.582	-132.444	-0.164	0.021
-77.567	95.264	-0.151	0.170
-76.553	-200.000	-0.100	-0.502
-75.538	-116.320	0.393	0.072
-74.524	291.509	0.104	-0.188
-73.509	-200.000	-0.044	0.230
-72.494	376.626	0.166	-0.336
-71.480	-25.622	-0.029	-0.017
-70.465	-124.858	-0.185	-0.028
-69.451	1.689	0.123	-0.088
-68.436	-112.095	-0.291	-0.058
-67.422	-9.399	0.197	0.130
-66.407	540.889	0.075	0.176
-65.392	-106.084	-0.142	-0.031
-64.378	-42.283	0.076	0.039
-63.363	475.958	-0.110	0.245
-62.349	-200.000	0.002	-0.236
-61.334	140.307	-0.863	-1.127
-60.319	198.137	0.286	0.432
-59.305	399.279	-0.362	-0.750
-58.290	316.816	0.530	0.990
-57.276	800.000	0.565	1.743
-56.261	-200.000	98.719	557.299
-55.246	588.967	1399.992	3411.700
-54.232	182.665	2631.242	3838.568
-53.217	118.969	2215.875	2708.552
-52.203	45.663	1746.085	1595.398
-51.188	38.569	1554.170	1370.572
-50.173	35.953	1526.802	1328.370
-49.159	54.228	1578.610	1502.146
-48.144	58.050	1597.005	1546.406
-47.130	38.792	1551.119	1369.224
-46.115	35.620	1535.324	1333.261
-45.100	35.405	1531.982	1328.814
-44.086	35.362	1530.226	1326.938
-43.071	35.358	1528.623	1325.469
-42.057	35.230	1526.993	1323.119
-41.042	35.348	1524.802	1321.981
-40.027	35.281	1523.992	1320.768
-39.013	35.269	1522.623	1319.446
-37.998	35.268	1521.447	1318.368
-36.984	35.294	1520.469	1317.647
-35.969	35.259	1519.252	1316.300
-34.954	35.281	1517.577	1314.945
-33.940	35.317	1515.835	1313.632
-32.925	35.351	1514.649	1312.788
-31.911	35.405	1513.310	1311.940
-30.896	35.363	1511.891	1310.375
-29.881	35.448	1510.319	1309.536
-28.867	35.450	1509.177	1308.507
-27.852	35.422	1507.811	1307.081
-26.838	35.446	1506.422	1305.989
-25.823	35.451	1504.629	1304.421
-24.809	35.295	1503.242	1302.101
-23.794	35.456	1501.180	1301.358
-22.779	35.344	1500.726	1300.151
-21.765	35.417	1499.672	1299.683
-20.750	35.401	1498.207	1298.255
-19.736	35.325	1497.453	1297.032
-18.721	35.364	1496.196	1296.160
-17.706	35.294	1495.113	1294.698
-16.692	35.359	1493.836	1293.980
-15.677	35.357	1492.785	1293.004
-14.663	35.470	1491.399	1292.510
-13.648	35.259	1490.986	1290.680
-12.633	35.364	1489.696	1290.218
-11.619	35.333	1488.893	1289.263
-10.604	35.362	1488.010	1288.646
-9.590	35.321	1487.688	1288.038
-8.575	35.376	1486.380	1287.226
-7.560	35.373	1485.526	1286.413
-6.546	35.278	1484.909	1285.188
-5.531	35.160	1483.659	1283.269
-4.517	35.266	1483.047	1283.401
-3.502	35.332	1482.026	1282.901
-2.487	35.363	1480.684	1281.899
-1.473	35.349	1479.237	1280.501
-0.458	35.326	1477.990	1279.217
0.556	32.724	1468.097	1266.249
1.571	29.083	1440.508	1218.295
2.586	24.759	1375.526	1135.841
3.600	22.774	1291.083	1054.173
4.615	21.410	1244.870	1008.491
5.629	18.485	1188.900	946.927
6.644	8.937	1101.900	828.442
7.659	1.066	1058.638	756.661
8.673	-0.146	1052.923	746.490
9.688	-0.439	1050.457	743.221
10.702	-0.589	1048.267	740.862
11.717	-0.385	1046.430	740.509
12.731	2.718	1049.666	758.086
13.746	11.741	1063.479	813.017
14.761	17.673	1070.701	848.066
15.775	17.828	1069.230	847.596
16.790	17.504	1068.579	845.400
17.804	17.311	1067.337	843.384
18.819	17.003	1066.539	841.153
19.834	16.999	1066.184	840.780
20.848	17.063	1065.383	840.390
21.863	17.078	1064.974	840.067
22.877	16.976	1064.381	839.020
23.892	17.084	1063.847	839.058
24.907	16.926	1063.003	837.537
25.921	16.870	1062.559	836.836
26.936	16.892	1061.604	836.121
27.950	17.053	1060.012	835.584
28.965	16.885	1059.251	834.082
29.980	16.807	1057.783	832.472
30.994	16.819	1055.807	830.899
32.009	17.070	1054.729	831.209
33.023	17.092	1053.985	830.654
34.038	16.817	1053.064	828.515
35.053	16.915	1051.836	827.950
36.067	17.124	1050.966	828.212
37.082	17.141	1050.524	827.871
38.096	17.165	1049.328	826.974
39.111	17.155	1048.892	826.508
40.126	17.285	1047.885	826.275
41.140	17.248	1046.418	824.864
42.155	17.070	1044.692	822.568
43.169	16.798	1043.500	820.240
44.184	16.852	1042.577	819.707
45.199	16.994	1040.897	818.999
46.213	16.858	1040.202	817.722
47.228	16.728	1039.412	816.399
48.242	16.734	1038.169	815.384
49.257	16.691	1037.283	814.408
50.271	16.897	1036.192	814.469
51.286	17.046	1034.708	813.943
52.301	17.037	1034.294	813.502
53.315	17.042	1032.921	812.376
54.330	17.071	1032.329	811.979
55.344	17.036	1031.010	810.702
56.359	17.035	1030.248	810.027
57.374	17.066	1029.388	809.427
58.388	16.979	1028.259	808.053
59.403	16.961	1027.365	807.193
60.417	16.992	1026.858	806.868
61.432	16.881	1025.825	805.460
62.447	16.889	1025.328	805.037
63.461	16.912	1024.713	804.589
64.476	16.977	1023.708	804.039
65.490	16.944	1023.117	803.348
66.505	16.894	1021.907	802.088
67.520	16.943	1020.910	801.466
68.534	16.996	1020.008	800.939
69.549	16.870	1019.144	799.592
70.563	16.736	1017.854	797.879
71.578	16.563	1017.621	796.812
72.593	16.741	1016.522	796.717
73.607	16.664	1015.545	795.522
74.622	16.693	1014.149	794.493
75.636	16.909	1013.552	794.966
76.651	16.878	1013.007	794.324
77.666	16.821	1011.877	793.099
78.680	16.796	1011.300	792.462
79.695	16.720	1010.514	791.420
80.709	16.791	1009.899	791.201
81.724	16.713	1009.272	790.273
82.739	16.742	1008.576	789.795
83.753	16.742	1007.616	788.976
84.768	17.006	1006.489	789.251
85.782	17.140	1005.812	789.271
86.797	17.257	1004.660	788.841
87.812	17.160	1003.652	787.530
88.826	17.130	1002.602	786.499
89.841	17.080	1002.049	785.761
90.855	17.177	1000.949	785.281
91.870	17.194	1000.315	784.791
92.884	17.212	999.287	784.000
93.899	17.048	998.378	782.460
94.914	17.010	997.665	781.657
95.928	17.300	996.757	782.210
96.943	17.282	996.257	781.667
97.957	16.980	994.766	779.041
98.972	16.812	994.061	777.647
99.987	16.620	992.625	775.577
101.001	16.668	991.972	775.217
102.016	16.899	991.660	775.962
103.030	17.010	990.739	775.678
104.045	16.966	989.076	774.111
105.060	16.716	987.760	771.873
106.074	16.557	986.299	769.938
107.089	16.757	985.760	770.356
108.103	17.060	985.519	771.481
109.118	17.296	984.410	771.615
110.133	16.947	983.909	769.570
111.147	17.030	982.282	768.604
112.162	16.883	981.701	767.418
113.176	16.653	980.245	765.172
114.191	16.863	979.723	765.646
115.206	16.954	978.398	764.951
116.220	16.588	977.506	762.535
117.235	16.500	976.554	761.331
118.249	16.708	975.594	761.450
119.264	16.837	974.516	761.124
120.279	16.700	973.771	759.859
121.293	16.726	972.808	759.157
122.308	16.925	972.304	759.587
123.322	16.925	971.251	758.699
124.337	16.934	969.986	757.680
125.352	16.767	968.916	756.034
126.366	16.472	966.943	753.111
127.381	16.136	965.608	750.515
128.395	16.546	965.274	752.010
129.410	16.998	964.293	753.186
130.424	17.271	963.393	753.627
131.439	17.153	962.356	752.225
132.454	17.026	961.370	750.827
133.468	16.988	960.906	750.229
134.483	17.054	959.576	749.418
135.497	17.151	958.860	749.220
136.512	17.231	958.397	749.146
137.527	17.314	957.587	748.808
138.541	17.280	956.772	747.955
139.556	17.245	955.831	747.001
140.570	17.290	954.756	746.295
141.585	17.283	953.957	745.572
142.600	17.321	952.982	744.909
143.614	17.219	952.345	743.902
144.629	17.180	951.479	742.986
145.643	17.422	950.291	743.048
146.658	17.363	949.490	742.101
147.673	17.181	948.672	740.601
148.687	17.269	947.222	739.790
149.702	17.126	946.287	738.371
150.716	17.001	945.326	737.012
151.731	17.054	944.138	736.249
152.746	17.189	943.342	736.152
153.760	17.483	942.337	736.573
154.775	17.435	941.781	735.866
155.789	17.336	941.438	735.106
156.804	17.558	939.558	734.528
157.819	17.418	938.943	733.382
158.833	17.338	938.582	732.688
159.848	17.481	937.454	732.358
160.862	17.340	936.824	731.197
161.877	17.297	936.081	730.367
162.892	17.299	935.012	729.478
163.906	17.386	934.435	729.334
164.921	17.548	933.547	729.269
165.935	17.408	932.236	727.585
166.950	17.431	931.285	726.875
167.964	17.429	930.180	725.939
168.979	17.363	929.144	724.783
169.994	17.324	928.225	723.838
171.008	17.128	927.263	722.191
172.023	17.408	926.213	722.497
173.037	17.498	925.400	722.181
174.052	17.264	924.418	720.360
175.067	17.068	923.434	718.701
176.081	16.981	923.058	717.974
177.096	17.354	922.052	718.707
178.110	17.298	921.443	717.933
179.125	17.219	919.931	716.355
180.140	17.120	918.556	714.805
181.154	16.992	918.425	714.100
182.169	17.165	917.476	714.030
183.183	17.196	917.297	713.954
184.198	17.357	916.892	714.255
185.213	17.369	915.786	713.381
186.227	17.460	914.918	713.024
187.242	17.310	914.919	712.330
188.256	17.398	913.958	711.887
189.271	17.273	913.015	710.569
190.286	17.543	912.100	710.919
191.300	17.378	910.974	709.292
192.315	16.985	909.725	706.622
193.329	16.458	908.954	703.765
194.344	16.169	907.613	701.461
195.359	16.628	907.768	703.429
196.373	17.330	907.618	706.169
197.388	17.381	907.404	706.149
198.402	17.188	906.754	704.778
199.417	17.003	906.388	703.666
200.432	17.183	905.062	703.320
201.446	17.022	904.115	701.855
202.461	16.602	903.951	699.929
203.475	16.745	902.986	699.713
204.490	16.538	901.735	697.827
205.504	15.725	899.655	692.804
206.519	16.065	899.729	694.202
207.534	16.832	900.116	697.600
208.548	16.939	899.342	697.375
209.563	17.241	899.280	698.508
210.577	17.289	898.414	697.972
211.592	17.065	897.496	696.279
212.607	17.362	896.953	697.012
213.621	17.556	896.007	697.009
214.636	17.354	895.894	696.032
215.650	17.450	895.043	695.703
216.665	17.556	894.628	695.753
217.680	17.464	893.985	694.814
218.694	17.533	893.579	694.718
219.709	17.142	892.702	692.382
220.723	16.845	891.653	690.298
221.738	17.171	891.023	691.074
222.753	17.473	890.214	691.613
223.767	17.344	889.969	690.838
224.782	17.446	888.834	690.311
225.796	17.429	888.464	689.894
226.811	17.683	887.149	689.839
227.826	17.204	886.614	687.424
228.840	16.617	885.162	683.865
229.855	16.638	884.657	683.498
230.869	16.945	884.009	684.177
231.884	16.509	882.771	681.402
232.899	16.549	882.734	681.474
233.913	17.309	882.548	684.332
234.928	17.476	882.096	684.590
235.942	17.398	881.636	683.861
236.957	17.565	880.660	683.714
237.972	17.262	879.525	681.556
238.986	17.137	878.839	680.464
240.001	17.255	878.562	680.662
241.015	17.336	877.893	680.408
242.030	17.339	876.868	679.564
243.045	17.372	876.259	679.164
244.059	17.382	876.109	679.028
245.074	17.648	875.194	679.318
246.088	17.663	874.054	678.435
247.103	17.314	872.920	676.105
248.117	17.055	872.852	674.964
249.132	17.533	872.544	676.565
250.147	17.660	872.280	676.805
251.161	17.742	871.433	676.415
252.176	17.934	870.504	676.394
253.190	17.891	869.856	675.659
254.205	17.814	869.779	675.234
255.220	18.109	868.998	675.738
256.234	18.190	868.014	675.232
257.249	18.114	867.609	674.555
258.263	17.956	866.867	673.297
259.278	17.880	866.625	672.750
260.293	18.155	865.665	673.026
261.307	18.112	865.337	672.545
262.322	17.940	864.652	671.277
263.336	17.897	863.442	670.107
264.351	17.486	862.161	667.445
265.366	16.450	860.264	661.860
266.380	16.167	859.031	659.748
267.395	16.879	859.593	662.906
268.409	17.782	859.515	666.314
269.424	17.621	859.348	665.497
270.439	17.885	858.610	665.899
271.453	18.122	857.559	665.946
272.468	18.023	857.081	665.130
273.482	18.212	856.438	665.309
274.497	18.290	856.259	665.416
275.512	18.076	854.910	663.476
276.526	17.478	853.672	660.139
277.541	17.779	852.925	660.667
278.555	17.951	853.147	661.449
279.570	17.893	851.429	659.835
280.585	17.604	850.815	658.182
281.599	17.595	850.410	657.778
282.614	17.813	850.083	658.305
283.628	17.636	848.516	656.354
284.643	17.190	848.156	654.298
285.657	17.594	848.240	655.862
286.672	17.490	847.240	654.629
287.687	17.023	846.283	652.041
288.701	17.373	845.919	653.047
289.716	17.664	845.685	653.924
290.730	17.357	844.615	651.863
291.745	17.269	844.234	651.175
292.760	17.140	842.735	649.466
293.774	17.166	842.064	648.991
294.789	17.858	842.610	651.998
295.803	18.304	842.644	653.670
296.818	18.434	842.153	653.728
297.833	18.565	841.487	653.654
298.847	18.338	840.405	651.889
299.862	18.073	839.731	650.304
300.876	18.305	838.917	650.495
301.891	18.366	838.564	650.397
302.906	18.546	837.652	650.313
303.920	18.105	836.353	647.578
304.935	17.847	835.555	645.927
305.949	18.154	835.557	647.031
306.964	18.348	835.285	647.496
307.979	18.315	834.393	646.625
308.993	18.241	833.842	645.863
310.008	18.587	833.523	646.861
311.022	18.425	833.068	645.841
312.037	18.414	832.589	645.369
313.052	18.301	832.222	644.604
314.066	18.349	831.442	644.125
315.081	17.636	830.221	640.440
316.095	17.327	828.490	637.891
317.110	17.528	828.439	638.550
318.125	18.272	828.575	641.384
319.139	18.079	827.727	639.951
320.154	17.144	826.402	635.373
321.168	16.938	825.213	633.633
322.183	17.215	825.452	634.795
323.197	18.093	825.021	637.683
324.212	18.187	825.112	638.048
325.227	18.375	825.071	638.663
326.241	18.419	824.513	638.337
327.256	18.466	823.670	637.803
328.270	18.329	823.485	637.095
329.285	18.096	823.303	636.030
330.300	18.259	822.051	635.613
331.314	18.087	821.114	634.195
332.329	18.062	820.392	633.486
333.343	18.265	820.102	633.959
334.358	18.328	819.972	634.037
335.373	18.457	818.736	633.502
336.387	18.475	818.248	633.134
337.402	18.620	818.161	633.548
338.416	18.875	817.112	633.620
339.431	18.732	816.670	632.692
340.446	18.647	816.079	631.864
341.460	18.865	815.199	631.931
342.475	18.856	814.553	631.341
343.489	18.673	813.881	630.090
344.504	18.773	813.281	629.938
345.519	18.741	813.146	629.662
346.533	18.975	812.828	630.217
347.548	19.037	812.266	629.951
348.562	18.967	812.045	629.469
349.577	19.181	811.521	629.789
350.592	18.931	811.144	628.526
351.606	19.169	810.680	628.983
352.621	19.234	810.117	628.726
353.635	18.959	809.467	627.164
354.650	18.958	808.537	626.381
355.665	18.641	807.654	624.491
356.679	17.897	805.991	620.446
357.694	17.720	805.903	619.680
358.708	18.173	805.930	621.292
359.723	18.407	805.085	621.435
360.738	18.455	804.999	621.486
361.752	19.049	804.504	623.202
362.767	19.002	804.165	622.714
363.781	19.044	804.013	622.693
364.796	19.292	803.343	623.017
365.810	19.397	803.089	623.143
366.825	19.271	802.815	622.420
367.840	19.388	802.439	622.496
368.854	19.247	801.622	621.298
369.869	18.942	800.980	619.648
370.883	18.869	800.396	618.878
371.898	18.934	799.745	618.552
372.913	18.794	798.961	617.390
373.927	18.727	798.097	616.428
374.942	18.900	797.978	616.903
375.956	19.180	797.548	617.520
376.971	19.039	797.188	616.680
377.986	19.196	796.518	616.669
379.000	19.417	795.722	616.788
380.015	19.286	795.632	616.194
381.029	19.092	794.974	614.938
382.044	19.120	794.544	614.650
383.059	19.188	794.047	614.454
384.073	19.314	793.280	614.256
385.088	19.270	792.792	613.668
386.102	19.397	792.288	613.675
387.117	19.345	791.565	612.874
388.132	19.304	790.926	612.181
389.146	19.250	790.388	611.519
390.161	18.736	789.526	608.974
391.175	18.673	789.102	608.373
392.190	18.969	788.820	609.149
393.205	18.961	788.641	608.929
394.219	18.363	786.954	605.458
395.234	17.052	785.528	599.677
396.248	16.723	784.604	597.760
397.263	17.488	785.220	600.875
398.278	18.953	786.044	606.625
399.292	19.390	786.061	608.126
400.307	19.108	785.359	606.537
401.321	19.219	784.836	606.471
402.336	19.342	784.208	606.363
403.350	19.320	784.220	606.242
404.365	19.493	784.009	606.633
405.380	19.576	783.935	606.814
406.394	19.726	783.175	606.697
407.409	19.989	782.850	607.316
408.423	20.001	782.266	606.852
409.438	19.726	781.374	605.143
410.453	19.939	781.102	605.623
411.467	19.825	781.112	605.180
412.482	20.006	780.165	605.022
413.496	20.011	779.667	604.601
414.511	19.944	779.701	604.341
415.526	19.974	779.308	604.085
416.540	19.929	778.756	603.448
417.555	19.989	777.915	602.952
418.569	19.705	777.461	601.560
419.584	19.618	777.082	600.909
420.599	19.599	776.678	600.477
421.613	154.447	1357.636	1791.237
422.628	133.309	1442.291	1791.321
