DTS Sentinel unit serial number:	SN413079Multiplexer serial number:	ORYXHardware model number:	OX4-SRSoftware version number:	ORYX F/W v4.00 Oryx Data Collector v3.7.2.0data status	okinstallation	princeton_trtdifferential loss correction	single-endedforward channel	channel 3reverse channel	N/Adate	2019/09/12time	00:38:11forward acquisition time	60.00reverse acquisition time	0.00gamma	496.2192k internal	0.2318k external	0.2318temperature offset calibration	1.0067default loss term (dB/km)	0.3790temperature slope calibration	1.0000multiplexer offset coefficient	1.0000multiplexer slope coefficient	1.0000fibre end	0.00T internal ref (°C)	33.33T ext. ref 1 (°C)	2.06T ext. ref 2 (°C)	27.92length (m)	temperature (°C)	Stokes	anti-Stokes-747.200	-200.000	-0.020	-0.345
-746.185	53.550	-0.085	-0.082
-745.171	-200.000	0.035	0.176
-744.156	6.424	0.101	0.076
-743.142	236.192	-0.014	0.024
-742.127	325.846	0.072	0.139
-741.112	144.664	0.144	0.195
-740.098	-127.604	-0.320	0.047
-739.083	800.000	-0.041	-0.159
-738.069	235.515	0.078	0.130
-737.054	-200.000	0.007	-0.112
-736.039	6.291	-0.188	-0.141
-735.025	144.738	-0.076	0.103
-734.010	-50.351	-0.220	0.105
-732.996	-63.528	0.078	0.032
-731.981	156.748	-0.116	0.162
-730.966	-200.000	0.024	-0.140
-729.952	800.000	0.025	-0.099
-728.937	-77.700	-0.074	0.026
-727.923	-151.320	-0.349	-0.026
-726.908	47.530	-0.090	-0.085
-725.894	426.052	-0.131	-0.285
-724.879	-68.942	-0.068	-0.026
-723.864	37.541	-0.064	-0.058
-722.850	-193.518	0.287	0.003
-721.835	-200.000	-0.014	-0.213
-720.821	-54.570	0.229	0.105
-719.806	224.945	0.170	0.278
-718.791	149.796	-0.125	0.171
-717.777	-27.853	0.286	0.168
-716.762	-67.641	-0.143	0.057
-715.748	-48.750	-0.561	0.272
-714.733	-14.777	0.101	-0.066
-713.718	13.079	0.294	0.230
-712.704	-180.537	-0.099	0.002
-711.689	-159.450	-0.169	-0.010
-710.675	429.067	0.259	0.566
-709.660	389.975	0.119	0.249
-708.645	276.475	-0.121	-0.218
-707.631	9.278	0.225	-0.172
-706.616	-200.000	0.045	-0.232
-705.602	399.567	-0.075	-0.160
-704.587	800.000	0.078	-0.318
-703.572	800.000	0.111	0.464
-702.558	-39.685	-0.215	-0.114
-701.543	-167.629	-0.077	0.003
-700.529	-82.412	-0.041	0.013
-699.514	-93.390	-0.208	0.058
-698.499	-200.000	0.017	0.343
-697.485	-70.135	-0.142	0.055
-696.470	-112.667	-0.305	-0.061
-695.456	-112.349	0.140	0.028
-694.441	800.000	-0.020	0.068
-693.426	-16.143	0.186	-0.120
-692.412	-200.000	-0.033	-0.249
-691.397	-200.000	-0.012	-0.068
-690.383	282.937	-0.111	0.201
-689.368	49.246	0.239	0.227
-688.354	-129.592	-0.349	-0.049
-687.339	-135.244	-0.288	-0.035
-686.324	-200.000	0.002	0.011
-685.310	-35.054	0.030	-0.017
-684.295	-176.673	0.281	0.007
-683.281	197.537	0.111	-0.171
-682.266	220.330	0.197	0.320
-681.251	-37.305	0.220	0.119
-680.237	800.000	0.072	-0.243
-679.222	147.384	0.089	0.121
-678.208	-82.475	-0.063	-0.021
-677.193	-42.616	-0.191	-0.098
-676.178	-200.000	-0.015	0.127
-675.164	-200.000	-0.004	0.093
-674.149	97.336	0.120	0.139
-673.135	70.596	-0.189	0.197
-672.120	7.767	0.167	0.127
-671.105	63.696	-0.149	-0.151
-670.091	453.984	0.125	0.280
-669.076	350.967	0.068	0.135
-668.062	462.816	-0.070	0.158
-667.047	800.000	-0.030	0.125
-666.032	15.608	-0.314	-0.249
-665.018	-200.000	0.047	-0.225
-664.003	117.572	0.163	-0.202
-662.989	40.093	0.211	-0.192
-661.974	800.000	0.073	0.210
-660.959	600.735	-0.125	0.313
-659.945	525.579	0.040	0.095
-658.930	-105.624	0.225	-0.051
-657.916	3.685	-0.140	0.103
-656.901	17.454	-0.297	0.238
-655.886	-146.571	0.054	0.005
-654.872	184.085	-0.254	-0.379
-653.857	800.000	-0.046	-0.200
-652.843	800.000	0.036	0.101
-651.828	800.000	0.124	0.346
-650.814	-81.944	-0.078	0.026
-649.799	-99.323	-0.236	0.060
-648.784	-153.002	-0.160	0.011
-647.770	800.000	0.069	0.222
-646.755	-92.481	-0.150	0.043
-645.741	179.596	-0.064	0.094
-644.726	-69.367	-0.302	-0.117
-643.711	-4.555	0.296	-0.206
-642.697	-6.839	-0.027	-0.019
-641.682	-200.000	-0.043	0.233
-640.668	57.955	-0.297	-0.293
-639.653	-200.000	0.017	-0.179
-638.638	86.781	-0.321	0.357
-637.624	-8.665	-0.123	0.083
-636.609	-45.054	-0.244	0.122
-635.595	-200.000	0.001	-0.053
-634.580	73.895	0.228	-0.241
-633.565	-99.454	0.105	-0.027
-632.551	11.032	0.140	0.108
-631.536	-200.000	-0.046	-0.357
-630.522	-71.114	-0.443	-0.168
-629.507	16.700	-0.211	0.168
-628.492	72.285	-0.075	0.078
-627.478	-46.287	-0.302	0.150
-626.463	-115.098	-0.172	-0.033
-625.449	591.956	-0.108	0.269
-624.434	-142.784	-0.311	0.031
-623.419	658.149	-0.077	0.198
-622.405	326.483	-0.098	0.189
-621.390	-58.334	-0.282	0.123
-620.376	12.717	-0.357	0.278
-619.361	800.000	-0.047	0.190
-618.346	-200.000	-0.002	-0.192
-617.332	145.309	0.208	-0.280
-616.317	479.861	0.141	0.322
-615.303	-200.000	-0.017	0.272
-614.288	7.906	-0.090	-0.068
-613.273	158.007	0.108	0.150
-612.259	173.529	0.125	0.182
-611.244	-200.000	-0.017	-0.186
-610.230	-23.958	0.314	0.189
-609.215	-36.460	0.147	-0.079
-608.201	97.742	-0.122	-0.141
-607.186	800.000	-0.114	-0.323
-606.171	-6.513	-0.122	-0.083
-605.157	153.171	-0.122	-0.168
-604.142	559.111	-0.129	-0.313
-603.128	-36.372	-0.021	0.011
-602.113	-118.369	0.200	0.036
-601.098	-137.871	0.288	-0.032
-600.084	-86.376	-0.086	0.027
-599.069	-53.643	-0.174	0.080
-598.055	-125.833	-0.146	0.022
-597.040	-93.321	-0.330	-0.092
-596.025	-200.000	-0.007	-0.084
-595.011	-117.351	0.287	0.052
-593.996	800.000	0.023	0.089
-592.982	800.000	-0.057	-0.166
-591.967	-200.000	0.058	0.316
-590.952	186.051	0.113	0.169
-589.938	-165.511	-0.265	-0.012
-588.923	69.799	-0.242	-0.251
-587.909	-145.330	0.295	-0.027
-586.894	135.801	0.129	-0.169
-585.879	213.236	-0.034	0.054
-584.865	327.044	-0.168	0.323
-583.850	-200.000	-0.021	-0.093
-582.836	-200.000	0.016	-0.252
-581.821	800.000	0.072	0.211
-580.806	-138.530	-0.084	-0.009
-579.792	800.000	-0.031	0.102
-578.777	-200.000	0.009	0.282
-577.763	-126.000	-0.202	0.031
-576.748	-6.663	0.212	-0.145
-575.733	-115.088	-0.227	-0.043
-574.719	-121.348	0.126	0.021
-573.704	-161.723	-0.237	0.012
-572.690	29.009	-0.132	-0.113
-571.675	-84.773	0.300	-0.095
-570.661	-54.663	0.386	-0.176
-569.646	140.713	0.250	-0.331
-568.631	3.085	0.062	-0.045
-567.617	89.067	-0.274	0.307
-566.602	-119.343	0.202	0.035
-565.588	-200.000	-0.001	0.189
-564.573	800.000	0.064	0.208
-563.558	533.821	-0.023	0.056
-562.544	-81.824	0.116	-0.038
-561.529	103.276	0.105	0.124
-560.515	-11.458	-0.069	-0.046
-559.500	800.000	-0.016	-0.071
-558.485	-67.715	-0.202	0.080
-557.471	800.000	0.101	-0.372
-556.456	800.000	0.076	0.291
-555.442	-104.139	0.055	0.013
-554.427	782.530	0.049	0.136
-553.412	-200.000	0.044	0.386
-552.398	656.495	-0.031	0.079
-551.383	-2.703	-0.150	-0.106
-550.369	800.000	-0.092	0.330
-549.354	-58.013	-0.199	0.087
-548.339	-136.874	-0.046	0.005
-547.325	222.150	-0.066	0.107
-546.310	81.167	0.076	0.083
-545.296	-16.512	-0.151	0.096
-544.281	-76.234	-0.222	0.079
-543.266	679.819	0.030	-0.080
-542.252	-149.132	0.278	0.022
-541.237	444.119	0.102	0.225
-540.223	-82.791	-0.423	-0.137
-539.208	-34.491	0.152	-0.084
-538.193	800.000	0.108	-0.334
-537.179	127.953	-0.238	0.303
-536.164	800.000	0.089	-0.281
-535.150	262.925	-0.060	-0.105
-534.135	1.540	0.108	-0.078
-533.121	-151.054	-0.434	0.033
-532.106	-200.000	-0.019	0.156
-531.091	170.682	-0.049	0.070
-530.077	68.143	0.108	-0.110
-529.062	-200.000	-0.005	-0.091
-528.048	-186.942	-0.140	-0.002
-527.033	-1.280	0.140	-0.099
-526.018	327.477	-0.162	-0.311
-525.004	-92.569	0.158	0.044
-523.989	-136.970	0.108	0.012
-522.975	2.183	-0.093	-0.067
-521.960	125.034	-0.188	0.237
-520.945	25.904	-0.156	0.131
-519.931	8.299	0.112	-0.084
-518.916	-200.000	0.043	0.258
-517.902	390.402	-0.111	0.232
-516.887	90.411	0.324	-0.363
-515.872	216.469	-0.081	0.129
-514.858	146.076	-0.027	-0.036
-513.843	10.422	-0.191	-0.146
-512.829	-139.465	-0.085	-0.009
-511.814	-200.000	-0.004	-0.023
-510.799	-93.553	0.297	0.082
-509.785	-122.779	-0.154	0.025
-508.770	-33.268	0.242	0.135
-507.756	800.000	-0.164	-0.456
-506.741	-31.526	0.055	0.031
-505.726	800.000	0.131	0.451
-504.712	-55.102	0.004	0.002
-503.697	157.335	0.124	0.173
-502.683	42.507	-0.023	-0.021
-501.668	-200.000	-0.025	-0.441
-500.653	580.892	0.072	-0.178
-499.639	-130.367	-0.373	0.051
-498.624	-127.098	0.218	0.032
-497.610	-74.751	-0.127	0.046
-496.595	-72.002	0.079	-0.029
-495.581	-174.088	0.188	-0.006
-494.566	-164.999	0.323	-0.014
-493.551	800.000	0.066	0.196
-492.537	-200.000	-0.009	-0.046
-491.522	-129.263	0.188	-0.026
-490.508	-61.993	-0.311	-0.130
-489.493	109.415	0.075	-0.090
-488.478	-140.676	-0.183	0.019
-487.464	-124.046	0.204	0.032
-486.449	-94.481	-0.016	0.004
-485.435	-109.791	-0.120	0.025
-484.420	-200.000	-0.016	0.482
-483.405	-126.667	0.150	0.022
-482.391	301.127	0.087	0.160
-481.376	136.648	0.021	0.027
-480.362	-104.471	0.113	-0.026
-479.347	146.174	0.066	-0.089
-478.332	41.946	-0.321	-0.291
-477.318	-94.600	-0.246	0.067
-476.303	88.225	-0.374	0.416
-475.289	-43.041	-0.158	-0.080
-474.274	-200.000	0.030	-0.135
-473.259	800.000	0.048	-0.143
-472.245	-67.319	-0.134	-0.053
-471.230	-149.375	-0.217	-0.017
-470.216	-200.000	-0.068	-0.344
-469.201	238.352	0.113	0.189
-468.186	-200.000	0.038	0.223
-467.172	-200.000	0.042	-0.204
-466.157	-169.144	0.161	-0.006
-465.143	90.721	-0.110	0.123
-464.128	307.483	-0.018	0.033
-463.113	135.422	0.089	0.116
-462.099	20.968	-0.021	0.017
-461.084	-91.817	0.130	-0.037
-460.070	-200.000	-0.033	-0.148
-459.055	800.000	-0.113	-0.335
-458.040	22.123	0.206	-0.169
-457.026	-2.447	-0.132	-0.092
-456.011	91.504	-0.154	0.173
-454.997	800.000	0.076	0.247
-453.982	-41.274	0.284	-0.146
-452.968	-93.849	-0.087	0.024
-451.953	292.838	-0.043	0.078
-450.938	-76.825	-0.431	-0.151
-449.924	327.721	0.111	-0.212
-448.909	-89.427	0.317	-0.093
-447.895	-176.916	0.060	-0.002
-446.880	430.037	0.089	0.192
-445.865	-57.568	0.247	-0.109
-444.851	800.000	-0.119	-0.394
-443.836	125.869	-0.267	-0.337
-442.822	72.873	0.180	-0.188
-441.807	102.209	-0.137	-0.160
-440.792	61.989	0.069	0.069
-439.778	800.000	-0.017	0.057
-438.763	-31.814	-0.111	0.062
-437.749	496.842	0.054	0.123
-436.734	800.000	-0.090	0.266
-435.719	-164.044	-0.217	0.010
-434.705	-50.819	0.269	-0.126
-433.690	326.210	-0.156	-0.299
-432.676	-200.000	0.007	-0.047
-431.661	-200.000	0.023	0.288
-430.646	-79.784	0.035	0.012
-429.632	-66.506	-0.189	-0.075
-428.617	-200.000	0.029	-0.160
-427.603	-85.569	0.342	-0.106
-426.588	-200.000	0.007	0.068
-425.573	-200.000	0.031	-0.352
-424.559	-60.484	0.437	-0.186
-423.544	-25.393	-0.242	0.143
-422.530	-200.000	0.000	-0.088
-421.515	800.000	-0.058	-0.194
-420.500	348.032	-0.120	0.236
-419.486	214.303	0.081	-0.128
-418.471	-3.414	-0.178	-0.124
-417.457	10.636	0.261	0.199
-416.442	639.201	-0.054	0.138
-415.428	-49.276	-0.114	-0.055
-414.413	800.000	-0.067	0.186
-413.398	47.165	-0.146	0.136
-412.384	749.537	-0.037	-0.101
-411.369	-19.913	0.137	-0.085
-410.355	33.535	-0.146	0.127
-409.340	26.817	-0.282	0.236
-408.325	85.327	0.189	-0.208
-407.311	-200.000	-0.286	0.000
-406.296	-5.152	-0.146	-0.101
-405.282	51.448	0.077	0.073
-404.267	43.837	0.310	0.283
-403.252	-138.583	-0.139	-0.015
-402.238	37.826	-0.281	-0.249
-401.223	418.117	-0.091	-0.195
-400.209	-111.036	0.336	0.069
-399.194	-200.000	-0.017	-0.178
-398.179	-4.586	0.139	0.096
-397.165	800.000	0.051	-0.211
-396.150	-184.554	-0.222	-0.004
-395.136	-4.320	0.271	-0.188
-394.121	-98.987	-0.161	-0.041
-393.106	-200.000	-0.026	0.138
-392.092	-86.601	0.305	-0.093
-391.077	325.193	0.096	-0.182
-390.063	-48.639	-0.248	0.119
-389.048	409.916	-0.009	-0.018
-388.033	-134.060	-0.151	0.019
-387.019	-168.597	0.447	-0.017
-386.004	-200.000	-0.029	-0.380
-384.990	800.000	0.134	0.375
-383.975	-200.000	-0.038	-0.238
-382.960	-21.064	0.139	-0.085
-381.946	-153.074	-0.097	0.007
-380.931	-22.903	-0.178	-0.107
-379.917	-50.946	-0.290	0.136
-378.902	-45.365	0.300	-0.148
-377.888	800.000	0.027	-0.085
-376.873	-123.123	0.330	0.053
-375.858	-16.494	0.236	0.149
-374.844	550.463	0.056	-0.133
-373.829	-98.338	0.157	0.040
-372.815	23.477	0.429	0.352
-371.800	800.000	-0.036	-0.135
-370.785	-200.000	-0.007	0.393
-369.771	121.907	-0.126	0.157
-368.756	154.775	0.250	-0.343
-367.742	800.000	0.055	-0.193
-366.727	18.569	-0.247	-0.197
-365.712	-200.000	0.024	0.130
-364.698	91.509	-0.216	-0.242
-363.683	120.191	-0.128	-0.158
-362.669	-200.000	-0.007	-0.151
-361.654	-109.841	0.038	0.008
-360.639	-200.000	0.010	-0.092
-359.625	-121.874	-0.123	0.020
-358.610	-200.000	0.017	-0.207
-357.596	80.787	0.193	0.208
-356.581	800.000	0.014	0.060
-355.566	-80.743	0.185	0.061
-354.552	96.596	0.168	-0.192
-353.537	-13.060	0.200	-0.129
-352.523	-74.520	-0.245	0.088
-351.508	150.966	-0.151	-0.204
-350.493	-77.728	0.432	-0.149
-349.479	56.991	-0.056	0.054
-348.464	-39.221	-0.345	-0.180
-347.450	176.392	0.133	-0.192
-346.435	71.240	0.218	-0.225
-345.420	209.741	0.173	0.270
-344.406	70.722	-0.179	-0.184
-343.391	725.356	0.099	0.262
-342.377	800.000	-0.029	-0.079
-341.362	800.000	0.058	0.180
-340.348	226.612	-0.047	0.076
-339.333	-115.202	0.199	-0.038
-338.318	-91.497	-0.419	-0.119
-337.304	-144.632	0.245	0.023
-336.289	38.540	0.173	0.154
-335.275	800.000	-0.039	-0.161
-334.260	-21.025	-0.160	-0.097
-333.245	-200.000	-0.033	0.192
-332.231	397.425	-0.171	0.355
-331.216	800.000	0.059	-0.177
-330.202	-28.295	-0.172	0.099
-329.187	21.650	-0.329	-0.266
-328.172	-49.103	-0.277	0.132
-327.158	650.881	0.024	0.061
-326.143	102.877	-0.092	0.107
-325.129	-200.000	0.051	-0.358
-324.114	800.000	-0.047	0.143
-323.099	800.000	-0.093	-0.328
-322.085	242.661	0.121	-0.201
-321.070	-51.935	0.054	-0.025
-320.056	-64.527	0.424	0.171
-319.041	800.000	0.020	-0.089
-318.026	47.281	-0.092	-0.086
-317.012	-32.614	-0.336	0.186
-315.997	104.619	-0.125	-0.147
-314.983	71.460	0.029	0.030
-313.968	-134.513	0.253	-0.031
-312.953	192.781	-0.178	-0.268
-311.939	800.000	0.032	0.096
-310.924	275.104	-0.192	-0.338
-309.910	-200.000	0.009	0.088
-308.895	164.024	-0.145	0.203
-307.880	-6.961	-0.187	0.127
-306.866	800.000	-0.076	-0.317
-305.851	800.000	-0.082	0.270
-304.837	-32.323	-0.225	-0.125
-303.822	-26.652	-0.110	0.064
-302.807	204.265	0.163	0.251
-301.793	-74.070	0.121	0.043
-300.778	441.667	0.042	0.092
-299.764	84.957	-0.239	0.260
-298.749	155.873	0.073	-0.100
-297.735	54.393	0.088	-0.084
-296.720	-20.987	-0.342	0.208
-295.705	-70.780	0.100	0.038
-294.691	-200.000	-0.085	0.483
-293.676	31.632	-0.099	0.084
-292.662	39.730	-0.202	0.180
-291.647	800.000	-0.022	0.071
-290.632	-200.000	-0.066	-0.358
-289.618	-128.202	-0.569	0.081
-288.603	326.957	0.100	0.190
-287.589	-60.567	0.157	-0.066
-286.574	800.000	-0.058	-0.200
-285.559	-200.000	-0.004	0.026
-284.545	302.111	-0.100	0.183
-283.530	84.458	-0.158	0.172
-282.516	-200.000	-0.066	0.393
-281.501	-33.746	-0.150	-0.082
-280.486	645.868	0.107	0.271
-279.472	505.758	0.167	-0.385
-278.457	-116.590	0.241	0.044
-277.443	-200.000	0.046	-0.279
-276.428	189.616	-0.151	0.225
-275.413	127.037	0.098	-0.124
-274.399	174.332	0.262	-0.376
-273.384	63.335	-0.122	0.122
-272.370	283.964	-0.252	-0.450
-271.355	-36.712	-0.235	0.125
-270.340	-59.068	0.266	-0.114
-269.326	157.432	-0.082	-0.112
-268.311	203.493	0.086	0.133
-267.297	-114.519	0.110	0.021
-266.282	-53.247	0.205	0.094
-265.267	688.777	0.029	-0.074
-264.253	-200.000	0.022	0.174
-263.238	-98.516	0.199	0.050
-262.224	173.629	-0.226	-0.324
-261.209	-44.467	0.204	-0.101
-260.195	235.283	-0.064	-0.105
-259.180	225.122	0.091	-0.146
-258.165	-200.000	-0.028	0.137
-257.151	-67.744	0.414	0.161
-256.136	40.175	-0.241	0.215
-255.122	-125.400	-0.163	-0.025
-254.107	145.804	0.072	-0.096
-253.092	189.349	-0.108	-0.160
-252.078	800.000	0.040	0.118
-251.063	-162.379	0.267	0.013
-250.049	240.791	0.057	-0.094
-249.034	-43.836	0.137	0.068
-248.019	800.000	-0.064	0.242
-247.005	-84.666	0.216	-0.067
-245.990	-122.020	-0.018	0.003
-244.976	-200.000	-0.007	0.105
-243.961	622.754	0.092	-0.231
-242.946	474.715	-0.103	-0.230
-241.932	-37.660	0.237	0.125
-240.917	-200.000	-0.032	-0.186
-239.903	19.154	0.126	-0.100
-238.888	800.000	0.007	0.024
-237.873	-78.495	-0.115	0.039
-236.859	123.571	-0.095	0.119
-235.844	-156.611	0.195	0.012
-234.830	1.376	0.105	0.075
-233.815	-58.354	-0.091	-0.039
-232.800	800.000	-0.049	-0.153
-231.786	172.353	0.305	-0.435
-230.771	-146.929	0.550	0.047
-229.757	-48.983	-0.179	-0.085
-228.742	-200.000	0.017	-0.120
-227.727	-112.818	0.224	-0.044
-226.713	-89.771	0.216	0.063
-225.698	-134.514	0.294	-0.036
-224.684	24.476	0.279	0.229
-223.669	30.805	0.153	0.130
-222.655	-200.000	0.050	0.385
-221.640	77.862	-0.289	-0.305
-220.625	-200.000	-0.005	-0.071
-219.611	-24.029	-0.179	0.106
-218.596	-200.000	0.044	0.226
-217.582	-76.861	0.278	-0.096
-216.567	437.395	-0.164	-0.355
-215.552	-133.679	0.276	-0.034
-214.538	-200.000	0.047	-0.325
-213.523	-46.819	0.221	-0.107
-212.509	-153.067	-0.072	0.005
-211.494	7.780	-0.150	0.112
-210.479	-190.892	0.238	0.002
-209.465	-55.265	0.042	-0.019
-208.450	-161.223	0.201	0.010
-207.436	415.274	-0.129	0.273
-206.421	157.672	-0.026	-0.036
-205.406	-40.366	-0.221	0.114
-204.392	114.089	-0.157	-0.189
-203.377	12.123	-0.037	0.028
-202.363	-98.128	0.198	-0.051
-201.348	135.869	-0.067	0.087
-200.333	-137.100	0.174	0.020
-199.319	117.013	0.094	-0.114
-198.304	-60.182	0.357	0.151
-197.290	-190.795	-0.182	0.002
-196.275	494.222	-0.134	0.305
-195.260	-200.000	0.042	0.191
-194.246	-108.760	0.104	0.022
-193.231	-113.326	-0.194	0.038
-192.217	-200.000	-0.016	0.295
-191.202	-126.424	-0.108	-0.016
-190.187	-132.843	0.107	0.013
-189.173	-80.894	-0.093	0.030
-188.158	-26.538	0.206	-0.120
-187.144	-22.188	-0.184	0.111
-186.129	-47.450	-0.085	0.041
-185.114	-99.834	0.171	-0.042
-184.100	80.368	-0.029	0.031
-183.085	-64.045	0.307	-0.124
-182.071	-200.000	0.031	-0.177
-181.056	106.622	0.194	0.228
-180.042	127.821	0.054	0.068
-179.027	-200.000	-0.016	-0.286
-178.012	-67.367	-0.028	-0.011
-176.998	-47.541	-0.155	0.074
-175.983	-120.744	0.206	0.034
-174.969	227.288	0.107	0.172
-173.954	-200.000	-0.014	0.102
-172.939	-0.004	-0.080	0.057
-171.925	-90.073	0.204	-0.059
-170.910	-29.439	-0.038	-0.021
-169.896	800.000	-0.053	-0.149
-168.881	17.925	0.086	0.068
-167.866	800.000	-0.121	0.411
-166.852	-103.634	-0.042	-0.010
-165.837	-31.817	0.277	0.154
-164.823	181.529	0.155	0.226
-163.808	-61.350	0.169	0.070
-162.793	608.085	0.135	0.333
-161.779	24.876	-0.169	-0.139
-160.764	165.753	-0.082	-0.114
-159.750	-141.467	0.125	-0.013
-158.735	-28.901	0.451	0.256
-157.720	92.192	-0.171	-0.190
-156.706	-40.516	0.362	0.186
-155.691	161.101	0.151	0.208
-154.677	724.864	0.049	-0.130
-153.662	-96.075	-0.265	0.070
-152.647	-102.692	-0.194	0.046
-151.633	-81.827	0.031	0.010
-150.618	800.000	0.051	-0.162
-149.604	-184.380	0.236	0.004
-148.589	-200.000	0.017	-0.090
-147.574	29.912	0.125	0.105
-146.560	75.581	-0.180	-0.188
-145.545	800.000	-0.117	-0.328
-144.531	4.178	-0.259	-0.187
-143.516	115.745	-0.133	0.160
-142.502	800.000	0.052	-0.213
-141.487	800.000	0.083	-0.298
-140.472	211.392	0.096	-0.149
-139.458	-62.960	-0.416	-0.170
-138.443	-71.609	0.258	0.095
-137.429	-200.000	-0.006	-0.063
-136.414	-124.687	0.143	-0.022
-135.399	6.694	-0.101	0.075
-134.385	-42.643	0.301	-0.151
-133.370	332.352	-0.092	-0.176
-132.356	-16.355	0.090	0.056
-131.341	54.565	-0.134	0.128
-130.326	800.000	0.055	0.151
-129.312	43.614	-0.342	0.309
-128.297	-10.239	-0.417	-0.273
-127.283	-57.527	-0.161	-0.070
-126.268	45.071	0.180	-0.164
-125.253	17.131	0.013	0.010
-124.239	-24.801	0.034	-0.020
-123.224	-140.447	-0.445	-0.046
-122.210	-188.494	0.195	-0.002
-121.195	-200.000	-0.007	0.066
-120.180	800.000	0.023	-0.092
-119.166	800.000	0.061	0.212
-118.151	-200.000	0.046	0.289
-117.137	-135.051	0.345	-0.041
-116.122	-97.099	0.230	0.059
-115.107	-66.829	-0.419	-0.164
-114.093	-107.019	-0.186	-0.041
-113.078	-123.359	-0.150	0.024
-112.064	95.578	-0.108	-0.121
-111.049	-115.953	-0.130	0.024
-110.034	800.000	-0.057	0.165
-109.020	-200.000	0.052	0.229
-108.005	800.000	-0.055	0.161
-106.991	25.464	-0.229	0.188
-105.976	-133.383	0.127	0.016
-104.962	-200.000	0.054	-0.399
-103.947	-139.314	0.059	-0.006
-102.932	26.870	0.041	-0.034
-101.918	99.370	-0.170	0.194
-100.903	800.000	0.034	0.104
-99.889	-200.000	0.004	0.111
-98.874	-200.000	0.009	-0.380
-97.859	800.000	0.060	0.203
-96.845	131.125	0.132	0.167
-95.830	88.273	0.034	-0.037
-94.816	800.000	0.029	0.094
-93.801	-200.000	0.041	0.264
-92.786	-86.460	-0.329	0.100
-91.772	800.000	-0.099	-0.406
-90.757	-170.178	0.171	-0.006
-89.743	121.510	0.097	0.119
-88.728	-200.000	-0.007	0.331
-87.713	-59.741	0.084	0.035
-86.699	2.774	-0.086	0.061
-85.684	-200.000	-0.002	-0.132
-84.670	161.546	0.202	-0.279
-83.655	800.000	0.096	0.263
-82.640	156.326	0.092	-0.125
-81.626	-69.213	-0.292	0.111
-80.611	800.000	-0.042	0.181
-79.597	800.000	0.021	-0.083
-78.582	54.785	-0.211	0.201
-77.567	-12.790	-0.132	0.085
-76.553	48.976	0.115	0.106
-75.538	421.041	0.092	-0.195
-74.524	-67.921	0.169	0.065
-73.509	-106.200	-0.026	0.006
-72.494	-200.000	0.033	0.392
-71.480	800.000	0.025	0.088
-70.465	-200.000	0.031	-0.194
-69.451	-200.000	0.034	-0.311
-68.436	-200.000	-0.008	-0.080
-67.422	-200.000	0.057	-0.380
-66.407	800.000	0.107	0.318
-65.392	13.861	0.099	0.076
-64.378	36.462	0.109	-0.095
-63.363	83.759	-0.170	0.183
-62.349	98.456	-0.356	-0.404
-61.334	96.454	-0.913	-1.029
-60.319	69.308	0.450	0.457
-59.305	800.000	-0.217	-0.768
-58.290	800.000	0.304	0.959
-57.276	491.100	0.811	1.828
-56.261	-200.000	96.119	575.727
-55.246	543.173	1385.769	3256.888
-54.232	157.495	2568.121	3501.712
-53.217	110.819	2166.429	2567.792
-52.203	43.441	1709.553	1538.980
-51.188	36.662	1521.825	1323.738
-50.173	34.112	1496.006	1284.047
-49.159	53.037	1544.731	1456.048
-48.144	55.083	1562.197	1486.485
-47.130	36.700	1521.108	1323.169
-46.115	33.537	1506.849	1289.237
-45.100	33.391	1503.386	1285.233
-44.086	33.375	1501.764	1283.688
-43.071	33.389	1499.221	1281.557
-42.057	33.368	1497.417	1279.823
-41.042	33.319	1496.789	1278.908
-40.027	33.267	1494.944	1276.930
-39.013	33.405	1493.504	1276.580
-37.998	33.399	1492.634	1275.745
-36.984	33.287	1491.708	1274.146
-35.969	33.408	1489.913	1273.374
-34.954	33.400	1488.235	1271.835
-33.940	33.240	1487.433	1270.025
-32.925	33.265	1486.344	1269.213
-31.911	33.410	1484.391	1268.470
-30.896	33.379	1483.614	1267.547
-29.881	33.373	1481.705	1265.828
-28.867	33.310	1480.782	1264.565
-27.852	33.511	1479.000	1264.336
-26.838	33.388	1477.526	1262.203
-25.823	33.357	1476.508	1261.078
-24.809	33.307	1474.900	1259.324
-23.794	33.397	1472.982	1258.232
-22.779	33.331	1472.197	1257.073
-21.765	33.352	1471.308	1256.402
-20.750	33.291	1470.372	1255.153
-19.736	33.404	1469.353	1254.981
-18.721	33.341	1467.450	1252.889
-17.706	33.285	1467.100	1252.166
-16.692	33.279	1465.815	1250.981
-15.677	33.401	1464.534	1250.644
-14.663	33.339	1463.778	1249.539
-13.648	33.330	1462.881	1248.667
-12.633	33.214	1462.316	1247.368
-11.619	33.338	1460.897	1246.927
-10.604	33.301	1459.760	1245.665
-9.590	33.224	1459.085	1244.533
-8.575	33.248	1458.529	1244.164
-7.560	33.294	1457.495	1243.534
-6.546	33.293	1456.754	1242.846
-5.531	33.288	1455.890	1242.026
-4.517	33.172	1454.814	1240.300
-3.502	33.237	1453.299	1239.383
-2.487	33.256	1452.525	1238.803
-1.473	33.271	1451.500	1237.976
-0.458	33.342	1450.033	1237.136
0.556	33.832	1441.074	1226.262
1.571	31.093	1416.285	1187.655
2.586	27.853	1361.642	1121.863
3.600	26.401	1283.247	1048.765
4.615	25.100	1235.834	1002.654
5.629	21.631	1178.403	937.438
6.644	11.657	1090.698	817.926
7.659	3.540	1047.708	746.468
8.673	2.365	1042.129	736.774
9.688	2.078	1039.193	733.254
10.702	1.955	1037.738	731.574
11.717	1.842	1035.830	729.622
12.731	5.698	1040.319	751.234
13.746	15.674	1054.673	809.806
14.761	23.436	1063.707	854.227
15.775	25.063	1065.462	863.409
16.790	25.259	1065.217	864.078
17.804	25.193	1064.455	863.066
18.819	24.942	1063.531	861.031
19.834	25.167	1062.579	861.266
20.848	25.207	1062.408	861.244
21.863	25.346	1061.790	861.334
22.877	25.303	1061.827	861.080
23.892	25.148	1061.250	859.795
24.907	25.191	1059.885	858.817
25.921	25.155	1059.347	858.133
26.936	25.104	1059.036	857.560
27.950	25.128	1057.669	856.493
28.965	25.095	1056.488	855.302
29.980	24.990	1055.150	853.643
30.994	24.927	1053.965	852.308
32.009	25.267	1052.921	853.006
33.023	25.215	1052.789	852.577
34.038	24.959	1051.634	850.351
35.053	24.986	1050.329	849.351
36.067	25.181	1050.394	850.249
37.082	25.170	1049.268	849.212
38.096	25.037	1048.870	848.188
39.111	25.337	1047.824	848.682
40.126	25.501	1046.665	848.445
41.140	25.464	1045.579	847.313
42.155	25.150	1044.321	844.741
43.169	24.971	1042.903	842.675
44.184	24.827	1042.000	841.195
45.199	24.890	1041.621	841.112
46.213	24.752	1040.409	839.412
47.228	24.668	1039.608	838.297
48.242	24.872	1038.926	838.627
49.257	25.018	1038.234	838.677
50.271	25.091	1037.513	838.362
51.286	25.196	1037.037	838.397
52.301	25.221	1035.695	837.355
53.315	25.362	1035.040	837.407
54.330	25.178	1034.607	836.124
55.344	25.024	1033.637	834.548
56.359	24.989	1033.254	834.001
57.374	25.056	1032.396	833.546
58.388	24.872	1031.439	831.845
59.403	24.819	1030.855	831.055
60.417	24.920	1029.909	830.689
61.432	24.806	1028.693	829.105
62.447	24.682	1028.730	828.489
63.461	24.971	1027.380	828.664
64.476	24.877	1027.265	828.062
65.490	24.829	1026.379	827.055
66.505	24.827	1025.050	825.903
67.520	24.819	1024.220	825.121
68.534	24.942	1023.730	825.220
69.549	24.764	1022.702	823.503
70.563	24.540	1021.477	821.410
71.578	24.446	1021.321	820.779
72.593	24.407	1020.359	819.756
73.607	24.249	1018.955	817.831
74.622	24.289	1018.122	817.273
75.636	24.546	1017.407	817.802
76.651	24.802	1016.709	818.340
77.666	24.623	1016.052	816.924
78.680	24.616	1014.823	815.828
79.695	24.529	1014.514	815.109
80.709	24.674	1013.968	815.263
81.724	24.717	1013.404	814.930
82.739	24.748	1012.297	814.110
83.753	24.802	1011.262	813.451
84.768	25.022	1010.644	813.885
85.782	25.355	1010.520	815.222
86.797	25.473	1009.612	814.955
87.812	25.458	1008.917	814.251
88.826	25.246	1007.888	812.392
89.841	25.289	1007.106	811.882
90.855	25.466	1006.416	812.056
91.870	25.292	1005.878	810.762
92.884	25.362	1004.870	810.194
93.899	25.294	1003.533	808.737
94.914	25.211	1002.865	807.756
95.928	25.363	1001.891	807.581
96.943	25.286	1001.554	806.892
97.957	25.081	1000.383	804.958
98.972	24.957	999.273	803.439
99.987	24.747	997.891	801.315
101.001	24.869	997.684	801.625
102.016	25.097	996.888	801.934
103.030	25.031	996.274	801.072
104.045	25.113	995.182	800.492
105.060	24.888	994.111	798.553
106.074	24.802	992.992	797.200
107.089	24.794	992.125	796.402
108.103	25.095	992.251	797.770
109.118	25.244	991.262	797.569
110.133	24.953	990.170	795.327
111.147	24.966	988.826	794.233
112.162	24.680	988.097	792.311
113.176	24.486	987.061	790.550
114.191	24.670	986.494	790.840
115.206	24.841	985.206	790.494
116.220	24.575	984.206	788.447
117.235	24.304	983.303	786.457
118.249	24.472	982.936	786.838
119.264	24.605	982.322	786.861
120.279	24.509	981.147	785.428
121.293	24.415	980.677	784.568
122.308	24.630	979.693	784.657
123.322	24.539	979.021	783.650
124.337	24.539	977.955	782.729
125.352	24.540	976.197	781.256
126.366	24.057	975.037	778.147
127.381	23.689	973.736	775.432
128.395	24.283	973.441	777.722
129.410	24.899	973.270	780.200
130.424	25.051	972.659	780.305
131.439	25.044	971.697	779.436
132.454	25.175	970.449	778.931
133.468	25.042	969.686	777.674
134.483	25.025	969.009	776.987
135.497	24.989	968.385	776.263
136.512	25.215	968.060	776.911
137.527	25.281	967.053	776.323
138.541	25.265	966.348	775.616
139.556	25.379	965.595	775.438
140.570	25.231	965.022	774.271
141.585	25.397	963.783	773.921
142.600	25.354	963.616	773.536
143.614	25.336	962.376	772.392
144.629	25.508	961.295	772.195
145.643	25.741	961.102	772.973
146.658	25.576	960.006	771.317
147.673	25.322	958.847	769.228
148.687	25.207	957.638	767.700
149.702	25.072	956.659	766.267
150.716	24.989	955.687	765.068
151.731	24.978	954.584	764.069
152.746	25.110	953.844	763.973
153.760	25.381	953.345	764.661
154.775	25.457	952.682	764.382
155.789	25.600	951.794	764.213
156.804	25.559	950.785	763.158
157.819	25.441	949.685	761.708
158.833	25.470	949.223	761.394
159.848	25.498	948.279	760.690
160.862	25.694	947.743	761.017
161.877	25.383	947.106	759.127
162.892	25.350	946.095	758.108
163.906	25.548	944.677	757.739
164.921	25.414	944.525	756.989
165.935	25.309	943.161	755.384
166.950	25.471	941.831	754.934
167.964	25.487	941.291	754.501
168.979	25.443	940.481	753.600
169.994	25.378	939.055	752.119
171.008	25.194	938.046	750.477
172.023	25.361	937.383	750.575
173.037	25.670	936.743	751.286
174.052	25.439	935.507	749.265
175.067	25.095	934.718	747.135
176.081	25.020	933.746	745.978
177.096	25.227	932.665	745.912
178.110	25.200	932.330	745.463
179.125	25.105	931.525	744.359
180.140	24.874	930.163	742.250
181.154	24.889	929.364	741.607
182.169	24.812	929.493	741.327
183.183	25.176	928.842	742.246
184.198	25.414	928.449	742.851
185.213	25.330	927.802	741.922
186.227	25.275	927.265	741.199
187.242	25.336	926.718	740.947
188.256	25.588	925.848	741.225
189.271	25.423	925.028	739.824
190.286	25.526	924.160	739.487
191.300	25.307	923.468	737.971
192.315	24.765	922.140	734.616
193.329	24.092	920.573	730.542
194.344	23.683	919.487	727.939
195.359	24.328	919.795	730.766
196.373	25.049	920.186	733.964
197.388	25.297	919.948	734.725
198.402	25.346	918.784	733.929
199.417	25.344	918.511	733.637
200.432	25.330	918.065	733.161
201.446	25.232	917.236	732.034
202.461	24.767	916.605	729.571
203.475	25.004	916.068	730.044
204.490	24.601	914.249	726.890
205.504	23.446	912.436	720.694
206.519	23.791	912.116	721.777
207.534	24.781	912.979	726.420
208.548	24.905	911.866	725.973
209.563	25.196	912.314	727.442
210.577	25.339	910.964	726.883
211.592	25.208	910.150	725.639
212.607	25.403	910.341	726.516
213.621	25.702	909.438	726.938
214.636	25.480	908.830	725.494
215.650	25.493	908.581	725.283
216.665	25.526	907.600	724.570
217.680	25.459	907.371	724.050
218.694	25.699	906.936	724.605
219.709	25.204	906.127	721.904
220.723	24.962	904.992	719.961
221.738	25.159	904.595	720.377
222.753	25.515	904.077	721.327
223.767	25.312	903.456	719.956
224.782	25.421	902.691	719.719
225.796	25.592	902.202	719.951
226.811	25.587	901.760	719.513
227.826	25.084	900.805	716.678
228.840	24.295	899.177	712.168
229.855	24.306	898.315	711.464
230.869	24.615	898.134	712.491
231.884	24.330	896.865	710.286
232.899	24.401	896.453	710.180
233.913	25.264	896.569	713.643
234.928	25.419	896.391	714.054
235.942	25.236	895.537	712.584
236.957	25.183	895.148	712.000
237.972	24.995	893.914	710.213
238.986	24.810	893.348	708.967
240.001	25.027	892.670	709.225
241.015	24.938	892.306	708.521
242.030	25.065	891.509	708.325
243.045	25.155	891.456	708.579
244.059	25.318	890.886	708.706
245.074	25.520	890.286	708.962
246.088	25.340	889.974	707.941
247.103	25.021	888.870	705.742
248.117	25.040	888.050	705.106
249.132	25.533	888.472	707.319
250.147	25.930	888.238	708.628
251.161	26.119	886.926	708.261
252.176	26.144	886.854	708.238
253.190	26.204	886.182	707.874
254.205	26.175	886.250	707.756
255.220	26.358	885.392	707.723
256.234	26.231	885.123	706.947
257.249	26.182	884.219	705.971
258.263	26.169	883.487	705.274
259.278	26.269	882.714	704.987
260.293	26.336	882.248	704.813
261.307	26.361	881.770	704.467
262.322	26.182	880.894	703.006
263.336	26.135	880.239	702.239
264.351	25.599	879.278	699.325
265.366	24.380	877.648	693.232
266.380	24.133	876.279	691.132
267.395	25.013	876.841	694.932
268.409	25.793	877.184	698.164
269.424	25.893	875.977	697.529
270.439	25.876	875.518	697.037
271.453	26.058	874.911	697.197
272.468	26.164	873.822	696.677
273.482	26.148	873.951	696.656
274.497	26.359	873.568	697.103
275.512	26.171	872.461	695.431
276.526	25.566	871.183	692.025
277.541	25.749	870.831	692.387
278.555	25.985	871.060	693.416
279.570	25.911	869.935	692.176
280.585	25.632	869.345	690.574
281.599	25.898	868.949	691.219
282.614	25.949	868.979	691.378
283.628	25.452	867.670	688.373
284.643	25.067	866.572	685.963
285.657	25.683	866.691	688.355
286.672	25.542	865.414	686.742
287.687	24.899	864.723	683.680
288.701	25.319	864.698	685.201
289.716	25.714	864.437	686.439
290.730	25.408	863.635	684.577
291.745	25.155	863.330	683.312
292.760	25.101	861.568	681.650
293.774	24.932	861.120	680.592
294.789	25.992	861.784	685.089
295.803	26.551	861.782	687.148
296.818	26.410	861.778	686.549
297.833	26.650	860.981	686.761
298.847	26.454	860.082	685.245
299.862	26.146	858.936	683.105
300.876	26.009	859.041	682.607
301.891	26.589	858.330	684.176
302.906	26.726	857.626	684.073
303.920	26.185	856.737	681.262
304.935	26.170	856.042	680.591
305.949	26.419	855.949	681.394
306.964	26.535	855.647	681.531
307.979	26.279	854.610	679.684
308.993	26.229	854.144	679.064
310.008	26.519	854.056	680.024
311.022	26.755	853.489	680.397
312.037	26.311	853.248	678.481
313.052	26.291	852.599	677.829
314.066	26.229	851.292	676.496
315.081	25.415	849.854	672.251
316.095	24.784	848.388	668.674
317.110	25.296	848.877	670.912
318.125	26.133	848.924	674.017
319.139	25.878	847.787	672.105
320.154	24.626	846.169	666.097
321.168	24.188	845.581	663.943
322.183	24.785	845.699	666.202
323.197	25.713	846.240	670.025
324.212	26.103	845.542	670.864
325.227	26.124	845.549	670.890
326.241	26.492	844.925	671.701
327.256	26.364	844.706	670.992
328.270	26.134	843.745	669.316
329.285	26.001	843.113	668.262
330.300	25.924	842.300	667.277
331.314	25.693	841.414	665.659
332.329	25.768	840.850	665.432
333.343	26.223	840.382	666.684
334.358	26.396	840.142	667.073
335.373	26.510	839.727	667.102
336.387	26.384	839.292	666.235
337.402	26.588	839.136	666.803
338.416	26.923	838.686	667.621
339.431	26.860	838.156	666.907
340.446	26.812	837.558	666.197
341.460	27.139	837.212	667.063
342.475	26.994	836.366	665.795
343.489	26.829	835.603	664.525
344.504	26.861	835.097	664.183
345.519	27.051	834.987	664.731
346.533	27.101	834.972	664.844
347.548	27.428	834.082	665.270
348.562	27.287	833.670	664.367
349.577	27.283	832.830	663.627
350.592	27.193	832.412	662.905
351.606	27.229	832.108	662.735
352.621	27.304	831.460	662.436
353.635	27.022	831.172	661.119
354.650	26.956	830.532	660.311
355.665	26.530	829.656	658.010
356.679	25.635	827.895	653.306
357.694	25.573	827.326	652.575
358.708	26.223	827.158	654.742
359.723	26.285	826.251	654.187
360.738	26.243	826.565	654.229
361.752	26.714	826.449	655.782
362.767	26.893	826.137	656.125
363.781	27.173	825.832	656.839
364.796	27.531	825.239	657.598
365.810	27.492	825.455	657.572
366.825	27.587	824.992	657.488
367.840	27.507	825.097	657.224
368.854	27.373	824.047	655.848
369.869	27.170	822.945	654.183
370.883	26.892	822.261	652.580
371.898	26.947	821.885	652.420
372.913	26.909	821.223	651.701
373.927	26.850	820.758	651.065
374.942	27.129	820.140	651.515
375.956	27.180	819.334	651.001
376.971	27.246	819.029	650.936
377.986	27.322	818.930	651.073
379.000	27.569	818.289	651.388
380.015	27.625	817.670	651.038
381.029	27.442	816.760	649.605
382.044	27.291	816.551	648.841
383.059	27.505	816.191	649.261
384.073	27.526	815.845	649.001
385.088	27.543	815.359	648.619
386.102	27.516	814.378	647.685
387.117	27.385	813.805	646.706
388.132	27.298	813.249	645.900
389.146	27.128	812.617	644.737
390.161	26.585	811.300	641.710
391.175	26.582	811.185	641.554
392.190	27.254	810.928	643.671
393.205	27.220	810.607	643.239
394.219	26.107	809.166	638.106
395.234	24.580	806.754	630.762
396.248	23.822	805.777	627.268
397.263	24.873	806.329	631.353
398.278	26.737	808.063	639.233
399.292	27.298	807.771	640.923
400.307	26.854	806.963	638.665
401.321	26.852	806.448	638.191
402.336	26.764	806.423	637.805
403.350	27.129	806.504	639.097
404.365	27.472	806.378	640.148
405.380	27.812	806.214	641.155
406.394	28.093	806.015	641.927
407.409	28.374	805.293	642.281
408.423	28.250	804.291	640.989
409.438	28.179	804.047	640.492
410.453	28.151	804.158	640.424
411.467	28.130	803.717	639.942
412.482	28.220	802.856	639.516
413.496	28.119	802.325	638.683
414.511	28.382	802.040	639.318
415.526	28.374	801.431	638.746
416.540	28.236	801.436	638.213
417.555	28.200	800.579	637.350
418.569	27.834	800.254	635.759
419.584	27.819	799.458	635.020
420.599	27.958	798.831	634.949
421.613	110.400	1283.554	1453.770
422.628	95.199	1354.181	1453.896
