DTS Sentinel unit serial number:	SN413079Multiplexer serial number:	ORYXHardware model number:	OX4-SRSoftware version number:	ORYX F/W v4.00 Oryx Data Collector v3.7.2.0data status	okinstallation	princeton_trtdifferential loss correction	single-endedforward channel	channel 3reverse channel	N/Adate	2019/09/15time	01:56:35forward acquisition time	60.00reverse acquisition time	0.00gamma	496.2192k internal	0.2321k external	0.2321temperature offset calibration	0.9967default loss term (dB/km)	0.3790temperature slope calibration	1.0000multiplexer offset coefficient	1.0000multiplexer slope coefficient	1.0000fibre end	0.00T internal ref (°C)	31.75T ext. ref 1 (°C)	4.52T ext. ref 2 (°C)	26.66length (m)	temperature (°C)	Stokes	anti-Stokes-747.200	-200.000	0.055	-0.391
-746.185	-200.000	0.016	0.081
-745.171	404.599	-0.060	0.127
-744.156	-200.000	-0.015	-0.082
-743.142	-200.000	0.018	0.367
-742.127	-200.000	0.073	0.381
-741.112	800.000	0.065	0.181
-740.098	-200.000	0.004	-0.243
-739.083	-23.736	0.391	0.237
-738.069	-9.931	-0.336	0.226
-737.054	-200.000	0.055	0.281
-736.039	-19.803	0.110	-0.069
-735.025	128.014	-0.123	0.159
-734.010	740.954	0.058	0.158
-732.996	-31.345	-0.106	0.060
-731.981	-158.798	-0.450	-0.026
-730.966	-36.009	-0.261	0.143
-729.952	-200.000	0.013	-0.120
-728.937	-200.000	-0.011	-0.074
-727.923	770.282	-0.045	-0.125
-726.908	-77.611	-0.181	0.063
-725.894	800.000	-0.122	-0.346
-724.879	-90.508	-0.351	0.103
-723.864	800.000	0.065	-0.191
-722.850	417.332	-0.058	0.125
-721.835	-86.628	-0.071	0.022
-720.821	-200.000	-0.047	-0.249
-719.806	13.654	-0.112	-0.088
-718.791	371.391	-0.089	0.182
-717.777	-200.000	-0.005	-0.295
-716.762	-46.686	-0.289	-0.143
-715.748	15.507	-0.082	-0.065
-714.733	78.594	0.175	0.188
-713.718	-200.000	0.016	0.126
-712.704	-200.000	0.012	0.066
-711.689	-148.998	0.197	-0.016
-710.675	-200.000	0.013	0.321
-709.660	-0.104	0.200	-0.144
-708.645	23.782	-0.305	-0.253
-707.631	37.511	0.120	-0.107
-706.616	800.000	-0.026	-0.106
-705.602	-116.318	0.213	-0.040
-704.587	-200.000	-0.060	-0.311
-703.572	534.656	-0.101	-0.241
-702.558	63.480	-0.058	-0.058
-701.543	74.547	-0.225	-0.239
-700.529	-71.162	-0.099	0.038
-699.514	-193.670	-0.122	-0.001
-698.499	3.898	0.243	-0.179
-697.485	-104.956	0.213	-0.049
-696.470	599.102	-0.133	-0.334
-695.456	800.000	0.093	0.320
-694.441	-34.624	-0.119	0.066
-693.426	1.489	0.097	-0.070
-692.412	800.000	-0.031	-0.107
-691.397	138.647	-0.067	0.089
-690.383	131.039	0.149	0.193
-689.368	159.477	-0.093	-0.131
-688.354	39.972	0.143	0.130
-687.339	-49.530	-0.066	0.032
-686.324	-200.000	-0.008	-0.134
-685.310	-70.131	-0.356	0.137
-684.295	561.863	-0.114	-0.279
-683.281	-125.992	0.270	-0.041
-682.266	87.150	-0.225	-0.251
-681.251	-200.000	0.025	-0.171
-680.237	-136.059	-0.202	-0.024
-679.222	-182.079	-0.305	-0.006
-678.208	-177.865	-0.349	-0.008
-677.193	188.690	0.101	0.152
-676.178	-22.425	-0.238	-0.146
-675.164	14.380	-0.079	-0.062
-674.149	162.298	0.165	0.234
-673.135	115.028	-0.417	0.513
-672.120	497.310	0.043	0.100
-671.105	63.417	-0.048	-0.049
-670.091	-32.523	0.292	-0.164
-669.076	-82.925	-0.125	0.040
-668.062	-69.599	0.266	0.103
-667.047	800.000	-0.020	0.058
-666.032	800.000	-0.027	-0.083
-665.018	800.000	0.082	-0.257
-664.003	65.225	-0.238	-0.242
-662.989	-96.523	-0.276	0.073
-661.974	644.499	-0.052	0.133
-660.959	84.117	-0.144	-0.158
-659.945	-32.415	0.049	-0.027
-658.930	-88.864	0.313	0.094
-657.916	-147.586	0.101	-0.009
-656.901	69.485	-0.302	-0.313
-655.886	800.000	0.058	0.172
-654.872	11.018	0.209	-0.161
-653.857	-200.000	-0.041	-0.211
-652.843	-74.242	-0.310	0.113
-651.828	800.000	0.127	0.461
-650.814	-48.426	-0.175	0.085
-649.799	-200.000	-0.002	-0.042
-648.784	800.000	0.006	-0.026
-647.770	800.000	-0.020	-0.077
-646.755	-122.142	-0.174	0.029
-645.741	-152.533	-0.236	-0.017
-644.726	-200.000	0.021	0.246
-643.711	-200.000	0.021	-0.100
-642.697	-200.000	0.009	-0.254
-641.682	-64.643	0.284	-0.116
-640.668	66.995	0.119	-0.122
-639.653	-157.623	-0.178	0.011
-638.638	-69.629	0.343	0.132
-637.624	-68.153	-0.289	-0.113
-636.609	-200.000	-0.014	-0.141
-635.595	-200.000	-0.028	0.290
-634.580	-115.569	-0.315	-0.060
-633.565	-70.665	-0.050	0.019
-632.551	-87.510	0.097	-0.029
-631.536	800.000	0.029	0.086
-630.522	800.000	0.024	-0.085
-629.507	800.000	-0.088	0.335
-628.492	511.926	0.118	-0.278
-627.478	-96.895	-0.177	0.047
-626.463	-140.410	-0.385	-0.040
-625.449	-22.819	0.241	0.146
-624.434	98.327	0.248	-0.287
-623.419	150.291	-0.090	-0.123
-622.405	185.890	0.118	-0.176
-621.390	130.327	-0.139	-0.179
-620.376	-91.529	0.226	0.065
-619.361	-200.000	-0.007	-0.189
-618.346	156.411	0.094	-0.130
-617.332	-177.863	-0.442	-0.011
-616.317	94.098	-0.069	0.079
-615.303	393.259	0.127	0.265
-614.288	-200.000	-0.018	-0.201
-613.273	-51.126	0.291	-0.137
-612.259	54.344	-0.039	-0.038
-611.244	-200.000	0.028	0.320
-610.230	-200.000	-0.040	-0.188
-609.215	685.934	-0.106	0.279
-608.201	42.153	-0.251	-0.229
-607.186	-17.479	-0.158	-0.100
-606.171	341.242	-0.169	-0.332
-605.157	-200.000	-0.020	-0.420
-604.142	56.933	0.098	0.096
-603.128	800.000	0.004	0.014
-602.113	59.054	-0.060	0.059
-601.098	-93.705	-0.376	-0.104
-600.084	-45.485	0.164	-0.082
-599.069	-10.889	0.307	-0.204
-598.055	457.066	0.048	-0.107
-597.040	800.000	-0.037	-0.111
-596.025	28.626	-0.132	0.113
-595.011	-13.013	0.164	-0.107
-593.996	-200.000	0.042	0.360
-592.982	-200.000	0.033	-0.197
-591.967	-200.000	-0.011	0.087
-590.952	-7.867	-0.114	0.077
-589.938	-200.000	-0.002	-0.242
-588.923	-200.000	-0.359	-0.001
-587.909	156.726	0.179	-0.249
-586.894	800.000	0.052	0.162
-585.879	105.281	0.117	-0.139
-584.865	-200.000	-0.044	-0.375
-583.850	578.727	0.123	0.302
-582.836	-27.700	0.371	0.216
-581.821	53.911	0.168	-0.162
-580.806	-38.790	0.136	0.072
-579.792	-24.061	0.245	-0.147
-578.777	221.494	-0.143	-0.231
-577.763	-60.747	-0.082	-0.035
-576.748	800.000	-0.092	-0.295
-575.733	574.974	-0.123	0.301
-574.719	-200.000	0.050	-0.400
-573.704	-32.137	-0.106	-0.059
-572.690	30.146	-0.051	-0.044
-571.675	492.662	0.019	-0.044
-570.661	246.620	-0.143	-0.242
-569.646	262.273	-0.157	-0.274
-568.631	-200.000	0.012	-0.062
-567.617	457.575	-0.084	-0.188
-566.602	145.188	-0.032	0.044
-565.588	-200.000	0.021	-0.333
-564.573	455.526	-0.048	0.107
-563.558	-51.828	0.137	-0.064
-562.544	-108.784	0.345	-0.074
-561.529	-25.812	0.092	0.054
-560.515	-65.215	0.132	-0.053
-559.500	-53.489	-0.330	-0.152
-558.485	285.878	-0.143	0.258
-557.471	-18.622	0.066	-0.042
-556.456	83.393	0.123	-0.134
-555.442	369.552	0.071	0.144
-554.427	-200.000	-0.070	-0.353
-553.412	74.701	0.151	0.159
-552.398	183.257	-0.069	0.102
-551.383	-98.431	0.139	0.036
-550.369	-105.582	-0.162	0.037
-549.354	-200.000	0.007	-0.096
-548.339	68.491	-0.383	0.394
-547.325	489.796	0.109	-0.251
-546.310	211.140	-0.053	-0.084
-545.296	-59.508	0.338	-0.145
-544.281	303.622	-0.077	0.142
-543.266	-200.000	0.021	-0.289
-542.252	39.805	-0.167	0.151
-541.237	14.690	-0.172	0.135
-540.223	5.559	-0.317	-0.235
-539.208	-200.000	-0.041	-0.252
-538.193	-200.000	-0.028	0.154
-537.179	120.948	-0.119	-0.149
-536.164	-200.000	-0.034	0.324
-535.150	88.155	-0.139	-0.155
-534.135	-35.408	0.287	0.156
-533.121	112.055	0.156	-0.189
-532.106	-76.902	0.123	0.043
-531.091	-59.794	-0.129	0.055
-530.077	9.480	0.322	-0.245
-529.062	800.000	0.090	0.278
-528.048	105.624	-0.084	0.100
-527.033	-88.962	0.165	0.049
-526.018	202.081	-0.162	-0.251
-525.004	144.840	0.143	-0.192
-523.989	800.000	0.080	0.286
-522.975	-193.503	-0.360	0.003
-521.960	156.881	-0.137	-0.190
-520.945	-200.000	-0.008	0.114
-519.931	226.795	0.087	0.141
-518.916	-61.031	-0.205	0.087
-517.902	54.527	-0.115	0.111
-516.887	609.707	-0.061	-0.152
-515.872	-67.932	-0.019	-0.008
-514.858	-41.184	-0.284	0.147
-513.843	364.778	-0.084	0.169
-512.829	-158.109	0.235	-0.014
-511.814	241.160	0.183	-0.307
-510.799	800.000	0.050	-0.210
-509.785	477.790	-0.026	0.060
-508.770	85.363	0.274	0.301
-507.756	-162.019	-0.080	0.004
-506.741	537.140	0.086	-0.205
-505.726	-80.667	0.123	0.041
-504.712	-165.272	0.199	-0.009
-503.697	-200.000	-0.031	0.307
-502.683	24.417	-0.097	0.080
-501.668	-200.000	0.013	0.108
-500.653	310.779	0.195	0.366
-499.639	7.671	0.151	-0.113
-498.624	35.115	-0.139	-0.122
-497.610	-200.000	-0.044	-0.437
-496.595	-72.881	0.387	0.143
-495.581	-28.587	0.206	-0.119
-494.566	419.915	-0.165	-0.353
-493.551	-26.984	0.143	0.084
-492.537	-200.000	-0.024	0.112
-491.522	-97.513	-0.176	-0.046
-490.508	-55.493	-0.162	0.073
-489.493	-200.000	-0.023	-0.223
-488.478	-200.000	0.016	-0.200
-487.464	-200.000	0.018	0.141
-486.449	-117.042	0.080	-0.015
-485.435	125.622	0.281	-0.355
-484.420	8.695	-0.271	0.205
-483.405	545.232	0.014	-0.034
-482.391	-92.977	-0.194	-0.054
-481.376	-55.525	0.128	-0.057
-480.362	-197.497	0.073	-0.000
-479.347	-200.000	-0.006	-0.045
-478.332	-165.380	0.075	-0.003
-477.318	-58.598	-0.109	-0.047
-476.303	-88.380	0.147	0.044
-475.289	211.944	0.098	0.155
-474.274	239.149	-0.081	-0.135
-473.259	-105.357	-0.195	-0.044
-472.245	286.647	-0.044	0.079
-471.230	-27.947	-0.401	-0.232
-470.216	-30.539	0.360	-0.204
-469.201	-89.428	-0.396	-0.116
-468.186	-40.078	-0.384	0.200
-467.172	-200.000	0.067	0.328
-466.157	-200.000	0.054	0.305
-465.143	6.990	0.316	0.235
-464.128	-200.000	-0.014	0.413
-463.113	680.647	0.082	-0.214
-462.099	-35.391	0.227	-0.123
-461.084	158.127	0.210	0.291
-460.070	-27.327	0.353	0.205
-459.055	-22.907	0.286	0.173
-458.040	151.725	-0.162	0.221
-457.026	125.897	-0.074	0.093
-456.011	226.537	-0.199	-0.323
-454.997	-200.000	0.010	-0.179
-453.982	800.000	-0.026	0.107
-452.968	-200.000	0.094	0.454
-451.953	-129.744	-0.143	0.020
-450.938	223.782	-0.038	0.062
-449.924	-200.000	0.048	0.296
-448.909	-84.113	-0.328	-0.104
-447.895	27.014	-0.109	-0.092
-446.880	-200.000	0.024	0.183
-445.865	-150.462	-0.046	0.004
-444.851	-180.406	-0.394	0.008
-443.836	-58.411	-0.272	-0.118
-442.822	779.443	0.047	-0.128
-441.807	57.765	-0.139	0.135
-440.792	-97.657	0.128	0.033
-439.778	-152.353	-0.542	0.039
-438.763	-200.000	-0.032	-0.178
-437.749	-105.593	0.068	-0.015
-436.734	-48.190	0.315	-0.152
-435.719	800.000	-0.073	0.211
-434.705	508.267	0.101	-0.235
-433.690	800.000	0.060	0.205
-432.676	-200.000	-0.024	-0.170
-431.661	390.608	-0.208	0.430
-430.646	-109.939	-0.140	-0.029
-429.632	134.108	0.092	-0.119
-428.617	65.712	0.210	0.212
-427.603	-59.160	0.177	-0.076
-426.588	-83.789	0.130	-0.041
-425.573	-142.009	0.234	0.023
-424.559	-140.825	0.211	0.022
-423.544	-159.200	-0.156	0.009
-422.530	322.469	0.073	0.139
-421.515	-170.899	-0.209	-0.007
-420.500	241.035	-0.034	-0.056
-419.486	349.327	0.175	0.346
-418.471	698.763	-0.081	-0.213
-417.457	800.000	-0.075	-0.254
-416.442	-200.000	-0.023	-0.232
-415.428	-111.418	0.377	0.077
-414.413	5.115	-0.158	0.116
-413.398	-200.000	0.034	-0.163
-412.384	150.744	0.076	-0.103
-411.369	86.888	-0.433	-0.477
-410.355	-70.096	0.079	0.030
-409.340	90.597	0.058	-0.064
-408.325	-20.169	-0.198	-0.121
-407.311	150.753	0.053	-0.072
-406.296	154.842	-0.159	-0.218
-405.282	719.571	0.045	0.120
-404.267	-71.561	-0.358	0.133
-403.252	-200.000	-0.005	-0.078
-402.238	-163.609	-0.356	0.017
-401.223	800.000	0.047	0.179
-400.209	800.000	-0.022	0.090
-399.194	-200.000	0.032	-0.255
-398.179	-138.246	0.331	0.037
-397.165	-200.000	-0.013	-0.120
-396.150	-12.226	0.063	0.041
-395.136	800.000	0.071	-0.227
-394.121	87.212	0.017	-0.019
-393.106	800.000	0.020	-0.074
-392.092	100.809	-0.060	-0.069
-391.077	800.000	-0.057	0.237
-390.063	290.673	0.157	-0.284
-389.048	-86.706	-0.182	-0.056
-388.033	-121.344	-0.255	-0.042
-387.019	-161.743	-0.315	0.016
-386.004	-97.101	-0.221	0.058
-384.990	-168.739	0.173	0.007
-383.975	800.000	0.151	-0.425
-382.960	259.613	0.057	0.099
-381.946	101.912	0.097	0.112
-380.931	-143.834	0.148	0.014
-379.917	36.066	-0.148	0.130
-378.902	46.668	0.138	0.128
-377.888	800.000	0.026	0.102
-376.873	44.260	0.068	-0.062
-375.858	-143.557	-0.356	-0.034
-374.844	683.460	-0.118	0.307
-373.829	-200.000	-0.014	-0.097
-372.815	-31.119	0.063	-0.035
-371.800	245.071	0.095	0.160
-370.785	-132.573	-0.103	0.013
-369.771	482.101	0.108	0.243
-368.756	395.394	0.050	0.103
-367.742	26.705	0.117	-0.098
-366.727	800.000	0.059	-0.190
-365.712	652.466	0.089	0.228
-364.698	6.880	-0.365	0.271
-363.683	8.814	0.430	0.323
-362.669	-87.388	-0.278	-0.084
-361.654	59.982	0.280	0.276
-360.639	448.091	-0.097	0.213
-359.625	800.000	0.040	-0.140
-358.610	-2.036	0.168	0.118
-357.596	244.177	-0.166	0.278
-356.581	-42.330	0.168	-0.085
-355.566	5.270	-0.415	0.305
-354.552	-200.000	-0.009	0.131
-353.537	242.341	0.017	-0.029
-352.523	183.671	0.159	-0.234
-351.508	-200.000	-0.004	0.168
-350.493	-96.896	-0.358	-0.094
-349.479	120.592	-0.074	-0.091
-348.464	800.000	0.036	0.117
-347.450	-200.000	0.037	0.217
-346.435	56.564	0.141	-0.137
-345.420	-29.029	0.127	-0.073
-344.406	-200.000	0.007	-0.061
-343.391	-17.058	0.177	0.111
-342.377	-200.000	0.045	0.298
-341.362	49.316	-0.299	0.280
-340.348	-137.926	-0.142	-0.016
-339.333	33.875	0.182	-0.157
-338.318	-22.082	-0.043	-0.026
-337.304	-14.208	-0.220	-0.141
-336.289	800.000	-0.056	0.168
-335.275	-179.427	0.171	0.004
-334.260	23.014	-0.129	-0.105
-333.245	-134.383	0.195	0.024
-332.231	-200.000	0.008	-0.088
-331.216	-169.164	0.076	-0.003
-330.202	61.205	0.152	-0.150
-329.187	193.566	0.168	-0.253
-328.172	-116.187	0.240	0.044
-327.158	-200.000	0.009	0.203
-326.143	310.019	0.029	-0.053
-325.129	-200.000	0.016	0.078
-324.114	-139.250	0.107	-0.011
-323.099	-31.824	0.072	-0.040
-322.085	25.623	-0.133	-0.110
-321.070	179.375	0.103	0.150
-320.056	-12.336	-0.035	0.023
-319.041	45.748	0.062	0.057
-318.026	-34.036	0.338	-0.185
-317.012	221.731	0.146	-0.233
-315.997	60.451	-0.097	-0.095
-314.983	301.825	-0.069	-0.128
-313.968	-200.000	0.021	-0.340
-312.953	-200.000	-0.004	0.035
-311.939	-19.995	0.218	0.134
-310.924	-200.000	0.000	0.059
-309.910	-200.000	0.029	-0.246
-308.895	112.523	-0.256	0.308
-307.880	73.989	0.204	0.213
-306.866	-76.391	0.318	0.111
-305.851	131.080	0.063	-0.081
-304.837	800.000	-0.063	-0.199
-303.822	281.091	-0.172	0.307
-302.807	-200.000	-0.011	0.051
-301.793	-17.977	-0.177	-0.110
-300.778	71.705	0.028	0.029
-299.764	-151.836	-0.189	0.014
-298.749	489.443	-0.055	0.126
-297.735	800.000	0.108	0.300
-296.720	294.866	-0.116	0.210
-295.705	110.023	0.258	-0.307
-294.691	-13.366	0.257	0.166
-293.676	250.958	-0.061	0.103
-292.662	224.656	0.175	0.281
-291.647	-91.240	-0.272	0.077
-290.632	-200.000	0.061	-0.323
-289.618	115.914	-0.153	-0.186
-288.603	260.206	0.100	-0.172
-287.589	-84.323	0.234	-0.073
-286.574	125.885	-0.105	-0.132
-285.559	-53.177	-0.184	0.084
-284.545	3.049	-0.251	-0.181
-283.530	27.951	-0.020	-0.016
-282.516	80.881	-0.147	0.157
-281.501	-55.536	0.271	0.120
-280.486	-28.272	-0.104	-0.060
-279.472	-161.839	-0.168	0.008
-278.457	105.708	0.104	-0.122
-277.443	-200.000	0.020	0.096
-276.428	-26.688	0.046	0.027
-275.413	239.856	0.087	-0.144
-274.399	800.000	-0.059	0.222
-273.384	-61.906	-0.272	0.113
-272.370	126.654	-0.297	-0.373
-271.355	148.713	-0.166	-0.222
-270.340	-38.340	-0.080	0.042
-269.326	-20.074	0.254	-0.156
-268.311	-104.529	0.346	0.079
-267.297	-93.173	-0.400	0.110
-266.282	503.650	0.119	-0.274
-265.267	-165.360	-0.055	-0.002
-264.253	800.000	0.057	0.167
-263.238	-9.157	-0.151	0.100
-262.224	-200.000	0.023	0.185
-261.209	198.810	0.041	0.063
-260.195	166.366	-0.035	-0.050
-259.180	59.206	0.110	0.108
-258.165	-25.357	0.011	0.007
-257.151	-67.581	-0.397	-0.154
-256.136	-200.000	0.048	-0.213
-255.122	-200.000	0.006	0.062
-254.107	9.501	-0.167	-0.125
-253.092	-138.131	0.117	-0.013
-252.078	99.815	0.166	0.191
-251.063	800.000	-0.068	0.239
-250.049	-102.677	0.389	0.092
-249.034	-200.000	0.004	-0.082
-248.019	341.867	0.137	0.265
-247.005	59.918	0.067	-0.066
-245.990	-200.000	0.045	-0.279
-244.976	800.000	0.069	0.224
-243.961	146.270	0.233	-0.310
-242.946	125.476	0.154	-0.192
-241.932	-200.000	0.037	-0.245
-240.917	-111.397	-0.460	0.093
-239.903	-66.574	-0.239	-0.094
-238.888	-77.926	0.190	-0.065
-237.873	143.848	0.093	0.123
-236.859	-24.871	-0.180	0.106
-235.844	-59.898	0.039	0.016
-234.830	193.680	0.116	0.173
-233.815	610.796	-0.108	0.269
-232.800	-146.510	0.273	-0.024
-231.786	-169.121	0.311	0.011
-230.771	53.205	-0.175	-0.166
-229.757	800.000	0.064	-0.263
-228.742	-31.532	0.137	0.076
-227.727	344.157	-0.130	-0.252
-226.713	800.000	0.069	0.195
-225.698	-86.061	-0.165	-0.050
-224.684	166.001	-0.062	-0.087
-223.669	357.812	-0.175	0.346
-222.655	-2.009	0.199	0.138
-221.640	286.956	0.157	0.282
-220.625	195.159	-0.186	0.280
-219.611	174.331	-0.083	0.119
-218.596	800.000	0.116	0.343
-217.582	-48.974	-0.183	0.087
-216.567	-66.933	0.267	0.104
-215.552	-176.951	0.160	-0.004
-214.538	-82.587	-0.304	-0.097
-213.523	-111.457	0.109	0.022
-212.509	-101.760	0.088	-0.021
-211.494	713.763	0.059	0.154
-210.479	36.276	0.060	-0.052
-209.465	-200.000	-0.036	0.161
-208.450	106.207	-0.166	0.194
-207.436	86.375	-0.285	0.311
-206.421	356.787	0.049	-0.096
-205.406	-165.755	0.261	0.011
-204.392	111.849	-0.207	-0.248
-203.377	800.000	0.148	-0.408
-202.363	-18.430	-0.180	0.111
-201.348	492.287	-0.039	-0.089
-200.333	-141.082	0.123	0.012
-199.319	-15.363	0.056	0.035
-198.304	12.534	0.359	-0.274
-197.290	-45.918	-0.297	-0.145
-196.275	98.183	0.141	0.161
-195.260	352.638	0.168	0.330
-194.246	800.000	0.022	-0.079
-193.231	-200.000	-0.041	-0.346
-192.217	41.958	0.103	-0.093
-191.202	800.000	0.009	0.028
-190.187	45.871	0.180	0.165
-189.173	104.562	-0.302	-0.352
-188.158	-200.000	0.011	0.119
-187.144	-111.660	-0.111	-0.022
-186.129	-13.798	-0.078	-0.050
-185.114	-200.000	-0.039	0.240
-184.100	-200.000	0.033	0.324
-183.085	94.334	0.155	0.174
-182.071	-82.292	-0.057	-0.018
-181.056	64.452	-0.151	0.150
-180.042	-200.000	-0.007	0.308
-179.027	-161.206	-0.429	-0.022
-178.012	-106.299	-0.098	0.022
-176.998	195.023	-0.063	-0.094
-175.983	-20.228	-0.271	0.165
-174.969	-163.234	0.150	-0.007
-173.954	-113.700	0.142	0.027
-172.939	48.199	0.142	-0.131
-171.925	800.000	0.049	-0.185
-170.910	-46.122	0.242	-0.118
-169.896	118.381	0.100	0.122
-168.881	118.573	-0.213	-0.260
-167.866	378.962	0.199	0.403
-166.852	24.768	-0.235	0.193
-165.837	83.875	0.103	-0.111
-164.823	-20.841	0.159	0.097
-163.808	64.158	-0.168	0.167
-162.793	-89.977	0.034	0.010
-161.779	-46.423	0.047	-0.023
-160.764	74.897	0.088	-0.091
-159.750	167.196	-0.063	0.088
-158.735	-112.478	0.511	0.101
-157.720	800.000	0.059	-0.193
-156.706	-94.977	0.049	0.013
-155.691	-161.875	-0.142	-0.007
-154.677	82.291	0.158	-0.169
-153.662	-200.000	-0.013	0.148
-152.647	142.875	-0.192	0.252
-151.633	-200.000	0.050	0.243
-150.618	285.456	-0.099	-0.175
-149.604	-18.716	0.195	0.120
-148.589	83.678	0.146	-0.158
-147.574	-43.555	0.194	-0.096
-146.560	-72.201	-0.239	0.087
-145.545	-53.468	-0.333	0.150
-144.531	-200.000	0.023	0.142
-143.516	-73.436	-0.081	-0.029
-142.502	-157.140	0.163	0.010
-141.487	800.000	0.030	-0.106
-140.472	26.044	0.200	-0.165
-139.458	173.516	0.060	-0.085
-138.443	88.843	-0.121	0.133
-137.429	-61.465	-0.115	0.048
-136.414	-146.486	-0.181	-0.016
-135.399	-200.000	-0.043	0.624
-134.385	631.585	0.033	0.082
-133.370	-200.000	0.004	-0.194
-132.356	-33.715	-0.197	0.107
-131.341	800.000	-0.074	-0.210
-130.326	-200.000	-0.017	0.124
-129.312	-38.329	-0.150	-0.079
-128.297	-200.000	-0.048	0.413
-127.283	44.005	-0.204	-0.184
-126.268	160.892	0.129	-0.178
-125.253	38.090	-0.134	0.118
-124.239	157.872	0.173	0.237
-123.224	475.371	0.070	0.157
-122.210	-91.358	0.337	-0.095
-121.195	-200.000	0.051	0.440
-120.180	571.355	0.020	0.048
-119.166	21.990	0.163	-0.131
-118.151	276.521	-0.044	0.077
-117.137	24.859	-0.194	0.158
-116.122	-200.000	0.009	-0.110
-115.107	129.440	-0.189	0.238
-114.093	-63.775	0.463	0.187
-113.078	-91.351	0.245	-0.069
-112.064	800.000	-0.028	0.113
-111.049	-200.000	0.009	-0.069
-110.034	232.144	-0.188	-0.304
-109.020	-55.196	-0.278	0.123
-108.005	800.000	0.019	0.071
-106.991	584.374	0.025	0.061
-105.976	176.285	-0.121	0.173
-104.962	107.542	0.249	0.292
-103.947	-26.871	0.262	-0.151
-102.932	-3.163	-0.386	-0.265
-101.918	800.000	-0.090	0.337
-100.903	25.194	0.246	0.201
-99.889	337.845	0.012	0.023
-98.874	735.135	0.013	-0.034
-97.859	-1.690	-0.109	-0.076
-96.845	-138.603	0.133	0.014
-95.830	-101.145	0.188	-0.045
-94.816	-60.532	0.082	-0.034
-93.801	-120.553	0.288	0.048
-92.786	27.668	-0.272	0.225
-91.772	-151.650	-0.245	0.018
-90.757	-92.218	-0.204	0.057
-89.743	297.849	-0.056	-0.101
-88.728	9.469	-0.081	-0.060
-87.713	318.049	-0.077	0.143
-86.699	290.910	0.217	0.389
-85.684	800.000	0.088	-0.268
-84.670	-160.921	0.129	-0.007
-83.655	66.439	0.176	0.176
-82.640	-70.880	-0.130	0.048
-81.626	-121.123	0.205	-0.034
-80.611	93.828	-0.248	-0.277
-79.597	86.511	0.090	-0.097
-78.582	-11.393	-0.176	0.114
-77.567	26.439	-0.254	0.209
-76.553	-70.835	-0.019	0.007
-75.538	-96.143	0.280	-0.073
-74.524	-82.611	-0.327	0.104
-73.509	-200.000	0.028	0.348
-72.494	-192.117	0.173	-0.002
-71.480	-144.328	-0.340	0.031
-70.465	-200.000	0.005	0.063
-69.451	800.000	0.014	-0.057
-68.436	-144.151	-0.127	0.012
-67.422	-48.594	-0.272	-0.129
-66.407	-200.000	0.010	-0.202
-65.392	56.408	-0.165	-0.158
-64.378	371.650	-0.054	-0.108
-63.363	-85.814	-0.043	0.013
-62.349	208.915	0.203	0.312
-61.334	32.768	-0.922	-0.785
-60.319	204.071	0.347	0.529
-59.305	-200.000	-0.198	-1.059
-58.290	320.682	0.611	1.142
-57.276	697.463	0.703	1.818
-56.261	-200.000	96.749	603.746
-55.246	647.494	1377.774	3464.568
-54.232	198.110	2554.548	3841.958
-53.217	119.919	2158.891	2633.210
-52.203	42.622	1702.449	1524.413
-51.188	35.034	1514.942	1304.984
-50.173	32.678	1487.861	1265.805
-49.159	51.951	1537.620	1440.156
-48.144	53.816	1555.341	1469.435
-47.130	35.104	1515.006	1305.307
-46.115	32.085	1499.876	1271.809
-45.100	31.809	1496.673	1267.173
-44.086	31.736	1495.294	1265.467
-43.071	31.816	1492.661	1263.726
-42.057	31.815	1490.857	1262.138
-41.042	31.766	1489.852	1260.913
-40.027	31.773	1488.309	1259.600
-39.013	31.686	1487.362	1258.165
-37.998	31.759	1485.576	1257.092
-36.984	31.871	1484.442	1256.836
-35.969	31.801	1482.868	1254.985
-34.954	31.722	1482.175	1253.820
-33.940	31.747	1480.617	1252.620
-32.925	31.784	1478.951	1251.410
-31.911	31.817	1477.685	1250.505
-30.896	31.792	1476.468	1249.261
-29.881	31.920	1474.542	1248.435
-28.867	31.821	1473.551	1246.886
-27.852	31.746	1472.341	1245.316
-26.838	31.784	1470.810	1244.225
-25.823	31.809	1469.648	1243.356
-24.809	31.856	1467.594	1241.882
-23.794	31.781	1466.460	1240.372
-22.779	31.742	1464.884	1238.733
-21.765	31.803	1464.035	1238.368
-20.750	31.795	1462.593	1237.046
-19.736	31.871	1461.693	1236.737
-18.721	31.693	1460.880	1234.833
-17.706	31.730	1459.290	1233.682
-16.692	31.733	1458.673	1233.132
-15.677	31.848	1457.037	1232.451
-14.663	31.723	1456.177	1230.855
-13.648	31.720	1455.306	1230.055
-12.633	31.710	1454.606	1229.343
-11.619	31.718	1453.861	1228.721
-10.604	31.767	1452.937	1228.214
-9.590	31.634	1452.094	1226.582
-8.575	31.749	1451.309	1226.619
-7.560	31.638	1450.707	1225.335
-6.546	31.622	1449.173	1223.885
-5.531	31.549	1448.919	1223.149
-4.517	31.588	1447.435	1222.100
-3.502	31.641	1446.612	1221.705
-2.487	31.672	1445.740	1221.119
-1.473	31.651	1444.817	1220.155
-0.458	31.697	1443.114	1218.966
0.556	30.373	1433.156	1207.753
1.571	27.409	1407.571	1167.117
2.586	24.015	1347.817	1096.595
3.600	22.303	1267.060	1020.874
4.615	20.881	1222.132	976.622
5.629	18.058	1166.526	916.981
6.644	10.869	1083.450	815.650
7.659	5.307	1044.381	759.208
8.673	4.612	1039.341	752.117
9.688	4.599	1036.349	749.822
10.702	4.421	1034.930	747.869
11.717	4.458	1032.894	746.513
12.731	6.534	1034.445	757.552
13.746	13.269	1044.095	797.122
14.761	18.335	1049.425	825.607
15.775	18.371	1048.725	825.157
16.790	17.254	1046.886	818.266
17.804	16.167	1044.974	811.469
18.819	15.370	1042.770	805.861
19.834	14.901	1041.560	802.602
20.848	14.708	1040.360	800.684
21.863	14.263	1039.858	798.092
22.877	14.210	1038.962	797.079
23.892	14.171	1037.767	795.906
24.907	13.903	1037.227	794.141
25.921	13.905	1036.716	793.686
26.936	14.007	1035.640	793.280
27.950	14.086	1034.806	792.948
28.965	13.944	1034.234	791.762
29.980	14.203	1032.428	791.544
30.994	14.302	1031.494	791.226
32.009	14.286	1030.919	790.639
33.023	14.232	1030.216	789.774
34.038	14.373	1029.347	789.709
35.053	14.253	1028.560	788.466
36.067	14.031	1027.531	786.556
37.082	14.122	1026.675	786.262
38.096	14.072	1025.975	785.421
39.111	14.308	1024.937	785.668
40.126	14.322	1023.523	784.583
41.140	14.179	1022.788	783.278
42.155	13.867	1021.868	781.037
43.169	13.877	1020.655	780.084
44.184	13.774	1020.195	779.179
45.199	13.802	1018.992	778.326
46.213	13.874	1017.565	777.505
47.228	13.919	1016.781	777.045
48.242	14.027	1015.739	776.688
49.257	14.053	1014.990	776.165
50.271	14.000	1014.059	775.136
51.286	14.146	1012.527	774.576
52.301	14.171	1011.985	774.211
53.315	14.151	1011.411	773.610
54.330	14.131	1010.378	772.659
55.344	14.005	1009.855	771.606
56.359	13.975	1008.689	770.508
57.374	14.084	1008.057	770.461
58.388	14.012	1007.261	769.454
59.403	13.886	1006.666	768.344
60.417	13.906	1005.878	767.768
61.432	13.931	1004.897	767.068
62.447	13.851	1004.041	765.977
63.461	13.789	1003.535	765.240
64.476	13.808	1002.432	764.416
65.490	13.747	1001.800	763.587
66.505	13.695	1000.961	762.642
67.520	13.897	999.575	762.445
68.534	13.881	999.201	762.019
69.549	13.811	998.711	761.255
70.563	13.829	998.072	760.785
71.578	13.745	997.204	759.669
72.593	13.709	996.521	758.916
73.607	13.800	995.114	758.195
74.622	13.623	994.321	756.714
75.636	13.695	993.568	756.405
76.651	13.704	992.710	755.724
77.666	13.718	991.839	755.061
78.680	13.854	991.125	755.066
79.695	13.688	991.293	754.375
80.709	13.719	990.265	753.665
81.724	13.989	989.519	754.259
82.739	13.896	988.867	753.272
83.753	13.941	988.112	752.832
84.768	13.978	987.659	752.588
85.782	14.152	986.652	752.542
86.797	14.183	986.217	752.284
87.812	14.301	984.856	751.713
88.826	14.100	984.486	750.458
89.841	14.151	983.505	749.871
90.855	14.071	982.821	748.926
91.870	14.202	982.277	749.034
92.884	14.099	981.463	747.880
93.899	14.260	980.564	747.855
94.914	14.285	979.983	747.458
95.928	14.285	979.164	746.765
96.943	14.288	978.871	746.491
97.957	14.243	977.763	745.376
98.972	14.298	976.673	744.728
99.987	14.098	976.485	743.624
101.001	14.263	975.972	743.905
102.016	14.237	974.883	742.892
103.030	14.200	973.893	741.909
104.045	14.251	973.040	741.421
105.060	14.268	972.067	740.690
106.074	14.229	971.360	739.909
107.089	14.170	970.518	738.942
108.103	14.038	969.261	737.335
109.118	13.898	968.317	735.931
110.133	13.936	967.579	735.470
111.147	13.797	967.221	734.520
112.162	13.894	966.078	734.017
113.176	13.784	965.219	732.813
114.191	13.965	964.403	732.925
115.206	14.077	963.192	732.434
116.220	13.969	962.723	731.538
117.235	14.134	961.747	731.459
118.249	14.030	961.165	730.492
119.264	14.000	960.092	729.483
120.279	13.927	959.492	728.639
121.293	13.859	958.713	727.684
122.308	13.900	957.862	727.154
123.322	13.887	957.095	726.451
124.337	13.753	955.797	724.817
125.352	13.813	954.667	724.158
126.366	13.890	953.834	723.799
127.381	13.929	952.208	722.667
128.395	13.831	951.824	721.890
129.410	13.914	950.247	720.988
130.424	13.755	949.871	719.949
131.439	13.954	949.068	720.139
132.454	14.009	948.248	719.691
133.468	13.960	947.807	719.081
134.483	14.010	947.130	718.721
135.497	14.171	945.980	718.480
136.512	14.065	945.542	717.626
137.527	13.946	945.119	716.726
138.541	13.956	944.321	716.101
139.556	13.964	943.615	715.537
140.570	14.052	942.475	714.988
141.585	14.066	941.521	714.263
142.600	14.104	941.377	714.251
143.614	14.245	940.842	714.388
144.629	14.277	939.964	713.796
145.643	14.407	938.605	713.259
146.658	14.225	938.219	712.122
147.673	14.262	937.157	711.412
148.687	14.202	936.429	710.540
149.702	14.188	935.368	709.614
150.716	14.075	934.497	708.406
151.731	14.059	934.080	707.960
152.746	14.051	933.191	707.190
153.760	14.140	932.215	706.767
154.775	14.163	931.880	706.547
155.789	14.239	931.098	706.214
156.804	14.355	930.095	705.881
157.819	14.262	929.299	704.822
158.833	14.292	928.824	704.525
159.848	14.323	928.343	704.231
160.862	14.409	927.663	704.013
161.877	14.291	926.919	702.892
162.892	14.152	926.009	701.553
163.906	14.236	924.924	701.021
164.921	14.053	924.595	699.940
165.935	14.245	923.301	699.704
166.950	14.129	922.439	698.504
167.964	14.276	921.398	698.269
168.979	14.297	920.278	697.446
169.994	14.307	919.300	696.686
171.008	14.268	918.533	695.881
172.023	14.264	917.818	695.259
173.037	14.331	916.969	694.836
174.052	14.487	916.655	695.186
175.067	14.379	916.324	694.421
176.081	14.208	915.064	692.695
177.096	14.099	914.393	691.673
178.110	14.020	913.743	690.793
179.125	14.142	912.965	690.651
180.140	14.291	911.994	690.470
181.154	14.281	911.426	689.937
182.169	14.334	911.064	689.821
183.183	14.338	910.525	689.369
184.198	14.527	909.596	689.389
185.213	14.371	909.295	688.454
186.227	14.576	908.081	688.319
187.242	14.420	908.339	687.811
188.256	14.657	907.303	687.942
189.271	14.531	907.071	687.185
190.286	14.821	905.865	687.404
191.300	14.604	905.019	685.811
192.315	14.294	903.927	683.649
193.329	14.300	903.084	682.976
194.344	14.248	902.816	682.499
195.359	14.197	902.363	681.885
196.373	14.358	901.768	682.038
197.388	14.483	901.358	682.179
198.402	14.557	901.232	682.324
199.417	14.655	900.610	682.193
200.432	14.821	900.304	682.581
201.446	14.791	899.775	681.997
202.461	14.841	899.465	681.903
203.475	14.839	898.908	681.412
204.490	14.894	898.060	680.934
205.504	14.906	897.238	680.299
206.519	14.709	896.712	679.041
207.534	14.809	895.817	678.708
208.548	14.776	894.997	677.893
209.563	14.710	894.680	677.326
210.577	14.683	894.054	676.683
211.592	14.750	893.036	676.121
212.607	14.827	892.931	676.297
213.621	14.886	892.208	675.926
214.636	15.063	891.229	675.838
215.650	14.974	890.751	675.056
216.665	14.918	890.678	674.717
217.680	14.891	889.910	673.967
218.694	15.121	888.894	674.064
219.709	14.909	888.959	673.200
220.723	15.048	888.212	673.134
221.738	14.953	887.330	672.024
222.753	14.975	886.772	671.630
223.767	14.938	885.850	670.725
224.782	15.014	884.934	670.275
225.796	15.052	884.542	670.072
226.811	15.234	883.618	670.041
227.826	15.169	883.344	669.513
228.840	14.978	882.519	668.067
229.855	15.133	881.502	667.856
230.869	15.045	881.288	667.282
231.884	15.135	880.216	666.772
232.899	15.111	879.652	666.189
233.913	15.003	879.152	665.321
234.928	15.046	878.208	664.722
235.942	14.921	877.773	663.837
236.957	15.075	876.969	663.780
237.972	14.995	876.460	663.017
238.986	14.923	876.209	662.485
240.001	14.934	875.610	662.018
241.015	14.937	874.733	661.308
242.030	15.181	873.674	661.412
243.045	15.216	872.923	660.924
244.059	15.110	872.599	660.201
245.074	15.041	872.400	659.720
246.088	15.171	871.413	659.425
247.103	15.274	870.485	659.072
248.117	15.377	870.326	659.297
249.132	15.226	870.248	658.584
250.147	15.512	869.095	658.778
251.161	15.600	868.517	658.627
252.176	15.766	867.801	658.676
253.190	15.709	867.280	657.999
254.205	15.768	867.002	657.958
255.220	15.649	866.417	656.993
256.234	15.628	865.725	656.326
257.249	15.755	865.453	656.559
258.263	15.780	864.599	655.950
259.278	15.757	863.942	655.302
260.293	15.727	863.711	654.955
261.307	15.804	862.952	654.619
262.322	15.731	862.556	653.979
263.336	15.891	861.796	653.965
264.351	15.881	861.254	653.457
265.366	15.998	860.770	653.486
266.380	15.861	860.154	652.429
267.395	15.781	859.378	651.472
268.409	15.964	858.167	651.206
269.424	15.958	857.708	650.776
270.439	15.759	856.982	649.401
271.453	15.848	856.372	649.226
272.468	15.921	855.639	648.892
273.482	15.789	855.061	647.890
274.497	15.770	854.497	647.329
275.512	15.789	853.802	646.819
276.526	15.715	853.095	645.942
277.541	15.775	852.795	645.888
278.555	15.758	852.378	645.449
279.570	15.907	851.648	645.413
280.585	16.000	851.206	645.375
281.599	16.182	850.355	645.368
282.614	16.089	849.944	644.644
283.628	15.984	849.030	643.495
284.643	16.138	848.397	643.543
285.657	16.081	848.014	642.980
286.672	15.866	847.848	641.978
287.687	15.886	847.757	641.927
288.701	16.001	846.832	641.606
289.716	16.057	845.742	640.937
290.730	16.111	845.671	641.034
291.745	16.183	844.600	640.440
292.760	16.282	843.639	640.028
293.774	16.128	843.275	639.113
294.789	16.163	842.939	638.934
295.803	16.175	842.304	638.442
296.818	16.048	842.093	637.744
297.833	16.050	841.241	637.050
298.847	16.077	840.696	636.682
299.862	16.200	839.838	636.441
300.876	16.187	839.086	635.767
301.891	16.352	838.683	636.023
302.906	16.353	838.454	635.799
303.920	16.239	837.742	634.774
304.935	16.441	836.900	634.840
305.949	16.513	836.495	634.744
306.964	16.447	835.635	633.791
307.979	16.518	835.037	633.548
308.993	16.327	834.843	632.629
310.008	16.453	834.392	632.702
311.022	16.509	833.898	632.481
312.037	16.487	833.296	631.887
313.052	16.369	833.078	631.222
314.066	16.507	831.763	630.686
315.081	16.391	831.212	629.779
316.095	16.330	830.816	629.196
317.110	16.307	830.340	628.697
318.125	16.314	829.885	628.321
319.139	16.313	829.518	627.985
320.154	16.339	829.212	627.792
321.168	16.297	828.326	626.911
322.183	16.491	827.720	627.116
323.197	16.503	827.333	626.811
324.212	16.455	826.880	626.237
325.227	16.533	826.489	626.174
326.241	16.403	825.673	625.020
327.256	16.514	825.105	624.943
328.270	16.428	824.666	624.240
329.285	16.449	824.120	623.847
330.300	16.453	823.740	623.518
331.314	16.378	822.901	622.554
332.329	16.481	822.502	622.575
333.343	16.532	821.871	622.229
334.358	16.635	821.243	622.078
335.373	16.620	820.736	621.585
336.387	16.783	820.007	621.576
337.402	16.714	819.810	621.116
338.416	16.722	819.447	620.817
339.431	16.790	818.613	620.378
340.446	16.962	817.999	620.489
341.460	17.062	817.339	620.299
342.475	17.093	816.875	620.003
343.489	16.959	816.192	618.941
344.504	16.997	816.077	618.939
345.519	16.993	815.863	618.707
346.533	17.101	814.817	618.254
347.548	17.040	814.372	617.637
348.562	17.066	814.020	617.410
349.577	16.947	813.497	616.526
350.592	16.815	813.025	615.634
351.606	16.685	812.601	614.789
352.621	16.901	811.808	614.917
353.635	16.876	811.305	614.390
354.650	17.013	810.994	614.595
355.665	17.041	810.683	614.408
356.679	16.989	810.434	613.978
357.694	16.942	809.768	613.249
358.708	16.979	809.302	612.974
359.723	17.150	808.345	612.811
360.738	17.199	807.944	612.630
361.752	16.946	807.889	611.624
362.767	17.048	807.533	611.667
363.781	17.115	807.093	611.521
364.796	17.177	806.365	611.140
365.810	17.319	805.868	611.220
366.825	17.323	805.773	611.107
367.840	17.350	805.508	610.949
368.854	17.430	804.762	610.616
369.869	17.286	804.476	609.828
370.883	17.147	803.748	608.722
371.898	17.189	803.507	608.638
372.913	17.280	802.627	608.244
373.927	17.345	801.880	607.854
374.942	17.503	801.159	607.819
375.956	17.589	800.647	607.684
376.971	17.314	800.589	606.604
377.986	17.538	800.024	606.920
379.000	17.614	799.418	606.678
380.015	17.590	798.884	606.134
381.029	17.535	798.299	605.442
382.044	17.576	797.896	605.227
383.059	17.496	797.249	604.400
384.073	17.634	796.695	604.416
385.088	17.606	795.924	603.679
386.102	17.495	795.250	602.721
387.117	17.462	795.044	602.393
388.132	17.544	794.685	602.359
389.146	17.509	794.377	601.948
390.161	17.444	793.901	601.305
391.175	17.486	793.484	601.085
392.190	17.677	792.999	601.339
393.205	17.615	792.485	600.677
394.219	17.574	792.081	600.173
395.234	17.777	791.697	600.542
396.248	17.426	791.268	598.931
397.263	17.576	790.505	598.827
398.278	17.329	790.386	597.813
399.292	17.374	789.845	597.509
400.307	17.404	789.225	597.095
401.321	17.456	788.811	596.909
402.336	17.487	788.682	596.868
403.350	17.489	788.493	596.681
404.365	17.718	787.621	596.770
405.380	17.690	787.422	596.467
406.394	17.748	787.097	596.371
407.409	17.691	786.676	595.800
408.423	17.811	785.795	595.497
409.438	18.036	785.633	596.108
410.453	17.921	785.499	595.551
411.467	18.023	784.641	595.204
412.482	17.883	784.331	594.430
413.496	18.041	783.954	594.642
414.511	18.016	783.534	594.182
415.526	18.109	783.466	594.402
416.540	18.114	782.548	593.672
417.555	18.038	782.305	593.171
418.569	18.084	781.606	592.746
419.584	18.059	781.272	592.355
420.599	18.104	780.946	592.210
421.613	155.953	1369.143	1794.589
422.628	134.593	1454.851	1794.681
