DTS Sentinel unit serial number:	SN413079Multiplexer serial number:	ORYXHardware model number:	OX4-SRSoftware version number:	ORYX F/W v4.00 Oryx Data Collector v3.7.2.0data status	okinstallation	princeton_trtdifferential loss correction	single-endedforward channel	channel 3reverse channel	N/Adate	2019/09/14time	20:52:35forward acquisition time	60.00reverse acquisition time	0.00gamma	496.2192k internal	0.2317k external	0.2317temperature offset calibration	1.0003default loss term (dB/km)	0.3790temperature slope calibration	1.0000multiplexer offset coefficient	1.0000multiplexer slope coefficient	1.0000fibre end	0.00T internal ref (°C)	33.25T ext. ref 1 (°C)	4.80T ext. ref 2 (°C)	27.95length (m)	temperature (°C)	Stokes	anti-Stokes-747.200	120.417	-0.088	0.111
-746.185	94.817	0.221	0.255
-745.171	-123.713	0.358	0.057
-744.156	109.128	-0.191	0.232
-743.142	-200.000	0.013	-0.095
-742.127	-129.699	0.063	0.009
-741.112	79.988	0.125	-0.136
-740.098	601.985	0.071	0.179
-739.083	-115.323	0.057	0.011
-738.069	-200.000	0.002	-0.049
-737.054	-90.984	-0.335	-0.097
-736.039	-115.842	-0.211	0.040
-735.025	-104.175	0.243	0.057
-734.010	4.859	-0.258	-0.192
-732.996	9.160	0.265	-0.203
-731.981	-50.098	0.056	-0.027
-730.966	800.000	-0.068	-0.244
-729.952	-33.025	-0.160	0.090
-728.937	417.459	-0.040	0.087
-727.923	-14.725	0.158	-0.103
-726.908	525.801	-0.114	0.271
-725.894	2.266	-0.446	-0.326
-724.879	37.337	-0.158	-0.142
-723.864	18.057	0.062	0.050
-722.850	800.000	-0.018	0.053
-721.835	-106.198	-0.184	0.042
-720.821	-37.020	-0.132	-0.071
-719.806	158.818	-0.104	0.147
-718.791	-2.448	0.077	-0.054
-717.777	-50.290	0.114	-0.055
-716.762	-142.760	-0.147	0.014
-715.748	-67.553	0.266	-0.106
-714.733	344.206	-0.142	0.281
-713.718	372.522	0.105	0.215
-712.704	-27.737	-0.264	0.155
-711.689	68.341	0.298	0.308
-710.675	-200.000	0.043	-0.205
-709.660	-28.760	0.263	-0.153
-708.645	142.665	0.116	-0.157
-707.631	800.000	0.114	-0.338
-706.616	131.460	0.028	0.037
-705.602	261.857	0.124	0.217
-704.587	-128.683	0.134	-0.019
-703.572	-152.326	0.169	0.012
-702.558	28.647	-0.312	0.267
-701.543	-19.982	0.048	0.030
-700.529	277.392	-0.070	-0.126
-699.514	800.000	-0.021	-0.075
-698.499	16.028	0.243	-0.193
-697.485	-22.167	0.202	-0.124
-696.470	141.300	0.196	-0.262
-695.456	-200.000	0.006	-0.250
-694.441	-60.597	-0.107	0.046
-693.426	6.265	-0.069	0.052
-692.412	-52.613	-0.204	-0.095
-691.397	800.000	0.064	-0.261
-690.383	123.765	-0.109	-0.138
-689.368	-120.119	-0.116	0.020
-688.354	-200.000	-0.018	0.184
-687.339	-200.000	-0.029	-0.288
-686.324	-200.000	0.013	0.115
-685.310	759.642	-0.012	-0.033
-684.295	-154.423	-0.106	0.007
-683.281	-61.909	0.275	0.116
-682.266	8.139	-0.147	-0.112
-681.251	43.773	0.264	-0.244
-680.237	-177.530	0.188	0.005
-679.222	800.000	0.075	0.265
-678.208	46.428	-0.240	-0.225
-677.193	145.845	0.092	0.124
-676.178	-21.663	0.196	0.121
-675.164	-200.000	0.016	0.233
-674.149	382.977	0.224	0.466
-673.135	-66.048	0.360	0.145
-672.120	338.290	-0.125	0.246
-671.105	744.173	0.102	-0.277
-670.091	-66.411	0.365	0.146
-669.076	-66.709	0.326	0.130
-668.062	68.980	-0.201	0.208
-667.047	353.056	0.069	-0.138
-666.032	800.000	-0.025	-0.074
-665.018	256.458	-0.154	0.268
-664.003	609.131	-0.136	0.344
-662.989	220.081	-0.071	-0.115
-661.974	-200.000	-0.039	-0.228
-660.959	-144.886	0.215	0.020
-659.945	335.785	-0.071	0.140
-658.930	800.000	0.089	0.280
-657.916	-4.331	-0.136	0.095
-656.901	-68.700	0.204	-0.080
-655.886	636.479	0.076	-0.194
-654.872	-27.830	0.063	0.037
-653.857	232.241	0.035	-0.058
-652.843	-200.000	0.013	0.189
-651.828	-192.704	-0.165	0.002
-650.814	201.154	-0.031	-0.048
-649.799	127.034	0.275	-0.351
-648.784	800.000	0.081	-0.288
-647.770	-200.000	0.000	-0.076
-646.755	-63.864	-0.188	-0.078
-645.741	-82.691	-0.328	0.107
-644.726	496.941	0.112	-0.260
-643.711	-113.342	-0.287	0.057
-642.697	-69.223	-0.224	-0.087
-641.682	800.000	0.122	-0.418
-640.668	11.396	-0.153	-0.119
-639.653	-14.646	-0.280	-0.181
-638.638	-39.583	-0.152	0.080
-637.624	-75.973	0.012	-0.004
-636.609	76.662	-0.153	0.164
-635.595	-105.979	-0.241	-0.055
-634.580	75.252	0.158	-0.168
-633.565	800.000	-0.099	-0.321
-632.551	-200.000	0.034	0.266
-631.536	-60.889	0.112	-0.048
-630.522	-122.353	-0.029	-0.005
-629.507	-121.687	0.249	-0.042
-628.492	800.000	0.018	0.060
-627.478	-102.134	0.183	0.044
-626.463	-159.896	-0.120	0.007
-625.449	-138.114	0.213	0.024
-624.434	-35.643	0.166	-0.091
-623.419	-72.413	-0.245	-0.091
-622.405	42.227	-0.071	0.065
-621.390	-149.559	-0.112	0.009
-620.376	222.932	0.044	-0.072
-619.361	800.000	0.074	0.275
-618.346	-138.400	0.190	0.021
-617.332	-200.000	-0.003	0.230
-616.317	-29.969	-0.151	0.087
-615.303	92.061	-0.295	-0.334
-614.288	-200.000	0.007	-0.143
-613.273	800.000	0.063	-0.211
-612.259	-200.000	0.068	-0.348
-611.244	92.719	-0.008	-0.009
-610.230	120.217	-0.084	-0.105
-609.215	-20.632	-0.135	0.083
-608.201	-38.189	-0.112	0.060
-607.186	165.578	0.132	0.187
-606.171	326.013	-0.102	0.196
-605.157	-58.372	0.360	0.157
-604.142	328.405	0.048	0.092
-603.128	118.931	-0.039	0.049
-602.113	25.949	-0.274	0.230
-601.098	128.864	0.145	0.187
-600.084	-200.000	-0.023	-0.349
-599.069	113.802	0.178	0.218
-598.055	403.315	-0.213	0.452
-597.040	-55.404	-0.190	-0.086
-596.025	-200.000	0.054	-0.270
-595.011	658.247	-0.057	-0.148
-593.996	0.917	-0.161	0.116
-592.982	-91.668	-0.296	0.085
-591.967	42.263	-0.191	-0.175
-590.952	55.698	0.205	0.200
-589.938	-200.000	-0.027	0.192
-588.923	79.561	-0.079	0.085
-587.909	-41.311	-0.216	-0.112
-586.894	-85.507	-0.259	-0.081
-585.879	-125.362	-0.188	-0.029
-584.865	-83.949	-0.311	-0.100
-583.850	800.000	0.040	-0.142
-582.836	-179.090	0.143	-0.003
-581.821	48.161	0.202	0.191
-580.806	181.006	-0.065	-0.096
-579.792	800.000	0.028	-0.090
-578.777	-83.471	0.265	0.085
-577.763	-13.915	0.121	0.079
-576.748	720.380	-0.087	-0.232
-575.733	-188.929	0.320	-0.004
-574.719	-200.000	-0.006	0.082
-573.704	146.674	0.032	-0.044
-572.690	-33.097	-0.159	-0.089
-571.675	-110.943	-0.096	-0.020
-570.661	800.000	-0.033	0.093
-569.646	218.061	-0.184	0.295
-568.631	219.295	0.105	0.169
-567.617	-40.808	0.210	-0.109
-566.602	-156.863	-0.163	-0.010
-565.588	-65.737	0.307	0.124
-564.573	128.111	0.200	-0.256
-563.558	-116.142	-0.302	-0.056
-562.544	-181.307	-0.055	0.001
-561.529	58.194	0.109	-0.107
-560.515	800.000	0.062	0.201
-559.500	-33.119	-0.129	0.072
-558.485	-96.607	0.190	0.050
-557.471	-200.000	0.008	0.082
-556.456	-19.265	-0.426	0.265
-555.442	-166.792	-0.497	0.021
-554.427	-200.000	-0.008	0.240
-553.412	800.000	0.032	-0.132
-552.398	30.177	0.109	0.093
-551.383	-10.220	0.190	-0.127
-550.369	-96.283	0.261	-0.069
-549.354	10.977	-0.355	-0.273
-548.339	25.727	0.093	-0.077
-547.325	135.685	-0.108	0.142
-546.310	6.105	-0.194	0.145
-545.296	-45.241	0.117	-0.058
-544.281	2.680	-0.020	-0.014
-543.266	96.772	-0.096	0.110
-542.252	48.173	0.014	-0.013
-541.237	-121.111	0.285	-0.048
-540.223	110.956	-0.219	0.265
-539.208	-22.959	-0.163	0.099
-538.193	28.774	-0.150	-0.128
-537.179	604.162	-0.060	-0.149
-536.164	-23.456	-0.057	0.034
-535.150	-199.832	0.154	-0.001
-534.135	-200.000	0.008	-0.391
-533.121	-164.998	-0.114	-0.005
-532.106	-61.991	0.148	0.062
-531.091	102.930	0.125	0.147
-530.077	188.953	0.074	-0.112
-529.062	-43.599	0.209	0.106
-528.048	31.447	0.227	-0.196
-527.033	-128.713	0.133	-0.019
-526.018	510.934	-0.103	0.241
-525.004	-200.000	-0.008	0.086
-523.989	93.458	-0.066	-0.075
-522.975	39.565	-0.089	-0.080
-521.960	34.216	-0.193	-0.169
-520.945	-200.000	0.007	-0.342
-519.931	-108.150	0.141	-0.031
-518.916	75.157	-0.185	0.196
-517.902	12.649	-0.137	-0.106
-516.887	-200.000	0.075	-0.364
-515.872	-5.864	-0.300	-0.206
-514.858	-48.385	0.408	-0.197
-513.843	1.841	-0.349	-0.252
-512.829	-175.419	0.324	0.009
-511.814	668.947	0.118	-0.307
-510.799	-163.317	-0.191	0.009
-509.785	-24.277	-0.133	0.080
-508.770	66.616	0.103	-0.105
-507.756	-94.387	0.191	0.052
-506.741	243.461	-0.250	0.421
-505.726	-25.483	-0.223	0.132
-504.712	759.763	0.093	-0.252
-503.697	-200.000	-0.014	-0.232
-502.683	-200.000	0.001	-0.164
-501.668	800.000	-0.076	-0.247
-500.653	-200.000	-0.044	-0.227
-499.639	-85.137	0.118	0.037
-498.624	-200.000	-0.071	0.360
-497.610	377.007	0.066	0.136
-496.595	629.293	0.118	0.299
-495.581	77.823	0.044	-0.047
-494.566	-25.133	-0.233	-0.138
-493.551	204.517	0.035	-0.054
-492.537	-14.209	0.144	0.093
-491.522	-114.312	0.192	-0.037
-490.508	-155.003	0.198	0.013
-489.493	135.132	-0.137	-0.179
-488.478	222.934	-0.211	-0.340
-487.464	-200.000	-0.009	-0.078
-486.449	-107.915	-0.165	-0.036
-485.435	71.605	-0.267	0.278
-484.420	258.495	0.070	-0.120
-483.405	800.000	0.067	-0.249
-482.391	92.090	0.180	-0.203
-481.376	800.000	0.039	-0.111
-480.362	-150.329	-0.300	-0.023
-479.347	-66.694	-0.049	-0.020
-478.332	-200.000	-0.062	0.358
-477.318	127.879	-0.047	0.060
-476.303	800.000	0.046	0.148
-475.289	287.562	-0.184	0.333
-474.274	278.810	-0.016	0.028
-473.259	-200.000	-0.013	0.195
-472.245	-200.000	0.042	-0.257
-471.230	-76.682	-0.125	0.044
-470.216	-111.103	-0.213	0.044
-469.201	240.731	-0.274	-0.458
-468.186	-200.000	0.010	0.100
-467.172	91.533	0.151	0.170
-466.157	-133.086	0.438	0.056
-465.143	-200.000	-0.034	0.202
-464.128	800.000	0.082	0.243
-463.113	-200.000	0.001	0.008
-462.099	-114.132	0.201	-0.039
-461.084	-200.000	-0.035	0.261
-460.070	183.405	0.131	0.195
-459.055	109.283	-0.078	-0.093
-458.040	-200.000	0.015	-0.210
-457.026	182.093	0.226	0.333
-456.011	25.599	-0.037	0.031
-454.997	177.888	0.042	-0.061
-453.982	-121.785	0.237	0.039
-452.968	-106.551	0.049	-0.011
-451.953	-175.464	-0.222	0.006
-450.938	460.105	-0.156	0.349
-449.924	-74.786	-0.202	-0.073
-448.909	800.000	-0.020	0.074
-447.895	-200.000	-0.026	-0.244
-446.880	800.000	-0.080	-0.237
-445.865	-91.160	0.235	0.067
-444.851	202.023	0.117	-0.181
-443.836	-200.000	-0.032	-0.421
-442.822	118.170	0.140	-0.173
-441.807	-22.983	0.201	-0.121
-440.792	-99.745	0.080	-0.020
-439.778	29.265	-0.113	-0.096
-438.763	800.000	0.050	-0.178
-437.749	467.072	-0.111	-0.250
-436.734	111.096	0.200	-0.241
-435.719	-200.000	0.017	0.115
-434.705	-112.644	-0.258	0.051
-433.690	360.009	0.132	0.265
-432.676	-200.000	0.051	-0.293
-431.661	-67.724	0.128	-0.050
-430.646	-162.013	-0.453	-0.023
-429.632	-24.919	0.062	0.037
-428.617	2.076	-0.269	0.194
-427.603	800.000	-0.029	-0.087
-426.588	5.332	0.192	0.142
-425.573	-9.037	0.154	-0.103
-424.559	800.000	0.091	0.291
-423.544	438.241	0.079	0.173
-422.530	137.309	0.314	0.411
-421.515	-128.737	-0.373	0.053
-420.500	117.253	0.204	-0.251
-419.486	-200.000	-0.004	0.053
-418.471	-8.596	0.432	-0.290
-417.457	37.083	-0.016	0.014
-416.442	-31.256	-0.425	-0.239
-415.428	295.032	-0.121	-0.221
-414.413	-200.000	-0.006	0.096
-413.398	106.920	-0.105	0.125
-412.384	800.000	0.044	-0.174
-411.369	764.949	-0.052	-0.140
-410.355	-200.000	-0.036	0.230
-409.340	354.183	-0.124	-0.245
-408.325	348.997	0.102	-0.201
-407.311	-64.064	-0.013	0.005
-406.296	18.373	-0.145	-0.116
-405.282	23.133	0.138	-0.113
-404.267	-51.841	0.487	0.227
-403.252	800.000	-0.047	-0.159
-402.238	632.650	-0.133	0.338
-401.223	16.624	-0.124	-0.098
-400.209	-135.034	0.152	0.018
-399.194	-17.534	-0.143	0.090
-398.179	304.641	-0.023	-0.043
-397.165	-11.363	-0.444	-0.292
-396.150	-200.000	-0.000	-0.039
-395.136	58.729	-0.294	-0.289
-394.121	77.088	-0.115	0.122
-393.106	-19.054	0.131	0.081
-392.092	-71.221	0.262	0.098
-391.077	33.904	0.229	0.199
-390.063	-200.000	-0.002	0.078
-389.048	-119.922	0.256	0.044
-388.033	-18.674	-0.125	-0.078
-387.019	212.799	-0.102	0.160
-386.004	236.503	-0.056	0.093
-384.990	251.056	0.182	0.308
-383.975	800.000	-0.044	0.134
-382.960	-170.847	0.036	-0.001
-381.946	-200.000	0.013	0.112
-380.931	-200.000	-0.046	-0.232
-379.917	88.446	0.185	0.205
-378.902	197.725	0.118	0.180
-377.888	-139.368	-0.135	-0.015
-376.873	-97.739	0.344	-0.089
-375.858	800.000	0.079	-0.257
-374.844	-169.034	0.119	0.004
-373.829	106.321	0.057	-0.068
-372.815	268.695	0.076	-0.133
-371.800	-81.087	0.081	-0.027
-370.785	506.367	0.068	-0.157
-369.771	800.000	-0.112	0.372
-368.756	136.631	0.074	0.096
-367.742	-52.016	0.050	0.023
-366.727	-30.766	-0.079	0.045
-365.712	66.780	-0.295	-0.299
-364.698	650.960	0.091	-0.232
-363.683	-200.000	0.009	-0.108
-362.669	194.991	0.049	0.075
-361.654	277.268	-0.053	0.094
-360.639	-82.808	0.132	-0.043
-359.625	-126.259	-0.316	-0.047
-358.610	25.332	-0.103	0.085
-357.596	-152.474	-0.326	0.023
-356.581	-96.861	0.069	0.018
-355.566	-93.843	-0.301	0.083
-354.552	800.000	-0.060	0.200
-353.537	-17.164	0.320	-0.201
-352.523	-200.000	0.028	0.163
-351.508	-124.198	0.062	-0.010
-350.493	143.011	0.142	0.188
-349.479	27.867	-0.234	0.197
-348.464	546.898	0.042	0.101
-347.450	201.682	-0.111	0.170
-346.435	55.256	-0.134	0.129
-345.420	670.116	0.076	-0.195
-344.406	368.907	0.126	-0.255
-343.391	-200.000	-0.009	0.387
-342.377	37.995	-0.051	-0.045
-341.362	-143.681	0.162	0.015
-340.348	-200.000	0.160	0.000
-339.333	-91.916	0.376	0.106
-338.318	2.773	-0.155	-0.112
-337.304	800.000	0.079	-0.272
-336.289	108.984	-0.230	0.275
-335.275	390.294	0.084	0.173
-334.260	-200.000	-0.022	0.137
-333.245	-200.000	0.026	0.199
-332.231	-134.190	0.367	-0.045
-331.216	-44.002	-0.252	-0.126
-330.202	-79.716	0.027	0.009
-329.187	-75.338	0.235	0.084
-328.172	48.625	-0.214	0.200
-327.158	-13.494	0.067	-0.043
-326.143	299.087	0.104	0.191
-325.129	-122.492	-0.131	-0.021
-324.114	-35.887	-0.378	0.204
-323.099	-63.075	0.174	-0.072
-322.085	-61.750	-0.269	0.112
-321.070	-102.417	0.134	0.032
-320.056	66.742	0.134	-0.136
-319.041	-200.000	-0.030	-0.158
-318.026	476.432	0.091	-0.204
-317.012	-170.964	-0.176	0.006
-315.997	800.000	0.022	-0.066
-314.983	31.883	0.240	-0.206
-313.968	143.892	0.130	-0.172
-312.953	-200.000	0.009	-0.126
-311.939	289.552	-0.127	0.229
-310.924	-200.000	-0.003	0.262
-309.910	-200.000	0.018	-0.260
-308.895	-25.041	-0.172	0.102
-307.880	308.412	-0.174	-0.324
-306.866	622.294	0.098	0.245
-305.851	117.259	0.110	-0.134
-304.837	-29.391	0.151	0.086
-303.822	-6.433	-0.324	-0.220
-302.807	32.474	-0.109	0.093
-301.793	-4.938	-0.203	0.139
-300.778	-148.064	0.265	0.022
-299.764	-200.000	-0.001	-0.240
-298.749	-200.000	-0.008	0.212
-297.735	29.825	0.382	-0.324
-296.720	-33.683	-0.228	-0.125
-295.705	374.659	-0.050	-0.102
-294.691	-157.059	0.087	-0.005
-293.676	800.000	-0.095	0.294
-292.662	-140.248	0.031	-0.003
-291.647	-31.752	0.108	-0.060
-290.632	88.217	0.151	0.167
-289.618	-91.068	0.229	0.065
-288.603	-131.966	-0.129	0.017
-287.589	-50.839	0.266	-0.124
-286.574	85.337	0.138	-0.151
-285.559	659.091	-0.107	0.275
-284.545	-200.000	0.299	-0.001
-283.530	17.754	0.248	-0.197
-282.516	-200.000	-0.034	-0.317
-281.501	-4.610	-0.112	0.077
-280.486	-36.691	-0.116	0.062
-279.472	-200.000	-0.015	-0.182
-278.457	113.951	0.103	0.125
-277.443	-41.026	0.326	0.168
-276.428	-56.571	0.210	-0.093
-275.413	-83.127	0.350	0.112
-274.399	-200.000	-0.000	0.116
-273.384	-200.000	0.047	-0.239
-272.370	800.000	-0.091	0.355
-271.355	-40.445	-0.133	0.069
-270.340	800.000	-0.105	-0.405
-269.326	-122.695	0.227	-0.037
-268.311	86.431	-0.155	-0.170
-267.297	-81.817	-0.050	0.016
-266.282	63.877	-0.159	-0.159
-265.267	-200.000	-0.040	0.320
-264.253	85.479	0.130	-0.142
-263.238	88.155	0.172	0.189
-262.224	-16.969	0.212	-0.133
-261.209	131.493	0.147	0.187
-260.195	-200.000	-0.013	-0.113
-259.180	-200.000	-0.076	0.352
-258.165	-200.000	0.029	-0.232
-257.151	-59.214	-0.362	-0.155
-256.136	-28.641	-0.161	-0.092
-255.122	-133.727	0.307	0.038
-254.107	712.371	0.025	-0.066
-253.092	55.476	0.078	0.075
-252.078	-84.540	0.389	-0.122
-251.063	-17.924	0.196	-0.122
-250.049	-189.804	-0.333	0.004
-249.034	800.000	-0.046	0.142
-248.019	-90.270	0.253	-0.073
-247.005	-79.398	-0.277	0.093
-245.990	-32.112	0.094	-0.052
-244.976	-33.837	0.235	-0.129
-243.961	-118.011	-0.172	0.030
-242.946	120.786	-0.469	0.579
-241.932	-200.000	0.016	-0.252
-240.917	764.557	0.009	-0.023
-239.903	61.754	0.205	-0.203
-238.888	-200.000	-0.013	0.121
-237.873	-200.000	-0.001	-0.155
-236.859	-20.303	-0.209	-0.128
-235.844	-65.291	-0.182	0.073
-234.830	614.367	-0.226	-0.562
-233.815	800.000	0.060	0.189
-232.800	701.355	0.119	0.310
-231.786	103.215	0.104	-0.121
-230.771	501.112	-0.156	-0.358
-229.757	-36.866	-0.210	0.112
-228.742	800.000	0.041	0.127
-227.727	800.000	-0.021	0.076
-226.713	800.000	-0.046	-0.201
-225.698	273.221	0.080	0.140
-224.684	-200.000	0.054	0.287
-223.669	-200.000	-0.038	0.207
-222.655	136.618	-0.092	-0.119
-221.640	-200.000	0.029	-0.382
-220.625	86.578	-0.043	-0.047
-219.611	393.515	-0.136	0.282
-218.596	-200.000	-0.037	0.335
-217.582	-64.451	-0.247	0.100
-216.567	-33.423	-0.232	0.127
-215.552	-85.413	0.501	-0.155
-214.538	-200.000	0.012	0.089
-213.523	-62.495	-0.100	-0.041
-212.509	-22.356	-0.084	0.051
-211.494	35.737	0.041	-0.036
-210.479	443.576	-0.067	-0.146
-209.465	800.000	0.096	0.347
-208.450	606.197	-0.059	0.147
-207.436	-43.624	0.175	0.087
-206.421	146.989	-0.206	-0.274
-205.406	194.310	-0.108	0.162
-204.392	-99.220	0.136	0.034
-203.377	800.000	0.091	-0.262
-202.363	31.619	0.348	0.297
-201.348	-152.703	0.193	-0.014
-200.333	800.000	-0.039	0.115
-199.319	-114.456	0.077	0.015
-198.304	66.136	-0.292	-0.294
-197.290	-200.000	-0.008	-0.061
-196.275	139.624	-0.193	0.252
-195.260	511.596	0.017	0.040
-194.246	-156.181	-0.133	0.008
-193.231	-23.271	-0.113	0.067
-192.217	-200.000	-0.010	-0.062
-191.202	-71.955	0.203	0.075
-190.187	-70.044	0.246	0.093
-189.173	-145.167	-0.204	-0.018
-188.158	203.106	0.041	-0.063
-187.144	5.356	0.063	0.046
-186.129	-63.142	-0.105	-0.043
-185.114	-99.372	-0.141	-0.035
-184.100	15.509	-0.088	-0.069
-183.085	-200.000	0.032	0.200
-182.071	63.236	0.130	0.129
-181.056	-200.000	-0.024	0.278
-180.042	800.000	-0.008	-0.025
-179.027	8.147	0.311	0.231
-178.012	262.927	0.140	0.241
-176.998	93.594	0.067	0.075
-175.983	800.000	-0.061	0.228
-174.969	-141.135	0.086	0.009
-173.954	-200.000	0.008	-0.310
-172.939	-56.997	0.274	-0.120
-171.925	299.865	-0.101	0.185
-170.910	-200.000	-0.004	-0.150
-169.896	588.308	-0.084	0.204
-168.881	-143.898	0.379	0.035
-167.866	-84.834	0.121	-0.038
-166.852	31.091	-0.031	-0.026
-165.837	103.831	-0.063	0.074
-164.823	45.207	0.106	0.096
-163.808	14.835	0.163	0.127
-162.793	-69.408	-0.320	0.122
-161.779	-41.009	-0.106	0.054
-160.764	-88.293	-0.156	-0.046
-159.750	-200.000	-0.015	0.111
-158.735	-68.001	-0.186	0.072
-157.720	-51.009	0.217	0.101
-156.706	800.000	-0.069	0.191
-155.691	-22.677	0.335	0.200
-154.677	-200.000	-0.018	0.080
-153.662	-173.104	0.326	0.010
-152.647	-56.093	-0.125	-0.055
-151.633	-200.000	-0.031	-0.252
-150.618	-200.000	-0.002	-0.094
-149.604	-96.378	0.174	-0.045
-148.589	-200.000	0.027	0.243
-147.574	-200.000	0.013	-0.141
-146.560	-200.000	-0.001	-0.154
-145.545	-41.623	-0.244	0.124
-144.531	800.000	-0.048	0.140
-143.516	800.000	0.058	0.217
-142.502	12.551	-0.120	-0.092
-141.487	-86.942	-0.100	0.030
-140.472	-200.000	-0.046	0.339
-139.458	630.502	0.085	-0.213
-138.443	-200.000	-0.113	0.496
-137.429	19.364	0.266	-0.212
-136.414	800.000	0.017	-0.071
-135.399	46.159	-0.222	-0.204
-134.385	800.000	0.039	-0.141
-133.370	-136.772	-0.022	0.002
-132.356	203.992	-0.103	0.157
-131.341	560.888	-0.075	0.178
-130.326	-108.106	-0.214	-0.046
-129.312	-200.000	-0.017	0.090
-128.297	-143.726	0.066	-0.006
-127.283	-174.949	-0.334	-0.009
-126.268	233.989	0.042	0.068
-125.253	-200.000	0.017	0.198
-124.239	78.604	0.080	-0.084
-123.224	-200.000	0.036	0.318
-122.210	-142.653	-0.176	0.017
-121.195	-68.189	0.106	-0.041
-120.180	115.837	0.087	0.105
-119.166	227.783	0.193	0.310
-118.151	-21.831	-0.415	0.249
-117.137	314.184	0.309	0.575
-116.122	649.908	0.107	-0.271
-115.107	1.276	-0.133	0.095
-114.093	553.593	0.063	-0.149
-113.078	42.384	0.243	-0.219
-112.064	-116.663	-0.305	-0.055
-111.049	-104.636	-0.349	0.080
-110.034	-69.667	0.356	-0.135
-109.020	-46.570	0.069	-0.033
-108.005	800.000	0.039	-0.140
-106.991	128.462	-0.012	-0.015
-105.976	638.889	0.107	-0.269
-104.962	241.980	-0.126	0.207
-103.947	-199.397	-0.181	0.001
-102.932	727.776	-0.178	-0.470
-101.918	-188.481	-0.196	0.002
-100.903	-72.336	-0.325	0.119
-99.889	318.895	-0.097	-0.181
-98.874	88.487	-0.201	0.221
-97.859	-175.865	0.387	-0.010
-96.845	37.071	-0.073	0.064
-95.830	-40.734	0.091	-0.047
-94.816	800.000	0.072	-0.301
-93.801	-82.389	0.116	-0.037
-92.786	-94.600	0.268	-0.072
-91.772	-77.435	-0.217	0.074
-90.757	61.083	-0.174	0.170
-89.743	-42.453	0.048	-0.024
-88.728	-200.000	-0.101	-0.461
-87.713	-80.200	0.343	-0.113
-86.699	-200.000	-0.012	0.147
-85.684	316.399	0.168	0.313
-84.670	-9.926	-0.167	-0.110
-83.655	-200.000	-0.025	-0.128
-82.640	-111.657	-0.274	0.055
-81.626	518.004	-0.019	0.044
-80.611	-167.786	0.321	-0.013
-79.597	75.410	0.115	0.120
-78.582	-42.358	0.262	0.132
-77.567	-200.000	-0.022	-0.150
-76.553	-200.000	0.031	-0.189
-75.538	-32.644	0.171	-0.094
-74.524	-200.000	0.023	0.151
-73.509	2.181	0.278	-0.198
-72.494	26.036	0.152	-0.125
-71.480	47.967	0.068	0.063
-70.465	-200.000	-0.016	0.115
-69.451	10.533	0.194	0.146
-68.436	-168.272	0.268	0.010
-67.422	-65.268	0.261	0.104
-66.407	-98.107	-0.166	-0.042
-65.392	43.099	0.345	-0.310
-64.378	-136.081	0.283	0.033
-63.363	619.887	-0.106	-0.263
-62.349	-200.000	0.053	0.424
-61.334	87.050	-0.815	-0.888
-60.319	-9.879	0.465	0.305
-59.305	-200.000	0.041	-0.686
-58.290	800.000	0.352	1.012
-57.276	800.000	0.526	1.587
-56.261	-200.000	95.818	565.920
-55.246	627.874	1382.137	3441.874
-54.232	196.036	2559.858	3839.754
-53.217	117.504	2168.129	2629.179
-52.203	43.606	1710.836	1542.511
-51.188	36.574	1523.844	1325.857
-50.173	33.965	1497.175	1284.990
-49.159	53.653	1544.629	1461.194
-48.144	55.224	1563.384	1489.662
-47.130	36.648	1522.942	1325.363
-46.115	33.529	1508.028	1291.130
-45.100	33.364	1505.036	1287.395
-44.086	33.317	1502.719	1285.043
-43.071	33.284	1501.032	1283.323
-42.057	33.167	1499.631	1281.285
-41.042	33.232	1498.411	1280.631
-40.027	33.263	1496.867	1279.467
-39.013	33.230	1495.387	1277.929
-37.998	33.323	1493.887	1277.224
-36.984	33.315	1492.730	1276.132
-35.969	33.189	1492.088	1274.688
-34.954	33.282	1490.274	1273.711
-33.940	33.220	1488.860	1272.033
-32.925	33.274	1487.559	1271.237
-31.911	33.373	1485.709	1270.270
-30.896	33.381	1484.633	1269.354
-29.881	33.270	1483.636	1267.706
-28.867	33.300	1482.280	1266.699
-27.852	33.266	1480.612	1264.996
-26.838	33.297	1479.285	1264.018
-25.823	33.297	1477.648	1262.569
-24.809	33.271	1476.077	1261.001
-23.794	33.229	1474.871	1259.640
-22.779	33.197	1473.796	1258.463
-21.765	33.254	1472.559	1257.735
-20.750	33.276	1470.794	1256.322
-19.736	33.246	1470.119	1255.494
-18.721	33.309	1468.736	1254.687
-17.706	33.294	1467.740	1253.683
-16.692	33.273	1466.679	1252.591
-15.677	33.193	1465.772	1251.234
-14.663	33.260	1464.898	1250.882
-13.648	33.213	1464.264	1249.979
-12.633	33.211	1462.989	1248.830
-11.619	33.174	1462.563	1248.175
-10.604	33.223	1461.357	1247.416
-9.590	33.194	1460.347	1246.311
-8.575	33.226	1459.520	1245.766
-7.560	33.231	1458.921	1245.243
-6.546	33.198	1457.938	1244.137
-5.531	33.254	1456.799	1243.483
-4.517	33.168	1455.651	1241.890
-3.502	33.164	1454.932	1241.199
-2.487	33.148	1453.964	1240.221
-1.473	33.263	1452.806	1239.939
-0.458	33.218	1451.607	1238.568
0.556	32.410	1442.677	1227.162
1.571	29.514	1416.295	1186.040
2.586	25.859	1354.305	1111.527
3.600	24.005	1272.272	1033.351
4.615	22.523	1226.372	987.683
5.629	19.408	1170.269	925.722
6.644	11.744	1086.239	820.856
7.659	5.735	1046.572	761.681
8.673	4.751	1041.685	753.293
9.688	4.870	1038.649	751.609
10.702	4.766	1037.256	750.034
11.717	4.823	1035.186	748.742
12.731	6.830	1037.030	759.668
13.746	13.887	1047.694	801.593
14.761	19.184	1053.309	831.456
15.775	19.160	1051.663	829.970
16.790	18.056	1049.986	823.257
17.804	16.892	1047.564	815.687
18.819	16.080	1045.775	810.320
19.834	15.614	1044.664	807.150
20.848	15.429	1043.615	805.381
21.863	15.151	1042.844	803.382
22.877	14.804	1042.145	801.109
23.892	14.740	1041.224	800.025
24.907	14.657	1040.762	799.203
25.921	14.654	1039.710	798.307
26.936	14.649	1039.321	797.916
27.950	14.703	1038.276	797.298
28.965	14.648	1036.886	795.898
29.980	14.740	1035.833	795.459
30.994	14.810	1034.907	795.011
32.009	14.904	1034.005	794.692
33.023	14.932	1033.494	794.366
34.038	15.124	1032.006	794.061
35.053	14.820	1031.827	792.410
36.067	14.852	1030.606	791.556
37.082	14.888	1029.454	790.771
38.096	14.838	1028.548	789.768
39.111	14.785	1028.252	789.221
40.126	14.790	1027.460	788.566
41.140	14.819	1025.986	787.505
42.155	14.702	1024.928	786.070
43.169	14.540	1023.895	784.445
44.184	14.560	1022.722	783.574
45.199	14.426	1021.836	782.195
46.213	14.531	1020.717	781.760
47.228	14.576	1019.994	781.350
48.242	14.688	1018.848	780.925
49.257	14.799	1018.104	780.804
50.271	14.710	1016.998	779.474
51.286	14.813	1016.295	779.346
52.301	14.915	1015.013	778.770
53.315	14.774	1014.751	777.844
54.330	14.611	1014.265	776.642
55.344	14.739	1012.574	775.875
56.359	14.733	1011.762	775.153
57.374	14.639	1011.244	774.255
58.388	14.584	1010.140	773.083
59.403	14.525	1009.543	772.288
60.417	14.524	1008.609	771.499
61.432	14.619	1007.993	771.398
62.447	14.550	1007.110	770.335
63.461	14.487	1006.300	769.359
64.476	14.461	1005.340	768.435
65.490	14.399	1004.337	767.315
66.505	14.404	1003.683	766.772
67.520	14.419	1003.349	766.518
68.534	14.433	1002.306	765.718
69.549	14.516	1001.718	765.579
70.563	14.612	1000.605	765.101
71.578	14.491	1000.257	764.215
72.593	14.405	998.975	762.774
73.607	14.368	998.005	761.798
74.622	14.353	997.256	761.087
75.636	14.327	996.215	760.106
76.651	14.217	995.837	759.251
77.666	14.467	994.929	759.632
78.680	14.237	994.160	757.927
79.695	14.500	993.367	758.453
80.709	14.442	993.252	758.037
81.724	14.446	992.475	757.393
82.739	14.600	991.781	757.496
83.753	14.694	990.578	756.936
84.768	14.689	989.985	756.395
85.782	14.847	989.348	756.557
86.797	15.019	988.612	756.702
87.812	14.882	988.021	755.564
88.826	14.856	986.397	754.139
89.841	14.788	986.041	753.494
90.855	14.844	985.505	753.269
91.870	14.847	984.755	752.644
92.884	14.939	983.807	752.266
93.899	14.958	982.847	751.548
94.914	14.820	982.707	750.758
95.928	14.912	981.756	750.378
96.943	14.964	981.140	750.074
97.957	14.858	980.237	748.842
98.972	14.812	979.135	747.728
99.987	14.835	978.563	747.327
101.001	14.935	977.614	746.981
102.016	14.852	977.016	746.090
103.030	14.872	976.250	745.529
104.045	14.833	975.350	744.599
105.060	14.901	974.301	744.036
106.074	14.758	973.424	742.663
107.089	14.615	972.883	741.553
108.103	14.567	971.980	740.585
109.118	14.391	970.943	738.947
110.133	14.539	969.708	738.597
111.147	14.693	968.847	738.560
112.162	14.603	968.358	737.723
113.176	14.618	967.371	736.973
114.191	14.559	966.612	736.067
115.206	14.840	965.934	736.726
116.220	14.685	965.176	735.397
117.235	14.649	964.053	734.321
118.249	14.681	963.444	733.934
119.264	14.719	961.958	732.903
120.279	14.555	961.940	732.104
121.293	14.544	960.958	731.241
122.308	14.458	960.823	730.698
123.322	14.632	958.897	729.931
124.337	14.510	957.991	728.641
125.352	14.450	957.399	727.866
126.366	14.341	956.391	726.560
127.381	14.464	954.848	725.861
128.395	14.496	954.333	725.544
129.410	14.484	953.470	724.770
130.424	14.650	952.351	724.575
131.439	14.565	951.576	723.555
132.454	14.572	950.961	723.054
133.468	14.631	950.269	722.720
134.483	14.610	949.549	722.016
135.497	14.702	949.112	722.017
136.512	14.584	948.379	720.884
137.527	14.638	947.287	720.227
138.541	14.599	946.587	719.463
139.556	14.674	946.021	719.291
140.570	14.649	945.033	718.370
141.585	14.766	944.278	718.235
142.600	14.860	943.660	718.104
143.614	14.888	943.097	717.731
144.629	14.894	942.513	717.248
145.643	14.944	941.712	716.792
146.658	14.973	940.847	716.193
147.673	14.800	940.000	714.746
148.687	14.787	938.630	713.583
149.702	14.778	938.085	713.067
150.716	14.750	936.809	711.916
151.731	14.748	935.914	711.164
152.746	14.696	935.551	710.604
153.760	14.733	935.018	710.294
154.775	14.818	933.875	709.725
155.789	14.769	933.448	709.130
156.804	14.897	932.610	708.975
157.819	14.833	931.957	708.143
158.833	14.866	931.366	707.771
159.848	15.077	930.649	708.056
160.862	15.037	929.823	707.195
161.877	15.027	929.255	706.659
162.892	14.999	928.079	705.584
163.906	14.791	927.284	704.041
164.921	14.756	926.695	703.384
165.935	14.863	925.103	702.564
166.950	14.868	924.679	702.199
167.964	14.783	924.354	701.532
168.979	14.927	922.840	700.928
169.994	14.731	922.072	699.458
171.008	14.906	920.584	699.002
172.023	14.990	920.193	698.992
173.037	15.070	919.764	698.941
174.052	15.009	919.353	698.310
175.067	14.953	918.562	697.415
176.081	14.981	917.163	696.409
177.096	14.860	916.629	695.438
178.110	14.842	915.747	694.630
179.125	14.880	915.272	694.369
180.140	14.884	914.380	693.645
181.154	14.851	913.731	692.954
182.169	14.967	913.319	693.062
183.183	15.269	912.086	693.315
184.198	15.176	911.669	692.554
185.213	15.253	910.989	692.295
186.227	15.181	910.660	691.682
187.242	15.185	910.135	691.239
188.256	15.275	909.334	690.941
189.271	15.191	908.914	690.213
190.286	15.251	908.297	689.932
191.300	15.144	907.103	688.526
192.315	14.999	906.644	687.520
193.329	14.794	905.460	685.719
194.344	14.856	904.876	685.473
195.359	14.908	904.521	685.355
196.373	14.929	904.194	685.133
197.388	14.991	903.814	685.038
198.402	15.219	903.304	685.525
199.417	15.339	902.660	685.465
200.432	15.468	902.092	685.500
201.446	15.551	901.986	685.699
202.461	15.487	901.361	684.898
203.475	15.659	901.019	685.281
204.490	15.515	900.306	684.091
205.504	15.457	899.479	683.169
206.519	15.309	898.693	681.908
207.534	15.389	897.892	681.566
208.548	15.514	896.727	681.128
209.563	15.348	896.575	680.277
210.577	15.523	895.849	680.377
211.592	15.450	895.325	679.621
212.607	15.521	894.704	679.377
213.621	15.439	894.626	678.928
214.636	15.619	893.029	678.381
215.650	15.512	892.892	677.784
216.665	15.526	892.569	677.538
217.680	15.562	892.113	677.275
218.694	15.555	891.600	676.800
219.709	15.735	890.834	676.882
220.723	15.758	890.179	676.417
221.738	15.648	889.638	675.502
222.753	15.759	888.620	675.116
223.767	15.574	888.084	673.907
224.782	15.719	887.284	673.820
225.796	15.671	886.939	673.308
226.811	15.847	886.228	673.411
227.826	15.805	885.501	672.633
228.840	15.749	884.978	671.950
229.855	15.590	884.191	670.662
230.869	15.753	883.440	670.683
231.884	15.738	882.954	670.195
232.899	15.607	882.311	669.124
233.913	15.657	881.431	668.597
234.928	15.483	881.025	667.538
235.942	15.575	880.109	667.151
236.957	15.528	879.283	666.279
237.972	15.547	878.545	665.737
238.986	15.601	878.076	665.533
240.001	15.496	877.511	664.631
241.015	15.536	876.696	664.113
242.030	15.747	875.743	664.166
243.045	15.826	875.219	664.025
244.059	15.858	874.807	663.776
245.074	15.771	874.095	662.836
246.088	15.676	873.504	661.955
247.103	15.864	873.030	662.276
248.117	15.806	872.812	661.824
249.132	15.926	872.204	661.777
250.147	16.103	871.554	661.921
251.161	16.128	871.104	661.619
252.176	16.228	870.617	661.581
253.190	16.292	869.878	661.212
254.205	16.292	868.935	660.436
255.220	16.444	868.519	660.656
256.234	16.475	868.036	660.351
257.249	16.359	867.340	659.311
258.263	16.300	866.827	658.632
259.278	16.509	866.170	658.892
260.293	16.245	865.902	657.598
261.307	16.488	865.237	657.981
262.322	16.430	864.394	657.056
263.336	16.526	863.863	656.966
264.351	16.512	863.193	656.347
265.366	16.583	862.756	656.232
266.380	16.536	862.285	655.633
267.395	16.657	861.532	655.469
268.409	16.437	860.676	653.910
269.424	16.440	859.782	653.186
270.439	16.502	859.512	653.161
271.453	16.574	858.737	652.793
272.468	16.488	857.974	651.824
273.482	16.421	857.330	651.018
274.497	16.386	857.129	650.671
275.512	16.411	856.089	649.920
276.526	16.463	855.322	649.480
277.541	16.504	854.705	649.114
278.555	16.424	854.333	648.466
279.570	16.503	853.688	648.221
280.585	16.674	853.338	648.556
281.599	16.740	852.797	648.340
282.614	16.584	851.880	646.986
283.628	16.602	851.442	646.665
284.643	16.545	850.984	646.042
285.657	16.575	850.192	645.500
286.672	16.649	849.829	645.449
287.687	16.561	849.657	644.928
288.701	16.699	848.666	644.641
289.716	16.564	848.423	643.889
290.730	16.671	847.719	643.704
291.745	16.634	847.253	643.149
292.760	16.747	846.235	642.751
293.774	16.647	845.788	641.973
294.789	16.890	845.144	642.350
295.803	16.780	844.557	641.429
296.818	16.741	844.020	640.817
297.833	16.779	843.330	640.382
298.847	16.790	842.583	639.798
299.862	16.637	842.134	638.823
300.876	16.865	841.168	638.894
301.891	16.931	840.595	638.650
302.906	16.922	840.029	638.129
303.920	16.988	839.578	637.980
304.935	16.934	839.406	637.588
305.949	17.152	838.498	637.662
306.964	17.058	837.953	636.839
307.979	17.104	837.269	636.434
308.993	17.115	836.868	636.117
310.008	17.042	836.515	635.518
311.022	17.177	835.886	635.487
312.037	17.142	835.066	634.676
313.052	17.113	834.664	634.208
314.066	17.053	834.049	633.461
315.081	16.971	833.220	632.468
316.095	16.913	832.949	631.990
317.110	17.028	832.114	631.729
318.125	16.966	831.994	631.353
319.139	16.896	831.511	630.667
320.154	16.955	830.853	630.333
321.168	17.003	830.462	630.160
322.183	16.993	829.847	629.600
323.197	16.920	829.391	628.928
324.212	17.172	828.489	629.122
325.227	16.998	828.299	628.275
326.241	17.118	827.843	628.319
327.256	17.165	827.031	627.822
328.270	17.071	826.434	626.966
329.285	17.029	826.135	626.527
330.300	17.232	825.449	626.699
331.314	17.084	825.218	625.924
332.329	17.065	824.582	625.318
333.343	17.271	823.623	625.291
334.358	17.216	822.871	624.465
335.373	17.320	822.561	624.557
336.387	17.199	822.279	623.842
337.402	17.348	821.603	623.820
338.416	17.397	820.997	623.484
339.431	17.348	820.809	623.105
340.446	17.473	820.209	623.053
341.460	17.667	819.423	623.111
342.475	17.600	819.190	622.633
343.489	17.566	818.819	622.174
344.504	17.632	818.384	622.026
345.519	17.670	817.492	621.433
346.533	17.727	817.198	621.363
347.548	17.675	816.865	620.866
348.562	17.584	816.156	619.942
349.577	17.448	815.492	618.888
350.592	17.494	815.021	618.642
351.606	17.418	814.159	617.656
352.621	17.497	813.986	617.757
353.635	17.404	813.516	617.009
354.650	17.516	813.187	617.110
355.665	17.558	813.025	617.084
356.679	17.447	812.483	616.217
357.694	17.677	811.544	616.283
358.708	17.637	811.250	615.858
359.723	17.587	810.794	615.278
360.738	17.664	810.191	615.043
361.752	17.576	809.502	614.150
362.767	17.657	809.187	614.148
363.781	17.790	809.105	614.511
364.796	17.767	808.556	613.958
365.810	17.769	808.114	613.575
366.825	17.810	808.263	613.779
367.840	17.847	807.714	613.442
368.854	17.975	807.027	613.326
369.869	17.869	806.390	612.406
370.883	18.040	805.702	612.442
371.898	17.832	805.303	611.341
372.913	17.885	804.544	610.902
373.927	17.968	804.084	610.794
374.942	18.099	803.345	610.645
375.956	17.995	802.538	609.607
376.971	18.036	802.173	609.424
377.986	18.152	801.552	609.309
379.000	18.226	801.525	609.499
380.015	18.100	800.973	608.579
381.029	18.297	800.280	608.698
382.044	18.292	799.320	607.896
383.059	18.315	799.112	607.766
384.073	18.206	798.516	606.870
385.088	18.221	798.376	606.763
386.102	18.150	797.625	605.890
387.117	18.362	796.372	605.634
388.132	18.175	796.671	605.146
389.146	18.059	796.251	604.364
390.161	18.189	795.558	604.244
391.175	18.229	795.164	604.029
392.190	18.349	794.956	604.241
393.205	18.139	794.854	603.372
394.219	18.208	794.057	602.956
395.234	18.233	793.571	602.622
396.248	18.130	792.983	601.760
397.263	18.214	792.323	601.500
398.278	18.055	792.117	600.733
399.292	17.946	791.654	599.945
400.307	17.944	791.847	600.030
401.321	17.893	790.891	599.073
402.336	18.047	790.441	599.222
403.350	18.305	790.019	599.752
404.365	18.372	789.256	599.354
405.380	18.209	789.298	598.762
406.394	18.377	788.822	598.934
407.409	18.429	788.530	598.840
408.423	18.452	788.097	598.539
409.438	18.470	787.504	598.100
410.453	18.578	787.162	598.163
411.467	18.513	786.625	597.476
412.482	18.434	786.526	597.075
413.496	18.454	785.929	596.636
414.511	18.734	785.413	597.166
415.526	18.685	784.935	596.580
416.540	18.836	784.501	596.722
417.555	18.630	784.433	595.903
418.569	18.674	783.711	595.452
419.584	18.797	783.057	595.332
420.599	18.756	782.769	594.915
421.613	156.228	1369.189	1793.146
422.628	134.908	1454.624	1793.254
