DTS Sentinel unit serial number:	SN413079Multiplexer serial number:	ORYXHardware model number:	OX4-SRSoftware version number:	ORYX F/W v4.00 Oryx Data Collector v3.7.2.0data status	okinstallation	princeton_trtdifferential loss correction	single-endedforward channel	channel 3reverse channel	N/Adate	2019/09/19time	07:48:35forward acquisition time	60.00reverse acquisition time	0.00gamma	496.2192k internal	0.2346k external	0.2346temperature offset calibration	0.9977default loss term (dB/km)	0.3790temperature slope calibration	1.0000multiplexer offset coefficient	1.0000multiplexer slope coefficient	1.0000fibre end	0.00T internal ref (°C)	19.56T ext. ref 1 (°C)	0.55T ext. ref 2 (°C)	14.79length (m)	temperature (°C)	Stokes	anti-Stokes-747.200	-43.866	0.157	0.079
-746.185	-54.550	0.092	-0.042
-745.171	239.067	0.156	0.260
-744.156	-200.000	0.007	0.110
-743.142	-200.000	0.017	0.076
-742.127	240.826	0.156	0.260
-741.112	-152.531	-0.283	0.020
-740.098	-103.052	-0.387	-0.092
-739.083	73.080	0.035	-0.037
-738.069	800.000	-0.119	0.411
-737.054	-200.000	-0.026	-0.342
-736.039	192.696	-0.148	-0.224
-735.025	-168.022	0.127	0.005
-734.010	129.779	-0.155	0.198
-732.996	800.000	-0.024	-0.069
-731.981	27.060	-0.201	-0.168
-730.966	-22.014	-0.262	-0.159
-729.952	31.924	-0.128	0.110
-728.937	800.000	0.042	0.177
-727.923	800.000	-0.102	-0.399
-726.908	800.000	-0.040	0.156
-725.894	-148.889	-0.289	0.023
-724.879	-100.403	-0.283	0.070
-723.864	233.195	-0.098	0.162
-722.850	161.427	0.363	0.508
-721.835	-110.436	-0.229	0.048
-720.821	29.409	-0.172	-0.146
-719.806	325.427	-0.066	0.126
-718.791	-200.000	-0.368	0.001
-717.777	29.841	-0.201	-0.171
-716.762	-65.303	-0.161	0.065
-715.748	24.735	-0.239	-0.198
-714.733	-47.358	-0.451	0.219
-713.718	-79.042	0.365	0.124
-712.704	68.710	0.122	0.125
-711.689	14.189	-0.159	-0.124
-710.675	-47.312	-0.204	0.099
-709.660	-200.000	-0.015	-0.217
-708.645	-200.000	0.041	0.208
-707.631	800.000	-0.097	-0.345
-706.616	513.770	0.055	-0.128
-705.602	-33.193	-0.093	0.052
-704.587	-97.764	0.038	-0.010
-703.572	-13.735	0.195	-0.126
-702.558	45.129	0.253	-0.233
-701.543	23.408	-0.273	-0.224
-700.529	46.357	0.086	-0.080
-699.514	800.000	-0.083	-0.308
-698.499	64.913	0.185	-0.187
-697.485	146.641	0.138	-0.185
-696.470	166.059	-0.186	-0.263
-695.456	18.244	-0.247	0.197
-694.441	-133.183	-0.172	0.022
-693.426	-73.565	-0.185	0.067
-692.412	364.464	-0.341	-0.685
-691.397	116.106	-0.292	-0.357
-690.383	143.046	0.116	0.154
-689.368	31.453	0.098	-0.084
-688.354	800.000	-0.049	-0.168
-687.339	-38.880	-0.132	0.070
-686.324	-79.001	-0.449	0.153
-685.310	96.807	-0.145	0.165
-684.295	-108.742	0.250	-0.053
-683.281	-175.400	0.144	0.004
-682.266	-200.000	-0.000	-0.073
-681.251	-41.410	-0.220	-0.113
-680.237	131.391	0.088	-0.113
-679.222	-60.007	-0.354	0.151
-678.208	337.419	0.118	0.228
-677.193	77.652	0.081	-0.086
-676.178	-120.825	-0.361	0.061
-675.164	-142.397	0.324	0.032
-674.149	800.000	-0.024	0.090
-673.135	22.741	0.136	-0.111
-672.120	-137.924	-0.171	0.019
-671.105	64.486	-0.167	0.168
-670.091	-200.000	0.006	0.073
-669.076	-69.169	-0.134	-0.051
-668.062	-117.619	-0.161	0.029
-667.047	14.108	-0.117	-0.091
-666.032	-200.000	0.004	-0.181
-665.018	4.141	-0.034	-0.025
-664.003	-34.870	-0.062	0.034
-662.989	-188.920	0.303	-0.004
-661.974	627.963	0.090	0.227
-660.959	152.102	-0.186	-0.253
-659.945	-56.757	0.112	0.049
-658.930	-11.283	0.140	-0.092
-657.916	-88.389	-0.259	0.077
-656.901	-200.000	-0.032	0.162
-655.886	135.342	0.047	0.061
-654.872	-200.000	-0.012	-0.060
-653.857	-2.990	-0.254	0.177
-652.843	-200.000	0.011	-0.171
-651.828	70.704	-0.147	-0.151
-650.814	-200.000	0.017	0.080
-649.799	138.133	-0.138	-0.180
-648.784	-91.508	-0.285	0.081
-647.770	57.138	0.169	-0.164
-646.755	-40.885	-0.199	-0.103
-645.741	-112.233	0.375	0.075
-644.726	800.000	0.058	0.230
-643.711	223.159	0.178	0.285
-642.697	-159.530	-0.259	-0.014
-641.682	-72.273	0.139	0.051
-640.668	62.537	-0.342	-0.340
-639.653	-200.000	-0.018	-0.136
-638.638	20.943	-0.200	0.161
-637.624	-21.208	0.188	0.114
-636.609	137.942	0.124	-0.162
-635.595	-26.288	0.260	0.152
-634.580	-200.000	0.065	0.000
-633.565	-77.995	0.116	-0.040
-632.551	260.724	-0.036	-0.062
-631.536	-168.304	-0.485	0.019
-630.522	-73.712	-0.070	0.025
-629.507	-56.563	-0.268	-0.118
-628.492	-84.200	-0.186	0.059
-627.478	-200.000	-0.015	0.192
-626.463	391.107	0.163	0.337
-625.449	-3.621	-0.149	-0.103
-624.434	410.710	0.113	-0.237
-623.419	652.606	-0.032	0.081
-622.405	800.000	0.115	-0.318
-621.390	-113.033	-0.044	0.009
-620.376	381.429	0.086	-0.176
-619.361	-8.715	-0.182	0.121
-618.346	-77.995	-0.146	0.050
-617.332	163.584	-0.212	0.297
-616.317	88.428	-0.085	0.094
-615.303	41.191	0.051	-0.046
-614.288	-200.000	-0.057	-0.287
-613.273	-200.000	0.002	-0.010
-612.259	800.000	-0.048	0.191
-611.244	288.308	-0.088	-0.159
-610.230	-87.406	0.180	-0.054
-609.215	800.000	-0.114	-0.391
-608.201	-200.000	-0.041	-0.550
-607.186	-200.000	0.008	-0.067
-606.171	58.900	0.210	0.205
-605.157	-100.989	-0.171	-0.042
-604.142	-108.510	-0.341	-0.073
-603.128	65.311	-0.175	-0.176
-602.113	301.007	0.017	-0.032
-601.098	-92.621	-0.251	0.070
-600.084	-39.346	-0.041	-0.022
-599.069	-200.000	0.071	-0.325
-598.055	-200.000	0.020	-0.287
-597.040	-179.788	-0.185	-0.004
-596.025	800.000	-0.057	0.162
-595.011	-0.656	0.266	-0.187
-593.996	-170.771	-0.107	-0.004
-592.982	-148.706	-0.089	0.007
-591.967	-55.260	-0.190	-0.085
-590.952	5.263	-0.149	0.109
-589.938	109.618	0.101	-0.120
-588.923	15.554	-0.055	0.043
-587.909	771.138	-0.061	0.166
-586.894	616.843	0.021	-0.053
-585.879	41.347	0.179	-0.161
-584.865	800.000	0.063	0.216
-583.850	-25.513	0.181	-0.106
-582.836	-136.443	-0.317	0.037
-581.821	498.232	0.186	-0.424
-580.806	-200.000	0.021	0.106
-579.792	800.000	-0.144	-0.419
-578.777	800.000	-0.015	-0.056
-577.763	-107.057	0.375	0.082
-576.748	117.857	-0.198	-0.243
-575.733	369.820	-0.118	0.238
-574.719	-75.275	-0.096	-0.034
-573.704	-200.000	-0.060	0.345
-572.690	10.322	-0.170	0.128
-571.675	-23.744	0.365	-0.217
-570.661	-142.276	0.176	-0.017
-569.646	-200.000	0.013	-0.339
-568.631	578.845	0.035	-0.085
-567.617	-117.654	0.076	0.014
-566.602	-67.275	0.184	-0.072
-565.588	88.602	0.058	-0.064
-564.573	800.000	-0.023	-0.090
-563.558	480.696	-0.061	0.137
-562.544	-74.911	0.251	-0.089
-561.529	-122.432	0.180	-0.029
-560.515	32.443	-0.224	0.192
-559.500	25.292	0.089	-0.074
-558.485	2.865	-0.334	0.241
-557.471	10.281	-0.217	0.164
-556.456	-74.984	0.207	-0.074
-555.442	-200.000	-0.032	-0.364
-554.427	30.818	-0.209	-0.178
-553.412	-168.237	0.179	0.007
-552.398	-200.000	-0.003	-0.272
-551.383	162.460	0.120	0.167
-550.369	-153.232	0.189	0.013
-549.354	-200.000	-0.017	-0.192
-548.339	217.716	-0.127	0.200
-547.325	-14.306	0.124	0.079
-546.310	-83.816	-0.205	-0.065
-545.296	212.008	-0.137	-0.215
-544.281	800.000	0.077	0.323
-543.266	71.171	-0.209	0.215
-542.252	172.561	0.163	-0.233
-541.237	-156.540	-0.329	-0.020
-540.223	-91.302	0.285	-0.081
-539.208	358.455	0.065	0.130
-538.193	43.584	0.052	-0.047
-537.179	-127.240	-0.392	0.057
-536.164	800.000	-0.108	0.314
-535.150	-62.473	-0.129	0.053
-534.135	-83.696	-0.148	-0.047
-533.121	800.000	0.104	-0.375
-532.106	-74.068	-0.181	-0.065
-531.091	-137.594	-0.274	-0.031
-530.077	144.888	0.136	-0.180
-529.062	291.233	0.180	0.324
-528.048	14.643	0.138	-0.107
-527.033	424.765	-0.056	0.119
-526.018	-200.000	-0.021	-0.252
-525.004	-86.036	-0.089	0.027
-523.989	-172.777	-0.189	0.006
-522.975	800.000	-0.038	-0.109
-521.960	800.000	-0.087	-0.335
-520.945	-82.801	-0.035	-0.011
-519.931	28.584	0.178	-0.149
-518.916	-171.136	0.299	-0.010
-517.902	13.083	-0.149	0.115
-516.887	-200.000	0.100	0.000
-515.872	-29.921	-0.233	0.132
-514.858	-141.449	0.097	-0.010
-513.843	-200.000	0.004	-0.053
-512.829	-8.187	-0.086	0.057
-511.814	800.000	0.144	0.447
-510.799	648.257	0.089	0.227
-509.785	-200.000	-0.047	0.205
-508.770	59.510	0.156	0.152
-507.756	-200.000	0.057	0.346
-506.741	1.987	0.285	-0.204
-505.726	-45.985	0.227	0.111
-504.712	-200.000	0.022	0.126
-503.697	170.134	-0.016	0.023
-502.683	-57.905	-0.053	0.023
-501.668	-200.000	0.051	-0.273
-500.653	-6.400	0.219	0.148
-499.639	-200.000	0.032	-0.191
-498.624	-200.000	-0.003	-0.061
-497.610	-200.000	0.076	-0.408
-496.595	800.000	-0.007	0.028
-495.581	-175.753	0.137	-0.004
-494.566	56.540	-0.260	0.250
-493.551	674.681	0.077	0.198
-492.537	-200.000	-0.033	0.371
-491.522	148.894	-0.201	0.268
-490.508	-200.000	0.014	0.201
-489.493	-200.000	0.049	0.270
-488.478	800.000	0.031	0.122
-487.464	-143.559	0.121	-0.011
-486.449	22.097	-0.175	-0.141
-485.435	-185.578	0.155	-0.002
-484.420	68.178	-0.136	0.138
-483.405	-81.643	0.106	0.034
-482.391	-113.040	-0.093	-0.018
-481.376	-86.922	-0.158	-0.048
-480.362	-78.084	-0.106	-0.036
-479.347	-200.000	-0.012	-0.155
-478.332	-95.968	-0.246	0.065
-477.318	-200.000	-0.017	0.173
-476.303	-200.000	-0.002	0.081
-475.289	-200.000	-0.023	-0.132
-474.274	-122.374	-0.248	0.040
-473.259	-98.465	-0.162	-0.041
-472.245	-173.765	-0.200	-0.006
-471.230	-64.021	0.233	0.094
-470.216	-68.642	0.261	0.100
-469.201	-200.000	0.029	0.293
-468.186	-100.173	0.352	-0.087
-467.172	-21.394	0.165	0.100
-466.157	800.000	-0.077	0.282
-465.143	-200.000	0.054	0.272
-464.128	-85.851	-0.238	0.073
-463.113	-120.971	-0.091	0.015
-462.099	103.598	0.248	0.288
-461.084	-82.302	0.168	-0.054
-460.070	-31.597	0.094	-0.052
-459.055	-91.593	-0.106	0.030
-458.040	-61.586	-0.065	0.027
-457.026	-70.887	-0.060	-0.023
-456.011	-85.827	0.139	0.043
-454.997	-200.000	-0.046	-0.320
-453.982	-32.236	0.168	-0.093
-452.968	-61.399	-0.205	-0.085
-451.953	-200.000	-0.023	-0.216
-450.938	-200.000	-0.019	0.139
-449.924	241.809	-0.081	-0.134
-448.909	144.063	0.072	0.096
-447.895	-64.593	0.228	-0.091
-446.880	20.532	-0.376	0.301
-445.865	752.635	-0.063	0.168
-444.851	-18.336	-0.244	-0.151
-443.836	800.000	-0.078	-0.235
-442.822	240.713	0.069	-0.113
-441.807	-200.000	0.010	-0.155
-440.792	76.557	-0.074	-0.077
-439.778	294.734	-0.163	-0.294
-438.763	-25.672	-0.057	0.033
-437.749	800.000	-0.109	0.305
-436.734	-13.835	0.163	0.104
-435.719	-148.990	-0.236	0.019
-434.705	199.342	0.154	0.234
-433.690	-115.835	-0.143	0.026
-432.676	-29.120	0.190	0.107
-431.661	66.429	0.139	0.139
-430.646	12.534	-0.421	0.320
-429.632	16.754	-0.106	0.083
-428.617	800.000	-0.037	-0.116
-427.603	124.071	0.199	-0.247
-426.588	-19.483	-0.365	0.223
-425.573	-200.000	0.009	0.265
-424.559	800.000	-0.036	-0.138
-423.544	-43.043	0.206	0.103
-422.530	-136.689	0.302	-0.034
-421.515	45.375	-0.246	0.224
-420.500	-200.000	0.043	-0.367
-419.486	800.000	-0.029	0.083
-418.471	115.358	0.213	0.257
-417.457	314.840	0.062	0.115
-416.442	-104.478	-0.129	-0.029
-415.428	-36.720	-0.221	-0.117
-414.413	381.627	0.213	-0.431
-413.398	-57.147	-0.163	0.071
-412.384	-50.795	0.088	0.041
-411.369	474.525	-0.117	-0.262
-410.355	96.861	-0.085	-0.096
-409.340	-150.515	-0.164	0.012
-408.325	30.246	-0.168	-0.142
-407.311	800.000	-0.055	-0.157
-406.296	-60.041	-0.138	-0.058
-405.282	154.030	0.096	-0.130
-404.267	-78.219	0.131	0.044
-403.252	-69.042	-0.320	-0.122
-402.238	135.309	0.151	-0.194
-401.223	668.453	-0.077	-0.196
-400.209	-45.355	-0.243	-0.119
-399.194	526.486	0.031	0.073
-398.179	-93.960	0.103	0.028
-397.165	-169.575	0.379	-0.014
-396.150	491.845	0.070	-0.157
-395.136	490.022	0.096	-0.216
-394.121	-200.000	-0.005	-0.152
-393.106	-200.000	0.002	0.036
-392.092	-200.000	-0.016	-0.368
-391.077	-45.319	0.103	-0.050
-390.063	-200.000	0.012	-0.256
-389.048	-200.000	-0.012	0.151
-388.033	800.000	0.076	0.231
-387.019	326.659	-0.100	0.189
-386.004	-76.543	0.039	0.013
-384.990	-8.152	-0.115	0.076
-383.975	-104.618	-0.261	0.059
-382.960	48.154	-0.176	-0.162
-381.946	-97.545	0.245	-0.063
-380.931	800.000	-0.033	0.090
-379.917	-200.000	-0.051	0.371
-378.902	-119.394	-0.045	0.008
-377.888	-200.000	0.016	-0.136
-376.873	-43.796	0.081	0.040
-375.858	-200.000	-0.017	0.150
-374.844	-6.467	0.088	-0.059
-373.829	-95.337	-0.382	0.101
-372.815	750.269	0.090	-0.240
-371.800	-200.000	-0.053	0.295
-370.785	608.833	-0.034	-0.083
-369.771	-200.000	0.055	-0.385
-368.756	-200.000	-0.011	0.050
-367.742	-54.845	0.209	0.093
-366.727	800.000	0.026	-0.098
-365.712	-60.824	0.290	-0.121
-364.698	-200.000	0.005	0.029
-363.683	-81.002	-0.440	-0.144
-362.669	114.758	-0.329	0.395
-361.654	734.401	0.080	0.210
-360.639	-10.117	0.147	-0.096
-359.625	-165.732	-0.170	-0.007
-358.610	-68.361	0.192	-0.073
-357.596	-200.000	0.017	0.222
-356.581	519.297	-0.062	-0.142
-355.566	67.164	-0.138	-0.139
-354.552	-99.052	-0.114	0.028
-353.537	-81.121	-0.173	-0.056
-352.523	-200.000	0.006	0.086
-351.508	-54.571	0.302	0.135
-350.493	-94.358	-0.219	0.059
-349.479	401.595	0.096	-0.198
-348.464	71.768	0.138	-0.141
-347.450	167.294	0.114	0.159
-346.435	800.000	-0.088	-0.253
-345.420	800.000	0.048	-0.193
-344.406	66.539	0.094	0.094
-343.391	296.189	-0.091	0.165
-342.377	-150.340	-0.157	0.012
-341.362	-63.247	-0.527	-0.214
-340.348	-89.527	0.169	0.049
-339.333	-88.184	0.113	0.033
-338.318	89.271	-0.196	-0.215
-337.304	255.390	0.080	-0.135
-336.289	-95.726	-0.132	-0.035
-335.275	33.266	0.276	-0.236
-334.260	406.427	0.042	0.086
-333.245	227.579	0.083	-0.133
-332.231	-200.000	-0.001	0.170
-331.216	-25.223	-0.188	-0.110
-330.202	144.907	0.284	0.374
-329.187	457.541	0.017	-0.038
-328.172	-200.000	0.008	-0.246
-327.158	-200.000	-0.075	-0.324
-326.143	4.773	0.155	0.112
-325.129	800.000	-0.070	0.204
-324.114	56.478	-0.298	-0.285
-323.099	223.681	-0.058	0.092
-322.085	-200.000	0.027	0.146
-321.070	800.000	0.176	0.490
-320.056	631.211	-0.170	0.422
-319.041	-111.563	-0.184	0.037
-318.026	-14.020	-0.288	0.183
-317.012	30.058	0.280	-0.235
-315.997	-162.088	0.179	-0.009
-314.983	-86.106	-0.218	0.066
-313.968	94.695	-0.153	0.171
-312.953	-82.700	0.121	0.038
-311.939	-81.821	-0.071	-0.023
-310.924	125.441	0.306	-0.379
-309.910	162.668	0.127	0.176
-308.895	166.806	0.027	-0.037
-307.880	-39.671	-0.218	0.112
-306.866	-90.594	0.292	-0.083
-305.851	-200.000	0.034	-0.261
-304.837	-200.000	0.023	0.108
-303.822	145.473	0.113	0.149
-302.807	-200.000	0.019	-0.203
-301.793	87.971	0.129	-0.140
-300.778	19.271	0.176	0.139
-299.764	-113.979	-0.139	0.026
-298.749	-200.000	-0.055	0.242
-297.735	143.228	0.224	0.293
-296.720	229.743	-0.081	0.131
-295.705	-123.871	0.189	-0.029
-294.691	-96.189	-0.071	0.019
-293.676	800.000	-0.097	0.378
-292.662	54.247	0.081	0.076
-291.647	-48.808	0.115	-0.054
-290.632	-130.118	0.162	-0.022
-289.618	-78.864	-0.078	0.026
-288.603	800.000	-0.120	0.440
-287.589	149.750	0.075	0.100
-286.574	10.069	-0.132	-0.098
-285.559	217.169	-0.066	-0.103
-284.545	-71.808	-0.049	0.018
-283.530	45.195	0.076	0.069
-282.516	-96.107	0.114	0.030
-281.501	15.168	-0.300	-0.231
-280.486	-83.092	-0.083	-0.026
-279.472	-200.000	-0.041	-0.322
-278.457	-200.000	-0.036	-0.186
-277.443	-41.583	-0.059	0.030
-276.428	-100.668	0.179	-0.043
-275.413	206.534	-0.061	0.093
-274.399	4.283	0.209	0.150
-273.384	-62.991	0.249	-0.101
-272.370	-8.100	0.075	0.049
-271.355	800.000	0.051	-0.200
-270.340	-200.000	0.009	-0.131
-269.326	-200.000	-0.013	-0.114
-268.311	-71.736	0.331	-0.121
-267.297	56.419	-0.118	0.113
-266.282	365.406	-0.085	-0.168
-265.267	800.000	-0.076	-0.225
-264.253	62.586	-0.288	0.283
-263.238	20.078	0.065	-0.051
-262.224	196.160	0.156	-0.233
-261.209	17.391	-0.261	-0.203
-260.195	131.143	0.088	-0.111
-259.180	-200.000	0.033	0.219
-258.165	406.559	0.088	0.182
-257.151	-200.000	-0.025	0.150
-256.136	-142.415	-0.382	0.037
-255.122	-173.329	0.132	0.004
-254.107	-146.680	0.109	-0.009
-253.092	552.744	-0.094	-0.221
-252.078	-36.795	0.145	0.076
-251.063	-200.000	-0.049	-0.230
-250.049	239.599	-0.114	0.186
-249.034	40.410	0.130	-0.114
-248.019	-200.000	0.044	0.307
-247.005	-200.000	-0.055	-0.427
-245.990	-160.564	-0.333	0.017
-244.976	-113.792	0.319	-0.061
-243.961	747.151	0.097	-0.256
-242.946	-154.835	0.244	-0.016
-241.932	140.708	0.201	-0.260
-240.917	-48.882	0.088	-0.042
-239.903	-88.406	0.182	-0.053
-238.888	178.002	0.117	-0.167
-237.873	-200.000	-0.009	0.134
-236.859	800.000	0.057	0.189
-235.844	-109.040	0.297	-0.062
-234.830	294.419	-0.048	0.086
-233.815	-61.841	0.147	0.060
-232.800	-107.892	0.445	0.095
-231.786	26.781	0.151	-0.124
-230.771	-82.034	-0.156	0.050
-229.757	571.758	-0.174	-0.416
-228.742	-132.098	0.348	-0.044
-227.727	7.131	0.149	0.109
-226.713	386.912	-0.088	-0.178
-225.698	-200.000	-0.003	-0.104
-224.684	-95.420	-0.105	-0.028
-223.669	-200.000	0.011	0.503
-222.655	657.900	0.052	0.131
-221.640	-200.000	0.008	-0.333
-220.625	13.658	-0.187	0.142
-219.611	-200.000	0.063	0.290
-218.596	-200.000	0.013	-0.120
-217.582	156.834	0.010	0.013
-216.567	-81.210	-0.150	0.048
-215.552	40.170	-0.087	-0.077
-214.538	800.000	-0.050	-0.190
-213.523	210.189	-0.095	-0.146
-212.509	800.000	0.011	-0.046
-211.494	15.441	0.138	-0.106
-210.479	-95.483	0.264	-0.069
-209.465	16.128	-0.323	0.249
-208.450	-200.000	0.009	-0.104
-207.436	599.862	-0.129	-0.313
-206.421	123.896	0.147	0.180
-205.406	70.531	-0.163	-0.165
-204.392	-54.013	-0.130	0.058
-203.377	800.000	0.158	0.472
-202.363	572.730	0.061	-0.146
-201.348	-167.780	0.147	0.006
-200.333	10.325	0.204	0.152
-199.319	800.000	0.028	-0.112
-198.304	142.260	0.054	-0.070
-197.290	-59.446	-0.192	-0.081
-196.275	376.846	0.137	0.273
-195.260	-52.405	0.228	-0.103
-194.246	-43.859	-0.120	0.059
-193.231	-107.601	0.303	0.065
-192.217	-33.763	0.280	0.151
-191.202	-129.408	-0.368	0.050
-190.187	-200.000	0.032	0.239
-189.173	72.710	0.032	-0.033
-188.158	477.528	0.043	0.095
-187.144	-87.616	0.084	0.025
-186.129	-200.000	0.006	0.078
-185.114	800.000	-0.004	-0.010
-184.100	182.796	-0.190	-0.275
-183.085	108.128	-0.096	0.112
-182.071	-200.000	0.002	0.016
-181.056	293.943	-0.027	-0.049
-180.042	-112.513	0.368	0.072
-179.027	471.264	0.101	-0.223
-178.012	-61.923	0.117	0.048
-176.998	800.000	-0.075	0.290
-175.983	-4.731	-0.054	-0.036
-174.969	-2.080	0.225	0.155
-173.954	-71.814	0.212	-0.077
-172.939	578.491	0.133	0.317
-171.925	-108.837	0.184	-0.038
-170.910	-111.035	-0.085	0.017
-169.896	96.247	0.028	0.032
-168.881	44.283	0.112	-0.100
-167.866	-106.251	-0.192	-0.042
-166.852	118.391	0.152	0.183
-165.837	3.764	-0.125	0.089
-164.823	100.484	0.158	0.179
-163.808	394.001	0.186	0.379
-162.793	-184.045	0.215	-0.004
-161.779	-73.558	-0.296	0.106
-160.764	90.609	-0.206	0.226
-159.750	-123.382	0.237	0.037
-158.735	-200.000	0.001	0.131
-157.720	-200.000	-0.046	0.231
-156.706	261.563	0.135	-0.228
-155.691	-82.892	0.154	0.048
-154.677	221.062	-0.152	0.238
-153.662	24.363	0.182	-0.147
-152.647	-100.190	-0.355	-0.086
-151.633	-123.641	0.074	-0.012
-150.618	-200.000	-0.005	-0.070
-149.604	49.902	0.278	-0.256
-148.589	-200.000	0.008	-0.070
-147.574	-200.000	-0.027	-0.197
-146.560	800.000	0.028	0.080
-145.545	-200.000	0.034	-0.327
-144.531	83.968	-0.059	0.063
-143.516	29.597	-0.119	-0.099
-142.502	130.118	0.133	0.166
-141.487	-2.498	0.362	-0.248
-140.472	-149.373	-0.156	-0.012
-139.458	26.437	0.060	0.049
-138.443	87.204	-0.117	0.126
-137.429	-24.420	-0.151	0.088
-136.414	-80.088	-0.122	0.040
-135.399	-69.485	0.191	0.071
-134.385	50.785	0.207	-0.192
-133.370	-92.347	0.224	-0.062
-132.356	12.038	-0.031	0.023
-131.341	127.837	0.060	0.075
-130.326	12.915	0.262	0.198
-129.312	110.297	-0.230	0.270
-128.297	179.765	-0.018	0.026
-127.283	-92.577	-0.206	0.056
-126.268	-152.177	-0.050	-0.004
-125.253	800.000	0.087	0.311
-124.239	800.000	0.070	0.256
-123.224	260.529	0.247	-0.418
-122.210	269.057	-0.099	-0.170
-121.195	-32.346	-0.314	0.171
-120.180	800.000	-0.087	0.264
-119.166	372.211	-0.126	-0.249
-118.151	-108.273	-0.275	0.058
-117.137	-82.050	-0.095	-0.030
-116.122	184.340	-0.005	-0.007
-115.107	-27.173	-0.163	-0.092
-114.093	-154.979	-0.073	-0.005
-113.078	-11.738	0.158	-0.101
-112.064	190.703	-0.100	-0.147
-111.049	-200.000	-0.036	-0.322
-110.034	-60.002	0.148	-0.062
-109.020	-114.355	0.094	0.018
-108.005	800.000	0.092	-0.262
-106.991	119.886	-0.176	0.213
-105.976	800.000	-0.025	-0.098
-104.962	-118.283	-0.378	-0.066
-103.947	-20.804	0.058	-0.035
-102.932	725.784	0.072	0.186
-101.918	-42.421	0.256	0.127
-100.903	-137.912	0.012	-0.001
-99.889	51.853	0.219	-0.203
-98.874	800.000	-0.079	0.221
-97.859	-107.755	-0.116	-0.025
-96.845	2.781	0.047	0.033
-95.830	-200.000	-0.038	-0.267
-94.816	-188.081	0.337	0.004
-93.801	-65.343	-0.144	0.056
-92.786	-200.000	-0.058	-0.269
-91.772	91.716	-0.268	-0.294
-90.757	129.548	-0.136	0.169
-89.743	-40.687	0.061	-0.031
-88.728	-105.130	-0.236	0.053
-87.713	177.109	0.087	-0.124
-86.699	-200.000	0.021	-0.164
-85.684	308.905	0.228	0.416
-84.670	297.418	-0.131	-0.235
-83.655	-162.440	0.213	0.010
-82.640	-200.000	-0.003	-0.124
-81.626	-103.696	0.126	-0.029
-80.611	800.000	0.080	0.229
-79.597	-124.169	0.068	-0.010
-78.582	8.063	0.430	-0.314
-77.567	800.000	-0.021	0.068
-76.553	132.402	-0.160	-0.201
-75.538	-25.599	0.134	0.077
-74.524	-200.000	-0.059	0.297
-73.509	98.929	0.252	0.283
-72.494	-46.267	-0.114	0.055
-71.480	426.954	-0.021	0.045
-70.465	800.000	0.041	0.162
-69.451	-200.000	0.027	-0.153
-68.436	-56.120	-0.079	-0.034
-67.422	268.780	-0.092	0.157
-66.407	800.000	0.085	-0.303
-65.392	782.799	-0.146	0.390
-64.378	-96.217	0.471	-0.122
-63.363	-200.000	0.011	0.158
-62.349	63.183	-0.107	0.105
-61.334	35.779	-1.324	-1.133
-60.319	29.280	0.824	0.681
-59.305	148.276	-0.910	-1.195
-58.290	234.561	1.004	1.612
-57.276	800.000	0.610	1.946
-56.261	-200.000	135.671	631.975
-55.246	332.037	1655.921	3110.251
-54.232	134.918	2798.140	3536.663
-53.217	82.010	2194.404	2313.937
-52.203	29.340	1709.522	1413.314
-51.188	22.418	1533.355	1219.846
-50.173	20.926	1512.829	1193.258
-49.159	44.069	1590.249	1418.592
-48.144	40.330	1599.709	1400.595
-47.130	22.574	1547.851	1232.275
-46.115	19.832	1532.483	1200.979
-45.100	19.502	1529.864	1196.591
-44.086	19.625	1526.526	1194.786
-43.071	19.627	1525.202	1193.717
-42.057	19.535	1523.864	1191.983
-41.042	19.601	1522.218	1191.103
-40.027	19.495	1521.106	1189.454
-39.013	19.544	1519.225	1188.278
-37.998	19.477	1518.112	1186.899
-36.984	19.486	1517.128	1186.143
-35.969	19.496	1515.826	1185.148
-34.954	19.552	1513.843	1183.937
-33.940	19.517	1513.033	1183.014
-32.925	19.528	1511.154	1181.571
-31.911	19.550	1509.993	1180.769
-30.896	19.574	1508.735	1179.902
-29.881	19.660	1507.145	1179.199
-28.867	19.648	1505.960	1178.145
-27.852	19.674	1504.532	1177.158
-26.838	19.647	1503.378	1176.022
-25.823	19.674	1501.595	1174.761
-24.809	19.565	1499.975	1172.714
-23.794	19.513	1498.865	1171.441
-22.779	19.502	1498.132	1170.753
-21.765	19.483	1496.798	1169.533
-20.750	19.501	1495.507	1168.599
-19.736	19.584	1494.164	1168.066
-18.721	19.652	1492.844	1167.444
-17.706	19.594	1491.989	1166.337
-16.692	19.684	1490.557	1165.783
-15.677	19.633	1489.828	1164.819
-14.663	19.563	1488.400	1163.187
-13.648	19.489	1487.711	1162.103
-12.633	19.566	1486.844	1161.897
-11.619	19.555	1486.218	1161.286
-10.604	19.618	1484.644	1160.433
-9.590	19.545	1484.240	1159.582
-8.575	19.573	1483.656	1159.271
-7.560	19.572	1482.792	1158.539
-6.546	19.499	1482.276	1157.599
-5.531	19.618	1480.484	1156.954
-4.517	19.465	1479.858	1155.396
-3.502	19.552	1478.430	1154.816
-2.487	19.641	1477.456	1154.604
-1.473	19.469	1477.045	1153.087
-0.458	19.616	1475.422	1152.759
0.556	18.449	1465.847	1141.897
1.571	15.692	1442.515	1105.524
2.586	12.609	1382.167	1039.729
3.600	11.304	1297.928	968.525
4.615	10.598	1253.954	931.575
5.629	9.338	1196.927	882.225
6.644	4.695	1116.395	798.989
7.659	1.025	1082.640	756.464
8.673	0.568	1077.464	750.506
9.688	0.472	1074.261	747.733
10.702	0.582	1072.586	747.049
11.717	0.578	1069.772	745.003
12.731	1.994	1070.422	752.374
13.746	7.231	1077.454	783.195
14.761	13.411	1085.487	819.660
15.775	16.636	1089.583	838.685
16.790	16.766	1088.361	838.314
17.804	15.820	1086.249	831.937
18.819	15.052	1084.499	826.734
19.834	14.523	1083.402	823.215
20.848	14.337	1081.802	821.009
21.863	14.165	1081.664	819.980
22.877	13.832	1080.918	817.702
23.892	13.698	1079.757	816.093
24.907	13.589	1078.721	814.703
25.921	13.489	1078.458	813.943
26.936	13.542	1077.607	813.486
27.950	13.557	1077.100	813.106
28.965	13.572	1076.029	812.297
29.980	13.593	1075.423	811.874
30.994	13.687	1073.860	811.080
32.009	13.704	1073.327	810.691
33.023	13.762	1072.441	810.233
34.038	13.774	1071.755	809.702
35.053	13.678	1071.244	808.772
36.067	13.648	1070.264	807.816
37.082	13.673	1069.347	807.177
38.096	13.690	1068.283	806.385
39.111	13.756	1067.299	805.890
40.126	13.667	1066.846	805.045
41.140	13.713	1065.693	804.324
42.155	13.566	1064.388	802.559
43.169	13.613	1063.525	802.066
44.184	13.603	1062.575	801.228
45.199	13.621	1061.474	800.413
46.213	13.551	1060.847	799.533
47.228	13.730	1059.279	799.141
48.242	13.560	1058.728	797.836
49.257	13.694	1057.405	797.416
50.271	13.563	1056.800	796.258
51.286	13.673	1055.837	795.989
52.301	13.664	1054.768	795.071
53.315	13.650	1053.877	794.259
54.330	13.585	1053.631	793.694
55.344	13.630	1052.138	792.713
56.359	13.642	1050.940	791.801
57.374	13.630	1050.458	791.308
58.388	13.734	1049.437	790.964
59.403	13.535	1049.080	789.676
60.417	13.525	1047.716	788.535
61.432	13.497	1047.309	788.025
62.447	13.716	1045.989	788.003
63.461	13.538	1045.645	786.829
64.476	13.486	1044.795	785.872
65.490	13.573	1043.671	785.369
66.505	13.584	1043.144	784.955
67.520	13.574	1042.413	784.289
68.534	13.531	1041.684	783.468
69.549	13.540	1041.077	782.985
70.563	13.474	1040.128	781.889
71.578	13.552	1039.225	781.512
72.593	13.361	1038.613	780.081
73.607	13.424	1037.528	779.494
74.622	13.474	1036.277	778.719
75.636	13.446	1035.518	777.946
76.651	13.446	1034.437	777.066
77.666	13.426	1033.925	776.517
78.680	13.558	1032.918	776.313
79.695	13.388	1032.607	775.213
80.709	13.473	1031.687	774.852
81.724	13.553	1031.345	774.901
82.739	13.489	1030.185	773.662
83.753	13.531	1029.715	773.437
84.768	13.595	1028.504	772.758
85.782	13.684	1027.715	772.511
86.797	13.692	1026.990	771.937
87.812	13.821	1026.298	771.946
88.826	13.653	1025.321	770.363
89.841	13.854	1024.561	770.659
90.855	13.551	1024.088	768.826
91.870	13.640	1023.292	768.572
92.884	13.753	1021.979	768.041
93.899	13.789	1021.433	767.729
94.914	13.743	1020.515	766.761
95.928	13.725	1020.365	766.496
96.943	13.933	1019.208	766.518
97.957	13.822	1018.590	765.476
98.972	13.768	1017.779	764.548
99.987	13.763	1017.126	763.966
101.001	13.736	1016.387	763.223
102.016	13.794	1015.107	762.458
103.030	13.763	1014.246	761.603
104.045	13.749	1013.507	760.917
105.060	13.827	1012.746	760.637
106.074	13.693	1011.603	759.096
107.089	13.624	1011.172	758.387
108.103	13.684	1009.915	757.654
109.118	13.564	1009.188	756.493
110.133	13.674	1008.208	756.196
111.147	13.643	1007.198	755.229
112.162	13.588	1006.571	754.440
113.176	13.643	1005.678	753.953
114.191	13.778	1004.898	753.919
115.206	13.701	1004.178	752.961
116.220	13.690	1002.903	751.885
117.235	13.598	1002.710	751.262
118.249	13.716	1001.292	750.664
119.264	13.736	1000.373	750.001
120.279	13.732	999.375	749.166
121.293	13.757	998.420	748.498
122.308	13.760	997.914	748.067
123.322	13.546	997.076	746.407
124.337	13.695	996.147	746.316
125.352	13.740	994.595	745.290
126.366	13.651	993.800	744.227
127.381	13.463	992.930	742.666
128.395	13.657	991.438	742.353
129.410	13.661	990.230	741.404
130.424	13.651	989.450	740.711
131.439	13.664	988.790	740.206
132.454	13.704	987.480	739.341
133.468	13.694	987.031	738.894
134.483	13.664	986.201	738.073
135.497	13.550	985.915	737.286
136.512	13.623	985.283	737.071
137.527	13.632	984.151	736.202
138.541	13.746	983.329	736.028
139.556	13.617	982.943	735.101
140.570	13.749	981.900	734.840
141.585	13.755	981.128	734.224
142.600	13.746	980.893	733.944
143.614	13.823	979.778	733.386
144.629	13.833	979.005	732.784
145.643	13.906	977.886	732.204
146.658	13.929	977.198	731.728
147.673	13.867	976.415	730.804
148.687	13.873	975.236	729.881
149.702	13.724	974.842	728.865
150.716	13.885	973.622	728.596
151.731	13.765	972.932	727.489
152.746	13.848	972.033	727.118
153.760	13.852	971.471	726.650
154.775	13.705	970.879	725.498
155.789	13.922	970.083	725.790
156.804	13.999	968.837	725.129
157.819	13.726	968.673	723.752
158.833	14.006	967.202	723.807
159.848	13.973	966.523	723.092
160.862	13.921	966.270	722.610
161.877	14.023	965.246	722.224
162.892	14.048	964.327	721.584
163.906	13.867	963.910	720.422
164.921	14.019	962.451	719.924
165.935	13.933	961.711	718.935
166.950	13.900	961.143	718.306
167.964	14.117	959.663	718.075
168.979	14.027	958.684	716.890
169.994	13.871	957.654	715.381
171.008	14.038	957.289	715.764
172.023	14.067	955.855	714.753
173.037	14.063	955.389	714.327
174.052	14.085	954.875	713.973
175.067	14.118	954.299	713.621
176.081	14.170	953.014	712.819
177.096	14.123	952.472	712.150
178.110	14.105	951.533	711.306
179.125	14.141	950.577	710.683
180.140	14.099	950.067	710.061
181.154	14.229	949.244	709.938
182.169	14.154	948.906	709.303
183.183	14.087	948.268	708.477
184.198	14.288	947.216	708.485
185.213	14.219	946.544	707.624
186.227	14.193	945.873	706.950
187.242	14.180	945.565	706.601
188.256	14.345	944.588	706.511
189.271	14.436	943.827	706.263
190.286	14.390	942.763	705.209
191.300	14.177	942.531	704.072
192.315	14.161	941.557	703.215
193.329	14.185	940.931	702.787
194.344	14.263	940.218	702.519
195.359	14.120	939.612	701.404
196.373	14.369	939.077	701.989
197.388	14.249	938.427	700.938
198.402	14.352	937.979	700.976
199.417	14.357	937.566	700.627
200.432	14.366	936.917	700.118
201.446	14.361	936.862	699.991
202.461	14.519	935.910	699.883
203.475	14.569	935.289	699.566
204.490	14.422	935.128	698.768
205.504	14.528	934.032	698.331
206.519	14.423	933.167	697.183
207.534	14.548	932.460	697.115
208.548	14.543	931.404	696.243
209.563	14.551	931.117	696.000
210.577	14.544	930.353	695.336
211.592	14.564	929.578	694.780
212.607	14.597	929.124	694.518
213.621	14.679	928.518	694.344
214.636	14.664	927.782	693.669
215.650	14.633	927.640	693.373
216.665	14.662	926.700	692.729
217.680	14.648	926.131	692.186
218.694	14.628	925.981	691.928
219.709	14.742	924.983	691.596
220.723	14.723	924.459	691.062
221.738	14.752	923.466	690.377
222.753	14.782	923.114	690.179
223.767	14.812	922.255	689.597
224.782	14.808	921.264	688.779
225.796	14.889	920.525	688.501
226.811	15.035	919.389	688.188
227.826	14.978	918.936	687.557
228.840	14.928	918.532	686.986
229.855	14.842	917.750	685.988
230.869	14.993	917.069	686.038
231.884	14.696	917.110	684.790
232.899	14.952	915.758	684.768
233.913	14.786	915.126	683.554
234.928	14.799	914.565	683.130
235.942	14.951	913.713	683.054
236.957	14.945	912.905	682.363
237.972	14.841	912.393	681.498
238.986	14.821	911.793	680.908
240.001	14.937	910.830	680.601
241.015	14.929	910.441	680.215
242.030	14.870	909.754	679.403
243.045	14.800	909.315	678.732
244.059	15.006	908.364	678.798
245.074	15.074	907.810	678.597
246.088	14.932	907.029	677.379
247.103	15.231	906.269	677.960
248.117	15.054	906.029	677.006
249.132	15.145	905.162	676.666
250.147	15.124	904.681	676.164
251.161	15.241	903.931	676.014
252.176	15.230	902.936	675.164
253.190	15.369	902.371	675.241
254.205	15.238	902.206	674.532
255.220	15.369	901.681	674.606
256.234	15.399	900.486	673.775
257.249	15.335	900.019	673.109
258.263	15.345	899.473	672.680
259.278	15.366	898.929	672.297
260.293	15.440	898.332	672.090
261.307	15.563	897.685	672.037
262.322	15.591	896.930	671.523
263.336	15.659	896.627	671.508
264.351	15.557	896.077	670.630
265.366	15.491	895.496	669.872
266.380	15.615	894.627	669.657
267.395	15.746	893.684	669.413
268.409	15.692	893.140	668.732
269.424	15.529	892.408	667.477
270.439	15.644	891.639	667.301
271.453	15.685	890.752	666.741
272.468	15.622	890.104	665.946
273.482	15.482	890.051	665.292
274.497	15.622	888.951	664.968
275.512	15.496	888.541	664.102
276.526	15.666	887.397	663.859
277.541	15.680	886.913	663.496
278.555	15.598	886.353	662.692
279.570	15.585	885.965	662.292
280.585	15.690	885.263	662.124
281.599	15.747	884.575	661.773
282.614	15.826	883.847	661.484
283.628	15.866	882.893	660.867
284.643	15.908	882.533	660.705
285.657	16.010	881.925	660.589
286.672	15.854	882.298	660.199
287.687	15.784	881.484	659.259
288.701	15.845	881.012	659.085
289.716	15.824	880.265	658.387
290.730	15.798	879.349	657.541
291.745	15.900	878.966	657.594
292.760	16.000	877.861	657.100
293.774	15.967	877.294	656.490
294.789	15.863	876.930	655.754
295.803	15.992	876.496	655.874
296.818	15.904	875.833	654.977
297.833	15.906	874.987	654.293
298.847	15.905	874.335	653.743
299.862	16.148	872.960	653.601
300.876	16.001	872.748	652.812
301.891	15.932	872.313	652.162
302.906	16.181	871.522	652.479
303.920	16.136	870.901	651.780
304.935	16.110	870.333	651.198
305.949	16.186	869.756	651.001
306.964	16.223	868.952	650.486
307.979	16.158	868.435	649.790
308.993	16.157	867.817	649.266
310.008	16.216	867.374	649.104
311.022	16.189	866.760	648.484
312.037	16.243	866.292	648.285
313.052	16.219	866.204	648.066
314.066	16.179	865.118	647.045
315.081	16.168	864.550	646.522
316.095	16.382	863.642	646.604
317.110	16.432	862.984	646.246
318.125	16.218	862.841	645.262
319.139	16.273	862.448	645.121
320.154	16.248	861.579	644.319
321.168	16.307	861.211	644.211
322.183	16.395	860.850	644.222
323.197	16.370	859.941	643.386
324.212	16.320	859.697	642.959
325.227	16.327	858.949	642.369
326.241	16.444	858.363	642.316
327.256	16.290	858.339	641.660
328.270	16.381	857.442	641.275
329.285	16.466	856.819	641.077
330.300	16.361	856.231	640.182
331.314	16.440	855.473	639.858
332.329	16.407	854.971	639.299
333.343	16.525	853.954	638.927
334.358	16.475	853.990	638.711
335.373	16.558	853.367	638.500
336.387	16.550	852.593	637.835
337.402	16.661	851.910	637.687
338.416	16.661	851.458	637.293
339.431	16.683	851.060	637.019
340.446	16.708	850.100	636.337
341.460	16.651	850.061	636.039
342.475	16.745	849.370	635.818
343.489	16.929	848.661	635.922
344.504	16.734	848.234	634.815
345.519	16.712	847.776	634.332
346.533	16.912	847.064	634.495
347.548	17.018	846.375	634.316
348.562	16.792	846.144	633.242
349.577	16.865	845.509	632.986
350.592	16.818	844.870	632.275
351.606	16.858	844.535	632.117
352.621	16.740	844.037	631.248
353.635	16.763	843.611	630.958
354.650	16.719	843.356	630.549
355.665	16.893	842.798	630.725
356.679	16.984	841.952	630.374
357.694	17.015	841.582	630.155
358.708	16.754	841.141	628.802
359.723	16.913	840.368	628.757
360.738	16.946	839.951	628.511
361.752	16.874	839.755	628.042
362.767	16.999	839.188	628.026
363.781	16.961	838.637	627.418
364.796	16.975	837.975	626.919
365.810	17.077	837.753	627.074
366.825	17.087	837.615	626.953
367.840	17.105	837.340	626.757
368.854	17.147	836.589	626.293
369.869	17.103	836.252	625.823
370.883	17.208	835.241	625.399
371.898	17.174	834.637	624.765
372.913	17.146	834.424	624.450
373.927	17.216	833.702	624.109
374.942	17.185	833.349	623.677
375.956	17.234	832.546	623.201
376.971	17.231	831.903	622.651
377.986	17.352	831.369	622.639
379.000	17.342	831.072	622.326
380.015	17.392	830.559	622.070
381.029	17.441	829.590	621.468
382.044	17.434	829.118	621.034
383.059	17.316	829.172	620.590
384.073	17.297	828.517	619.975
385.088	17.427	827.528	619.653
386.102	17.406	826.962	619.099
387.117	17.405	826.516	618.705
388.132	17.335	826.569	618.435
389.146	17.487	825.456	618.100
390.161	17.462	825.573	618.043
391.175	17.507	825.120	617.814
392.190	17.459	824.492	617.113
393.205	17.462	823.806	616.558
394.219	17.535	823.990	616.904
395.234	17.433	823.272	615.942
396.248	17.605	822.525	615.950
397.263	17.626	821.890	615.497
398.278	17.405	821.871	614.630
399.292	17.427	821.198	614.151
400.307	17.518	820.554	613.946
401.321	17.428	820.401	613.452
402.336	17.562	819.736	613.383
403.350	17.694	819.221	613.416
404.365	17.538	818.930	612.582
405.380	17.685	818.128	612.458
406.394	17.774	817.783	612.465
407.409	17.831	817.364	612.300
408.423	17.781	816.973	611.774
409.438	17.839	816.450	611.536
410.453	17.761	816.104	610.946
411.467	17.903	815.757	611.139
412.482	17.861	815.375	610.649
413.496	17.889	815.006	610.418
414.511	17.781	814.665	609.724
415.526	17.818	814.178	609.437
416.540	18.081	813.296	609.659
417.555	18.050	813.211	609.431
418.569	17.867	813.049	608.604
419.584	17.808	812.722	608.095
420.599	17.975	811.859	607.993
421.613	115.248	1300.756	1492.679
422.628	99.732	1371.948	1492.735
