DTS Sentinel unit serial number:	SN413079Multiplexer serial number:	ORYXHardware model number:	OX4-SRSoftware version number:	ORYX F/W v4.00 Oryx Data Collector v3.7.2.0data status	okinstallation	princeton_trtdifferential loss correction	single-endedforward channel	channel 3reverse channel	N/Adate	2019/09/12time	21:28:34forward acquisition time	60.00reverse acquisition time	0.00gamma	496.2192k internal	0.2326k external	0.2326temperature offset calibration	1.0126default loss term (dB/km)	0.3790temperature slope calibration	1.0000multiplexer offset coefficient	1.0000multiplexer slope coefficient	1.0000fibre end	0.00T internal ref (°C)	30.45T ext. ref 1 (°C)	3.64T ext. ref 2 (°C)	25.09length (m)	temperature (°C)	Stokes	anti-Stokes-747.200	800.000	0.042	0.137
-746.185	682.009	-0.160	0.420
-745.171	-200.000	0.026	0.255
-744.156	-74.762	-0.292	0.106
-743.142	737.346	-0.083	-0.224
-742.127	23.935	0.070	-0.059
-741.112	455.295	0.124	0.277
-740.098	136.727	-0.090	0.119
-739.083	-200.000	-0.056	0.278
-738.069	144.987	0.186	0.250
-737.054	800.000	-0.035	0.111
-736.039	-57.168	-0.192	0.085
-735.025	349.011	0.021	-0.041
-734.010	47.093	0.098	-0.092
-732.996	348.854	0.034	-0.067
-731.981	-91.624	-0.210	-0.060
-730.966	24.249	-0.099	0.083
-729.952	-200.000	0.050	-0.327
-728.937	-150.343	-0.453	-0.035
-727.923	800.000	0.049	-0.141
-726.908	-42.770	-0.188	-0.096
-725.894	-112.579	0.264	0.053
-724.879	48.140	-0.282	0.266
-723.864	-54.895	-0.104	0.047
-722.850	27.703	0.146	-0.124
-721.835	99.387	-0.200	-0.233
-720.821	800.000	-0.064	0.220
-719.806	-12.734	-0.179	0.117
-718.791	-140.714	0.257	0.027
-717.777	-34.365	-0.084	-0.047
-716.762	158.632	-0.027	-0.038
-715.748	12.650	-0.154	-0.120
-714.733	-123.161	-0.258	0.042
-713.718	-126.548	-0.211	0.032
-712.704	-200.000	0.027	0.212
-711.689	89.339	-0.254	-0.285
-710.675	-200.000	-0.002	0.034
-709.660	53.438	0.072	0.070
-708.645	239.308	-0.164	-0.274
-707.631	569.640	-0.085	-0.209
-706.616	269.503	-0.028	-0.049
-705.602	-10.458	-0.229	-0.153
-704.587	800.000	-0.073	-0.207
-703.572	-200.000	-0.038	-0.193
-702.558	800.000	0.050	0.147
-701.543	230.999	0.170	-0.280
-700.529	499.444	-0.061	0.141
-699.514	756.472	0.077	-0.209
-698.499	-200.000	-0.069	0.433
-697.485	800.000	-0.028	-0.079
-696.470	-200.000	-0.030	-0.272
-695.456	6.429	0.187	0.140
-694.441	-200.000	0.076	0.384
-693.426	-62.062	-0.068	0.029
-692.412	-200.000	0.004	-0.245
-691.397	202.511	0.242	0.376
-690.383	208.953	0.074	-0.116
-689.368	-6.956	0.088	0.060
-688.354	-147.533	-0.048	-0.004
-687.339	-115.447	0.381	0.072
-686.324	-192.880	0.159	0.001
-685.310	800.000	0.029	0.119
-684.295	-116.949	0.093	0.017
-683.281	66.676	-0.155	0.159
-682.266	-167.630	-0.246	-0.010
-681.251	-200.000	0.018	-0.267
-680.237	-133.865	0.160	-0.020
-679.222	800.000	-0.103	-0.319
-678.208	-59.150	-0.181	-0.078
-677.193	-42.445	0.528	0.271
-676.178	-134.962	-0.180	0.022
-675.164	100.491	-0.049	-0.057
-674.149	-73.146	-0.392	0.144
-673.135	-147.413	-0.050	0.004
-672.120	-200.000	-0.029	-0.260
-671.105	-200.000	-0.002	-0.143
-670.091	-128.609	0.179	-0.026
-669.076	600.727	-0.064	-0.161
-668.062	-34.822	0.125	0.069
-667.047	-123.709	0.467	-0.074
-666.032	-200.000	0.003	-0.113
-665.018	800.000	-0.060	-0.167
-664.003	-200.000	-0.029	-0.186
-662.989	-159.171	-0.086	0.005
-661.974	248.565	0.119	-0.203
-660.959	-76.374	-0.304	0.108
-659.945	348.916	-0.104	-0.207
-658.930	34.096	0.269	-0.236
-657.916	4.778	-0.240	-0.178
-656.901	338.812	0.208	0.406
-655.886	-89.083	0.084	-0.025
-654.872	-11.832	-0.210	0.139
-653.857	1.166	-0.249	0.180
-652.843	-133.018	-0.089	0.011
-651.828	-200.000	-0.044	-0.261
-650.814	-144.273	-0.135	-0.013
-649.799	-183.296	0.331	-0.006
-648.784	488.544	-0.021	-0.048
-647.770	-167.546	-0.099	0.004
-646.755	136.201	-0.185	-0.243
-645.741	800.000	0.136	-0.521
-644.726	-99.435	0.434	0.110
-643.711	-100.480	-0.215	0.053
-642.697	-77.269	-0.214	-0.075
-641.682	41.048	-0.212	-0.193
-640.668	-101.538	-0.159	-0.039
-639.653	260.984	-0.078	-0.135
-638.638	-132.933	0.073	-0.009
-637.624	-139.392	-0.141	0.015
-636.609	-47.392	0.057	-0.028
-635.595	800.000	0.121	0.468
-634.580	286.067	-0.164	-0.296
-633.565	28.600	-0.114	0.097
-632.551	-26.604	-0.268	-0.157
-631.536	-81.224	0.105	-0.035
-630.522	790.330	0.081	-0.224
-629.507	-27.712	-0.071	0.041
-628.492	-200.000	-0.013	-0.419
-627.478	-200.000	-0.020	0.089
-626.463	-113.805	-0.190	0.037
-625.449	-106.167	-0.214	0.048
-624.434	-77.805	0.261	-0.091
-623.419	-200.000	0.055	-0.279
-622.405	142.022	-0.097	-0.129
-621.390	484.850	-0.086	-0.195
-620.376	755.888	0.094	-0.256
-619.361	-96.904	0.349	0.092
-618.346	-51.951	0.286	-0.134
-617.332	30.427	-0.166	0.142
-616.317	305.439	-0.125	0.234
-615.303	42.008	-0.135	0.123
-614.288	-121.649	-0.165	-0.027
-613.273	6.069	-0.272	-0.202
-612.259	169.007	0.039	-0.056
-611.244	-72.126	0.075	-0.028
-610.230	-132.159	0.093	0.012
-609.215	-200.000	-0.008	0.347
-608.201	-91.973	-0.278	0.079
-607.186	-76.833	-0.167	-0.059
-606.171	-27.760	0.130	0.076
-605.157	225.060	-0.077	-0.125
-604.142	12.458	0.177	-0.137
-603.128	-92.449	-0.082	0.023
-602.113	6.240	-0.251	0.187
-601.098	28.240	0.283	0.240
-600.084	-200.000	0.013	0.326
-599.069	11.669	0.288	0.222
-598.055	-200.000	0.015	-0.084
-597.040	94.754	0.105	-0.120
-596.025	133.599	0.069	0.090
-595.011	30.903	-0.062	0.053
-593.996	800.000	0.064	0.264
-592.982	166.536	-0.115	0.163
-591.967	302.571	-0.148	0.274
-590.952	-165.523	-0.437	0.019
-589.938	14.778	0.226	-0.177
-588.923	-200.000	0.018	-0.230
-587.909	800.000	-0.041	0.166
-586.894	357.322	0.137	-0.273
-585.879	-200.000	-0.004	-0.167
-584.865	139.147	-0.226	0.298
-583.850	55.283	-0.190	0.184
-582.836	-143.108	0.465	-0.045
-581.821	-110.186	0.165	-0.034
-580.806	-83.862	0.224	-0.071
-579.792	753.344	-0.070	0.191
-578.777	615.270	-0.140	0.352
-577.763	800.000	0.048	0.171
-576.748	-117.780	0.285	-0.051
-575.733	322.831	0.140	-0.267
-574.719	339.066	0.149	0.290
-573.704	-145.279	0.401	-0.036
-572.690	-79.978	-0.217	0.073
-571.675	-17.943	-0.241	-0.151
-570.661	0.743	-0.216	-0.155
-569.646	24.340	-0.223	-0.185
-568.631	-200.000	0.000	-0.087
-567.617	-52.684	-0.413	-0.191
-566.602	-172.743	0.278	0.009
-565.588	78.455	-0.127	0.135
-564.573	-200.000	-0.029	-0.144
-563.558	129.213	0.293	-0.375
-562.544	-161.914	-0.445	-0.023
-561.529	-200.000	-0.052	0.386
-560.515	225.693	0.072	-0.117
-559.500	-115.432	-0.331	0.062
-558.485	-8.204	-0.221	-0.149
-557.471	-119.762	-0.182	0.031
-556.456	-77.380	-0.187	-0.065
-555.442	-200.000	0.037	0.219
-554.427	800.000	0.052	0.146
-553.412	-61.983	-0.309	0.129
-552.398	55.123	0.030	0.029
-551.383	-120.302	0.078	-0.013
-550.369	50.856	-0.070	-0.067
-549.354	-135.019	0.393	-0.048
-548.339	594.133	-0.162	0.400
-547.325	279.499	0.059	-0.106
-546.310	307.279	0.048	-0.089
-545.296	-133.097	-0.268	-0.034
-544.281	-200.000	-0.024	-0.217
-543.266	145.507	-0.125	0.168
-542.252	-200.000	0.003	0.327
-541.237	-60.968	0.201	0.085
-540.223	282.430	-0.061	-0.109
-539.208	47.117	0.055	0.051
-538.193	62.155	-0.241	0.241
-537.179	-143.407	0.057	0.005
-536.164	-200.000	-0.029	-0.134
-535.150	-71.477	0.532	-0.199
-534.135	308.791	-0.184	0.343
-533.121	77.690	0.061	-0.065
-532.106	53.113	-0.074	0.071
-531.091	-39.761	-0.097	-0.051
-530.077	-82.095	0.292	-0.095
-529.062	305.133	-0.072	-0.134
-528.048	-139.911	0.105	-0.011
-527.033	142.860	-0.405	0.539
-526.018	-60.896	0.167	-0.070
-525.004	-131.444	0.486	0.064
-523.989	-45.349	0.406	0.202
-522.975	800.000	-0.040	-0.145
-521.960	-144.545	-0.286	-0.026
-520.945	368.191	-0.083	-0.168
-519.931	316.380	0.027	-0.051
-518.916	36.868	-0.077	0.068
-517.902	196.115	0.122	0.185
-516.887	-35.694	0.479	-0.260
-515.872	800.000	-0.115	-0.450
-514.858	-200.000	-0.005	0.226
-513.843	800.000	0.081	-0.225
-512.829	174.778	0.358	0.518
-511.814	-200.000	-0.055	0.718
-510.799	-147.947	-0.279	0.023
-509.785	-61.413	0.177	-0.074
-508.770	-63.506	0.105	0.043
-507.756	-34.835	0.283	0.154
-506.741	37.758	0.230	0.205
-505.726	7.378	0.179	0.134
-504.712	-32.438	-0.138	0.077
-503.697	800.000	-0.031	0.117
-502.683	18.607	0.060	-0.048
-501.668	45.217	0.093	0.086
-500.653	-14.325	-0.104	-0.067
-499.639	-200.000	0.000	-0.016
-498.624	-50.208	0.241	-0.114
-497.610	535.451	0.054	-0.127
-496.595	81.801	-0.053	0.057
-495.581	72.379	-0.308	-0.321
-494.566	-91.902	-0.455	0.129
-493.551	87.034	-0.042	-0.047
-492.537	694.114	-0.034	-0.089
-491.522	-91.988	0.178	-0.050
-490.508	-41.623	-0.056	-0.029
-489.493	239.181	-0.195	-0.323
-488.478	113.437	-0.246	-0.298
-487.464	-200.000	-0.009	0.258
-486.449	157.189	-0.236	-0.326
-485.435	240.722	0.054	-0.090
-484.420	-200.000	-0.019	-0.107
-483.405	82.448	-0.150	0.163
-482.391	-151.601	-0.021	0.002
-481.376	31.658	0.128	0.110
-480.362	219.552	-0.247	0.395
-479.347	800.000	-0.024	0.089
-478.332	-59.280	-0.036	-0.015
-477.318	-11.103	0.295	0.195
-476.303	-93.075	-0.186	-0.052
-475.289	481.693	0.057	-0.128
-474.274	243.561	-0.089	-0.149
-473.259	-200.000	0.000	-0.016
-472.245	354.579	-0.065	-0.129
-471.230	43.948	-0.269	0.246
-470.216	-79.401	0.146	0.049
-469.201	-200.000	0.033	0.257
-468.186	-59.609	0.228	0.098
-467.172	-200.000	0.027	0.156
-466.157	-126.866	-0.292	0.043
-465.143	458.474	0.122	-0.272
-464.128	-29.332	-0.395	0.226
-463.113	-53.547	-0.236	0.108
-462.099	768.503	0.123	0.333
-461.084	-200.000	0.025	0.126
-460.070	-71.427	-0.290	-0.108
-459.055	123.367	0.244	-0.305
-458.040	800.000	0.072	0.272
-457.026	-200.000	0.040	0.404
-456.011	-32.653	-0.256	0.142
-454.997	286.698	0.097	0.175
-453.982	173.286	0.177	-0.255
-452.968	184.662	0.117	-0.174
-451.953	800.000	-0.077	-0.240
-450.938	191.629	0.237	-0.357
-449.924	-146.341	0.283	-0.025
-448.909	67.549	0.210	-0.214
-447.895	-200.000	0.002	0.124
-446.880	-76.309	-0.126	0.044
-445.865	564.743	0.082	0.197
-444.851	-109.907	-0.366	-0.077
-443.836	368.165	0.129	0.260
-442.822	194.711	0.176	0.266
-441.807	29.878	0.182	-0.155
-440.792	139.492	-0.080	-0.105
-439.778	158.357	0.266	-0.368
-438.763	-200.000	0.015	-0.166
-437.749	-200.000	-0.034	-0.335
-436.734	66.546	0.149	0.151
-435.719	78.883	0.090	0.096
-434.705	800.000	-0.094	0.292
-433.690	49.789	-0.220	0.207
-432.676	-112.738	0.141	0.028
-431.661	-200.000	0.039	0.340
-430.646	-23.515	0.065	0.039
-429.632	415.902	0.026	-0.055
-428.617	-66.659	0.089	-0.035
-427.603	-105.689	0.424	-0.096
-426.588	-142.518	-0.548	-0.054
-425.573	-131.283	-0.205	0.027
-424.559	-105.182	0.338	-0.077
-423.544	-200.000	0.045	0.366
-422.530	10.275	-0.230	0.175
-421.515	-99.846	-0.258	0.064
-420.500	-102.818	-0.145	-0.034
-419.486	102.931	0.154	-0.180
-418.471	92.491	0.120	-0.135
-417.457	0.107	-0.058	0.041
-416.442	-21.978	0.190	0.115
-415.428	-200.000	0.050	-0.384
-414.413	-200.000	-0.006	-0.169
-413.398	-85.041	-0.090	0.028
-412.384	-155.440	0.078	0.005
-411.369	-84.738	0.154	0.048
-410.355	104.392	0.176	-0.206
-409.340	-200.000	-0.010	-0.059
-408.325	-118.253	0.257	0.045
-407.311	-180.082	0.227	-0.005
-406.296	-200.000	0.026	0.180
-405.282	124.009	-0.061	-0.077
-404.267	-200.000	-0.032	-0.171
-403.252	9.111	-0.270	0.203
-402.238	800.000	0.120	0.393
-401.223	-74.223	0.300	0.108
-400.209	-200.000	-0.064	-0.321
-399.194	27.219	-0.064	-0.053
-398.179	-103.405	0.226	0.053
-397.165	-28.572	-0.010	0.006
-396.150	-200.000	-0.021	0.351
-395.136	-55.667	0.078	-0.035
-394.121	-138.073	0.317	0.035
-393.106	11.268	0.120	0.092
-392.092	-200.000	-0.060	-0.268
-391.077	800.000	0.030	-0.107
-390.063	161.781	-0.116	-0.162
-389.048	2.922	0.224	-0.162
-388.033	800.000	-0.023	0.089
-387.019	-200.000	0.017	0.167
-386.004	-79.603	-0.269	0.090
-384.990	-59.648	0.198	0.084
-383.975	-200.000	-0.003	-0.328
-382.960	57.299	-0.046	0.045
-381.946	-149.559	0.239	0.019
-380.931	-106.938	-0.091	-0.020
-379.917	-200.000	-0.029	0.369
-378.902	3.396	-0.029	-0.021
-377.888	201.703	-0.092	-0.142
-376.873	-145.736	0.071	0.006
-375.858	-200.000	-0.073	0.319
-374.844	-45.360	-0.166	-0.082
-373.829	729.294	-0.058	-0.153
-372.815	-153.772	0.197	0.013
-371.800	-112.353	-0.205	0.041
-370.785	800.000	-0.017	-0.051
-369.771	-151.913	0.238	0.017
-368.756	-200.000	0.029	0.413
-367.742	399.616	-0.065	0.135
-366.727	88.300	-0.338	0.373
-365.712	-176.693	-0.153	-0.004
-364.698	-8.481	0.329	0.220
-363.683	-18.025	0.098	0.061
-362.669	-18.338	0.222	0.138
-361.654	213.759	-0.296	-0.465
-360.639	405.429	-0.214	-0.448
-359.625	-165.941	0.243	0.010
-358.610	-200.000	-0.012	0.310
-357.596	-155.789	-0.190	-0.012
-356.581	-108.312	-0.242	0.052
-355.566	-200.000	0.039	0.270
-354.552	-114.528	0.116	-0.022
-353.537	214.125	0.109	-0.172
-352.523	-200.000	0.009	-0.081
-351.508	83.185	-0.211	-0.228
-350.493	-86.202	0.174	-0.053
-349.479	-10.468	-0.080	-0.052
-348.464	-200.000	0.024	-0.150
-347.450	58.521	-0.121	-0.118
-346.435	-35.311	0.031	0.017
-345.420	-200.000	0.020	0.324
-344.406	460.356	-0.103	-0.229
-343.391	4.332	0.150	0.109
-342.377	778.840	0.107	-0.292
-341.362	615.838	-0.109	0.272
-340.348	-200.000	-0.352	0.001
-339.333	-178.990	-0.074	-0.002
-338.318	143.992	-0.224	-0.296
-337.304	53.522	0.129	0.123
-336.289	191.700	0.117	0.175
-335.275	-200.000	0.026	-0.286
-334.260	54.763	-0.190	0.182
-333.245	130.709	0.064	0.081
-332.231	377.819	0.101	0.206
-331.216	800.000	0.086	0.243
-330.202	-43.291	-0.159	0.080
-329.187	-121.452	-0.195	-0.032
-328.172	-88.315	0.430	-0.128
-327.158	-142.308	-0.205	-0.020
-326.143	-138.800	0.309	-0.033
-325.129	-16.443	0.067	-0.042
-324.114	800.000	-0.049	-0.193
-323.099	680.284	-0.048	0.124
-322.085	-164.593	-0.225	-0.010
-321.070	12.893	-0.032	-0.025
-320.056	-200.000	-0.042	-0.304
-319.041	38.782	0.146	0.129
-318.026	-119.847	0.137	0.023
-317.012	-1.781	0.119	-0.083
-315.997	-46.059	-0.187	-0.091
-314.983	2.365	0.038	-0.027
-313.968	34.465	-0.173	-0.150
-312.953	-86.196	-0.188	-0.058
-311.939	-104.573	0.112	0.026
-310.924	-138.923	-0.370	0.040
-309.910	800.000	-0.078	0.310
-308.895	-24.670	-0.064	-0.038
-307.880	154.832	0.053	0.073
-306.866	682.670	0.012	0.032
-305.851	-200.000	0.051	-0.271
-304.837	314.362	-0.072	-0.134
-303.822	253.006	-0.142	-0.240
-302.807	-34.647	-0.424	-0.230
-301.793	-9.021	-0.211	-0.140
-300.778	-14.100	0.114	0.073
-299.764	81.822	-0.163	-0.175
-298.749	772.893	0.043	0.118
-297.735	-23.350	-0.125	-0.075
-296.720	107.901	0.237	-0.280
-295.705	358.819	-0.036	0.072
-294.691	-51.523	-0.104	-0.048
-293.676	217.618	0.087	-0.137
-292.662	77.578	-0.086	0.091
-291.647	-200.000	-0.007	0.051
-290.632	800.000	0.040	-0.128
-289.618	133.965	0.053	0.067
-288.603	-200.000	0.037	0.230
-287.589	72.451	0.032	-0.033
-286.574	-200.000	-0.009	-0.342
-285.559	-61.334	-0.135	0.056
-284.545	125.753	-0.182	0.228
-283.530	-97.874	0.040	0.010
-282.516	-89.010	0.471	0.138
-281.501	154.012	-0.177	0.240
-280.486	23.201	-0.089	-0.072
-279.472	-200.000	-0.035	-0.178
-278.457	-200.000	-0.008	0.063
-277.443	-111.512	0.167	-0.034
-276.428	-138.883	0.247	-0.027
-275.413	-96.627	-0.316	-0.082
-274.399	-40.854	0.161	0.083
-273.384	37.596	0.439	0.386
-272.370	-178.820	-0.238	-0.005
-271.355	-36.935	0.140	-0.074
-270.340	-200.000	-0.048	-0.432
-269.326	105.230	-0.253	-0.296
-268.311	61.805	-0.107	0.105
-267.297	800.000	0.073	0.255
-266.282	-106.127	0.046	0.010
-265.267	50.818	0.099	0.093
-264.253	800.000	-0.068	0.266
-263.238	176.834	0.166	0.239
-262.224	800.000	-0.099	-0.333
-261.209	-200.000	-0.005	-0.050
-260.195	173.827	-0.061	-0.088
-259.180	-200.000	-0.053	0.359
-258.165	32.221	0.110	0.094
-257.151	59.569	0.121	0.118
-256.136	587.892	-0.032	-0.078
-255.122	-144.507	0.218	0.020
-254.107	-64.629	0.213	0.086
-253.092	197.763	-0.059	0.088
-252.078	177.034	0.055	-0.079
-251.063	-189.007	0.295	0.004
-250.049	-200.000	0.001	0.155
-249.034	-87.767	-0.211	0.063
-248.019	503.471	-0.068	0.155
-247.005	800.000	-0.061	0.235
-245.990	768.998	-0.053	0.142
-244.976	289.824	0.167	0.299
-243.961	-107.851	0.090	-0.019
-242.946	-200.000	-0.021	-0.478
-241.932	71.368	-0.042	-0.043
-240.917	375.628	0.164	-0.330
-239.903	800.000	-0.046	0.165
-238.888	328.758	0.093	0.178
-237.873	-200.000	-0.012	-0.222
-236.859	73.189	0.270	-0.279
-235.844	11.360	0.215	-0.163
-234.830	72.650	-0.336	0.347
-233.815	800.000	0.123	-0.381
-232.800	800.000	0.009	0.029
-231.786	-45.847	0.409	-0.199
-230.771	-125.258	-0.139	-0.021
-229.757	-200.000	-0.012	0.168
-228.742	427.371	0.099	-0.211
-227.727	318.296	-0.160	-0.299
-226.713	26.653	-0.149	-0.123
-225.698	-200.000	-0.036	0.193
-224.684	-24.896	-0.154	-0.091
-223.669	6.567	0.099	0.073
-222.655	134.657	0.173	0.222
-221.640	-200.000	0.012	-0.128
-220.625	719.032	0.087	-0.229
-219.611	-200.000	-0.006	0.263
-218.596	3.520	0.194	-0.139
-217.582	-200.000	0.001	-0.213
-216.567	518.434	-0.032	-0.074
-215.552	-200.000	-0.010	-0.357
-214.538	-109.776	0.106	-0.022
-213.523	-200.000	-0.035	0.245
-212.509	-19.122	-0.080	0.049
-211.494	-200.000	0.025	0.227
-210.479	65.750	0.283	-0.283
-209.465	-200.000	0.012	-0.127
-208.450	-49.639	-0.248	-0.116
-207.436	-63.973	0.267	0.108
-206.421	-74.479	-0.242	-0.086
-205.406	-141.191	0.172	0.017
-204.392	3.706	0.136	0.098
-203.377	800.000	-0.061	0.181
-202.363	800.000	0.040	0.162
-201.348	-200.000	0.003	0.043
-200.333	405.878	0.085	-0.177
-199.319	-119.033	-0.221	0.038
-198.304	64.188	0.159	0.158
-197.290	-200.000	0.008	-0.243
-196.275	-200.000	0.000	-0.256
-195.260	-6.622	-0.273	0.184
-194.246	444.082	-0.149	0.322
-193.231	-51.232	0.045	-0.021
-192.217	-127.939	-0.121	-0.017
-191.202	-18.447	0.223	0.137
-190.187	38.181	0.140	0.123
-189.173	625.104	-0.056	-0.139
-188.158	293.244	0.060	0.109
-187.144	-200.000	-0.021	-0.135
-186.129	41.267	0.290	0.259
-185.114	800.000	0.040	-0.137
-184.100	300.387	0.103	-0.188
-183.085	4.325	0.242	-0.175
-182.071	-200.000	0.036	-0.282
-181.056	187.610	-0.176	0.259
-180.042	-200.000	0.032	0.150
-179.027	-75.504	0.168	-0.059
-178.012	-200.000	0.014	-0.129
-176.998	-200.000	-0.008	-0.081
-175.983	-68.326	-0.127	0.049
-174.969	168.115	0.096	-0.135
-173.954	232.462	-0.103	0.167
-172.939	-200.000	-0.031	-0.136
-171.925	54.432	-0.146	0.139
-170.910	-132.021	-0.407	0.052
-169.896	-1.989	-0.135	-0.093
-168.881	234.815	-0.115	-0.186
-167.866	-133.564	0.034	-0.004
-166.852	-47.564	0.105	0.050
-165.837	800.000	0.038	-0.142
-164.823	-66.762	-0.237	0.093
-163.808	-200.000	0.031	0.278
-162.793	800.000	0.053	-0.182
-161.779	-200.000	0.020	-0.187
-160.764	800.000	-0.078	-0.253
-159.750	-200.000	-0.011	0.108
-158.735	210.257	0.192	-0.298
-157.720	-102.726	-0.203	-0.048
-156.706	12.769	-0.339	-0.258
-155.691	-9.592	-0.097	0.064
-154.677	42.911	-0.080	0.072
-153.662	663.167	-0.054	-0.138
-152.647	66.976	0.126	0.126
-151.633	-172.747	0.088	-0.003
-150.618	-1.739	0.268	0.186
-149.604	800.000	0.013	-0.046
-148.589	356.203	-0.268	-0.526
-147.574	202.078	-0.075	0.114
-146.560	-154.853	-0.120	0.008
-145.545	670.749	-0.044	0.111
-144.531	-170.039	-0.401	0.014
-143.516	5.977	0.211	-0.154
-142.502	-85.441	0.198	-0.061
-141.487	129.680	-0.078	0.099
-140.472	-200.000	0.048	-0.383
-139.458	-106.807	0.224	0.049
-138.443	800.000	-0.027	0.082
-137.429	276.337	-0.143	-0.250
-136.414	-121.767	-0.228	0.037
-135.399	181.792	-0.090	0.131
-134.385	-112.580	-0.344	0.068
-133.370	554.096	-0.097	0.231
-132.356	-200.000	0.031	0.276
-131.341	-164.902	-0.408	-0.018
-130.326	-200.000	0.003	-0.248
-129.312	25.398	-0.124	0.102
-128.297	800.000	0.079	0.240
-127.283	-69.370	-0.363	0.137
-126.268	-200.000	-0.015	-0.320
-125.253	16.890	-0.107	0.083
-124.239	-142.070	-0.227	0.022
-123.224	-90.366	0.136	-0.039
-122.210	800.000	0.039	0.121
-121.195	-160.967	0.082	0.004
-120.180	143.791	-0.149	-0.195
-119.166	-57.181	-0.200	-0.087
-118.151	-89.843	0.120	-0.035
-117.137	-200.000	0.010	-0.303
-116.122	67.244	0.114	-0.115
-115.107	-52.079	0.067	-0.030
-114.093	87.144	-0.143	-0.155
-113.078	207.613	0.108	-0.166
-112.064	0.738	0.222	0.156
-111.049	116.759	-0.101	-0.122
-110.034	-83.404	0.159	-0.050
-109.020	-57.688	0.221	0.095
-108.005	-200.000	0.018	-0.230
-106.991	486.683	0.112	0.251
-105.976	100.015	0.176	0.200
-104.962	146.897	0.359	0.475
-103.947	15.591	0.118	-0.091
-102.932	-38.732	-0.034	0.017
-101.918	-26.093	0.324	-0.187
-100.903	3.029	0.075	-0.054
-99.889	800.000	0.091	0.391
-98.874	-200.000	0.018	0.246
-97.859	-43.164	0.117	-0.058
-96.845	-52.919	0.198	0.090
-95.830	150.001	0.185	0.247
-94.816	91.319	0.094	0.104
-93.801	667.154	0.095	0.242
-92.786	5.085	-0.241	0.175
-91.772	34.601	0.163	0.140
-90.757	611.198	0.068	0.166
-89.743	-200.000	-0.013	0.193
-88.728	209.872	0.091	-0.140
-87.713	-26.688	-0.196	0.113
-86.699	-200.000	-0.007	-0.095
-85.684	-63.973	-0.029	-0.012
-84.670	-88.786	-0.210	-0.061
-83.655	111.562	0.203	-0.240
-82.640	293.665	0.040	0.071
-81.626	133.277	-0.247	0.314
-80.611	62.418	0.158	0.155
-79.597	19.983	0.227	-0.180
-78.582	350.812	0.111	0.216
-77.567	-200.000	-0.009	-0.045
-76.553	4.086	-0.300	0.216
-75.538	-183.017	-0.168	0.003
-74.524	800.000	-0.120	-0.340
-73.509	-200.000	-0.018	0.218
-72.494	-30.410	-0.273	0.152
-71.480	-87.528	-0.359	0.107
-70.465	-200.000	0.017	-0.086
-69.451	-200.000	-0.016	0.188
-68.436	800.000	0.051	0.197
-67.422	618.122	0.047	0.115
-66.407	-140.405	-0.222	-0.023
-65.392	-155.831	-0.055	-0.003
-64.378	139.086	-0.183	0.236
-63.363	63.391	0.101	-0.099
-62.349	-154.652	0.113	0.007
-61.334	139.820	-0.807	-1.045
-60.319	-50.809	0.813	0.376
-59.305	-200.000	-0.185	-1.206
-58.290	737.264	0.425	1.118
-57.276	-200.000	0.309	1.514
-56.261	-200.000	103.391	575.616
-55.246	539.351	1437.636	3358.406
-54.232	187.838	2620.816	3842.867
-53.217	112.563	2157.692	2564.231
-52.203	40.711	1690.984	1496.864
-51.188	33.633	1502.331	1282.181
-50.173	31.175	1475.626	1242.993
-49.159	51.327	1529.830	1425.931
-48.144	52.265	1547.081	1448.328
-47.130	33.752	1503.990	1284.198
-46.115	30.791	1488.817	1251.327
-45.100	30.583	1485.390	1246.999
-44.086	30.441	1483.613	1244.509
-43.071	30.402	1481.782	1242.662
-42.057	30.432	1480.256	1241.533
-41.042	30.388	1478.624	1239.826
-40.027	30.374	1477.454	1238.700
-39.013	30.444	1475.769	1237.703
-37.998	30.409	1474.159	1236.073
-36.984	30.489	1473.052	1235.628
-35.969	30.352	1472.172	1233.931
-34.954	30.447	1470.573	1233.168
-33.940	30.392	1469.271	1231.667
-32.925	30.460	1468.108	1231.093
-31.911	30.537	1466.348	1230.078
-30.896	30.509	1465.416	1229.059
-29.881	30.449	1464.627	1227.953
-28.867	30.545	1462.643	1226.873
-27.852	30.598	1461.181	1225.946
-26.838	30.554	1460.378	1224.934
-25.823	30.542	1458.321	1223.082
-24.809	30.497	1457.337	1221.911
-23.794	30.573	1455.498	1220.826
-22.779	30.524	1454.575	1219.679
-21.765	30.532	1453.594	1218.859
-20.750	30.489	1452.113	1217.286
-19.736	30.475	1451.108	1216.308
-18.721	30.553	1450.120	1215.942
-17.706	30.411	1449.801	1214.692
-16.692	30.400	1448.354	1213.363
-15.677	30.498	1447.109	1212.914
-14.663	30.446	1445.884	1211.495
-13.648	30.401	1445.346	1210.705
-12.633	30.380	1444.352	1209.688
-11.619	30.502	1443.540	1209.752
-10.604	30.319	1442.809	1207.902
-9.590	30.348	1441.830	1207.223
-8.575	30.363	1440.873	1206.469
-7.560	30.374	1440.230	1205.957
-6.546	30.428	1439.168	1205.368
-5.531	30.397	1438.188	1204.297
-4.517	30.354	1437.553	1203.439
-3.502	30.323	1436.465	1202.284
-2.487	30.423	1434.938	1201.604
-1.473	30.379	1434.107	1200.573
-0.458	30.382	1432.828	1199.477
0.556	31.937	1423.256	1188.295
1.571	28.746	1399.039	1148.064
2.586	25.122	1341.895	1079.307
3.600	23.290	1262.253	1004.773
4.615	21.919	1216.823	961.020
5.629	19.162	1160.347	901.915
6.644	11.199	1077.523	798.585
7.659	4.789	1038.326	739.113
8.673	3.807	1033.154	730.726
9.688	3.634	1029.375	727.174
10.702	3.491	1028.052	725.503
11.717	3.618	1025.874	724.496
12.731	6.385	1028.971	739.633
13.746	14.814	1040.589	787.804
14.761	21.857	1049.328	827.710
15.775	23.809	1050.367	837.670
16.790	23.459	1049.543	835.288
17.804	22.816	1048.323	831.217
18.819	22.267	1046.627	827.217
19.834	22.004	1045.959	825.380
20.848	22.019	1045.341	824.890
21.863	22.276	1044.901	825.674
22.877	22.152	1044.554	824.746
23.892	21.951	1044.203	823.455
24.907	21.768	1042.888	821.486
25.921	21.704	1042.076	820.476
26.936	21.737	1041.098	819.784
27.950	21.558	1040.332	818.273
28.965	21.594	1038.795	817.158
29.980	21.507	1038.040	816.089
30.994	21.932	1036.356	816.671
32.009	21.957	1036.136	816.541
33.023	22.082	1035.427	816.490
34.038	21.970	1034.852	815.448
35.053	21.908	1033.889	814.326
36.067	21.709	1032.774	812.456
37.082	21.681	1032.020	811.659
38.096	21.644	1031.351	810.890
39.111	21.766	1030.795	810.948
40.126	21.935	1029.976	811.013
41.140	21.878	1028.528	809.534
42.155	21.508	1027.153	806.678
43.169	21.312	1025.658	804.530
44.184	21.010	1025.359	802.832
45.199	21.047	1024.008	801.876
46.213	21.053	1023.000	801.039
47.228	21.247	1022.239	801.262
48.242	21.590	1022.040	802.612
49.257	21.732	1022.216	803.328
50.271	21.806	1020.916	802.576
51.286	21.950	1019.664	802.176
52.301	22.019	1019.266	802.107
53.315	21.803	1018.865	800.738
54.330	21.763	1018.139	799.911
55.344	21.635	1016.837	798.233
56.359	21.492	1015.960	796.822
57.374	21.421	1014.967	795.654
58.388	21.383	1014.240	794.838
59.403	21.202	1013.215	793.143
60.417	21.075	1012.733	792.120
61.432	21.099	1011.517	791.207
62.447	21.214	1010.794	791.092
63.461	21.092	1010.266	790.058
64.476	20.969	1009.396	788.752
65.490	20.974	1008.210	787.778
66.505	20.861	1007.625	786.738
67.520	20.924	1006.989	786.457
68.534	20.981	1006.352	786.146
69.549	21.032	1005.150	785.370
70.563	20.760	1004.296	783.406
71.578	20.737	1003.285	782.448
72.593	20.550	1002.768	781.134
73.607	20.365	1001.325	779.110
74.622	20.283	1000.429	777.977
75.636	20.474	999.973	778.407
76.651	20.544	999.097	777.972
77.666	20.618	998.152	777.496
78.680	20.745	997.529	777.513
79.695	20.651	997.267	776.820
80.709	20.732	996.384	776.421
81.724	20.821	995.872	776.352
82.739	20.998	995.021	776.409
83.753	21.000	994.794	776.171
84.768	21.526	993.856	777.712
85.782	21.963	994.071	779.750
86.797	22.192	993.983	780.628
87.812	22.304	992.612	779.979
88.826	22.047	991.822	778.153
89.841	22.015	990.440	776.856
90.855	22.100	990.468	777.185
91.870	22.160	989.542	776.656
92.884	22.167	988.987	776.182
93.899	22.075	988.058	774.982
94.914	22.077	987.323	774.345
95.928	22.087	986.404	773.598
96.943	22.209	985.700	773.515
97.957	21.972	984.948	771.815
98.972	21.820	983.735	770.125
99.987	21.949	983.124	770.146
101.001	22.050	982.381	769.938
102.016	22.052	981.516	769.201
103.030	21.898	980.736	767.848
104.045	21.928	979.904	767.261
105.060	21.992	978.695	766.524
106.074	21.964	977.814	765.646
107.089	21.598	977.094	763.417
108.103	21.301	976.176	761.341
109.118	21.173	975.067	759.851
110.133	20.984	973.752	757.938
111.147	20.805	972.716	756.287
112.162	20.794	971.345	755.104
113.176	20.791	970.621	754.463
114.191	21.015	970.192	755.032
115.206	21.194	969.388	755.113
116.220	21.147	968.610	754.237
117.235	21.001	967.947	753.027
118.249	21.066	966.605	752.193
119.264	20.782	966.042	750.465
120.279	20.776	965.146	749.680
121.293	20.706	964.360	748.700
122.308	20.599	963.416	747.441
123.322	20.485	963.033	746.589
124.337	20.334	961.788	744.907
125.352	20.256	960.607	743.594
126.366	20.287	959.534	742.831
127.381	20.375	958.478	742.323
128.395	20.469	958.131	742.392
129.410	20.557	957.013	741.834
130.424	20.742	956.196	741.923
131.439	20.754	955.227	741.157
132.454	20.967	954.956	741.788
133.468	21.123	954.434	741.982
134.483	20.998	953.525	740.676
135.497	21.180	952.649	740.704
136.512	21.107	952.087	739.890
137.527	21.186	951.476	739.685
138.541	21.172	950.710	738.966
139.556	21.148	949.826	738.112
140.570	21.293	949.180	738.158
141.585	21.382	948.733	738.121
142.600	21.623	948.738	739.074
143.614	21.771	947.892	738.975
144.629	22.020	946.967	739.239
145.643	21.980	946.689	738.787
146.658	22.113	945.498	738.352
147.673	21.750	944.334	735.853
148.687	21.591	942.783	733.911
149.702	21.363	942.066	732.336
150.716	21.069	941.629	730.698
151.731	21.172	940.192	729.949
152.746	21.249	939.332	729.537
153.760	21.286	938.874	729.272
154.775	21.349	938.087	728.858
155.789	21.579	937.127	729.006
156.804	21.552	936.437	728.295
157.819	21.514	935.626	727.443
158.833	21.566	935.467	727.469
159.848	21.795	934.886	727.905
160.862	21.946	934.259	727.979
161.877	21.951	933.263	727.157
162.892	21.638	931.853	724.698
163.906	21.377	930.160	722.239
164.921	21.100	930.006	720.914
165.935	20.912	929.260	719.497
166.950	21.077	928.242	719.322
167.964	21.256	927.460	719.389
168.979	21.401	926.467	719.155
169.994	21.287	925.115	717.571
171.008	21.082	924.555	716.235
172.023	21.335	923.753	716.588
173.037	21.698	923.267	717.633
174.052	21.834	923.151	718.035
175.067	21.717	922.361	716.880
176.081	21.345	921.222	714.411
177.096	21.029	919.637	711.827
178.110	20.880	918.771	710.490
179.125	20.818	918.389	709.876
180.140	20.981	917.864	710.073
181.154	20.928	917.476	709.492
182.169	21.383	916.958	710.881
183.183	21.681	916.548	711.711
184.198	21.752	915.621	711.214
185.213	21.651	915.207	710.421
186.227	21.581	914.521	709.541
187.242	21.747	914.166	709.877
188.256	21.836	913.015	709.281
189.271	21.861	912.884	709.218
190.286	22.041	912.471	709.559
191.300	21.758	911.319	707.461
192.315	21.334	909.729	704.456
193.329	20.841	908.591	701.525
194.344	20.799	908.373	701.125
195.359	21.224	907.592	702.170
196.373	21.361	907.434	702.537
197.388	21.274	907.255	701.988
198.402	21.617	907.017	703.117
199.417	21.924	906.986	704.264
200.432	22.167	906.666	704.930
201.446	22.262	906.458	705.083
202.461	22.433	905.834	705.221
203.475	22.386	905.854	704.989
204.490	22.261	904.645	703.484
205.504	21.932	902.892	700.746
206.519	21.782	902.338	699.654
207.534	21.716	901.679	698.817
208.548	21.640	900.867	697.824
209.563	21.737	900.251	697.670
210.577	21.775	899.540	697.211
211.592	21.683	898.939	696.315
212.607	22.019	899.217	697.804
213.621	22.227	898.653	698.133
214.636	22.181	898.101	697.460
215.650	22.219	897.037	696.723
216.665	22.031	896.464	695.472
217.680	22.064	895.818	695.040
218.694	22.234	895.713	695.569
219.709	22.320	895.052	695.332
220.723	22.216	894.569	694.485
221.738	22.186	893.764	693.680
222.753	21.939	892.960	692.023
223.767	21.854	892.483	691.254
224.782	21.977	891.642	691.028
225.796	22.103	891.227	691.139
226.811	22.208	890.677	691.064
227.826	22.236	889.236	689.996
228.840	21.859	888.735	688.067
229.855	21.872	887.594	687.174
230.869	21.825	887.177	686.606
231.884	21.746	886.671	685.844
232.899	21.764	885.719	685.119
233.913	21.597	885.253	684.046
234.928	21.585	884.693	683.505
235.942	21.366	883.717	681.838
236.957	21.312	883.145	681.125
237.972	21.263	882.191	680.136
238.986	21.384	881.952	680.363
240.001	21.409	880.941	679.622
241.015	21.301	880.962	679.156
242.030	21.417	880.551	679.232
243.045	21.646	879.335	679.122
244.059	21.703	879.221	679.194
245.074	21.804	878.461	678.938
246.088	21.637	878.554	678.302
247.103	21.868	877.944	678.666
248.117	22.047	877.604	679.036
249.132	22.269	877.339	679.629
250.147	22.619	877.077	680.718
251.161	23.177	876.581	682.422
252.176	23.312	876.198	682.586
253.190	23.201	875.776	681.769
254.205	23.288	875.232	681.618
255.220	23.425	874.448	681.475
256.234	23.176	873.984	680.096
257.249	23.057	873.234	678.997
258.263	23.063	872.696	678.540
259.278	23.054	871.921	677.844
260.293	22.989	871.372	677.107
261.307	22.934	871.043	676.582
262.322	23.194	870.387	677.008
263.336	23.164	870.108	676.614
264.351	23.255	869.172	676.174
265.366	23.090	868.776	675.180
266.380	23.063	867.583	674.086
267.395	23.235	867.137	674.336
268.409	23.224	866.463	673.710
269.424	22.979	865.619	672.063
270.439	22.948	865.170	671.537
271.453	23.025	864.254	671.061
272.468	22.840	863.393	669.629
273.482	22.702	862.851	668.627
274.497	22.686	862.513	668.246
275.512	22.714	861.655	667.629
276.526	22.788	860.729	667.130
277.541	22.698	860.141	666.276
278.555	22.693	859.909	666.020
279.570	22.987	859.634	666.856
280.585	23.300	859.289	667.711
281.599	23.310	858.894	667.383
282.614	23.062	857.992	665.688
283.628	22.738	857.346	663.911
284.643	22.581	857.045	663.026
285.657	22.807	855.788	662.845
286.672	22.717	855.259	662.038
287.687	22.580	855.195	661.417
288.701	22.695	854.888	661.552
289.716	22.702	854.294	661.060
290.730	22.685	853.600	660.402
291.745	22.770	852.948	660.156
292.760	22.984	851.993	660.156
293.774	23.034	851.591	659.976
294.789	23.165	851.790	660.561
295.803	23.252	851.155	660.331
296.818	22.991	850.010	658.412
297.833	22.724	849.512	656.977
298.847	22.754	848.422	656.186
299.862	22.831	847.923	656.030
300.876	22.849	847.521	655.726
301.891	23.119	847.279	656.482
302.906	23.314	847.044	656.968
303.920	23.473	845.799	656.533
304.935	23.686	845.426	656.972
305.949	23.861	845.257	657.429
306.964	23.705	844.703	656.364
307.979	23.335	844.005	654.396
308.993	23.169	843.493	653.329
310.008	23.294	843.034	653.378
311.022	23.415	842.449	653.312
312.037	23.404	841.901	652.789
313.052	23.238	841.166	651.550
314.066	22.898	840.216	649.508
315.081	22.738	839.238	648.106
316.095	22.524	838.841	646.954
317.110	22.762	838.321	647.372
318.125	22.645	837.885	646.547
319.139	22.647	837.320	646.061
320.154	22.443	836.904	644.936
321.168	22.418	836.158	644.214
322.183	22.599	835.873	644.599
323.197	22.825	835.564	645.131
324.212	22.673	834.846	643.965
325.227	22.928	834.324	644.435
326.241	22.898	833.512	643.641
327.256	22.673	833.269	642.577
328.270	22.593	832.794	641.861
329.285	22.504	832.342	641.133
330.300	22.617	831.224	640.623
331.314	22.544	830.683	639.885
332.329	22.659	830.021	639.738
333.343	22.870	829.893	640.347
334.358	23.079	829.711	640.907
335.373	23.227	829.094	640.910
336.387	23.136	828.792	640.291
337.402	23.147	828.046	639.698
338.416	23.497	827.171	640.229
339.431	23.635	827.040	640.569
340.446	23.829	826.708	640.956
341.460	23.860	826.489	640.838
342.475	23.961	825.993	640.761
343.489	24.011	825.536	640.530
344.504	24.046	825.143	640.294
345.519	24.208	824.589	640.390
346.533	24.176	824.416	640.086
347.548	24.197	823.952	639.744
348.562	23.957	822.790	637.925
349.577	23.492	822.077	635.648
350.592	23.394	821.326	634.659
351.606	23.263	820.808	633.734
352.621	23.125	820.522	632.966
353.635	23.207	819.567	632.467
354.650	23.249	819.159	632.243
355.665	23.311	818.996	632.283
356.679	23.435	818.308	632.140
357.694	23.311	818.547	631.825
358.708	23.590	817.650	632.072
359.723	23.479	816.910	631.048
360.738	23.570	816.390	630.913
361.752	23.277	816.424	629.842
362.767	23.354	815.332	629.219
363.781	23.715	815.419	630.511
364.796	24.038	815.070	631.333
365.810	24.048	815.054	631.300
366.825	24.280	814.183	631.390
367.840	24.369	814.316	631.753
368.854	24.222	814.210	631.094
369.869	24.054	812.985	629.495
370.883	23.910	812.293	628.394
371.898	23.889	811.844	627.916
372.913	24.045	811.564	628.195
373.927	24.148	810.888	627.981
374.942	23.987	809.974	626.648
375.956	23.837	809.293	625.538
376.971	24.079	808.899	626.029
377.986	24.161	808.520	625.969
379.000	24.339	808.242	626.323
380.015	24.413	807.810	626.193
381.029	24.419	807.221	625.703
382.044	24.308	806.311	624.553
383.059	24.647	805.365	624.950
384.073	24.523	805.191	624.326
385.088	24.410	804.529	623.363
386.102	24.020	803.644	621.262
387.117	23.755	802.863	619.681
388.132	23.646	802.378	618.870
389.146	23.604	802.272	618.588
390.161	23.658	801.826	618.375
391.175	23.964	801.542	619.166
392.190	24.235	801.028	619.658
393.205	24.300	800.537	619.449
394.219	23.900	799.839	617.465
395.234	23.594	799.320	615.949
396.248	23.587	798.362	615.130
397.263	23.414	798.135	614.303
398.278	23.536	797.897	614.489
399.292	23.609	797.106	614.077
400.307	23.283	796.589	612.497
401.321	23.394	795.992	612.367
402.336	23.256	796.039	611.873
403.350	23.467	795.868	612.416
404.365	23.735	795.783	613.222
405.380	24.046	795.610	614.107
406.394	24.422	795.437	615.216
407.409	24.491	794.986	615.051
408.423	24.660	794.384	615.111
409.438	24.720	794.045	615.002
410.453	24.677	793.527	614.398
411.467	24.743	793.370	614.450
412.482	24.775	792.627	613.930
413.496	24.627	792.270	613.091
414.511	24.759	792.087	613.346
415.526	24.978	791.251	613.396
416.540	24.767	791.102	612.504
417.555	24.741	790.181	611.649
418.569	24.434	790.030	610.427
419.584	24.691	789.338	610.717
420.599	24.573	788.915	609.930
421.613	162.729	1370.233	1796.535
422.628	140.968	1454.932	1796.657
