DTS Sentinel unit serial number:	SN413079Multiplexer serial number:	ORYXHardware model number:	OX4-SRSoftware version number:	ORYX F/W v4.00 Oryx Data Collector v3.7.2.0data status	okinstallation	princeton_trtdifferential loss correction	single-endedforward channel	channel 3reverse channel	N/Adate	2019/09/18time	18:24:34forward acquisition time	60.00reverse acquisition time	0.00gamma	496.2192k internal	0.2294k external	0.2294temperature offset calibration	0.9997default loss term (dB/km)	0.3790temperature slope calibration	1.0000multiplexer offset coefficient	1.0000multiplexer slope coefficient	1.0000fibre end	0.00T internal ref (°C)	38.59T ext. ref 1 (°C)	0.93T ext. ref 2 (°C)	31.37length (m)	temperature (°C)	Stokes	anti-Stokes-747.200	-3.795	0.157	0.111
-746.185	154.403	0.191	0.268
-745.171	-65.158	-0.161	0.066
-744.156	-98.572	-0.209	-0.054
-743.142	474.480	-0.058	-0.133
-742.127	-28.667	0.486	0.286
-741.112	275.046	0.052	-0.094
-740.098	55.285	-0.186	-0.184
-739.083	233.395	0.234	-0.394
-738.069	253.812	-0.162	0.284
-737.054	-200.000	-0.096	-0.451
-736.039	8.158	0.342	-0.262
-735.025	-75.608	-0.095	0.035
-734.010	-153.273	0.207	0.015
-732.996	142.647	-0.097	0.131
-731.981	-78.032	-0.229	0.081
-730.966	247.407	0.119	-0.205
-729.952	70.932	-0.252	-0.267
-728.937	-88.793	-0.183	-0.056
-727.923	146.034	0.101	0.139
-726.908	757.079	0.110	-0.304
-725.894	-171.747	-0.377	-0.013
-724.879	288.293	0.109	-0.201
-723.864	-173.805	0.258	0.008
-722.850	-200.000	-0.012	-0.186
-721.835	-200.000	-0.003	-0.023
-720.821	-125.650	-0.221	0.034
-719.806	-200.000	0.008	0.343
-718.791	-108.452	-0.324	0.071
-717.777	-87.452	-0.320	0.099
-716.762	8.095	0.183	0.140
-715.748	87.308	-0.089	0.100
-714.733	-49.550	-0.184	0.090
-713.718	-200.000	-0.028	-0.326
-712.704	-118.748	0.162	0.029
-711.689	-19.644	0.138	0.087
-710.675	-115.650	-0.181	-0.035
-709.660	-200.000	0.015	-0.162
-708.645	-116.941	-0.212	-0.040
-707.631	306.782	0.106	0.202
-706.616	46.404	-0.156	0.148
-705.602	800.000	0.065	-0.237
-704.587	-15.500	0.194	-0.127
-703.572	-128.069	0.488	0.071
-702.558	156.650	-0.180	-0.254
-701.543	-15.776	0.298	-0.194
-700.529	-200.000	-0.036	-0.191
-699.514	424.309	-0.106	0.233
-698.499	266.594	0.139	-0.248
-697.485	443.486	0.096	-0.215
-696.470	-200.000	0.019	0.167
-695.456	37.735	-0.374	-0.340
-694.441	800.000	0.026	0.076
-693.426	800.000	0.060	0.232
-692.412	800.000	-0.110	-0.333
-691.397	-3.432	0.192	0.137
-690.383	195.802	-0.111	0.172
-689.368	769.823	0.019	-0.053
-688.354	-200.000	0.057	0.301
-687.339	149.633	-0.241	-0.333
-686.324	-123.497	-0.097	-0.016
-685.310	23.754	0.050	0.042
-684.295	800.000	0.110	-0.407
-683.281	-117.441	0.324	-0.060
-682.266	787.003	0.130	-0.363
-681.251	-150.322	-0.235	0.019
-680.237	-200.000	0.067	-0.337
-679.222	-96.496	-0.258	0.069
-678.208	-200.000	0.040	-0.238
-677.193	-200.000	-0.048	-0.415
-676.178	51.039	0.068	0.066
-675.164	660.745	-0.072	-0.190
-674.149	573.555	0.104	0.259
-673.135	4.969	0.145	0.109
-672.120	162.342	-0.086	-0.122
-671.105	95.978	-0.100	0.117
-670.091	49.393	0.136	0.130
-669.076	800.000	0.078	0.280
-668.062	388.814	-0.038	-0.079
-667.047	800.000	0.004	0.015
-666.032	18.620	0.106	0.087
-665.018	170.228	0.105	-0.153
-664.003	-200.000	0.084	-0.409
-662.989	402.333	-0.163	-0.349
-661.974	-134.418	-0.078	-0.010
-660.959	103.789	-0.268	-0.320
-659.945	-11.819	0.220	-0.147
-658.930	-13.637	-0.106	-0.070
-657.916	-160.968	0.444	0.024
-656.901	50.697	0.041	-0.039
-655.886	-88.651	-0.259	-0.079
-654.872	-56.010	-0.214	-0.097
-653.857	371.867	-0.228	-0.472
-652.843	203.064	-0.174	-0.274
-651.828	800.000	0.090	-0.276
-650.814	-57.007	-0.322	0.145
-649.799	-37.664	-0.278	-0.151
-648.784	-89.825	-0.191	0.057
-647.770	159.799	0.189	-0.269
-646.755	-74.511	-0.331	-0.122
-645.741	800.000	0.009	-0.038
-644.726	259.458	-0.217	0.382
-643.711	109.257	0.054	0.066
-642.697	-200.000	0.079	-0.435
-641.682	-8.235	0.098	-0.067
-640.668	25.240	-0.113	-0.095
-639.653	730.587	-0.055	0.149
-638.638	162.353	-0.298	-0.426
-637.624	800.000	-0.041	0.155
-636.609	-155.090	0.294	-0.020
-635.595	-200.000	-0.004	-0.186
-634.580	-187.776	-0.319	0.004
-633.565	-200.000	0.017	0.334
-632.551	322.770	-0.127	-0.246
-631.536	75.596	-0.260	-0.279
-630.522	176.986	0.138	-0.205
-629.507	-45.833	-0.094	0.047
-628.492	226.152	-0.046	0.076
-627.478	246.639	-0.088	-0.150
-626.463	-73.505	-0.078	0.029
-625.449	-20.788	-0.166	-0.104
-624.434	-65.639	-0.305	0.125
-623.419	83.573	-0.004	-0.005
-622.405	800.000	0.032	0.137
-621.390	-92.256	0.064	-0.018
-620.376	-87.766	0.084	0.026
-619.361	-49.279	0.200	-0.097
-618.346	-200.000	-0.039	-0.302
-617.332	-200.000	0.045	0.274
-616.317	617.847	-0.123	-0.314
-615.303	224.958	-0.243	-0.400
-614.288	184.944	-0.073	0.110
-613.273	120.117	-0.306	0.386
-612.259	149.625	0.154	0.213
-611.244	-30.907	0.035	-0.020
-610.230	752.983	0.075	0.206
-609.215	416.850	0.066	-0.143
-608.201	-53.340	-0.127	-0.059
-607.186	305.460	-0.104	-0.197
-606.171	-87.756	0.223	-0.068
-605.157	800.000	-0.099	-0.371
-604.142	-128.508	-0.363	-0.052
-603.128	-39.325	0.185	0.099
-602.113	384.465	0.057	-0.118
-601.098	-200.000	0.018	0.232
-600.084	-15.662	-0.017	-0.011
-599.069	276.320	0.014	-0.024
-598.055	-35.651	0.110	-0.061
-597.040	342.085	-0.064	-0.127
-596.025	-165.400	0.101	-0.004
-595.011	-111.381	-0.408	-0.085
-593.996	85.408	-0.205	-0.229
-592.982	-94.891	0.160	0.044
-591.967	-200.000	-0.020	-0.398
-590.952	-4.041	0.487	-0.343
-589.938	289.228	0.105	-0.193
-588.923	-137.702	-0.212	0.024
-587.909	35.867	0.217	0.194
-586.894	72.809	-0.281	-0.298
-585.879	-172.964	0.100	-0.003
-584.865	11.569	-0.351	-0.273
-583.850	-151.001	0.425	0.033
-582.836	-200.000	0.029	-0.259
-581.821	-200.000	0.017	-0.310
-580.806	800.000	-0.053	0.213
-579.792	249.638	0.103	-0.177
-578.777	-200.000	0.061	0.293
-577.763	-104.855	-0.061	0.014
-576.748	238.652	0.082	0.139
-575.733	800.000	0.057	-0.168
-574.719	27.126	-0.280	-0.239
-573.704	-52.328	-0.195	-0.092
-572.690	29.886	-0.070	-0.060
-571.675	-74.854	-0.182	-0.066
-570.661	559.002	-0.101	0.248
-569.646	176.704	-0.167	-0.247
-568.631	44.611	0.077	-0.072
-567.617	41.232	0.240	0.220
-566.602	-141.112	-0.296	0.031
-565.588	88.912	-0.045	-0.050
-564.573	-98.483	0.333	0.086
-563.558	-200.000	-0.007	0.041
-562.544	379.234	-0.169	0.351
-561.529	130.234	-0.068	-0.089
-560.515	-113.879	0.104	0.021
-559.500	122.240	-0.156	0.198
-558.485	800.000	0.012	-0.044
-557.471	-116.976	0.128	0.024
-556.456	-28.968	0.333	0.194
-555.442	183.109	-0.200	0.301
-554.427	28.208	-0.193	0.165
-553.412	-71.587	-0.146	-0.055
-552.398	666.150	0.046	-0.120
-551.383	-94.614	-0.323	-0.089
-550.369	-85.273	-0.198	0.063
-549.354	-122.290	-0.226	0.037
-548.339	180.009	0.092	-0.137
-547.325	157.763	0.248	-0.349
-546.310	-105.437	-0.243	0.056
-545.296	191.605	-0.073	0.111
-544.281	-200.000	0.009	0.179
-543.266	257.456	-0.092	0.161
-542.252	372.876	-0.163	0.336
-541.237	-200.000	0.024	-0.232
-540.223	800.000	-0.047	-0.160
-539.208	417.701	0.071	0.153
-538.193	-71.256	-0.165	-0.063
-537.179	19.125	0.200	-0.163
-536.164	-200.000	0.026	-0.254
-535.150	-101.354	-0.119	0.029
-534.135	-165.305	0.187	0.008
-533.121	-200.000	-0.004	-0.192
-532.106	-200.000	-0.019	-0.242
-531.091	-159.356	-0.211	0.012
-530.077	-160.850	0.094	-0.005
-529.062	92.986	0.172	-0.197
-528.048	198.762	-0.172	-0.267
-527.033	-200.000	-0.026	0.259
-526.018	71.208	0.076	-0.080
-525.004	-92.597	0.338	0.096
-523.989	-104.264	-0.106	0.025
-522.975	800.000	-0.107	0.342
-521.960	800.000	-0.037	-0.141
-520.945	-200.000	-0.054	-0.327
-519.931	397.193	0.080	-0.170
-518.916	-173.886	-0.301	0.009
-517.902	-84.787	-0.157	0.050
-516.887	-2.695	0.201	-0.143
-515.872	167.479	-0.190	0.274
-514.858	800.000	-0.116	0.348
-513.843	-104.350	-0.346	0.081
-512.829	-200.000	0.032	0.158
-511.814	146.736	0.118	0.160
-510.799	-46.560	-0.288	-0.143
-509.785	82.597	0.090	0.099
-508.770	-50.985	0.078	0.037
-507.756	765.181	-0.021	-0.057
-506.741	-20.389	0.135	-0.084
-505.726	90.749	-0.219	-0.249
-504.712	800.000	-0.061	-0.245
-503.697	-85.602	-0.143	0.045
-502.683	166.166	-0.045	0.065
-501.668	134.420	-0.060	-0.079
-500.653	-200.000	-0.004	0.203
-499.639	26.817	0.274	-0.233
-498.624	-200.000	0.049	-0.261
-497.610	-68.900	-0.274	0.107
-496.595	61.976	0.227	0.229
-495.581	-200.000	-0.029	0.184
-494.566	-80.350	-0.313	0.106
-493.551	681.390	-0.049	-0.129
-492.537	-40.314	-0.051	0.027
-491.522	13.115	0.215	-0.169
-490.508	-84.124	-0.145	0.047
-489.493	48.139	0.113	-0.107
-488.478	30.992	0.217	0.189
-487.464	-47.802	-0.088	-0.043
-486.449	189.203	0.078	-0.119
-485.435	15.256	0.321	0.254
-484.420	-200.000	0.026	-0.120
-483.405	-83.181	-0.427	-0.139
-482.391	56.627	0.182	0.179
-481.376	102.830	-0.089	0.106
-480.362	115.139	0.187	0.232
-479.347	-36.179	-0.271	-0.148
-478.332	448.356	-0.038	0.084
-477.318	-101.498	-0.179	0.044
-476.303	800.000	0.144	0.520
-475.289	196.776	0.137	-0.212
-474.274	-69.441	0.076	-0.029
-473.259	33.403	0.125	0.110
-472.245	-16.661	-0.211	-0.135
-471.230	2.172	0.258	-0.189
-470.216	-43.241	-0.312	0.160
-469.201	55.197	0.289	-0.283
-468.186	-41.117	0.466	-0.244
-467.172	-82.690	0.048	0.016
-466.157	20.274	0.276	0.225
-465.143	-200.000	-0.060	0.288
-464.128	343.311	0.149	0.296
-463.113	800.000	0.047	-0.202
-462.099	-109.574	-0.156	-0.033
-461.084	-165.460	0.100	-0.004
-460.070	525.569	-0.078	-0.186
-459.055	-147.654	0.085	-0.007
-458.040	-74.859	0.355	0.129
-457.026	-200.000	-0.021	0.104
-456.011	-94.401	-0.147	0.040
-454.997	-30.148	-0.258	-0.148
-453.982	-35.856	0.289	0.158
-452.968	30.112	0.225	-0.194
-451.953	-200.000	0.002	0.208
-450.938	-171.926	0.280	0.009
-449.924	-164.181	-0.088	0.004
-448.909	254.343	0.094	-0.163
-447.895	9.159	-0.053	-0.041
-446.880	49.908	-0.064	-0.061
-445.865	-200.000	-0.045	-0.300
-444.851	-200.000	-0.013	0.335
-443.836	-111.967	-0.227	-0.046
-442.822	-30.514	0.212	0.121
-441.807	-90.082	-0.058	-0.017
-440.792	284.799	-0.041	0.074
-439.778	-92.662	0.113	0.032
-438.763	-138.914	-0.381	0.042
-437.749	63.136	-0.174	0.176
-436.734	-58.243	-0.112	0.049
-435.719	-141.638	-0.492	0.050
-434.705	800.000	0.046	0.168
-433.690	-35.309	0.147	-0.081
-432.676	215.304	-0.224	-0.359
-431.661	-78.230	0.344	0.120
-430.646	-126.152	0.393	0.060
-429.632	-200.000	0.002	0.458
-428.617	79.732	0.131	0.142
-427.603	800.000	0.103	0.320
-426.588	-11.698	-0.120	0.080
-425.573	-79.001	0.281	0.097
-424.559	-200.000	-0.039	0.403
-423.544	3.344	0.163	0.120
-422.530	-200.000	0.134	0.000
-421.515	198.444	-0.099	-0.153
-420.500	286.865	-0.126	-0.229
-419.486	-200.000	-0.008	-0.204
-418.471	-168.381	0.291	0.011
-417.457	-59.880	0.204	-0.088
-416.442	-45.351	-0.362	-0.181
-415.428	-88.913	0.236	-0.071
-414.413	38.946	0.111	0.100
-413.398	800.000	0.116	0.337
-412.384	-158.702	-0.062	0.004
-411.369	-16.449	0.268	-0.172
-410.355	312.315	0.087	0.165
-409.340	406.247	0.079	0.169
-408.325	-154.100	-0.258	0.018
-407.311	-111.112	0.093	-0.019
-406.296	709.309	0.014	0.037
-405.282	800.000	0.088	-0.266
-404.267	132.620	0.030	0.040
-403.252	13.496	-0.211	-0.165
-402.238	-200.000	-0.013	-0.560
-401.223	99.813	-0.161	0.189
-400.209	129.309	0.069	-0.089
-399.194	364.604	0.076	0.155
-398.179	70.567	-0.221	-0.231
-397.165	-82.977	0.260	-0.085
-396.150	-200.000	0.023	0.144
-395.136	255.350	0.149	-0.258
-394.121	-138.518	-0.133	0.015
-393.106	244.507	-0.089	0.150
-392.092	-122.527	-0.127	-0.021
-391.077	162.979	0.069	0.098
-390.063	-200.000	0.043	0.273
-389.048	-112.754	-0.038	0.008
-388.033	-7.448	-0.141	0.096
-387.019	161.813	0.138	-0.195
-386.004	288.812	-0.134	-0.245
-384.990	-200.000	0.051	-0.266
-383.975	102.158	-0.136	0.161
-382.960	397.639	-0.203	0.427
-381.946	147.133	-0.052	0.070
-380.931	-160.504	0.126	0.007
-379.917	161.031	0.163	0.230
-378.902	368.278	0.023	0.046
-377.888	-19.206	-0.033	0.021
-376.873	-16.894	0.202	0.129
-375.858	86.777	-0.112	-0.124
-374.844	-21.796	-0.223	-0.137
-373.829	-119.246	0.065	0.011
-372.815	-8.539	-0.169	0.115
-371.800	-200.000	-0.001	0.239
-370.785	-21.930	0.095	0.058
-369.771	-129.884	-0.267	0.037
-368.756	215.796	-0.129	-0.207
-367.742	-93.692	0.225	0.063
-366.727	800.000	-0.033	0.118
-365.712	-25.684	0.074	-0.044
-364.698	-8.744	-0.085	0.057
-363.683	-200.000	-0.011	0.164
-362.669	-22.519	-0.369	0.225
-361.654	107.592	0.144	0.173
-360.639	-86.049	-0.311	0.097
-359.625	800.000	-0.014	0.048
-358.610	-155.768	-0.055	0.004
-357.596	-200.000	-0.006	-0.045
-356.581	125.941	0.288	0.366
-355.566	-200.000	0.027	-0.173
-354.552	-167.995	0.168	0.007
-353.537	-111.950	0.109	0.022
-352.523	-86.513	0.049	-0.015
-351.508	81.701	0.161	-0.175
-350.493	106.294	0.100	0.119
-349.479	72.055	-0.161	0.169
-348.464	-7.454	0.043	-0.029
-347.450	-98.296	0.338	-0.087
-346.435	-0.233	-0.404	-0.289
-345.420	1.546	-0.212	0.153
-344.406	-90.389	0.194	0.057
-343.391	800.000	0.035	-0.132
-342.377	800.000	0.022	0.081
-341.362	-4.259	0.210	0.146
-340.348	-19.868	0.235	-0.146
-339.333	-200.000	-0.025	-0.223
-338.318	-114.315	0.204	0.040
-337.304	369.167	-0.075	0.152
-336.289	53.022	0.066	0.063
-335.275	-51.814	-0.216	-0.101
-334.260	-13.574	0.084	-0.055
-333.245	-200.000	-0.011	-0.078
-332.231	-6.116	-0.312	-0.215
-331.216	-37.775	0.136	-0.073
-330.202	14.098	-0.136	-0.107
-329.187	-77.526	0.441	0.154
-328.172	475.722	0.053	-0.120
-327.158	388.065	0.189	-0.394
-326.143	-200.000	0.024	-0.145
-325.129	188.584	0.056	-0.084
-324.114	-200.000	0.001	-0.164
-323.099	-23.723	-0.118	0.071
-322.085	232.423	0.053	-0.088
-321.070	800.000	0.116	-0.351
-320.056	-200.000	0.034	0.233
-319.041	-79.654	0.230	0.078
-318.026	786.628	0.042	-0.117
-317.012	366.796	0.179	0.363
-315.997	-161.518	-0.117	0.006
-314.983	153.686	0.072	-0.100
-313.968	432.148	0.067	-0.146
-312.953	63.551	-0.007	0.007
-311.939	800.000	-0.136	0.401
-310.924	800.000	0.016	-0.061
-309.910	12.223	-0.177	-0.137
-308.895	53.865	-0.052	-0.051
-307.880	-71.609	-0.381	0.143
-306.866	-6.677	-0.053	0.037
-305.851	0.140	-0.213	-0.152
-304.837	800.000	0.033	0.118
-303.822	159.220	0.122	0.170
-302.807	11.594	0.310	0.239
-301.793	-0.964	0.126	0.090
-300.778	-24.392	-0.235	0.141
-299.764	326.317	-0.220	0.423
-298.749	-200.000	0.041	0.272
-297.735	25.911	0.210	0.176
-296.720	78.377	0.180	0.193
-295.705	-92.756	0.264	0.074
-294.691	-52.159	-0.104	0.049
-293.676	327.217	0.023	-0.045
-292.662	-89.356	0.124	0.037
-291.647	-26.599	0.093	-0.055
-290.632	679.966	0.091	-0.238
-289.618	81.194	-0.114	-0.123
-288.603	5.616	-0.105	0.078
-287.589	-51.770	-0.085	0.040
-286.574	-12.419	-0.282	0.185
-285.559	195.866	-0.080	0.122
-284.545	24.592	-0.203	0.169
-283.530	-20.497	-0.319	-0.197
-282.516	-42.862	-0.359	0.183
-281.501	-200.000	0.035	-0.181
-280.486	60.616	-0.200	0.199
-279.472	699.377	-0.088	-0.232
-278.457	-135.657	0.463	-0.055
-277.443	-150.340	-0.245	0.019
-276.428	65.334	-0.123	-0.124
-275.413	-44.460	-0.194	-0.098
-274.399	-171.456	0.027	0.001
-273.384	556.402	-0.054	-0.130
-272.370	619.027	0.128	0.323
-271.355	-9.814	0.201	-0.134
-270.340	34.844	0.104	0.091
-269.326	84.487	0.185	0.203
-268.311	-58.622	-0.234	-0.102
-267.297	150.180	0.061	0.082
-266.282	-200.000	-0.031	-0.140
-265.267	256.864	0.137	0.236
-264.253	114.801	0.051	-0.063
-263.238	-40.903	0.188	-0.098
-262.224	-88.824	0.254	-0.076
-261.209	-200.000	-0.006	-0.344
-260.195	-188.034	-0.377	-0.005
-259.180	190.165	0.116	0.175
-258.165	4.244	-0.462	-0.340
-257.151	284.937	-0.127	-0.229
-256.136	71.997	0.076	-0.079
-255.122	29.561	0.254	0.217
-254.107	73.694	0.072	0.076
-253.092	191.423	-0.174	-0.263
-252.078	800.000	0.025	-0.109
-251.063	-65.687	0.471	0.189
-250.049	800.000	0.051	-0.186
-249.034	800.000	0.067	0.213
-248.019	-116.447	0.210	-0.039
-247.005	-78.571	0.167	-0.057
-245.990	68.479	0.198	0.204
-244.976	-24.243	0.071	-0.043
-243.961	-200.000	-0.034	-0.247
-242.946	86.471	-0.080	-0.089
-241.932	-21.980	-0.334	0.204
-240.917	-150.685	-0.287	0.022
-239.903	2.961	-0.106	-0.078
-238.888	92.141	0.239	0.270
-237.873	-20.247	0.317	0.196
-236.859	642.929	-0.105	-0.268
-235.844	-200.000	0.002	-0.081
-234.830	-85.146	-0.174	-0.055
-233.815	-94.481	0.202	-0.055
-232.800	800.000	0.062	0.212
-231.786	800.000	-0.142	0.514
-230.771	766.838	-0.062	-0.169
-229.757	-200.000	0.058	-0.337
-228.742	-72.700	0.134	0.050
-227.727	178.751	0.144	0.211
-226.713	438.601	0.068	0.149
-225.698	-27.393	0.206	0.120
-224.684	48.239	-0.171	-0.160
-223.669	-65.777	0.452	0.181
-222.655	-76.411	0.033	-0.012
-221.640	-152.250	0.295	0.021
-220.625	-200.000	-0.029	0.132
-219.611	31.937	0.249	0.215
-218.596	-131.896	-0.207	0.027
-217.582	800.000	-0.009	-0.035
-216.567	-124.388	0.333	-0.052
-215.552	-66.523	-0.132	0.053
-214.538	800.000	0.097	-0.280
-213.523	-200.000	0.014	-0.342
-212.509	800.000	0.056	0.218
-211.494	-103.020	-0.275	-0.065
-210.479	39.244	-0.052	0.047
-209.465	417.492	-0.093	-0.199
-208.450	25.660	0.197	0.164
-207.436	-91.551	0.012	0.003
-206.421	60.244	-0.075	-0.075
-205.406	800.000	-0.014	-0.056
-204.392	336.858	-0.123	0.240
-203.377	-46.173	0.124	0.061
-202.363	-200.000	0.033	-0.191
-201.348	343.945	0.063	-0.124
-200.333	-143.139	0.477	-0.046
-199.319	291.810	0.021	-0.038
-198.304	30.027	-0.166	0.141
-197.290	4.723	0.133	0.098
-196.275	-200.000	0.004	-0.020
-195.260	105.167	0.018	-0.022
-194.246	-32.027	-0.296	-0.166
-193.231	339.499	-0.181	0.352
-192.217	738.851	0.078	0.211
-191.202	762.495	0.170	0.461
-190.187	-200.000	-0.001	0.034
-189.173	-0.709	0.289	-0.205
-188.158	800.000	0.030	-0.120
-187.144	98.747	-0.288	-0.332
-186.129	222.452	0.177	-0.285
-185.114	-121.699	-0.134	-0.022
-184.100	-24.235	-0.104	-0.062
-183.085	80.378	0.180	0.194
-182.071	-33.430	0.071	-0.039
-181.056	-200.000	0.074	0.330
-180.042	800.000	0.032	-0.120
-179.027	-79.531	0.132	-0.044
-178.012	-63.584	0.208	-0.085
-176.998	336.597	-0.064	-0.124
-175.983	800.000	0.084	-0.323
-174.969	800.000	0.057	0.166
-173.954	631.256	0.044	-0.111
-172.939	-106.719	0.308	-0.068
-171.925	88.174	-0.095	-0.105
-170.910	105.699	-0.033	-0.039
-169.896	26.565	-0.140	0.117
-168.881	249.337	-0.203	0.344
-167.866	-83.258	-0.281	0.090
-166.852	-200.000	0.012	0.099
-165.837	244.717	-0.134	0.225
-164.823	-54.444	0.430	0.195
-163.808	0.561	0.083	0.060
-162.793	142.521	-0.111	-0.147
-161.779	-179.446	-0.164	-0.004
-160.764	-156.505	-0.236	-0.015
-159.750	-40.079	0.249	0.129
-158.735	67.575	0.280	-0.286
-157.720	-88.393	-0.374	0.112
-156.706	-21.539	0.126	-0.077
-155.691	800.000	-0.052	-0.171
-154.677	183.783	0.011	0.017
-153.662	127.506	0.122	0.155
-152.647	-200.000	-0.010	-0.099
-151.633	800.000	-0.021	0.084
-150.618	-7.929	0.132	0.089
-149.604	63.018	-0.054	-0.054
-148.589	-108.505	0.388	-0.083
-147.574	800.000	0.063	0.205
-146.560	298.484	-0.166	-0.305
-145.545	195.444	-0.106	0.161
-144.531	1.741	0.084	-0.061
-143.516	242.041	-0.162	-0.270
-142.502	-92.149	-0.170	0.048
-141.487	443.288	0.054	-0.119
-140.472	36.749	0.304	-0.268
-139.458	57.447	-0.027	0.026
-138.443	-48.077	0.123	-0.059
-137.429	125.037	-0.196	-0.247
-136.414	-35.660	-0.237	-0.128
-135.399	-74.215	-0.180	-0.065
-134.385	133.204	-0.083	0.108
-133.370	-133.797	0.266	-0.033
-132.356	-75.297	-0.038	0.014
-131.341	-34.251	-0.296	0.162
-130.326	-200.000	-0.017	-0.154
-129.312	278.569	-0.066	0.118
-128.297	460.560	0.195	0.433
-127.283	-80.756	0.128	-0.042
-126.268	193.352	-0.092	-0.138
-125.253	-35.742	0.374	-0.202
-124.239	308.688	-0.076	0.141
-123.224	15.027	-0.133	0.104
-122.210	56.730	0.195	0.189
-121.195	-123.944	-0.308	0.048
-120.180	-146.028	0.634	-0.056
-119.166	74.492	-0.214	-0.225
-118.151	60.785	0.276	-0.274
-117.137	-17.266	-0.100	-0.063
-116.122	-109.330	0.072	0.015
-115.107	98.234	0.031	-0.036
-114.093	143.437	0.068	0.090
-113.078	-95.462	-0.119	-0.032
-112.064	112.537	0.181	0.218
-111.049	-200.000	-0.024	0.138
-110.034	-60.033	0.263	0.112
-109.020	-27.652	0.179	-0.103
-108.005	-90.772	0.146	0.042
-106.991	176.738	0.161	-0.234
-105.976	1.654	0.129	0.093
-104.962	-200.000	0.008	-0.135
-103.947	35.633	-0.368	-0.323
-102.932	800.000	-0.050	0.211
-101.918	800.000	-0.018	-0.072
-100.903	-12.355	-0.080	0.052
-99.889	-37.970	-0.079	-0.042
-98.874	-200.000	0.061	0.270
-97.859	-81.334	-0.409	-0.134
-96.845	-85.632	-0.228	-0.071
-95.830	800.000	-0.159	-0.473
-94.816	800.000	0.110	0.325
-93.801	23.424	-0.130	-0.107
-92.786	131.499	-0.125	-0.160
-91.772	489.039	-0.146	-0.333
-90.757	54.611	-0.185	0.178
-89.743	-119.021	0.214	0.037
-88.728	-91.919	-0.225	-0.064
-87.713	800.000	0.094	-0.330
-86.699	496.483	0.092	-0.211
-85.684	-146.945	0.323	0.028
-84.670	114.009	-0.063	-0.076
-83.655	-44.088	0.175	0.088
-82.640	-200.000	-0.012	-0.258
-81.626	483.823	-0.065	0.147
-80.611	-14.294	0.258	0.165
-79.597	-118.364	0.251	-0.044
-78.582	297.657	-0.199	0.364
-77.567	-200.000	0.002	0.293
-76.553	-150.917	0.301	0.023
-75.538	-69.696	0.228	0.087
-74.524	-28.084	-0.288	-0.166
-73.509	800.000	-0.079	-0.239
-72.494	20.045	0.183	-0.147
-71.480	-152.989	0.332	0.023
-70.465	-200.000	0.002	0.313
-69.451	800.000	0.108	0.413
-68.436	494.704	0.090	0.207
-67.422	-17.129	0.097	0.061
-66.407	-75.419	0.140	-0.050
-65.392	-200.000	0.060	0.304
-64.378	800.000	-0.041	0.138
-63.363	-43.627	0.070	0.035
-62.349	117.138	-0.207	0.253
-61.334	38.628	-0.725	-0.644
-60.319	-41.482	0.136	-0.070
-59.305	570.224	-0.400	-0.970
-58.290	414.348	0.397	0.842
-57.276	748.994	0.610	1.638
-56.261	-200.000	85.491	510.614
-55.246	484.165	1369.758	3103.172
-54.232	146.480	2587.512	3459.647
-53.217	110.515	2251.317	2694.187
-52.203	48.338	1777.679	1656.500
-51.188	41.562	1581.751	1425.693
-50.173	39.233	1553.306	1383.634
-49.159	54.894	1597.979	1535.518
-48.144	59.308	1618.073	1586.307
-47.130	42.223	1576.481	1425.422
-46.115	38.948	1560.898	1388.167
-45.100	38.781	1557.459	1383.871
-44.086	38.697	1555.413	1381.406
-43.071	38.563	1553.415	1378.632
-42.057	38.393	1551.959	1376.089
-41.042	38.427	1550.774	1375.224
-40.027	38.513	1549.178	1374.361
-39.013	38.529	1547.671	1373.080
-37.998	38.539	1545.816	1371.451
-36.984	38.500	1544.851	1370.264
-35.969	38.515	1543.744	1369.338
-34.954	38.622	1541.947	1368.435
-33.940	38.639	1540.352	1367.081
-32.925	38.711	1538.695	1366.064
-31.911	38.605	1537.874	1364.541
-30.896	38.547	1536.589	1362.942
-29.881	38.617	1535.175	1362.117
-28.867	38.663	1533.671	1361.047
-27.852	38.678	1531.938	1359.562
-26.838	38.725	1530.223	1358.315
-25.823	38.647	1528.962	1356.599
-24.809	38.711	1526.988	1355.234
-23.794	38.697	1525.696	1353.942
-22.779	38.633	1524.680	1352.541
-21.765	38.636	1523.693	1351.630
-20.750	38.611	1522.411	1350.268
-19.736	38.622	1521.127	1349.151
-18.721	38.576	1519.970	1347.755
-17.706	38.639	1518.686	1347.000
-16.692	38.559	1518.031	1345.814
-15.677	38.593	1517.000	1345.080
-14.663	38.545	1515.812	1343.646
-13.648	38.562	1514.196	1342.272
-12.633	38.485	1513.117	1340.739
-11.619	38.608	1512.237	1340.745
-10.604	38.515	1511.874	1339.736
-9.590	38.664	1510.378	1339.378
-8.575	38.648	1509.278	1338.235
-7.560	38.653	1508.613	1337.632
-6.546	38.467	1508.008	1335.773
-5.531	38.476	1506.906	1334.803
-4.517	38.527	1505.956	1334.252
-3.502	38.529	1505.260	1333.597
-2.487	38.619	1503.945	1332.996
-1.473	38.521	1503.401	1331.793
-0.458	38.556	1501.759	1330.519
0.556	37.760	1491.925	1318.798
1.571	33.801	1462.582	1266.400
2.586	28.167	1394.489	1171.389
3.600	24.424	1304.867	1073.537
4.615	21.770	1254.335	1016.505
5.629	18.171	1197.407	950.321
6.644	9.647	1108.839	835.914
7.659	2.358	1064.645	766.125
8.673	1.100	1058.734	755.536
9.688	0.966	1055.649	752.602
10.702	0.873	1054.299	751.108
11.717	0.781	1052.808	749.525
12.731	3.095	1054.977	762.484
13.746	10.791	1064.888	807.978
14.761	16.857	1072.415	843.905
15.775	17.804	1072.886	848.920
16.790	17.116	1071.573	844.381
17.804	16.332	1068.987	838.382
18.819	15.350	1067.351	832.152
19.834	14.916	1065.900	828.797
20.848	14.501	1064.699	825.735
21.863	14.258	1064.302	824.155
22.877	13.964	1063.342	821.882
23.892	13.867	1062.286	820.513
24.907	13.737	1061.515	819.202
25.921	13.716	1060.589	818.312
26.936	13.738	1059.909	817.826
27.950	13.764	1059.408	817.492
28.965	13.800	1058.851	817.170
29.980	13.952	1057.593	816.875
30.994	13.929	1056.863	816.123
32.009	13.932	1056.007	815.405
33.023	13.920	1055.428	814.828
34.038	13.853	1054.712	813.873
35.053	13.797	1053.706	812.753
36.067	13.880	1052.810	812.394
37.082	13.956	1051.375	811.588
38.096	13.884	1050.949	810.836
39.111	13.905	1050.089	810.204
40.126	13.885	1049.508	809.586
41.140	13.985	1047.910	808.765
42.155	13.811	1047.538	807.560
43.169	13.705	1046.721	806.343
44.184	13.740	1045.497	805.500
45.199	13.795	1044.249	804.733
46.213	13.620	1043.505	803.242
47.228	13.751	1042.219	802.817
48.242	13.761	1041.329	802.105
49.257	13.746	1040.246	801.130
50.271	13.805	1039.169	800.515
51.286	13.796	1038.316	799.744
52.301	13.763	1037.955	799.234
53.315	13.873	1037.040	798.988
54.330	13.847	1035.960	797.959
55.344	13.869	1034.767	797.079
56.359	13.655	1034.370	795.672
57.374	13.733	1033.227	795.097
58.388	13.728	1032.538	794.475
59.403	13.761	1031.508	793.768
60.417	13.648	1031.172	792.900
61.432	13.732	1030.391	792.627
62.447	13.785	1029.272	791.952
63.461	13.673	1028.343	790.632
64.476	13.679	1027.379	789.852
65.490	13.661	1026.904	789.331
66.505	13.613	1026.344	788.603
67.520	13.724	1025.134	788.129
68.534	13.672	1024.740	787.508
69.549	13.741	1023.549	786.852
70.563	13.770	1022.930	786.444
71.578	13.658	1022.084	785.194
72.593	13.736	1021.328	784.913
73.607	13.627	1020.577	783.750
74.622	13.623	1019.385	782.747
75.636	13.688	1018.849	782.572
76.651	13.664	1017.357	781.243
77.666	13.681	1017.027	781.002
78.680	13.590	1016.424	780.042
79.695	13.569	1015.888	779.461
80.709	13.677	1015.172	779.354
81.724	13.733	1014.078	778.707
82.739	13.656	1013.600	777.908
83.753	13.621	1012.901	777.137
84.768	13.767	1011.662	776.801
85.782	13.887	1011.121	776.882
86.797	13.843	1010.375	776.034
87.812	13.924	1009.738	775.851
88.826	13.834	1009.033	774.820
89.841	13.801	1008.088	773.877
90.855	13.787	1007.215	773.070
91.870	13.816	1006.637	772.693
92.884	13.852	1005.713	772.085
93.899	13.923	1004.888	771.713
94.914	13.972	1004.042	771.221
95.928	13.968	1003.381	770.628
96.943	13.983	1002.652	770.067
97.957	14.032	1001.887	769.638
98.972	13.892	1001.065	768.290
99.987	13.866	1000.637	767.774
101.001	13.980	999.719	767.529
102.016	13.898	998.847	766.416
103.030	14.000	997.496	765.780
104.045	13.865	997.190	764.856
105.060	13.901	996.099	764.117
106.074	13.812	995.035	762.825
107.089	13.845	994.268	762.318
108.103	13.771	993.682	761.465
109.118	13.809	992.813	760.906
110.133	13.693	991.764	759.502
111.147	13.858	990.344	759.102
112.162	13.763	990.015	758.350
113.176	13.811	989.162	757.849
114.191	13.835	988.068	757.049
115.206	13.781	987.512	756.313
116.220	13.943	986.299	756.053
117.235	13.807	985.935	755.090
118.249	13.877	985.098	754.698
119.264	13.886	983.828	753.702
120.279	13.830	983.193	752.894
121.293	13.811	982.691	752.357
122.308	13.854	981.999	751.953
123.322	13.725	981.147	750.654
124.337	13.702	979.997	749.603
125.352	13.717	979.125	748.935
126.366	13.795	977.414	747.912
127.381	13.913	976.080	747.358
128.395	13.756	975.881	746.432
129.410	13.781	974.735	745.601
130.424	13.795	974.161	745.160
131.439	13.879	972.871	744.484
132.454	13.878	972.143	743.855
133.468	13.973	971.262	743.542
134.483	13.985	970.434	742.895
135.497	13.907	969.532	741.792
136.512	13.881	969.312	741.439
137.527	14.033	967.702	740.823
138.541	13.909	967.476	740.029
139.556	13.903	966.694	739.341
140.570	13.914	965.775	738.619
141.585	13.966	965.293	738.417
142.600	14.005	964.431	737.867
143.614	14.002	963.575	737.132
144.629	14.032	962.873	736.664
145.643	13.987	962.327	735.980
146.658	14.091	961.048	735.396
147.673	13.907	960.457	734.066
148.687	14.006	959.346	733.589
149.702	13.992	958.443	732.771
150.716	13.901	958.026	731.986
151.731	14.042	956.644	731.488
152.746	14.029	956.170	731.002
153.760	13.997	955.651	730.403
154.775	13.865	954.843	729.139
155.789	14.038	954.111	729.276
156.804	14.014	953.552	728.678
157.819	14.087	952.572	728.185
158.833	14.101	952.067	727.794
159.848	14.174	951.274	727.444
160.862	14.071	950.743	726.525
161.877	14.241	949.930	726.578
162.892	14.129	948.730	725.108
163.906	14.101	948.244	724.550
164.921	13.997	947.510	723.474
165.935	14.088	946.201	722.804
166.950	14.069	945.291	721.965
167.964	13.987	944.653	721.059
168.979	14.153	943.652	720.949
169.994	14.162	942.549	720.084
171.008	14.104	941.748	719.156
172.023	14.021	941.045	718.197
173.037	14.151	940.314	718.135
174.052	14.209	939.339	717.577
175.067	14.168	938.579	716.759
176.081	14.188	937.984	716.326
177.096	14.104	937.334	715.405
178.110	14.108	936.422	714.661
179.125	14.185	935.546	714.262
180.140	14.181	934.681	713.520
181.154	14.142	934.312	713.008
182.169	14.152	933.739	712.550
183.183	14.186	933.040	712.098
184.198	14.254	932.216	711.699
185.213	14.389	931.334	711.538
186.227	14.294	930.581	710.497
187.242	14.167	930.992	710.205
188.256	14.340	929.706	709.899
189.271	14.528	928.874	710.000
190.286	14.387	928.572	709.108
191.300	14.338	927.489	708.007
192.315	14.229	926.909	707.040
193.329	14.129	926.394	706.161
194.344	14.186	925.555	705.702
195.359	14.240	924.651	705.177
196.373	14.358	923.894	705.037
197.388	14.183	924.139	704.421
198.402	14.259	923.458	704.161
199.417	14.416	922.911	704.344
200.432	14.493	922.147	704.026
201.446	14.607	921.592	704.021
202.461	14.448	921.961	703.568
203.475	14.591	920.578	703.052
204.490	14.683	919.813	702.793
205.504	14.480	919.535	701.665
206.519	14.543	918.323	700.944
207.534	14.519	918.002	700.535
208.548	14.536	917.149	699.895
209.563	14.505	916.541	699.236
210.577	14.516	915.957	698.774
211.592	14.584	915.303	698.500
212.607	14.701	914.681	698.455
213.621	14.533	914.247	697.358
214.636	14.635	913.051	696.810
215.650	14.619	912.553	696.299
216.665	14.682	911.909	696.010
217.680	14.587	911.615	695.330
218.694	14.815	911.062	695.794
219.709	14.860	910.169	695.239
220.723	14.770	909.854	694.560
221.738	14.813	908.831	693.899
222.753	14.771	908.087	693.096
223.767	14.772	907.426	692.532
224.782	14.887	906.391	692.157
225.796	14.831	906.248	691.755
226.811	14.887	905.323	691.222
227.826	14.948	904.682	690.920
228.840	14.906	903.722	689.953
229.855	14.954	903.155	689.658
230.869	14.876	902.962	689.129
231.884	14.933	901.928	688.512
232.899	14.960	901.200	688.007
233.913	14.834	900.650	687.008
234.928	14.767	900.323	686.422
235.942	14.890	899.357	686.131
236.957	14.870	898.780	685.549
237.972	14.699	898.533	684.597
238.986	14.856	897.527	684.415
240.001	14.925	896.740	684.034
241.015	14.947	896.081	683.560
242.030	14.946	895.532	683.077
243.045	14.954	894.525	682.280
244.059	15.028	894.441	682.458
245.074	15.101	893.286	681.815
246.088	14.986	893.140	681.174
247.103	15.090	892.329	680.918
248.117	15.060	891.678	680.241
249.132	15.201	890.863	680.130
250.147	15.119	890.565	679.510
251.161	15.300	889.460	679.340
252.176	15.218	889.234	678.775
253.190	15.304	888.075	678.177
254.205	15.360	887.673	678.038
255.220	15.448	887.044	677.853
256.234	15.357	886.509	677.016
257.249	15.442	885.742	676.714
258.263	15.484	885.146	676.368
259.278	15.408	884.737	675.690
260.293	15.372	884.356	675.193
261.307	15.380	883.730	674.689
262.322	15.468	883.456	674.774
263.336	15.421	882.667	673.924
264.351	15.551	881.697	673.645
265.366	15.504	881.216	673.029
266.380	15.478	880.684	672.459
267.395	15.580	879.515	671.912
268.409	15.698	879.266	672.135
269.424	15.611	878.370	671.042
270.439	15.533	877.916	670.325
271.453	15.592	877.138	669.909
272.468	15.584	876.029	668.970
273.482	15.483	875.726	668.276
274.497	15.606	874.788	667.993
275.512	15.600	874.458	667.657
276.526	15.620	873.428	666.891
277.541	15.513	873.017	666.093
278.555	15.613	872.356	665.926
279.570	15.797	871.559	665.986
280.585	15.768	871.482	665.757
281.599	15.765	870.657	665.055
282.614	15.613	870.400	664.199
283.628	15.812	869.245	664.044
284.643	15.701	868.744	663.164
285.657	15.754	868.502	663.129
286.672	15.792	867.970	662.816
287.687	15.808	867.091	662.146
288.701	15.829	866.826	661.969
289.716	15.998	866.093	662.015
290.730	15.897	865.868	661.388
291.745	15.875	864.716	660.364
292.760	15.929	863.788	659.805
293.774	15.800	863.728	659.199
294.789	16.019	863.261	659.641
295.803	16.025	862.422	658.966
296.818	15.987	861.760	658.253
297.833	15.961	861.248	657.701
298.847	15.920	860.959	657.263
299.862	15.949	859.678	656.338
300.876	16.000	859.086	656.029
301.891	16.013	858.756	655.768
302.906	16.033	857.899	655.132
303.920	16.097	857.135	654.740
304.935	16.184	856.319	654.396
305.949	16.277	855.698	654.223
306.964	16.321	855.034	653.829
307.979	16.290	854.436	653.193
308.993	16.190	854.137	652.520
310.008	16.305	853.315	652.281
311.022	16.307	853.172	652.121
312.037	16.276	852.650	651.545
313.052	16.292	852.162	651.174
314.066	16.207	851.272	650.111
315.081	16.289	850.628	649.878
316.095	16.174	850.228	649.070
317.110	16.172	849.948	648.792
318.125	16.280	848.958	648.395
319.139	16.297	848.453	648.015
320.154	16.279	848.165	647.671
321.168	16.202	847.592	646.878
322.183	16.332	847.228	647.041
323.197	16.286	847.031	646.657
324.212	16.355	846.299	646.305
325.227	16.232	845.984	645.540
326.241	16.444	845.086	645.607
327.256	16.329	844.489	644.655
328.270	16.374	843.484	644.000
329.285	16.336	843.191	643.578
330.300	16.393	842.491	643.203
331.314	16.312	842.191	642.607
332.329	16.483	841.178	642.426
333.343	16.493	840.825	642.139
334.358	16.482	840.372	641.696
335.373	16.598	839.387	641.326
336.387	16.529	839.126	640.808
337.402	16.515	838.646	640.331
338.416	16.722	837.831	640.435
339.431	16.526	837.743	639.570
340.446	16.671	836.967	639.467
341.460	16.713	836.327	639.081
342.475	16.702	835.650	638.467
343.489	16.815	834.957	638.307
344.504	16.698	835.029	637.866
345.519	16.688	834.413	637.301
346.533	16.812	833.733	637.189
347.548	16.797	833.523	636.918
348.562	16.838	832.724	636.405
349.577	16.848	831.919	635.769
350.592	16.818	831.538	635.309
351.606	16.701	831.235	634.585
352.621	16.756	830.800	634.402
353.635	16.762	830.330	634.008
354.650	16.809	829.853	633.766
355.665	16.900	829.256	633.591
356.679	16.865	829.269	633.415
357.694	16.916	828.125	632.677
358.708	16.784	828.051	632.072
359.723	16.908	827.013	631.685
360.738	17.006	826.596	631.675
361.752	16.846	826.190	630.715
362.767	17.010	825.518	630.754
363.781	16.819	825.660	630.097
364.796	16.922	825.119	630.010
365.810	17.056	824.479	629.965
366.825	17.069	823.873	629.495
367.840	17.055	823.640	629.209
368.854	17.047	823.268	628.837
369.869	17.076	823.053	628.727
370.883	17.046	822.062	627.804
371.898	17.201	821.511	627.898
372.913	17.148	820.520	626.890
373.927	17.224	820.291	626.941
374.942	17.278	819.446	626.437
375.956	17.242	818.892	625.826
376.971	17.190	818.742	625.467
377.986	17.239	817.895	624.943
379.000	17.373	817.497	625.076
380.015	17.388	817.096	624.772
381.029	17.438	816.453	624.405
382.044	17.390	815.958	623.794
383.059	17.397	815.162	623.158
384.073	17.450	814.806	623.026
385.088	17.447	814.292	622.564
386.102	17.429	813.497	621.836
387.117	17.370	813.024	621.204
388.132	17.519	812.446	621.250
389.146	17.416	812.496	620.858
390.161	17.343	811.807	620.011
391.175	17.585	811.581	620.667
392.190	17.531	811.144	620.081
393.205	17.605	810.613	619.889
394.219	17.481	810.353	619.185
395.234	17.563	809.548	618.811
396.248	17.546	809.082	618.340
397.263	17.438	808.322	617.312
398.278	17.417	808.107	617.018
399.292	17.234	807.979	616.202
400.307	17.456	807.447	616.546
401.321	17.506	806.809	616.185
402.336	17.530	806.505	615.983
403.350	17.642	806.133	616.050
404.365	17.512	805.745	615.231
405.380	17.571	805.127	614.918
406.394	17.665	804.718	614.891
407.409	17.620	804.336	614.382
408.423	17.600	804.193	614.146
409.438	17.703	803.488	613.925
410.453	17.683	802.951	613.387
411.467	17.945	802.351	613.815
412.482	17.921	801.812	613.264
413.496	17.826	801.454	612.593
414.511	17.944	800.850	612.501
415.526	18.051	800.269	612.388
416.540	17.930	800.526	612.096
417.555	17.824	800.261	611.459
418.569	17.821	799.734	610.992
419.584	17.924	799.214	610.909
420.599	17.827	798.799	610.189
421.613	98.777	1275.075	1411.638
422.628	84.611	1344.482	1411.758
