DTS Sentinel unit serial number:	SN413079Multiplexer serial number:	ORYXHardware model number:	OX4-SRSoftware version number:	ORYX F/W v4.00 Oryx Data Collector v3.7.2.0data status	okinstallation	princeton_trtdifferential loss correction	single-endedforward channel	channel 3reverse channel	N/Adate	2019/09/13time	04:04:35forward acquisition time	60.00reverse acquisition time	0.00gamma	496.2192k internal	0.2337k external	0.2337temperature offset calibration	1.0133default loss term (dB/km)	0.3790temperature slope calibration	1.0000multiplexer offset coefficient	1.0000multiplexer slope coefficient	1.0000fibre end	0.00T internal ref (°C)	26.98T ext. ref 1 (°C)	4.07T ext. ref 2 (°C)	21.27length (m)	temperature (°C)	Stokes	anti-Stokes-747.200	112.515	-0.233	-0.283
-746.185	42.852	-0.178	-0.163
-745.171	98.377	0.124	-0.143
-744.156	50.664	0.279	0.265
-743.142	-151.489	0.184	0.014
-742.127	164.132	-0.234	0.330
-741.112	595.111	-0.020	0.049
-740.098	-200.000	0.006	0.055
-739.083	-200.000	-0.002	0.023
-738.069	-3.812	-0.270	0.188
-737.054	-92.741	-0.187	0.053
-736.039	114.889	-0.192	-0.235
-735.025	-200.000	-0.061	-0.297
-734.010	-200.000	-0.014	-0.093
-732.996	-101.029	-0.159	0.039
-731.981	-142.559	-0.271	0.027
-730.966	201.485	-0.238	-0.368
-729.952	-108.805	0.400	-0.086
-728.937	39.941	-0.165	-0.148
-727.923	-123.146	0.158	-0.025
-726.908	111.756	-0.133	-0.161
-725.894	362.861	-0.020	-0.040
-724.879	-165.877	-0.142	0.006
-723.864	448.860	-0.085	-0.189
-722.850	56.142	-0.252	0.245
-721.835	79.460	-0.137	-0.148
-720.821	-165.955	-0.205	0.009
-719.806	-120.349	0.183	-0.031
-718.791	-200.000	0.001	-0.146
-717.777	800.000	0.073	0.220
-716.762	-200.000	-0.038	-0.238
-715.748	188.422	-0.320	-0.480
-714.733	283.641	0.064	-0.116
-713.718	170.064	0.097	0.140
-712.704	-200.000	0.010	-0.086
-711.689	56.545	-0.280	-0.273
-710.675	-60.078	-0.056	0.024
-709.660	-33.267	0.141	-0.078
-708.645	34.733	0.145	-0.127
-707.631	-200.000	0.030	0.171
-706.616	-14.598	0.224	-0.144
-705.602	216.566	0.126	0.201
-704.587	-120.903	-0.441	-0.074
-703.572	-76.716	-0.257	0.090
-702.558	-67.054	0.317	0.125
-701.543	149.246	0.134	0.182
-700.529	326.474	-0.025	-0.048
-699.514	-135.407	-0.114	0.014
-698.499	-200.000	-0.009	0.194
-697.485	-101.424	0.108	0.026
-696.470	143.082	0.091	0.121
-695.456	134.389	0.142	-0.184
-694.441	-34.357	-0.058	-0.032
-693.426	-165.640	0.328	0.014
-692.412	800.000	-0.120	0.346
-691.397	-113.466	-0.099	0.019
-690.383	6.824	0.180	-0.134
-689.368	-200.000	0.016	-0.299
-688.354	-174.314	-0.491	-0.014
-687.339	-123.167	0.229	-0.037
-686.324	800.000	0.012	0.048
-685.310	800.000	-0.053	0.155
-684.295	7.248	-0.156	-0.116
-683.281	-200.000	0.054	-0.323
-682.266	-200.000	-0.001	0.058
-681.251	-127.981	-0.313	-0.045
-680.237	-28.138	-0.172	-0.100
-679.222	-114.475	-0.349	0.067
-678.208	-77.969	-0.221	0.076
-677.193	800.000	-0.069	0.236
-676.178	162.906	0.195	-0.274
-675.164	-128.296	-0.317	0.045
-674.149	120.829	-0.141	0.175
-673.135	-51.055	0.191	0.089
-672.120	446.593	-0.111	-0.244
-671.105	264.291	0.037	-0.064
-670.091	291.593	0.157	-0.285
-669.076	-8.674	0.074	-0.050
-668.062	132.524	-0.062	-0.080
-667.047	-200.000	-0.047	0.492
-666.032	42.082	0.107	0.097
-665.018	-200.000	-0.008	0.127
-664.003	111.552	0.058	-0.070
-662.989	19.495	0.087	0.070
-661.974	-200.000	0.001	-0.024
-660.959	290.863	-0.169	-0.308
-659.945	800.000	-0.076	0.232
-658.930	-200.000	-0.009	0.133
-657.916	-148.554	-0.177	0.014
-656.901	392.432	0.157	0.326
-655.886	-152.327	-0.165	0.012
-654.872	-200.000	0.021	0.200
-653.857	-146.704	0.408	0.035
-652.843	-109.757	0.328	-0.069
-651.828	-200.000	-0.081	-0.618
-650.814	38.551	0.204	-0.182
-649.799	-200.000	0.029	0.135
-648.784	80.925	-0.099	0.107
-647.770	-65.165	-0.098	0.040
-646.755	-39.128	0.041	-0.022
-645.741	-109.892	0.079	-0.017
-644.726	430.792	-0.092	-0.199
-643.711	-21.427	0.171	-0.104
-642.697	-200.000	-0.007	-0.227
-641.682	46.720	-0.114	-0.106
-640.668	138.198	0.089	-0.117
-639.653	96.529	-0.168	0.192
-638.638	800.000	-0.044	-0.131
-637.624	-200.000	-0.003	-0.194
-636.609	-9.754	0.418	-0.279
-635.595	53.460	-0.195	0.187
-634.580	800.000	-0.014	-0.045
-633.565	-200.000	-0.018	-0.103
-632.551	800.000	0.060	0.250
-631.536	-53.832	-0.249	0.113
-630.522	-60.690	-0.299	-0.127
-629.507	800.000	0.084	0.308
-628.492	-54.883	0.269	-0.121
-627.478	-49.614	0.115	0.055
-626.463	717.360	0.159	-0.422
-625.449	470.280	0.095	-0.213
-624.434	-41.469	0.142	0.073
-623.419	-200.000	0.041	-0.253
-622.405	-200.000	-0.012	-0.126
-621.390	-40.494	-0.054	0.028
-620.376	-200.000	-0.027	-0.234
-619.361	-33.172	-0.269	-0.149
-618.346	-200.000	-0.087	-0.454
-617.332	690.460	0.163	0.426
-616.317	800.000	-0.019	-0.074
-615.303	-200.000	-0.001	-0.013
-614.288	694.701	-0.061	0.160
-613.273	-129.897	0.154	-0.021
-612.259	800.000	0.085	-0.313
-611.244	-115.934	0.373	-0.070
-610.230	-200.000	-0.021	-0.132
-609.215	-130.713	-0.176	-0.024
-608.201	481.383	0.152	-0.345
-607.186	223.109	-0.204	0.329
-606.171	400.966	0.151	0.317
-605.157	-113.149	0.131	-0.026
-604.142	252.270	0.036	-0.061
-603.128	-200.000	0.031	-0.270
-602.113	26.454	0.196	-0.163
-601.098	-200.000	-0.003	0.054
-600.084	-39.200	0.039	0.021
-599.069	-140.499	-0.384	-0.040
-598.055	399.517	0.095	-0.198
-597.040	-118.570	-0.230	-0.041
-596.025	800.000	0.089	0.355
-595.011	-134.992	-0.214	-0.026
-593.996	282.040	-0.093	0.166
-592.982	95.128	-0.133	0.151
-591.967	-200.000	-0.035	-0.229
-590.952	-200.000	-0.082	-0.455
-589.938	-200.000	0.092	0.447
-588.923	800.000	-0.030	0.108
-587.909	-200.000	-0.029	-0.215
-586.894	497.659	0.141	0.324
-585.879	-19.563	-0.243	0.150
-584.865	800.000	0.070	-0.305
-583.850	-107.145	-0.197	0.043
-582.836	-175.857	-0.194	-0.005
-581.821	3.794	0.072	0.053
-580.806	800.000	0.109	-0.328
-579.792	800.000	0.053	-0.196
-578.777	129.334	-0.074	0.094
-577.763	800.000	-0.035	-0.120
-576.748	146.129	0.061	0.082
-575.733	800.000	-0.086	-0.309
-574.719	800.000	0.062	0.177
-573.704	42.464	0.189	-0.172
-572.690	303.495	0.189	-0.349
-571.675	83.655	-0.090	0.098
-570.661	-119.671	-0.306	-0.053
-569.646	800.000	0.003	-0.014
-568.631	468.916	-0.079	-0.178
-567.617	-200.000	0.007	-0.209
-566.602	398.343	0.077	0.161
-565.588	-84.205	0.291	0.092
-564.573	-109.941	-0.246	-0.051
-563.558	-99.624	-0.249	-0.062
-562.544	-200.000	0.065	-0.506
-561.529	-51.202	0.371	-0.173
-560.515	-4.748	0.172	-0.118
-559.500	-161.390	-0.248	0.013
-558.485	30.833	-0.267	-0.228
-557.471	-200.000	0.054	0.325
-556.456	-123.299	-0.284	0.045
-555.442	159.296	0.140	-0.194
-554.427	-158.445	0.368	0.021
-553.412	138.410	-0.026	0.034
-552.398	443.782	0.089	0.194
-551.383	-200.000	0.040	0.531
-550.369	20.832	-0.109	-0.088
-549.354	-200.000	-0.011	0.161
-548.339	-60.864	0.353	0.149
-547.325	147.690	-0.072	-0.096
-546.310	-200.000	0.028	0.157
-545.296	29.790	0.196	-0.167
-544.281	-20.885	0.402	-0.246
-543.266	381.298	-0.200	-0.410
-542.252	286.614	-0.030	-0.054
-541.237	582.190	-0.009	0.021
-540.223	-200.000	0.044	0.213
-539.208	-200.000	0.031	-0.143
-538.193	800.000	-0.053	-0.178
-537.179	-58.715	-0.160	-0.069
-536.164	14.070	0.232	-0.180
-535.150	568.244	0.116	0.280
-534.135	-26.383	-0.221	0.129
-533.121	800.000	-0.085	-0.250
-532.106	-200.000	-0.029	-0.300
-531.091	-200.000	-0.001	-0.044
-530.077	-200.000	-0.001	0.067
-529.062	33.305	0.125	0.108
-528.048	-159.148	-0.325	-0.018
-527.033	41.821	0.064	0.058
-526.018	-66.279	0.240	-0.095
-525.004	-200.000	0.009	-0.170
-523.989	519.293	-0.133	-0.310
-522.975	-31.549	-0.059	0.033
-521.960	-107.521	-0.111	0.024
-520.945	263.452	0.157	-0.272
-519.931	-66.535	-0.089	-0.035
-518.916	800.000	0.012	0.054
-517.902	92.360	0.282	-0.316
-516.887	-200.000	0.024	-0.202
-515.872	-54.359	-0.084	0.038
-514.858	17.923	-0.181	-0.143
-513.843	192.198	0.133	-0.200
-512.829	16.692	0.129	0.102
-511.814	800.000	0.014	-0.056
-510.799	-200.000	0.049	0.412
-509.785	-32.817	-0.175	0.097
-508.770	-60.381	-0.342	0.145
-507.756	800.000	-0.101	-0.355
-506.741	494.656	0.102	0.233
-505.726	-200.000	0.017	-0.315
-504.712	-105.401	-0.344	0.078
-503.697	-45.780	-0.174	0.086
-502.683	-35.052	-0.105	0.057
-501.668	-185.947	0.143	0.002
-500.653	46.533	0.082	-0.076
-499.639	800.000	0.102	0.316
-498.624	-111.521	0.252	-0.051
-497.610	505.192	-0.197	-0.453
-496.595	800.000	0.018	-0.075
-495.581	-200.000	0.033	-0.273
-494.566	181.128	-0.196	-0.286
-493.551	-143.021	0.051	0.005
-492.537	800.000	0.084	-0.333
-491.522	89.001	0.025	-0.027
-490.508	-169.665	-0.255	0.009
-489.493	800.000	-0.082	-0.248
-488.478	-34.781	0.231	0.125
-487.464	120.614	-0.176	0.217
-486.449	-121.786	-0.305	-0.050
-485.435	-200.000	-0.020	0.136
-484.420	43.248	0.073	-0.066
-483.405	800.000	0.068	0.269
-482.391	10.623	-0.195	0.147
-481.376	-22.848	0.362	0.217
-480.362	800.000	-0.026	0.081
-479.347	52.513	0.145	-0.138
-478.332	-142.416	-0.370	0.036
-477.318	78.107	0.101	-0.107
-476.303	-200.000	0.056	-0.319
-475.289	379.207	0.156	0.318
-474.274	-75.931	-0.025	-0.009
-473.259	-173.255	-0.197	0.006
-472.245	-94.754	-0.179	-0.048
-471.230	-142.246	0.419	0.041
-470.216	-53.734	-0.229	0.104
-469.201	-85.608	0.324	0.100
-468.186	115.505	0.118	0.143
-467.172	-165.304	-0.116	0.005
-466.157	-101.489	0.202	-0.049
-465.143	800.000	0.038	-0.153
-464.128	800.000	0.013	0.051
-463.113	800.000	0.073	-0.204
-462.099	-40.218	-0.167	0.086
-461.084	-102.187	-0.369	0.088
-460.070	20.721	0.048	0.038
-459.055	150.325	-0.054	-0.073
-458.040	194.742	0.089	0.134
-457.026	747.618	-0.139	-0.373
-456.011	0.606	0.137	-0.097
-454.997	150.859	-0.091	-0.123
-453.982	32.010	0.024	0.020
-452.968	-200.000	-0.018	0.159
-451.953	7.598	0.391	-0.290
-450.938	-106.435	-0.216	0.048
-449.924	-112.768	-0.398	-0.078
-448.909	337.068	0.056	0.108
-447.895	311.344	0.065	-0.122
-446.880	-200.000	0.012	0.120
-445.865	-24.281	-0.216	-0.128
-444.851	-59.004	0.219	-0.094
-443.836	800.000	0.136	-0.534
-442.822	800.000	-0.034	-0.128
-441.807	252.831	0.110	0.186
-440.792	116.264	0.048	0.058
-439.778	149.300	-0.186	-0.249
-438.763	546.089	0.047	0.111
-437.749	-8.527	-0.194	0.129
-436.734	-200.000	0.012	-0.122
-435.719	329.651	-0.068	0.130
-434.705	800.000	-0.079	0.333
-433.690	-128.181	0.047	0.007
-432.676	800.000	-0.080	0.239
-431.661	5.890	-0.092	-0.068
-430.646	114.139	-0.072	-0.087
-429.632	460.140	-0.031	-0.068
-428.617	800.000	0.072	-0.204
-427.603	73.327	0.155	0.161
-426.588	-59.051	-0.175	0.075
-425.573	28.814	-0.196	0.164
-424.559	13.754	0.145	-0.112
-423.544	-14.606	-0.086	0.055
-422.530	-161.679	0.196	-0.010
-421.515	-121.730	-0.325	-0.053
-420.500	416.170	-0.132	-0.279
-419.486	220.684	0.078	0.124
-418.471	800.000	-0.069	0.241
-417.457	218.685	0.227	0.360
-416.442	133.136	-0.093	0.120
-415.428	478.701	0.110	0.246
-414.413	-37.135	0.397	0.210
-413.398	-200.000	0.040	0.287
-412.384	100.018	0.085	0.098
-411.369	-92.806	0.038	0.011
-410.355	297.159	-0.080	0.146
-409.340	281.070	-0.024	-0.042
-408.325	63.536	-0.015	0.015
-407.311	-200.000	-0.017	-0.105
-406.296	800.000	0.010	0.038
-405.282	-136.354	0.347	-0.040
-404.267	800.000	-0.047	-0.142
-403.252	632.584	-0.159	-0.400
-402.238	122.418	0.352	-0.436
-401.223	336.704	-0.144	0.277
-400.209	-200.000	-0.002	-0.242
-399.194	232.272	-0.065	0.105
-398.179	499.710	0.012	0.027
-397.165	-77.600	-0.215	-0.074
-396.150	-200.000	-0.032	-0.154
-395.136	83.765	0.067	-0.072
-394.121	10.359	-0.192	-0.145
-393.106	-102.915	0.136	-0.032
-392.092	-200.000	-0.149	-0.000
-391.077	800.000	0.100	0.306
-390.063	144.727	-0.253	0.335
-389.048	-117.540	0.230	0.041
-388.033	-200.000	0.039	-0.185
-387.019	800.000	-0.029	-0.095
-386.004	242.140	-0.113	0.186
-384.990	-111.929	-0.060	0.012
-383.975	-82.992	-0.153	-0.049
-382.960	-116.269	-0.328	0.060
-381.946	-40.340	0.261	0.134
-380.931	137.482	0.085	0.110
-379.917	-75.711	-0.367	-0.129
-378.902	332.484	0.135	0.257
-377.888	800.000	0.074	-0.234
-376.873	-200.000	0.020	0.111
-375.858	715.506	0.096	0.252
-374.844	-8.104	0.154	0.102
-373.829	266.806	-0.031	-0.053
-372.815	-24.846	0.158	0.093
-371.800	-115.257	0.265	-0.050
-370.785	-98.950	-0.295	0.074
-369.771	800.000	0.058	-0.224
-368.756	137.191	-0.142	0.183
-367.742	800.000	0.117	0.506
-366.727	-47.236	0.013	0.006
-365.712	-168.465	0.031	-0.001
-364.698	1.191	0.428	0.304
-363.683	-94.296	-0.114	-0.031
-362.669	-6.864	0.184	-0.124
-361.654	-168.286	-0.265	0.010
-360.639	-9.409	-0.121	-0.080
-359.625	800.000	-0.060	0.181
-358.610	-200.000	-0.045	0.269
-357.596	76.967	-0.107	-0.112
-356.581	13.946	0.048	0.037
-355.566	-71.125	0.153	0.057
-354.552	56.074	-0.287	0.275
-353.537	24.343	0.070	-0.057
-352.523	191.283	-0.095	0.142
-351.508	535.945	0.146	-0.342
-350.493	-121.801	-0.466	0.076
-349.479	4.458	-0.207	0.150
-348.464	-149.409	0.100	0.008
-347.450	17.046	0.124	0.097
-346.435	-111.581	-0.249	-0.050
-345.420	-82.964	-0.284	0.091
-344.406	137.572	-0.149	-0.193
-343.391	800.000	-0.107	0.300
-342.377	167.219	0.092	0.129
-341.362	-200.000	-0.051	-0.240
-340.348	800.000	0.035	-0.137
-339.333	-59.247	-0.603	-0.256
-338.318	-200.000	0.008	0.062
-337.304	-192.221	-0.129	0.001
-336.289	60.686	0.106	0.104
-335.275	-164.139	-0.157	0.007
-334.260	1.143	-0.095	-0.067
-333.245	403.232	0.191	0.398
-332.231	198.476	-0.172	-0.260
-331.216	800.000	0.052	0.195
-330.202	29.149	-0.128	0.107
-329.187	55.892	0.084	0.081
-328.172	-162.395	-0.151	0.007
-327.158	-35.922	0.119	0.064
-326.143	100.453	-0.011	-0.013
-325.129	35.908	-0.306	0.266
-324.114	-200.000	-0.022	0.120
-323.099	59.193	0.196	0.191
-322.085	-5.720	-0.283	-0.191
-321.070	-200.000	0.036	-0.273
-320.056	247.638	0.105	0.175
-319.041	-200.000	0.007	0.218
-318.026	-74.265	0.304	-0.108
-317.012	-200.000	0.072	-0.328
-315.997	295.498	-0.156	0.281
-314.983	152.770	-0.116	0.156
-313.968	28.871	0.252	-0.211
-312.953	89.316	-0.164	0.180
-311.939	-91.517	0.230	-0.065
-310.924	253.341	0.047	0.080
-309.910	416.121	0.071	0.149
-308.895	98.317	-0.173	0.197
-307.880	51.340	0.113	0.106
-306.866	369.067	-0.072	-0.144
-305.851	-27.123	0.220	0.126
-304.837	-200.000	-0.015	-0.222
-303.822	-200.000	-0.001	-0.235
-302.807	-140.220	0.286	0.030
-301.793	-46.036	-0.285	-0.139
-300.778	-82.848	0.154	-0.049
-299.764	194.698	0.146	0.218
-298.749	59.555	-0.101	0.098
-297.735	-200.000	-0.077	0.386
-296.720	-200.000	-0.002	0.011
-295.705	-200.000	-0.018	0.077
-294.691	-200.000	0.078	0.375
-293.676	800.000	-0.038	-0.157
-292.662	-123.677	0.147	0.023
-291.647	-0.876	0.066	-0.046
-290.632	-128.761	-0.418	-0.058
-289.618	243.885	0.032	0.053
-288.603	536.368	-0.099	0.231
-287.589	-200.000	-0.055	0.398
-286.574	394.970	0.125	0.257
-285.559	471.139	0.068	-0.150
-284.545	-107.074	-0.219	-0.048
-283.530	228.808	0.188	0.302
-282.516	-74.034	-0.075	-0.027
-281.501	800.000	-0.046	0.179
-280.486	-200.000	-0.081	-0.591
-279.472	-200.000	-0.007	-0.470
-278.457	-110.452	0.208	-0.043
-277.443	-107.045	-0.068	-0.015
-276.428	12.716	0.121	0.092
-275.413	267.692	0.128	-0.221
-274.399	800.000	-0.048	0.178
-273.384	800.000	-0.019	0.078
-272.370	-162.534	0.192	-0.009
-271.355	-146.678	-0.336	-0.029
-270.340	-200.000	-0.031	0.187
-269.326	75.343	0.049	0.051
-268.311	-93.006	-0.074	0.020
-267.297	12.928	-0.102	0.077
-266.282	-200.000	-0.057	0.413
-265.267	-200.000	-0.040	0.179
-264.253	-127.916	-0.220	0.031
-263.238	39.743	0.080	0.071
-262.224	-73.898	0.247	0.088
-261.209	222.225	0.106	0.168
-260.195	-2.198	0.120	-0.083
-259.180	63.567	0.140	-0.138
-258.165	800.000	0.057	0.226
-257.151	-200.000	-0.015	-0.151
-256.136	-50.168	-0.045	0.021
-255.122	-27.694	0.098	-0.056
-254.107	-16.199	-0.061	-0.038
-253.092	25.993	0.134	0.110
-252.078	-200.000	0.021	0.146
-251.063	100.132	-0.117	0.134
-250.049	-171.597	0.509	-0.017
-249.034	62.116	-0.042	0.042
-248.019	-102.730	-0.124	-0.029
-247.005	-200.000	0.041	-0.183
-245.990	-81.281	-0.239	-0.078
-244.976	553.893	-0.098	-0.232
-243.961	800.000	0.024	-0.072
-242.946	-154.448	0.225	0.015
-241.932	67.197	-0.128	-0.129
-240.917	-28.319	-0.416	-0.236
-239.903	-54.770	-0.104	-0.046
-238.888	223.560	-0.132	0.210
-237.873	-40.234	-0.170	-0.087
-236.859	800.000	-0.068	0.212
-235.844	171.405	0.033	-0.047
-234.830	-200.000	0.078	-0.346
-233.815	-149.576	0.171	-0.013
-232.800	-73.161	-0.168	0.061
-231.786	800.000	0.100	0.274
-230.771	-200.000	0.032	0.143
-229.757	-56.613	-0.267	0.117
-228.742	88.666	-0.246	-0.269
-227.727	399.619	0.079	0.163
-226.713	-152.491	-0.187	-0.013
-225.698	-84.129	0.254	-0.079
-224.684	800.000	0.032	0.115
-223.669	-49.336	-0.228	-0.107
-222.655	-24.549	0.371	-0.217
-221.640	-200.000	0.018	0.096
-220.625	-5.240	-0.219	0.148
-219.611	-39.478	-0.043	-0.022
-218.596	-59.769	-0.124	0.052
-217.582	-200.000	0.027	0.234
-216.567	-200.000	0.013	0.099
-215.552	800.000	0.076	0.260
-214.538	-82.508	-0.342	-0.109
-213.523	-111.953	0.478	0.095
-212.509	-200.000	0.016	0.405
-211.494	-28.660	-0.363	-0.206
-210.479	13.674	0.235	0.180
-209.465	-183.765	0.250	0.004
-208.450	-135.664	0.368	0.043
-207.436	-53.864	0.047	-0.021
-206.421	-4.742	-0.092	-0.062
-205.406	-200.000	-0.004	-0.273
-204.392	-149.603	0.367	-0.029
-203.377	-25.902	0.124	0.072
-202.363	203.417	-0.069	0.104
-201.348	-51.472	0.050	0.023
-200.333	130.699	-0.156	0.196
-199.319	-176.646	0.199	-0.005
-198.304	-200.000	-0.002	-0.233
-197.290	12.802	0.091	-0.069
-196.275	-130.604	0.277	0.037
-195.260	-200.000	-0.006	-0.238
-194.246	22.303	0.214	-0.172
-193.231	-200.000	-0.014	0.074
-192.217	-162.640	0.120	0.006
-191.202	-200.000	0.017	0.123
-190.187	800.000	-0.055	-0.211
-189.173	-22.898	-0.206	-0.122
-188.158	800.000	-0.105	-0.395
-187.144	-32.254	0.183	-0.100
-186.129	105.602	-0.061	0.070
-185.114	800.000	0.008	-0.035
-184.100	337.371	-0.043	0.082
-183.085	-108.616	0.323	-0.068
-182.071	-147.036	0.079	0.007
-181.056	2.678	0.181	0.129
-180.042	-200.000	0.056	0.331
-179.027	-200.000	0.009	0.140
-178.012	-37.896	0.092	-0.048
-176.998	86.501	-0.074	-0.080
-175.983	73.425	0.233	-0.239
-174.969	-200.000	-0.043	-0.337
-173.954	-200.000	0.066	0.397
-172.939	-200.000	-0.067	0.348
-171.925	-182.247	0.406	-0.007
-170.910	-45.967	0.172	0.083
-169.896	-200.000	0.006	0.051
-168.881	-78.180	0.320	0.108
-167.866	-187.188	-0.343	0.005
-166.852	57.795	-0.037	-0.035
-165.837	-19.575	-0.336	-0.204
-164.823	-170.197	0.256	-0.009
-163.808	131.965	0.250	0.316
-162.793	-70.628	-0.158	0.058
-161.779	330.712	0.062	-0.117
-160.764	144.657	0.071	-0.094
-159.750	411.682	0.058	0.120
-158.735	800.000	-0.094	0.343
-157.720	421.380	0.055	-0.115
-156.706	275.329	-0.112	0.195
-155.691	800.000	-0.073	0.231
-154.677	158.045	0.147	-0.200
-153.662	219.218	-0.136	0.213
-152.647	361.264	-0.032	0.062
-151.633	-18.873	0.158	-0.096
-150.618	19.217	-0.097	0.077
-149.604	63.585	-0.021	0.020
-148.589	78.021	0.080	-0.083
-147.574	800.000	0.062	-0.205
-146.560	-101.458	-0.301	-0.072
-145.545	8.429	-0.165	0.121
-144.531	-194.258	-0.332	-0.003
-143.516	257.252	-0.129	0.217
-142.502	-88.304	-0.053	0.016
-141.487	-200.000	0.005	-0.122
-140.472	-129.328	0.167	-0.023
-139.458	-149.246	-0.199	0.016
-138.443	-200.000	-0.072	-0.338
-137.429	17.697	-0.220	-0.172
-136.414	126.505	0.078	0.097
-135.399	800.000	0.020	0.065
-134.385	-80.940	0.180	-0.058
-133.370	-133.468	-0.405	0.050
-132.356	-3.700	-0.122	0.083
-131.341	-200.000	0.051	0.283
-130.326	70.211	-0.124	-0.126
-129.312	17.442	0.077	0.060
-128.297	-115.456	-0.309	-0.057
-127.283	-168.582	0.513	0.019
-126.268	-200.000	-0.082	-0.389
-125.253	117.075	0.084	0.101
-124.239	-25.078	-0.328	0.190
-123.224	353.050	0.023	-0.044
-122.210	-86.072	0.322	-0.097
-121.195	106.642	0.134	-0.156
-120.180	800.000	0.077	-0.322
-119.166	-139.338	-0.193	0.020
-118.151	-200.000	-0.016	-0.187
-117.137	454.761	-0.048	0.103
-116.122	1.006	-0.276	0.194
-115.107	140.697	0.128	0.166
-114.093	-200.000	-0.020	-0.147
-113.078	800.000	-0.059	0.236
-112.064	56.073	-0.089	0.084
-111.049	-70.899	0.059	0.022
-110.034	308.245	-0.072	-0.131
-109.020	-27.083	-0.108	0.062
-108.005	-200.000	-0.027	0.118
-106.991	-200.000	-0.006	-0.140
-105.976	-200.000	-0.017	-0.165
-104.962	-40.725	-0.073	-0.037
-103.947	427.759	0.117	-0.248
-102.932	243.974	-0.068	0.112
-101.918	12.154	-0.200	-0.150
-100.903	-188.548	-0.099	-0.001
-99.889	-53.904	0.298	0.133
-98.874	218.377	-0.100	0.157
-97.859	-132.628	0.377	0.047
-96.845	800.000	-0.073	0.215
-95.830	-200.000	0.023	0.159
-94.816	-200.000	-0.037	0.366
-93.801	91.494	-0.224	-0.246
-92.786	-200.000	0.062	0.287
-91.772	0.793	-0.135	-0.095
-90.757	45.356	0.325	-0.293
-89.743	95.205	0.229	0.256
-88.728	-129.512	-0.253	-0.034
-87.713	800.000	-0.074	-0.274
-86.699	-46.482	0.208	-0.100
-85.684	-88.171	0.209	0.061
-84.670	-200.000	0.044	0.601
-83.655	97.953	-0.204	0.230
-82.640	38.864	0.129	-0.113
-81.626	115.179	-0.224	-0.268
-80.611	-200.000	-0.014	0.115
-79.597	140.662	-0.189	-0.244
-78.582	-50.380	-0.349	0.161
-77.567	-47.083	-0.300	0.143
-76.553	189.832	-0.171	-0.251
-75.538	-27.546	0.316	-0.180
-74.524	408.627	0.054	-0.112
-73.509	-200.000	-0.005	-0.039
-72.494	430.747	-0.166	0.352
-71.480	627.519	0.124	-0.306
-70.465	-8.299	-0.204	0.134
-69.451	-102.526	-0.273	-0.064
-68.436	-200.000	-0.076	0.402
-67.422	800.000	-0.209	0.606
-66.407	-28.728	-0.120	0.067
-65.392	-200.000	-0.005	-0.037
-64.378	486.363	-0.086	0.191
-63.363	414.981	0.037	0.078
-62.349	2.435	0.157	-0.111
-61.334	93.985	-1.183	-1.311
-60.319	3.474	0.710	0.506
-59.305	270.455	-0.634	-1.089
-58.290	190.088	0.770	1.129
-57.276	239.239	0.870	1.414
-56.261	-200.000	116.614	662.222
-55.246	525.325	1535.620	3531.304
-54.232	177.422	2701.098	3843.951
-53.217	106.659	2170.561	2515.827
-52.203	37.520	1692.209	1466.460
-51.188	30.144	1509.759	1258.452
-50.173	28.027	1484.770	1223.425
-49.159	51.875	1545.214	1436.780
-48.144	49.994	1560.037	1437.671
-47.130	30.316	1515.349	1264.081
-46.115	27.205	1500.107	1230.304
-45.100	26.976	1496.850	1226.042
-44.086	27.022	1494.900	1224.706
-43.071	26.940	1493.242	1222.745
-42.057	26.888	1491.658	1221.046
-41.042	27.023	1490.351	1220.835
-40.027	26.952	1488.538	1218.829
-39.013	26.957	1486.835	1217.419
-37.998	26.905	1486.455	1216.713
-36.984	27.055	1484.567	1216.119
-35.969	27.000	1483.441	1214.783
-34.954	27.040	1481.696	1213.570
-33.940	27.028	1481.005	1212.877
-32.925	26.927	1479.195	1210.673
-31.911	27.000	1477.850	1210.013
-30.896	26.979	1476.883	1209.034
-29.881	27.052	1475.334	1208.202
-28.867	27.067	1474.295	1207.404
-27.852	27.022	1473.246	1206.194
-26.838	26.982	1471.785	1204.687
-25.823	27.041	1470.148	1203.690
-24.809	27.053	1468.815	1202.630
-23.794	27.005	1467.181	1200.927
-22.779	26.929	1466.255	1199.620
-21.765	27.017	1464.938	1199.078
-20.750	27.027	1464.012	1198.337
-19.736	26.983	1462.953	1197.129
-18.721	27.012	1461.472	1196.061
-17.706	27.039	1460.572	1195.458
-16.692	27.076	1458.855	1194.247
-15.677	26.972	1458.620	1193.321
-14.663	26.934	1458.065	1192.572
-13.648	27.025	1456.580	1191.910
-12.633	26.942	1455.984	1190.826
-11.619	26.914	1455.374	1190.098
-10.604	26.985	1454.007	1189.398
-9.590	26.986	1453.510	1188.952
-8.575	26.983	1452.577	1188.124
-7.560	26.888	1451.643	1186.690
-6.546	26.965	1450.762	1186.427
-5.531	26.910	1450.014	1185.404
-4.517	26.985	1448.880	1184.920
-3.502	27.020	1447.985	1184.371
-2.487	26.990	1447.178	1183.466
-1.473	26.994	1445.901	1182.402
-0.458	26.966	1444.151	1180.741
0.556	28.478	1434.938	1169.220
1.571	25.253	1409.996	1128.546
2.586	21.723	1350.769	1059.742
3.600	19.962	1268.783	985.319
4.615	18.673	1223.719	943.156
5.629	16.434	1167.268	887.824
6.644	9.988	1086.261	794.524
7.659	4.826	1049.635	743.088
8.673	4.220	1044.409	736.442
9.688	4.131	1040.622	733.287
10.702	3.884	1039.409	731.199
11.717	4.036	1037.081	730.216
12.731	6.328	1039.086	742.383
13.746	13.511	1048.778	783.328
14.761	20.024	1057.948	821.080
15.775	22.486	1059.560	833.933
16.790	22.194	1058.168	831.383
17.804	21.152	1056.535	825.101
18.819	20.371	1054.567	819.806
19.834	19.939	1053.768	817.075
20.848	19.993	1053.007	816.667
21.863	19.984	1053.016	816.560
22.877	19.963	1051.573	815.266
23.892	19.748	1050.797	813.584
24.907	19.545	1050.192	812.085
25.921	19.606	1049.344	811.646
26.936	19.504	1048.446	810.401
27.950	19.550	1047.584	809.878
28.965	19.546	1046.482	808.937
29.980	19.556	1045.369	808.054
30.994	19.694	1044.436	807.905
32.009	19.888	1043.872	808.303
33.023	19.978	1043.082	808.041
34.038	19.945	1042.445	807.321
35.053	19.749	1041.342	805.480
36.067	19.608	1040.316	803.962
37.082	19.500	1039.723	802.931
38.096	19.789	1038.286	803.088
39.111	19.774	1038.113	802.817
40.126	19.858	1037.486	802.651
41.140	19.656	1035.930	800.442
42.155	19.424	1034.396	798.108
43.169	19.193	1033.513	796.289
44.184	19.177	1032.381	795.273
45.199	19.065	1031.151	793.739
46.213	19.124	1030.470	793.416
47.228	19.221	1029.707	793.207
48.242	19.402	1029.257	793.619
49.257	19.619	1028.451	793.927
50.271	19.677	1027.055	793.046
51.286	19.744	1026.443	792.809
52.301	20.015	1025.852	793.526
53.315	19.797	1025.006	791.802
54.330	19.726	1023.843	790.510
55.344	19.358	1023.400	788.416
56.359	19.442	1021.876	787.554
57.374	19.458	1020.772	786.709
58.388	19.361	1020.144	785.715
59.403	19.230	1019.742	784.734
60.417	19.077	1018.838	783.274
61.432	19.090	1018.324	782.868
62.447	19.109	1017.455	782.220
63.461	19.020	1016.464	780.983
64.476	19.038	1015.711	780.416
65.490	19.009	1014.521	779.301
66.505	18.993	1013.525	778.395
67.520	18.876	1013.645	777.891
68.534	18.965	1012.613	777.432
69.549	19.018	1011.249	776.556
70.563	18.830	1011.325	775.696
71.578	18.811	1010.046	774.560
72.593	18.758	1009.334	773.708
73.607	18.741	1007.698	772.308
74.622	18.583	1007.124	771.089
75.636	18.679	1006.113	770.679
76.651	18.698	1005.805	770.459
77.666	18.737	1005.264	770.152
78.680	18.849	1004.051	769.654
79.695	18.770	1003.639	768.919
80.709	18.824	1003.030	768.626
81.724	18.959	1002.751	768.946
82.739	19.138	1001.467	768.693
83.753	19.181	1000.879	768.365
84.768	19.489	1000.539	769.410
85.782	19.749	1000.379	770.379
86.797	20.017	999.760	771.026
87.812	20.067	998.661	770.334
88.826	19.969	997.302	768.784
89.841	19.827	996.716	767.633
90.855	19.940	995.981	767.498
91.870	19.963	995.907	767.474
92.884	20.074	994.737	766.998
93.899	20.075	994.003	766.369
94.914	19.956	993.307	765.237
95.928	19.977	993.076	765.087
96.943	20.083	991.749	764.465
97.957	19.888	990.994	762.952
98.972	19.801	990.072	761.794
99.987	19.817	989.228	761.148
101.001	20.006	988.680	761.489
102.016	19.783	988.367	760.202
103.030	19.912	986.578	759.324
104.045	19.762	986.563	758.587
105.060	19.995	985.567	758.774
106.074	19.758	984.313	756.706
107.089	19.512	982.931	754.500
108.103	19.328	981.768	752.737
109.118	19.011	980.984	750.688
110.133	19.091	979.941	750.171
111.147	18.984	978.738	748.716
112.162	18.967	977.837	747.888
113.176	18.931	977.490	747.398
114.191	19.187	976.283	747.525
115.206	19.297	975.539	747.364
116.220	19.115	975.328	746.348
117.235	19.187	973.985	745.563
118.249	19.150	973.375	744.871
119.264	19.119	972.541	744.035
120.279	18.875	972.064	742.549
121.293	18.891	971.064	741.787
122.308	18.823	969.688	740.379
123.322	18.656	969.270	739.275
124.337	18.730	967.811	738.413
125.352	18.645	966.722	737.153
126.366	18.579	965.871	736.154
127.381	18.714	964.540	735.655
128.395	18.604	963.754	734.521
129.410	18.684	963.100	734.298
130.424	18.824	962.012	734.002
131.439	18.777	961.554	733.385
132.454	18.932	961.214	733.724
133.468	19.187	959.912	733.752
134.483	19.035	959.869	733.009
135.497	19.113	958.836	732.484
136.512	19.102	958.331	731.989
137.527	19.190	957.413	731.594
138.541	19.127	956.872	730.850
139.556	19.363	955.748	730.925
140.570	19.241	955.092	729.843
141.585	19.385	954.355	729.825
142.600	19.567	954.417	730.579
143.614	19.619	953.547	730.069
144.629	19.883	952.915	730.635
145.643	19.877	952.478	730.208
146.658	19.786	951.818	729.254
147.673	19.692	950.264	727.602
148.687	19.551	948.543	725.632
149.702	19.434	947.790	724.497
150.716	19.200	947.131	722.948
151.731	19.266	946.347	722.561
152.746	19.102	945.641	721.274
153.760	19.351	944.862	721.657
154.775	19.326	944.397	721.131
155.789	19.319	943.857	720.629
156.804	19.515	943.061	720.775
157.819	19.615	941.804	720.166
158.833	19.687	941.608	720.252
159.848	19.826	940.951	720.267
160.862	19.806	940.754	719.967
161.877	19.786	939.776	719.074
162.892	19.561	938.689	717.245
163.906	19.256	937.492	715.000
164.921	19.218	936.449	713.984
165.935	19.153	935.474	712.910
166.950	19.151	934.734	712.272
167.964	19.362	933.823	712.389
168.979	19.327	932.736	711.349
169.994	19.267	931.464	710.069
171.008	19.326	930.505	709.520
172.023	19.395	929.838	709.231
173.037	19.535	929.823	709.733
174.052	19.792	928.992	710.091
175.067	19.675	928.062	708.838
176.081	19.376	927.530	707.143
177.096	19.073	926.063	704.719
178.110	19.169	924.675	703.996
179.125	19.096	924.603	703.579
180.140	19.286	924.015	703.847
181.154	19.399	923.134	703.574
182.169	19.524	923.121	704.013
183.183	19.755	922.537	704.444
184.198	19.754	921.819	703.829
185.213	19.597	921.423	702.829
186.227	19.650	920.721	702.446
187.242	19.690	920.480	702.359
188.256	19.877	919.535	702.335
189.271	19.976	918.974	702.247
190.286	19.970	918.484	701.787
191.300	19.849	917.304	700.332
192.315	19.245	916.037	696.862
193.329	19.051	915.292	695.451
194.344	19.085	914.549	694.959
195.359	19.041	914.403	694.613
196.373	19.462	913.533	695.587
197.388	19.721	913.135	696.266
198.402	19.720	912.902	696.023
199.417	19.928	912.629	696.588
200.432	20.189	912.498	697.479
201.446	20.262	912.207	697.485
202.461	20.303	911.755	697.244
203.475	20.481	911.009	697.326
204.490	20.275	910.312	695.905
205.504	20.100	909.225	694.313
206.519	19.950	908.260	692.913
207.534	19.773	907.744	691.749
208.548	19.865	906.639	691.215
209.563	19.846	906.164	690.717
210.577	19.813	905.610	690.101
211.592	19.921	904.793	689.847
212.607	20.085	904.919	690.536
213.621	20.321	903.715	690.493
214.636	20.183	903.314	689.576
215.650	20.041	902.704	688.485
216.665	20.119	902.198	688.348
217.680	20.159	901.871	688.199
218.694	20.289	901.572	688.427
219.709	20.280	901.222	688.059
220.723	20.295	900.097	687.202
221.738	20.132	899.868	686.318
222.753	20.035	898.727	685.004
223.767	20.138	897.751	684.606
224.782	20.302	897.046	684.656
225.796	20.428	896.672	684.807
226.811	20.491	896.358	684.757
227.826	20.417	895.011	683.373
228.840	20.122	894.488	681.753
229.855	20.168	893.775	681.333
230.869	20.160	893.331	680.900
231.884	20.078	892.931	680.213
232.899	19.996	891.797	678.967
233.913	19.894	890.965	677.876
234.928	19.691	890.559	676.713
235.942	19.745	889.715	676.222
236.957	19.625	888.917	675.086
237.972	19.718	888.280	674.906
238.986	19.852	887.357	674.669
240.001	19.784	887.033	674.099
241.015	20.016	886.259	674.354
242.030	19.786	885.855	673.089
243.045	20.052	885.246	673.603
244.059	20.125	884.748	673.448
245.074	19.980	884.120	672.348
246.088	20.185	883.289	672.449
247.103	20.313	883.127	672.763
248.117	20.337	882.621	672.411
249.132	20.544	882.417	672.998
250.147	20.902	881.995	674.003
251.161	21.185	881.744	674.843
252.176	21.190	881.370	674.519
253.190	21.204	880.597	673.921
254.205	21.262	880.646	674.124
255.220	21.424	879.821	674.056
256.234	21.390	878.940	673.189
257.249	21.264	878.051	671.965
258.263	21.219	878.041	671.725
259.278	21.056	877.300	670.471
260.293	21.160	876.491	670.195
261.307	21.142	876.297	669.918
262.322	21.352	875.524	670.072
263.336	21.363	875.017	669.667
264.351	21.386	874.586	669.366
265.366	21.320	874.150	668.722
266.380	21.342	873.359	668.140
267.395	21.427	872.591	667.818
268.409	21.342	871.679	666.738
269.424	21.152	870.772	665.261
270.439	21.042	870.378	664.480
271.453	21.111	869.480	663.999
272.468	20.918	868.962	662.812
273.482	20.927	868.482	662.421
274.497	21.011	867.574	661.990
275.512	20.961	866.832	661.175
276.526	20.837	866.359	660.285
277.541	20.959	865.622	660.126
278.555	20.910	865.273	659.617
279.570	21.130	864.835	660.056
280.585	21.477	864.437	661.007
281.599	21.399	863.876	660.222
282.614	21.206	863.109	658.851
283.628	21.169	862.019	657.822
284.643	20.997	861.629	656.818
285.657	21.004	860.993	656.301
286.672	20.967	860.466	655.701
287.687	20.991	860.609	655.842
288.701	20.928	859.975	655.064
289.716	21.136	859.211	655.205
290.730	21.277	858.323	655.002
291.745	21.203	858.074	654.474
292.760	21.081	857.430	653.469
293.774	21.391	856.470	653.840
294.789	21.396	856.564	653.871
295.803	21.402	856.342	653.667
296.818	21.074	855.043	651.394
297.833	21.177	853.980	650.910
298.847	21.125	853.422	650.231
299.862	21.228	853.131	650.338
300.876	21.184	852.450	649.598
301.891	21.203	851.800	649.115
302.906	21.571	851.193	649.960
303.920	21.605	850.872	649.786
304.935	21.697	850.103	649.482
305.949	21.867	850.080	650.034
306.964	21.807	849.279	649.145
307.979	21.576	848.639	647.742
308.993	21.558	848.011	647.138
310.008	21.677	847.050	646.787
311.022	21.892	846.717	647.268
312.037	21.612	846.908	646.327
313.052	21.332	846.186	644.685
314.066	21.351	844.981	643.777
315.081	21.355	843.778	642.820
316.095	21.164	843.401	641.773
317.110	21.119	843.296	641.473
318.125	21.071	842.670	640.762
319.139	21.052	842.255	640.320
320.154	20.952	842.078	639.763
321.168	20.988	841.222	639.188
322.183	21.186	840.380	639.217
323.197	21.125	840.753	639.219
324.212	21.289	839.777	639.021
325.227	21.377	838.772	638.523
326.241	21.438	838.496	638.477
327.256	21.242	837.826	637.197
328.270	21.201	837.409	636.673
329.285	21.192	836.796	636.116
330.300	21.086	836.094	635.142
331.314	21.199	835.625	635.139
332.329	21.187	835.123	634.658
333.343	21.509	834.603	635.379
334.358	21.536	834.207	635.119
335.373	21.696	833.604	635.181
336.387	21.543	833.348	634.376
337.402	21.534	832.903	633.949
338.416	21.758	832.439	634.351
339.431	21.864	831.949	634.305
340.446	21.953	831.509	634.235
341.460	22.161	830.986	634.533
342.475	22.282	830.572	634.596
343.489	22.262	830.080	634.090
344.504	22.479	829.566	634.423
345.519	22.464	828.983	633.867
346.533	22.450	828.877	633.682
347.548	22.461	827.858	632.884
348.562	22.263	827.048	631.499
349.577	22.026	825.995	629.791
350.592	21.814	825.623	628.690
351.606	21.664	825.286	627.839
352.621	21.609	824.840	627.247
353.635	21.527	824.212	626.421
354.650	21.819	823.500	626.868
355.665	21.777	823.547	626.699
356.679	21.629	823.394	625.999
357.694	21.916	822.680	626.424
358.708	21.941	821.754	625.752
359.723	21.794	821.526	625.001
360.738	21.981	820.869	625.113
361.752	21.967	820.408	624.653
362.767	22.059	820.002	624.618
363.781	22.110	820.011	624.750
364.796	22.327	819.588	625.144
365.810	22.554	819.546	625.864
366.825	22.677	819.069	625.879
367.840	22.818	818.640	625.997
368.854	22.902	817.830	625.618
369.869	22.611	817.190	624.043
370.883	22.336	816.576	622.549
371.898	22.375	816.056	622.234
372.913	22.534	815.714	622.482
373.927	22.513	815.447	622.149
374.942	22.363	814.749	621.030
375.956	22.360	813.923	620.336
376.971	22.514	813.282	620.333
377.986	22.685	812.991	620.660
379.000	22.836	812.727	620.932
380.015	22.753	811.957	619.998
381.029	22.952	811.290	620.134
382.044	22.656	810.903	618.743
383.059	22.780	810.008	618.442
384.073	22.802	809.862	618.351
385.088	22.830	808.766	617.560
386.102	22.499	808.007	615.766
387.117	22.208	807.566	614.359
388.132	22.252	807.073	614.082
389.146	22.262	806.856	613.899
390.161	22.385	806.414	613.939
391.175	22.610	806.082	614.415
392.190	22.772	805.792	614.703
393.205	22.684	805.150	613.854
394.219	22.405	804.694	612.481
395.234	22.254	804.410	611.685
396.248	22.293	803.643	611.182
397.263	22.127	802.738	609.864
398.278	22.018	802.486	609.241
399.292	22.040	801.819	608.758
400.307	21.943	801.433	608.075
401.321	22.094	800.552	607.874
402.336	21.850	801.124	607.409
403.350	22.211	800.655	608.252
404.365	22.351	800.090	608.252
405.380	22.399	800.005	608.298
406.394	22.751	799.282	608.909
407.409	22.927	798.625	608.963
408.423	22.864	798.512	608.605
409.438	23.017	798.042	608.720
410.453	23.016	798.141	608.738
411.467	23.218	797.214	608.674
412.482	23.132	797.044	608.194
413.496	23.181	796.859	608.165
414.511	23.215	796.208	607.731
415.526	23.278	795.964	607.708
416.540	23.130	795.223	606.583
417.555	23.179	794.819	606.386
418.569	22.994	794.503	605.458
419.584	23.023	794.219	605.289
420.599	23.251	793.376	605.370
421.613	165.024	1371.344	1798.449
422.628	143.164	1455.566	1798.542
