DTS Sentinel unit serial number:	SN413079Multiplexer serial number:	ORYXHardware model number:	OX4-SRSoftware version number:	ORYX F/W v4.00 Oryx Data Collector v3.7.2.0data status	okinstallation	princeton_trtdifferential loss correction	single-endedforward channel	channel 3reverse channel	N/Adate	2019/09/12time	17:30:11forward acquisition time	60.00reverse acquisition time	0.00gamma	496.2192k internal	0.2315k external	0.2315temperature offset calibration	1.0087default loss term (dB/km)	0.3790temperature slope calibration	1.0000multiplexer offset coefficient	1.0000multiplexer slope coefficient	1.0000fibre end	0.00T internal ref (°C)	34.62T ext. ref 1 (°C)	2.86T ext. ref 2 (°C)	28.66length (m)	temperature (°C)	Stokes	anti-Stokes-747.200	800.000	0.029	-0.118
-746.185	800.000	-0.098	0.308
-745.171	-2.263	-0.107	0.076
-744.156	34.576	-0.212	0.188
-743.142	-200.000	0.001	0.191
-742.127	800.000	0.159	0.543
-741.112	62.744	-0.126	-0.128
-740.098	800.000	0.019	0.075
-739.083	89.471	0.146	0.165
-738.069	-192.473	-0.268	-0.003
-737.054	-9.113	0.237	-0.161
-736.039	-110.781	-0.423	-0.088
-735.025	43.793	-0.106	-0.098
-734.010	-73.574	-0.201	-0.074
-732.996	-40.520	-0.202	-0.106
-731.981	-187.158	-0.074	0.001
-730.966	-200.000	-0.068	-0.439
-729.952	-20.162	0.161	0.100
-728.937	-112.567	-0.198	0.040
-727.923	-147.095	-0.091	-0.008
-726.908	800.000	0.019	-0.085
-725.894	85.753	-0.080	-0.089
-724.879	-94.259	-0.272	-0.075
-723.864	174.670	-0.248	-0.363
-722.850	-84.330	-0.385	-0.123
-721.835	-120.818	0.205	-0.035
-720.821	605.529	0.088	-0.222
-719.806	-200.000	-0.043	0.200
-718.791	-200.000	-0.026	-0.331
-717.777	88.271	0.312	-0.351
-716.762	-171.798	-0.443	0.015
-715.748	-200.000	-0.036	-0.335
-714.733	87.533	-0.211	-0.236
-713.718	-93.418	-0.103	-0.029
-712.704	800.000	-0.105	0.445
-711.689	-29.105	0.298	-0.173
-710.675	800.000	-0.014	-0.048
-709.660	61.444	0.189	0.191
-708.645	419.306	-0.219	-0.475
-707.631	627.623	-0.098	-0.250
-706.616	17.873	0.297	-0.239
-705.602	87.024	-0.085	0.095
-704.587	27.952	-0.036	-0.031
-703.572	-200.000	-0.081	0.407
-702.558	-42.939	0.080	-0.041
-701.543	-7.785	0.348	-0.238
-700.529	105.583	-0.169	0.203
-699.514	124.685	0.107	0.136
-698.499	121.418	-0.099	0.125
-697.485	-163.696	-0.103	-0.005
-696.470	-77.835	0.256	0.089
-695.456	-109.818	-0.104	0.022
-694.441	800.000	0.084	-0.278
-693.426	95.614	0.094	0.108
-692.412	192.669	0.018	-0.028
-691.397	383.301	-0.022	-0.045
-690.383	-98.265	0.122	-0.032
-689.368	-156.093	-0.270	-0.017
-688.354	-105.274	-0.108	-0.025
-687.339	800.000	0.073	-0.269
-686.324	-82.221	-0.121	-0.040
-685.310	128.317	0.123	-0.158
-684.295	-17.496	0.256	-0.163
-683.281	-20.279	0.133	0.083
-682.266	176.443	-0.088	-0.129
-681.251	-27.951	0.280	0.164
-680.237	102.012	0.076	-0.090
-679.222	80.549	-0.103	-0.113
-678.208	-200.000	-0.018	-0.190
-677.193	281.254	-0.181	-0.328
-676.178	-200.000	0.009	-0.324
-675.164	46.960	0.093	0.088
-674.149	-96.490	-0.148	0.040
-673.135	-200.000	-0.066	0.362
-672.120	-200.000	0.000	-0.180
-671.105	-200.000	-0.024	0.362
-670.091	45.439	-0.252	-0.235
-669.076	-200.000	0.080	-0.521
-668.062	800.000	0.062	-0.263
-667.047	-200.000	-0.031	0.227
-666.032	-73.129	0.032	0.012
-665.018	-200.000	0.025	0.116
-664.003	765.844	0.082	0.226
-662.989	800.000	0.074	-0.240
-661.974	-33.399	-0.114	0.064
-660.959	18.008	-0.190	0.153
-659.945	-79.371	-0.112	-0.038
-658.930	-94.925	-0.056	-0.015
-657.916	52.507	-0.077	0.074
-656.901	46.536	-0.377	-0.354
-655.886	-165.450	-0.195	0.009
-654.872	-200.000	0.057	0.325
-653.857	350.273	-0.084	-0.168
-652.843	52.757	0.047	0.045
-651.828	47.165	0.018	-0.017
-650.814	115.498	0.111	-0.137
-649.799	-80.542	0.327	-0.110
-648.784	-200.000	0.006	0.121
-647.770	52.513	-0.146	-0.141
-646.755	800.000	0.089	0.351
-645.741	-84.497	0.092	0.029
-644.726	-147.924	-0.325	-0.027
-643.711	152.385	-0.252	0.347
-642.697	-32.878	-0.215	-0.121
-641.682	-191.510	0.409	-0.004
-640.668	-200.000	-0.024	-0.161
-639.653	-200.000	0.003	-0.225
-638.638	-49.334	0.235	0.113
-637.624	-200.000	-0.029	0.278
-636.609	-109.091	0.393	0.084
-635.595	800.000	-0.042	-0.124
-634.580	-96.642	0.165	-0.044
-633.565	-200.000	-0.006	-0.182
-632.551	524.955	0.027	0.065
-631.536	-59.708	-0.291	0.126
-630.522	-139.288	-0.161	-0.018
-629.507	66.891	0.080	0.082
-628.492	-88.024	0.267	0.081
-627.478	-113.383	0.210	-0.042
-626.463	-49.900	0.020	-0.010
-625.449	-200.000	-0.017	0.109
-624.434	-200.000	-0.002	-0.045
-623.419	-96.175	0.194	-0.052
-622.405	74.683	-0.141	-0.149
-621.390	102.620	-0.199	-0.235
-620.376	-200.000	-0.107	0.486
-619.361	332.417	0.162	-0.316
-618.346	-9.263	-0.199	-0.134
-617.332	34.255	-0.179	-0.158
-616.317	45.467	-0.069	0.064
-615.303	241.508	-0.091	-0.154
-614.288	800.000	0.091	0.294
-613.273	-134.218	0.060	-0.007
-612.259	249.254	-0.124	-0.211
-611.244	5.783	0.283	-0.211
-610.230	525.748	-0.038	-0.089
-609.215	-103.474	-0.200	0.047
-608.201	-21.970	-0.133	-0.082
-607.186	800.000	-0.076	-0.250
-606.171	549.167	-0.148	0.357
-605.157	-54.540	-0.564	0.257
-604.142	800.000	0.025	0.083
-603.128	1.384	0.146	-0.105
-602.113	-139.481	-0.187	-0.020
-601.098	658.710	-0.030	0.077
-600.084	-80.005	0.289	-0.098
-599.069	5.731	0.114	-0.085
-598.055	-200.000	-0.016	0.077
-597.040	9.810	-0.124	-0.095
-596.025	287.998	0.044	-0.081
-595.011	-159.864	-0.097	-0.005
-593.996	800.000	-0.008	-0.030
-592.982	14.535	-0.206	-0.162
-591.967	-200.000	0.012	-0.098
-590.952	38.839	0.145	0.131
-589.938	-200.000	-0.056	0.249
-588.923	221.735	0.031	0.050
-587.909	-44.784	0.071	-0.036
-586.894	11.708	-0.138	0.106
-585.879	-58.586	-0.239	0.104
-584.865	15.791	-0.147	-0.116
-583.850	179.540	0.165	0.243
-582.836	-30.754	-0.084	0.048
-581.821	-134.361	-0.114	0.014
-580.806	-21.639	-0.242	0.148
-579.792	-29.308	-0.235	-0.135
-578.777	-29.014	-0.193	0.111
-577.763	-33.636	0.327	0.181
-576.748	-68.734	0.247	-0.096
-575.733	-7.270	-0.178	0.122
-574.719	-18.214	0.430	0.271
-573.704	333.008	-0.125	0.244
-572.690	-6.769	0.242	-0.166
-571.675	6.488	0.192	-0.143
-570.661	236.416	0.042	-0.070
-569.646	-186.228	-0.184	-0.003
-568.631	60.248	-0.311	0.309
-567.617	55.078	-0.253	0.246
-566.602	207.618	-0.095	-0.150
-565.588	-81.007	-0.222	0.074
-564.573	-200.000	-0.302	0.001
-563.558	-8.319	0.345	0.234
-562.544	88.790	-0.081	-0.091
-561.529	-44.852	-0.051	-0.026
-560.515	519.573	-0.124	0.292
-559.500	-74.215	0.198	-0.072
-558.485	107.061	-0.079	-0.094
-557.471	-89.572	0.240	-0.071
-556.456	193.273	0.140	0.213
-555.442	-84.744	-0.410	-0.130
-554.427	800.000	-0.060	-0.169
-553.412	-167.198	-0.415	0.017
-552.398	-105.378	-0.359	0.082
-551.383	800.000	0.051	-0.187
-550.369	224.061	0.116	-0.188
-549.354	536.869	-0.049	0.117
-548.339	155.103	0.208	-0.288
-547.325	-136.563	-0.058	0.007
-546.310	-200.000	-0.060	-0.575
-545.296	-77.545	-0.168	0.058
-544.281	-200.000	-0.048	-0.223
-543.266	-0.996	0.020	-0.015
-542.252	627.727	0.088	-0.224
-541.237	-82.802	-0.169	-0.055
-540.223	-75.874	0.393	-0.140
-539.208	33.356	0.057	-0.050
-538.193	58.082	0.138	0.136
-537.179	36.700	-0.061	0.054
-536.164	81.534	-0.128	-0.140
-535.150	-155.642	-0.260	-0.017
-534.135	69.992	-0.154	0.160
-533.121	-110.562	0.200	0.042
-532.106	61.792	-0.062	-0.062
-531.091	335.498	-0.104	-0.203
-530.077	800.000	0.048	0.181
-529.062	-85.468	-0.142	0.044
-528.048	-200.000	0.055	0.300
-527.033	-200.000	-0.021	0.098
-526.018	18.458	-0.179	-0.144
-525.004	-24.914	-0.203	-0.121
-523.989	110.094	-0.236	-0.284
-522.975	-7.949	0.200	-0.136
-521.960	-127.748	0.285	-0.041
-520.945	-108.956	-0.077	0.017
-519.931	-60.978	-0.216	0.092
-518.916	800.000	0.111	0.358
-517.902	-139.567	-0.289	0.031
-516.887	179.881	-0.127	0.187
-515.872	-200.000	-0.009	0.057
-514.858	31.040	0.083	-0.072
-513.843	116.912	-0.199	0.245
-512.829	-125.824	-0.260	0.039
-511.814	800.000	-0.030	-0.125
-510.799	2.167	0.204	-0.148
-509.785	-200.000	0.008	-0.082
-508.770	-159.657	-0.278	0.015
-507.756	-68.378	0.269	0.105
-506.741	800.000	-0.061	0.176
-505.726	18.723	0.249	-0.200
-504.712	516.038	-0.097	0.227
-503.697	70.534	-0.165	0.171
-502.683	-136.076	-0.262	0.031
-501.668	800.000	0.115	0.428
-500.653	87.000	0.165	0.183
-499.639	205.194	-0.124	-0.194
-498.624	-199.716	0.119	-0.001
-497.610	-124.335	0.520	-0.081
-496.595	-61.170	-0.236	-0.100
-495.581	-152.256	0.278	-0.020
-494.566	-115.275	-0.227	0.043
-493.551	800.000	0.079	0.330
-492.537	-200.000	0.027	-0.278
-491.522	800.000	0.059	-0.238
-490.508	800.000	-0.061	0.256
-489.493	151.851	-0.122	-0.166
-488.478	98.200	-0.057	-0.066
-487.464	169.928	0.149	0.214
-486.449	-200.000	0.000	0.194
-485.435	-200.000	-0.037	-0.211
-484.420	-63.627	-0.288	-0.119
-483.405	7.936	0.137	-0.103
-482.391	-200.000	-0.021	-0.283
-481.376	579.919	0.042	0.104
-480.362	737.351	0.039	0.104
-479.347	-38.048	0.230	-0.123
-478.332	800.000	-0.039	0.129
-477.318	-106.091	-0.127	0.029
-476.303	49.068	0.447	0.421
-475.289	-106.901	0.317	0.070
-474.274	-19.923	0.194	-0.120
-473.259	-27.685	-0.116	-0.068
-472.245	225.372	-0.101	-0.165
-471.230	-17.059	-0.215	-0.136
-470.216	800.000	-0.018	-0.057
-469.201	-44.423	-0.263	-0.132
-468.186	416.966	0.045	0.096
-467.172	-23.238	0.185	0.111
-466.157	-200.000	0.033	0.198
-465.143	-154.523	-0.089	-0.006
-464.128	2.017	0.190	0.138
-463.113	-103.473	0.178	0.042
-462.099	-45.855	-0.234	0.116
-461.084	491.626	0.071	0.162
-460.070	-200.000	0.043	-0.264
-459.055	-113.852	-0.137	-0.027
-458.040	34.806	-0.369	-0.323
-457.026	800.000	0.029	0.122
-456.011	-11.221	-0.135	0.089
-454.997	608.422	0.164	-0.411
-453.982	149.893	0.169	-0.230
-452.968	292.579	0.135	0.247
-451.953	45.083	0.190	-0.176
-450.938	-73.405	-0.323	0.118
-449.924	-14.736	-0.233	-0.150
-448.909	-200.000	-0.061	-0.275
-447.895	-141.679	0.326	-0.033
-446.880	330.009	0.014	-0.027
-445.865	-200.000	0.007	0.304
-444.851	-200.000	0.019	0.130
-443.836	95.432	-0.146	-0.167
-442.822	154.396	0.106	-0.145
-441.807	34.085	-0.147	-0.128
-440.792	337.355	0.141	-0.274
-439.778	-49.283	-0.176	-0.084
-438.763	800.000	-0.038	-0.140
-437.749	-200.000	-0.075	-0.430
-436.734	800.000	0.039	-0.109
-435.719	91.341	0.103	0.115
-434.705	800.000	0.096	0.308
-433.690	110.541	0.341	0.411
-432.676	231.878	0.056	-0.092
-431.661	-200.000	0.001	-0.368
-430.646	454.107	-0.133	-0.294
-429.632	353.855	0.164	-0.326
-428.617	-200.000	0.032	-0.148
-427.603	-82.551	0.088	-0.029
-426.588	800.000	-0.074	0.301
-425.573	538.540	-0.154	-0.366
-424.559	-36.924	0.398	0.214
-423.544	-149.015	-0.162	-0.013
-422.530	163.856	-0.085	-0.120
-421.515	347.835	-0.112	0.221
-420.500	-41.913	-0.520	0.267
-419.486	-35.001	-0.244	-0.133
-418.471	40.515	-0.245	0.221
-417.457	13.861	-0.244	-0.190
-416.442	81.389	0.242	0.262
-415.428	135.504	0.233	0.303
-414.413	14.386	-0.237	0.185
-413.398	-200.000	-0.067	0.331
-412.384	-200.000	0.008	0.300
-411.369	-94.343	0.065	0.018
-410.355	432.380	0.022	0.048
-409.340	800.000	-0.021	-0.060
-408.325	800.000	-0.022	-0.074
-407.311	-200.000	-0.008	0.051
-406.296	800.000	0.038	-0.143
-405.282	59.936	0.084	0.083
-404.267	-154.181	-0.173	0.012
-403.252	-38.150	-0.015	-0.008
-402.238	297.565	0.084	-0.155
-401.223	-182.777	-0.270	0.005
-400.209	177.181	0.142	-0.207
-399.194	84.064	0.285	0.312
-398.179	-66.827	-0.220	-0.087
-397.165	-200.000	0.011	0.155
-396.150	-200.000	0.012	0.099
-395.136	464.636	-0.182	-0.407
-394.121	-35.853	0.203	-0.110
-393.106	-59.425	0.201	-0.086
-392.092	-200.000	-0.060	-0.380
-391.077	-67.092	-0.163	0.064
-390.063	-82.138	-0.097	0.032
-389.048	554.778	0.088	0.213
-388.033	314.640	0.086	-0.161
-387.019	-49.255	0.084	-0.040
-386.004	243.433	0.204	0.342
-384.990	560.895	0.032	-0.076
-383.975	-200.000	-0.016	0.080
-382.960	-69.522	0.212	0.081
-381.946	231.587	-0.219	0.359
-380.931	14.269	0.262	0.204
-379.917	-195.199	-0.078	-0.001
-378.902	-36.698	-0.179	0.096
-377.888	800.000	-0.064	-0.200
-376.873	-72.335	0.213	0.079
-375.858	-75.732	-0.076	-0.027
-374.844	-63.842	0.178	-0.073
-373.829	647.734	0.025	0.065
-372.815	671.879	-0.072	0.185
-371.800	352.211	-0.178	-0.353
-370.785	69.733	0.057	-0.058
-369.771	-200.000	0.042	0.188
-368.756	-200.000	0.003	-0.134
-367.742	-81.564	-0.236	0.077
-366.727	-56.094	-0.038	0.017
-365.712	-181.040	0.185	-0.004
-364.698	-68.996	0.242	-0.093
-363.683	-110.886	0.085	0.018
-362.669	-138.093	-0.034	-0.004
-361.654	-154.054	-0.341	-0.023
-360.639	800.000	0.075	-0.218
-359.625	-55.100	0.101	0.046
-358.610	-49.714	-0.258	0.122
-357.596	112.174	0.025	-0.030
-356.581	-200.000	-0.002	-0.258
-355.566	40.564	-0.154	-0.138
-354.552	800.000	0.045	-0.170
-353.537	800.000	-0.046	0.148
-352.523	-112.672	-0.093	0.018
-351.508	130.416	-0.182	-0.232
-350.493	-200.000	0.076	0.361
-349.479	-141.995	-0.216	0.022
-348.464	-59.968	-0.029	0.012
-347.450	-49.775	-0.165	-0.078
-346.435	-200.000	-0.022	0.155
-345.420	-85.125	0.149	-0.046
-344.406	-93.025	-0.193	-0.054
-343.391	-139.827	-0.223	-0.024
-342.377	-149.593	0.205	-0.016
-341.362	228.108	-0.114	0.185
-340.348	800.000	-0.074	-0.251
-339.333	-200.000	0.017	0.181
-338.318	108.853	-0.092	-0.110
-337.304	-109.028	-0.355	0.075
-336.289	-98.769	0.158	-0.040
-335.275	-40.792	0.094	0.048
-334.260	129.543	-0.083	0.105
-333.245	64.752	0.136	-0.137
-332.231	104.813	-0.213	-0.250
-331.216	-33.179	0.154	0.085
-330.202	-117.896	0.404	-0.072
-329.187	220.484	-0.271	-0.434
-328.172	-114.263	-0.064	-0.012
-327.158	154.054	0.043	0.059
-326.143	198.870	0.162	0.248
-325.129	-200.000	0.044	0.225
-324.114	800.000	-0.058	0.215
-323.099	-90.232	0.138	0.040
-322.085	-13.863	-0.215	0.139
-321.070	91.996	-0.123	-0.138
-320.056	-54.957	0.328	0.147
-319.041	98.871	0.292	0.336
-318.026	138.102	-0.149	0.195
-317.012	-112.900	-0.164	0.032
-315.997	221.919	0.110	-0.177
-314.983	-200.000	0.029	-0.131
-313.968	-93.635	0.346	-0.095
-312.953	-200.000	-0.002	0.171
-311.939	-200.000	-0.012	-0.359
-310.924	245.341	-0.141	-0.237
-309.910	-87.528	-0.144	0.043
-308.895	-60.580	0.251	0.106
-307.880	353.754	-0.095	-0.188
-306.866	321.875	0.176	-0.334
-305.851	-57.790	-0.141	0.062
-304.837	800.000	0.073	0.310
-303.822	-123.289	0.028	0.004
-302.807	111.477	-0.174	0.209
-301.793	800.000	0.119	-0.344
-300.778	800.000	-0.088	-0.366
-299.764	136.714	0.303	0.394
-298.749	245.202	-0.314	0.526
-297.735	240.480	-0.086	0.143
-296.720	79.513	0.103	0.111
-295.705	-200.000	-0.011	-0.078
-294.691	-200.000	-0.035	-0.213
-293.676	13.842	0.181	0.140
-292.662	-105.812	-0.387	-0.087
-291.647	800.000	-0.081	0.231
-290.632	41.416	0.229	-0.207
-289.618	-105.418	-0.034	-0.008
-288.603	-200.000	-0.072	0.366
-287.589	-200.000	0.009	0.090
-286.574	600.273	0.148	-0.367
-285.559	-200.000	0.011	0.087
-284.545	800.000	-0.014	0.057
-283.530	498.303	-0.032	0.074
-282.516	98.776	0.203	-0.234
-281.501	43.922	0.136	-0.124
-280.486	465.824	-0.096	-0.214
-279.472	-6.785	0.155	-0.105
-278.457	-19.405	-0.240	0.148
-277.443	-105.607	0.155	-0.035
-276.428	109.086	0.180	0.214
-275.413	-200.000	-0.002	0.011
-274.399	-81.859	-0.062	0.020
-273.384	-200.000	0.021	-0.110
-272.370	-55.434	-0.267	-0.119
-271.355	-14.525	0.224	-0.143
-270.340	213.658	-0.052	-0.082
-269.326	338.409	0.099	-0.192
-268.311	79.691	0.261	0.279
-267.297	531.702	-0.075	0.176
-266.282	800.000	-0.150	0.455
-265.267	64.333	0.097	0.097
-264.253	-33.420	-0.234	-0.129
-263.238	115.932	0.106	-0.129
-262.224	231.582	0.160	0.260
-261.209	63.647	-0.113	0.113
-260.195	-200.000	0.003	0.088
-259.180	-55.870	0.331	0.147
-258.165	686.142	0.043	-0.111
-257.151	446.875	0.084	-0.183
-256.136	-67.286	-0.322	0.126
-255.122	-17.261	-0.143	-0.089
-254.107	-35.423	-0.409	0.221
-253.092	71.269	0.371	0.383
-252.078	199.413	-0.050	0.077
-251.063	-124.459	0.318	-0.049
-250.049	359.698	0.048	-0.095
-249.034	-173.604	0.149	0.004
-248.019	-107.782	-0.308	0.067
-247.005	149.519	-0.104	-0.140
-245.990	143.497	0.067	0.088
-244.976	-87.307	0.111	-0.034
-243.961	30.911	-0.035	0.029
-242.946	155.225	0.117	-0.160
-241.932	20.597	-0.352	-0.283
-240.917	146.832	-0.174	0.233
-239.903	-200.000	0.018	0.411
-238.888	421.464	0.093	0.198
-237.873	369.559	-0.077	0.154
-236.859	309.163	0.026	-0.047
-235.844	-200.000	0.001	0.310
-234.830	-55.066	-0.314	-0.140
-233.815	-122.074	0.299	0.049
-232.800	800.000	-0.068	0.240
-231.786	800.000	0.104	0.370
-230.771	800.000	-0.029	0.080
-229.757	-38.937	0.189	-0.099
-228.742	211.371	0.036	-0.057
-227.727	-120.425	0.212	0.036
-226.713	314.596	0.168	0.314
-225.698	354.095	-0.092	0.182
-224.684	168.185	-0.153	-0.216
-223.669	321.472	0.084	-0.158
-222.655	447.670	0.076	0.166
-221.640	-200.000	0.032	0.204
-220.625	-90.283	0.060	0.017
-219.611	302.914	0.013	-0.023
-218.596	-116.680	-0.081	-0.015
-217.582	-200.000	-0.004	-0.078
-216.567	-52.125	-0.256	-0.118
-215.552	-189.016	0.186	-0.002
-214.538	-200.000	-0.023	-0.187
-213.523	708.283	-0.039	0.103
-212.509	-200.000	0.004	0.036
-211.494	261.270	-0.081	0.139
-210.479	623.261	0.089	-0.222
-209.465	307.516	0.057	-0.106
-208.450	-47.651	0.249	0.120
-207.436	-116.209	0.345	-0.063
-206.421	-81.965	0.089	0.029
-205.406	-55.144	0.411	-0.184
-204.392	-164.843	0.334	-0.015
-203.377	-17.350	0.260	-0.162
-202.363	-200.000	-0.000	-0.405
-201.348	15.771	-0.290	-0.226
-200.333	-200.000	0.025	0.313
-199.319	178.596	-0.059	0.086
-198.304	-58.593	0.077	-0.033
-197.290	32.927	0.129	-0.111
-196.275	-5.634	0.169	-0.115
-195.260	159.941	0.134	-0.185
-194.246	-200.000	0.009	0.101
-193.231	310.622	-0.123	0.228
-192.217	800.000	0.081	-0.234
-191.202	-110.916	0.604	-0.123
-190.187	-45.446	0.193	0.095
-189.173	70.795	0.065	0.067
-188.158	-200.000	0.001	-0.004
-187.144	707.834	0.084	-0.221
-186.129	-126.132	0.329	0.049
-185.114	-91.596	-0.106	-0.030
-184.100	-97.420	-0.272	-0.070
-183.085	-169.224	0.210	-0.008
-182.071	800.000	-0.028	0.098
-181.056	-13.738	0.130	-0.084
-180.042	-74.275	0.234	0.084
-179.027	-58.249	0.233	0.101
-178.012	119.305	-0.206	-0.253
-176.998	-200.000	0.010	-0.080
-175.983	105.633	-0.059	-0.069
-174.969	25.270	0.182	0.150
-173.954	398.743	-0.222	-0.461
-172.939	-200.000	0.010	-0.203
-171.925	176.994	-0.178	0.257
-170.910	-9.369	0.305	0.202
-169.896	800.000	-0.100	-0.300
-168.881	162.173	0.036	-0.050
-167.866	-85.904	-0.226	-0.069
-166.852	-144.476	-0.136	0.012
-165.837	29.119	-0.183	-0.154
-164.823	677.490	0.143	-0.367
-163.808	1.832	0.171	-0.122
-162.793	13.060	-0.122	0.093
-161.779	163.868	0.077	-0.107
-160.764	-200.000	0.003	0.045
-159.750	-135.962	-0.209	0.024
-158.735	-78.007	0.073	0.025
-157.720	380.558	-0.033	-0.066
-156.706	39.864	0.178	-0.159
-155.691	90.523	0.108	-0.120
-154.677	-200.000	0.081	0.413
-153.662	768.525	-0.093	-0.251
-152.647	800.000	0.040	0.115
-151.633	-200.000	0.027	-0.243
-150.618	12.540	0.210	0.160
-149.604	62.435	0.130	-0.128
-148.589	443.317	-0.181	-0.393
-147.574	104.330	-0.307	-0.357
-146.560	-92.223	0.052	0.014
-145.545	20.403	0.182	-0.146
-144.531	445.067	-0.099	-0.215
-143.516	800.000	-0.089	0.335
-142.502	279.602	0.087	-0.153
-141.487	186.669	0.109	-0.161
-140.472	265.154	-0.048	0.082
-139.458	800.000	0.097	0.361
-138.443	70.812	0.106	-0.109
-137.429	-142.912	0.354	-0.034
-136.414	199.519	0.059	0.089
-135.399	-151.055	0.135	0.010
-134.385	153.834	0.159	-0.216
-133.370	-46.521	-0.093	0.045
-132.356	-200.000	-0.054	0.251
-131.341	31.495	-0.181	0.154
-130.326	800.000	-0.047	-0.158
-129.312	800.000	-0.141	-0.453
-128.297	-111.727	0.333	-0.067
-127.283	204.823	-0.049	-0.075
-126.268	57.094	-0.099	0.095
-125.253	-161.048	0.389	0.020
-124.239	238.487	-0.176	-0.289
-123.224	-200.000	-0.011	-0.297
-122.210	-200.000	-0.039	0.222
-121.195	-8.206	0.066	0.044
-120.180	-200.000	0.070	0.324
-119.166	-200.000	-0.003	0.194
-118.151	-122.883	0.259	-0.041
-117.137	800.000	-0.024	0.096
-116.122	-200.000	-0.005	-0.090
-115.107	307.474	-0.024	-0.044
-114.093	800.000	-0.061	-0.228
-113.078	-90.903	0.300	0.085
-112.064	-39.704	0.103	0.053
-111.049	-200.000	0.015	-0.190
-110.034	-28.906	0.161	-0.092
-109.020	680.074	-0.028	-0.072
-108.005	5.101	-0.206	0.150
-106.991	800.000	-0.011	-0.046
-105.976	-143.172	0.178	-0.017
-104.962	87.843	-0.115	-0.126
-103.947	105.960	-0.191	0.223
-102.932	-45.407	-0.166	0.081
-101.918	508.204	0.117	-0.267
-100.903	-37.855	-0.227	-0.119
-99.889	256.249	-0.094	0.159
-98.874	-200.000	-0.035	0.410
-97.859	-16.769	-0.087	-0.054
-96.845	-200.000	-0.029	-0.262
-95.830	108.972	-0.047	0.055
-94.816	-160.825	-0.054	0.003
-93.801	800.000	0.052	-0.196
-92.786	66.182	0.316	0.317
-91.772	-37.276	-0.088	-0.047
-90.757	101.144	-0.221	0.254
-89.743	124.207	0.130	-0.161
-88.728	180.112	0.038	-0.055
-87.713	-9.964	0.103	0.068
-86.699	54.995	0.118	-0.113
-85.684	190.848	0.020	0.030
-84.670	207.508	0.169	-0.260
-83.655	-98.921	-0.111	-0.028
-82.640	127.802	0.119	0.150
-81.626	143.734	0.227	-0.299
-80.611	-200.000	0.010	0.119
-79.597	159.364	0.148	0.204
-78.582	31.812	0.079	-0.067
-77.567	-123.693	-0.033	-0.005
-76.553	-20.079	0.107	-0.065
-75.538	-14.660	0.313	0.199
-74.524	135.134	-0.165	-0.211
-73.509	-170.368	-0.364	0.013
-72.494	-200.000	-0.030	0.412
-71.480	46.712	-0.225	0.207
-70.465	-200.000	-0.016	-0.185
-69.451	800.000	-0.010	0.039
-68.436	-56.588	-0.334	-0.146
-67.422	-200.000	-0.006	-0.035
-66.407	-11.938	0.436	0.282
-65.392	-181.379	-0.153	-0.003
-64.378	89.499	-0.217	0.239
-63.363	800.000	0.105	-0.309
-62.349	-107.378	-0.051	0.011
-61.334	26.363	-0.933	-0.769
-60.319	-70.434	0.544	0.204
-59.305	800.000	-0.309	-0.901
-58.290	399.534	0.560	1.157
-57.276	680.411	0.591	1.518
-56.261	-200.000	96.273	582.806
-55.246	559.230	1382.166	3291.035
-54.232	155.139	2574.835	3493.253
-53.217	113.951	2173.194	2606.288
-52.203	44.901	1712.973	1555.224
-51.188	37.769	1524.611	1335.490
-50.173	35.302	1497.768	1295.288
-49.159	54.512	1548.392	1471.455
-48.144	58.036	1567.633	1513.880
-47.130	38.148	1522.840	1336.323
-46.115	34.886	1507.510	1300.676
-45.100	34.594	1504.553	1296.093
-44.086	34.720	1502.108	1294.790
-43.071	34.581	1500.900	1292.755
-42.057	34.587	1499.172	1291.252
-41.042	34.549	1498.009	1289.942
-40.027	34.598	1496.198	1288.666
-39.013	34.611	1494.807	1287.502
-37.998	34.645	1493.585	1286.627
-36.984	34.562	1492.530	1285.111
-35.969	34.631	1490.796	1284.028
-34.954	34.652	1488.635	1282.255
-33.940	34.542	1487.877	1280.818
-32.925	34.576	1486.933	1280.181
-31.911	34.583	1485.222	1278.702
-30.896	34.656	1484.314	1278.358
-29.881	34.638	1483.148	1277.187
-28.867	34.752	1481.259	1276.268
-27.852	34.658	1480.268	1274.734
-26.838	34.686	1478.711	1273.535
-25.823	34.670	1477.447	1272.285
-24.809	34.677	1475.294	1270.428
-23.794	34.649	1474.292	1269.326
-22.779	34.631	1473.342	1268.341
-21.765	34.692	1472.033	1267.572
-20.750	34.651	1470.941	1266.306
-19.736	34.690	1470.122	1265.812
-18.721	34.599	1469.247	1264.405
-17.706	34.658	1467.597	1263.323
-16.692	34.641	1466.778	1262.453
-15.677	34.658	1465.790	1261.670
-14.663	34.716	1464.341	1260.755
-13.648	34.652	1463.594	1259.640
-12.633	34.584	1463.615	1259.158
-11.619	34.589	1462.044	1257.786
-10.604	34.591	1461.045	1256.895
-9.590	34.602	1460.284	1256.263
-8.575	34.604	1459.528	1255.571
-7.560	34.549	1458.968	1254.680
-6.546	34.606	1457.716	1253.930
-5.531	34.599	1456.958	1253.179
-4.517	34.598	1455.966	1252.269
-3.502	34.672	1454.509	1251.455
-2.487	34.578	1454.103	1250.436
-1.473	34.465	1453.224	1248.893
-0.458	34.639	1451.727	1248.691
0.556	35.327	1442.266	1236.092
1.571	32.005	1415.271	1191.797
2.586	27.904	1354.698	1115.700
3.600	25.736	1273.392	1036.181
4.615	24.299	1226.836	990.234
5.629	20.457	1170.496	924.276
6.644	11.201	1084.731	810.631
7.659	4.082	1043.480	745.565
8.673	3.118	1038.211	737.116
9.688	2.900	1034.569	733.423
10.702	2.709	1033.277	731.534
11.717	2.724	1031.396	730.209
12.731	5.767	1035.008	747.220
13.746	15.132	1048.039	801.574
14.761	23.526	1058.807	850.149
15.775	26.005	1061.234	863.915
16.790	26.489	1061.216	866.142
17.804	26.416	1060.361	865.017
18.819	26.141	1059.431	862.868
19.834	26.130	1059.146	862.509
20.848	26.377	1058.339	862.954
21.863	26.521	1058.327	863.554
22.877	26.465	1057.750	862.740
23.892	26.417	1057.578	862.293
24.907	26.338	1056.388	860.872
25.921	26.234	1056.199	860.145
26.936	26.270	1055.170	859.402
27.950	26.395	1053.748	858.761
28.965	26.319	1052.666	857.446
29.980	26.205	1051.348	855.756
30.994	26.189	1050.010	854.517
32.009	26.451	1049.503	855.264
33.023	26.489	1049.140	855.074
34.038	26.322	1047.841	853.153
35.053	26.214	1047.085	851.951
36.067	26.377	1046.845	852.448
37.082	26.362	1045.841	851.483
38.096	26.331	1045.098	850.658
39.111	26.511	1044.647	851.061
40.126	26.788	1043.524	851.373
41.140	26.641	1042.080	849.429
42.155	26.248	1040.950	846.596
43.169	26.120	1039.428	844.681
44.184	25.934	1038.793	843.220
45.199	26.085	1037.817	843.061
46.213	26.030	1036.517	841.674
47.228	26.001	1035.946	841.000
48.242	26.250	1035.581	841.788
49.257	26.211	1034.652	840.778
50.271	26.352	1033.654	840.548
51.286	26.341	1033.694	840.457
52.301	26.463	1032.862	840.272
53.315	26.460	1032.105	839.566
54.330	26.355	1031.567	838.568
55.344	26.326	1030.521	837.507
56.359	26.310	1029.593	836.607
57.374	26.403	1028.700	836.237
58.388	26.137	1027.905	834.290
59.403	26.083	1027.500	833.634
60.417	25.970	1026.744	832.428
61.432	26.022	1025.707	831.753
62.447	26.014	1024.853	830.950
63.461	26.021	1024.771	830.842
64.476	26.299	1023.287	830.841
65.490	26.170	1022.752	829.744
66.505	26.158	1021.829	828.867
67.520	25.968	1021.095	827.323
68.534	26.020	1020.571	827.064
69.549	25.974	1019.725	826.098
70.563	25.775	1017.924	823.653
71.578	25.596	1017.609	822.506
72.593	25.640	1016.981	822.129
73.607	25.619	1015.495	820.757
74.622	25.548	1014.454	819.519
75.636	25.664	1013.728	819.392
76.651	25.945	1013.353	820.292
77.666	25.783	1012.205	818.555
78.680	25.699	1011.211	817.297
79.695	25.763	1010.934	817.291
80.709	25.830	1010.296	817.010
81.724	25.966	1009.464	816.879
82.739	25.950	1008.710	816.125
83.753	25.871	1008.371	815.419
84.768	26.308	1007.282	816.441
85.782	26.552	1006.949	817.201
86.797	26.744	1006.600	817.713
87.812	26.664	1005.685	816.535
88.826	26.466	1004.795	814.848
89.841	26.481	1003.833	814.063
90.855	26.576	1003.413	814.080
91.870	26.677	1002.440	813.673
92.884	26.641	1001.628	812.778
93.899	26.461	1000.871	811.287
94.914	26.432	999.784	810.202
95.928	26.519	999.444	810.245
96.943	26.535	998.381	809.382
97.957	26.162	997.136	806.635
98.972	26.113	995.483	805.010
99.987	25.876	994.798	803.328
101.001	26.025	994.355	803.563
102.016	26.291	994.238	804.582
103.030	26.238	993.204	803.437
104.045	26.288	992.053	802.657
105.060	26.218	990.761	801.231
106.074	25.880	990.106	799.134
107.089	25.868	989.701	798.682
108.103	26.399	989.109	800.482
109.118	26.353	988.392	799.631
110.133	26.144	986.727	797.290
111.147	26.114	985.801	796.337
112.162	25.937	985.021	794.856
113.176	25.744	984.024	793.133
114.191	25.849	983.042	792.733
115.206	26.075	982.326	793.080
116.220	25.689	981.412	790.573
117.235	25.696	979.966	789.371
118.249	25.786	979.580	789.383
119.264	25.733	979.030	788.638
120.279	25.671	977.840	787.339
121.293	25.616	977.147	786.472
122.308	25.674	976.844	786.409
123.322	25.665	976.190	785.776
124.337	25.721	974.915	784.924
125.352	25.579	973.536	783.126
126.366	25.118	972.494	780.214
127.381	24.865	971.271	778.062
128.395	25.412	970.919	780.089
129.410	26.199	970.457	783.063
130.424	26.431	969.690	783.379
131.439	26.308	968.848	782.096
132.454	26.249	968.037	781.120
133.468	26.254	967.022	780.253
134.483	26.141	966.266	779.084
135.497	26.197	965.711	778.809
136.512	26.312	965.463	779.035
137.527	26.353	964.530	778.394
138.541	26.512	963.837	778.449
139.556	26.537	963.078	777.874
140.570	26.345	962.927	776.858
141.585	26.422	961.602	776.050
142.600	26.592	960.801	776.064
143.614	26.638	959.639	775.252
144.629	26.659	959.044	774.792
145.643	26.710	958.585	774.573
146.658	26.751	956.812	773.249
147.673	26.630	955.914	771.940
148.687	26.421	955.201	770.403
149.702	26.358	953.819	768.952
150.716	26.286	952.789	767.748
151.731	26.113	952.162	766.441
152.746	26.344	951.165	766.551
153.760	26.501	950.671	766.750
154.775	26.480	950.481	766.440
155.789	26.635	949.509	766.244
156.804	26.772	947.907	765.460
157.819	26.602	947.288	764.178
158.833	26.567	946.772	763.545
159.848	26.744	945.645	763.313
160.862	26.922	944.828	763.334
161.877	26.635	944.200	761.555
162.892	26.553	943.510	760.587
163.906	26.652	942.709	760.288
164.921	26.651	942.006	759.650
165.935	26.593	940.404	758.048
166.950	26.720	939.534	757.809
167.964	26.769	938.302	756.957
168.979	26.697	937.622	756.039
169.994	26.547	936.498	754.441
171.008	26.354	935.730	752.952
172.023	26.533	935.229	753.226
173.037	26.674	934.625	753.261
174.052	26.551	933.116	751.467
175.067	26.353	932.497	750.081
176.081	26.295	931.654	749.094
177.096	26.464	930.892	749.116
178.110	26.574	930.000	748.787
179.125	26.357	928.805	746.862
180.140	25.966	927.660	744.261
181.154	25.952	927.527	744.030
182.169	25.979	927.428	743.999
183.183	26.322	927.148	745.122
184.198	26.660	926.629	746.032
185.213	26.519	925.964	744.851
186.227	26.453	925.244	743.932
187.242	26.432	924.887	743.493
188.256	26.644	923.950	743.546
189.271	26.584	923.390	742.784
190.286	26.777	922.730	742.977
191.300	26.585	921.405	741.059
192.315	25.937	920.208	737.381
193.329	25.102	918.889	732.846
194.344	24.773	917.473	730.308
195.359	25.437	918.146	733.492
196.373	26.304	918.445	737.202
197.388	26.553	918.284	738.025
198.402	26.513	917.516	737.178
199.417	26.572	916.590	736.612
200.432	26.491	916.561	736.191
201.446	26.378	915.701	734.976
202.461	26.026	915.059	732.969
203.475	26.147	915.048	733.386
204.490	25.770	912.929	730.092
205.504	24.597	911.250	723.936
206.519	25.052	911.005	725.521
207.534	25.947	911.502	729.474
208.548	26.036	910.932	729.316
209.563	26.414	910.606	730.514
210.577	26.563	909.489	730.156
211.592	26.118	909.447	728.263
212.607	26.593	909.309	730.003
213.621	26.659	908.587	729.625
214.636	26.562	908.074	728.758
215.650	26.649	907.168	728.318
216.665	26.665	906.356	727.664
217.680	26.617	906.065	727.173
218.694	26.661	905.855	727.116
219.709	26.495	904.729	725.483
220.723	26.181	903.413	723.108
221.738	26.219	902.932	722.811
222.753	26.571	902.480	723.791
223.767	26.436	902.018	722.816
224.782	26.482	901.754	722.726
225.796	26.830	900.719	723.222
226.811	26.924	900.243	723.151
227.826	26.508	899.048	720.471
228.840	25.683	897.726	716.066
229.855	25.430	897.318	714.671
230.869	25.581	897.048	714.991
231.884	25.443	895.722	713.325
232.899	25.478	895.326	713.085
233.913	26.261	895.976	716.646
234.928	26.390	895.249	716.512
235.942	26.364	894.611	715.835
236.957	26.323	894.185	715.269
237.972	26.094	893.148	713.471
238.986	25.985	892.371	712.357
240.001	26.085	892.002	712.392
241.015	26.166	890.840	711.724
242.030	26.167	890.348	711.270
243.045	26.424	890.206	712.107
244.059	26.366	889.599	711.330
245.074	26.555	889.392	711.844
246.088	26.570	888.574	711.185
247.103	26.192	887.784	709.006
248.117	26.260	887.336	708.853
249.132	26.931	886.675	710.892
250.147	27.197	887.069	712.185
251.161	27.112	886.477	711.316
252.176	27.295	886.126	711.687
253.190	27.434	885.308	711.508
254.205	27.343	885.051	710.885
255.220	27.578	884.665	711.431
256.234	27.631	883.918	710.972
257.249	27.583	882.765	709.795
258.263	27.348	882.408	708.532
259.278	27.359	882.095	708.260
260.293	27.433	881.563	708.057
261.307	27.505	881.204	707.986
262.322	27.452	880.581	707.219
263.336	27.344	879.425	705.810
264.351	26.655	878.828	702.593
265.366	25.757	876.549	697.237
266.380	25.330	875.530	694.712
267.395	26.147	876.296	698.419
268.409	27.055	875.901	701.551
269.424	26.942	875.222	700.511
270.439	27.155	874.971	701.070
271.453	27.295	874.374	701.067
272.468	27.254	873.751	700.349
273.482	27.213	873.696	700.083
274.497	27.473	873.158	700.591
275.512	27.347	871.772	698.933
276.526	26.789	870.637	695.823
277.541	26.958	870.201	696.061
278.555	27.201	870.102	696.851
279.570	27.042	869.438	695.648
280.585	26.920	868.662	694.497
281.599	27.053	867.969	694.393
282.614	27.079	867.950	694.413
283.628	26.618	866.988	691.821
284.643	26.124	865.954	689.051
285.657	26.577	865.858	690.642
286.672	26.679	865.271	690.500
287.687	26.182	864.032	687.560
288.701	26.354	864.411	688.454
289.716	26.880	863.905	689.991
290.730	26.492	862.849	687.614
291.745	26.408	861.758	686.364
292.760	26.029	861.431	684.604
293.774	26.119	860.774	684.364
294.789	27.004	861.183	687.983
295.803	27.679	861.512	690.742
296.818	27.743	860.650	690.233
297.833	27.821	860.421	690.285
298.847	27.659	859.045	688.506
299.862	27.097	858.285	685.717
300.876	27.363	857.733	686.219
301.891	27.767	857.544	687.528
302.906	27.776	856.997	687.065
303.920	27.287	855.885	684.273
304.935	27.115	855.154	682.982
305.949	27.574	854.865	684.412
306.964	27.638	854.583	684.366
307.979	27.565	853.697	683.324
308.993	27.581	853.276	682.986
310.008	27.837	852.875	683.565
311.022	27.997	852.592	683.876
312.037	27.766	852.077	682.538
313.052	27.522	851.488	681.092
314.066	27.287	850.725	679.543
315.081	26.599	849.256	675.745
316.095	25.785	848.149	671.771
317.110	26.342	848.270	673.884
318.125	27.306	848.680	677.744
319.139	26.899	847.504	675.229
320.154	25.841	845.346	669.519
321.168	25.233	844.868	666.825
322.183	26.034	844.906	669.770
323.197	26.862	845.279	673.081
324.212	27.271	845.066	674.369
325.227	27.393	844.669	674.445
326.241	27.610	844.141	674.764
327.256	27.342	843.597	673.280
328.270	27.243	842.918	672.310
329.285	27.112	842.338	671.306
330.300	26.962	841.608	670.110
331.314	26.677	840.980	668.500
332.329	26.925	840.003	668.580
333.343	27.368	839.688	669.899
334.358	27.557	839.553	670.428
335.373	27.570	839.154	670.100
336.387	27.496	838.628	669.348
337.402	27.844	838.284	670.289
338.416	28.004	838.058	670.637
339.431	27.974	837.369	669.918
340.446	28.077	836.634	669.647
341.460	28.249	836.551	670.151
342.475	28.105	835.571	668.782
343.489	27.927	834.924	667.552
344.504	27.894	834.870	667.328
345.519	28.276	834.451	668.329
346.533	28.415	834.016	668.430
347.548	28.363	833.891	668.080
348.562	28.445	833.039	667.637
349.577	28.419	832.609	667.141
350.592	28.324	831.890	666.159
351.606	28.288	831.513	665.669
352.621	28.313	831.002	665.292
353.635	28.275	830.333	664.557
354.650	28.192	829.863	663.824
355.665	27.799	828.973	661.626
356.679	26.728	827.184	656.263
357.694	26.590	827.007	655.565
358.708	27.387	826.661	658.117
359.723	27.113	826.448	656.899
360.738	27.446	826.110	657.773
361.752	27.970	825.836	659.389
362.767	28.058	825.505	659.383
363.781	28.258	825.601	660.123
364.796	28.658	825.130	661.131
365.810	28.752	824.482	660.892
366.825	28.853	824.219	660.983
367.840	28.705	824.402	660.540
368.854	28.659	823.504	659.597
369.869	28.193	822.414	656.993
370.883	28.030	821.794	655.854
371.898	28.220	821.067	655.898
372.913	28.125	820.477	655.028
373.927	28.056	820.134	654.449
374.942	28.144	819.472	654.179
375.956	28.310	819.002	654.339
376.971	28.327	818.598	654.019
377.986	28.495	818.030	654.107
379.000	28.753	817.748	654.742
380.015	28.705	817.121	654.012
381.029	28.760	816.100	653.331
382.044	28.428	815.790	651.847
383.059	28.634	815.556	652.331
384.073	28.624	814.993	651.788
385.088	28.671	814.503	651.506
386.102	28.763	813.929	651.315
387.117	28.472	813.241	649.678
388.132	28.415	812.348	648.706
389.146	28.122	811.915	647.265
390.161	27.696	810.962	644.941
391.175	27.735	810.913	644.985
392.190	28.241	811.122	646.883
393.205	28.320	810.641	646.718
394.219	27.408	808.660	641.870
395.234	25.571	806.431	633.576
396.248	24.863	805.032	629.931
397.263	25.893	806.249	634.457
398.278	28.027	807.045	642.536
399.292	28.321	807.248	643.675
400.307	27.978	806.318	641.672
401.321	27.909	806.175	641.258
402.336	27.976	805.937	641.246
403.350	28.303	805.518	642.003
404.365	28.729	805.751	643.625
405.380	29.101	805.447	644.628
406.394	29.261	805.106	644.861
407.409	29.531	805.126	645.762
408.423	29.333	804.527	644.533
409.438	29.361	803.640	643.865
410.453	29.302	803.473	643.468
411.467	29.415	803.108	643.512
412.482	29.505	802.244	643.077
413.496	29.443	801.402	642.129
414.511	29.469	801.478	642.222
415.526	29.388	801.501	641.904
416.540	29.448	800.680	641.397
417.555	29.400	800.379	640.934
418.569	29.135	799.458	639.217
419.584	29.171	799.029	638.942
420.599	29.039	798.772	638.225
421.613	108.905	1283.365	1445.241
422.628	93.818	1353.994	1445.368
