DTS Sentinel unit serial number:	SN413079Multiplexer serial number:	ORYXHardware model number:	OX4-SRSoftware version number:	ORYX F/W v4.00 Oryx Data Collector v3.7.2.0data status	okinstallation	princeton_trtdifferential loss correction	single-endedforward channel	channel 3reverse channel	N/Adate	2019/09/14time	18:40:34forward acquisition time	60.00reverse acquisition time	0.00gamma	496.2192k internal	0.2304k external	0.2304temperature offset calibration	1.0023default loss term (dB/km)	0.3790temperature slope calibration	1.0000multiplexer offset coefficient	1.0000multiplexer slope coefficient	1.0000fibre end	0.00T internal ref (°C)	36.28T ext. ref 1 (°C)	4.94T ext. ref 2 (°C)	30.02length (m)	temperature (°C)	Stokes	anti-Stokes-747.200	237.189	-0.118	0.198
-746.185	114.299	-0.259	0.321
-745.171	-117.078	0.332	0.062
-744.156	212.038	0.190	0.305
-743.142	-149.729	0.327	-0.026
-742.127	-200.000	0.040	0.317
-741.112	-46.627	-0.130	-0.065
-740.098	-200.000	-0.017	0.413
-739.083	-38.991	-0.169	0.091
-738.069	-164.279	0.162	-0.008
-737.054	-41.122	0.086	-0.045
-736.039	29.944	-0.253	-0.219
-735.025	282.080	0.120	0.219
-734.010	-200.000	0.068	-0.399
-732.996	800.000	0.032	0.091
-731.981	-200.000	0.059	-0.315
-730.966	74.287	-0.037	0.040
-729.952	21.308	-0.147	-0.121
-728.937	800.000	-0.061	0.260
-727.923	477.527	-0.105	0.242
-726.908	-79.149	0.211	0.073
-725.894	122.882	0.042	-0.054
-724.879	-78.088	-0.217	0.076
-723.864	91.430	-0.115	0.132
-722.850	316.346	0.200	-0.384
-721.835	-95.381	-0.189	-0.052
-720.821	-34.630	0.256	0.142
-719.806	-134.437	-0.100	-0.012
-718.791	-64.752	0.167	-0.069
-717.777	-90.590	-0.163	-0.048
-716.762	88.141	-0.104	0.118
-715.748	76.769	-0.184	0.198
-714.733	131.612	0.102	0.133
-713.718	148.565	0.054	-0.074
-712.704	0.519	0.005	0.003
-711.689	140.856	0.087	0.116
-710.675	8.800	-0.076	0.058
-709.660	2.034	0.172	-0.126
-708.645	288.632	0.181	0.333
-707.631	-200.000	-0.008	-0.214
-706.616	-200.000	-0.062	-0.303
-705.602	800.000	-0.126	-0.362
-704.587	-25.367	-0.087	-0.052
-703.572	400.440	-0.028	0.060
-702.558	9.157	-0.332	0.255
-701.543	-179.519	-0.300	0.007
-700.529	-34.916	-0.226	-0.126
-699.514	-200.000	-0.020	0.089
-698.499	-92.086	-0.222	0.064
-697.485	800.000	0.089	0.267
-696.470	-54.563	-0.272	-0.125
-695.456	716.954	0.081	-0.218
-694.441	131.841	-0.111	0.144
-693.426	800.000	0.098	0.418
-692.412	-81.641	-0.120	-0.040
-691.397	-7.461	-0.163	-0.112
-690.383	-200.000	0.008	0.357
-689.368	531.363	0.010	-0.025
-688.354	-51.512	-0.376	-0.178
-687.339	94.422	0.147	0.170
-686.324	-101.919	-0.110	-0.027
-685.310	626.099	0.058	0.148
-684.295	800.000	0.063	-0.265
-683.281	-200.000	0.054	-0.249
-682.266	-23.441	0.189	-0.115
-681.251	-119.190	-0.137	0.024
-680.237	-79.070	-0.020	-0.007
-679.222	17.340	-0.164	0.132
-678.208	-200.000	0.005	0.252
-677.193	2.471	-0.165	0.121
-676.178	-154.008	0.130	0.009
-675.164	73.284	-0.189	-0.201
-674.149	322.160	-0.121	-0.234
-673.135	447.064	-0.158	-0.354
-672.120	-179.143	-0.213	-0.005
-671.105	15.334	0.151	-0.120
-670.091	-200.000	0.039	0.256
-669.076	504.919	0.119	-0.279
-668.062	-23.825	0.178	-0.108
-667.047	-14.759	-0.277	-0.180
-666.032	-63.831	0.168	-0.070
-665.018	-46.923	-0.179	-0.089
-664.003	-200.000	0.001	0.091
-662.989	800.000	0.151	0.432
-661.974	-97.998	-0.244	0.064
-660.959	183.344	-0.088	0.132
-659.945	-101.558	-0.085	-0.021
-658.930	743.665	-0.056	-0.152
-657.916	-91.061	-0.191	-0.056
-656.901	22.296	-0.190	-0.157
-655.886	800.000	-0.062	0.233
-654.872	-46.934	-0.117	-0.058
-653.857	168.398	0.110	-0.159
-652.843	-153.320	0.411	-0.029
-651.828	3.780	0.123	0.091
-650.814	-169.707	-0.072	0.003
-649.799	-110.086	-0.421	0.089
-648.784	373.027	0.059	0.122
-647.770	39.338	0.186	0.169
-646.755	47.992	0.128	0.122
-645.741	214.333	0.113	0.181
-644.726	800.000	-0.032	0.134
-643.711	-200.000	-0.009	-0.073
-642.697	800.000	-0.126	-0.364
-641.682	-96.055	-0.059	0.016
-640.668	800.000	-0.042	0.135
-639.653	-200.000	-0.030	0.174
-638.638	-120.186	-0.287	0.050
-637.624	-24.813	-0.210	0.126
-636.609	0.832	0.312	-0.227
-635.595	-159.842	-0.217	-0.012
-634.580	-200.000	-0.026	-0.502
-633.565	800.000	-0.023	0.080
-632.551	41.837	-0.174	0.160
-631.536	-46.302	0.199	-0.099
-630.522	351.082	0.100	-0.201
-629.507	290.451	-0.053	0.098
-628.492	800.000	-0.083	0.319
-627.478	138.995	0.082	0.109
-626.463	-169.666	0.093	-0.003
-625.449	-200.000	-0.056	-0.250
-624.434	75.561	-0.189	0.202
-623.419	55.047	0.134	-0.132
-622.405	-64.514	0.190	-0.078
-621.390	-35.655	0.211	-0.116
-620.376	-109.202	-0.085	-0.018
-619.361	-79.278	-0.113	0.039
-618.346	-38.060	0.226	-0.121
-617.332	-200.000	-0.029	-0.160
-616.317	5.119	0.073	0.054
-615.303	-43.348	-0.201	-0.103
-614.288	800.000	0.071	0.229
-613.273	785.340	0.127	0.353
-612.259	800.000	0.051	-0.219
-611.244	204.758	-0.214	0.336
-610.230	-46.027	-0.379	0.189
-609.215	37.736	0.174	-0.157
-608.201	429.605	0.083	-0.183
-607.186	170.914	-0.044	0.064
-606.171	800.000	-0.029	0.120
-605.157	-92.370	-0.102	-0.029
-604.142	-91.777	-0.151	-0.043
-603.128	-200.000	-0.023	-0.180
-602.113	59.781	-0.201	0.201
-601.098	-200.000	-0.051	0.261
-600.084	800.000	-0.017	-0.060
-599.069	-74.049	0.086	-0.031
-598.055	-130.588	0.039	-0.005
-597.040	-200.000	-0.019	-0.464
-596.025	-21.898	0.039	0.024
-595.011	-179.496	0.238	-0.005
-593.996	724.699	-0.172	0.464
-592.982	-131.345	0.042	-0.006
-591.967	-200.000	-0.059	0.417
-590.952	-144.980	-0.319	0.029
-589.938	-200.000	0.014	-0.280
-588.923	-200.000	0.043	-0.208
-587.909	-40.791	0.300	-0.157
-586.894	49.704	-0.345	-0.329
-585.879	28.697	0.050	-0.043
-584.865	-92.227	-0.158	0.045
-583.850	469.470	0.025	-0.057
-582.836	-100.280	-0.254	-0.064
-581.821	503.259	0.049	0.114
-580.806	-71.707	-0.339	-0.128
-579.792	161.444	0.043	0.061
-578.777	284.288	0.048	0.087
-577.763	-30.489	-0.335	-0.192
-576.748	800.000	-0.018	0.068
-575.733	53.075	0.093	-0.090
-574.719	800.000	0.072	0.246
-573.704	-95.098	-0.182	0.050
-572.690	-200.000	-0.031	0.254
-571.675	259.973	0.154	0.268
-570.661	375.779	-0.008	-0.016
-569.646	15.179	-0.206	0.163
-568.631	254.049	0.095	0.163
-567.617	800.000	0.024	-0.107
-566.602	254.532	-0.123	0.213
-565.588	-200.000	0.042	0.251
-564.573	27.144	0.090	-0.077
-563.558	-14.521	0.321	0.208
-562.544	-200.000	-0.072	0.327
-561.529	-92.147	-0.562	0.160
-560.515	269.491	0.161	0.287
-559.500	160.823	0.257	0.363
-558.485	40.614	-0.181	-0.164
-557.471	175.544	0.279	0.409
-556.456	15.482	-0.206	-0.163
-555.442	-129.552	-0.333	0.047
-554.427	105.547	-0.298	-0.356
-553.412	800.000	-0.038	0.134
-552.398	-103.544	-0.161	0.038
-551.383	32.288	-0.164	-0.143
-550.369	-49.742	0.111	-0.053
-549.354	-200.000	-0.015	0.462
-548.339	-71.339	0.110	-0.042
-547.325	84.662	0.166	0.184
-546.310	-125.088	0.228	-0.035
-545.296	-23.552	-0.113	-0.069
-544.281	-109.085	0.273	0.059
-543.266	26.890	0.167	-0.142
-542.252	-128.583	-0.028	-0.004
-541.237	-143.825	0.382	-0.036
-540.223	-153.759	-0.287	0.020
-539.208	-122.099	-0.105	0.017
-538.193	800.000	-0.053	-0.185
-537.179	159.139	-0.181	0.255
-536.164	-200.000	0.007	0.069
-535.150	98.138	-0.082	0.095
-534.135	1.060	0.248	-0.180
-533.121	-200.000	-0.033	-0.471
-532.106	574.080	-0.197	-0.486
-531.091	800.000	-0.093	-0.374
-530.077	195.220	0.193	-0.296
-529.062	-34.440	0.097	0.054
-528.048	790.781	-0.065	0.181
-527.033	90.126	0.066	0.074
-526.018	-80.975	-0.300	-0.100
-525.004	213.249	0.139	-0.221
-523.989	314.540	0.075	0.143
-522.975	-200.000	-0.002	-0.046
-521.960	-112.638	-0.062	-0.012
-520.945	52.336	0.188	0.181
-519.931	-54.700	-0.144	-0.065
-518.916	800.000	0.074	-0.240
-517.902	-105.411	-0.186	-0.043
-516.887	-40.647	-0.317	0.166
-515.872	-131.325	-0.183	0.025
-514.858	-35.097	-0.219	0.120
-513.843	-72.234	-0.049	-0.018
-512.829	-32.552	-0.201	-0.113
-511.814	47.880	0.111	0.105
-510.799	-7.774	-0.052	-0.035
-509.785	-187.515	0.117	-0.002
-508.770	-15.705	-0.252	0.162
-507.756	687.329	0.049	0.130
-506.741	-103.777	0.122	-0.029
-505.726	800.000	0.046	0.181
-504.712	282.292	-0.140	0.253
-503.697	80.228	0.057	-0.062
-502.683	-200.000	-0.064	0.333
-501.668	-200.000	0.004	-0.053
-500.653	-2.461	-0.115	-0.081
-499.639	-93.630	-0.223	-0.062
-498.624	-200.000	-0.052	0.246
-497.610	40.815	0.061	-0.055
-496.595	-200.000	0.011	0.160
-495.581	-185.086	-0.238	0.004
-494.566	800.000	-0.010	0.035
-493.551	-87.622	0.175	-0.053
-492.537	-111.049	0.139	-0.029
-491.522	-48.013	0.171	0.083
-490.508	-200.000	0.042	-0.261
-489.493	240.278	0.029	-0.049
-488.478	-20.912	0.165	-0.102
-487.464	-66.895	-0.127	-0.051
-486.449	-60.863	0.049	-0.021
-485.435	-53.573	-0.188	0.087
-484.420	125.263	0.075	0.095
-483.405	203.270	0.230	-0.359
-482.391	77.037	-0.150	0.160
-481.376	-88.043	0.112	-0.034
-480.362	76.646	-0.115	0.122
-479.347	-58.482	0.140	-0.061
-478.332	800.000	0.086	-0.284
-477.318	28.405	-0.144	0.122
-476.303	800.000	0.157	-0.499
-475.289	-200.000	0.022	0.216
-474.274	-200.000	0.025	0.115
-473.259	-73.188	0.181	-0.067
-472.245	224.879	0.048	0.078
-471.230	-200.000	-0.060	0.391
-470.216	-200.000	0.010	-0.178
-469.201	800.000	0.004	0.011
-468.186	800.000	-0.081	-0.237
-467.172	10.415	0.394	-0.302
-466.157	201.374	0.144	-0.224
-465.143	273.165	-0.224	0.399
-464.128	-101.462	0.240	0.059
-463.113	6.409	-0.085	-0.064
-462.099	1.124	0.117	0.085
-461.084	-65.097	0.060	-0.024
-460.070	-172.530	-0.233	0.007
-459.055	-200.000	0.014	0.252
-458.040	2.418	-0.251	0.183
-457.026	-200.000	-0.001	0.438
-456.011	-180.516	-0.172	-0.004
-454.997	382.526	-0.131	-0.271
-453.982	10.634	0.213	0.163
-452.968	61.209	0.147	-0.147
-451.953	82.477	-0.143	0.156
-450.938	-200.000	-0.011	0.258
-449.924	-68.100	-0.092	-0.036
-448.909	-147.798	-0.443	0.037
-447.895	35.239	0.174	0.153
-446.880	-113.351	-0.164	0.032
-445.865	-39.420	-0.130	-0.068
-444.851	106.547	0.193	-0.231
-443.836	534.372	-0.109	-0.260
-442.822	475.024	0.125	0.284
-441.807	-200.000	-0.016	-0.217
-440.792	800.000	0.097	0.393
-439.778	74.033	-0.133	0.141
-438.763	800.000	-0.050	-0.213
-437.749	-96.481	0.402	-0.107
-436.734	14.102	-0.041	0.032
-435.719	-78.685	0.120	0.041
-434.705	101.422	-0.222	-0.261
-433.690	36.550	0.221	-0.196
-432.676	126.008	0.010	-0.012
-431.661	458.261	-0.053	0.118
-430.646	-101.777	0.248	-0.060
-429.632	-186.208	0.082	-0.001
-428.617	-200.000	-0.001	0.028
-427.603	63.685	0.088	0.089
-426.588	56.247	-0.337	0.329
-425.573	6.733	-0.079	0.059
-424.559	-200.000	0.040	-0.235
-423.544	40.350	0.050	0.045
-422.530	-107.356	0.047	-0.010
-421.515	-145.196	-0.288	-0.026
-420.500	157.283	-0.092	0.127
-419.486	-26.244	-0.141	-0.084
-418.471	419.870	-0.067	-0.145
-417.457	-113.809	0.145	0.028
-416.442	-200.000	0.016	0.162
-415.428	-141.087	0.128	0.013
-414.413	-32.486	-0.105	-0.059
-413.398	800.000	0.029	0.125
-412.384	800.000	-0.038	0.114
-411.369	800.000	0.007	0.028
-410.355	-200.000	0.014	-0.142
-409.340	-92.089	-0.307	-0.087
-408.325	130.165	-0.053	0.069
-407.311	-2.750	0.094	0.066
-406.296	343.218	0.029	0.057
-405.282	-200.000	-0.029	-0.233
-404.267	380.317	-0.122	-0.251
-403.252	-200.000	0.025	0.272
-402.238	467.568	0.082	0.184
-401.223	-200.000	0.036	-0.217
-400.209	800.000	-0.125	-0.373
-399.194	-200.000	0.002	-0.081
-398.179	-9.290	0.282	-0.189
-397.165	17.981	-0.156	-0.125
-396.150	800.000	0.080	-0.256
-395.136	-0.803	0.324	-0.230
-394.121	-200.000	-0.025	-0.116
-393.106	77.059	-0.153	0.164
-392.092	-57.141	-0.135	-0.060
-391.077	254.770	-0.116	-0.199
-390.063	-6.845	0.107	-0.073
-389.048	48.482	0.172	0.162
-388.033	-137.468	-0.291	-0.033
-387.019	800.000	-0.049	-0.160
-386.004	800.000	-0.029	0.085
-384.990	-100.895	0.379	0.093
-383.975	0.489	0.107	-0.076
-382.960	41.283	-0.154	-0.140
-381.946	29.161	0.074	-0.063
-380.931	-200.000	-0.043	-0.303
-379.917	800.000	0.076	0.235
-378.902	-61.030	0.297	0.126
-377.888	-41.087	0.138	0.072
-376.873	800.000	-0.122	-0.425
-375.858	74.421	0.222	-0.234
-374.844	-102.425	0.078	0.019
-373.829	-98.420	-0.303	0.078
-372.815	78.805	-0.156	0.167
-371.800	-93.675	0.341	0.095
-370.785	-52.491	0.039	-0.018
-369.771	-200.000	0.021	0.129
-368.756	153.111	-0.126	0.173
-367.742	212.276	-0.177	-0.280
-366.727	-131.722	-0.089	0.012
-365.712	-15.992	-0.062	-0.039
-364.698	-200.000	0.052	-0.249
-363.683	800.000	0.018	0.063
-362.669	800.000	0.069	0.264
-361.654	621.577	0.070	-0.176
-360.639	-45.009	0.093	-0.047
-359.625	96.849	-0.025	-0.029
-358.610	-113.517	-0.240	0.047
-357.596	29.636	0.171	0.146
-356.581	800.000	0.075	0.265
-355.566	507.755	0.110	-0.256
-354.552	-95.660	0.131	0.035
-353.537	132.587	0.073	-0.094
-352.523	-50.010	0.087	-0.041
-351.508	-200.000	-0.015	-0.111
-350.493	800.000	0.046	0.199
-349.479	-200.000	0.009	0.092
-348.464	134.397	0.229	-0.298
-347.450	-33.872	-0.131	-0.072
-346.435	800.000	-0.121	0.394
-345.420	65.711	-0.129	-0.131
-344.406	-95.621	0.344	-0.092
-343.391	-147.231	-0.076	-0.006
-342.377	-200.000	-0.012	-0.419
-341.362	800.000	0.027	0.116
-340.348	25.250	-0.238	0.198
-339.333	-60.062	-0.257	0.110
-338.318	140.659	-0.354	-0.468
-337.304	-105.412	0.151	-0.034
-336.289	-84.006	0.203	-0.065
-335.275	-3.254	0.176	-0.123
-334.260	95.093	0.120	0.137
-333.245	-2.235	0.154	0.109
-332.231	43.023	-0.149	-0.136
-331.216	430.695	-0.029	0.063
-330.202	-200.000	-0.015	0.174
-329.187	-200.000	-0.043	0.220
-328.172	73.317	-0.118	-0.124
-327.158	370.106	0.060	0.122
-326.143	136.407	0.156	0.204
-325.129	185.946	-0.110	-0.164
-324.114	-114.856	0.354	0.068
-323.099	21.245	0.096	0.078
-322.085	523.405	-0.087	-0.204
-321.070	-200.000	-0.004	0.147
-320.056	35.457	0.047	0.041
-319.041	134.797	0.190	-0.247
-318.026	-27.469	0.207	0.120
-317.012	122.945	0.083	0.105
-315.997	180.035	-0.227	-0.334
-314.983	5.063	-0.230	-0.169
-313.968	-4.806	0.211	0.145
-312.953	-200.000	-0.012	0.193
-311.939	-110.157	0.179	0.037
-310.924	-5.458	0.119	-0.082
-309.910	-4.171	0.170	-0.118
-308.895	-183.120	-0.114	-0.002
-307.880	-4.032	-0.118	-0.082
-306.866	-152.339	0.067	0.005
-305.851	-92.818	-0.167	-0.047
-304.837	-200.000	0.003	-0.076
-303.822	800.000	0.027	0.106
-302.807	192.950	-0.056	0.085
-301.793	800.000	-0.099	0.285
-300.778	-71.569	0.059	-0.022
-299.764	18.470	0.156	-0.125
-298.749	588.592	0.073	-0.179
-297.735	-111.704	-0.102	-0.021
-296.720	39.505	0.179	-0.161
-295.705	179.934	-0.098	0.143
-294.691	800.000	0.097	0.359
-293.676	68.226	0.054	-0.056
-292.662	800.000	-0.072	0.251
-291.647	-183.372	0.042	0.001
-290.632	68.532	0.306	-0.314
-289.618	800.000	0.038	0.116
-288.603	-94.118	0.189	-0.052
-287.589	-30.803	-0.210	0.118
-286.574	-161.701	0.310	-0.016
-285.559	-48.187	0.188	-0.091
-284.545	800.000	0.105	0.322
-283.530	65.833	-0.254	-0.257
-282.516	62.627	-0.154	-0.154
-281.501	309.354	0.135	-0.252
-280.486	107.661	0.241	-0.287
-279.472	-200.000	-0.021	-0.276
-278.457	17.328	0.344	0.273
-277.443	35.599	-0.152	0.133
-276.428	479.397	0.013	0.030
-275.413	-106.792	-0.221	0.049
-274.399	-83.921	0.190	0.061
-273.384	267.446	0.073	0.128
-272.370	-127.609	0.364	0.053
-271.355	-61.095	-0.316	-0.133
-270.340	-51.829	-0.068	-0.032
-269.326	-25.514	-0.114	-0.067
-268.311	800.000	-0.082	-0.275
-267.297	-3.634	-0.178	-0.124
-266.282	-35.430	-0.114	-0.062
-265.267	440.029	-0.101	0.219
-264.253	800.000	0.106	-0.378
-263.238	-200.000	-0.307	0.001
-262.224	-7.983	0.213	0.143
-261.209	-86.649	-0.334	0.102
-260.195	-61.911	0.167	0.070
-259.180	-200.000	-0.001	-0.022
-258.165	197.588	0.177	0.270
-257.151	-119.306	0.069	-0.012
-256.136	-71.076	-0.186	-0.070
-255.122	485.575	0.100	0.227
-254.107	800.000	-0.068	0.209
-253.092	56.441	0.297	0.289
-252.078	800.000	-0.093	0.399
-251.063	800.000	0.020	0.058
-250.049	800.000	0.154	-0.502
-249.034	139.431	-0.037	-0.049
-248.019	493.927	0.032	0.073
-247.005	316.430	0.048	0.091
-245.990	-4.275	-0.142	0.098
-244.976	569.595	0.100	-0.243
-243.961	87.184	0.140	-0.154
-242.946	154.881	-0.033	0.046
-241.932	-200.000	-0.037	-0.362
-240.917	-153.749	0.162	-0.011
-239.903	104.419	0.215	-0.253
-238.888	-84.262	-0.202	0.064
-237.873	-100.092	-0.260	0.065
-236.859	-99.472	-0.155	0.039
-235.844	-125.592	-0.279	-0.042
-234.830	-160.457	-0.172	-0.009
-233.815	-88.006	0.296	-0.089
-232.800	4.820	0.154	-0.113
-231.786	-75.433	-0.244	0.087
-230.771	-139.823	-0.048	0.005
-229.757	124.034	0.083	0.104
-228.742	39.222	-0.340	-0.304
-227.727	-23.341	0.270	0.162
-226.713	-79.733	-0.108	0.036
-225.698	-55.139	-0.444	0.199
-224.684	-200.000	0.001	0.262
-223.669	-200.000	0.031	0.379
-222.655	-87.191	0.202	0.061
-221.640	94.262	-0.073	-0.083
-220.625	672.661	-0.112	-0.289
-219.611	70.844	0.066	0.068
-218.596	-111.660	0.170	-0.034
-217.582	244.259	0.087	0.145
-216.567	-133.878	0.298	0.037
-215.552	-89.009	-0.168	-0.049
-214.538	800.000	-0.090	0.277
-213.523	-76.276	0.179	0.063
-212.509	-200.000	0.011	-0.260
-211.494	-43.055	-0.201	-0.102
-210.479	38.940	0.078	0.069
-209.465	800.000	0.087	0.309
-208.450	566.065	0.086	0.208
-207.436	286.369	0.059	0.105
-206.421	30.778	0.136	-0.116
-205.406	115.518	0.133	-0.162
-204.392	800.000	0.079	0.220
-203.377	800.000	-0.045	0.156
-202.363	514.494	-0.099	-0.231
-201.348	445.059	-0.077	-0.169
-200.333	296.439	0.078	-0.143
-199.319	-200.000	-0.020	0.430
-198.304	-55.573	0.097	-0.043
-197.290	-200.000	0.013	-0.273
-196.275	126.026	0.295	0.371
-195.260	-83.774	0.190	-0.060
-194.246	150.655	0.314	0.425
-193.231	-200.000	-0.010	0.080
-192.217	800.000	-0.094	0.362
-191.202	313.000	-0.114	0.213
-190.187	-78.612	0.164	-0.056
-189.173	-200.000	-0.017	0.074
-188.158	800.000	0.096	-0.393
-187.144	-28.018	0.248	0.143
-186.129	800.000	0.105	-0.386
-185.114	277.040	-0.150	-0.266
-184.100	-114.041	0.277	-0.053
-183.085	-64.231	0.103	0.042
-182.071	17.358	-0.167	-0.132
-181.056	-147.866	0.076	0.006
-180.042	424.906	0.103	0.221
-179.027	353.262	-0.074	0.147
-178.012	234.299	-0.199	-0.326
-176.998	318.241	0.035	-0.066
-175.983	601.769	0.260	-0.644
-174.969	-74.221	0.429	0.155
-173.954	21.764	-0.219	-0.178
-172.939	800.000	0.056	-0.163
-171.925	-35.881	0.152	0.082
-170.910	2.297	0.130	0.094
-169.896	25.911	-0.087	-0.072
-168.881	68.307	-0.054	0.055
-167.866	114.668	-0.212	-0.257
-166.852	-44.546	-0.310	-0.154
-165.837	-54.345	-0.367	-0.166
-164.823	-175.902	-0.097	0.003
-163.808	141.658	-0.011	-0.014
-162.793	-88.949	0.332	0.098
-161.779	137.993	-0.082	-0.107
-160.764	-140.031	-0.276	0.029
-159.750	85.217	-0.062	0.067
-158.735	-124.026	-0.440	-0.069
-157.720	-200.000	0.002	0.203
-156.706	800.000	-0.066	-0.224
-155.691	-100.010	0.238	-0.059
-154.677	80.469	-0.106	0.114
-153.662	234.500	0.106	0.173
-152.647	-200.000	0.057	-0.370
-151.633	-57.042	0.137	-0.060
-150.618	482.563	-0.078	0.176
-149.604	304.497	-0.076	-0.140
-148.589	-110.905	0.391	-0.080
-147.574	-123.606	-0.336	0.053
-146.560	-200.000	-0.095	0.424
-145.545	-144.750	0.148	0.013
-144.531	-200.000	-0.033	0.180
-143.516	311.269	-0.068	0.128
-142.502	-97.361	0.358	-0.093
-141.487	-91.208	-0.344	0.098
-140.472	16.139	0.148	-0.116
-139.458	90.392	-0.096	0.107
-138.443	170.094	0.085	0.121
-137.429	140.019	0.097	-0.127
-136.414	-200.000	-0.050	-0.272
-135.399	213.253	0.121	-0.190
-134.385	-200.000	-0.020	0.158
-133.370	800.000	0.086	0.280
-132.356	25.013	-0.179	-0.147
-131.341	3.442	-0.090	0.065
-130.326	-10.348	-0.160	-0.106
-129.312	-100.948	-0.303	-0.074
-128.297	-200.000	-0.028	0.143
-127.283	38.142	0.122	-0.108
-126.268	497.158	-0.064	-0.146
-125.253	-55.608	-0.226	-0.100
-124.239	-200.000	0.016	-0.079
-123.224	-200.000	0.017	0.076
-122.210	-164.009	0.281	0.013
-121.195	707.009	0.040	0.104
-120.180	-200.000	0.002	-0.043
-119.166	100.585	0.059	0.068
-118.151	-200.000	0.019	-0.104
-117.137	-101.981	0.280	0.067
-116.122	122.570	0.049	0.061
-115.107	111.048	-0.123	-0.148
-114.093	800.000	0.067	-0.234
-113.078	-80.876	0.185	0.061
-112.064	-142.071	-0.113	0.011
-111.049	-44.511	-0.247	0.123
-110.034	-179.344	0.070	0.002
-109.020	-68.502	-0.163	0.063
-108.005	4.472	0.185	0.135
-106.991	800.000	0.047	0.191
-105.976	-130.633	-0.263	0.035
-104.962	-77.005	-0.130	0.045
-103.947	-161.883	0.134	0.007
-102.932	-200.000	-0.032	0.300
-101.918	49.822	-0.136	0.127
-100.903	13.182	-0.016	0.012
-99.889	244.145	-0.050	0.083
-98.874	800.000	-0.070	0.258
-97.859	-200.000	-0.176	0.000
-96.845	-4.257	0.100	-0.068
-95.830	341.684	-0.040	0.077
-94.816	-123.293	0.275	-0.044
-93.801	136.345	0.166	-0.214
-92.786	-200.000	-0.020	0.122
-91.772	522.622	-0.209	-0.488
-90.757	-200.000	-0.039	0.185
-89.743	800.000	0.098	0.417
-88.728	-25.507	0.079	0.046
-87.713	-200.000	-0.001	0.052
-86.699	-91.131	-0.158	0.045
-85.684	162.007	0.246	0.341
-84.670	-68.118	0.304	0.117
-83.655	-19.651	-0.185	0.113
-82.640	160.519	-0.103	-0.143
-81.626	-200.000	-0.027	0.120
-80.611	375.071	0.115	0.232
-79.597	-66.104	0.106	0.042
-78.582	-200.000	-0.042	0.195
-77.567	286.572	0.172	-0.307
-76.553	-24.884	0.255	0.150
-75.538	0.003	0.163	0.115
-74.524	800.000	-0.105	0.291
-73.509	33.965	-0.225	0.194
-72.494	-105.708	-0.090	0.020
-71.480	35.104	0.125	0.108
-70.465	25.251	-0.110	-0.091
-69.451	165.513	-0.126	0.177
-68.436	418.383	0.042	0.088
-67.422	8.424	0.187	0.140
-66.407	-200.000	-0.050	-0.229
-65.392	-36.098	-0.357	-0.191
-64.378	-200.000	0.006	0.186
-63.363	193.042	-0.161	0.242
-62.349	800.000	-0.056	0.188
-61.334	70.902	-0.881	-0.904
-60.319	248.570	0.331	0.556
-59.305	379.330	-0.397	-0.806
-58.290	-200.000	0.165	1.132
-57.276	486.552	0.696	1.572
-56.261	-200.000	92.903	550.327
-55.246	622.621	1374.641	3430.125
-54.232	189.575	2581.138	3834.992
-53.217	123.657	2199.137	2734.139
-52.203	46.812	1734.583	1597.020
-51.188	39.376	1543.256	1369.342
-50.173	36.784	1515.664	1327.067
-49.159	55.145	1564.332	1497.919
-48.144	59.098	1583.510	1543.739
-47.130	39.786	1540.351	1369.392
-46.115	36.555	1524.674	1333.161
-45.100	36.327	1521.516	1328.775
-44.086	36.366	1519.092	1326.879
-43.071	36.185	1517.889	1324.530
-42.057	36.193	1515.808	1322.718
-41.042	36.137	1515.075	1321.640
-40.027	36.214	1513.505	1320.748
-39.013	36.312	1511.500	1319.610
-37.998	36.242	1509.933	1317.717
-36.984	36.239	1509.246	1317.041
-35.969	36.242	1508.187	1316.084
-34.954	36.137	1506.651	1313.980
-33.940	36.280	1505.023	1313.482
-32.925	36.310	1503.794	1312.561
-31.911	36.329	1502.459	1311.474
-30.896	36.337	1500.827	1310.047
-29.881	36.423	1499.387	1309.326
-28.867	36.279	1498.673	1307.675
-27.852	36.332	1496.710	1306.267
-26.838	36.326	1495.357	1304.993
-25.823	36.334	1493.950	1303.764
-24.809	36.252	1492.355	1301.773
-23.794	36.354	1490.686	1300.951
-22.779	36.358	1489.753	1300.112
-21.765	36.430	1488.579	1299.522
-20.750	36.344	1487.404	1297.863
-19.736	36.351	1486.311	1296.903
-18.721	36.253	1485.144	1295.176
-17.706	36.324	1483.828	1294.453
-16.692	36.277	1482.824	1293.216
-15.677	36.271	1481.810	1292.236
-14.663	36.300	1480.772	1291.472
-13.648	36.296	1479.761	1290.513
-12.633	36.282	1478.961	1289.675
-11.619	36.199	1478.018	1288.243
-10.604	36.157	1477.701	1287.633
-9.590	36.289	1476.640	1287.540
-8.575	36.256	1475.861	1286.595
-7.560	36.215	1474.683	1285.241
-6.546	36.303	1473.905	1285.095
-5.531	36.174	1473.658	1283.972
-4.517	36.242	1472.380	1283.258
-3.502	36.292	1470.892	1282.241
-2.487	36.269	1469.972	1281.239
-1.473	36.305	1469.026	1280.599
-0.458	36.274	1467.494	1279.010
0.556	35.786	1457.962	1266.489
1.571	32.396	1430.284	1220.398
2.586	28.220	1366.595	1140.003
3.600	26.106	1282.528	1057.409
4.615	24.443	1235.211	1008.915
5.629	20.875	1178.690	943.384
6.644	12.511	1093.400	832.852
7.659	5.900	1051.324	768.451
8.673	4.969	1046.127	760.043
9.688	4.994	1042.979	757.809
10.702	4.927	1041.631	756.440
11.717	4.871	1039.845	754.803
12.731	7.126	1042.383	767.523
13.746	14.819	1052.688	812.579
14.761	19.985	1059.117	842.679
15.775	19.469	1057.177	838.553
16.790	18.527	1054.636	831.892
17.804	17.355	1052.715	824.625
18.819	16.451	1050.813	818.685
19.834	16.034	1049.265	815.390
20.848	15.690	1048.462	813.033
21.863	15.487	1047.655	811.350
22.877	15.184	1046.980	809.293
23.892	15.155	1045.893	808.242
24.907	15.112	1045.149	807.390
25.921	15.018	1044.657	806.486
26.936	15.109	1043.450	805.918
27.950	15.063	1042.534	804.916
28.965	15.110	1041.454	804.237
29.980	15.202	1040.466	803.847
30.994	15.177	1039.637	803.014
32.009	15.304	1038.267	802.491
33.023	15.280	1037.938	802.051
34.038	15.348	1037.139	801.692
35.053	15.331	1036.294	800.884
36.067	15.232	1035.068	799.396
37.082	15.265	1034.090	798.727
38.096	15.200	1033.228	797.681
39.111	15.214	1032.705	797.273
40.126	15.294	1031.888	796.949
41.140	15.250	1030.599	795.677
42.155	15.092	1029.803	794.243
43.169	14.928	1028.680	792.528
44.184	14.902	1027.711	791.589
45.199	14.873	1026.592	790.521
46.213	15.067	1025.413	790.458
47.228	15.010	1024.185	789.174
48.242	15.091	1023.732	789.138
49.257	14.985	1023.328	788.255
50.271	15.235	1021.843	788.217
51.286	15.211	1021.174	787.519
52.301	15.240	1020.223	786.853
53.315	15.159	1019.645	785.954
54.330	15.131	1018.329	784.743
55.344	15.007	1017.446	783.411
56.359	15.096	1016.408	782.959
57.374	15.054	1015.899	782.303
58.388	14.996	1015.009	781.274
59.403	14.985	1014.314	780.619
60.417	14.913	1013.344	779.471
61.432	14.922	1012.607	778.874
62.447	14.878	1011.907	778.062
63.461	14.851	1011.356	777.446
64.476	14.877	1010.093	776.528
65.490	14.976	1009.101	776.153
66.505	14.761	1008.234	774.421
67.520	14.902	1007.691	774.589
68.534	14.837	1007.246	773.878
69.549	14.851	1006.347	773.182
70.563	14.882	1005.626	772.703
71.578	14.729	1005.128	771.547
72.593	14.729	1003.851	770.500
73.607	14.671	1002.843	769.388
74.622	14.695	1001.841	768.664
75.636	14.676	1000.972	767.843
76.651	14.695	1000.379	767.404
77.666	14.691	1000.125	767.123
78.680	14.853	998.707	766.709
79.695	14.845	998.045	766.099
80.709	14.795	997.890	765.681
81.724	14.898	996.902	765.327
82.739	14.880	996.076	764.544
83.753	15.001	995.537	764.615
84.768	15.020	994.823	764.087
85.782	15.112	994.299	764.036
86.797	15.437	992.819	764.310
87.812	15.340	992.807	763.793
88.826	15.262	991.644	762.476
89.841	15.057	991.269	761.188
90.855	15.146	990.181	760.687
91.870	15.210	989.593	760.459
92.884	15.258	988.800	760.000
93.899	15.293	988.151	759.595
94.914	15.215	987.706	758.832
95.928	15.263	986.641	758.163
96.943	15.260	986.222	757.759
97.957	15.237	985.134	756.756
98.972	15.127	984.682	755.845
99.987	15.190	983.711	755.318
101.001	15.226	982.555	754.524
102.016	15.305	981.548	754.039
103.030	15.146	980.736	752.633
104.045	15.284	979.717	752.406
105.060	15.256	978.898	751.584
106.074	15.263	978.121	750.953
107.089	14.952	977.346	748.900
108.103	14.886	976.350	747.771
109.118	14.877	975.398	746.937
110.133	14.903	974.523	746.317
111.147	14.924	973.487	745.554
112.162	14.807	972.603	744.286
113.176	14.841	971.909	743.842
114.191	14.970	970.867	743.553
115.206	14.971	970.409	743.141
116.220	14.941	969.557	742.287
117.235	15.098	968.600	742.188
118.249	14.943	968.042	741.008
119.264	14.951	966.741	739.981
120.279	14.983	965.848	739.375
121.293	14.923	965.210	738.553
122.308	14.817	964.597	737.553
123.322	14.859	963.686	736.974
124.337	14.792	962.559	735.754
125.352	14.722	961.754	734.764
126.366	14.806	960.363	734.005
127.381	14.746	959.268	732.842
128.395	14.862	958.009	732.323
129.410	14.880	957.343	731.828
130.424	14.957	956.368	731.355
131.439	14.838	955.981	730.476
132.454	14.893	955.326	730.150
133.468	14.937	954.401	729.570
134.483	14.947	953.834	729.114
135.497	15.036	953.035	728.829
136.512	15.091	952.377	728.498
137.527	15.174	951.471	728.100
138.541	14.961	950.476	726.353
139.556	15.077	950.056	726.471
140.570	14.986	949.240	725.385
141.585	15.142	948.391	725.349
142.600	15.262	947.913	725.438
143.614	15.278	947.204	724.901
144.629	15.348	946.288	724.437
145.643	15.263	945.345	723.285
146.658	15.399	944.879	723.450
147.673	15.170	943.727	721.519
148.687	15.055	942.984	720.393
149.702	15.104	941.936	719.737
150.716	15.144	940.874	719.036
151.731	15.011	940.044	717.766
152.746	15.025	939.350	717.233
153.760	15.069	938.684	716.852
154.775	15.034	938.074	716.170
155.789	15.081	937.156	715.607
156.804	15.203	936.307	715.417
157.819	15.217	935.730	714.972
158.833	15.275	934.511	714.227
159.848	15.234	934.530	714.004
160.862	15.469	933.492	714.144
161.877	15.327	932.963	713.074
162.892	15.232	932.053	711.913
163.906	15.059	930.808	710.166
164.921	15.160	930.223	710.084
165.935	15.159	929.147	709.195
166.950	15.151	928.380	708.511
167.964	15.208	927.412	707.954
168.979	15.203	926.530	707.197
169.994	15.167	925.317	706.056
171.008	15.068	924.735	705.132
172.023	14.994	924.255	704.391
173.037	15.218	923.675	704.829
174.052	15.337	922.465	704.344
175.067	15.302	921.953	703.742
176.081	15.234	920.921	702.609
177.096	15.140	920.272	701.657
178.110	15.108	919.218	700.657
179.125	15.265	918.419	700.643
180.140	15.144	917.853	699.644
181.154	15.290	916.796	699.384
182.169	15.405	916.322	699.443
183.183	15.345	915.880	698.791
184.198	15.353	915.745	698.658
185.213	15.478	914.762	698.367
186.227	15.433	913.823	697.403
187.242	15.487	913.136	697.042
188.256	15.363	912.921	696.302
189.271	15.505	912.172	696.255
190.286	15.621	911.027	695.801
191.300	15.480	910.586	694.821
192.315	15.318	909.104	692.957
193.329	15.067	908.901	691.706
194.344	15.206	908.266	691.736
195.359	15.135	907.782	691.013
196.373	15.261	907.311	691.112
197.388	15.402	907.027	691.414
198.402	15.506	906.554	691.422
199.417	15.586	905.830	691.137
200.432	15.616	905.496	690.943
201.446	15.706	905.063	690.920
202.461	15.703	904.782	690.634
203.475	15.751	904.046	690.210
204.490	15.749	903.512	689.733
205.504	15.791	902.235	688.868
206.519	15.631	901.717	687.755
207.534	15.685	900.797	687.213
208.548	15.578	900.054	686.150
209.563	15.633	899.625	685.989
210.577	15.653	898.981	685.518
211.592	15.662	898.109	684.828
212.607	15.722	897.892	684.846
213.621	15.873	896.971	684.698
214.636	15.786	896.664	684.047
215.650	15.871	895.650	683.562
216.665	15.811	895.311	682.997
217.680	15.862	894.870	682.805
218.694	15.917	894.109	682.390
219.709	15.953	894.093	682.461
220.723	16.091	893.178	682.263
221.738	15.924	892.688	681.154
222.753	16.133	891.584	681.094
223.767	15.922	891.031	679.757
224.782	15.932	890.199	679.104
225.796	16.103	889.523	679.217
226.811	15.989	888.911	678.231
227.826	16.086	887.996	677.864
228.840	15.965	887.314	676.797
229.855	15.851	886.908	675.969
230.869	16.150	885.727	676.209
231.884	15.930	885.837	675.348
232.899	15.921	884.868	674.515
233.913	15.900	884.478	674.076
234.928	15.915	883.593	673.401
235.942	15.873	882.678	672.474
236.957	15.883	881.871	671.840
237.972	15.864	881.561	671.469
238.986	15.929	880.602	670.941
240.001	15.813	880.157	670.080
241.015	15.943	879.246	669.842
242.030	15.987	878.534	669.415
243.045	16.044	877.964	669.147
244.059	16.057	877.340	668.665
245.074	16.085	876.943	668.416
246.088	16.035	876.601	667.898
247.103	16.132	875.988	667.755
248.117	16.033	875.348	666.815
249.132	16.217	875.040	667.251
250.147	16.344	874.144	667.011
251.161	16.588	873.347	667.306
252.176	16.595	873.017	667.021
253.190	16.505	872.477	666.195
254.205	16.573	871.469	665.633
255.220	16.675	871.235	665.797
256.234	16.529	870.452	664.568
257.249	16.793	869.405	664.746
258.263	16.680	869.158	664.052
259.278	16.656	868.885	663.693
260.293	16.786	868.108	663.550
261.307	16.670	867.562	662.619
262.322	16.699	867.505	662.631
263.336	16.777	866.615	662.197
264.351	16.881	866.113	662.162
265.366	16.875	865.099	661.304
266.380	16.970	864.475	661.139
267.395	16.724	864.474	660.122
268.409	16.855	863.456	659.795
269.424	16.742	862.783	658.782
270.439	16.718	861.881	657.943
271.453	16.725	860.970	657.216
272.468	16.659	860.612	656.628
273.482	16.664	859.589	655.810
274.497	16.574	859.542	655.368
275.512	16.669	858.780	655.096
276.526	16.837	857.574	654.767
277.541	16.678	857.031	653.680
278.555	16.716	856.345	653.245
279.570	16.838	856.479	653.762
280.585	16.884	855.560	653.180
281.599	16.901	855.028	652.780
282.614	16.985	854.461	652.614
283.628	16.857	853.815	651.571
284.643	16.984	853.152	651.492
285.657	16.884	852.890	650.853
286.672	16.876	852.270	650.292
287.687	16.818	852.046	649.838
288.701	16.833	851.378	649.331
289.716	16.806	850.702	648.653
290.730	17.067	850.067	649.109
291.745	17.034	849.497	648.493
292.760	16.915	848.845	647.482
293.774	16.998	848.242	647.282
294.789	17.332	847.764	648.132
295.803	17.253	847.019	647.207
296.818	17.052	846.087	645.672
297.833	16.927	845.243	644.496
298.847	17.057	844.936	644.696
299.862	17.072	844.457	644.333
300.876	17.181	843.585	644.025
301.891	17.037	843.015	642.986
302.906	17.296	842.260	643.335
303.920	17.390	841.801	643.281
304.935	17.230	841.491	642.383
305.949	17.271	841.101	642.183
306.964	17.379	840.130	641.792
307.979	17.207	839.528	640.628
308.993	17.491	838.869	641.138
310.008	17.223	838.608	639.872
311.022	17.476	837.778	640.133
312.037	17.472	837.425	639.793
313.052	17.390	837.050	639.142
314.066	17.252	836.283	637.982
315.081	17.229	835.228	637.034
316.095	17.040	835.399	636.398
317.110	17.140	834.948	636.372
318.125	17.257	834.075	636.091
319.139	17.225	833.750	635.666
320.154	17.219	833.061	635.060
321.168	17.228	832.726	634.784
322.183	17.353	832.055	634.683
323.197	17.242	831.598	633.865
324.212	17.297	831.187	633.699
325.227	17.362	830.670	633.492
326.241	17.379	830.113	633.073
327.256	17.404	828.807	632.113
328.270	17.251	829.070	631.691
329.285	17.342	828.100	631.233
330.300	17.305	827.677	630.719
331.314	17.467	827.033	630.770
332.329	17.325	826.528	629.805
333.343	17.424	825.655	629.451
334.358	17.689	824.747	629.682
335.373	17.560	824.767	629.166
336.387	17.558	824.333	628.769
337.402	17.696	823.618	628.677
338.416	17.698	823.309	628.393
339.431	17.644	822.847	627.787
340.446	17.692	821.985	627.251
341.460	18.019	821.344	627.907
342.475	17.858	821.252	627.190
343.489	17.908	820.691	626.890
344.504	17.915	820.171	626.462
345.519	18.058	819.329	626.289
346.533	18.017	819.074	625.889
347.548	18.023	819.003	625.800
348.562	17.615	818.269	623.690
349.577	17.806	817.419	623.685
350.592	17.596	817.283	622.759
351.606	17.721	816.783	622.779
352.621	17.694	815.797	621.875
353.635	17.735	815.701	621.897
354.650	17.752	815.357	621.639
355.665	17.802	814.797	621.342
356.679	17.787	814.205	620.781
357.694	17.850	813.832	620.670
358.708	17.861	813.318	620.261
359.723	17.860	812.700	619.734
360.738	18.048	811.872	619.729
361.752	17.954	811.822	619.296
362.767	17.937	811.371	618.833
363.781	18.025	811.065	618.865
364.796	18.072	810.484	618.536
365.810	18.290	809.823	618.767
366.825	18.232	809.438	618.209
367.840	18.295	809.359	618.319
368.854	18.248	808.963	617.792
369.869	18.286	808.656	617.641
370.883	18.171	808.232	616.846
371.898	18.320	807.173	616.520
372.913	18.252	806.960	616.060
373.927	18.383	805.923	615.684
374.942	18.218	805.645	614.823
375.956	18.242	804.834	614.238
376.971	18.369	803.923	613.943
377.986	18.520	803.705	614.264
379.000	18.541	803.253	613.939
380.015	18.430	802.734	613.091
381.029	18.567	802.261	613.165
382.044	18.468	801.796	612.402
383.059	18.475	801.259	611.962
384.073	18.456	800.561	611.307
385.088	18.644	799.963	611.467
386.102	18.538	799.210	610.461
387.117	18.382	799.000	609.691
388.132	18.384	798.612	609.347
389.146	18.449	798.348	609.322
390.161	18.417	797.727	608.679
391.175	18.413	797.502	608.441
392.190	18.449	797.310	608.369
393.205	18.520	796.521	607.964
394.219	18.446	796.300	607.481
395.234	18.467	795.563	606.939
396.248	18.410	794.760	606.072
397.263	18.284	794.516	605.385
398.278	18.339	794.382	605.423
399.292	18.366	793.442	604.750
400.307	18.463	792.999	604.699
401.321	18.390	792.453	603.973
402.336	18.399	792.496	603.983
403.350	18.343	792.223	603.524
404.365	18.421	791.924	603.520
405.380	18.516	791.604	603.557
406.394	18.623	790.810	603.273
407.409	18.590	790.311	602.724
408.423	18.892	789.820	603.355
409.438	18.942	789.359	603.124
410.453	18.824	789.072	602.438
411.467	18.889	788.964	602.532
412.482	18.867	788.346	601.927
413.496	18.936	787.680	601.610
414.511	19.003	787.294	601.495
415.526	19.037	786.837	601.211
416.540	18.967	786.817	600.900
417.555	18.863	786.351	600.128
418.569	19.065	785.667	600.254
419.584	18.931	785.279	599.439
420.599	19.087	784.734	599.514
421.613	154.336	1367.231	1787.272
422.628	133.310	1452.101	1787.431
