DTS Sentinel unit serial number:	SN413079Multiplexer serial number:	ORYXHardware model number:	OX4-SRSoftware version number:	ORYX F/W v4.00 Oryx Data Collector v3.7.2.0data status	okinstallation	princeton_trtdifferential loss correction	single-endedforward channel	channel 3reverse channel	N/Adate	2019/09/11time	00:10:11forward acquisition time	60.00reverse acquisition time	0.00gamma	496.2192k internal	0.2331k external	0.2331temperature offset calibration	0.9918default loss term (dB/km)	0.3790temperature slope calibration	1.0000multiplexer offset coefficient	1.0000multiplexer slope coefficient	1.0000fibre end	0.00T internal ref (°C)	29.36T ext. ref 1 (°C)	-0.31T ext. ref 2 (°C)	22.83length (m)	temperature (°C)	Stokes	anti-Stokes-747.200	-200.000	0.014	0.163
-746.185	314.638	-0.110	0.208
-745.171	111.249	0.234	0.284
-744.156	-110.408	-0.296	0.062
-743.142	-58.089	-0.097	-0.042
-742.127	-200.000	-0.039	0.307
-741.112	-41.659	0.342	-0.177
-740.098	-27.611	0.240	0.140
-739.083	46.274	0.280	0.261
-738.069	215.664	0.083	0.132
-737.054	-121.496	0.171	-0.029
-736.039	-73.011	-0.422	0.156
-735.025	-76.259	0.139	0.049
-734.010	311.580	-0.055	0.104
-732.996	-200.000	-0.033	-0.223
-731.981	143.290	-0.076	0.101
-730.966	-50.397	-0.085	0.040
-729.952	-108.632	-0.577	0.125
-728.937	8.976	-0.201	0.153
-727.923	-37.703	-0.285	-0.153
-726.908	104.334	0.286	-0.339
-725.894	-81.197	0.225	0.075
-724.879	800.000	0.029	0.092
-723.864	-200.000	0.078	0.563
-722.850	-134.928	-0.413	-0.050
-721.835	800.000	0.005	-0.017
-720.821	-147.989	0.166	0.014
-719.806	-200.000	0.053	-0.331
-718.791	-89.148	0.049	-0.014
-717.777	701.572	-0.022	-0.058
-716.762	800.000	-0.066	-0.236
-715.748	-112.708	0.140	0.028
-714.733	259.387	0.116	-0.200
-713.718	-163.525	-0.317	-0.015
-712.704	-70.304	-0.225	0.086
-711.689	-174.506	0.127	-0.004
-710.675	-31.201	0.245	0.139
-709.660	-200.000	-0.068	0.381
-708.645	-147.328	-0.312	0.027
-707.631	-153.185	0.279	0.020
-706.616	-79.552	-0.254	-0.086
-705.602	-66.260	0.158	0.063
-704.587	61.854	-0.122	0.122
-703.572	-49.242	0.332	-0.159
-702.558	-18.005	0.250	-0.157
-701.543	720.763	-0.052	-0.139
-700.529	-200.000	0.011	-0.229
-699.514	800.000	-0.072	0.247
-698.499	94.038	-0.154	-0.175
-697.485	-200.000	-0.017	-0.107
-696.470	-200.000	0.009	0.142
-695.456	-24.473	-0.028	-0.017
-694.441	-200.000	-0.035	0.178
-693.426	-200.000	0.007	0.159
-692.412	-10.577	-0.279	-0.185
-691.397	-56.248	-0.182	-0.081
-690.383	800.000	-0.091	-0.251
-689.368	30.216	-0.197	-0.169
-688.354	-200.000	0.013	-0.114
-687.339	-31.805	-0.017	-0.010
-686.324	-157.919	-0.221	0.013
-685.310	-51.923	0.165	-0.077
-684.295	76.962	-0.316	-0.336
-683.281	461.177	0.062	0.139
-682.266	605.070	-0.075	-0.187
-681.251	-155.525	-0.170	0.011
-680.237	-106.676	-0.206	-0.046
-679.222	214.623	-0.106	0.168
-678.208	-26.444	-0.159	-0.094
-677.193	-30.800	0.282	0.160
-676.178	6.676	-0.349	-0.260
-675.164	800.000	-0.074	-0.217
-674.149	-164.638	0.178	-0.008
-673.135	-200.000	-0.002	-0.088
-672.120	90.901	0.176	-0.198
-671.105	-158.636	0.236	-0.014
-670.091	-22.653	-0.031	-0.019
-669.076	286.984	0.138	-0.250
-668.062	-54.937	0.249	-0.113
-667.047	-200.000	-0.008	0.112
-666.032	555.841	0.090	0.216
-665.018	-32.920	-0.282	0.157
-664.003	6.939	-0.239	-0.179
-662.989	664.776	0.081	0.211
-661.974	-36.455	0.355	-0.192
-660.959	76.820	0.210	-0.224
-659.945	-98.030	0.247	0.064
-658.930	414.042	-0.073	0.155
-657.916	800.000	0.060	-0.172
-656.901	-117.496	-0.279	0.051
-655.886	-58.277	0.196	-0.086
-654.872	411.280	-0.059	-0.126
-653.857	549.354	-0.040	-0.096
-652.843	-156.062	-0.382	0.024
-651.828	800.000	-0.109	0.402
-650.814	231.605	-0.090	0.147
-649.799	-144.010	0.213	0.020
-648.784	-44.161	0.203	0.102
-647.770	800.000	0.020	0.080
-646.755	688.320	-0.050	-0.131
-645.741	-200.000	-0.099	0.489
-644.726	800.000	-0.076	0.259
-643.711	800.000	-0.091	-0.295
-642.697	443.566	-0.029	0.064
-641.682	-106.219	0.262	0.059
-640.668	-70.056	0.268	0.102
-639.653	185.719	0.139	0.207
-638.638	-15.282	-0.204	-0.131
-637.624	-200.000	0.015	0.223
-636.609	153.113	0.218	-0.299
-635.595	-200.000	0.419	-0.001
-634.580	-108.605	-0.072	0.015
-633.565	-163.603	-0.387	-0.018
-632.551	54.562	0.072	-0.069
-631.536	-98.953	-0.220	0.056
-630.522	-80.674	0.221	0.074
-629.507	174.512	0.183	-0.265
-628.492	118.184	-0.111	-0.137
-627.478	-142.102	-0.133	0.013
-626.463	-164.274	0.288	0.013
-625.449	-200.000	0.077	0.427
-624.434	-66.120	-0.467	0.187
-623.419	-200.000	-0.004	0.126
-622.405	-40.801	0.213	-0.110
-621.390	35.989	0.252	0.222
-620.376	-52.477	-0.071	0.033
-619.361	-65.127	0.084	-0.034
-618.346	-36.480	-0.098	-0.053
-617.332	157.860	-0.063	0.088
-616.317	-59.129	-0.133	0.057
-615.303	104.041	-0.088	-0.103
-614.288	-133.340	-0.167	-0.021
-613.273	90.723	0.222	-0.249
-612.259	-20.739	-0.057	0.035
-611.244	94.324	-0.162	-0.185
-610.230	-141.914	0.284	-0.028
-609.215	-168.402	-0.364	-0.014
-608.201	-72.034	-0.090	0.033
-607.186	343.838	-0.153	0.301
-606.171	-68.894	-0.166	-0.064
-605.157	94.818	0.227	-0.259
-604.142	194.415	-0.097	0.146
-603.128	411.580	-0.018	0.038
-602.113	-200.000	0.054	-0.330
-601.098	-88.537	0.111	0.033
-600.084	-113.358	0.065	-0.013
-599.069	-123.486	0.321	0.051
-598.055	-115.881	0.174	-0.032
-597.040	756.548	-0.045	-0.121
-596.025	263.695	-0.060	-0.105
-595.011	152.527	0.037	0.051
-593.996	551.938	0.167	-0.402
-592.982	29.234	-0.067	-0.057
-591.967	-78.154	0.336	0.116
-590.952	61.596	0.180	-0.179
-589.938	234.056	-0.161	-0.266
-588.923	-85.480	-0.166	-0.052
-587.909	80.497	-0.115	-0.124
-586.894	164.428	-0.215	-0.303
-585.879	-98.373	-0.304	-0.078
-584.865	176.106	-0.093	-0.136
-583.850	-200.000	-0.004	0.091
-582.836	229.797	0.057	0.093
-581.821	-200.000	0.005	-0.232
-580.806	-134.415	-0.288	0.035
-579.792	-32.239	-0.060	-0.034
-578.777	140.559	0.075	0.099
-577.763	-149.931	-0.090	0.007
-576.748	31.306	-0.075	-0.064
-575.733	-33.696	-0.233	-0.129
-574.719	79.878	-0.025	0.027
-573.704	-200.000	-0.004	0.049
-572.690	-200.000	0.027	-0.175
-571.675	69.290	-0.126	-0.130
-570.661	-152.792	-0.225	-0.016
-569.646	2.402	-0.096	0.069
-568.631	-103.038	0.089	-0.021
-567.617	-200.000	0.023	0.175
-566.602	-71.347	0.138	-0.052
-565.588	608.945	0.052	0.130
-564.573	-200.000	-0.017	0.211
-563.558	7.394	-0.197	0.147
-562.544	-112.632	-0.224	0.045
-561.529	-200.000	0.008	0.180
-560.515	-73.686	0.281	-0.102
-559.500	90.045	0.194	0.216
-558.485	-62.413	-0.375	-0.156
-557.471	-162.536	0.174	-0.009
-556.456	-200.000	-0.001	-0.105
-555.442	44.428	-0.169	0.155
-554.427	183.407	-0.051	0.075
-553.412	-200.000	0.016	0.349
-552.398	-21.789	0.213	-0.130
-551.383	41.970	0.329	0.298
-550.369	-59.774	-0.322	-0.138
-549.354	-200.000	0.012	0.207
-548.339	375.394	0.125	-0.254
-547.325	183.300	-0.172	0.254
-546.310	800.000	-0.053	0.191
-545.296	-200.000	-0.041	-0.392
-544.281	800.000	-0.029	-0.094
-543.266	53.972	-0.156	0.150
-542.252	370.229	0.066	0.134
-541.237	-97.802	-0.129	0.033
-540.223	800.000	0.083	0.296
-539.208	-93.445	0.290	0.080
-538.193	800.000	-0.072	-0.291
-537.179	-53.481	0.160	-0.073
-536.164	-46.609	-0.088	0.043
-535.150	217.272	-0.083	-0.131
-534.135	154.596	-0.090	0.124
-533.121	800.000	0.039	0.136
-532.106	-12.660	0.351	0.228
-531.091	150.278	0.135	0.183
-530.077	-81.817	-0.185	0.060
-529.062	-99.388	-0.284	-0.071
-528.048	-161.281	0.293	-0.015
-527.033	-90.419	0.146	0.042
-526.018	-200.000	0.007	0.071
-525.004	-17.562	-0.091	-0.057
-523.989	4.698	0.104	0.076
-522.975	-23.936	-0.193	0.115
-521.960	-200.000	-0.036	0.188
-520.945	-35.241	0.353	-0.192
-519.931	-94.425	0.360	-0.098
-518.916	-200.000	-0.017	-0.229
-517.902	-96.026	-0.048	-0.013
-516.887	800.000	-0.078	0.216
-515.872	158.472	-0.153	0.212
-514.858	-111.346	-0.117	0.024
-513.843	94.492	0.106	-0.120
-512.829	431.932	0.173	0.374
-511.814	39.070	0.285	0.254
-510.799	-200.000	-0.033	-0.175
-509.785	-157.587	-0.240	0.014
-508.770	800.000	0.150	0.439
-507.756	158.132	0.089	0.122
-506.741	192.497	-0.080	-0.120
-505.726	-75.425	-0.258	0.092
-504.712	-126.257	0.251	0.037
-503.697	328.529	-0.111	0.213
-502.683	-179.551	-0.305	-0.007
-501.668	-100.988	0.284	-0.069
-500.653	33.122	-0.215	-0.186
-499.639	800.000	0.041	-0.152
-498.624	-108.292	0.142	-0.031
-497.610	800.000	0.059	0.178
-496.595	154.127	0.191	-0.261
-495.581	264.393	0.093	-0.161
-494.566	686.734	0.144	-0.374
-493.551	800.000	0.069	-0.218
-492.537	186.598	-0.153	-0.227
-491.522	342.433	0.070	0.137
-490.508	-71.941	-0.276	-0.102
-489.493	-149.863	-0.183	-0.014
-488.478	285.972	0.111	-0.199
-487.464	-74.508	0.060	-0.022
-486.449	312.891	0.137	-0.257
-485.435	410.979	0.077	-0.164
-484.420	139.790	-0.110	-0.145
-483.405	140.109	-0.110	-0.144
-482.391	-200.000	0.015	-0.258
-481.376	338.547	0.189	-0.367
-480.362	-9.690	-0.260	-0.172
-479.347	-123.570	-0.112	0.018
-478.332	-97.214	0.233	-0.060
-477.318	-6.004	-0.304	-0.207
-476.303	299.547	-0.101	-0.185
-475.289	83.796	0.122	0.133
-474.274	361.009	-0.121	0.242
-473.259	108.780	0.109	0.130
-472.245	4.238	-0.350	0.255
-471.230	158.035	0.144	0.198
-470.216	548.176	0.050	0.119
-469.201	603.461	0.066	-0.163
-468.186	-200.000	0.007	-0.053
-467.172	-200.000	-0.006	-0.314
-466.157	-62.887	0.261	0.108
-465.143	-124.847	0.175	-0.027
-464.128	368.840	-0.066	0.132
-463.113	340.330	0.018	-0.034
-462.099	271.931	-0.258	0.452
-461.084	54.138	-0.157	0.151
-460.070	-73.461	-0.254	0.092
-459.055	-86.394	-0.116	-0.036
-458.040	-159.057	-0.169	0.010
-457.026	-200.000	0.005	-0.113
-456.011	-120.027	-0.041	-0.007
-454.997	800.000	-0.077	-0.322
-453.982	-200.000	0.010	0.255
-452.968	-143.569	-0.375	0.036
-451.953	800.000	-0.052	0.208
-450.938	-165.037	0.142	-0.006
-449.924	-145.848	-0.309	0.027
-448.909	-200.000	-0.049	-0.244
-447.895	22.302	0.308	-0.251
-446.880	-71.091	-0.102	0.038
-445.865	652.034	0.066	0.167
-444.851	34.716	-0.290	0.252
-443.836	-200.000	-0.020	0.178
-442.822	522.210	0.099	-0.232
-441.807	800.000	0.042	0.124
-440.792	332.943	-0.079	0.153
-439.778	83.646	0.072	0.078
-438.763	-53.694	-0.370	-0.168
-437.749	78.441	-0.055	-0.058
-436.734	-149.176	-0.057	0.005
-435.719	800.000	-0.090	0.258
-434.705	779.782	-0.099	0.270
-433.690	-96.885	0.078	0.020
-432.676	651.395	-0.035	0.089
-431.661	800.000	-0.060	0.173
-430.646	-200.000	0.009	-0.150
-429.632	-151.911	0.201	0.015
-428.617	87.277	0.044	0.048
-427.603	-15.253	0.232	-0.147
-426.588	-57.077	0.116	0.051
-425.573	194.588	0.200	-0.301
-424.559	-130.729	-0.297	0.040
-423.544	-14.858	0.146	0.093
-422.530	-91.423	-0.358	-0.102
-421.515	156.947	-0.064	0.088
-420.500	800.000	-0.042	0.139
-419.486	-200.000	0.026	0.179
-418.471	-200.000	0.018	0.247
-417.457	-70.935	0.122	0.046
-416.442	-8.482	-0.051	0.034
-415.428	270.511	0.192	-0.335
-414.413	-74.812	0.141	0.050
-413.398	-192.394	0.408	-0.004
-412.384	-200.000	0.034	-0.269
-411.369	-139.783	-0.136	0.014
-410.355	38.045	-0.339	0.299
-409.340	623.398	0.076	-0.190
-408.325	-81.491	0.329	-0.107
-407.311	11.260	-0.310	-0.235
-406.296	71.697	-0.300	0.310
-405.282	800.000	0.048	0.155
-404.267	44.643	0.282	-0.258
-403.252	-82.007	0.267	-0.087
-402.238	115.067	0.186	0.225
-401.223	204.941	-0.142	0.220
-400.209	-200.000	0.044	-0.231
-399.194	-15.364	0.078	-0.049
-398.179	-115.881	-0.166	-0.031
-397.165	-57.202	0.204	-0.089
-396.150	-200.000	0.029	0.198
-395.136	-84.968	0.068	0.021
-394.121	-200.000	-0.000	0.076
-393.106	-13.219	0.117	-0.076
-392.092	-139.013	-0.201	0.022
-391.077	112.956	0.178	0.215
-390.063	76.152	0.130	-0.137
-389.048	57.843	0.327	0.318
-388.033	467.103	0.131	0.292
-387.019	800.000	-0.099	0.358
-386.004	-156.605	0.163	-0.010
-384.990	-200.000	-0.022	0.335
-383.975	800.000	0.041	-0.133
-382.960	-182.715	-0.220	-0.004
-381.946	-181.183	-0.155	0.003
-380.931	800.000	0.089	-0.347
-379.917	78.619	0.109	0.115
-378.902	216.363	-0.004	0.007
-377.888	121.917	0.099	0.122
-376.873	-67.389	0.358	-0.139
-375.858	184.404	0.062	-0.091
-374.844	-19.003	0.316	-0.195
-373.829	-110.059	0.209	0.043
-372.815	157.668	-0.101	0.139
-371.800	29.429	0.169	0.142
-370.785	179.365	-0.171	0.249
-369.771	11.742	-0.149	-0.114
-368.756	-122.898	-0.440	-0.070
-367.742	-200.000	-0.014	0.258
-366.727	727.302	-0.061	0.160
-365.712	583.076	-0.113	0.274
-364.698	-200.000	-0.001	0.037
-363.683	-25.387	0.240	-0.141
-362.669	-146.667	-0.114	0.010
-361.654	84.481	-0.201	0.218
-360.639	98.755	0.302	0.346
-359.625	65.423	0.113	-0.114
-358.610	-200.000	0.003	-0.063
-357.596	-138.282	0.400	0.044
-356.581	148.197	0.128	0.172
-355.566	800.000	-0.052	-0.184
-354.552	20.120	0.205	-0.164
-353.537	-200.000	0.035	-0.156
-352.523	-20.049	-0.259	-0.158
-351.508	-67.119	0.252	-0.098
-350.493	-200.000	-0.010	-0.103
-349.479	80.161	0.064	0.068
-348.464	-147.244	0.126	-0.011
-347.450	55.181	0.069	0.066
-346.435	390.106	0.163	0.335
-345.420	-200.000	-0.031	0.296
-344.406	-125.699	-0.275	-0.041
-343.391	-42.937	-0.191	0.096
-342.377	-200.000	0.041	-0.187
-341.362	800.000	-0.046	-0.140
-340.348	800.000	0.088	-0.271
-339.333	-60.955	-0.176	-0.074
-338.318	31.198	0.043	-0.037
-337.304	6.123	-0.111	-0.082
-336.289	-188.336	-0.234	-0.003
-335.275	58.447	0.050	0.049
-334.260	800.000	0.136	-0.381
-333.245	-154.756	-0.306	-0.020
-332.231	-62.629	-0.132	-0.054
-331.216	25.351	0.084	-0.069
-330.202	-200.000	-0.020	-0.177
-329.187	228.683	-0.163	-0.262
-328.172	-200.000	0.021	0.174
-327.158	-200.000	0.044	-0.225
-326.143	-200.000	0.042	-0.280
-325.129	392.930	-0.090	-0.185
-324.114	178.293	0.113	0.164
-323.099	228.171	0.116	0.188
-322.085	423.782	-0.193	0.412
-321.070	-94.557	0.240	0.065
-320.056	-61.718	-0.048	-0.020
-319.041	491.935	-0.062	-0.141
-318.026	-118.802	-0.277	-0.048
-317.012	100.831	0.124	-0.142
-315.997	90.536	-0.071	-0.079
-314.983	-200.000	0.022	0.180
-313.968	800.000	0.102	0.320
-312.953	425.146	0.039	-0.083
-311.939	-19.661	-0.510	-0.312
-310.924	115.321	0.224	0.270
-309.910	-28.421	0.083	0.047
-308.895	-132.606	-0.293	0.037
-307.880	35.350	0.057	-0.049
-306.866	3.496	0.181	0.130
-305.851	408.739	0.056	-0.117
-304.837	-200.000	-0.058	0.254
-303.822	39.598	-0.186	-0.165
-302.807	-17.635	0.024	0.015
-301.793	-112.000	0.421	0.084
-300.778	-120.331	-0.316	0.053
-299.764	-66.839	-0.089	0.035
-298.749	-200.000	0.055	0.415
-297.735	-131.181	-0.137	0.018
-296.720	-38.441	0.356	-0.186
-295.705	-115.665	0.159	-0.029
-294.691	-59.771	0.170	0.072
-293.676	-58.518	-0.178	0.076
-292.662	800.000	0.128	-0.541
-291.647	-3.242	0.201	-0.138
-290.632	451.725	-0.141	0.309
-289.618	800.000	0.109	-0.402
-288.603	-110.229	0.095	-0.019
-287.589	-79.937	0.354	-0.117
-286.574	130.810	0.079	0.101
-285.559	-44.882	-0.201	0.099
-284.545	-25.404	0.077	0.045
-283.530	-159.729	-0.111	-0.006
-282.516	-137.828	-0.249	0.028
-281.501	800.000	0.110	-0.386
-280.486	-94.736	-0.098	0.026
-279.472	189.965	0.196	0.291
-278.457	-105.432	-0.206	0.046
-277.443	332.036	-0.053	0.101
-276.428	98.625	0.131	0.149
-275.413	-143.224	0.312	-0.030
-274.399	236.322	-0.075	-0.122
-273.384	-84.417	0.183	-0.057
-272.370	81.274	0.113	-0.121
-271.355	-133.688	0.231	0.029
-270.340	-113.175	0.126	-0.025
-269.326	-166.032	-0.061	0.003
-268.311	17.205	0.247	-0.194
-267.297	-46.419	0.276	-0.134
-266.282	566.972	0.104	-0.249
-265.267	-109.348	-0.203	-0.042
-264.253	450.152	-0.124	0.271
-263.238	604.932	-0.125	-0.307
-262.224	-47.612	0.130	-0.062
-261.209	-200.000	-0.039	0.187
-260.195	-9.754	0.282	-0.186
-259.180	16.516	-0.067	-0.053
-258.165	-59.894	-0.066	0.028
-257.151	221.568	-0.038	0.060
-256.136	53.604	-0.131	-0.124
-255.122	-200.000	0.001	-0.095
-254.107	1.624	-0.062	0.044
-253.092	-46.513	-0.247	-0.120
-252.078	-88.731	0.282	-0.083
-251.063	-64.517	-0.303	0.122
-250.049	-200.000	-0.026	0.142
-249.034	-200.000	-0.015	0.196
-248.019	277.993	0.062	-0.110
-247.005	3.682	0.093	0.067
-245.990	-54.315	0.212	0.095
-244.976	42.789	0.137	-0.123
-243.961	800.000	0.181	0.599
-242.946	-133.467	-0.172	0.021
-241.932	-98.413	-0.141	-0.036
-240.917	800.000	-0.052	0.156
-239.903	225.134	0.169	0.270
-238.888	5.274	0.100	-0.073
-237.873	0.884	-0.351	0.248
-236.859	-46.440	-0.275	0.133
-235.844	334.364	0.115	-0.219
-234.830	14.546	0.073	-0.056
-233.815	587.145	0.078	-0.189
-232.800	-200.000	-0.069	-0.418
-231.786	68.141	-0.147	-0.149
-230.771	-111.131	0.060	0.012
-229.757	-159.243	-0.221	-0.012
-228.742	189.022	0.049	0.072
-227.727	-106.356	0.191	-0.042
-226.713	-200.000	0.004	-0.210
-225.698	-34.221	0.395	-0.214
-224.684	800.000	0.078	-0.328
-223.669	678.109	-0.063	-0.162
-222.655	-180.279	0.139	0.003
-221.640	-161.026	0.179	-0.009
-220.625	-17.483	-0.119	-0.074
-219.611	-141.198	-0.134	0.013
-218.596	800.000	0.014	0.062
-217.582	-193.537	0.270	-0.002
-216.567	189.106	-0.067	0.100
-215.552	-141.170	0.113	-0.011
-214.538	8.590	0.140	-0.104
-213.523	213.865	0.062	-0.097
-212.509	149.884	0.103	-0.137
-211.494	199.216	-0.104	-0.157
-210.479	-200.000	-0.020	-0.149
-209.465	90.865	0.135	0.149
-208.450	-126.505	-0.054	-0.008
-207.436	-200.000	-0.003	0.114
-206.421	265.119	0.012	0.021
-205.406	3.385	-0.139	0.100
-204.392	553.899	0.073	0.173
-203.377	800.000	-0.089	-0.249
-202.363	-38.265	-0.158	-0.082
-201.348	-55.641	0.152	0.067
-200.333	-168.167	-0.131	-0.005
-199.319	29.444	0.074	-0.062
-198.304	-200.000	0.011	0.170
-197.290	64.881	-0.163	0.162
-196.275	216.455	0.206	0.322
-195.260	355.305	-0.085	-0.166
-194.246	-200.000	-0.032	0.391
-193.231	-4.620	0.198	-0.135
-192.217	-34.243	-0.100	-0.054
-191.202	139.849	-0.254	0.330
-190.187	-65.933	-0.164	0.064
-189.173	-101.120	-0.090	0.022
-188.158	-64.179	-0.145	-0.058
-187.144	407.481	-0.112	0.232
-186.129	-69.929	-0.298	0.112
-185.114	129.045	-0.273	-0.342
-184.100	183.726	0.088	0.128
-183.085	85.303	0.109	0.118
-182.071	67.988	0.197	-0.199
-181.056	361.208	-0.066	-0.130
-180.042	-15.084	-0.435	0.274
-179.027	18.196	-0.237	-0.186
-178.012	-7.201	0.169	-0.113
-176.998	234.121	-0.076	-0.123
-175.983	81.693	0.018	0.019
-174.969	-53.820	-0.133	0.060
-173.954	-61.845	0.220	-0.090
-172.939	-121.095	-0.102	-0.017
-171.925	9.679	-0.107	0.080
-170.910	-12.526	-0.270	-0.173
-169.896	-200.000	-0.011	-0.054
-168.881	-200.000	0.034	-0.214
-167.866	180.292	0.082	0.119
-166.852	-165.529	-0.223	0.010
-165.837	-29.551	0.082	-0.046
-164.823	-10.507	-0.489	-0.319
-163.808	-76.515	-0.272	0.094
-162.793	84.443	-0.044	-0.048
-161.779	133.376	0.075	0.096
-160.764	-135.324	-0.342	0.040
-159.750	355.378	0.099	-0.194
-158.735	-200.000	0.029	0.137
-157.720	-200.000	0.007	0.056
-156.706	125.497	0.237	0.294
-155.691	800.000	-0.041	-0.130
-154.677	-200.000	0.030	-0.319
-153.662	-177.095	-0.294	-0.007
-152.647	-80.523	0.263	-0.086
-151.633	800.000	0.047	-0.143
-150.618	-76.849	0.082	0.028
-149.604	153.163	-0.064	-0.087
-148.589	800.000	0.026	0.081
-147.574	56.515	0.034	0.032
-146.560	56.138	0.116	0.111
-145.545	66.575	0.201	-0.201
-144.531	398.755	0.075	-0.154
-143.516	70.219	0.181	-0.184
-142.502	-95.989	-0.201	-0.053
-141.487	-147.919	-0.113	0.009
-140.472	-119.076	-0.117	-0.020
-139.458	-49.014	-0.305	0.143
-138.443	-69.855	-0.397	-0.149
-137.429	-31.838	-0.048	0.026
-136.414	-200.000	0.009	0.045
-135.399	12.203	-0.202	0.153
-134.385	518.892	-0.097	-0.222
-133.370	264.903	-0.038	0.064
-132.356	-111.591	0.188	-0.037
-131.341	-48.704	-0.088	-0.041
-130.326	-200.000	-0.058	0.298
-129.312	-91.913	-0.136	0.038
-128.297	-105.965	0.221	-0.049
-127.283	-119.775	-0.485	-0.082
-126.268	0.766	-0.313	-0.220
-125.253	14.028	-0.433	-0.331
-124.239	79.138	0.066	0.070
-123.224	-45.398	-0.109	0.053
-122.210	184.845	0.074	0.107
-121.195	79.549	-0.093	0.098
-120.180	1.777	-0.084	-0.059
-119.166	327.084	0.105	0.197
-118.151	800.000	0.079	0.317
-117.137	80.894	-0.154	0.163
-116.122	-26.008	0.002	-0.001
-115.107	-79.419	0.334	0.111
-114.093	468.819	0.034	-0.074
-113.078	452.837	0.036	0.078
-112.064	-191.410	-0.187	0.002
-111.049	-102.706	-0.248	-0.058
-110.034	-75.671	0.140	-0.049
-109.020	800.000	0.014	-0.048
-108.005	-200.000	-0.002	0.241
-106.991	293.988	-0.135	0.243
-105.976	354.390	0.080	-0.156
-104.962	-200.000	0.027	-0.261
-103.947	-109.608	0.093	0.019
-102.932	-200.000	0.007	0.123
-101.918	-200.000	0.026	0.116
-100.903	112.393	-0.346	-0.410
-99.889	-180.561	-0.165	0.003
-98.874	800.000	0.112	0.371
-97.859	252.521	0.048	0.080
-96.845	-200.000	-0.014	-0.365
-95.830	185.356	-0.117	-0.170
-94.816	-200.000	0.065	0.377
-93.801	-61.814	0.076	0.031
-92.786	-200.000	-0.071	-0.415
-91.772	-5.564	0.018	0.012
-90.757	-159.156	-0.359	-0.020
-89.743	-153.950	-0.110	0.007
-88.728	-116.738	-0.097	-0.017
-87.713	104.171	0.107	-0.123
-86.699	80.221	0.100	0.105
-85.684	-200.000	-0.021	-0.096
-84.670	-132.005	0.055	0.007
-83.655	-73.236	-0.284	0.102
-82.640	42.124	0.070	-0.062
-81.626	42.119	0.128	-0.114
-80.611	31.933	-0.296	-0.250
-79.597	800.000	-0.032	0.096
-78.582	-101.832	0.412	-0.098
-77.567	202.721	0.182	0.276
-76.553	515.394	-0.038	-0.087
-75.538	-108.887	0.057	-0.012
-74.524	-124.201	-0.110	-0.017
-73.509	34.495	0.110	0.094
-72.494	-200.000	0.085	-0.483
-71.480	-82.814	0.240	-0.076
-70.465	161.968	-0.028	-0.038
-69.451	219.032	0.187	-0.293
-68.436	-200.000	0.043	-0.364
-67.422	-133.155	0.291	-0.036
-66.407	-200.000	-0.003	0.256
-65.392	-160.828	-0.050	0.003
-64.378	800.000	-0.121	0.356
-63.363	129.395	0.306	-0.383
-62.349	800.000	0.066	-0.233
-61.334	14.301	-1.118	-0.854
-60.319	110.303	0.526	0.619
-59.305	800.000	-0.281	-1.015
-58.290	193.642	0.745	1.104
-57.276	267.358	0.868	1.488
-56.261	-200.000	106.919	621.907
-55.246	519.802	1508.424	3462.422
-54.232	177.192	2696.897	3845.409
-53.217	110.498	2177.904	2563.949
-52.203	39.989	1701.673	1497.085
-51.188	32.581	1514.221	1281.936
-50.173	30.251	1488.041	1244.118
-49.159	51.054	1544.218	1433.890
-48.144	51.091	1561.145	1449.803
-47.130	32.640	1517.089	1284.567
-46.115	29.610	1502.196	1251.416
-45.100	29.463	1498.779	1247.527
-44.086	29.416	1496.619	1245.360
-43.071	29.438	1494.523	1243.716
-42.057	29.349	1492.782	1241.617
-41.042	29.355	1491.221	1240.308
-40.027	29.489	1489.886	1240.052
-39.013	29.324	1488.333	1237.599
-37.998	29.329	1486.876	1236.376
-36.984	29.233	1486.345	1235.237
-35.969	29.361	1484.136	1234.210
-34.954	29.289	1483.175	1232.883
-33.940	29.237	1481.739	1231.291
-32.925	29.359	1480.258	1230.826
-31.911	29.410	1479.211	1230.249
-30.896	29.499	1477.804	1229.622
-29.881	29.529	1476.286	1228.508
-28.867	29.489	1475.421	1227.478
-27.852	29.372	1474.436	1225.830
-26.838	29.545	1472.195	1225.062
-25.823	29.416	1471.468	1223.558
-24.809	29.421	1469.588	1221.977
-23.794	29.459	1468.169	1220.999
-22.779	29.447	1466.980	1219.886
-21.765	29.358	1466.377	1218.748
-20.750	29.414	1464.937	1217.873
-19.736	29.468	1463.537	1217.017
-18.721	29.375	1462.533	1215.519
-17.706	29.366	1461.390	1214.459
-16.692	29.343	1460.969	1213.914
-15.677	29.358	1459.253	1212.536
-14.663	29.358	1458.660	1211.995
-13.648	29.301	1457.959	1210.992
-12.633	29.318	1456.827	1210.111
-11.619	29.268	1456.119	1209.150
-10.604	29.294	1454.649	1208.053
-9.590	29.289	1454.059	1207.479
-8.575	29.405	1452.830	1207.175
-7.560	29.341	1452.465	1206.400
-6.546	29.301	1451.498	1205.287
-5.531	29.181	1451.237	1204.237
-4.517	29.279	1449.810	1203.647
-3.502	29.453	1448.320	1203.496
-2.487	29.380	1447.252	1202.088
-1.473	29.287	1446.558	1200.860
-0.458	29.273	1445.180	1199.577
0.556	27.005	1435.858	1188.666
1.571	24.093	1409.987	1148.393
2.586	20.687	1349.909	1078.294
3.600	19.189	1268.640	1004.555
4.615	18.164	1224.457	963.711
5.629	15.669	1169.665	907.063
6.644	7.566	1086.013	801.370
7.659	0.745	1046.769	739.081
8.673	-0.116	1040.674	730.526
9.688	-0.321	1037.839	727.478
10.702	-0.341	1035.729	725.841
11.717	-0.442	1033.494	723.723
12.731	2.535	1036.817	740.389
13.746	11.231	1049.481	791.766
14.761	18.106	1058.767	832.288
15.775	19.821	1059.899	841.453
16.790	19.925	1059.499	841.564
17.804	19.822	1058.623	840.296
18.819	19.732	1057.333	838.760
19.834	19.830	1057.323	839.153
20.848	19.811	1056.427	838.278
21.863	19.911	1055.752	838.148
22.877	19.924	1055.664	838.072
23.892	19.765	1055.319	836.952
24.907	19.848	1054.265	836.444
25.921	19.777	1053.530	835.442
26.936	19.891	1053.200	835.657
27.950	19.890	1051.679	834.375
28.965	19.885	1050.131	833.046
29.980	19.566	1049.066	830.595
30.994	19.710	1046.967	829.549
32.009	19.885	1046.691	830.097
33.023	19.985	1045.917	829.890
34.038	19.749	1044.689	827.709
35.053	19.654	1043.821	826.497
36.067	19.834	1043.100	826.711
37.082	19.882	1042.374	826.292
38.096	19.909	1041.779	825.877
39.111	19.971	1041.339	825.750
40.126	20.210	1039.834	825.622
41.140	20.185	1038.417	824.308
42.155	19.966	1036.872	821.966
43.169	19.563	1035.570	818.952
44.184	19.536	1034.852	818.184
45.199	19.687	1033.736	817.943
46.213	19.543	1032.507	816.217
47.228	19.504	1031.834	815.429
48.242	19.561	1031.033	814.991
49.257	19.609	1030.279	814.550
50.271	19.732	1029.158	814.171
51.286	19.979	1028.188	814.496
52.301	19.865	1027.794	813.576
53.315	19.929	1026.772	812.994
54.330	19.818	1026.260	811.996
55.344	19.803	1025.275	811.075
56.359	19.911	1023.907	810.426
57.374	19.771	1023.276	809.201
58.388	19.693	1022.629	808.251
59.403	19.662	1021.787	807.368
60.417	19.664	1021.086	806.755
61.432	19.532	1019.762	805.022
62.447	19.537	1019.434	804.713
63.461	19.779	1018.644	805.148
64.476	19.758	1018.307	804.712
65.490	19.744	1017.018	803.557
66.505	19.594	1015.899	801.905
67.520	19.656	1014.739	801.204
68.534	19.694	1014.496	801.117
69.549	19.642	1013.603	800.102
70.563	19.159	1012.720	797.101
71.578	19.269	1011.298	796.418
72.593	19.390	1010.756	796.481
73.607	19.368	1008.895	794.839
74.622	19.226	1008.413	793.734
75.636	19.492	1007.751	794.370
76.651	19.581	1007.050	794.157
77.666	19.549	1005.732	792.901
78.680	19.339	1005.147	791.403
79.695	19.380	1004.850	791.291
80.709	19.584	1004.153	791.606
81.724	19.504	1003.712	790.820
82.739	19.590	1002.182	789.938
83.753	19.580	1001.749	789.483
84.768	19.766	1001.128	789.770
85.782	20.015	1000.154	790.069
86.797	20.230	999.421	790.403
87.812	20.144	998.239	789.005
88.826	19.968	997.423	787.491
89.841	20.077	996.465	787.159
90.855	20.258	995.552	787.189
91.870	20.039	995.448	786.045
92.884	20.027	994.151	784.895
93.899	20.009	993.064	783.885
94.914	19.912	992.297	782.774
95.928	20.105	991.527	782.967
96.943	20.111	990.717	782.287
97.957	19.856	989.785	780.332
98.972	19.594	988.513	778.078
99.987	19.375	987.639	776.338
101.001	19.418	987.096	776.034
102.016	19.705	986.623	776.884
103.030	19.924	984.711	776.291
104.045	19.703	983.913	774.603
105.060	19.535	982.740	772.859
106.074	19.484	981.070	771.253
107.089	19.428	980.783	770.709
108.103	19.851	980.642	772.419
109.118	20.004	979.423	772.069
110.133	19.640	978.410	769.584
111.147	19.732	976.941	768.768
112.162	19.672	975.917	767.626
113.176	19.297	975.293	765.403
114.191	19.482	974.208	765.307
115.206	19.513	973.513	764.830
116.220	19.370	972.013	762.952
117.235	19.161	971.411	761.487
118.249	19.371	970.516	761.646
119.264	19.418	969.224	760.770
120.279	19.155	968.758	759.180
121.293	19.155	968.268	758.729
122.308	19.420	967.418	759.159
123.322	19.344	966.586	758.105
124.337	19.314	965.354	756.942
125.352	19.213	964.016	755.380
126.366	18.945	962.050	752.604
127.381	18.547	960.958	749.941
128.395	19.124	960.823	752.291
129.410	19.777	960.098	754.505
130.424	19.841	959.342	754.125
131.439	19.989	957.966	753.620
132.454	19.820	957.028	752.081
133.468	19.738	956.617	751.336
134.483	19.730	955.605	750.439
135.497	19.795	954.922	750.120
136.512	20.069	954.152	750.635
137.527	20.187	952.977	750.155
138.541	20.096	952.111	749.014
139.556	20.048	951.874	748.553
140.570	19.951	951.178	747.519
141.585	20.080	950.057	747.132
142.600	20.002	949.535	746.316
143.614	20.019	948.481	745.496
144.629	20.005	948.161	745.121
145.643	20.198	947.202	745.129
146.658	20.218	945.940	744.154
147.673	19.951	944.803	742.052
148.687	20.005	943.784	741.418
149.702	19.895	942.413	739.802
150.716	19.913	941.521	739.116
151.731	19.675	940.783	737.455
152.746	19.852	940.459	737.892
153.760	20.152	939.605	738.433
154.775	20.272	939.001	738.402
155.789	20.126	938.297	737.166
156.804	20.079	936.858	735.769
157.819	20.150	935.656	735.062
158.833	20.156	934.705	734.274
159.848	20.265	933.908	734.042
160.862	20.241	933.598	733.634
161.877	20.077	932.527	732.034
162.892	20.075	931.682	731.296
163.906	20.272	930.738	731.324
164.921	20.316	929.972	730.842
165.935	20.160	928.757	729.165
166.950	20.239	927.321	728.304
167.964	20.167	926.960	727.656
168.979	20.151	925.804	726.617
169.994	20.149	924.522	725.538
171.008	19.931	923.969	724.127
172.023	20.185	922.915	724.299
173.037	20.244	922.195	723.918
174.052	20.060	921.195	722.300
175.067	19.820	919.978	720.281
176.081	20.019	919.259	720.485
177.096	20.084	918.517	720.109
178.110	20.083	917.517	719.259
179.125	19.728	916.710	717.088
180.140	19.726	915.082	715.742
181.154	19.768	914.583	715.464
182.169	19.841	914.247	715.441
183.183	19.988	913.813	715.642
184.198	20.240	913.184	716.128
185.213	20.262	912.243	715.418
186.227	20.087	911.758	714.251
187.242	20.258	911.193	714.453
188.256	20.309	910.202	713.819
189.271	20.144	909.934	712.870
190.286	20.375	908.891	712.937
191.300	20.203	907.844	711.350
192.315	19.708	906.794	708.434
193.329	19.148	905.081	704.742
194.344	18.712	904.051	702.095
195.359	19.282	904.775	704.926
196.373	20.047	904.802	708.012
197.388	20.342	904.142	708.640
198.402	20.070	903.594	707.035
199.417	19.941	903.084	706.050
200.432	20.115	902.217	706.016
201.446	19.893	901.720	704.661
202.461	19.593	900.925	702.758
203.475	19.587	900.415	702.273
204.490	19.146	898.751	699.122
205.504	18.161	896.541	693.349
206.519	18.598	896.533	695.053
207.534	19.614	897.075	699.529
208.548	19.737	895.994	699.123
209.563	19.894	896.515	700.100
210.577	20.045	895.508	699.866
211.592	19.805	894.718	698.214
212.607	20.152	894.729	699.562
213.621	20.245	893.981	699.293
214.636	20.253	893.167	698.624
215.650	20.428	892.476	698.726
216.665	20.088	892.593	697.387
217.680	20.207	892.067	697.394
218.694	20.414	891.056	697.373
219.709	19.989	889.734	694.571
220.723	19.760	888.840	692.896
221.738	19.929	888.453	693.210
222.753	20.226	887.753	693.789
223.767	19.999	887.506	692.629
224.782	19.977	886.980	692.071
225.796	20.035	886.009	691.482
226.811	20.286	885.707	692.185
227.826	19.851	884.217	689.228
228.840	19.327	882.651	685.862
229.855	19.170	881.953	684.634
230.869	19.408	881.579	685.228
231.884	19.093	880.697	683.234
232.899	19.173	880.102	683.029
233.913	19.860	880.558	686.048
234.928	20.202	879.821	686.767
235.942	19.977	879.126	685.273
236.957	20.057	878.498	685.038
237.972	19.739	877.543	682.979
238.986	19.678	876.766	682.070
240.001	19.656	876.489	681.707
241.015	19.690	875.883	681.310
242.030	19.839	874.928	681.094
243.045	20.020	874.240	681.211
244.059	20.076	874.162	681.309
245.074	20.138	873.729	681.155
246.088	20.226	872.639	680.591
247.103	19.876	871.280	678.098
248.117	19.831	870.730	677.436
249.132	20.426	870.823	679.780
250.147	20.624	870.768	680.451
251.161	20.683	869.739	679.817
252.176	20.854	869.225	680.022
253.190	20.724	868.902	679.201
254.205	20.870	868.107	679.088
255.220	21.071	867.400	679.258
256.234	21.120	866.563	678.733
257.249	20.774	866.649	677.395
258.263	20.770	865.641	676.532
259.278	20.809	864.846	676.004
260.293	20.966	864.452	676.245
261.307	20.975	864.096	675.940
262.322	20.977	863.262	675.237
263.336	20.778	862.423	673.749
264.351	20.272	860.932	670.567
265.366	19.105	859.031	664.526
266.380	18.682	858.370	662.323
267.395	19.636	858.752	666.242
268.409	20.443	858.713	669.262
269.424	20.389	858.154	668.562
270.439	20.539	857.518	668.585
271.453	20.801	856.716	668.904
272.468	20.748	856.179	668.221
273.482	21.071	855.493	668.867
274.497	21.145	855.129	668.809
275.512	20.937	853.960	667.039
276.526	20.360	852.344	663.514
277.541	20.429	852.533	663.863
278.555	20.683	852.539	664.781
279.570	20.581	851.622	663.617
280.585	20.384	850.781	662.150
281.599	20.393	850.531	661.934
282.614	20.549	850.311	662.299
283.628	20.141	848.950	659.628
284.643	19.858	848.000	657.753
285.657	20.248	848.207	659.339
286.672	20.237	846.745	658.103
287.687	19.746	845.665	655.347
288.701	20.045	845.868	656.577
289.716	20.422	845.543	657.696
290.730	19.966	844.980	655.474
291.745	19.927	844.112	654.593
292.760	19.942	842.796	653.572
293.774	19.745	842.353	652.426
294.789	20.570	842.932	655.933
295.803	21.140	843.166	658.206
296.818	21.304	842.350	658.131
297.833	21.314	841.643	657.557
298.847	21.090	840.841	656.028
299.862	20.868	839.846	654.360
300.876	21.059	839.242	654.548
301.891	21.098	839.222	654.620
302.906	21.231	838.573	654.558
303.920	20.825	837.169	651.884
304.935	20.653	836.180	650.413
305.949	21.065	836.182	651.898
306.964	21.170	835.505	651.704
307.979	21.042	834.989	650.764
308.993	21.110	834.651	650.700
310.008	21.305	834.189	651.005
311.022	21.437	833.965	651.267
312.037	21.297	833.058	649.980
313.052	21.082	832.961	649.044
314.066	20.939	831.775	647.535
315.081	20.347	830.386	644.197
316.095	19.526	829.423	640.351
317.110	20.110	829.627	642.617
318.125	21.070	829.667	646.149
319.139	20.468	828.827	643.210
320.154	19.479	827.172	638.213
321.168	19.208	826.277	636.466
322.183	19.866	825.982	638.610
323.197	20.556	826.702	641.657
324.212	20.833	826.433	642.416
325.227	21.044	826.109	642.883
326.241	21.103	825.365	642.464
327.256	21.054	824.808	641.796
328.270	20.938	824.267	640.891
329.285	20.792	823.735	639.882
330.300	20.669	822.959	638.770
331.314	20.469	822.114	637.328
332.329	20.632	821.496	637.387
333.343	20.941	820.943	638.035
334.358	21.213	820.648	638.745
335.373	21.097	820.218	637.928
336.387	21.116	819.579	637.443
337.402	21.424	819.300	638.294
338.416	21.564	818.849	638.399
339.431	21.554	818.276	637.857
340.446	21.559	818.050	637.644
341.460	21.705	817.170	637.432
342.475	21.616	816.524	636.548
343.489	21.472	815.839	635.436
344.504	21.405	815.256	634.683
345.519	21.693	814.940	635.425
346.533	21.822	814.715	635.662
347.548	21.983	813.924	635.571
348.562	21.848	813.796	634.926
349.577	21.902	813.581	634.898
350.592	21.913	812.918	634.363
351.606	21.824	812.606	633.743
352.621	21.872	811.735	633.180
353.635	21.845	811.008	632.458
354.650	21.770	810.663	631.864
355.665	21.413	809.667	629.748
356.679	20.466	807.883	624.897
357.694	20.232	807.826	623.956
358.708	20.947	807.475	626.200
359.723	20.847	806.926	625.360
360.738	21.057	806.917	626.051
361.752	21.700	806.223	627.762
362.767	21.686	806.034	627.511
363.781	21.918	805.906	628.186
364.796	21.999	805.938	628.444
365.810	22.084	805.427	628.293
366.825	22.245	804.932	628.428
367.840	21.993	805.179	627.664
368.854	22.007	804.117	626.833
369.869	21.720	802.922	624.820
370.883	21.586	802.429	623.906
371.898	21.710	802.157	624.078
372.913	21.626	801.137	622.933
373.927	21.582	800.846	622.495
374.942	21.707	800.146	622.338
375.956	21.861	799.829	622.584
376.971	21.976	798.720	622.074
377.986	21.902	798.608	621.670
379.000	22.190	798.186	622.304
380.015	22.286	797.657	622.178
381.029	22.115	797.033	621.030
382.044	22.110	796.250	620.349
383.059	22.216	795.792	620.312
384.073	22.192	795.229	619.733
385.088	22.194	795.002	619.507
386.102	22.310	794.637	619.579
387.117	21.974	793.861	617.736
388.132	21.972	793.441	617.347
389.146	21.778	792.816	616.123
390.161	21.365	791.474	613.577
391.175	21.416	791.195	613.485
392.190	21.890	791.388	615.243
393.205	21.812	790.826	614.480
394.219	20.880	789.424	610.073
395.234	19.505	787.248	603.533
396.248	18.796	786.278	600.260
397.263	19.824	787.368	604.635
398.278	21.612	788.460	611.671
399.292	22.042	788.117	612.851
400.307	21.682	787.236	610.857
401.321	21.662	787.034	610.575
402.336	21.843	786.629	610.840
403.350	21.935	786.527	611.027
404.365	22.323	786.489	612.292
405.380	22.621	786.129	612.995
406.394	22.863	785.859	613.572
407.409	23.058	785.266	613.731
408.423	22.844	784.986	612.715
409.438	22.748	784.095	611.631
410.453	22.721	784.068	611.464
411.467	22.777	783.529	611.183
412.482	22.776	783.135	610.818
413.496	22.751	782.435	610.132
414.511	22.804	782.295	610.152
415.526	22.886	781.698	609.914
416.540	22.868	781.429	609.590
417.555	22.727	780.966	608.689
418.569	22.421	780.190	606.976
419.584	22.480	779.634	606.690
420.599	22.749	778.697	606.833
421.613	158.482	1362.702	1799.245
422.628	136.933	1447.782	1799.360
