DTS Sentinel unit serial number:	SN413079Multiplexer serial number:	ORYXHardware model number:	OX4-SRSoftware version number:	ORYX F/W v4.00 Oryx Data Collector v3.7.2.0data status	okinstallation	princeton_trtdifferential loss correction	single-endedforward channel	channel 3reverse channel	N/Adate	2019/09/19time	02:24:34forward acquisition time	60.00reverse acquisition time	0.00gamma	496.2192k internal	0.2348k external	0.2348temperature offset calibration	0.9993default loss term (dB/km)	0.3790temperature slope calibration	1.0000multiplexer offset coefficient	1.0000multiplexer slope coefficient	1.0000fibre end	0.00T internal ref (°C)	21.06T ext. ref 1 (°C)	0.68T ext. ref 2 (°C)	14.65length (m)	temperature (°C)	Stokes	anti-Stokes-747.200	-109.966	0.254	0.053
-746.185	-8.825	-0.259	0.174
-745.171	-130.688	0.129	-0.017
-744.156	33.842	-0.226	-0.197
-743.142	-71.870	0.399	0.149
-742.127	800.000	0.039	0.169
-741.112	-82.552	0.204	0.066
-740.098	60.207	-0.161	0.159
-739.083	-85.849	0.159	0.049
-738.069	205.351	0.167	-0.259
-737.054	-90.421	-0.169	0.049
-736.039	-35.292	-0.320	0.174
-735.025	362.754	-0.043	0.085
-734.010	143.745	0.064	0.085
-732.996	84.536	-0.234	-0.256
-731.981	566.743	-0.081	0.197
-730.966	800.000	0.077	-0.318
-729.952	-69.495	-0.009	-0.003
-728.937	-90.013	-0.226	-0.066
-727.923	220.843	0.141	-0.225
-726.908	78.622	-0.153	-0.163
-725.894	800.000	-0.018	0.064
-724.879	-200.000	-0.003	-0.583
-723.864	54.213	-0.035	0.034
-722.850	339.209	-0.203	-0.395
-721.835	270.220	0.175	-0.307
-720.821	-72.137	-0.207	-0.077
-719.806	-152.192	-0.342	0.025
-718.791	800.000	-0.062	-0.171
-717.777	-200.000	-0.017	-0.160
-716.762	-200.000	-0.000	0.184
-715.748	-91.736	-0.167	-0.047
-714.733	-61.669	-0.095	0.040
-713.718	21.728	0.122	0.099
-712.704	146.870	-0.058	-0.078
-711.689	15.815	-0.150	-0.118
-710.675	347.193	-0.044	0.086
-709.660	-178.715	0.266	0.006
-708.645	-200.000	-0.005	0.188
-707.631	-145.434	-0.140	0.013
-706.616	-49.547	0.081	-0.038
-705.602	191.391	0.137	0.206
-704.587	-200.000	0.085	-0.552
-703.572	-200.000	-0.030	-0.217
-702.558	583.602	-0.052	-0.128
-701.543	800.000	-0.064	-0.271
-700.529	-78.642	-0.158	0.054
-699.514	-94.361	0.130	0.035
-698.499	-35.006	-0.347	-0.189
-697.485	-143.847	0.203	-0.019
-696.470	121.442	0.059	0.073
-695.456	-200.000	-0.035	-0.217
-694.441	800.000	-0.117	-0.502
-693.426	-97.079	-0.096	-0.025
-692.412	65.629	-0.068	-0.068
-691.397	800.000	0.033	0.118
-690.383	-200.000	0.027	-0.214
-689.368	59.752	0.200	0.197
-688.354	-119.899	0.299	-0.051
-687.339	68.519	-0.146	-0.149
-686.324	-117.783	-0.180	0.032
-685.310	-126.889	0.211	-0.031
-684.295	-158.446	0.236	0.014
-683.281	-42.307	-0.091	-0.046
-682.266	25.349	0.219	0.181
-681.251	800.000	0.040	-0.132
-680.237	81.429	-0.143	-0.154
-679.222	-103.960	-0.428	0.100
-678.208	-200.000	-0.031	-0.143
-677.193	-200.000	-0.198	0.000
-676.178	-200.000	0.023	-0.229
-675.164	-200.000	-0.017	0.290
-674.149	-16.996	-0.238	0.150
-673.135	17.031	0.153	0.121
-672.120	-112.507	0.244	-0.049
-671.105	800.000	0.039	-0.137
-670.091	384.445	-0.211	0.434
-669.076	-51.262	-0.157	0.073
-668.062	158.811	-0.158	-0.218
-667.047	482.395	-0.146	0.330
-666.032	-103.304	-0.146	0.034
-665.018	219.287	-0.131	-0.209
-664.003	-200.000	0.020	-0.296
-662.989	530.865	0.208	-0.489
-661.974	-19.281	-0.145	-0.090
-660.959	-61.770	-0.321	-0.134
-659.945	800.000	0.048	-0.152
-658.930	144.359	-0.312	0.415
-657.916	-72.003	0.599	0.222
-656.901	-118.713	-0.145	-0.026
-655.886	-105.348	-0.201	0.046
-654.872	-162.529	0.166	-0.008
-653.857	-63.698	-0.194	0.079
-652.843	155.807	-0.057	-0.078
-651.828	62.880	-0.098	-0.097
-650.814	-140.546	0.196	0.020
-649.799	51.181	0.116	0.109
-648.784	143.101	-0.163	0.216
-647.770	-55.828	0.126	-0.056
-646.755	-45.522	-0.096	-0.047
-645.741	800.000	0.065	-0.252
-644.726	334.815	0.063	0.121
-643.711	79.116	0.154	0.164
-642.697	-200.000	0.015	0.073
-641.682	-200.000	-0.001	-0.017
-640.668	800.000	-0.074	0.216
-639.653	516.833	-0.181	0.420
-638.638	-44.047	0.229	-0.115
-637.624	270.829	-0.080	-0.140
-636.609	19.463	-0.397	-0.317
-635.595	-28.495	0.307	-0.176
-634.580	800.000	0.040	-0.128
-633.565	-62.685	-0.044	-0.018
-632.551	148.002	-0.150	0.201
-631.536	-167.864	-0.239	-0.009
-630.522	-39.222	0.226	-0.118
-629.507	71.740	0.122	-0.126
-628.492	-20.649	0.239	0.146
-627.478	-157.943	0.467	0.027
-626.463	-49.715	0.048	-0.023
-625.449	-92.855	-0.188	-0.052
-624.434	-97.234	-0.242	-0.063
-623.419	-195.379	-0.118	0.001
-622.405	416.402	-0.102	0.217
-621.390	54.921	-0.070	0.067
-620.376	54.943	-0.212	0.204
-619.361	-80.818	-0.520	-0.172
-618.346	98.544	-0.037	0.043
-617.332	-192.562	0.223	0.002
-616.317	-200.000	-0.030	0.188
-615.303	454.799	-0.138	-0.304
-614.288	-55.086	-0.195	-0.087
-613.273	-135.447	-0.276	0.033
-612.259	408.560	0.136	-0.286
-611.244	661.087	-0.040	-0.104
-610.230	-200.000	0.046	-0.269
-609.215	-35.428	-0.312	0.168
-608.201	100.420	-0.059	-0.068
-607.186	-69.906	0.179	0.068
-606.171	303.093	0.141	-0.259
-605.157	-20.247	0.088	0.054
-604.142	-184.911	-0.293	-0.005
-603.128	191.103	0.091	0.136
-602.113	173.449	-0.183	0.263
-601.098	-16.438	0.193	0.121
-600.084	-104.177	0.121	-0.028
-599.069	-30.207	0.379	0.214
-598.055	46.599	0.076	-0.070
-597.040	300.391	-0.114	0.210
-596.025	-24.891	0.297	-0.175
-595.011	123.787	0.101	-0.127
-593.996	-200.000	-0.009	-0.147
-592.982	-41.756	0.527	-0.269
-591.967	-124.054	-0.335	-0.052
-590.952	-200.000	-0.074	-0.393
-589.938	-199.496	-0.372	0.002
-588.923	52.029	0.124	-0.117
-587.909	-200.000	-0.010	0.225
-586.894	410.040	0.073	0.153
-585.879	797.015	-0.116	-0.318
-584.865	36.607	0.056	0.049
-583.850	-200.000	-0.038	0.174
-582.836	489.304	-0.016	0.037
-581.821	-26.898	-0.276	0.160
-580.806	32.451	-0.158	0.136
-579.792	-28.758	0.349	0.199
-578.777	-65.658	0.203	0.081
-577.763	98.618	-0.264	-0.302
-576.748	-93.601	0.068	-0.019
-575.733	65.206	0.098	0.098
-574.719	205.428	-0.123	-0.189
-573.704	-22.131	-0.320	-0.192
-572.690	-64.659	-0.074	0.030
-571.675	-200.000	0.054	-0.428
-570.661	51.905	-0.174	0.164
-569.646	-13.694	0.177	0.114
-568.631	-200.000	-0.000	-0.065
-567.617	-200.000	0.072	0.339
-566.602	207.640	-0.079	0.122
-565.588	-45.905	-0.357	-0.175
-564.573	800.000	0.041	-0.114
-563.558	-70.593	-0.115	0.043
-562.544	-45.219	-0.317	0.156
-561.529	-149.667	0.091	-0.007
-560.515	800.000	0.076	-0.304
-559.500	-200.000	0.005	0.203
-558.485	210.389	0.073	-0.113
-557.471	56.912	-0.084	-0.082
-556.456	462.889	0.148	-0.327
-555.442	800.000	-0.023	-0.071
-554.427	-36.906	-0.109	-0.058
-553.412	-142.501	-0.111	0.011
-552.398	-5.842	-0.061	-0.042
-551.383	20.432	0.305	-0.245
-550.369	-12.134	-0.193	0.125
-549.354	40.783	0.147	0.131
-548.339	61.754	0.156	0.154
-547.325	1.241	-0.229	-0.163
-546.310	-6.517	-0.079	-0.053
-545.296	206.591	0.077	0.119
-544.281	440.136	0.044	0.095
-543.266	21.781	0.244	-0.197
-542.252	-59.104	0.038	0.016
-541.237	-90.089	-0.294	0.085
-540.223	-52.298	-0.284	-0.130
-539.208	35.812	0.222	-0.194
-538.193	-175.085	-0.209	0.006
-537.179	-21.228	0.223	-0.135
-536.164	22.147	0.114	0.092
-535.150	165.057	-0.206	0.289
-534.135	-98.801	-0.314	-0.079
-533.121	113.385	0.282	0.339
-532.106	99.587	-0.048	0.055
-531.091	259.745	-0.041	0.071
-530.077	800.000	-0.056	-0.199
-529.062	-27.673	-0.253	-0.145
-528.048	-200.000	-0.021	-0.273
-527.033	304.257	-0.171	-0.315
-526.018	35.969	-0.321	0.280
-525.004	324.152	-0.124	0.235
-523.989	390.988	0.027	0.056
-522.975	-61.204	0.244	0.102
-521.960	800.000	-0.046	-0.178
-520.945	140.972	0.167	0.219
-519.931	-200.000	0.000	0.042
-518.916	72.214	0.129	0.133
-517.902	-40.870	0.138	-0.070
-516.887	800.000	-0.035	0.101
-515.872	800.000	-0.047	0.131
-514.858	-72.902	-0.164	0.060
-513.843	-200.000	-0.019	-0.261
-512.829	-200.000	-0.039	-0.343
-511.814	198.268	0.187	-0.283
-510.799	-99.928	0.238	-0.059
-509.785	-200.000	-0.011	0.050
-508.770	-84.201	-0.089	-0.028
-507.756	433.188	0.008	-0.018
-506.741	288.355	-0.143	-0.256
-505.726	42.775	-0.039	-0.035
-504.712	163.391	0.069	0.095
-503.697	800.000	0.006	-0.023
-502.683	669.576	-0.075	-0.191
-501.668	-27.506	0.214	-0.123
-500.653	-90.699	0.431	-0.123
-499.639	-25.983	-0.162	0.094
-498.624	-25.881	0.220	0.128
-497.610	-200.000	-0.063	0.277
-496.595	-200.000	-0.033	0.221
-495.581	160.699	-0.037	0.051
-494.566	-78.697	-0.403	0.136
-493.551	-136.849	0.088	-0.010
-492.537	-200.000	0.023	0.320
-491.522	-200.000	-0.074	0.381
-490.508	-200.000	0.046	0.289
-489.493	-83.789	-0.122	-0.038
-488.478	-200.000	0.081	0.582
-487.464	-200.000	-0.003	0.259
-486.449	-200.000	0.042	0.199
-485.435	584.207	-0.083	-0.201
-484.420	-166.678	-0.094	0.004
-483.405	-77.388	-0.257	0.088
-482.391	91.545	-0.106	0.118
-481.376	273.568	0.113	0.197
-480.362	-149.323	-0.070	0.005
-479.347	-111.517	0.243	0.049
-478.332	799.680	0.044	-0.121
-477.318	297.310	-0.071	0.129
-476.303	800.000	-0.075	-0.318
-475.289	17.038	-0.161	-0.126
-474.274	69.996	0.150	-0.153
-473.259	-39.473	-0.049	0.026
-472.245	196.785	0.165	-0.248
-471.230	-127.251	-0.115	-0.017
-470.216	-90.470	0.264	-0.075
-469.201	87.674	-0.123	-0.135
-468.186	497.001	-0.036	0.082
-467.172	-138.785	-0.114	0.012
-466.157	-70.593	0.103	-0.039
-465.143	13.079	0.162	-0.124
-464.128	181.797	-0.233	-0.339
-463.113	-19.020	0.099	-0.061
-462.099	733.381	0.040	-0.106
-461.084	320.559	-0.129	0.243
-460.070	-200.000	-0.011	-0.112
-459.055	128.556	-0.056	-0.071
-458.040	-175.456	0.154	-0.004
-457.026	3.474	0.156	-0.112
-456.011	800.000	-0.069	0.270
-454.997	-74.241	0.289	0.103
-453.982	27.288	-0.069	-0.057
-452.968	-9.622	-0.197	-0.130
-451.953	111.895	-0.088	0.105
-450.938	800.000	-0.148	0.425
-449.924	94.474	-0.120	0.135
-448.909	417.396	0.041	-0.087
-447.895	-66.108	0.227	-0.090
-446.880	396.766	-0.058	0.119
-445.865	-33.728	0.122	0.066
-444.851	-200.000	-0.025	-0.404
-443.836	-13.250	-0.171	-0.109
-442.822	-101.409	0.303	0.073
-441.807	-120.887	-0.142	0.024
-440.792	21.248	-0.152	-0.121
-439.778	42.847	0.094	0.085
-438.763	-190.437	0.195	-0.002
-437.749	-6.139	0.254	-0.171
-436.734	-96.312	-0.080	0.021
-435.719	177.219	-0.025	-0.036
-434.705	592.900	-0.091	-0.221
-433.690	-97.690	-0.271	0.069
-432.676	800.000	-0.049	0.196
-431.661	-200.000	0.049	-0.315
-430.646	-108.579	-0.103	0.022
-429.632	81.850	0.221	-0.236
-428.617	-71.547	-0.130	-0.048
-427.603	800.000	0.070	-0.209
-426.588	-157.439	-0.395	-0.023
-425.573	-22.219	0.285	0.171
-424.559	113.206	-0.125	0.149
-423.544	800.000	-0.041	0.152
-422.530	-183.007	0.161	-0.003
-421.515	800.000	0.095	0.291
-420.500	-92.233	0.356	0.099
-419.486	-79.159	-0.198	-0.066
-418.471	276.479	-0.164	-0.287
-417.457	-200.000	0.009	-0.064
-416.442	-5.152	-0.072	0.049
-415.428	36.326	-0.142	-0.124
-414.413	126.169	0.146	0.182
-413.398	55.524	0.117	-0.112
-412.384	440.828	-0.062	0.134
-411.369	-200.000	-0.066	0.291
-410.355	-55.044	0.250	0.111
-409.340	149.145	0.105	0.140
-408.325	-9.044	-0.131	0.087
-407.311	-184.775	0.161	-0.003
-406.296	-200.000	0.010	0.159
-405.282	412.630	-0.182	0.381
-404.267	303.383	-0.181	0.330
-403.252	484.282	-0.224	0.502
-402.238	569.988	-0.077	0.185
-401.223	-30.527	0.205	0.114
-400.209	-89.309	0.113	0.033
-399.194	104.847	0.084	0.098
-398.179	-51.974	0.215	0.099
-397.165	-200.000	-0.016	-0.227
-396.150	800.000	0.012	0.037
-395.136	284.809	-0.121	-0.215
-394.121	117.066	-0.119	-0.144
-393.106	-116.725	0.312	-0.057
-392.092	66.532	0.205	0.206
-391.077	-79.378	-0.333	-0.111
-390.063	50.641	0.207	-0.193
-389.048	-200.000	-0.012	-0.120
-388.033	-133.419	-0.298	-0.037
-387.019	-143.044	-0.188	0.018
-386.004	27.275	0.185	0.153
-384.990	800.000	0.059	0.182
-383.975	530.646	-0.059	-0.138
-382.960	-200.000	0.008	-0.137
-381.946	-92.522	0.381	0.105
-380.931	-70.905	-0.251	0.093
-379.917	-62.734	0.231	0.094
-378.902	796.750	0.028	-0.076
-377.888	-88.133	-0.243	-0.072
-376.873	-64.066	0.389	-0.156
-375.858	-52.058	-0.311	0.142
-374.844	-83.875	0.303	0.095
-373.829	-43.357	-0.171	0.085
-372.815	217.840	0.186	0.292
-371.800	-200.000	-0.016	-0.195
-370.785	70.960	0.202	-0.206
-369.771	-200.000	-0.047	0.322
-368.756	-67.889	-0.319	-0.122
-367.742	-132.687	0.221	0.028
-366.727	-200.000	-0.065	-0.292
-365.712	-129.295	0.117	-0.016
-364.698	-135.729	-0.167	-0.019
-363.683	353.772	0.112	-0.219
-362.669	-105.823	0.195	0.043
-361.654	362.390	-0.039	0.077
-360.639	728.519	0.089	0.234
-359.625	713.249	0.038	-0.100
-358.610	-51.729	0.161	0.074
-357.596	-52.525	-0.194	0.088
-356.581	-46.650	-0.179	-0.086
-355.566	-150.835	0.263	-0.020
-354.552	-194.956	0.334	-0.003
-353.537	378.998	0.096	0.193
-352.523	-23.346	-0.151	0.089
-351.508	-76.576	-0.115	0.040
-350.493	-185.301	0.244	0.004
-349.479	291.339	0.126	0.225
-348.464	-200.000	-0.083	0.406
-347.450	-92.367	0.161	-0.045
-346.435	87.822	-0.187	-0.204
-345.420	49.690	-0.082	-0.076
-344.406	-20.673	-0.120	0.072
-343.391	-0.240	-0.142	-0.099
-342.377	-35.481	0.152	0.081
-341.362	107.515	-0.292	-0.341
-340.348	-200.000	-0.302	0.001
-339.333	74.650	0.209	0.216
-338.318	-60.173	-0.094	-0.039
-337.304	157.118	0.100	-0.136
-336.289	-85.743	0.333	-0.102
-335.275	-119.420	0.354	0.060
-334.260	341.576	0.098	0.188
-333.245	-119.974	0.233	0.039
-332.231	-5.279	-0.131	-0.088
-331.216	131.572	-0.093	0.118
-330.202	344.171	0.071	-0.137
-329.187	-200.000	0.085	0.401
-328.172	-40.362	0.306	-0.157
-327.158	76.913	-0.171	0.178
-326.143	-135.344	-0.394	-0.046
-325.129	62.847	0.209	0.205
-324.114	-114.027	0.222	-0.042
-323.099	57.887	-0.387	0.372
-322.085	89.909	0.164	-0.180
-321.070	-200.000	0.022	0.101
-320.056	-53.318	-0.238	-0.107
-319.041	301.321	0.073	-0.133
-318.026	-31.422	0.213	-0.118
-317.012	800.000	0.044	0.146
-315.997	52.631	0.306	-0.287
-314.983	-74.644	-0.325	0.115
-313.968	-200.000	-0.026	0.270
-312.953	-99.345	-0.116	-0.029
-311.939	-200.000	-0.012	0.154
-310.924	-79.473	0.369	-0.123
-309.910	-200.000	0.057	-0.284
-308.895	5.978	0.143	-0.104
-307.880	-63.233	0.008	0.003
-306.866	431.500	-0.130	0.278
-305.851	-200.000	-0.015	0.252
-304.837	49.926	0.250	0.232
-303.822	800.000	-0.188	0.628
-302.807	800.000	-0.027	-0.106
-301.793	-162.766	-0.226	-0.011
-300.778	-31.764	0.239	0.132
-299.764	466.655	0.079	0.174
-298.749	-100.865	-0.381	-0.092
-297.735	318.435	-0.214	-0.398
-296.720	7.579	-0.213	-0.156
-295.705	-200.000	-0.019	0.553
-294.691	-200.000	-0.040	-0.207
-293.676	-142.827	0.247	0.024
-292.662	-200.000	0.004	-0.153
-291.647	-97.350	0.144	0.037
-290.632	-145.396	0.162	0.014
-289.618	107.069	-0.120	-0.139
-288.603	-86.431	-0.075	0.023
-287.589	-55.374	-0.104	0.046
-286.574	-200.000	-0.017	0.171
-285.559	39.251	0.112	0.098
-284.545	-45.428	-0.249	-0.121
-283.530	258.413	0.130	-0.220
-282.516	-200.000	-0.045	0.444
-281.501	-3.999	0.016	0.011
-280.486	-37.264	-0.070	0.037
-279.472	-200.000	0.006	0.044
-278.457	-200.000	-0.030	-0.428
-277.443	-84.628	-0.178	0.055
-276.428	-0.285	0.033	-0.023
-275.413	800.000	-0.065	-0.182
-274.399	-200.000	-0.031	0.285
-273.384	-127.566	0.147	-0.021
-272.370	-200.000	-0.022	-0.129
-271.355	267.769	0.077	-0.132
-270.340	800.000	0.015	0.045
-269.326	-65.874	-0.263	0.103
-268.311	628.874	0.065	0.162
-267.297	-127.187	-0.091	0.013
-266.282	-200.000	-0.010	-0.122
-265.267	41.213	0.117	-0.104
-264.253	80.180	0.151	-0.160
-263.238	-107.839	0.351	0.075
-262.224	-123.407	-0.122	0.019
-261.209	-200.000	-0.028	-0.121
-260.195	-122.285	-0.233	0.037
-259.180	-23.416	-0.029	0.017
-258.165	-200.000	-0.084	-0.539
-257.151	134.647	0.222	-0.282
-256.136	800.000	-0.072	-0.210
-255.122	177.614	0.113	-0.161
-254.107	-31.020	-0.269	-0.149
-253.092	-35.710	-0.282	0.150
-252.078	-200.000	0.003	0.024
-251.063	-56.144	0.201	-0.088
-250.049	-160.305	0.146	0.008
-249.034	-115.286	-0.235	-0.043
-248.019	-166.109	-0.188	0.008
-247.005	263.011	-0.101	0.171
-245.990	800.000	0.051	-0.164
-244.976	250.958	0.214	0.356
-243.961	182.081	0.114	-0.165
-242.946	138.121	0.044	-0.057
-241.932	800.000	-0.063	0.217
-240.917	-74.084	0.193	-0.069
-239.903	-109.901	0.160	0.033
-238.888	-124.185	0.172	0.026
-237.873	800.000	0.048	-0.146
-236.859	25.130	-0.087	-0.071
-235.844	-123.064	-0.523	0.082
-234.830	12.941	0.363	-0.275
-233.815	-11.235	-0.171	-0.110
-232.800	-84.707	0.350	-0.108
-231.786	-57.113	0.263	0.113
-230.771	-200.000	-0.010	-0.217
-229.757	-4.251	-0.077	0.052
-228.742	-84.153	-0.222	0.069
-227.727	-54.427	0.325	0.144
-226.713	71.464	0.192	-0.195
-225.698	165.748	0.126	-0.174
-224.684	-200.000	0.000	-0.065
-223.669	181.337	0.309	-0.445
-222.655	61.026	0.103	0.100
-221.640	-79.198	-0.320	-0.106
-220.625	-200.000	-0.035	0.179
-219.611	546.993	-0.058	0.136
-218.596	91.530	-0.209	-0.230
-217.582	-200.000	-0.024	-0.215
-216.567	-3.883	0.090	-0.061
-215.552	-81.414	-0.068	0.022
-214.538	795.479	-0.030	-0.082
-213.523	7.475	0.214	-0.156
-212.509	-37.904	-0.121	-0.063
-211.494	-200.000	-0.038	-0.404
-210.479	-21.021	-0.340	0.204
-209.465	110.446	0.133	0.156
-208.450	-130.887	-0.380	-0.050
-207.436	34.270	0.240	-0.205
-206.421	-152.610	-0.350	0.024
-205.406	134.305	-0.181	-0.229
-204.392	-21.524	0.043	-0.026
-203.377	37.476	0.074	-0.064
-202.363	-65.607	0.076	0.030
-201.348	800.000	0.039	-0.108
-200.333	-200.000	-0.012	-0.218
-199.319	-200.000	0.005	0.030
-198.304	124.953	0.065	-0.081
-197.290	-45.179	-0.277	-0.135
-196.275	-0.505	-0.046	0.032
-195.260	800.000	-0.115	-0.329
-194.246	199.643	0.158	-0.238
-193.231	19.096	0.173	0.136
-192.217	50.648	-0.072	-0.066
-191.202	50.154	-0.061	0.057
-190.187	-127.936	0.282	0.040
-189.173	47.625	0.135	0.124
-188.158	719.842	-0.084	0.219
-187.144	-200.000	0.021	-0.163
-186.129	104.849	0.130	0.149
-185.114	110.606	-0.059	0.069
-184.100	-200.000	-0.069	0.337
-183.085	28.334	-0.143	-0.118
-182.071	-200.000	-0.008	0.188
-181.056	-129.731	0.247	-0.033
-180.042	114.300	0.146	0.173
-179.027	168.132	0.184	-0.256
-178.012	3.805	-0.267	0.190
-176.998	-11.142	-0.068	0.044
-175.983	107.944	-0.034	-0.040
-174.969	-100.295	0.507	0.123
-173.954	204.289	-0.207	0.313
-172.939	-69.231	0.392	0.147
-171.925	-143.196	-0.019	0.002
-170.910	617.012	-0.088	0.215
-169.896	-200.000	0.023	-0.173
-168.881	-31.222	-0.204	-0.112
-167.866	328.004	0.028	-0.052
-166.852	568.806	-0.045	-0.106
-165.837	-108.511	-0.276	-0.058
-164.823	-24.547	0.110	0.064
-163.808	-13.630	-0.094	-0.059
-162.793	163.923	0.093	0.128
-161.779	733.368	-0.022	0.058
-160.764	-67.989	0.259	-0.098
-159.750	189.481	-0.191	-0.280
-158.735	255.173	-0.087	0.145
-157.720	-43.412	0.120	-0.059
-156.706	275.227	0.121	-0.209
-155.691	-200.000	0.025	-0.216
-154.677	-53.612	0.060	0.027
-153.662	-200.000	0.075	0.372
-152.647	206.671	-0.290	0.441
-151.633	670.692	0.103	-0.260
-150.618	-200.000	0.010	0.136
-149.604	16.120	0.080	-0.062
-148.589	-200.000	-0.040	-0.320
-147.574	-200.000	-0.014	0.240
-146.560	130.855	-0.144	-0.181
-145.545	800.000	-0.020	-0.080
-144.531	-143.567	0.404	0.037
-143.516	-161.375	0.070	0.004
-142.502	30.450	0.315	-0.262
-141.487	25.523	0.308	-0.250
-140.472	245.290	-0.093	-0.152
-139.458	800.000	-0.079	-0.312
-138.443	-17.724	0.311	-0.191
-137.429	340.200	-0.134	-0.256
-136.414	28.105	0.457	-0.377
-135.399	12.956	0.140	-0.106
-134.385	447.015	-0.083	0.178
-133.370	23.537	-0.175	0.141
-132.356	800.000	-0.111	-0.311
-131.341	-12.525	0.131	0.084
-130.326	725.134	-0.040	0.103
-129.312	-55.641	-0.332	0.145
-128.297	-164.111	-0.234	-0.011
-127.283	129.535	-0.117	0.145
-126.268	800.000	0.071	-0.199
-125.253	-136.899	0.208	-0.023
-124.239	-27.059	0.228	0.130
-123.224	-134.002	0.334	-0.040
-122.210	-41.894	0.173	0.087
-121.195	230.119	0.064	0.102
-120.180	495.782	-0.026	-0.058
-119.166	4.952	-0.247	0.177
-118.151	-200.000	-0.069	-0.344
-117.137	177.578	0.111	-0.158
-116.122	-24.484	0.308	-0.179
-115.107	-157.436	-0.385	-0.023
-114.093	-200.000	-0.011	0.125
-113.078	-77.294	0.056	-0.019
-112.064	-0.007	0.201	0.140
-111.049	-200.000	0.002	-0.047
-110.034	138.754	0.093	0.120
-109.020	99.972	-0.269	0.304
-108.005	312.690	-0.036	0.066
-106.991	800.000	0.054	-0.159
-105.976	-77.271	-0.313	-0.106
-104.962	283.786	0.135	0.237
-103.947	236.424	-0.027	-0.044
-102.932	-89.303	0.120	0.034
-101.918	661.012	-0.087	0.219
-100.903	90.935	-0.257	-0.280
-99.889	-200.000	-0.012	-0.182
-98.874	164.772	0.082	-0.112
-97.859	-22.545	-0.274	-0.161
-96.845	87.763	0.068	0.073
-95.830	104.865	0.143	-0.164
-94.816	-166.563	-0.172	0.007
-93.801	-200.000	0.007	-0.182
-92.786	-148.916	0.343	-0.027
-91.772	177.340	0.056	0.079
-90.757	14.247	-0.140	0.107
-89.743	356.259	0.105	0.203
-88.728	-66.304	-0.167	0.065
-87.713	-200.000	0.001	0.096
-86.699	73.336	0.279	-0.284
-85.684	173.120	0.097	-0.136
-84.670	-131.742	0.193	-0.025
-83.655	37.453	0.118	0.102
-82.640	-133.789	0.081	-0.010
-81.626	163.352	-0.073	0.100
-80.611	-200.000	-0.011	0.346
-79.597	163.454	0.171	0.234
-78.582	800.000	-0.088	-0.311
-77.567	159.253	0.156	-0.212
-76.553	800.000	0.104	0.415
-75.538	-63.249	-0.039	-0.015
-74.524	128.751	-0.004	-0.004
-73.509	-200.000	-0.085	0.496
-72.494	-17.513	-0.175	0.107
-71.480	-118.802	-0.177	0.030
-70.465	800.000	-0.118	-0.334
-69.451	183.746	-0.045	-0.064
-68.436	40.351	-0.085	-0.074
-67.422	-200.000	0.018	0.095
-66.407	-36.323	0.397	0.208
-65.392	81.382	0.091	0.095
-64.378	311.535	-0.038	-0.070
-63.363	-20.601	0.203	-0.121
-62.349	-66.250	-0.228	0.088
-61.334	48.091	-1.080	-0.982
-60.319	154.778	0.716	0.957
-59.305	382.434	-0.759	-1.518
-58.290	605.843	0.551	1.335
-57.276	276.936	0.812	1.403
-56.261	-200.000	135.347	683.768
-55.246	339.620	1679.017	3183.238
-54.232	134.559	2805.499	3539.323
-53.217	87.600	2194.776	2363.080
-52.203	31.058	1711.915	1427.316
-51.188	24.030	1535.239	1231.529
-50.173	22.354	1512.990	1202.194
-49.159	46.712	1589.313	1435.044
-48.144	43.351	1598.901	1420.056
-47.130	24.122	1547.645	1241.923
-46.115	21.311	1531.758	1209.696
-45.100	21.021	1528.498	1205.067
-44.086	21.134	1525.759	1203.642
-43.071	21.013	1524.338	1201.636
-42.057	21.051	1522.808	1200.643
-41.042	21.013	1521.261	1199.120
-40.027	20.982	1519.849	1197.742
-39.013	21.039	1518.007	1196.636
-37.998	20.928	1516.952	1194.997
-36.984	20.944	1516.069	1194.365
-35.969	21.047	1514.390	1193.697
-34.954	21.037	1513.274	1192.698
-33.940	20.907	1511.836	1190.635
-32.925	20.938	1511.068	1190.194
-31.911	21.051	1508.816	1189.140
-30.896	21.071	1508.010	1188.594
-29.881	21.152	1506.499	1187.909
-28.867	21.110	1505.081	1186.456
-27.852	21.137	1503.905	1185.668
-26.838	21.214	1501.940	1184.590
-25.823	21.152	1500.634	1183.097
-24.809	21.224	1498.973	1182.224
-23.794	21.075	1497.844	1180.279
-22.779	21.175	1496.568	1179.908
-21.765	21.183	1495.590	1179.139
-20.750	21.130	1494.849	1178.149
-19.736	21.087	1493.570	1176.806
-18.721	21.097	1492.754	1176.182
-17.706	21.052	1491.959	1175.210
-16.692	21.007	1490.922	1174.042
-15.677	21.118	1489.423	1173.562
-14.663	21.141	1488.409	1172.874
-13.648	20.979	1487.988	1171.406
-12.633	20.965	1487.093	1170.559
-11.619	21.068	1485.967	1170.318
-10.604	21.093	1485.007	1169.685
-9.590	21.089	1483.955	1168.784
-8.575	21.094	1483.235	1168.198
-7.560	21.033	1482.160	1166.899
-6.546	21.056	1481.600	1166.567
-5.531	20.946	1480.778	1165.138
-4.517	20.972	1479.358	1164.148
-3.502	20.953	1478.403	1163.223
-2.487	21.063	1477.201	1162.964
-1.473	21.035	1476.002	1161.790
-0.458	21.002	1474.929	1160.674
0.556	20.044	1464.967	1149.052
1.571	16.836	1440.886	1109.105
2.586	13.356	1378.361	1039.059
3.600	11.770	1293.859	965.918
4.615	11.006	1249.502	928.361
5.629	9.751	1192.870	879.365
6.644	5.204	1112.279	796.727
7.659	1.302	1078.127	752.870
8.673	0.696	1072.888	746.153
9.688	0.704	1068.975	743.406
10.702	0.657	1067.974	742.410
11.717	0.643	1065.751	740.729
12.731	2.158	1066.037	748.289
13.746	7.714	1073.293	780.660
14.761	13.982	1081.695	817.639
15.775	16.981	1085.034	834.871
16.790	17.030	1083.865	834.135
17.804	15.987	1081.674	827.258
18.819	15.162	1079.747	821.669
19.834	14.609	1078.914	818.251
20.848	14.504	1077.685	816.729
21.863	14.315	1076.812	815.072
22.877	14.073	1075.630	812.920
23.892	13.824	1074.903	811.081
24.907	13.793	1074.055	810.222
25.921	13.692	1073.781	809.448
26.936	13.609	1073.294	808.603
27.950	13.703	1072.297	808.240
28.965	13.782	1071.363	807.849
29.980	13.958	1070.256	807.801
30.994	13.947	1069.780	807.317
32.009	13.870	1068.992	806.275
33.023	14.003	1068.097	806.174
34.038	13.922	1067.559	805.306
35.053	13.824	1066.483	803.946
36.067	13.776	1065.696	803.051
37.082	13.806	1064.592	802.293
38.096	13.873	1063.898	802.021
39.111	13.928	1063.627	802.014
40.126	13.863	1062.195	800.547
41.140	13.890	1060.835	799.584
42.155	13.765	1060.212	798.441
43.169	13.728	1059.404	797.585
44.184	13.705	1058.327	796.591
45.199	13.687	1057.044	795.470
46.213	13.642	1056.440	794.729
47.228	13.688	1055.459	794.140
48.242	13.778	1054.186	793.540
49.257	13.745	1053.237	792.601
50.271	13.843	1052.129	792.164
51.286	13.856	1051.563	791.728
52.301	13.837	1050.804	791.000
53.315	13.868	1049.514	790.105
54.330	13.796	1049.475	789.661
55.344	13.730	1048.366	788.445
56.359	13.786	1047.263	787.812
57.374	13.821	1046.175	787.090
58.388	13.709	1045.564	786.028
59.403	13.716	1044.698	785.342
60.417	13.663	1044.332	784.746
61.432	13.765	1043.417	784.471
62.447	13.764	1042.605	783.785
63.461	13.620	1042.120	782.672
64.476	13.733	1040.236	781.722
65.490	13.646	1039.499	780.690
66.505	13.670	1039.137	780.462
67.520	13.720	1038.082	779.836
68.534	13.689	1037.155	778.925
69.549	13.747	1036.323	778.504
70.563	13.706	1036.066	778.046
71.578	13.646	1035.097	776.972
72.593	13.706	1034.060	776.404
73.607	13.643	1033.070	775.298
74.622	13.656	1031.907	774.417
75.636	13.556	1031.533	773.598
76.651	13.714	1030.038	773.147
77.666	13.602	1029.775	772.358
78.680	13.591	1029.131	771.758
79.695	13.709	1028.532	771.789
80.709	13.585	1027.932	770.691
81.724	13.751	1026.522	770.338
82.739	13.803	1025.933	770.069
83.753	13.744	1025.653	769.519
84.768	13.893	1024.617	769.362
85.782	13.827	1023.837	768.403
86.797	13.878	1023.028	767.962
87.812	13.940	1021.868	767.311
88.826	13.731	1021.517	766.016
89.841	13.774	1020.897	765.681
90.855	13.778	1019.786	764.799
91.870	13.684	1019.224	763.875
92.884	13.890	1018.115	763.928
93.899	13.809	1017.407	762.956
94.914	13.916	1016.904	763.000
95.928	14.026	1016.270	762.964
96.943	14.084	1014.749	762.019
97.957	13.952	1014.386	761.075
98.972	14.041	1013.213	760.533
99.987	13.970	1012.562	759.655
101.001	13.895	1012.414	759.134
102.016	13.759	1011.637	757.860
103.030	13.890	1010.281	757.376
104.045	14.033	1008.949	756.961
105.060	13.883	1008.763	756.071
106.074	13.891	1007.266	754.921
107.089	13.841	1006.275	753.883
108.103	13.795	1005.886	753.315
109.118	13.792	1004.634	752.301
110.133	13.712	1004.102	751.470
111.147	13.834	1002.569	750.810
112.162	13.824	1001.953	750.239
113.176	13.827	1001.305	749.701
114.191	13.881	1000.227	749.068
115.206	13.812	999.870	748.422
116.220	13.920	998.796	748.042
117.235	13.902	997.792	747.140
118.249	13.777	996.771	745.749
119.264	13.974	995.959	745.958
120.279	13.803	995.193	744.553
121.293	13.870	994.181	744.031
122.308	13.776	993.880	743.317
123.322	13.909	992.575	742.873
124.337	13.823	991.637	741.718
125.352	13.715	990.881	740.608
126.366	13.846	989.430	740.042
127.381	13.670	988.367	738.398
128.395	13.868	987.021	738.203
129.410	13.722	986.413	737.036
130.424	13.728	985.727	736.487
131.439	13.860	984.566	736.139
132.454	13.788	983.825	735.200
133.468	13.848	983.147	734.893
134.483	13.797	982.729	734.290
135.497	13.784	981.808	733.480
136.512	13.893	980.978	733.277
137.527	13.862	980.221	732.511
138.541	13.894	979.086	731.738
139.556	13.716	978.638	730.553
140.570	13.798	978.191	730.514
141.585	13.907	977.025	730.062
142.600	14.006	976.420	729.979
143.614	13.988	976.056	729.564
144.629	13.992	974.945	728.686
145.643	14.077	974.286	728.500
146.658	13.895	973.619	727.139
147.673	14.064	972.462	726.949
148.687	14.036	971.265	725.872
149.702	13.890	970.545	724.628
150.716	14.017	969.809	724.572
151.731	14.089	968.992	724.209
152.746	13.872	968.671	722.959
153.760	13.915	967.786	722.424
154.775	13.978	966.735	721.850
155.789	14.007	965.965	721.334
156.804	14.093	965.146	721.034
157.819	14.030	964.101	719.914
158.833	14.031	963.646	719.516
159.848	14.196	962.982	719.672
160.862	14.193	962.443	719.192
161.877	14.208	961.669	718.614
162.892	14.202	960.526	717.673
163.906	14.161	960.042	717.069
164.921	14.127	959.123	716.173
165.935	14.047	958.343	715.182
166.950	14.183	956.986	714.692
167.964	14.115	956.292	713.817
168.979	14.183	955.366	713.353
169.994	14.217	954.247	712.603
171.008	14.037	953.749	711.395
172.023	14.122	952.907	711.070
173.037	14.218	951.806	710.593
174.052	14.347	951.302	710.705
175.067	14.303	950.521	709.872
176.081	14.269	949.593	708.973
177.096	14.160	949.055	708.041
178.110	14.274	947.890	707.596
179.125	14.235	947.557	707.118
180.140	14.365	946.474	706.799
181.154	14.215	946.201	705.898
182.169	14.132	945.693	705.102
183.183	14.402	944.606	705.373
184.198	14.359	944.073	704.731
185.213	14.337	943.221	703.939
186.227	14.372	942.945	703.821
187.242	14.478	941.968	703.477
188.256	14.496	941.394	703.061
189.271	14.564	940.408	702.549
190.286	14.547	940.030	702.131
191.300	14.381	939.174	700.732
192.315	14.291	938.261	699.610
193.329	14.299	937.790	699.233
194.344	14.464	936.740	699.079
195.359	14.451	936.293	698.630
196.373	14.467	936.171	698.542
197.388	14.371	935.586	697.643
198.402	14.418	935.089	697.406
199.417	14.446	934.515	697.033
200.432	14.592	934.217	697.360
201.446	14.542	933.962	696.902
202.461	14.613	933.082	696.477
203.475	14.866	931.866	696.565
204.490	14.723	931.590	695.699
205.504	14.664	931.065	695.002
206.519	14.669	930.140	694.268
207.534	14.665	929.166	693.463
208.548	14.715	928.578	693.170
209.563	14.725	928.205	692.873
210.577	14.647	927.381	691.873
211.592	14.681	926.549	691.333
212.607	14.878	925.937	691.628
213.621	14.957	925.151	691.307
214.636	14.760	924.889	690.237
215.650	14.795	923.919	689.598
216.665	15.030	923.368	690.093
217.680	14.840	923.002	688.974
218.694	14.819	922.684	688.593
219.709	14.837	922.087	688.157
220.723	14.804	921.251	687.338
221.738	14.952	920.675	687.455
222.753	14.925	919.856	686.672
223.767	15.106	918.726	686.511
224.782	14.998	918.110	685.546
225.796	14.911	917.778	684.883
226.811	14.992	916.830	684.444
227.826	15.045	916.155	684.095
228.840	15.023	915.659	683.577
229.855	15.052	914.480	682.756
230.869	15.057	913.909	682.288
231.884	15.098	913.346	681.975
232.899	15.097	912.333	681.155
233.913	15.041	912.022	680.634
234.928	15.023	911.364	680.007
235.942	15.027	910.573	679.373
236.957	14.978	910.055	678.730
237.972	15.004	909.772	678.565
238.986	15.066	908.409	677.738
240.001	15.007	908.118	677.221
241.015	15.114	907.312	676.993
242.030	15.104	906.689	676.427
243.045	15.057	906.071	675.718
244.059	15.308	905.222	676.037
245.074	15.123	904.998	675.064
246.088	15.281	903.779	674.730
247.103	15.297	903.440	674.483
248.117	15.233	903.012	673.845
249.132	15.235	902.396	673.333
250.147	15.353	901.860	673.349
251.161	15.385	901.185	672.912
252.176	15.369	900.284	672.119
253.190	15.551	899.535	672.229
254.205	15.400	899.508	671.544
255.220	15.526	898.583	671.296
256.234	15.581	897.706	670.802
257.249	15.500	897.285	670.107
258.263	15.567	896.928	670.048
259.278	15.653	896.238	669.816
260.293	15.656	895.583	669.278
261.307	15.610	895.046	668.635
262.322	15.642	894.186	668.058
263.336	15.762	893.639	668.070
264.351	15.662	893.114	667.220
265.366	15.730	892.862	667.244
266.380	15.674	892.303	666.545
267.395	15.866	890.834	666.148
268.409	15.730	890.472	665.282
269.424	15.704	890.103	664.843
270.439	15.700	889.130	664.041
271.453	15.803	887.791	663.388
272.468	15.623	887.915	662.713
273.482	15.845	886.519	662.486
274.497	15.636	886.502	661.592
275.512	15.777	885.373	661.246
276.526	15.753	884.802	660.666
277.541	15.717	884.243	660.049
278.555	15.963	882.947	659.986
279.570	15.895	883.342	659.956
280.585	15.889	882.371	659.149
281.599	16.004	881.529	658.910
282.614	15.912	881.299	658.323
283.628	16.104	880.302	658.269
284.643	15.981	879.917	657.443
285.657	16.036	879.671	657.417
286.672	16.027	878.903	656.748
287.687	16.150	878.319	656.734
288.701	15.981	877.683	655.543
289.716	15.963	877.202	655.053
290.730	15.959	876.965	654.802
291.745	16.058	875.840	654.292
292.760	16.080	875.479	654.047
293.774	16.069	874.837	653.468
294.789	16.201	874.270	653.498
295.803	16.073	873.682	652.505
296.818	16.173	872.749	652.137
297.833	16.314	871.692	651.832
298.847	16.227	871.153	651.037
299.862	16.225	870.877	650.766
300.876	16.270	869.858	650.121
301.891	16.241	869.629	649.779
302.906	16.372	868.849	649.643
303.920	16.293	868.078	648.704
304.935	16.372	867.725	648.686
305.949	16.326	867.220	648.077
306.964	16.425	866.383	647.772
307.979	16.267	865.951	646.786
308.993	16.216	865.590	646.266
310.008	16.330	864.792	646.049
311.022	16.511	864.109	646.171
312.037	16.432	863.892	645.653
313.052	16.499	863.043	645.216
314.066	16.480	862.101	644.384
315.081	16.271	862.059	643.496
316.095	16.433	861.307	643.497
317.110	16.403	860.819	642.959
318.125	16.476	860.328	642.814
319.139	16.416	859.890	642.201
320.154	16.468	859.089	641.744
321.168	16.480	858.670	641.418
322.183	16.465	858.076	640.862
323.197	16.511	857.809	640.779
324.212	16.480	856.927	639.949
325.227	16.578	856.380	639.854
326.241	16.683	855.881	639.822
327.256	16.534	855.246	638.725
328.270	16.531	854.817	638.338
329.285	16.483	854.505	637.868
330.300	16.628	853.412	637.542
331.314	16.697	852.615	637.152
332.329	16.643	852.365	636.705
333.343	16.587	851.619	635.881
334.358	16.659	851.252	635.821
335.373	16.657	850.501	635.196
336.387	16.818	850.171	635.495
337.402	16.795	849.638	634.956
338.416	16.788	848.849	634.284
339.431	16.763	848.357	633.767
340.446	16.790	847.810	633.402
341.460	16.858	846.701	632.772
342.475	16.880	846.571	632.700
343.489	16.834	846.125	632.140
344.504	16.991	845.379	632.112
345.519	16.971	845.215	631.858
346.533	17.039	845.114	631.980
347.548	17.035	843.889	630.994
348.562	17.080	843.571	630.868
349.577	16.996	843.083	630.133
350.592	16.967	842.251	629.349
351.606	17.018	841.771	629.122
352.621	17.148	841.163	629.095
353.635	17.048	840.831	628.421
354.650	16.954	840.983	628.132
355.665	17.023	840.565	628.019
356.679	17.043	839.857	627.509
357.694	17.044	839.405	627.119
358.708	17.020	839.104	626.748
359.723	17.058	838.052	626.046
360.738	17.137	837.371	625.777
361.752	17.172	836.862	625.467
362.767	17.081	836.840	625.062
363.781	17.179	836.257	624.929
364.796	17.240	835.664	624.657
365.810	17.118	835.125	623.751
366.825	17.290	835.007	624.239
367.840	17.239	834.666	623.742
368.854	17.295	834.277	623.602
369.869	17.301	833.611	623.072
370.883	17.295	833.113	622.621
371.898	17.487	832.360	622.705
372.913	17.358	831.953	621.874
373.927	17.447	831.133	621.532
374.942	17.479	830.523	621.135
375.956	17.468	829.704	620.429
376.971	17.355	829.672	619.940
377.986	17.383	828.983	619.469
379.000	17.557	828.276	619.520
380.015	17.675	827.758	619.509
381.029	17.416	827.433	618.267
382.044	17.752	826.613	618.820
383.059	17.631	826.352	618.132
384.073	17.682	825.790	617.840
385.088	17.582	825.271	617.035
386.102	17.614	824.774	616.726
387.117	17.601	824.094	616.115
388.132	17.547	823.837	615.674
389.146	17.615	823.196	615.385
390.161	17.648	822.843	615.185
391.175	17.770	822.397	615.240
392.190	17.702	821.674	614.400
393.205	17.674	821.295	613.959
394.219	17.550	821.191	613.382
395.234	17.613	820.734	613.212
396.248	17.649	819.904	612.666
397.263	17.789	819.317	612.676
398.278	17.767	818.762	612.131
399.292	17.808	818.512	612.035
400.307	17.734	818.330	611.578
401.321	17.720	818.000	611.230
402.336	17.708	817.225	610.554
403.350	17.718	816.838	610.245
404.365	17.760	816.330	609.963
405.380	17.847	815.929	609.918
406.394	17.959	815.501	609.946
407.409	17.929	815.064	609.456
408.423	17.926	814.488	608.962
409.438	17.953	813.824	608.507
410.453	17.960	813.839	608.489
411.467	18.039	813.173	608.218
412.482	18.041	812.614	607.754
413.496	18.125	812.189	607.681
414.511	18.019	811.684	606.872
415.526	18.030	811.886	607.008
416.540	18.013	811.273	606.439
417.555	18.070	810.786	606.221
418.569	18.109	810.183	605.855
419.584	18.081	809.731	605.366
420.599	17.971	809.364	604.646
421.613	116.214	1300.357	1493.352
422.628	100.562	1371.829	1493.416
