DTS Sentinel unit serial number:	SN413079Multiplexer serial number:	ORYXHardware model number:	OX4-SRSoftware version number:	ORYX F/W v4.00 Oryx Data Collector v3.7.2.0data status	okinstallation	princeton_trtdifferential loss correction	single-endedforward channel	channel 3reverse channel	N/Adate	2019/09/18time	14:04:34forward acquisition time	60.00reverse acquisition time	0.00gamma	496.2192k internal	0.2311k external	0.2311temperature offset calibration	0.9977default loss term (dB/km)	0.3790temperature slope calibration	1.0000multiplexer offset coefficient	1.0000multiplexer slope coefficient	1.0000fibre end	0.00T internal ref (°C)	34.44T ext. ref 1 (°C)	0.67T ext. ref 2 (°C)	28.79length (m)	temperature (°C)	Stokes	anti-Stokes-747.200	-35.227	0.186	0.103
-746.185	-157.060	0.252	-0.016
-745.171	-14.308	0.263	0.172
-744.156	699.057	0.071	0.191
-743.142	-177.303	0.222	-0.006
-742.127	-80.160	-0.161	0.055
-741.112	-200.000	-0.013	0.063
-740.098	-7.204	-0.356	0.245
-739.083	800.000	-0.089	0.335
-738.069	82.630	-0.078	-0.086
-737.054	-104.743	0.105	0.025
-736.039	-180.409	-0.329	0.007
-735.025	24.496	0.117	-0.098
-734.010	35.212	-0.022	0.020
-732.996	-138.962	-0.173	-0.019
-731.981	-149.969	-0.239	-0.019
-730.966	61.297	0.211	0.213
-729.952	-3.470	0.173	-0.122
-728.937	563.353	-0.140	-0.345
-727.923	198.179	0.100	0.155
-726.908	-69.677	-0.196	-0.076
-725.894	-200.000	0.001	0.067
-724.879	-11.281	-0.178	0.119
-723.864	0.954	0.320	0.232
-722.850	-50.466	-0.329	-0.158
-721.835	-134.484	-0.191	0.024
-720.821	-8.206	-0.199	0.136
-719.806	74.961	-0.072	0.077
-718.791	-19.827	-0.031	0.020
-717.777	-98.666	0.303	0.078
-716.762	800.000	0.018	0.056
-715.748	-84.591	-0.090	-0.029
-714.733	-200.000	-0.032	0.193
-713.718	-125.151	-0.181	-0.028
-712.704	-110.362	-0.355	-0.075
-711.689	406.769	0.133	-0.286
-710.675	-39.800	0.210	0.111
-709.660	117.090	-0.105	0.131
-708.645	-65.840	-0.157	-0.064
-707.631	-200.000	-0.005	-0.192
-706.616	800.000	0.067	0.193
-705.602	66.805	-0.115	-0.119
-704.587	-16.684	-0.273	-0.175
-703.572	-131.399	0.264	-0.035
-702.558	-23.781	0.045	-0.027
-701.543	-139.192	0.423	0.046
-700.529	-200.000	0.019	-0.210
-699.514	-200.000	-0.005	-0.077
-698.499	118.748	0.126	-0.158
-697.485	800.000	0.048	-0.134
-696.470	-66.755	0.357	-0.143
-695.456	-7.986	-0.504	0.344
-694.441	-60.711	0.207	-0.089
-693.426	-199.808	0.210	-0.001
-692.412	196.662	0.144	-0.222
-691.397	128.441	-0.094	-0.122
-690.383	80.939	-0.045	0.049
-689.368	-200.000	0.008	-0.091
-688.354	-132.170	0.143	-0.019
-687.339	-35.523	0.174	0.096
-686.324	-135.102	-0.117	0.014
-685.310	27.440	0.334	-0.285
-684.295	-104.225	0.270	0.063
-683.281	-200.000	-0.035	-0.234
-682.266	-106.525	-0.176	-0.040
-681.251	-49.687	0.073	0.035
-680.237	60.531	-0.254	-0.255
-679.222	-200.000	-0.008	-0.095
-678.208	-4.302	0.228	0.159
-677.193	-23.682	0.041	-0.025
-676.178	255.460	0.159	-0.276
-675.164	-200.000	-0.024	-0.157
-674.149	-200.000	-0.026	0.167
-673.135	-147.699	-0.172	0.015
-672.120	378.242	-0.024	0.051
-671.105	800.000	0.040	-0.148
-670.091	-165.603	0.079	0.003
-669.076	-107.883	-0.167	-0.037
-668.062	-93.388	-0.275	0.077
-667.047	-56.511	0.298	-0.134
-666.032	-98.063	-0.054	0.014
-665.018	800.000	0.040	-0.174
-664.003	-77.363	-0.235	-0.083
-662.989	-16.571	0.306	-0.196
-661.974	-124.098	0.122	0.019
-660.959	-200.000	0.012	0.089
-659.945	572.439	0.071	0.175
-658.930	76.617	0.148	-0.158
-657.916	-200.000	-0.029	-0.246
-656.901	348.832	0.094	0.188
-655.886	-143.691	0.094	0.009
-654.872	-200.000	-0.002	0.537
-653.857	-136.553	-0.292	0.034
-652.843	-97.767	-0.204	-0.053
-651.828	38.835	-0.187	-0.169
-650.814	563.079	-0.108	0.265
-649.799	112.238	0.333	0.408
-648.784	-5.105	0.366	0.255
-647.770	-142.830	0.289	0.028
-646.755	481.380	0.140	0.322
-645.741	46.203	0.233	0.218
-644.726	-200.000	-0.002	0.397
-643.711	31.482	-0.343	-0.298
-642.697	-56.274	-0.449	0.202
-641.682	-200.000	-0.001	-0.064
-640.668	25.405	-0.098	-0.082
-639.653	-127.098	0.269	0.040
-638.638	-200.000	0.018	-0.134
-637.624	340.070	0.078	-0.155
-636.609	-151.283	0.075	-0.006
-635.595	-79.626	-0.541	-0.184
-634.580	-200.000	-0.032	-0.241
-633.565	-137.331	-0.046	-0.005
-632.551	9.466	0.113	-0.087
-631.536	52.635	0.190	0.184
-630.522	-123.056	-0.431	-0.070
-629.507	241.209	-0.255	-0.431
-628.492	-1.770	-0.169	-0.120
-627.478	-171.961	0.106	0.003
-626.463	282.271	-0.127	0.231
-625.449	506.646	-0.087	0.203
-624.434	-200.000	-0.035	-0.155
-623.419	72.819	-0.078	-0.083
-622.405	-91.702	0.162	-0.047
-621.390	107.239	0.082	0.098
-620.376	648.102	0.039	0.101
-619.361	402.547	0.032	0.067
-618.346	-93.054	0.162	-0.046
-617.332	-200.000	0.007	-0.098
-616.317	273.661	-0.099	-0.177
-615.303	-200.000	0.014	-0.371
-614.288	800.000	0.090	-0.258
-613.273	59.022	-0.045	0.044
-612.259	-23.226	-0.248	0.151
-611.244	-58.712	-0.179	-0.078
-610.230	-50.482	-0.218	0.104
-609.215	451.580	0.084	0.187
-608.201	-26.194	-0.157	0.093
-607.186	326.509	0.044	0.086
-606.171	-108.174	0.401	-0.088
-605.157	51.582	-0.159	0.152
-604.142	-200.000	0.054	0.322
-603.128	-38.692	-0.344	0.183
-602.113	11.761	0.161	-0.125
-601.098	-110.324	-0.261	0.055
-600.084	800.000	-0.049	0.210
-599.069	773.062	-0.059	0.163
-598.055	108.345	0.102	0.123
-597.040	-114.268	0.452	0.088
-596.025	-117.000	0.063	-0.012
-595.011	142.811	-0.120	-0.161
-593.996	578.989	-0.042	-0.105
-592.982	108.561	-0.182	-0.219
-591.967	414.989	-0.024	0.051
-590.952	295.609	0.097	0.180
-589.938	-56.533	0.172	-0.077
-588.923	-200.000	0.014	-0.336
-587.909	125.146	-0.094	-0.119
-586.894	22.073	0.138	0.113
-585.879	-47.529	0.257	-0.126
-584.865	-11.368	-0.087	-0.057
-583.850	800.000	-0.083	0.360
-582.836	220.977	-0.149	0.241
-581.821	-87.340	-0.372	0.114
-580.806	110.209	-0.041	-0.050
-579.792	185.932	0.227	-0.340
-578.777	-133.892	-0.304	-0.038
-577.763	800.000	-0.059	-0.181
-576.748	45.130	-0.069	-0.064
-575.733	-63.379	0.251	0.104
-574.719	-98.267	0.220	0.057
-573.704	-72.086	0.140	0.052
-572.690	-54.644	-0.119	0.054
-571.675	-200.000	-0.003	0.294
-570.661	52.284	-0.155	-0.149
-569.646	-72.004	0.318	-0.119
-568.631	-116.745	0.183	-0.034
-567.617	591.949	-0.077	0.191
-566.602	-174.165	0.230	-0.007
-565.588	-150.464	-0.144	-0.011
-564.573	-81.122	-0.237	0.079
-563.558	800.000	0.068	0.204
-562.544	213.465	0.087	0.139
-561.529	-200.000	0.001	0.105
-560.515	187.062	-0.170	0.255
-559.500	132.990	-0.002	-0.002
-558.485	800.000	0.105	-0.301
-557.471	-51.886	-0.377	-0.177
-556.456	-200.000	0.007	-0.121
-555.442	-200.000	0.022	-0.157
-554.427	-200.000	0.018	-0.187
-553.412	-200.000	0.019	0.134
-552.398	-81.278	-0.114	-0.038
-551.383	87.493	-0.163	0.181
-550.369	800.000	0.041	0.117
-549.354	-200.000	-0.026	0.265
-548.339	-200.000	-0.006	0.048
-547.325	-200.000	0.042	0.334
-546.310	-200.000	-0.016	-0.146
-545.296	427.982	-0.157	0.343
-544.281	217.318	-0.265	0.426
-543.266	-7.283	-0.236	0.161
-542.252	187.214	-0.178	0.268
-541.237	18.374	0.239	-0.192
-540.223	-23.815	0.102	0.061
-539.208	415.625	-0.048	-0.102
-538.193	-22.111	0.112	-0.069
-537.179	-200.000	-0.035	-0.185
-536.164	47.884	-0.177	0.167
-535.150	-86.800	-0.415	-0.128
-534.135	800.000	-0.133	0.407
-533.121	800.000	0.060	0.217
-532.106	-65.911	-0.141	0.057
-531.091	59.109	0.077	0.076
-530.077	16.498	0.297	0.236
-529.062	-75.139	0.466	-0.168
-528.048	-200.000	-0.026	-0.281
-527.033	-21.841	0.417	0.255
-526.018	800.000	0.019	0.078
-525.004	-83.782	-0.271	-0.087
-523.989	-200.000	-0.020	0.269
-522.975	148.922	0.144	-0.196
-521.960	-60.583	0.293	0.125
-520.945	-200.000	-0.064	0.327
-519.931	-10.962	0.258	0.171
-518.916	-98.791	-0.259	0.066
-517.902	197.535	-0.207	0.318
-516.887	231.529	-0.183	-0.301
-515.872	213.402	-0.140	-0.222
-514.858	-72.705	0.243	-0.090
-513.843	-48.234	-0.186	-0.090
-512.829	48.996	-0.288	-0.272
-511.814	-70.978	-0.123	-0.047
-510.799	800.000	0.153	0.434
-509.785	-69.874	-0.465	0.178
-508.770	-161.552	-0.146	0.008
-507.756	341.836	0.057	-0.111
-506.741	-27.241	-0.134	0.078
-505.726	-20.318	-0.061	-0.038
-504.712	-66.682	-0.243	-0.097
-503.697	-125.780	-0.186	-0.028
-502.683	-63.867	-0.039	-0.016
-501.668	-108.408	-0.067	-0.015
-500.653	706.160	0.059	-0.158
-499.639	83.706	-0.150	0.165
-498.624	17.960	-0.056	-0.045
-497.610	-6.632	-0.311	-0.213
-496.595	319.720	0.117	-0.223
-495.581	-63.389	-0.045	0.019
-494.566	-15.921	0.041	-0.026
-493.551	257.965	0.141	0.245
-492.537	-7.012	-0.094	0.064
-491.522	-187.696	0.084	0.001
-490.508	-63.164	-0.335	0.139
-489.493	-200.000	-0.029	-0.238
-488.478	-70.522	0.144	-0.055
-487.464	75.671	-0.226	-0.240
-486.449	-90.816	-0.261	-0.076
-485.435	-200.000	0.018	0.425
-484.420	44.429	-0.106	-0.098
-483.405	81.151	0.075	-0.081
-482.391	-61.657	0.180	0.076
-481.376	11.031	-0.315	0.242
-480.362	-83.718	-0.234	-0.075
-479.347	-200.000	0.018	-0.296
-478.332	-200.000	-0.020	0.257
-477.318	268.910	0.072	-0.126
-476.303	-62.396	0.237	-0.099
-475.289	4.705	0.357	0.263
-474.274	165.253	0.083	-0.117
-473.259	-50.603	-0.012	-0.006
-472.245	-190.462	0.017	-0.000
-471.230	637.529	0.074	0.189
-470.216	-136.830	0.285	0.033
-469.201	-177.090	-0.221	-0.006
-468.186	-107.478	-0.336	0.074
-467.172	71.663	0.061	-0.064
-466.157	758.538	-0.058	0.157
-465.143	800.000	-0.021	0.075
-464.128	768.842	-0.040	0.109
-463.113	175.528	0.186	-0.271
-462.099	-43.022	0.208	0.106
-461.084	-117.420	0.262	0.048
-460.070	-200.000	-0.003	0.155
-459.055	63.735	0.104	-0.105
-458.040	113.613	-0.129	-0.157
-457.026	-62.641	0.326	0.136
-456.011	493.462	0.063	0.145
-454.997	-52.372	-0.320	-0.149
-453.982	21.455	-0.304	-0.248
-452.968	-168.939	0.085	-0.003
-451.953	128.363	0.128	-0.164
-450.938	74.359	-0.326	-0.344
-449.924	11.895	0.281	0.216
-448.909	-101.949	-0.326	0.079
-447.895	-8.609	0.143	-0.097
-446.880	11.250	0.171	-0.131
-445.865	-200.000	0.011	-0.114
-444.851	800.000	0.087	0.249
-443.836	-74.167	0.118	-0.043
-442.822	404.318	-0.117	0.248
-441.807	247.260	0.198	-0.335
-440.792	332.042	0.006	-0.012
-439.778	103.628	-0.238	0.280
-438.763	-37.475	-0.056	0.030
-437.749	800.000	-0.025	-0.092
-436.734	-200.000	0.007	-0.266
-435.719	76.063	-0.240	0.255
-434.705	-127.987	0.386	-0.056
-433.690	25.893	0.166	-0.139
-432.676	103.305	-0.081	-0.095
-431.661	-116.330	0.177	0.033
-430.646	-200.000	0.008	0.120
-429.632	-200.000	-0.001	-0.114
-428.617	800.000	0.154	-0.502
-427.603	240.215	-0.106	0.177
-426.588	22.477	-0.287	-0.235
-425.573	162.364	0.211	0.296
-424.559	-2.940	-0.067	-0.047
-423.544	3.765	-0.106	0.078
-422.530	308.110	-0.074	0.138
-421.515	-150.959	0.077	-0.006
-420.500	-32.568	0.120	0.067
-419.486	800.000	-0.069	-0.293
-418.471	-4.866	0.221	-0.153
-417.457	-19.625	0.229	-0.142
-416.442	-49.249	0.152	0.073
-415.428	224.778	-0.131	-0.213
-414.413	-70.368	-0.416	-0.158
-413.398	-111.993	0.397	-0.080
-412.384	150.172	0.082	-0.112
-411.369	233.999	-0.143	-0.236
-410.355	-19.742	0.103	-0.064
-409.340	800.000	0.147	-0.461
-408.325	186.451	-0.193	-0.288
-407.311	-200.000	-0.063	-0.298
-406.296	-113.432	0.133	-0.026
-405.282	-25.878	-0.155	0.091
-404.267	-200.000	-0.046	-0.537
-403.252	-41.445	0.271	-0.140
-402.238	6.505	-0.127	-0.095
-401.223	-61.309	-0.052	-0.022
-400.209	73.910	0.158	-0.166
-399.194	-20.328	0.257	0.159
-398.179	224.999	-0.042	0.067
-397.165	-162.767	0.301	-0.015
-396.150	220.017	-0.142	-0.228
-395.136	800.000	0.038	0.159
-394.121	-200.000	0.047	0.273
-393.106	-122.733	0.149	-0.024
-392.092	139.900	-0.055	0.073
-391.077	-200.000	0.007	-0.296
-390.063	-2.674	0.138	-0.097
-389.048	-153.206	0.271	0.019
-388.033	129.599	0.058	-0.074
-387.019	-200.000	-0.015	-0.086
-386.004	308.562	0.107	0.201
-384.990	-187.760	0.257	0.003
-383.975	-200.000	0.020	-0.102
-382.960	-59.030	-0.088	0.038
-381.946	-31.709	0.080	-0.045
-380.931	-157.305	0.243	-0.015
-379.917	-200.000	0.063	-0.293
-378.902	-200.000	0.066	-0.548
-377.888	368.366	0.098	-0.198
-376.873	157.312	-0.109	0.151
-375.858	-72.535	0.315	-0.116
-374.844	-200.000	0.009	0.128
-373.829	-16.630	-0.153	-0.097
-372.815	276.750	-0.066	0.118
-371.800	-18.455	0.192	-0.120
-370.785	-147.817	0.386	0.032
-369.771	90.685	-0.159	0.178
-368.756	209.474	0.076	-0.120
-367.742	97.201	0.062	-0.071
-366.727	-85.017	0.074	-0.023
-365.712	-107.236	-0.103	-0.023
-364.698	283.903	0.065	-0.116
-363.683	73.314	-0.160	0.167
-362.669	-11.533	-0.217	0.143
-361.654	-119.586	0.201	0.035
-360.639	-158.811	-0.151	-0.009
-359.625	133.099	-0.072	-0.093
-358.610	157.639	0.074	0.103
-357.596	-1.900	0.090	0.063
-356.581	160.875	0.093	-0.129
-355.566	-100.627	0.149	0.037
-354.552	-200.000	-0.008	0.076
-353.537	12.417	-0.076	-0.059
-352.523	722.417	-0.065	-0.174
-351.508	-29.534	-0.081	0.046
-350.493	-123.585	0.153	-0.024
-349.479	-163.795	0.233	0.011
-348.464	364.826	-0.094	0.189
-347.450	174.137	0.121	0.175
-346.435	-27.039	-0.116	0.068
-345.420	264.314	-0.090	0.156
-344.406	-200.000	0.015	-0.194
-343.391	128.105	0.140	-0.178
-342.377	582.712	-0.051	-0.126
-341.362	694.050	-0.037	-0.097
-340.348	-200.000	-0.011	0.312
-339.333	34.799	-0.095	-0.083
-338.318	-200.000	-0.057	-0.410
-337.304	800.000	0.019	-0.072
-336.289	-38.210	-0.305	-0.162
-335.275	-118.261	0.197	-0.035
-334.260	8.317	-0.103	-0.077
-333.245	459.820	-0.084	0.186
-332.231	287.840	0.078	-0.142
-331.216	-61.969	0.251	-0.105
-330.202	-64.039	0.165	-0.067
-329.187	622.881	-0.218	0.548
-328.172	366.741	-0.152	0.307
-327.158	463.405	0.022	-0.049
-326.143	6.108	-0.120	-0.089
-325.129	615.133	0.146	-0.366
-324.114	-105.943	0.287	0.065
-323.099	800.000	-0.057	0.217
-322.085	412.657	-0.042	0.090
-321.070	-131.134	-0.053	0.007
-320.056	186.399	-0.117	0.174
-319.041	-90.403	0.284	0.082
-318.026	502.777	0.031	-0.071
-317.012	-151.488	-0.127	0.009
-315.997	259.319	0.081	0.139
-314.983	128.105	-0.182	-0.232
-313.968	-200.000	-0.009	-0.437
-312.953	-118.315	0.442	0.078
-311.939	125.245	0.168	0.211
-310.924	560.522	-0.131	-0.317
-309.910	-72.018	-0.303	0.112
-308.895	-177.670	0.573	0.014
-307.880	479.912	0.048	0.108
-306.866	-200.000	-0.004	0.149
-305.851	-167.455	0.196	0.008
-304.837	-22.434	-0.213	0.129
-303.822	-99.349	-0.148	0.037
-302.807	53.077	-0.315	0.301
-301.793	800.000	-0.024	-0.078
-300.778	113.569	0.137	-0.166
-299.764	-18.217	0.381	-0.238
-298.749	293.070	0.153	-0.278
-297.735	40.280	0.230	0.206
-296.720	-200.000	-0.011	0.240
-295.705	579.562	-0.150	-0.366
-294.691	-200.000	-0.005	0.141
-293.676	-200.000	0.043	0.354
-292.662	-200.000	0.005	-0.110
-291.647	-41.765	-0.294	0.151
-290.632	23.730	0.144	-0.118
-289.618	-78.159	-0.288	-0.099
-288.603	31.041	0.206	0.176
-287.589	-126.861	-0.140	-0.021
-286.574	-44.101	-0.061	-0.031
-285.559	-93.930	-0.307	0.084
-284.545	800.000	0.093	0.384
-283.530	528.223	0.020	0.047
-282.516	-200.000	0.016	-0.242
-281.501	95.633	-0.159	0.181
-280.486	-181.803	-0.400	-0.008
-279.472	680.379	0.103	0.269
-278.457	-46.001	0.259	0.127
-277.443	-31.170	0.257	-0.145
-276.428	-74.356	-0.030	-0.011
-275.413	-200.000	0.015	0.166
-274.399	328.220	-0.140	0.268
-273.384	-200.000	0.043	0.252
-272.370	144.656	0.112	-0.149
-271.355	-200.000	-0.013	0.335
-270.340	107.914	-0.050	-0.059
-269.326	-177.011	0.271	0.007
-268.311	-49.555	0.162	0.077
-267.297	202.129	-0.054	0.083
-266.282	-45.358	0.165	-0.082
-265.267	800.000	0.117	0.332
-264.253	-200.000	0.081	0.441
-263.238	-200.000	-0.020	0.355
-262.224	-200.000	0.017	-0.099
-261.209	185.181	-0.317	-0.468
-260.195	1.075	0.191	-0.136
-259.180	-200.000	0.053	-0.353
-258.165	-200.000	0.004	0.236
-257.151	643.797	-0.129	-0.327
-256.136	13.220	0.150	-0.116
-255.122	244.938	0.152	0.255
-254.107	139.678	-0.308	-0.404
-253.092	520.340	-0.120	0.281
-252.078	211.292	0.089	0.140
-251.063	220.770	-0.214	0.342
-250.049	800.000	-0.031	-0.085
-249.034	800.000	-0.032	-0.118
-248.019	-31.154	0.393	0.221
-247.005	297.553	-0.021	-0.038
-245.990	-76.360	-0.127	-0.045
-244.976	-103.406	0.102	0.024
-243.961	-103.510	-0.329	-0.077
-242.946	-200.000	-0.059	-0.273
-241.932	-135.448	-0.248	-0.029
-240.917	800.000	-0.123	-0.422
-239.903	15.106	0.327	0.255
-238.888	-2.330	-0.120	-0.083
-237.873	55.007	-0.061	-0.059
-236.859	-200.000	-0.023	-0.247
-235.844	-65.626	-0.352	0.140
-234.830	429.645	-0.117	-0.252
-233.815	-200.000	-0.026	-0.246
-232.800	227.510	-0.169	-0.273
-231.786	-12.598	-0.214	0.139
-230.771	327.960	-0.023	0.045
-229.757	800.000	-0.073	-0.266
-228.742	-200.000	-0.043	-0.221
-227.727	150.502	0.199	0.269
-226.713	-76.477	0.197	-0.069
-225.698	181.605	-0.099	-0.145
-224.684	-76.175	0.204	0.071
-223.669	18.353	0.272	0.216
-222.655	26.974	0.269	-0.224
-221.640	309.434	0.131	0.243
-220.625	-200.000	-0.023	0.304
-219.611	-115.514	-0.164	0.031
-218.596	-19.306	-0.325	0.200
-217.582	-200.000	-0.016	0.102
-216.567	800.000	-0.053	0.231
-215.552	243.486	-0.071	-0.119
-214.538	-14.341	0.204	0.131
-213.523	195.237	0.116	0.176
-212.509	311.164	-0.101	0.189
-211.494	-57.900	0.135	-0.059
-210.479	-119.760	-0.237	0.041
-209.465	-125.548	0.311	0.047
-208.450	-74.995	0.180	0.064
-207.436	-12.562	0.129	0.084
-206.421	-45.056	-0.206	-0.102
-205.406	-200.000	0.005	0.047
-204.392	-115.467	0.279	-0.052
-203.377	218.628	0.146	0.232
-202.363	-200.000	0.013	-0.088
-201.348	266.272	0.099	-0.171
-200.333	800.000	-0.027	0.106
-199.319	52.594	-0.058	0.055
-198.304	-200.000	-0.015	0.131
-197.290	21.606	0.164	-0.133
-196.275	-8.689	-0.402	0.268
-195.260	-200.000	-0.024	-0.185
-194.246	130.743	0.078	-0.100
-193.231	-20.969	0.170	0.103
-192.217	-114.192	0.316	-0.061
-191.202	22.870	0.114	0.093
-190.187	56.985	0.203	-0.196
-189.173	244.061	-0.116	-0.194
-188.158	-200.000	-0.018	-0.399
-187.144	53.183	0.199	0.189
-186.129	125.306	0.179	-0.224
-185.114	109.728	-0.156	0.185
-184.100	706.051	0.088	-0.230
-183.085	-83.038	-0.503	-0.161
-182.071	163.957	-0.178	0.249
-181.056	-200.000	0.016	-0.380
-180.042	-89.755	0.121	-0.035
-179.027	800.000	-0.042	0.117
-178.012	212.255	0.113	0.178
-176.998	-200.000	0.008	-0.118
-175.983	-53.403	0.125	0.057
-174.969	-157.875	0.148	-0.009
-173.954	-13.367	-0.077	-0.050
-172.939	800.000	-0.032	-0.115
-171.925	-59.545	-0.347	0.148
-170.910	-200.000	0.021	0.243
-169.896	-11.783	0.120	0.078
-168.881	95.838	-0.146	-0.165
-167.866	28.786	-0.110	-0.093
-166.852	361.322	-0.188	-0.374
-165.837	434.327	-0.073	-0.158
-164.823	145.794	-0.004	-0.005
-163.808	800.000	0.125	0.507
-162.793	-93.300	-0.404	0.111
-161.779	463.480	-0.117	-0.260
-160.764	-12.366	0.043	-0.028
-159.750	800.000	0.044	-0.183
-158.735	-61.836	0.064	0.027
-157.720	318.316	-0.028	-0.052
-156.706	800.000	-0.019	-0.072
-155.691	-88.747	-0.211	-0.062
-154.677	800.000	-0.087	0.279
-153.662	-67.813	0.119	-0.046
-152.647	-95.663	0.167	-0.044
-151.633	-133.555	-0.340	0.042
-150.618	288.333	-0.040	0.071
-149.604	69.440	0.318	0.325
-148.589	-31.843	-0.196	-0.109
-147.574	-184.888	-0.059	-0.001
-146.560	-85.468	0.211	-0.065
-145.545	-107.679	0.256	0.055
-144.531	-190.863	0.050	-0.001
-143.516	-200.000	0.047	-0.263
-142.502	132.780	0.153	-0.195
-141.487	28.153	-0.176	0.148
-140.472	138.369	-0.068	-0.088
-139.458	383.109	-0.044	0.090
-138.443	-200.000	0.017	0.191
-137.429	-154.713	0.183	-0.012
-136.414	496.752	-0.043	0.099
-135.399	179.168	0.091	-0.132
-134.385	479.892	0.099	0.223
-133.370	-117.859	0.243	-0.043
-132.356	-18.139	-0.276	0.171
-131.341	-44.602	0.363	-0.180
-130.326	174.364	-0.060	0.086
-129.312	-32.110	0.135	0.075
-128.297	249.079	-0.168	0.283
-127.283	-142.536	0.150	-0.015
-126.268	-101.440	0.320	-0.077
-125.253	-200.000	0.015	0.237
-124.239	256.805	-0.149	-0.254
-123.224	-200.000	0.006	-0.114
-122.210	1.605	-0.233	0.166
-121.195	-161.036	0.136	0.007
-120.180	-15.398	0.137	-0.087
-119.166	-33.383	0.250	0.137
-118.151	-200.000	0.008	-0.080
-117.137	-200.000	-0.043	-0.249
-116.122	314.210	0.067	-0.124
-115.107	-200.000	0.045	-0.250
-114.093	125.247	0.070	0.088
-113.078	702.143	0.138	0.359
-112.064	-128.070	-0.157	-0.022
-111.049	-156.187	0.174	-0.011
-110.034	345.455	0.133	0.258
-109.020	-69.116	0.216	0.082
-108.005	-39.244	0.172	0.089
-106.991	-130.085	0.395	0.053
-105.976	-200.000	0.006	0.243
-104.962	55.253	0.242	-0.231
-103.947	-200.000	0.004	-0.202
-102.932	-84.844	-0.166	-0.052
-101.918	-200.000	-0.068	-0.402
-100.903	-174.114	0.135	-0.004
-99.889	42.909	-0.301	-0.272
-98.874	-78.191	-0.194	-0.066
-97.859	-84.127	-0.384	0.121
-96.845	-109.895	0.352	-0.073
-95.830	-200.000	0.021	-0.193
-94.816	800.000	0.139	0.519
-93.801	538.476	0.046	0.109
-92.786	-47.425	-0.167	-0.080
-91.772	206.713	-0.120	0.185
-90.757	800.000	-0.012	-0.041
-89.743	-65.485	-0.194	0.077
-88.728	-187.065	0.510	0.007
-87.713	-123.648	0.118	-0.018
-86.699	655.833	-0.094	-0.238
-85.684	-99.158	-0.210	0.052
-84.670	800.000	0.036	-0.115
-83.655	-175.411	0.173	-0.005
-82.640	-93.844	0.175	0.048
-81.626	134.847	-0.114	0.146
-80.611	259.476	0.108	-0.185
-79.597	-100.939	0.256	-0.062
-78.582	-101.384	0.195	-0.047
-77.567	254.573	-0.095	-0.160
-76.553	-137.537	-0.398	0.044
-75.538	58.457	0.166	-0.161
-74.524	-64.541	0.060	-0.024
-73.509	-92.004	0.617	-0.173
-72.494	-53.395	0.267	-0.121
-71.480	53.480	0.227	-0.216
-70.465	652.794	-0.215	-0.545
-69.451	-176.673	-0.132	-0.003
-68.436	800.000	-0.042	0.121
-67.422	-200.000	-0.110	0.545
-66.407	-49.727	0.084	0.040
-65.392	-200.000	-0.030	0.191
-64.378	-123.359	0.169	0.027
-63.363	79.994	0.012	-0.012
-62.349	8.448	0.113	-0.084
-61.334	67.561	-1.005	-1.015
-60.319	-54.462	0.737	0.330
-59.305	800.000	-0.277	-1.071
-58.290	269.084	0.579	1.003
-57.276	525.560	0.648	1.509
-56.261	-200.000	95.656	543.338
-55.246	496.779	1419.108	3225.622
-54.232	145.925	2639.077	3496.995
-53.217	108.758	2237.404	2641.955
-52.203	44.432	1761.907	1599.009
-51.188	37.450	1570.528	1376.079
-50.173	35.103	1542.887	1335.460
-49.159	52.062	1592.105	1498.680
-48.144	55.232	1610.545	1538.469
-47.130	37.886	1567.421	1376.212
-46.115	34.777	1551.969	1340.821
-45.100	34.471	1549.133	1336.172
-44.086	34.404	1547.469	1334.219
-43.071	34.462	1544.893	1332.347
-42.057	34.384	1543.436	1330.494
-41.042	34.358	1542.093	1329.099
-40.027	34.409	1540.971	1328.435
-39.013	34.450	1539.026	1326.990
-37.998	34.419	1537.834	1325.695
-36.984	34.405	1536.700	1324.566
-35.969	34.426	1535.043	1323.236
-34.954	34.356	1533.615	1321.468
-33.940	34.421	1531.897	1320.382
-32.925	34.512	1530.396	1319.669
-31.911	34.423	1529.536	1318.255
-30.896	34.475	1528.365	1317.554
-29.881	34.430	1526.979	1316.000
-28.867	34.404	1525.296	1314.316
-27.852	34.597	1523.631	1314.160
-26.838	34.540	1521.956	1312.271
-25.823	34.507	1520.823	1311.011
-24.809	34.455	1519.358	1309.341
-23.794	34.526	1517.933	1308.545
-22.779	34.393	1517.012	1306.791
-21.765	34.464	1515.888	1306.255
-20.750	34.501	1514.420	1305.195
-19.736	34.465	1513.873	1304.423
-18.721	34.534	1512.374	1303.550
-17.706	34.436	1511.327	1301.931
-16.692	34.451	1509.982	1300.818
-15.677	34.471	1509.106	1300.150
-14.663	34.418	1508.049	1298.825
-13.648	34.418	1507.247	1298.087
-12.633	34.463	1506.537	1297.728
-11.619	34.387	1505.690	1296.426
-10.604	34.400	1504.754	1295.663
-9.590	34.375	1504.154	1294.923
-8.575	34.353	1503.597	1294.245
-7.560	34.445	1502.190	1293.607
-6.546	34.467	1500.939	1292.627
-5.531	34.318	1500.384	1291.083
-4.517	34.437	1498.948	1290.606
-3.502	34.400	1497.751	1289.273
-2.487	34.280	1497.516	1288.204
-1.473	34.395	1496.012	1287.636
-0.458	34.391	1494.517	1286.275
0.556	33.242	1484.699	1274.979
1.571	29.772	1457.096	1228.168
2.586	25.314	1392.249	1145.046
3.600	22.969	1304.791	1058.986
4.615	21.200	1257.097	1009.965
5.629	17.978	1200.540	946.612
6.644	9.471	1111.895	832.799
7.659	2.050	1068.325	763.097
8.673	0.866	1061.992	752.619
9.688	0.617	1059.270	749.385
10.702	0.624	1057.725	748.260
11.717	0.564	1056.335	746.916
12.731	3.163	1058.936	761.566
13.746	11.377	1070.491	810.768
14.761	17.300	1077.127	845.255
15.775	17.505	1077.007	846.108
16.790	16.890	1074.777	841.230
17.804	15.911	1072.402	834.447
18.819	15.121	1070.645	829.095
19.834	14.596	1069.326	825.403
20.848	14.227	1068.414	822.806
21.863	13.909	1067.700	820.612
22.877	13.782	1066.632	819.092
23.892	13.400	1065.996	816.646
24.907	13.491	1065.301	816.487
25.921	13.421	1064.334	815.329
26.936	13.379	1063.924	814.735
27.950	13.510	1062.739	814.404
28.965	13.477	1062.649	814.100
29.980	13.642	1061.034	813.599
30.994	13.710	1060.451	813.415
32.009	13.669	1059.548	812.449
33.023	13.720	1058.446	811.780
34.038	13.723	1057.958	811.351
35.053	13.721	1057.150	810.649
36.067	13.711	1056.182	809.786
37.082	13.665	1055.049	808.623
38.096	13.736	1054.508	808.482
39.111	13.674	1053.975	807.698
40.126	13.780	1053.129	807.493
41.140	13.675	1051.753	805.860
42.155	13.486	1050.741	804.095
43.169	13.479	1050.182	803.560
44.184	13.481	1048.794	802.436
45.199	13.572	1047.563	801.867
46.213	13.580	1046.985	801.390
47.228	13.538	1045.815	800.223
48.242	13.610	1044.551	799.532
49.257	13.609	1044.144	799.141
50.271	13.518	1043.237	797.941
51.286	13.636	1042.233	797.668
52.301	13.631	1041.150	796.744
53.315	13.519	1041.053	796.064
54.330	13.562	1039.997	795.393
55.344	13.575	1039.031	794.645
56.359	13.543	1038.155	793.752
57.374	13.521	1037.352	792.960
58.388	13.522	1036.494	792.240
59.403	13.393	1035.936	791.129
60.417	13.480	1034.946	790.717
61.432	13.370	1034.330	789.650
62.447	13.575	1033.352	789.811
63.461	13.408	1032.873	788.582
64.476	13.513	1031.591	788.032
65.490	13.458	1030.679	787.005
66.505	13.351	1030.133	786.010
67.520	13.466	1029.348	785.885
68.534	13.451	1028.465	785.073
69.549	13.331	1028.044	784.109
70.563	13.480	1026.948	783.911
71.578	13.424	1026.383	783.145
72.593	13.447	1025.278	782.343
73.607	13.431	1024.229	781.399
74.622	13.402	1023.550	780.672
75.636	13.193	1023.002	779.202
76.651	13.295	1022.001	778.850
77.666	13.386	1021.487	778.817
78.680	13.411	1020.363	778.009
79.695	13.345	1020.132	777.456
80.709	13.355	1019.972	777.307
81.724	13.403	1018.870	776.625
82.739	13.412	1017.898	775.861
83.753	13.530	1017.195	775.808
84.768	13.510	1015.525	774.370
85.782	13.579	1015.277	774.437
86.797	13.713	1014.493	774.396
87.812	13.707	1013.819	773.783
88.826	13.592	1012.737	772.354
89.841	13.633	1011.733	771.712
90.855	13.566	1011.132	770.874
91.870	13.625	1010.105	770.295
92.884	13.644	1009.942	770.190
93.899	13.646	1009.125	769.510
94.914	13.759	1007.782	768.944
95.928	13.661	1007.635	768.305
96.943	13.617	1006.697	767.320
97.957	13.571	1006.407	766.820
98.972	13.682	1005.003	766.196
99.987	13.652	1004.563	765.652
101.001	13.596	1003.940	764.852
102.016	13.801	1002.714	764.792
103.030	13.807	1001.639	763.934
104.045	13.691	1000.947	762.803
105.060	13.687	1000.092	762.069
106.074	13.653	999.374	761.298
107.089	13.529	998.773	760.203
108.103	13.547	997.609	759.331
109.118	13.530	996.511	758.349
110.133	13.544	995.785	757.796
111.147	13.499	994.727	756.717
112.162	13.483	993.880	755.933
113.176	13.440	993.342	755.264
114.191	13.670	991.967	755.197
115.206	13.704	991.201	754.701
116.220	13.555	990.874	753.710
117.235	13.692	989.291	753.059
118.249	13.566	989.185	752.341
119.264	13.598	987.836	751.392
120.279	13.667	987.338	751.259
121.293	13.559	986.283	749.901
122.308	13.538	985.184	748.907
123.322	13.543	984.447	748.299
124.337	13.509	983.576	747.419
125.352	13.592	982.251	746.719
126.366	13.518	981.628	745.848
127.381	13.560	980.431	745.059
128.395	13.402	979.680	743.717
129.410	13.431	978.762	743.081
130.424	13.572	977.916	743.005
131.439	13.630	976.662	742.248
132.454	13.565	976.088	741.456
133.468	13.654	975.359	741.231
134.483	13.515	975.082	740.337
135.497	13.565	974.384	739.964
136.512	13.582	973.589	739.370
137.527	13.727	972.321	738.990
138.541	13.648	971.682	738.083
139.556	13.627	970.888	737.323
140.570	13.637	970.268	736.831
141.585	13.709	968.913	736.055
142.600	13.714	968.485	735.689
143.614	13.784	967.794	735.409
144.629	13.780	966.883	734.633
145.643	13.799	966.129	734.079
146.658	13.758	965.339	733.236
147.673	13.719	964.581	732.421
148.687	13.755	963.494	731.691
149.702	13.610	962.815	730.471
150.716	13.742	961.755	730.183
151.731	13.691	961.069	729.374
152.746	13.678	960.348	728.705
153.760	13.746	959.963	728.646
154.775	13.886	958.706	728.244
155.789	13.803	958.061	727.325
156.804	13.839	957.233	726.788
157.819	13.863	956.643	726.383
158.833	13.804	955.875	725.475
159.848	13.849	954.957	724.912
160.862	13.986	954.397	725.019
161.877	13.866	953.712	723.911
162.892	13.826	952.741	722.939
163.906	13.750	952.027	722.002
164.921	13.869	951.205	721.832
165.935	13.730	950.339	720.505
166.950	13.842	949.376	720.200
167.964	13.902	948.255	719.543
168.979	13.964	946.957	718.762
169.994	13.816	946.125	717.429
171.008	13.800	945.499	716.821
172.023	13.886	944.868	716.650
173.037	13.889	943.930	715.889
174.052	14.015	943.312	715.901
175.067	13.995	942.786	715.349
176.081	13.882	941.827	714.076
177.096	13.907	941.059	713.535
178.110	13.924	940.144	712.854
179.125	13.866	939.646	712.165
180.140	13.880	938.850	711.555
181.154	13.889	937.819	710.753
182.169	14.107	937.353	711.269
183.183	14.048	936.957	710.652
184.198	14.110	935.844	710.010
185.213	14.091	935.226	709.398
186.227	14.151	934.853	709.305
187.242	14.052	934.636	708.658
188.256	14.130	933.435	708.015
189.271	14.291	932.638	708.035
190.286	14.111	932.104	706.800
191.300	14.050	931.172	705.773
192.315	14.062	930.580	705.311
193.329	14.025	929.812	704.512
194.344	14.029	929.022	703.869
195.359	13.977	928.727	703.360
196.373	14.071	928.187	703.287
197.388	14.106	927.566	702.901
198.402	14.164	926.956	702.625
199.417	14.176	926.583	702.329
200.432	14.297	926.233	702.513
201.446	14.230	926.039	702.018
202.461	14.407	925.288	702.133
203.475	14.424	924.703	701.699
204.490	14.401	923.893	700.926
205.504	14.341	923.132	700.036
206.519	14.291	922.301	699.132
207.534	14.337	921.471	698.634
208.548	14.389	920.803	698.285
209.563	14.381	919.876	697.488
210.577	14.372	919.477	697.085
211.592	14.415	918.630	696.560
212.607	14.421	918.033	696.071
213.621	14.410	917.778	695.770
214.636	14.579	916.591	695.511
215.650	14.485	915.616	694.322
216.665	14.510	915.225	694.067
217.680	14.583	914.806	693.991
218.694	14.657	914.279	693.838
219.709	14.609	913.920	693.302
220.723	14.606	913.324	692.780
221.738	14.620	912.731	692.324
222.753	14.625	911.620	691.443
223.767	14.416	911.386	690.336
224.782	14.667	910.125	690.361
225.796	14.652	909.499	689.761
226.811	14.817	908.786	689.841
227.826	14.801	907.856	689.008
228.840	14.599	907.704	687.999
229.855	14.710	906.583	687.544
230.869	14.670	906.122	686.969
231.884	14.677	905.452	686.431
232.899	14.633	905.122	685.937
233.913	14.681	903.940	685.179
234.928	14.586	903.825	684.642
235.942	14.655	902.739	684.040
236.957	14.668	902.066	683.525
237.972	14.585	901.857	682.964
238.986	14.660	900.944	682.518
240.001	14.757	900.149	682.252
241.015	14.742	899.256	681.453
242.030	14.694	898.876	680.910
243.045	14.801	897.867	680.522
244.059	14.909	897.467	680.598
245.074	14.978	896.351	679.973
246.088	14.914	896.221	679.552
247.103	14.900	895.572	678.946
248.117	14.830	895.361	678.440
249.132	15.028	894.292	678.375
250.147	15.015	893.858	677.930
251.161	15.127	892.832	677.546
252.176	15.200	891.975	677.132
253.190	14.981	891.896	676.125
254.205	15.106	891.302	676.122
255.220	15.017	890.723	675.265
256.234	15.055	890.155	674.927
257.249	15.138	889.185	674.466
258.263	15.195	889.058	674.538
259.278	15.307	888.200	674.276
260.293	15.382	887.098	673.682
261.307	15.251	886.771	672.848
262.322	15.232	886.344	672.390
263.336	15.411	885.642	672.517
264.351	15.352	885.400	672.037
265.366	15.412	884.652	671.647
266.380	15.295	883.983	670.611
267.395	15.306	883.110	669.936
268.409	15.324	882.425	669.428
269.424	15.338	881.613	668.808
270.439	15.502	881.028	668.961
271.453	15.532	879.973	668.219
272.468	15.321	879.779	667.174
273.482	15.343	878.530	666.254
274.497	15.483	878.390	666.645
275.512	15.446	877.591	665.832
276.526	15.310	876.978	664.768
277.541	15.391	876.348	664.552
278.555	15.414	875.760	664.140
279.570	15.548	874.924	663.978
280.585	15.527	874.559	663.558
281.599	15.706	874.015	663.795
282.614	15.552	873.487	662.727
283.628	15.749	872.445	662.652
284.643	15.606	872.241	661.875
285.657	15.620	871.881	661.600
286.672	15.657	871.338	661.274
287.687	15.667	870.798	660.846
288.701	15.634	870.309	660.286
289.716	15.701	869.545	659.912
290.730	15.781	868.738	659.553
291.745	15.702	868.075	658.682
292.760	15.736	867.473	658.301
293.774	15.815	866.484	657.799
294.789	15.655	866.587	657.197
295.803	15.924	865.629	657.461
296.818	15.781	865.075	656.425
297.833	15.887	864.486	656.333
298.847	15.703	863.789	655.027
299.862	15.796	863.239	654.918
300.876	15.870	862.253	654.398
301.891	15.913	861.636	654.039
302.906	15.855	860.778	653.103
303.920	15.883	860.415	652.879
304.935	15.910	859.571	652.285
305.949	16.101	858.959	652.504
306.964	15.988	858.450	651.620
307.979	15.862	858.086	650.799
308.993	16.080	857.500	651.139
310.008	16.100	856.564	650.448
311.022	16.075	856.041	649.899
312.037	16.226	855.526	650.030
313.052	16.168	855.343	649.612
314.066	16.095	854.435	648.584
315.081	16.063	853.915	648.010
316.095	16.137	853.634	648.022
317.110	15.987	853.467	647.262
318.125	15.948	852.888	646.617
319.139	16.047	851.975	646.246
320.154	15.968	851.716	645.688
321.168	15.985	851.446	645.494
322.183	16.248	850.454	645.692
323.197	16.132	850.041	644.874
324.212	16.110	849.674	644.456
325.227	16.180	849.123	644.250
326.241	16.127	847.987	643.127
327.256	16.280	847.447	643.244
328.270	16.278	846.707	642.617
329.285	16.038	846.368	641.390
330.300	16.120	845.884	641.278
331.314	16.083	845.451	640.755
332.329	16.211	844.709	640.622
333.343	16.368	844.012	640.629
334.358	16.246	843.429	639.669
335.373	16.407	842.934	639.846
336.387	16.444	842.412	639.532
337.402	16.313	842.106	638.748
338.416	16.377	841.292	638.319
339.431	16.402	840.835	638.010
340.446	16.430	840.256	637.618
341.460	16.501	839.602	637.333
342.475	16.494	839.158	636.915
343.489	16.632	838.532	636.903
344.504	16.509	838.112	636.062
345.519	16.572	837.268	635.601
346.533	16.493	836.992	635.042
347.548	16.528	836.223	634.533
348.562	16.783	835.617	634.971
349.577	16.625	835.200	634.007
350.592	16.542	834.870	633.389
351.606	16.534	834.518	633.038
352.621	16.573	833.941	632.690
353.635	16.664	833.534	632.664
354.650	16.619	833.319	632.277
355.665	16.753	832.577	632.159
356.679	16.660	832.268	631.522
357.694	16.658	831.724	631.047
358.708	16.697	831.029	630.606
359.723	16.765	830.227	630.195
360.738	16.530	830.089	629.159
361.752	16.619	829.459	628.959
362.767	16.747	829.149	629.142
363.781	16.925	828.550	629.293
364.796	16.876	828.106	628.719
365.810	16.894	827.649	628.382
366.825	16.763	827.476	627.710
367.840	16.914	826.761	627.670
368.854	16.993	826.301	627.561
369.869	16.975	825.991	627.202
370.883	16.905	825.553	626.555
371.898	16.963	824.850	626.180
372.913	16.963	824.070	625.533
373.927	16.938	823.489	624.944
374.942	17.130	822.770	625.050
375.956	16.985	822.594	624.327
376.971	17.133	821.338	623.864
377.986	17.102	821.446	623.777
379.000	17.087	820.720	623.114
380.015	17.216	820.154	623.102
381.029	17.195	819.706	622.632
382.044	17.095	819.555	622.095
383.059	17.140	818.889	621.697
384.073	17.063	817.984	620.674
385.088	17.287	817.521	621.086
386.102	17.276	816.978	620.578
387.117	17.124	816.597	619.679
388.132	17.129	816.127	619.288
389.146	17.211	815.813	619.292
390.161	17.296	815.396	619.232
391.175	17.295	814.673	618.624
392.190	17.381	814.205	618.526
393.205	17.317	814.239	618.266
394.219	17.258	813.704	617.590
395.234	17.378	812.683	617.195
396.248	17.290	812.190	616.448
397.263	17.434	811.587	616.455
398.278	17.115	811.584	615.244
399.292	17.318	811.284	615.696
400.307	17.362	810.766	615.408
401.321	17.351	810.413	615.045
402.336	17.344	810.060	614.699
403.350	17.343	809.499	614.214
404.365	17.485	808.896	614.214
405.380	17.390	808.623	613.613
406.394	17.378	808.239	613.222
407.409	17.498	807.706	613.196
408.423	17.485	807.507	612.945
409.438	17.496	806.515	612.176
410.453	17.628	806.276	612.414
411.467	17.719	805.546	612.132
412.482	17.591	805.592	611.652
413.496	17.685	804.865	611.383
414.511	17.728	804.555	611.250
415.526	17.779	804.124	611.051
416.540	17.627	803.886	610.270
417.555	17.675	803.379	610.005
418.569	17.738	802.792	609.730
419.584	17.913	802.307	609.932
420.599	17.848	801.764	609.235
421.613	105.580	1284.739	1448.995
422.628	90.810	1355.126	1449.108
