DTS Sentinel unit serial number:	SN413079Multiplexer serial number:	ORYXHardware model number:	OX4-SRSoftware version number:	ORYX F/W v4.00 Oryx Data Collector v3.7.2.0data status	okinstallation	princeton_trtdifferential loss correction	single-endedforward channel	channel 3reverse channel	N/Adate	2019/09/15time	03:44:35forward acquisition time	60.00reverse acquisition time	0.00gamma	496.2192k internal	0.2323k external	0.2323temperature offset calibration	0.9965default loss term (dB/km)	0.3790temperature slope calibration	1.0000multiplexer offset coefficient	1.0000multiplexer slope coefficient	1.0000fibre end	0.00T internal ref (°C)	30.98T ext. ref 1 (°C)	4.60T ext. ref 2 (°C)	25.92length (m)	temperature (°C)	Stokes	anti-Stokes-747.200	401.951	0.073	0.154
-746.185	71.361	-0.064	-0.068
-745.171	-33.921	0.254	-0.141
-744.156	-112.616	-0.326	0.066
-743.142	-18.320	0.359	-0.227
-742.127	800.000	-0.116	0.326
-741.112	800.000	-0.033	0.133
-740.098	800.000	-0.094	0.325
-739.083	228.089	0.151	0.249
-738.069	-200.000	-0.044	0.343
-737.054	800.000	0.103	-0.294
-736.039	-130.478	-0.322	0.044
-735.025	-50.433	0.302	-0.144
-734.010	-200.000	-0.040	-0.347
-732.996	7.734	0.153	-0.116
-731.981	229.114	0.088	-0.146
-730.966	-106.620	0.216	0.049
-729.952	-9.430	-0.206	0.139
-728.937	-200.000	-0.034	-0.201
-727.923	28.063	-0.390	-0.332
-726.908	-20.343	-0.178	-0.111
-725.894	-22.869	-0.143	-0.087
-724.879	18.021	-0.202	-0.163
-723.864	382.082	-0.070	-0.146
-722.850	226.549	0.187	-0.306
-721.835	603.028	-0.065	-0.162
-720.821	-200.000	0.020	0.305
-719.806	-85.733	-0.073	-0.023
-718.791	55.660	-0.015	0.015
-717.777	-57.496	-0.231	-0.102
-716.762	-200.000	0.125	0.598
-715.748	378.597	-0.172	0.356
-714.733	90.079	0.143	0.161
-713.718	-78.885	-0.391	-0.134
-712.704	-87.303	0.323	-0.099
-711.689	351.567	0.123	-0.245
-710.675	-29.860	-0.099	0.057
-709.660	21.176	-0.227	0.186
-708.645	68.164	0.236	0.244
-707.631	-126.292	-0.124	-0.019
-706.616	444.763	-0.131	-0.290
-705.602	-101.966	-0.172	0.042
-704.587	-154.822	0.331	0.022
-703.572	43.702	0.128	-0.118
-702.558	191.705	0.107	0.162
-701.543	-52.815	-0.059	-0.027
-700.529	-21.199	0.050	0.031
-699.514	-10.314	-0.218	-0.146
-698.499	-200.000	-0.019	-0.219
-697.485	-55.867	-0.190	-0.086
-696.470	-200.000	-0.005	0.127
-695.456	87.573	-0.130	0.145
-694.441	69.086	0.321	0.332
-693.426	-91.616	-0.167	-0.048
-692.412	219.016	-0.006	-0.010
-691.397	-37.730	-0.132	-0.071
-690.383	-110.339	-0.262	-0.055
-689.368	-200.000	-0.002	0.075
-688.354	200.333	-0.217	0.335
-687.339	-167.445	-0.232	-0.009
-686.324	192.970	0.100	0.153
-685.310	-158.758	0.260	0.015
-684.295	116.804	0.118	-0.146
-683.281	249.644	0.163	-0.279
-682.266	390.841	-0.096	0.201
-681.251	-200.000	0.016	0.316
-680.237	-11.518	0.080	0.053
-679.222	-200.000	-0.371	0.001
-678.208	-121.960	-0.233	0.039
-677.193	-45.715	-0.198	0.098
-676.178	800.000	0.054	-0.170
-675.164	-29.779	-0.146	0.084
-674.149	11.688	0.226	-0.175
-673.135	119.827	0.089	0.111
-672.120	800.000	0.023	-0.086
-671.105	-200.000	-0.022	-0.166
-670.091	-22.616	0.195	0.119
-669.076	-200.000	-0.029	0.254
-668.062	-160.262	-0.252	-0.014
-667.047	68.081	-0.203	0.210
-666.032	78.949	0.061	0.065
-665.018	163.492	-0.120	-0.170
-664.003	-122.436	-0.053	0.009
-662.989	-86.371	0.060	0.019
-661.974	34.510	-0.270	-0.237
-660.959	609.004	0.133	-0.335
-659.945	40.587	0.089	-0.081
-658.930	-143.730	-0.164	-0.016
-657.916	490.086	-0.137	-0.315
-656.901	295.054	-0.053	0.097
-655.886	151.470	-0.105	-0.144
-654.872	617.586	-0.174	0.438
-653.857	-11.496	0.010	-0.007
-652.843	247.937	-0.206	0.350
-651.828	-1.761	-0.249	-0.177
-650.814	73.882	0.246	-0.259
-649.799	318.267	-0.156	-0.297
-648.784	755.356	-0.029	0.079
-647.770	156.453	0.043	-0.060
-646.755	-91.591	-0.096	0.027
-645.741	-200.000	-0.050	0.247
-644.726	-120.314	-0.100	0.017
-643.711	-110.771	-0.034	-0.007
-642.697	-197.146	0.136	0.001
-641.682	242.479	0.024	0.041
-640.668	-65.442	-0.114	0.046
-639.653	66.746	0.274	-0.280
-638.638	-22.023	0.241	0.147
-637.624	-78.195	-0.252	-0.087
-636.609	-58.696	-0.086	0.037
-635.595	446.935	-0.040	0.089
-634.580	-200.000	0.029	-0.247
-633.565	-200.000	-0.012	-0.069
-632.551	-200.000	-0.055	-0.255
-631.536	-31.551	-0.215	-0.121
-630.522	-112.141	0.124	-0.025
-629.507	-200.000	0.007	-0.204
-628.492	-200.000	0.017	-0.081
-627.478	-35.699	-0.090	0.049
-626.463	-192.845	0.099	-0.001
-625.449	343.447	-0.091	-0.180
-624.434	147.116	0.186	-0.251
-623.419	800.000	0.125	-0.402
-622.405	484.687	-0.085	-0.195
-621.390	-81.402	0.107	0.035
-620.376	-44.820	-0.258	-0.130
-619.361	342.977	-0.091	-0.179
-618.346	-200.000	-0.003	-0.281
-617.332	-109.468	0.143	-0.030
-616.317	28.598	0.169	0.144
-615.303	-135.105	-0.245	-0.030
-614.288	-58.654	-0.172	-0.075
-613.273	706.459	-0.128	-0.339
-612.259	-200.000	0.036	-0.245
-611.244	98.438	-0.258	-0.299
-610.230	-118.417	-0.061	0.011
-609.215	133.143	0.090	0.117
-608.201	-75.738	0.101	0.036
-607.186	527.364	-0.026	0.061
-606.171	800.000	0.084	-0.309
-605.157	26.926	-0.158	0.133
-604.142	-112.824	-0.145	-0.029
-603.128	59.211	-0.128	-0.127
-602.113	-154.364	-0.073	-0.005
-601.098	-59.364	0.033	-0.014
-600.084	50.086	0.122	0.116
-599.069	656.691	0.025	0.063
-598.055	-36.973	0.143	-0.077
-597.040	-146.187	0.443	0.039
-596.025	800.000	-0.118	-0.330
-595.011	-49.730	0.044	-0.021
-593.996	236.006	-0.032	0.053
-592.982	214.440	0.074	0.118
-591.967	78.008	-0.161	0.173
-590.952	800.000	-0.108	-0.374
-589.938	-18.612	0.083	-0.052
-588.923	800.000	-0.022	-0.081
-587.909	70.746	-0.374	-0.388
-586.894	-165.876	0.133	0.006
-585.879	800.000	0.035	-0.109
-584.865	263.905	0.030	-0.052
-583.850	14.451	-0.371	0.290
-582.836	69.513	-0.012	0.012
-581.821	-94.578	0.022	-0.006
-580.806	782.730	0.074	0.204
-579.792	800.000	0.022	0.092
-578.777	-120.626	-0.168	-0.029
-577.763	-200.000	0.013	-0.356
-576.748	117.777	0.038	0.047
-575.733	-126.239	0.252	-0.038
-574.719	800.000	-0.045	0.172
-573.704	61.012	0.192	-0.191
-572.690	134.231	-0.094	0.122
-571.675	245.626	0.105	0.178
-570.661	-52.457	0.259	0.120
-569.646	-200.000	0.011	0.157
-568.631	-131.752	-0.406	0.053
-567.617	60.734	0.094	-0.093
-566.602	409.720	0.113	0.240
-565.588	687.199	0.087	0.228
-564.573	349.967	-0.035	0.069
-563.558	139.084	0.134	0.177
-562.544	-200.000	-0.036	-0.302
-561.529	-134.867	0.214	-0.026
-560.515	-93.024	-0.447	0.125
-559.500	-93.264	0.341	-0.095
-558.485	-200.000	0.010	0.147
-557.471	-47.648	-0.337	0.164
-556.456	-9.362	0.052	-0.035
-555.442	79.807	0.136	0.146
-554.427	-110.726	-0.284	0.059
-553.412	-110.457	-0.198	0.041
-552.398	-1.160	0.104	-0.074
-551.383	800.000	0.073	-0.204
-550.369	800.000	0.042	0.161
-549.354	42.746	-0.094	0.086
-548.339	-155.248	-0.251	-0.016
-547.325	763.577	-0.038	0.102
-546.310	-60.467	0.313	0.133
-545.296	-24.592	-0.171	0.102
-544.281	-200.000	-0.016	0.083
-543.266	800.000	0.166	0.489
-542.252	97.120	-0.089	-0.102
-541.237	-102.471	-0.038	0.009
-540.223	337.894	0.141	-0.274
-539.208	-200.000	-0.015	0.127
-538.193	-137.067	0.400	-0.046
-537.179	119.942	0.296	0.367
-536.164	-166.953	-0.285	0.012
-535.150	411.898	-0.077	-0.163
-534.135	-10.611	0.038	0.025
-533.121	-200.000	-0.035	-0.183
-532.106	6.316	0.195	0.145
-531.091	-32.228	0.132	0.074
-530.077	-34.620	-0.304	-0.167
-529.062	447.277	0.059	-0.130
-528.048	105.361	0.136	-0.161
-527.033	-200.000	-0.030	0.193
-526.018	-139.626	-0.157	0.017
-525.004	56.898	0.313	-0.305
-523.989	159.889	0.069	-0.097
-522.975	800.000	-0.042	0.120
-521.960	1.431	-0.080	-0.058
-520.945	615.458	0.049	-0.123
-519.931	116.910	-0.105	0.130
-518.916	73.429	0.218	0.229
-517.902	543.926	0.023	-0.055
-516.887	800.000	-0.081	-0.232
-515.872	-88.734	-0.304	-0.090
-514.858	-18.889	-0.286	-0.178
-513.843	318.171	-0.063	0.118
-512.829	189.119	-0.121	0.182
-511.814	-116.416	0.089	-0.017
-510.799	800.000	0.088	0.263
-509.785	161.364	-0.224	-0.313
-508.770	-200.000	-0.008	-0.164
-507.756	436.054	-0.076	0.165
-506.741	491.506	0.028	-0.065
-505.726	-200.000	-0.032	0.206
-504.712	800.000	-0.011	0.041
-503.697	561.444	0.146	-0.352
-502.683	219.519	0.071	-0.114
-501.668	88.861	0.308	-0.343
-500.653	800.000	0.060	-0.191
-499.639	800.000	0.079	-0.279
-498.624	84.015	-0.160	0.175
-497.610	339.661	-0.191	0.373
-496.595	122.844	-0.059	0.074
-495.581	-159.977	-0.129	-0.007
-494.566	187.387	0.137	-0.205
-493.551	8.866	-0.380	0.286
-492.537	127.671	0.053	-0.068
-491.522	20.768	0.272	-0.220
-490.508	-32.943	-0.178	-0.099
-489.493	-117.633	-0.106	0.019
-488.478	-83.380	0.122	-0.039
-487.464	-200.000	-0.039	-0.216
-486.449	292.090	0.134	0.244
-485.435	-131.251	0.248	0.033
-484.420	112.101	-0.097	0.117
-483.405	558.825	0.101	-0.244
-482.391	-200.000	0.004	-0.037
-481.376	-77.669	-0.342	0.118
-480.362	496.686	-0.118	0.271
-479.347	183.645	-0.256	-0.378
-478.332	800.000	0.066	0.263
-477.318	-49.123	0.099	-0.047
-476.303	204.240	-0.125	-0.193
-475.289	95.948	0.479	0.546
-474.274	-200.000	-0.092	0.411
-473.259	91.628	-0.173	0.194
-472.245	63.733	0.259	-0.260
-471.230	-64.675	-0.225	0.091
-470.216	-88.275	0.281	-0.084
-469.201	800.000	-0.134	-0.445
-468.186	92.013	0.174	0.196
-467.172	146.684	0.192	0.258
-466.157	800.000	0.015	0.047
-465.143	-48.630	0.040	0.019
-464.128	290.296	-0.083	-0.151
-463.113	247.134	0.046	-0.077
-462.099	26.234	-0.156	-0.130
-461.084	-132.443	0.230	-0.030
-460.070	282.905	-0.176	-0.316
-459.055	-131.930	-0.242	0.032
-458.040	-200.000	0.020	0.236
-457.026	478.341	0.076	0.172
-456.011	-121.905	-0.223	-0.037
-454.997	-200.000	0.049	0.306
-453.982	314.886	0.105	-0.197
-452.968	352.695	0.151	-0.299
-451.953	-78.367	-0.322	-0.110
-450.938	93.279	0.104	-0.117
-449.924	-151.942	0.420	-0.031
-448.909	355.759	-0.107	0.213
-447.895	-76.512	-0.320	-0.112
-446.880	46.832	-0.398	0.370
-445.865	231.350	-0.045	0.074
-444.851	300.135	0.110	-0.203
-443.836	-58.016	-0.039	-0.017
-442.822	-151.522	-0.157	-0.012
-441.807	275.189	-0.111	-0.196
-440.792	336.982	-0.113	-0.220
-439.778	-7.413	0.190	-0.129
-438.763	314.898	-0.127	0.239
-437.749	-147.740	-0.209	0.018
-436.734	17.981	0.246	-0.195
-435.719	97.115	0.248	-0.284
-434.705	-93.392	0.317	-0.088
-433.690	209.480	0.150	-0.234
-432.676	-62.056	0.096	0.040
-431.661	289.285	-0.175	-0.317
-430.646	2.903	-0.277	-0.200
-429.632	-129.519	-0.124	0.017
-428.617	262.375	-0.064	-0.110
-427.603	131.110	0.131	-0.168
-426.588	-200.000	0.014	0.292
-425.573	-63.688	0.116	-0.048
-424.559	586.227	-0.017	0.042
-423.544	800.000	-0.016	-0.056
-422.530	180.546	-0.130	0.190
-421.515	175.710	-0.256	0.370
-420.500	-88.855	0.298	-0.088
-419.486	-200.000	0.024	0.341
-418.471	-106.471	-0.192	-0.043
-417.457	-175.783	-0.217	-0.006
-416.442	296.011	0.119	0.218
-415.428	-104.556	-0.316	-0.073
-414.413	321.213	0.135	0.256
-413.398	-92.606	-0.301	-0.084
-412.384	-29.893	0.173	0.098
-411.369	-95.036	-0.186	-0.050
-410.355	-142.144	-0.175	-0.017
-409.340	-200.000	-0.007	-0.136
-408.325	-200.000	-0.013	0.342
-407.311	-200.000	-0.003	-0.368
-406.296	244.009	-0.120	-0.201
-405.282	-70.904	-0.280	-0.105
-404.267	-64.551	0.380	-0.154
-403.252	800.000	0.062	0.195
-402.238	35.268	0.183	-0.160
-401.223	-62.404	-0.247	0.102
-400.209	-24.121	0.206	-0.123
-399.194	-200.000	-0.032	0.276
-398.179	-13.635	0.192	0.124
-397.165	800.000	-0.087	-0.266
-396.150	800.000	0.060	0.183
-395.136	-92.440	0.161	0.045
-394.121	-200.000	0.021	-0.310
-393.106	154.163	-0.157	0.214
-392.092	-72.858	0.174	-0.064
-391.077	-40.460	-0.111	-0.058
-390.063	356.227	-0.134	-0.265
-389.048	-41.201	0.245	-0.126
-388.033	-200.000	-0.007	0.141
-387.019	508.945	0.207	0.478
-386.004	-200.000	0.092	-0.414
-384.990	-200.000	0.067	0.344
-383.975	-177.689	0.220	0.005
-382.960	-200.000	0.090	0.410
-381.946	98.410	0.094	-0.108
-380.931	-0.748	0.485	-0.342
-379.917	-58.914	0.170	0.073
-378.902	694.268	0.009	0.022
-377.888	-23.099	0.293	0.176
-376.873	276.136	-0.195	-0.344
-375.858	367.735	-0.133	0.267
-374.844	71.996	0.163	0.169
-373.829	217.616	-0.108	0.172
-372.815	-68.467	0.261	0.101
-371.800	-138.955	-0.280	0.030
-370.785	116.960	-0.246	0.300
-369.771	800.000	0.003	-0.012
-368.756	-52.207	0.450	-0.208
-367.742	-200.000	0.010	-0.265
-366.727	247.021	-0.026	0.043
-365.712	-137.761	0.073	0.008
-364.698	-175.678	0.293	0.008
-363.683	397.175	0.091	0.190
-362.669	-200.000	0.059	0.370
-361.654	800.000	-0.135	0.389
-360.639	-200.000	-0.006	0.075
-359.625	148.787	-0.096	-0.129
-358.610	740.768	0.024	0.065
-357.596	-196.115	-0.392	-0.003
-356.581	-200.000	0.014	0.082
-355.566	-200.000	0.022	0.125
-354.552	-36.026	-0.124	0.067
-353.537	-200.000	-0.014	0.082
-352.523	-31.017	0.230	0.129
-351.508	-200.000	0.044	-0.207
-350.493	212.142	-0.141	0.220
-349.479	800.000	0.037	0.125
-348.464	376.808	-0.124	0.252
-347.450	-99.514	0.229	-0.057
-346.435	-200.000	0.011	0.076
-345.420	564.115	-0.157	0.378
-344.406	-200.000	-0.087	-0.000
-343.391	404.518	0.122	0.256
-342.377	278.845	0.106	0.188
-341.362	57.021	0.094	-0.091
-340.348	324.012	0.106	-0.202
-339.333	-200.000	0.053	0.289
-338.318	-98.831	-0.180	0.046
-337.304	46.084	-0.150	-0.138
-336.289	-126.005	0.076	0.011
-335.275	-57.953	-0.046	0.020
-334.260	276.125	0.163	-0.287
-333.245	-93.490	0.178	-0.049
-332.231	-200.000	0.225	0.000
-331.216	-61.304	-0.328	0.137
-330.202	336.927	0.061	0.118
-329.187	-34.207	-0.020	-0.011
-328.172	-151.534	0.236	0.017
-327.158	286.658	0.137	0.246
-326.143	800.000	-0.152	0.563
-325.129	83.448	-0.188	-0.203
-324.114	5.913	0.490	-0.360
-323.099	-104.215	0.161	-0.037
-322.085	41.797	0.159	-0.143
-321.070	800.000	-0.098	0.329
-320.056	379.078	0.081	0.165
-319.041	120.911	0.028	0.035
-318.026	307.152	-0.156	-0.289
-317.012	-200.000	-0.023	-0.189
-315.997	-132.749	0.326	0.041
-314.983	-74.516	0.133	-0.048
-313.968	-198.602	-0.157	0.001
-312.953	-67.314	0.051	-0.020
-311.939	-66.749	-0.243	0.095
-310.924	800.000	0.028	0.103
-309.910	205.008	-0.106	-0.163
-308.895	103.962	0.029	0.034
-307.880	-200.000	-0.070	-0.340
-306.866	138.434	-0.128	0.167
-305.851	800.000	-0.032	0.129
-304.837	-200.000	0.017	0.316
-303.822	546.228	-0.157	-0.373
-302.807	-10.690	-0.270	0.177
-301.793	145.793	-0.102	0.136
-300.778	-13.869	0.134	0.086
-299.764	-103.684	-0.057	0.013
-298.749	-200.000	0.001	-0.171
-297.735	-24.638	0.175	0.103
-296.720	800.000	0.117	0.352
-295.705	800.000	-0.051	0.209
-294.691	-200.000	-0.023	-0.215
-293.676	-200.000	0.015	0.271
-292.662	-25.056	-0.034	-0.020
-291.647	46.904	-0.092	-0.085
-290.632	-150.824	-0.238	0.018
-289.618	-140.059	0.341	0.036
-288.603	505.296	-0.016	-0.036
-287.589	-74.278	0.158	-0.057
-286.574	-200.000	-0.026	0.215
-285.559	307.190	0.028	0.052
-284.545	36.439	0.403	-0.353
-283.530	256.060	0.153	0.261
-282.516	-119.963	-0.217	-0.037
-281.501	800.000	-0.063	-0.232
-280.486	35.740	0.211	-0.184
-279.472	-200.000	-0.002	0.030
-278.457	-121.053	0.260	-0.043
-277.443	786.929	0.066	-0.180
-276.428	417.678	-0.052	0.111
-275.413	250.850	-0.217	-0.365
-274.399	-31.301	-0.175	-0.098
-273.384	-200.000	0.024	-0.150
-272.370	-83.863	-0.054	-0.017
-271.355	-200.000	0.007	0.083
-270.340	-73.799	-0.271	0.098
-269.326	-128.320	0.184	0.026
-268.311	71.767	0.055	-0.057
-267.297	-78.402	0.096	-0.033
-266.282	126.346	-0.142	0.179
-265.267	212.353	0.141	-0.220
-264.253	-200.000	0.023	0.199
-263.238	104.669	-0.171	0.199
-262.224	800.000	0.043	-0.183
-261.209	-90.707	-0.131	-0.037
-260.195	49.560	0.190	-0.177
-259.180	-140.991	0.303	-0.031
-258.165	-200.000	0.023	0.132
-257.151	-53.542	-0.302	0.137
-256.136	-200.000	-0.009	-0.195
-255.122	226.833	0.176	0.283
-254.107	800.000	0.096	0.291
-253.092	-200.000	-0.030	-0.251
-252.078	-125.967	0.193	-0.029
-251.063	-128.250	-0.301	-0.042
-250.049	211.002	0.237	-0.369
-249.034	-72.919	0.056	-0.020
-248.019	-186.966	0.209	-0.003
-247.005	-25.561	-0.212	-0.124
-245.990	-200.000	0.018	-0.101
-244.976	800.000	-0.086	0.323
-243.961	-27.182	-0.030	-0.018
-242.946	-40.179	0.201	-0.104
-241.932	-38.115	0.096	-0.050
-240.917	-58.125	-0.151	0.065
-239.903	800.000	-0.097	-0.404
-238.888	-66.822	0.068	-0.026
-237.873	184.954	-0.105	0.154
-236.859	151.976	-0.260	0.352
-235.844	384.888	-0.083	0.169
-234.830	731.240	-0.064	0.169
-233.815	213.148	-0.262	0.409
-232.800	80.963	0.327	0.350
-231.786	800.000	-0.072	-0.209
-230.771	449.494	0.107	-0.234
-229.757	56.759	0.223	-0.215
-228.742	7.571	-0.205	-0.152
-227.727	-7.519	-0.217	-0.146
-226.713	80.766	-0.168	0.179
-225.698	-121.091	0.251	0.042
-224.684	-34.720	-0.131	0.071
-223.669	718.936	0.049	0.128
-222.655	548.366	-0.083	-0.196
-221.640	610.744	0.047	-0.117
-220.625	-51.760	0.116	0.053
-219.611	-200.000	0.008	0.221
-218.596	144.089	-0.082	-0.108
-217.582	-87.636	-0.127	-0.038
-216.567	29.539	-0.126	-0.106
-215.552	90.120	0.250	0.276
-214.538	-117.267	-0.126	0.023
-213.523	378.159	-0.053	-0.108
-212.509	-111.879	-0.225	0.045
-211.494	-131.073	-0.156	0.021
-210.479	800.000	-0.052	-0.198
-209.465	-200.000	-0.330	0.001
-208.450	639.601	-0.163	0.410
-207.436	169.362	-0.324	0.457
-206.421	-200.000	0.043	0.197
-205.406	-15.374	0.209	-0.132
-204.392	-200.000	-0.024	-0.291
-203.377	54.629	0.155	-0.148
-202.363	-103.028	-0.318	-0.075
-201.348	-200.000	0.020	-0.097
-200.333	-17.020	-0.140	0.088
-199.319	43.218	0.185	0.167
-198.304	94.372	-0.256	0.288
-197.290	-54.225	-0.036	-0.016
-196.275	377.477	-0.048	0.097
-195.260	800.000	0.068	-0.223
-194.246	-200.000	-0.007	-0.083
-193.231	255.175	-0.155	-0.262
-192.217	196.196	-0.174	0.262
-191.202	-200.000	0.070	-0.425
-190.187	-116.227	0.196	0.036
-189.173	336.310	0.124	0.237
-188.158	-68.989	-0.231	-0.088
-187.144	-200.000	0.327	0.001
-186.129	121.911	0.107	0.131
-185.114	800.000	-0.054	0.230
-184.100	-74.399	0.281	-0.100
-183.085	562.858	0.120	0.286
-182.071	151.431	0.099	0.133
-181.056	87.694	-0.034	0.037
-180.042	800.000	-0.101	-0.428
-179.027	172.605	-0.184	-0.261
-178.012	61.831	-0.067	0.066
-176.998	63.104	0.218	-0.216
-175.983	-200.000	-0.019	-0.131
-174.969	800.000	0.079	-0.272
-173.954	8.439	-0.260	-0.193
-172.939	-73.186	0.106	-0.038
-171.925	-200.000	-0.014	-0.222
-170.910	-29.495	0.116	-0.065
-169.896	-131.322	0.200	0.026
-168.881	-200.000	-0.002	0.149
-167.866	-87.812	-0.204	-0.061
-166.852	-117.252	-0.179	-0.032
-165.837	-200.000	-0.016	0.089
-164.823	-200.000	0.036	0.398
-163.808	-200.000	-0.011	0.151
-162.793	16.916	-0.063	0.049
-161.779	83.909	-0.094	-0.101
-160.764	-183.254	0.157	-0.003
-159.750	127.516	0.205	0.256
-158.735	-156.861	-0.225	0.014
-157.720	17.745	0.227	0.178
-156.706	-200.000	0.015	0.217
-155.691	-200.000	-0.051	-0.299
-154.677	-162.013	-0.288	-0.014
-153.662	20.487	0.246	0.196
-152.647	22.757	0.175	0.141
-151.633	185.342	0.195	-0.285
-150.618	3.195	-0.161	-0.115
-149.604	-178.734	0.159	-0.004
-148.589	-120.552	0.418	-0.070
-147.574	-200.000	-0.040	0.188
-146.560	182.761	-0.118	0.172
-145.545	800.000	0.057	-0.193
-144.531	78.877	-0.126	-0.133
-143.516	-49.785	-0.119	0.056
-142.502	274.172	-0.053	0.092
-141.487	525.687	-0.054	-0.125
-140.472	800.000	0.094	-0.257
-139.458	209.264	-0.062	-0.096
-138.443	-25.586	0.124	-0.072
-137.429	153.185	-0.101	-0.136
-136.414	498.714	0.136	0.310
-135.399	-58.447	0.175	-0.075
-134.385	-4.737	-0.073	-0.050
-133.370	-172.099	-0.108	-0.003
-132.356	69.040	-0.160	-0.163
-131.341	-18.302	-0.234	-0.144
-130.326	-36.710	-0.319	-0.169
-129.312	277.502	0.188	0.329
-128.297	-10.971	0.206	0.134
-127.283	15.566	0.095	0.073
-126.268	227.212	0.152	-0.243
-125.253	146.006	-0.184	0.243
-124.239	106.228	-0.224	-0.262
-123.224	119.398	0.043	-0.052
-122.210	-200.000	-0.002	0.275
-121.195	-200.000	-0.001	0.114
-120.180	-11.593	0.156	0.101
-119.166	-157.739	0.097	-0.006
-118.151	-67.161	-0.137	-0.053
-117.137	800.000	-0.073	0.226
-116.122	331.730	0.207	0.394
-115.107	-89.797	-0.379	-0.109
-114.093	18.095	0.079	-0.062
-113.078	68.920	-0.135	-0.137
-112.064	800.000	-0.072	0.244
-111.049	271.613	0.193	-0.335
-110.034	663.825	-0.103	-0.261
-109.020	-190.263	0.289	-0.003
-108.005	-24.672	0.051	0.030
-106.991	1.074	-0.176	0.125
-105.976	15.919	0.296	0.230
-104.962	-200.000	-0.024	-0.104
-103.947	-200.000	-0.009	-0.146
-102.932	-78.843	0.159	-0.053
-101.918	636.787	-0.018	0.044
-100.903	800.000	0.062	0.227
-99.889	-104.696	0.140	-0.032
-98.874	800.000	-0.120	0.360
-97.859	131.459	0.074	0.093
-96.845	-105.825	-0.070	-0.015
-95.830	-6.933	-0.333	0.223
-94.816	-16.903	0.042	0.026
-93.801	800.000	-0.022	0.076
-92.786	-83.156	-0.172	-0.054
-91.772	-200.000	-0.045	0.526
-90.757	-1.550	0.190	-0.132
-89.743	-91.588	0.139	-0.039
-88.728	15.963	0.182	-0.141
-87.713	-74.457	-0.170	-0.060
-86.699	-149.446	0.247	-0.019
-85.684	-200.000	-0.031	0.142
-84.670	665.395	-0.062	0.159
-83.655	-31.565	-0.300	0.166
-82.640	136.972	-0.094	0.121
-81.626	281.511	0.081	0.142
-80.611	86.276	-0.077	0.084
-79.597	88.875	0.073	-0.080
-78.582	-109.184	0.330	-0.069
-77.567	-81.780	0.332	-0.107
-76.553	-12.386	0.185	0.119
-75.538	-78.357	-0.169	0.057
-74.524	52.791	-0.188	0.177
-73.509	278.828	0.102	-0.179
-72.494	-200.000	0.054	-0.386
-71.480	593.573	-0.196	-0.476
-70.465	-135.974	0.377	0.044
-69.451	-75.624	-0.448	0.157
-68.436	255.373	-0.074	0.124
-67.422	800.000	0.052	0.155
-66.407	-107.448	0.128	-0.028
-65.392	-65.175	-0.352	-0.139
-64.378	-176.959	-0.221	0.005
-63.363	800.000	0.050	-0.195
-62.349	47.490	0.185	0.170
-61.334	69.066	-0.949	-0.959
-60.319	-16.913	0.725	0.450
-59.305	87.727	-0.779	-0.848
-58.290	396.366	0.493	1.012
-57.276	800.000	0.369	1.374
-56.261	-200.000	101.651	597.307
-55.246	572.159	1415.317	3389.158
-54.232	191.272	2598.729	3844.994
-53.217	116.851	2163.422	2610.425
-52.203	41.738	1696.642	1511.236
-51.188	34.160	1507.311	1291.374
-50.173	31.680	1480.501	1251.801
-49.159	51.221	1532.425	1429.150
-48.144	52.966	1549.634	1457.019
-47.130	34.354	1507.920	1293.005
-46.115	31.210	1493.016	1259.009
-45.100	31.051	1489.986	1255.333
-44.086	31.056	1487.891	1253.556
-43.071	31.037	1485.022	1250.957
-42.057	30.915	1484.062	1249.281
-41.042	30.955	1482.558	1248.234
-40.027	30.986	1481.264	1247.304
-39.013	30.948	1479.525	1245.539
-37.998	30.938	1478.144	1244.261
-36.984	30.933	1477.323	1243.482
-35.969	30.988	1475.427	1242.207
-34.954	30.927	1474.468	1240.946
-33.940	30.959	1473.078	1239.939
-32.925	30.965	1471.948	1238.977
-31.911	30.991	1470.551	1237.927
-30.896	31.018	1469.136	1236.860
-29.881	31.176	1467.662	1236.622
-28.867	31.200	1466.041	1235.361
-27.852	31.114	1464.957	1233.833
-26.838	30.992	1463.490	1231.742
-25.823	31.078	1462.072	1231.067
-24.809	31.053	1460.779	1229.764
-23.794	30.977	1459.543	1228.171
-22.779	31.124	1457.960	1227.761
-21.765	31.105	1456.749	1226.569
-20.750	30.958	1455.984	1224.909
-19.736	30.953	1454.715	1223.758
-18.721	30.954	1454.137	1223.233
-17.706	30.986	1452.478	1221.999
-16.692	30.901	1451.623	1220.674
-15.677	30.939	1450.412	1219.853
-14.663	31.020	1449.195	1219.316
-13.648	30.898	1448.437	1217.830
-12.633	30.923	1447.617	1217.251
-11.619	30.932	1446.821	1216.593
-10.604	30.945	1445.766	1215.747
-9.590	30.941	1445.005	1215.033
-8.575	30.946	1444.170	1214.310
-7.560	30.972	1443.015	1213.463
-6.546	30.943	1442.455	1212.756
-5.531	31.007	1441.413	1212.250
-4.517	30.915	1440.777	1211.068
-3.502	30.847	1440.112	1210.019
-2.487	30.806	1438.960	1208.733
-1.473	31.014	1437.386	1208.714
-0.458	30.922	1435.891	1206.814
0.556	29.470	1426.737	1195.730
1.571	26.621	1402.256	1156.939
2.586	23.359	1343.841	1088.641
3.600	21.647	1263.264	1013.376
4.615	20.370	1217.597	969.530
5.629	17.778	1162.291	911.576
6.644	10.569	1080.994	811.787
7.659	5.357	1042.669	757.724
8.673	4.826	1037.142	751.080
9.688	4.670	1034.524	748.368
10.702	4.478	1032.729	746.080
11.717	4.426	1030.858	744.415
12.731	6.585	1032.231	755.694
13.746	13.128	1041.505	793.960
14.761	18.097	1047.224	822.212
15.775	18.217	1047.024	822.557
16.790	17.401	1044.275	816.410
17.804	16.193	1042.537	809.189
18.819	15.335	1040.508	803.434
19.834	14.834	1039.348	800.070
20.848	14.546	1038.412	797.900
21.863	14.448	1037.674	796.797
22.877	14.241	1036.294	794.675
23.892	13.945	1036.341	793.231
24.907	13.924	1035.112	792.117
25.921	13.973	1034.351	791.700
26.936	13.929	1033.878	791.060
27.950	13.907	1032.699	789.979
28.965	14.063	1031.457	789.703
29.980	14.024	1030.621	788.807
30.994	14.161	1029.418	788.468
32.009	14.184	1028.686	787.942
33.023	14.165	1028.138	787.367
34.038	14.112	1027.274	786.381
35.053	14.178	1026.016	785.663
36.067	14.258	1024.866	785.088
37.082	14.109	1024.251	783.845
38.096	14.181	1023.295	783.386
39.111	14.089	1022.947	782.616
40.126	14.191	1021.876	782.206
41.140	14.064	1020.800	780.715
42.155	13.955	1019.763	779.342
43.169	13.865	1018.510	777.894
44.184	13.877	1017.538	777.143
45.199	13.919	1016.192	776.242
46.213	13.849	1015.694	775.463
47.228	13.843	1015.086	774.904
48.242	14.046	1013.553	774.611
49.257	14.180	1012.593	774.434
50.271	14.109	1011.734	773.377
51.286	14.003	1011.382	772.548
52.301	14.001	1010.618	771.885
53.315	13.976	1009.774	771.056
54.330	13.879	1009.328	770.199
55.344	13.891	1007.873	769.073
56.359	13.902	1006.694	768.157
57.374	13.916	1006.106	767.707
58.388	13.782	1005.414	766.490
59.403	13.903	1004.376	766.190
60.417	13.812	1003.572	765.091
61.432	13.778	1002.439	764.000
62.447	13.853	1001.656	763.682
63.461	13.798	1001.385	763.156
64.476	13.759	1000.364	762.132
65.490	13.625	999.357	760.682
66.505	13.756	998.290	760.404
67.520	13.749	997.815	759.939
68.534	13.780	997.407	759.704
69.549	13.866	995.970	758.934
70.563	13.749	995.949	758.316
71.578	13.807	994.751	757.602
72.593	13.750	994.037	756.732
73.607	13.596	993.279	755.388
74.622	13.634	992.177	754.654
75.636	13.585	991.482	753.837
76.651	13.651	990.870	753.605
77.666	13.580	990.039	752.585
78.680	13.579	989.194	751.872
79.695	13.678	989.016	752.115
80.709	13.711	988.419	751.745
81.724	13.876	987.534	751.755
82.739	13.842	986.748	750.934
83.753	13.884	986.016	750.503
84.768	14.009	985.214	750.388
85.782	14.129	984.299	750.169
86.797	14.207	983.853	750.111
87.812	14.036	983.129	748.723
88.826	14.101	982.163	748.213
89.841	14.145	981.441	747.795
90.855	14.128	980.516	746.949
91.870	14.011	980.452	746.310
92.884	14.140	979.131	745.813
93.899	14.204	978.423	745.499
94.914	14.127	977.901	744.687
95.928	14.172	977.018	744.153
96.943	14.267	976.382	744.026
97.957	14.175	975.153	742.614
98.972	14.088	974.953	742.008
99.987	14.142	973.714	741.240
101.001	14.104	973.316	740.702
102.016	14.032	972.569	739.748
103.030	14.175	971.360	739.397
104.045	14.169	970.452	738.614
105.060	14.069	969.921	737.699
106.074	14.042	968.912	736.746
107.089	13.974	967.415	735.243
108.103	13.922	966.966	734.608
109.118	13.680	966.174	732.873
110.133	13.610	965.790	732.205
111.147	13.808	964.029	731.679
112.162	13.905	963.128	731.356
113.176	13.916	962.545	730.899
114.191	13.926	961.927	730.409
115.206	13.932	961.125	729.762
116.220	14.015	960.339	729.464
117.235	13.869	959.433	728.073
118.249	14.013	958.399	727.855
119.264	13.934	957.813	726.999
120.279	13.820	957.241	726.002
121.293	13.867	956.461	725.552
122.308	13.726	955.346	724.024
123.322	13.788	954.358	723.484
124.337	13.735	953.353	722.426
125.352	13.714	952.475	721.604
126.366	13.780	951.151	720.826
127.381	13.617	950.815	719.799
128.395	13.763	949.588	719.440
129.410	13.754	948.564	718.560
130.424	13.904	947.782	718.552
131.439	13.833	947.168	717.718
132.454	13.821	946.128	716.814
133.468	13.873	945.689	716.642
134.483	13.940	945.140	716.452
135.497	13.942	944.346	715.796
136.512	13.984	943.560	715.318
137.527	13.989	942.517	714.487
138.541	13.874	941.881	713.444
139.556	14.009	941.010	713.304
140.570	14.007	940.289	712.685
141.585	14.073	939.682	712.442
142.600	14.138	938.905	712.070
143.614	14.144	938.199	711.496
144.629	14.282	937.408	711.424
145.643	14.263	936.632	710.690
146.658	14.293	935.814	710.134
147.673	14.152	935.015	708.866
148.687	14.059	934.082	707.699
149.702	14.102	932.717	706.785
150.716	13.957	932.406	705.870
151.731	13.833	931.761	704.796
152.746	14.014	931.032	704.947
153.760	14.135	930.053	704.658
154.775	14.055	929.325	703.706
155.789	14.237	928.126	703.503
156.804	14.111	928.131	702.911
157.819	14.125	927.274	702.260
158.833	14.247	926.555	702.168
159.848	14.212	925.971	701.517
160.862	14.330	924.928	701.160
161.877	14.353	924.265	700.694
162.892	14.291	923.097	699.484
163.906	14.000	922.743	697.935
164.921	13.981	921.858	697.123
165.935	14.012	921.004	696.546
166.950	14.123	919.762	696.010
167.964	14.147	918.901	695.396
168.979	14.202	918.101	694.957
169.994	14.164	916.782	693.738
171.008	14.140	916.186	693.127
172.023	14.371	915.349	693.396
173.037	14.189	914.765	692.135
174.052	14.300	914.190	692.102
175.067	14.364	913.629	691.877
176.081	14.136	912.896	690.316
177.096	14.171	911.787	689.561
178.110	14.178	910.831	688.807
179.125	14.302	909.784	688.469
180.140	14.246	909.163	687.704
181.154	14.210	908.784	687.207
182.169	14.272	908.395	687.110
183.183	14.367	907.438	686.719
184.198	14.327	907.241	686.342
185.213	14.383	906.404	685.877
186.227	14.479	905.743	685.714
187.242	14.551	905.154	685.502
188.256	14.492	905.099	685.158
189.271	14.499	903.865	684.192
190.286	14.649	903.059	684.135
191.300	14.475	902.556	682.981
192.315	14.361	901.500	681.656
193.329	14.229	900.732	680.475
194.344	14.165	900.523	679.996
195.359	14.122	900.098	679.439
196.373	14.230	899.298	679.216
197.388	14.382	898.902	679.475
198.402	14.524	898.432	679.637
199.417	14.660	898.197	679.955
200.432	14.760	897.406	679.703
201.446	14.712	897.085	679.205
202.461	14.696	896.952	678.979
203.475	14.806	896.161	678.766
204.490	14.778	895.846	678.355
205.504	14.651	894.846	677.022
206.519	14.680	893.967	676.416
207.534	14.644	893.062	675.523
208.548	14.586	892.556	674.845
209.563	14.560	891.883	674.175
210.577	14.721	891.138	674.199
211.592	14.725	890.509	673.680
212.607	14.849	889.977	673.718
213.621	14.934	889.395	673.560
214.636	14.931	888.733	672.987
215.650	14.757	887.949	671.636
216.665	14.885	887.617	671.838
217.680	14.789	887.170	671.058
218.694	14.974	886.571	671.287
219.709	15.010	886.324	671.184
220.723	14.912	885.637	670.212
221.738	15.010	884.718	669.849
222.753	14.970	884.001	669.088
223.767	14.825	883.648	668.179
224.782	14.903	882.445	667.524
225.796	14.921	882.027	667.218
226.811	14.974	881.299	666.821
227.826	15.051	880.502	666.466
228.840	15.155	879.602	666.137
229.855	14.953	879.061	664.868
230.869	14.953	878.322	664.251
231.884	14.887	877.846	663.569
232.899	14.940	877.265	663.283
233.913	14.904	876.547	662.538
234.928	14.802	875.946	661.620
235.942	14.877	874.974	661.123
236.957	14.922	874.357	660.777
237.972	14.964	873.590	660.306
238.986	14.935	873.259	659.881
240.001	14.975	872.809	659.642
241.015	15.026	871.741	658.978
242.030	15.064	871.251	658.699
243.045	14.900	870.893	657.723
244.059	14.972	870.297	657.497
245.074	15.156	869.432	657.508
246.088	15.149	869.110	657.179
247.103	15.096	868.306	656.307
248.117	15.219	867.614	656.207
249.132	15.259	867.089	655.910
250.147	15.359	866.876	656.082
251.161	15.404	865.923	655.475
252.176	15.618	865.268	655.758
253.190	15.543	864.582	654.887
254.205	15.491	864.401	654.489
255.220	15.463	864.387	654.312
256.234	15.375	863.678	653.377
257.249	15.626	862.503	653.405
258.263	15.606	861.791	652.728
259.278	15.526	861.418	652.078
260.293	15.448	861.235	651.581
261.307	15.666	860.394	651.729
262.322	15.875	859.611	651.889
263.336	15.740	859.226	651.016
264.351	15.757	858.304	650.329
265.366	15.769	857.946	650.045
266.380	15.991	856.963	650.100
267.395	15.804	857.057	649.391
268.409	15.740	856.156	648.405
269.424	15.674	855.611	647.681
270.439	15.652	854.843	646.956
271.453	15.852	853.825	646.898
272.468	15.750	853.134	645.924
273.482	15.667	852.680	645.207
274.497	15.502	852.434	644.329
275.512	15.675	851.279	644.063
276.526	15.622	850.760	643.408
277.541	15.858	849.642	643.410
278.555	15.768	849.765	643.100
279.570	15.725	849.105	642.381
280.585	15.820	848.696	642.377
281.599	16.025	847.800	642.424
282.614	15.998	846.723	641.448
283.628	15.774	846.560	640.414
284.643	15.804	846.110	640.131
285.657	15.875	845.475	639.864
286.672	15.947	845.123	639.816
287.687	15.913	844.755	639.350
288.701	15.810	844.574	638.768
289.716	15.837	843.710	638.160
290.730	15.932	842.994	637.922
291.745	16.036	842.364	637.783
292.760	16.010	842.004	637.354
293.774	16.076	841.353	637.055
294.789	16.178	840.744	636.921
295.803	16.152	839.960	636.173
296.818	16.150	839.418	635.698
297.833	15.978	838.696	634.448
298.847	16.101	838.060	634.373
299.862	16.024	837.388	633.519
300.876	16.111	836.568	633.172
301.891	16.100	836.509	633.029
302.906	16.235	835.511	632.721
303.920	16.265	834.933	632.341
304.935	16.312	834.339	632.013
305.949	16.299	833.748	631.461
306.964	16.406	833.184	631.376
307.979	16.107	833.024	630.082
308.993	16.462	831.994	630.572
310.008	16.432	831.411	629.964
311.022	16.530	830.891	629.878
312.037	16.476	830.478	629.307
313.052	16.458	829.597	628.518
314.066	16.302	829.648	627.920
315.081	16.113	829.121	626.765
316.095	16.275	828.112	626.547
317.110	16.313	828.155	626.667
318.125	16.146	827.601	625.570
319.139	16.186	826.711	624.989
320.154	16.321	826.390	625.193
321.168	16.460	825.781	625.190
322.183	16.244	825.426	624.069
323.197	16.275	825.150	623.917
324.212	16.480	824.300	623.978
325.227	16.481	823.821	623.565
326.241	16.295	823.392	622.498
327.256	16.456	822.457	622.329
328.270	16.441	822.127	621.970
329.285	16.313	821.583	621.032
330.300	16.530	820.370	620.856
331.314	16.480	820.302	620.565
332.329	16.430	819.624	619.817
333.343	16.524	818.826	619.502
334.358	16.564	818.655	619.464
335.373	16.452	818.219	618.670
336.387	16.591	817.552	618.618
337.402	16.644	816.833	618.214
338.416	16.526	816.732	617.651
339.431	16.784	815.833	617.859
340.446	16.720	815.617	617.407
341.460	16.769	814.764	616.885
342.475	16.832	813.934	616.429
343.489	16.797	813.952	616.262
344.504	16.816	813.488	615.925
345.519	16.818	813.178	615.643
346.533	16.789	812.663	615.094
347.548	16.959	811.896	615.075
348.562	16.931	811.365	614.516
349.577	16.816	810.827	613.639
350.592	16.861	809.859	613.014
351.606	16.601	810.017	612.141
352.621	16.725	809.486	612.132
353.635	16.597	809.366	611.524
354.650	16.726	808.920	611.599
355.665	16.798	808.232	611.286
356.679	16.904	807.762	611.258
357.694	17.114	806.881	611.293
358.708	16.905	806.370	610.102
359.723	16.993	806.048	610.117
360.738	16.922	805.567	609.446
361.752	17.024	804.924	609.272
362.767	16.902	804.670	608.588
363.781	16.866	804.580	608.335
364.796	17.028	804.216	608.589
365.810	17.114	803.474	608.282
366.825	17.194	802.997	608.154
367.840	17.325	802.832	608.441
368.854	17.351	802.186	607.993
369.869	17.221	801.890	607.251
370.883	17.286	801.210	606.914
371.898	17.273	800.630	606.372
372.913	17.295	800.172	606.050
373.927	17.389	799.289	605.665
374.942	17.283	798.854	604.902
375.956	17.295	798.149	604.359
376.971	17.211	798.073	603.950
377.986	17.443	797.164	604.030
379.000	17.452	796.821	603.748
380.015	17.461	796.721	603.653
381.029	17.400	795.847	602.720
382.044	17.415	795.298	602.303
383.059	17.480	794.693	602.022
384.073	17.489	794.179	601.612
385.088	17.502	793.709	601.248
386.102	17.464	792.992	600.518
387.117	17.492	792.535	600.219
388.132	17.345	792.271	599.448
389.146	17.333	791.848	599.032
390.161	17.529	791.096	599.098
391.175	17.465	790.917	598.686
392.190	17.518	790.453	598.467
393.205	17.587	790.038	598.341
394.219	17.441	789.729	597.542
395.234	17.508	789.081	597.236
396.248	17.445	788.587	596.588
397.263	17.459	788.087	596.206
398.278	17.296	787.628	595.236
399.292	17.405	786.939	595.042
400.307	17.455	786.980	595.196
401.321	17.405	786.219	594.394
402.336	17.500	786.046	594.542
403.350	17.390	785.768	593.893
404.365	17.543	785.352	594.061
405.380	17.551	785.216	593.934
406.394	17.664	784.356	593.624
407.409	17.738	784.014	593.571
408.423	17.723	783.834	593.328
409.438	17.793	783.369	593.167
410.453	17.888	782.772	592.995
411.467	17.946	782.194	592.706
412.482	17.943	781.690	592.261
413.496	17.904	781.213	591.711
414.511	17.900	781.076	591.542
415.526	17.921	780.801	591.352
416.540	17.971	780.432	591.195
417.555	17.835	780.004	590.347
418.569	17.919	779.288	590.044
419.584	17.895	779.006	589.694
420.599	18.088	778.338	589.805
421.613	156.890	1368.954	1797.728
422.628	135.362	1454.990	1797.828
