DTS Sentinel unit serial number:	SN413079Multiplexer serial number:	ORYXHardware model number:	OX4-SRSoftware version number:	ORYX F/W v4.00 Oryx Data Collector v3.7.2.0data status	okinstallation	princeton_trtdifferential loss correction	single-endedforward channel	channel 3reverse channel	N/Adate	2019/09/19time	04:52:35forward acquisition time	60.00reverse acquisition time	0.00gamma	496.2192k internal	0.2347k external	0.2347temperature offset calibration	0.9997default loss term (dB/km)	0.3790temperature slope calibration	1.0000multiplexer offset coefficient	1.0000multiplexer slope coefficient	1.0000fibre end	0.00T internal ref (°C)	19.81T ext. ref 1 (°C)	0.61T ext. ref 2 (°C)	12.98length (m)	temperature (°C)	Stokes	anti-Stokes-747.200	51.228	0.065	-0.062
-746.185	-22.541	0.116	-0.070
-745.171	800.000	0.101	0.323
-744.156	800.000	0.027	0.097
-743.142	142.606	-0.163	0.217
-742.127	-200.000	0.009	-0.092
-741.112	-89.379	0.145	-0.043
-740.098	-161.524	0.087	0.004
-739.083	-43.764	0.141	0.071
-738.069	-25.130	-0.239	-0.142
-737.054	159.981	0.124	-0.172
-736.039	39.161	0.040	-0.036
-735.025	-3.216	-0.039	0.027
-734.010	-17.140	-0.169	-0.106
-732.996	-73.740	-0.219	-0.079
-731.981	-50.381	0.247	-0.116
-730.966	-9.888	0.290	0.193
-729.952	-200.000	-0.025	-0.224
-728.937	-110.353	-0.058	-0.012
-727.923	-200.000	0.017	0.486
-726.908	-34.073	0.223	-0.123
-725.894	-137.889	-0.371	-0.041
-724.879	110.822	-0.187	-0.225
-723.864	-91.891	-0.123	-0.035
-722.850	42.597	-0.555	-0.504
-721.835	220.841	-0.083	-0.134
-720.821	300.306	-0.138	-0.255
-719.806	94.811	-0.088	-0.100
-718.791	49.480	0.100	-0.094
-717.777	30.375	-0.031	0.026
-716.762	-154.116	-0.363	-0.025
-715.748	-110.690	-0.232	-0.048
-714.733	-200.000	-0.024	-0.274
-713.718	-200.000	-0.015	-0.099
-712.704	-69.502	-0.299	0.114
-711.689	-200.000	-0.023	-0.333
-710.675	80.374	0.165	0.177
-709.660	800.000	-0.057	-0.162
-708.645	94.510	0.321	-0.363
-707.631	771.830	-0.080	0.219
-706.616	-131.390	0.082	0.011
-705.602	-52.701	-0.265	0.122
-704.587	153.125	-0.168	-0.230
-703.572	288.919	-0.158	-0.285
-702.558	220.479	0.167	-0.267
-701.543	-103.094	-0.298	-0.070
-700.529	40.616	-0.060	0.054
-699.514	800.000	-0.067	0.243
-698.499	-44.590	0.092	0.046
-697.485	112.954	-0.109	-0.132
-696.470	-116.248	-0.290	-0.054
-695.456	-200.000	0.012	0.102
-694.441	-200.000	0.027	0.139
-693.426	198.187	0.065	-0.099
-692.412	136.342	0.193	-0.251
-691.397	-164.391	0.182	0.008
-690.383	378.271	0.165	-0.337
-689.368	-200.000	-0.024	0.376
-688.354	-200.000	-0.015	-0.117
-687.339	443.153	0.044	-0.096
-686.324	-32.362	-0.202	-0.113
-685.310	800.000	0.031	-0.094
-684.295	21.142	0.107	-0.087
-683.281	800.000	-0.046	-0.128
-682.266	219.763	0.294	-0.469
-681.251	-9.650	-0.235	-0.156
-680.237	130.326	-0.038	-0.048
-679.222	-118.646	-0.153	-0.027
-678.208	445.081	0.104	-0.228
-677.193	244.157	-0.232	-0.388
-676.178	322.897	-0.073	-0.140
-675.164	229.625	0.276	0.449
-674.149	15.077	0.060	0.047
-673.135	447.859	-0.238	-0.522
-672.120	35.617	0.132	-0.115
-671.105	483.121	0.169	-0.383
-670.091	54.431	-0.247	-0.237
-669.076	-100.963	-0.140	-0.034
-668.062	71.234	-0.281	0.291
-667.047	620.302	0.065	-0.163
-666.032	-130.241	0.325	-0.044
-665.018	-58.890	0.438	0.189
-664.003	-96.979	-0.277	-0.072
-662.989	-108.299	-0.350	-0.075
-661.974	-22.797	0.277	-0.167
-660.959	-200.000	-0.000	-0.284
-659.945	7.455	-0.033	0.025
-658.930	-111.215	-0.267	-0.054
-657.916	-62.604	0.293	-0.121
-656.901	-108.246	0.311	0.067
-655.886	-86.116	0.317	0.097
-654.872	39.158	0.189	-0.168
-653.857	616.011	-0.068	-0.169
-652.843	-200.000	-0.020	0.174
-651.828	-147.816	-0.291	-0.024
-650.814	-53.114	-0.381	0.174
-649.799	-200.000	-0.023	-0.385
-648.784	-188.200	-0.164	0.002
-647.770	39.239	0.060	0.054
-646.755	-63.952	-0.116	0.047
-645.741	-200.000	-0.041	0.391
-644.726	-132.694	-0.142	-0.018
-643.711	800.000	-0.051	-0.163
-642.697	37.932	0.143	0.126
-641.682	-118.765	-0.016	-0.003
-640.668	-43.038	-0.181	0.091
-639.653	-144.661	-0.077	-0.007
-638.638	-200.000	0.014	-0.254
-637.624	-200.000	-0.024	-0.116
-636.609	416.490	0.144	-0.305
-635.595	-200.000	-0.008	-0.272
-634.580	25.657	-0.127	0.105
-633.565	98.156	-0.056	0.064
-632.551	-149.401	-0.053	-0.004
-631.536	108.660	0.012	0.015
-630.522	-18.570	0.274	0.170
-629.507	50.452	-0.382	0.359
-628.492	-89.418	0.276	0.081
-627.478	536.882	-0.043	0.102
-626.463	800.000	-0.131	-0.509
-625.449	129.124	0.070	-0.089
-624.434	5.871	0.013	-0.010
-623.419	-99.035	0.024	0.006
-622.405	-42.259	-0.217	0.110
-621.390	800.000	0.061	0.234
-620.376	-141.602	0.338	-0.034
-619.361	-70.633	-0.285	0.107
-618.346	555.824	-0.096	-0.231
-617.332	800.000	0.056	-0.205
-616.317	0.346	0.027	0.019
-615.303	-200.000	0.013	-0.484
-614.288	-65.182	0.058	0.023
-613.273	666.506	0.048	0.122
-612.259	-140.823	-0.246	-0.025
-611.244	-200.000	-0.000	0.135
-610.230	-130.513	-0.123	-0.016
-609.215	-43.683	0.261	-0.131
-608.201	-32.190	-0.268	-0.149
-607.186	0.971	-0.315	0.224
-606.171	-172.396	0.169	-0.005
-605.157	184.410	0.113	-0.166
-604.142	466.672	0.146	-0.326
-603.128	133.615	-0.085	-0.110
-602.113	576.675	0.065	0.158
-601.098	-200.000	0.057	0.288
-600.084	-156.937	-0.190	-0.012
-599.069	-16.035	0.082	0.052
-598.055	800.000	0.004	-0.014
-597.040	301.556	-0.152	0.278
-596.025	29.119	0.365	-0.308
-595.011	-200.000	0.012	-0.075
-593.996	0.928	0.120	0.086
-592.982	-112.720	-0.142	0.028
-591.967	-27.957	-0.235	0.135
-590.952	-99.083	-0.199	-0.050
-589.938	-60.141	-0.304	0.129
-588.923	-133.865	0.256	0.032
-587.909	485.732	-0.190	0.429
-586.894	-127.137	0.115	0.017
-585.879	-114.042	-0.326	0.063
-584.865	145.849	0.134	0.179
-583.850	97.291	-0.264	0.300
-582.836	-200.000	0.039	0.378
-581.821	10.609	-0.278	-0.210
-580.806	-111.093	-0.394	0.080
-579.792	750.005	0.047	-0.126
-578.777	-200.000	-0.023	0.129
-577.763	-20.033	-0.132	0.081
-576.748	-151.733	-0.482	-0.035
-575.733	-123.361	0.161	0.026
-574.719	-17.808	-0.188	-0.117
-573.704	-20.537	0.198	-0.121
-572.690	10.131	0.112	-0.084
-571.675	97.917	-0.145	0.165
-570.661	-97.921	0.266	0.068
-569.646	640.132	-0.189	-0.478
-568.631	-200.000	0.005	-0.114
-567.617	-28.858	-0.246	0.140
-566.602	235.102	-0.196	-0.321
-565.588	-200.000	0.004	0.114
-564.573	-35.933	-0.177	-0.095
-563.558	-86.721	0.397	-0.121
-562.544	-125.652	-0.478	-0.072
-561.529	113.331	-0.240	-0.289
-560.515	-92.772	-0.189	0.053
-559.500	-200.000	0.005	-0.120
-558.485	255.472	-0.073	0.123
-557.471	-200.000	0.024	-0.156
-556.456	800.000	-0.069	0.288
-555.442	-30.733	-0.211	-0.119
-554.427	-200.000	-0.027	-0.544
-553.412	-95.796	0.175	0.046
-552.398	153.097	-0.116	-0.157
-551.383	-3.936	-0.110	0.075
-550.369	249.136	0.087	-0.146
-549.354	-200.000	-0.018	-0.183
-548.339	300.178	-0.153	-0.280
-547.325	800.000	-0.022	-0.074
-546.310	800.000	0.163	-0.495
-545.296	93.632	-0.038	-0.043
-544.281	-188.036	0.226	-0.003
-543.266	-134.444	-0.354	0.043
-542.252	-200.000	0.054	0.312
-541.237	299.782	0.158	-0.289
-540.223	-140.583	-0.398	0.041
-539.208	-77.085	0.129	0.045
-538.193	-2.682	0.262	-0.182
-537.179	-33.102	0.157	-0.087
-536.164	50.298	0.271	-0.253
-535.150	-92.170	-0.079	-0.022
-534.135	-200.000	0.029	-0.247
-533.121	500.453	0.209	0.478
-532.106	18.067	-0.238	0.188
-531.091	414.226	0.132	-0.279
-530.077	-69.530	-0.069	-0.026
-529.062	182.189	0.127	0.186
-528.048	-200.000	-0.039	0.267
-527.033	558.332	0.076	0.182
-526.018	-200.000	-0.014	0.126
-525.004	-100.564	0.238	0.058
-523.989	303.036	-0.139	-0.255
-522.975	-105.256	0.206	-0.047
-521.960	800.000	0.114	-0.346
-520.945	43.307	0.115	0.104
-519.931	7.610	0.130	0.096
-518.916	3.708	-0.093	-0.068
-517.902	-91.550	0.254	-0.072
-516.887	-200.000	0.022	-0.113
-515.872	122.140	0.136	0.169
-514.858	196.468	-0.017	0.026
-513.843	-132.299	-0.141	-0.018
-512.829	-105.104	0.034	-0.008
-511.814	-200.000	-0.019	-0.328
-510.799	-149.071	0.215	0.017
-509.785	-76.308	0.231	-0.081
-508.770	650.969	0.079	-0.201
-507.756	-114.790	-0.119	-0.022
-506.741	-63.809	0.212	0.086
-505.726	-200.000	-0.035	0.201
-504.712	393.467	-0.106	0.218
-503.697	18.346	-0.140	-0.111
-502.683	800.000	-0.057	0.244
-501.668	-19.969	-0.112	0.069
-500.653	-200.000	-0.008	0.356
-499.639	-56.731	0.318	-0.139
-498.624	120.474	-0.209	-0.257
-497.610	800.000	0.041	-0.130
-496.595	50.730	-0.208	0.195
-495.581	56.677	-0.189	-0.182
-494.566	-132.111	0.179	-0.023
-493.551	-33.052	-0.150	0.082
-492.537	-167.589	-0.170	-0.007
-491.522	-200.000	0.004	0.133
-490.508	800.000	-0.063	-0.174
-489.493	-112.838	-0.221	0.043
-488.478	-194.288	0.222	-0.002
-487.464	-59.627	0.256	-0.109
-486.449	-65.894	-0.197	-0.078
-485.435	-168.320	-0.107	-0.004
-484.420	-39.927	0.342	0.177
-483.405	-89.083	0.222	0.065
-482.391	54.333	-0.329	0.313
-481.376	800.000	0.061	-0.217
-480.362	-139.932	0.060	0.006
-479.347	-10.447	-0.277	-0.182
-478.332	4.278	0.184	-0.133
-477.318	-161.843	-0.209	0.010
-476.303	605.462	0.045	-0.112
-475.289	41.740	0.321	-0.288
-474.274	221.106	-0.067	0.106
-473.259	-36.151	-0.273	-0.146
-472.245	-6.734	-0.133	-0.090
-471.230	-102.562	0.169	0.040
-470.216	500.472	0.130	0.296
-469.201	2.017	-0.088	-0.063
-468.186	-2.012	-0.159	0.110
-467.172	-78.007	-0.275	0.094
-466.157	716.874	-0.133	-0.349
-465.143	111.762	0.074	0.089
-464.128	171.803	-0.062	-0.088
-463.113	39.458	0.220	0.194
-462.099	-41.929	-0.100	-0.051
-461.084	22.464	0.267	-0.216
-460.070	-200.000	0.032	-0.603
-459.055	22.638	-0.213	0.173
-458.040	-70.344	0.186	0.070
-457.026	65.929	-0.036	0.036
-456.011	374.584	-0.086	-0.174
-454.997	-73.983	0.134	0.048
-453.982	-200.000	0.009	0.076
-452.968	284.439	-0.099	0.177
-451.953	351.833	0.150	0.293
-450.938	-143.947	-0.250	-0.023
-449.924	31.166	-0.319	-0.270
-448.909	65.634	0.125	-0.125
-447.895	-2.483	-0.186	0.129
-446.880	-57.887	0.054	-0.024
-445.865	452.824	-0.060	-0.132
-444.851	-53.007	-0.278	-0.126
-443.836	800.000	-0.083	-0.228
-442.822	-38.918	-0.212	-0.110
-441.807	-200.000	-0.017	-0.119
-440.792	-67.622	-0.141	-0.055
-439.778	236.068	0.223	-0.363
-438.763	800.000	-0.057	0.224
-437.749	85.150	0.131	-0.142
-436.734	-200.000	-0.133	-0.000
-435.719	74.536	0.137	-0.142
-434.705	-159.565	0.521	-0.029
-433.690	31.995	-0.362	0.308
-432.676	-137.044	-0.217	-0.025
-431.661	800.000	-0.039	-0.111
-430.646	102.171	-0.078	0.090
-429.632	430.660	0.182	0.390
-428.617	-91.984	0.203	-0.057
-427.603	-200.000	0.040	0.214
-426.588	-139.704	0.337	0.035
-425.573	-200.000	0.002	-0.259
-424.559	53.242	-0.154	-0.146
-423.544	39.264	0.253	-0.223
-422.530	800.000	0.075	-0.305
-421.515	-7.415	-0.205	-0.137
-420.500	800.000	-0.010	-0.038
-419.486	-200.000	-0.003	0.182
-418.471	338.651	0.153	0.294
-417.457	231.947	-0.053	-0.086
-416.442	-57.014	-0.242	0.105
-415.428	-77.116	-0.236	0.081
-414.413	-96.303	-0.158	0.041
-413.398	-65.688	-0.131	-0.052
-412.384	637.725	0.033	-0.083
-411.369	-61.633	0.222	-0.092
-410.355	-87.258	-0.120	-0.036
-409.340	259.766	-0.195	-0.332
-408.325	40.309	-0.026	0.023
-407.311	800.000	-0.061	-0.182
-406.296	-35.681	0.180	0.096
-405.282	251.796	-0.085	-0.143
-404.267	34.793	0.323	-0.279
-403.252	477.828	0.031	0.068
-402.238	98.162	0.140	-0.159
-401.223	-200.000	-0.043	-0.217
-400.209	310.362	0.219	0.404
-399.194	168.364	-0.134	0.188
-398.179	-200.000	-0.001	0.056
-397.165	87.250	0.244	0.266
-396.150	-54.913	0.294	-0.130
-395.136	137.876	-0.216	-0.279
-394.121	-153.028	-0.163	-0.011
-393.106	-139.125	0.203	-0.022
-392.092	-79.192	-0.122	0.041
-391.077	-200.000	-0.073	0.510
-390.063	142.936	0.138	0.181
-389.048	-33.072	0.204	0.112
-388.033	-49.430	-0.220	-0.103
-387.019	-80.315	-0.142	-0.047
-386.004	-175.955	-0.173	0.005
-384.990	-200.000	-0.039	-0.376
-383.975	-200.000	0.000	0.257
-382.960	-190.933	0.215	0.002
-381.946	-92.978	-0.028	-0.008
-380.931	-200.000	0.012	0.105
-379.917	15.524	0.092	-0.071
-378.902	28.087	0.040	-0.033
-377.888	-92.437	0.231	0.064
-376.873	68.957	-0.144	0.145
-375.858	-19.830	-0.136	-0.083
-374.844	236.676	0.071	0.116
-373.829	606.647	0.090	-0.220
-372.815	590.465	-0.078	-0.188
-371.800	725.228	-0.073	0.191
-370.785	-127.408	-0.434	-0.062
-369.771	-129.251	-0.330	0.045
-368.756	-128.378	-0.147	-0.021
-367.742	800.000	-0.061	-0.183
-366.727	562.411	0.079	0.187
-365.712	60.355	-0.161	-0.156
-364.698	-200.000	0.017	0.284
-363.683	800.000	-0.061	0.185
-362.669	-62.711	-0.369	-0.151
-361.654	800.000	-0.080	-0.226
-360.639	417.376	-0.067	0.141
-359.625	266.323	0.094	-0.162
-358.610	-50.187	-0.101	-0.047
-357.596	184.081	0.200	0.291
-356.581	-154.215	0.294	0.020
-355.566	250.793	0.044	-0.074
-354.552	693.372	0.151	-0.389
-353.537	-125.737	0.056	-0.008
-352.523	19.197	0.219	0.173
-351.508	376.941	-0.111	0.222
-350.493	-69.590	0.381	-0.144
-349.479	89.228	0.076	0.084
-348.464	-51.704	0.098	-0.045
-347.450	51.968	-0.237	0.222
-346.435	-200.000	0.003	0.040
-345.420	-45.017	-0.500	-0.245
-344.406	-200.000	-0.085	-0.388
-343.391	58.924	0.125	-0.121
-342.377	-118.479	-0.255	0.045
-341.362	-12.382	0.202	0.130
-340.348	-107.111	0.100	-0.022
-339.333	128.922	0.193	-0.242
-338.318	800.000	-0.010	0.037
-337.304	579.189	0.109	-0.263
-336.289	-104.264	0.196	0.045
-335.275	129.954	-0.045	0.056
-334.260	170.131	0.032	-0.045
-333.245	-38.829	0.025	0.013
-332.231	-136.183	0.248	-0.028
-331.216	-159.276	0.146	-0.008
-330.202	-61.041	0.102	0.042
-329.187	-200.000	0.003	-0.159
-328.172	-27.115	-0.119	0.068
-327.158	-161.138	0.545	-0.028
-326.143	-151.863	-0.241	0.017
-325.129	-33.754	0.183	-0.099
-324.114	-116.567	-0.092	0.017
-323.099	-123.241	0.062	-0.010
-322.085	-107.989	-0.358	-0.076
-321.070	-200.000	0.017	-0.201
-320.056	95.117	-0.191	-0.214
-319.041	144.352	0.156	0.205
-318.026	-49.721	0.101	-0.047
-317.012	113.319	-0.214	0.255
-315.997	4.451	0.129	0.093
-314.983	270.976	-0.125	-0.216
-313.968	-200.000	0.056	-0.307
-312.953	-200.000	-0.015	0.094
-311.939	-32.221	0.244	0.134
-310.924	-200.000	0.024	-0.189
-309.910	306.932	-0.050	-0.092
-308.895	-200.000	0.028	-0.269
-307.880	-168.001	0.228	0.009
-306.866	-200.000	0.026	-0.169
-305.851	-26.943	-0.170	0.097
-304.837	-200.000	0.017	0.233
-303.822	-200.000	-0.046	0.240
-302.807	800.000	0.004	0.016
-301.793	800.000	-0.078	0.295
-300.778	-200.000	0.016	0.172
-299.764	800.000	-0.039	0.166
-298.749	-61.334	0.113	0.047
-297.735	624.086	-0.038	-0.093
-296.720	-41.839	-0.064	0.032
-295.705	252.052	0.037	0.062
-294.691	59.057	-0.047	-0.045
-293.676	98.149	-0.150	-0.169
-292.662	31.971	-0.171	-0.145
-291.647	25.065	-0.209	-0.170
-290.632	136.620	0.239	-0.307
-289.618	800.000	-0.046	0.194
-288.603	800.000	0.017	0.062
-287.589	-194.989	0.039	0.000
-286.574	-200.000	-0.038	-0.303
-285.559	456.568	-0.124	0.270
-284.545	-200.000	0.056	0.348
-283.530	800.000	0.104	0.294
-282.516	-200.000	0.028	0.427
-281.501	82.230	0.153	0.163
-280.486	792.211	-0.116	-0.312
-279.472	-200.000	-0.053	0.345
-278.457	-103.222	-0.044	-0.010
-277.443	-155.296	0.107	0.007
-276.428	211.858	-0.167	-0.258
-275.413	-200.000	-0.032	0.306
-274.399	103.989	0.279	0.322
-273.384	384.965	0.129	0.260
-272.370	-14.764	0.219	-0.138
-271.355	249.729	-0.109	-0.181
-270.340	96.437	0.254	0.285
-269.326	3.123	-0.100	0.071
-268.311	-57.277	-0.180	0.078
-267.297	-19.402	-0.197	0.120
-266.282	-102.111	0.205	-0.048
-265.267	1.070	0.206	-0.145
-264.253	-103.233	-0.226	0.052
-263.238	190.112	0.091	-0.134
-262.224	601.702	0.131	0.320
-261.209	-200.000	-0.033	0.325
-260.195	-5.446	-0.297	-0.200
-259.180	139.432	-0.135	-0.174
-258.165	91.730	-0.077	-0.085
-257.151	-163.482	0.516	-0.024
-256.136	-200.000	0.015	0.222
-255.122	124.721	0.147	-0.182
-254.107	46.583	-0.046	-0.041
-253.092	800.000	0.014	0.060
-252.078	20.862	0.300	0.239
-251.063	-200.000	-0.026	0.335
-250.049	516.008	0.064	-0.146
-249.034	-200.000	0.047	-0.305
-248.019	22.762	0.124	0.099
-247.005	800.000	0.053	-0.188
-245.990	-49.902	-0.115	0.053
-244.976	-127.073	0.415	-0.060
-243.961	-159.356	-0.223	0.012
-242.946	-68.758	-0.231	-0.088
-241.932	-200.000	-0.014	0.095
-240.917	223.612	0.191	0.302
-239.903	-200.000	0.008	0.328
-238.888	-49.037	-0.228	0.107
-237.873	70.772	0.111	0.112
-236.859	227.148	-0.093	-0.149
-235.844	-65.108	-0.057	0.023
-234.830	-133.936	0.052	0.006
-233.815	-68.437	-0.156	0.059
-232.800	800.000	0.080	0.281
-231.786	-118.652	0.288	-0.050
-230.771	196.506	0.075	0.113
-229.757	50.277	-0.234	0.216
-228.742	76.728	0.130	0.135
-227.727	99.433	0.186	0.211
-226.713	800.000	0.101	0.292
-225.698	-200.000	0.078	0.361
-224.684	-126.230	0.189	0.028
-223.669	34.185	-0.095	0.081
-222.655	208.362	0.022	-0.033
-221.640	-103.516	-0.289	-0.067
-220.625	-137.458	-0.182	-0.020
-219.611	47.496	0.128	0.117
-218.596	529.087	-0.083	-0.191
-217.582	474.632	0.137	0.304
-216.567	-37.143	0.218	-0.114
-215.552	-200.000	0.003	0.232
-214.538	-47.742	-0.164	0.078
-213.523	-119.214	-0.069	-0.012
-212.509	-200.000	-0.058	0.290
-211.494	-99.715	0.042	-0.010
-210.479	800.000	-0.078	-0.335
-209.465	-200.000	0.035	0.159
-208.450	102.076	-0.069	-0.079
-207.436	-97.052	-0.177	0.045
-206.421	-200.000	-0.003	0.230
-205.406	213.928	-0.134	0.208
-204.392	35.033	0.097	0.083
-203.377	595.427	-0.110	-0.266
-202.363	707.452	-0.058	-0.150
-201.348	-79.142	0.240	-0.080
-200.333	-121.328	-0.101	-0.016
-199.319	145.679	0.201	0.263
-198.304	71.236	0.074	0.075
-197.290	13.887	0.269	0.205
-196.275	-86.654	0.077	0.023
-195.260	-17.864	0.234	0.144
-194.246	800.000	0.070	-0.218
-193.231	155.707	0.058	-0.078
-192.217	-46.664	0.081	0.039
-191.202	-200.000	-0.022	-0.157
-190.187	96.471	0.080	-0.090
-189.173	35.695	0.159	0.136
-188.158	-10.934	-0.252	0.163
-187.144	68.456	0.152	-0.152
-186.129	-125.929	0.026	-0.004
-185.114	-200.000	-0.027	-0.700
-184.100	-200.000	0.001	0.242
-183.085	-200.000	0.013	0.173
-182.071	-80.231	-0.330	-0.108
-181.056	800.000	-0.065	0.232
-180.042	-129.810	0.079	0.011
-179.027	-131.564	0.111	-0.014
-178.012	-103.023	0.270	-0.062
-176.998	125.331	0.144	0.177
-175.983	-24.146	0.318	-0.186
-174.969	-200.000	-0.088	-0.500
-173.954	-114.213	0.319	-0.060
-172.939	800.000	0.108	-0.336
-171.925	-8.394	-0.237	-0.156
-170.910	5.440	0.273	0.197
-169.896	-29.086	0.167	-0.094
-168.881	-200.000	0.012	-0.254
-167.866	48.826	0.094	-0.086
-166.852	-96.377	-0.141	0.036
-165.837	-5.885	0.089	0.060
-164.823	-200.000	-0.006	0.172
-163.808	-19.354	0.318	0.192
-162.793	101.879	0.110	0.125
-161.779	142.182	-0.124	0.160
-160.764	-130.310	-0.160	-0.021
-159.750	800.000	0.079	0.326
-158.735	-200.000	0.448	-0.001
-157.720	-7.175	-0.126	0.083
-156.706	83.680	0.106	0.113
-155.691	371.241	0.066	-0.131
-154.677	172.863	-0.334	0.470
-153.662	424.292	-0.147	0.308
-152.647	-83.976	-0.112	-0.035
-151.633	332.253	0.077	0.145
-150.618	278.577	0.185	0.323
-149.604	88.700	-0.136	-0.148
-148.589	-19.066	0.213	-0.129
-147.574	-200.000	-0.014	-0.445
-146.560	-62.955	-0.279	0.112
-145.545	44.159	0.166	-0.148
-144.531	295.317	-0.073	0.131
-143.516	59.499	0.180	0.173
-142.502	-8.616	0.281	0.184
-141.487	29.185	-0.102	0.085
-140.472	202.253	0.100	-0.151
-139.458	181.713	0.152	0.218
-138.443	-200.000	0.021	-0.136
-137.429	-200.000	-0.016	0.314
-136.414	-148.895	-0.093	0.007
-135.399	-23.392	-0.309	-0.181
-134.385	-138.248	0.244	0.026
-133.370	-157.784	-0.302	0.018
-132.356	800.000	-0.129	-0.431
-131.341	563.450	-0.243	-0.573
-130.326	66.577	-0.221	-0.219
-129.312	-48.437	0.127	0.060
-128.297	800.000	0.076	0.237
-127.283	-140.689	0.148	0.015
-126.268	-32.674	0.316	-0.172
-125.253	-200.000	-0.002	-0.062
-124.239	18.624	0.218	0.170
-123.224	123.261	0.081	0.099
-122.210	62.537	0.137	-0.134
-121.195	-24.288	0.236	0.137
-120.180	-200.000	0.031	-0.139
-119.166	-113.700	0.329	0.063
-118.151	-81.713	0.069	-0.022
-117.137	-200.000	-0.051	-0.309
-116.122	21.894	0.010	-0.008
-115.107	61.635	-0.102	0.099
-114.093	-114.354	0.414	0.078
-113.078	800.000	0.132	-0.545
-112.064	792.941	0.119	0.318
-111.049	-105.764	-0.173	-0.038
-110.034	590.238	-0.139	0.334
-109.020	-183.077	0.017	0.000
-108.005	-52.438	-0.268	0.121
-106.991	74.471	0.116	-0.119
-105.976	-29.453	-0.134	-0.075
-104.962	-200.000	-0.018	0.115
-103.947	-199.432	0.070	-0.000
-102.932	155.604	-0.125	0.168
-101.918	-26.129	-0.117	0.067
-100.903	-87.535	0.135	0.040
-99.889	-200.000	-0.021	0.217
-98.874	-3.089	0.122	0.083
-97.859	-200.000	0.043	-0.561
-96.845	-71.074	-0.249	0.091
-95.830	241.607	0.078	0.128
-94.816	-101.124	-0.302	-0.072
-93.801	15.156	-0.321	0.245
-92.786	-58.250	0.143	0.061
-91.772	-164.231	0.045	0.002
-90.757	283.127	0.094	0.165
-89.743	-200.000	0.003	0.242
-88.728	-158.780	0.317	0.018
-87.713	-43.932	-0.138	0.067
-86.699	93.665	-0.034	-0.038
-85.684	-75.248	0.130	0.045
-84.670	48.708	0.347	-0.317
-83.655	269.276	-0.117	-0.200
-82.640	-118.894	0.421	0.072
-81.626	285.937	0.034	-0.060
-80.611	161.952	-0.098	-0.134
-79.597	505.594	-0.099	-0.224
-78.582	4.171	-0.149	-0.107
-77.567	-93.371	0.051	0.014
-76.553	278.241	-0.087	-0.151
-75.538	-115.619	0.077	-0.014
-74.524	64.351	-0.163	0.160
-73.509	85.957	0.168	0.180
-72.494	-200.000	-0.009	0.221
-71.480	122.625	-0.093	0.113
-70.465	-176.841	-0.042	-0.001
-69.451	-14.871	0.394	0.246
-68.436	-32.998	0.145	-0.078
-67.422	145.541	-0.159	0.207
-66.407	-135.334	0.099	0.012
-65.392	-3.281	0.296	-0.201
-64.378	119.429	-0.025	0.030
-63.363	-152.948	0.399	0.027
-62.349	4.523	-0.164	-0.117
-61.334	208.992	-0.832	-1.267
-60.319	140.776	0.770	0.990
-59.305	800.000	-0.418	-1.504
-58.290	212.321	1.019	1.563
-57.276	800.000	0.547	1.720
-56.261	-200.000	138.158	637.608
-55.246	341.373	1657.140	3150.200
-54.232	136.535	2785.889	3536.599
-53.217	82.712	2182.599	2306.851
-52.203	29.420	1702.359	1407.395
-51.188	22.651	1528.225	1216.850
-50.173	21.165	1507.954	1190.535
-49.159	44.089	1585.562	1413.938
-48.144	40.276	1594.520	1395.070
-47.130	22.664	1543.342	1228.783
-46.115	20.135	1527.392	1198.570
-45.100	19.861	1524.478	1194.344
-44.086	19.860	1522.359	1192.628
-43.071	19.783	1520.947	1190.945
-42.057	19.828	1519.115	1189.772
-41.042	19.875	1517.656	1188.908
-40.027	19.808	1515.899	1187.024
-39.013	19.777	1514.599	1185.744
-37.998	19.656	1513.728	1184.185
-36.984	19.794	1511.703	1183.503
-35.969	19.780	1510.721	1182.589
-34.954	19.687	1509.379	1180.858
-33.940	19.781	1508.289	1180.597
-32.925	19.760	1506.739	1179.195
-31.911	19.783	1505.158	1178.065
-30.896	19.794	1504.232	1177.373
-29.881	19.800	1503.051	1176.444
-28.867	19.889	1501.106	1175.477
-27.852	19.844	1500.242	1174.450
-26.838	19.846	1498.824	1173.302
-25.823	19.927	1497.299	1172.613
-24.809	19.955	1495.398	1171.268
-23.794	19.876	1494.308	1169.832
-22.779	19.863	1493.202	1168.835
-21.765	19.890	1492.124	1168.127
-20.750	19.966	1490.731	1167.501
-19.736	19.859	1489.956	1166.128
-18.721	19.857	1489.276	1165.534
-17.706	19.905	1487.407	1164.346
-16.692	19.806	1486.731	1163.109
-15.677	19.804	1485.983	1162.463
-14.663	19.798	1484.722	1161.393
-13.648	19.806	1483.706	1160.602
-12.633	19.876	1482.395	1160.002
-11.619	19.687	1482.105	1158.460
-10.604	19.765	1481.043	1158.108
-9.590	19.811	1480.223	1157.728
-8.575	19.852	1479.192	1157.152
-7.560	19.826	1478.367	1156.286
-6.546	19.805	1477.898	1155.733
-5.531	19.711	1477.041	1154.389
-4.517	19.798	1475.581	1153.780
-3.502	19.827	1474.706	1153.244
-2.487	19.786	1473.511	1151.990
-1.473	19.754	1472.589	1151.014
-0.458	19.749	1471.305	1149.926
0.556	18.825	1461.074	1137.910
1.571	15.393	1437.148	1096.780
2.586	11.774	1375.453	1026.926
3.600	10.128	1290.959	954.056
4.615	9.248	1247.738	917.013
5.629	8.345	1191.874	870.952
6.644	4.433	1112.878	793.204
7.659	1.157	1079.330	752.978
8.673	0.667	1074.567	747.164
9.688	0.638	1070.884	744.397
10.702	0.655	1069.241	743.270
11.717	0.490	1067.565	741.229
12.731	2.069	1066.779	748.364
13.746	6.994	1072.979	776.887
14.761	13.295	1082.175	814.606
15.775	16.793	1086.846	835.326
16.790	16.955	1085.780	835.228
17.804	16.025	1083.597	828.901
18.819	15.257	1081.142	823.181
19.834	14.775	1080.081	819.938
20.848	14.464	1079.428	817.844
21.863	14.214	1078.681	815.979
22.877	13.972	1077.838	814.082
23.892	13.724	1076.803	812.017
24.907	13.706	1076.114	811.334
25.921	13.760	1075.190	810.831
26.936	13.742	1074.480	810.136
27.950	13.765	1073.918	809.755
28.965	13.792	1073.150	809.233
29.980	13.889	1072.024	808.786
30.994	14.007	1070.821	808.380
32.009	13.955	1070.264	807.635
33.023	13.876	1069.119	806.317
34.038	13.938	1068.601	806.156
35.053	13.819	1067.886	804.970
36.067	13.814	1066.361	803.723
37.082	13.742	1066.272	803.235
38.096	13.950	1065.057	803.254
39.111	13.956	1064.082	802.480
40.126	14.015	1063.389	802.170
41.140	14.004	1062.065	801.049
42.155	13.777	1061.320	799.318
43.169	13.980	1060.243	799.418
44.184	13.918	1059.370	798.387
45.199	13.819	1058.172	796.940
46.213	13.737	1057.567	796.018
47.228	13.866	1056.243	795.573
48.242	13.854	1055.551	794.924
49.257	13.812	1054.644	793.966
50.271	13.920	1052.860	793.068
51.286	13.866	1052.700	792.620
52.301	13.944	1051.665	792.146
53.315	13.910	1050.836	791.286
54.330	13.884	1050.477	790.825
55.344	13.853	1049.291	789.713
56.359	13.822	1047.956	788.489
57.374	13.830	1047.154	787.856
58.388	13.858	1046.315	787.287
59.403	13.784	1045.647	786.363
60.417	13.856	1044.550	785.809
61.432	13.832	1043.638	784.945
62.447	13.925	1042.790	784.672
63.461	13.717	1042.839	783.658
64.476	13.642	1041.944	782.562
65.490	13.693	1040.808	781.879
66.505	13.790	1039.588	781.353
67.520	13.675	1039.017	780.314
68.534	13.798	1037.661	779.804
69.549	13.750	1037.526	779.406
70.563	13.791	1036.641	778.865
71.578	13.652	1036.320	777.901
72.593	13.738	1035.030	777.267
73.607	13.642	1034.130	776.077
74.622	13.612	1033.603	775.473
75.636	13.713	1032.057	774.714
76.651	13.608	1031.816	773.977
77.666	13.670	1031.046	773.619
78.680	13.706	1029.996	772.927
79.695	13.692	1029.750	772.612
80.709	13.711	1028.744	771.877
81.724	13.766	1027.802	771.356
82.739	13.757	1027.342	770.901
83.753	13.748	1026.825	770.402
84.768	13.779	1025.511	769.493
85.782	13.941	1024.225	769.212
86.797	14.063	1023.540	769.192
87.812	13.919	1023.146	768.162
88.826	13.840	1022.607	767.325
89.841	13.843	1021.628	766.537
90.855	13.817	1020.930	765.824
91.870	13.840	1020.263	765.364
92.884	13.976	1019.400	765.273
93.899	14.040	1018.581	764.885
94.914	14.040	1017.560	764.054
95.928	14.040	1017.253	763.754
96.943	14.164	1016.214	763.474
97.957	13.962	1015.713	762.107
98.972	13.987	1014.701	761.390
99.987	13.950	1013.797	760.479
101.001	13.928	1013.282	759.922
102.016	13.968	1012.528	759.473
103.030	13.993	1011.261	758.570
104.045	13.977	1010.428	757.803
105.060	14.055	1009.497	757.393
106.074	14.022	1008.478	756.413
107.089	14.008	1007.538	755.579
108.103	13.905	1006.684	754.405
109.118	13.894	1005.818	753.636
110.133	13.915	1005.067	753.101
111.147	13.885	1003.783	751.937
112.162	13.899	1003.101	751.425
113.176	13.885	1002.288	750.685
114.191	13.915	1001.362	750.059
115.206	14.016	1000.086	749.497
116.220	13.939	999.533	748.668
117.235	14.015	998.513	748.179
118.249	13.929	997.960	747.313
119.264	13.932	996.755	746.356
120.279	13.910	996.390	745.917
121.293	13.999	995.174	745.342
122.308	13.916	994.725	744.565
123.322	13.890	993.553	743.505
124.337	13.768	993.036	742.507
125.352	13.852	991.627	741.767
126.366	13.952	990.282	741.137
127.381	13.808	989.413	739.780
128.395	13.848	988.128	738.933
129.410	13.779	987.225	737.884
130.424	13.757	986.493	737.174
131.439	13.735	985.328	736.141
132.454	13.923	984.585	736.353
133.468	13.809	984.327	735.591
134.483	13.821	983.374	734.866
135.497	13.942	982.297	734.533
136.512	13.852	981.966	733.821
137.527	13.953	981.059	733.525
138.541	13.793	980.501	732.336
139.556	13.852	979.830	732.032
140.570	13.929	978.703	731.464
141.585	13.951	977.984	730.959
142.600	14.041	977.365	730.827
143.614	14.098	976.392	730.283
144.629	13.987	975.792	729.284
145.643	14.130	974.774	729.088
146.658	14.078	974.043	728.248
147.673	14.036	973.424	727.535
148.687	14.044	972.650	726.927
149.702	14.017	971.333	725.761
150.716	13.972	970.821	725.120
151.731	14.001	969.789	724.412
152.746	13.999	968.923	723.689
153.760	14.087	968.334	723.569
154.775	14.137	967.224	722.894
155.789	13.981	966.769	721.814
156.804	14.143	965.848	721.766
157.819	14.270	964.714	721.405
158.833	14.149	964.306	720.509
159.848	14.184	963.788	720.210
160.862	14.248	963.315	720.071
161.877	14.235	962.186	719.106
162.892	14.217	961.212	718.238
163.906	14.194	960.354	717.432
164.921	14.108	959.028	716.009
165.935	14.239	958.185	715.879
166.950	14.238	957.492	715.295
167.964	14.202	956.380	714.245
168.979	14.154	955.390	713.236
169.994	14.213	954.388	712.680
171.008	14.137	953.785	711.842
172.023	14.292	952.708	711.635
173.037	14.265	952.175	711.061
174.052	14.269	951.715	710.669
175.067	14.389	950.647	710.322
176.081	14.297	950.209	709.541
177.096	14.214	949.134	708.320
178.110	14.173	948.252	707.427
179.125	14.261	947.886	707.463
180.140	14.213	947.096	706.607
181.154	14.192	946.441	705.966
182.169	14.356	945.368	705.800
183.183	14.297	944.846	705.098
184.198	14.495	943.979	705.226
185.213	14.327	943.661	704.217
186.227	14.528	942.819	704.372
187.242	14.511	942.385	703.913
188.256	14.436	942.102	703.325
189.271	14.564	940.787	702.819
190.286	14.565	940.039	702.203
191.300	14.412	939.322	700.964
192.315	14.467	938.405	700.446
193.329	14.253	937.866	699.085
194.344	14.276	937.127	698.569
195.359	14.357	936.936	698.702
196.373	14.491	936.169	698.630
197.388	14.433	935.675	697.957
198.402	14.499	935.302	697.897
199.417	14.643	934.398	697.759
200.432	14.586	934.066	697.214
201.446	14.642	933.650	697.076
202.461	14.709	933.208	696.963
203.475	14.862	932.429	696.956
204.490	14.797	931.579	695.990
205.504	14.749	930.587	694.987
206.519	14.698	930.075	694.331
207.534	14.655	929.332	693.536
208.548	14.725	928.658	693.263
209.563	14.918	927.654	693.250
210.577	14.716	927.349	692.123
211.592	14.756	926.749	691.782
212.607	14.861	925.932	691.545
213.621	15.008	925.281	691.605
214.636	14.863	924.712	690.519
215.650	14.788	924.643	690.098
216.665	14.767	923.618	689.186
217.680	14.892	923.095	689.250
218.694	14.935	922.640	689.026
219.709	14.927	922.031	688.477
220.723	14.909	921.476	687.929
221.738	14.973	920.679	687.535
222.753	14.946	920.111	686.937
223.767	15.010	919.139	686.413
224.782	14.990	918.473	685.773
225.796	15.165	917.677	685.838
226.811	15.161	916.788	685.094
227.826	14.939	916.467	683.885
228.840	15.050	915.597	683.632
229.855	15.125	914.770	683.258
230.869	15.041	914.325	682.522
231.884	14.887	914.033	681.617
232.899	15.104	912.819	681.534
233.913	14.948	912.316	680.463
234.928	15.029	911.712	680.280
235.942	15.141	910.704	679.923
236.957	14.981	910.039	678.717
237.972	15.013	909.223	678.182
238.986	15.074	908.678	677.961
240.001	15.077	908.314	677.643
241.015	15.036	907.410	676.739
242.030	15.166	906.352	676.418
243.045	15.018	906.010	675.505
244.059	15.203	905.179	675.570
245.074	15.326	904.473	675.479
246.088	15.213	904.032	674.637
247.103	15.288	903.417	674.420
248.117	15.258	902.441	673.512
249.132	15.198	902.303	673.108
250.147	15.359	902.006	673.473
251.161	15.455	900.546	672.708
252.176	15.367	900.261	672.084
253.190	15.409	899.527	671.644
254.205	15.542	898.880	671.630
255.220	15.584	898.490	671.450
256.234	15.510	897.815	670.590
257.249	15.667	896.675	670.306
258.263	15.639	896.024	669.646
259.278	15.561	895.997	669.259
260.293	15.546	895.595	668.839
261.307	15.657	894.711	668.560
262.322	15.828	893.826	668.521
263.336	15.800	893.373	668.012
264.351	15.626	892.885	666.896
265.366	15.915	892.112	667.406
266.380	15.793	891.759	666.600
267.395	15.684	891.116	665.629
268.409	15.732	890.665	665.421
269.424	15.805	889.829	665.027
270.439	15.758	889.099	664.236
271.453	15.709	887.993	663.160
272.468	15.774	887.286	662.828
273.482	15.768	886.757	662.349
274.497	15.682	886.452	661.726
275.512	15.680	885.513	660.958
276.526	15.738	884.274	660.200
277.541	15.753	884.567	660.422
278.555	15.988	883.495	660.485
279.570	16.017	883.284	660.381
280.585	15.913	882.764	659.527
281.599	16.054	881.709	659.233
282.614	16.117	881.058	658.935
283.628	16.109	880.618	658.514
284.643	16.038	879.822	657.583
285.657	16.110	879.584	657.628
286.672	16.127	878.805	657.056
287.687	15.935	878.904	656.321
288.701	16.028	878.284	656.165
289.716	16.084	877.484	655.725
290.730	16.070	876.907	655.181
291.745	16.034	876.260	654.499
292.760	16.181	874.931	654.019
293.774	15.990	875.025	653.292
294.789	16.134	874.519	653.414
295.803	16.231	873.657	653.087
296.818	16.102	872.974	652.022
297.833	16.249	871.907	651.735
298.847	16.123	871.448	650.846
299.862	16.135	870.929	650.448
300.876	16.124	870.049	649.692
301.891	16.191	869.660	649.600
302.906	16.306	868.965	649.467
303.920	16.286	868.158	648.727
304.935	16.219	867.548	647.957
305.949	16.361	867.260	648.231
306.964	16.362	866.548	647.647
307.979	16.408	865.542	647.011
308.993	16.336	865.419	646.586
310.008	16.504	864.689	646.629
311.022	16.407	863.900	645.608
312.037	16.420	863.611	645.385
313.052	16.307	863.372	644.717
314.066	16.517	862.515	644.824
315.081	16.396	862.072	643.972
316.095	16.363	861.469	643.341
317.110	16.413	860.836	643.002
318.125	16.355	860.474	642.454
319.139	16.399	859.929	642.158
320.154	16.496	859.219	641.938
321.168	16.510	858.685	641.535
322.183	16.465	857.897	640.719
323.197	16.579	857.458	640.768
324.212	16.576	856.841	640.237
325.227	16.590	856.054	639.646
326.241	16.477	855.879	639.030
327.256	16.607	854.988	638.801
328.270	16.724	854.123	638.538
329.285	16.546	853.783	637.557
330.300	16.625	853.244	637.395
331.314	16.681	852.477	636.978
332.329	16.572	852.132	636.253
333.343	16.712	851.462	636.224
334.358	16.585	851.356	635.611
335.373	16.719	850.707	635.570
336.387	16.631	849.980	634.644
337.402	16.769	849.435	634.697
338.416	16.823	848.869	634.418
339.431	16.863	848.269	634.064
340.446	16.828	847.409	633.236
341.460	16.835	847.022	632.915
342.475	16.872	846.069	632.286
343.489	16.915	845.592	632.034
344.504	16.873	845.491	631.744
345.519	17.001	844.949	631.759
346.533	16.851	844.433	630.761
347.548	17.064	843.769	631.000
348.562	17.010	843.162	630.289
349.577	16.842	842.792	629.335
350.592	16.960	842.205	629.277
351.606	16.969	842.228	629.274
352.621	16.964	841.476	628.636
353.635	17.047	840.769	628.362
354.650	17.055	840.174	627.889
355.665	16.932	840.034	627.277
356.679	16.915	839.668	626.883
357.694	17.088	838.673	626.726
358.708	17.008	838.484	626.234
359.723	17.120	837.909	626.161
360.738	17.271	837.253	626.171
361.752	17.136	836.579	625.115
362.767	17.211	836.184	625.040
363.781	17.240	836.237	625.132
364.796	17.145	835.820	624.416
365.810	17.270	834.805	624.059
366.825	17.340	834.415	623.970
367.840	17.411	834.074	623.921
368.854	17.409	833.752	623.616
369.869	17.169	833.714	622.652
370.883	17.145	832.889	621.895
371.898	17.185	832.259	621.517
372.913	17.342	831.693	621.613
373.927	17.491	830.589	621.275
374.942	17.356	830.197	620.435
375.956	17.400	829.799	620.242
376.971	17.460	829.177	619.943
377.986	17.560	828.226	619.540
379.000	17.595	827.929	619.388
380.015	17.508	827.325	618.568
381.029	17.499	826.808	618.094
382.044	17.479	826.683	617.873
383.059	17.488	826.412	617.647
384.073	17.759	825.360	617.789
385.088	17.615	824.874	616.848
386.102	17.651	824.410	616.577
387.117	17.636	823.816	616.025
388.132	17.557	823.489	615.440
389.146	17.622	823.078	615.315
390.161	17.752	822.405	615.226
391.175	17.687	822.232	614.806
392.190	17.756	821.782	614.664
393.205	17.676	821.054	613.779
394.219	17.679	820.711	613.479
395.234	17.706	820.355	613.254
396.248	17.633	819.555	612.341
397.263	17.757	819.205	612.469
398.278	17.694	818.374	611.569
399.292	17.687	818.343	611.465
400.307	17.603	818.222	611.021
401.321	17.794	817.450	611.074
402.336	17.717	817.400	610.708
403.350	17.756	816.682	610.256
404.365	17.807	816.501	610.250
405.380	17.726	816.073	609.584
406.394	17.963	815.319	609.815
407.409	18.013	814.644	609.434
408.423	17.878	814.378	608.699
409.438	17.882	813.993	608.373
410.453	18.058	813.520	608.592
411.467	18.086	813.048	608.283
412.482	18.186	812.361	608.071
413.496	18.054	812.128	607.374
414.511	18.020	811.716	606.893
415.526	18.091	811.239	606.732
416.540	18.104	811.035	606.575
417.555	18.057	810.550	605.989
418.569	18.048	810.146	605.605
419.584	18.087	809.493	605.198
420.599	18.115	808.965	604.850
421.613	115.964	1300.751	1492.560
422.628	100.310	1372.334	1492.602
