DTS Sentinel unit serial number:	SN413079Multiplexer serial number:	ORYXHardware model number:	OX4-SRSoftware version number:	ORYX F/W v4.00 Oryx Data Collector v3.7.2.0data status	okinstallation	princeton_trtdifferential loss correction	single-endedforward channel	channel 3reverse channel	N/Adate	2019/09/14time	06:28:35forward acquisition time	60.00reverse acquisition time	0.00gamma	496.2192k internal	0.2340k external	0.2340temperature offset calibration	1.0059default loss term (dB/km)	0.3790temperature slope calibration	1.0000multiplexer offset coefficient	1.0000multiplexer slope coefficient	1.0000fibre end	0.00T internal ref (°C)	26.50T ext. ref 1 (°C)	3.42T ext. ref 2 (°C)	20.42length (m)	temperature (°C)	Stokes	anti-Stokes-747.200	-114.896	-0.052	-0.010
-746.185	800.000	-0.107	0.323
-745.171	123.003	-0.122	0.153
-744.156	170.536	0.125	0.180
-743.142	124.901	-0.175	0.221
-742.127	-115.779	0.030	0.006
-741.112	24.889	0.130	-0.108
-740.098	-84.580	-0.194	0.061
-739.083	800.000	0.030	-0.114
-738.069	-200.000	0.014	-0.088
-737.054	73.345	0.108	-0.114
-736.039	-8.157	-0.134	0.090
-735.025	800.000	-0.040	0.173
-734.010	-67.880	0.133	0.052
-732.996	260.651	-0.083	0.144
-731.981	65.438	-0.146	-0.148
-730.966	-95.545	0.278	-0.075
-729.952	43.937	-0.276	-0.253
-728.937	-200.000	-0.017	0.114
-727.923	-64.068	0.373	-0.152
-726.908	20.195	0.324	0.262
-725.894	-200.000	-0.010	-0.099
-724.879	89.963	-0.079	0.088
-723.864	-14.363	-0.104	0.067
-722.850	44.344	-0.107	-0.098
-721.835	-200.000	0.014	0.291
-720.821	-200.000	-0.040	0.199
-719.806	-200.000	-0.028	0.264
-718.791	-91.292	-0.303	-0.087
-717.777	-150.841	-0.048	0.004
-716.762	800.000	0.109	-0.316
-715.748	-120.649	-0.330	0.056
-714.733	-200.000	0.023	-0.159
-713.718	-30.893	0.232	-0.131
-712.704	-200.000	-0.019	-0.292
-711.689	96.928	-0.124	-0.143
-710.675	800.000	-0.153	0.449
-709.660	256.645	0.082	0.142
-708.645	-98.793	0.114	0.029
-707.631	-113.924	0.168	-0.033
-706.616	-58.997	-0.144	0.062
-705.602	417.341	0.055	0.119
-704.587	-112.570	0.298	-0.059
-703.572	203.571	-0.198	0.307
-702.558	-3.342	-0.189	-0.132
-701.543	613.265	0.077	-0.193
-700.529	211.891	0.154	-0.243
-699.514	-130.148	-0.391	0.053
-698.499	-200.000	-0.031	-0.291
-697.485	484.127	-0.086	-0.197
-696.470	-198.851	-0.215	0.001
-695.456	-200.000	0.032	0.178
-694.441	517.478	0.033	-0.077
-693.426	558.754	0.076	-0.183
-692.412	6.355	0.187	0.139
-691.397	132.359	-0.121	-0.156
-690.383	-34.750	0.221	-0.121
-689.368	63.070	-0.137	-0.138
-688.354	-158.156	0.160	-0.009
-687.339	374.148	-0.123	-0.250
-686.324	-174.559	-0.291	-0.008
-685.310	-200.000	0.009	0.159
-684.295	-90.269	-0.314	-0.091
-683.281	68.392	0.148	-0.152
-682.266	-53.802	0.103	0.047
-681.251	506.640	-0.064	0.149
-680.237	-85.857	0.139	-0.043
-679.222	-58.878	0.200	-0.087
-678.208	-147.050	-0.312	0.027
-677.193	79.443	-0.130	0.140
-676.178	800.000	0.034	0.118
-675.164	-200.000	-0.001	-0.041
-674.149	239.389	-0.107	0.178
-673.135	-86.969	0.182	-0.055
-672.120	-46.972	0.213	-0.104
-671.105	640.344	-0.108	-0.274
-670.091	-200.000	0.052	-0.385
-669.076	391.567	0.122	-0.253
-668.062	194.043	-0.122	-0.185
-667.047	-21.397	0.148	0.090
-666.032	-55.183	-0.262	0.118
-665.018	26.632	0.141	0.118
-664.003	99.406	0.044	-0.051
-662.989	-89.055	0.034	0.010
-661.974	-200.000	0.005	0.260
-660.959	-200.000	0.014	0.162
-659.945	-200.000	0.022	0.307
-658.930	144.250	-0.163	-0.217
-657.916	118.937	-0.262	0.323
-656.901	-23.524	0.186	0.112
-655.886	94.146	-0.159	-0.180
-654.872	800.000	0.052	-0.151
-653.857	5.488	-0.383	-0.283
-652.843	-42.482	-0.121	0.062
-651.828	10.882	-0.094	-0.072
-650.814	-57.795	0.367	-0.160
-649.799	-4.622	-0.330	-0.227
-648.784	-200.000	0.076	-0.364
-647.770	-200.000	-0.012	-0.110
-646.755	33.168	-0.071	-0.062
-645.741	-200.000	-0.011	0.151
-644.726	-200.000	0.057	-0.266
-643.711	38.624	0.060	-0.054
-642.697	-64.708	0.206	-0.083
-641.682	90.066	0.156	0.174
-640.668	161.982	0.136	-0.190
-639.653	-147.577	-0.385	0.032
-638.638	675.491	0.099	-0.256
-637.624	-200.000	-0.047	0.268
-636.609	226.631	-0.250	-0.405
-635.595	-33.913	0.311	0.171
-634.580	-200.000	-0.026	0.255
-633.565	800.000	-0.066	0.187
-632.551	215.574	0.149	-0.236
-631.536	8.855	-0.321	-0.242
-630.522	73.403	0.030	0.031
-629.507	800.000	0.033	0.109
-628.492	238.658	-0.127	-0.211
-627.478	372.839	-0.111	0.226
-626.463	-161.633	-0.155	0.008
-625.449	-112.959	-0.079	0.016
-624.434	-100.856	-0.092	-0.023
-623.419	-3.245	-0.376	0.262
-622.405	-29.583	0.043	0.024
-621.390	-125.969	-0.091	0.014
-620.376	800.000	-0.039	0.127
-619.361	12.668	-0.136	-0.105
-618.346	-200.000	0.048	-0.224
-617.332	91.296	-0.157	-0.176
-616.317	346.731	0.111	0.218
-615.303	-200.000	-0.020	-0.227
-614.288	-128.522	0.394	0.056
-613.273	-48.442	0.568	-0.273
-612.259	-91.922	0.128	-0.036
-611.244	148.177	0.198	0.266
-610.230	800.000	0.118	-0.363
-609.215	-116.404	-0.130	0.024
-608.201	266.524	-0.064	-0.112
-607.186	-124.932	0.200	0.031
-606.171	-13.247	-0.118	-0.076
-605.157	120.924	-0.209	0.260
-604.142	800.000	-0.033	0.145
-603.128	320.314	-0.107	-0.202
-602.113	288.391	0.191	-0.345
-601.098	299.068	0.044	-0.080
-600.084	800.000	-0.029	0.101
-599.069	-41.964	0.434	-0.222
-598.055	-200.000	-0.002	-0.190
-597.040	-200.000	-0.006	-0.078
-596.025	161.515	0.078	0.109
-595.011	230.389	0.237	-0.386
-593.996	165.282	-0.101	-0.142
-592.982	137.350	-0.189	0.246
-591.967	-41.404	-0.014	-0.007
-590.952	572.565	-0.051	0.123
-589.938	-6.477	0.037	0.025
-588.923	800.000	0.023	0.091
-587.909	-104.642	0.099	0.023
-586.894	15.856	-0.296	0.233
-585.879	13.022	0.276	0.213
-584.865	-41.260	0.074	-0.038
-583.850	-151.465	-0.105	0.008
-582.836	-200.000	0.004	0.180
-581.821	147.704	-0.207	-0.277
-580.806	800.000	-0.103	-0.405
-579.792	190.547	-0.070	-0.105
-578.777	-200.000	0.040	0.253
-577.763	-161.208	-0.554	0.029
-576.748	800.000	-0.055	0.156
-575.733	-20.735	-0.159	-0.097
-574.719	800.000	0.039	-0.120
-573.704	-200.000	-0.029	-0.149
-572.690	132.476	0.033	-0.043
-571.675	17.916	0.066	-0.052
-570.661	-200.000	0.100	-0.458
-569.646	-90.363	-0.076	0.022
-568.631	-200.000	-0.002	-0.135
-567.617	56.951	-0.056	0.055
-566.602	40.634	-0.155	-0.139
-565.588	-200.000	0.051	-0.376
-564.573	137.479	-0.248	-0.323
-563.558	34.491	0.125	0.109
-562.544	-200.000	0.001	-0.133
-561.529	-200.000	-0.014	0.138
-560.515	-82.085	-0.075	-0.024
-559.500	113.332	0.188	0.227
-558.485	-155.509	-0.247	0.016
-557.471	800.000	-0.106	0.355
-556.456	-200.000	0.001	-0.058
-555.442	265.967	-0.152	-0.264
-554.427	800.000	-0.059	0.240
-553.412	-200.000	0.011	-0.328
-552.398	124.135	-0.084	0.105
-551.383	-17.341	-0.193	0.121
-550.369	800.000	0.038	-0.121
-549.354	1.242	0.103	0.073
-548.339	-29.677	-0.335	-0.191
-547.325	128.257	0.044	-0.055
-546.310	800.000	-0.032	-0.135
-545.296	-200.000	-0.002	-0.022
-544.281	95.927	0.131	0.149
-543.266	106.004	0.330	0.389
-542.252	-48.185	-0.382	-0.183
-541.237	-171.321	0.479	-0.016
-540.223	-77.521	0.054	0.019
-539.208	-57.899	0.087	-0.038
-538.193	-117.453	-0.222	-0.040
-537.179	109.924	-0.108	0.129
-536.164	-133.608	0.138	-0.017
-535.150	588.302	0.041	0.102
-534.135	-200.000	0.099	0.431
-533.121	-45.205	-0.207	-0.102
-532.106	41.910	-0.212	-0.191
-531.091	-87.940	-0.345	-0.103
-530.077	-200.000	0.019	-0.376
-529.062	235.485	-0.062	-0.101
-528.048	50.999	0.148	0.140
-527.033	-200.000	-0.007	-0.353
-526.018	-200.000	0.118	0.598
-525.004	-43.237	0.217	0.109
-523.989	-200.000	-0.038	0.194
-522.975	-125.358	0.122	-0.018
-521.960	-173.320	0.295	0.009
-520.945	-200.000	0.004	-0.044
-519.931	-127.197	0.133	0.019
-518.916	-169.438	-0.137	-0.005
-517.902	402.311	-0.094	0.197
-516.887	-138.861	0.257	0.028
-515.872	-37.237	-0.145	0.077
-514.858	331.214	-0.178	0.340
-513.843	177.828	-0.035	0.051
-512.829	-92.119	-0.336	-0.094
-511.814	-80.773	0.234	-0.077
-510.799	-20.841	-0.131	0.080
-509.785	340.398	-0.050	0.097
-508.770	-82.093	0.099	0.032
-507.756	-30.009	-0.407	0.230
-506.741	41.305	0.052	-0.047
-505.726	-53.975	-0.399	-0.180
-504.712	-45.780	0.207	0.102
-503.697	584.522	-0.091	0.221
-502.683	16.245	-0.292	0.229
-501.668	-200.000	-0.010	-0.152
-500.653	153.623	0.033	-0.045
-499.639	-200.000	-0.012	0.344
-498.624	800.000	0.022	0.085
-497.610	-81.498	-0.155	0.051
-496.595	-114.680	-0.358	-0.068
-495.581	53.914	-0.236	-0.226
-494.566	-17.666	0.116	-0.072
-493.551	-25.015	-0.186	0.109
-492.537	-99.359	-0.231	0.058
-491.522	578.256	0.150	-0.364
-490.508	-57.352	0.212	-0.092
-489.493	-151.427	0.505	0.037
-488.478	350.440	-0.070	-0.138
-487.464	332.082	-0.137	-0.262
-486.449	-169.153	-0.328	0.012
-485.435	144.560	-0.145	0.193
-484.420	125.104	0.151	-0.189
-483.405	-200.000	0.022	-0.197
-482.391	-200.000	0.006	-0.277
-481.376	475.324	-0.084	0.189
-480.362	167.610	0.113	0.160
-479.347	18.813	0.112	-0.089
-478.332	-200.000	0.023	-0.160
-477.318	6.737	-0.200	0.147
-476.303	482.658	0.241	0.543
-475.289	120.802	-0.218	-0.269
-474.274	-132.932	0.018	-0.002
-473.259	800.000	0.032	-0.089
-472.245	-110.502	0.035	0.007
-471.230	-83.407	0.136	-0.043
-470.216	-200.000	-0.038	0.203
-469.201	61.298	-0.196	-0.193
-468.186	-88.739	-0.130	0.038
-467.172	232.677	0.218	0.355
-466.157	83.168	0.105	-0.113
-465.143	272.978	0.086	-0.151
-464.128	676.279	0.178	-0.459
-463.113	-100.682	0.216	0.053
-462.099	6.403	0.146	0.108
-461.084	-200.000	0.031	-0.221
-460.070	-200.000	-0.006	-0.187
-459.055	-143.367	-0.252	0.024
-458.040	-23.525	-0.349	0.208
-457.026	-40.903	0.235	0.120
-456.011	363.475	-0.053	-0.105
-454.997	-53.408	0.311	-0.141
-453.982	139.978	0.062	0.082
-452.968	800.000	0.037	0.105
-451.953	-115.008	-0.181	0.034
-450.938	-33.703	0.074	-0.041
-449.924	-108.582	-0.085	-0.018
-448.909	-156.146	-0.328	0.020
-447.895	718.705	0.062	0.164
-446.880	352.994	0.094	0.185
-445.865	-84.267	0.255	0.080
-444.851	593.845	-0.169	0.414
-443.836	86.303	-0.114	0.125
-442.822	2.951	-0.068	0.049
-441.807	330.242	-0.106	-0.202
-440.792	137.447	-0.081	0.105
-439.778	-151.738	0.158	-0.012
-438.763	-200.000	0.005	-0.173
-437.749	10.900	0.040	-0.030
-436.734	-25.304	0.157	0.092
-435.719	-120.379	-0.049	-0.008
-434.705	-84.199	0.276	0.087
-433.690	4.722	-0.153	-0.111
-432.676	800.000	-0.055	0.221
-431.661	191.508	0.239	0.357
-430.646	65.898	-0.147	-0.147
-429.632	800.000	-0.021	0.074
-428.617	-73.155	-0.316	0.115
-427.603	-72.095	0.199	-0.073
-426.588	-35.210	0.331	0.179
-425.573	187.435	0.096	-0.141
-424.559	-81.057	0.161	-0.053
-423.544	-25.950	0.243	0.142
-422.530	403.350	-0.056	0.117
-421.515	-147.464	-0.423	-0.035
-420.500	-66.949	0.461	-0.180
-419.486	-32.307	-0.144	-0.080
-418.471	-200.000	0.041	-0.308
-417.457	800.000	-0.071	0.287
-416.442	-35.341	-0.088	0.047
-415.428	-3.706	0.200	-0.137
-414.413	-139.446	0.241	0.026
-413.398	251.115	-0.065	-0.109
-412.384	-200.000	0.017	-0.252
-411.369	-128.956	-0.238	0.033
-410.355	166.723	0.144	0.202
-409.340	110.159	-0.257	-0.306
-408.325	392.071	0.069	-0.143
-407.311	428.067	-0.035	-0.075
-406.296	297.902	-0.134	-0.245
-405.282	58.099	0.048	0.047
-404.267	-42.464	-0.071	0.036
-403.252	-53.246	-0.104	0.047
-402.238	-10.067	0.239	0.157
-401.223	31.940	-0.242	-0.207
-400.209	185.163	-0.163	0.240
-399.194	-40.226	-0.351	-0.181
-398.179	-37.535	0.390	0.206
-397.165	-58.310	-0.217	-0.093
-396.150	-145.071	0.290	-0.026
-395.136	244.587	-0.100	-0.166
-394.121	217.974	-0.115	0.182
-393.106	-117.976	-0.420	-0.074
-392.092	-200.000	-0.029	-0.228
-391.077	301.839	-0.193	-0.353
-390.063	6.080	0.062	-0.046
-389.048	45.721	0.420	0.383
-388.033	59.313	0.196	0.191
-387.019	-200.000	-0.025	0.118
-386.004	800.000	-0.080	-0.248
-384.990	54.282	0.120	-0.114
-383.975	31.843	-0.185	-0.157
-382.960	-123.038	0.127	-0.020
-381.946	380.153	-0.114	0.231
-380.931	270.009	-0.078	0.135
-379.917	8.590	-0.137	-0.102
-378.902	800.000	-0.039	-0.132
-377.888	-149.176	0.186	-0.015
-376.873	367.403	0.123	0.245
-375.858	-10.947	0.231	-0.151
-374.844	-85.454	-0.121	0.037
-373.829	353.042	0.085	0.166
-372.815	-17.153	0.197	-0.123
-371.800	13.312	-0.167	-0.128
-370.785	46.458	0.131	-0.121
-369.771	-60.731	0.088	0.037
-368.756	32.712	0.229	0.196
-367.742	800.000	0.073	-0.228
-366.727	75.237	-0.155	0.162
-365.712	-74.706	0.167	0.059
-364.698	287.613	0.082	0.146
-363.683	12.154	0.087	0.066
-362.669	324.560	-0.055	-0.103
-361.654	-22.467	-0.146	-0.087
-360.639	800.000	-0.047	0.187
-359.625	-200.000	-0.055	-0.283
-358.610	181.666	0.069	-0.100
-357.596	-13.952	-0.305	0.194
-356.581	-119.847	-0.532	-0.090
-355.566	365.378	-0.076	0.151
-354.552	-126.130	0.363	0.054
-353.537	23.069	-0.190	0.154
-352.523	-138.203	-0.063	-0.007
-351.508	223.455	0.093	-0.148
-350.493	243.169	-0.066	0.109
-349.479	-200.000	0.017	0.106
-348.464	-125.510	-0.226	0.034
-347.450	32.199	0.231	-0.196
-346.435	-200.000	-0.014	0.230
-345.420	-170.934	-0.282	0.010
-344.406	101.794	0.225	0.260
-343.391	182.868	-0.054	0.078
-342.377	-90.785	0.133	0.038
-341.362	246.255	0.122	-0.202
-340.348	-7.337	-0.321	0.214
-339.333	-137.759	0.263	-0.029
-338.318	-70.308	0.315	0.118
-337.304	375.983	-0.051	-0.102
-336.289	800.000	0.019	-0.053
-335.275	119.684	-0.090	0.110
-334.260	83.153	-0.036	0.038
-333.245	212.822	0.066	-0.103
-332.231	-186.118	-0.284	-0.004
-331.216	86.101	0.117	-0.127
-330.202	73.224	0.098	0.101
-329.187	-185.456	0.098	-0.001
-328.172	-120.475	0.085	0.014
-327.158	-113.266	-0.108	-0.021
-326.143	-36.635	0.127	-0.067
-325.129	387.329	-0.082	-0.167
-324.114	73.777	0.245	0.253
-323.099	800.000	-0.020	0.060
-322.085	-118.895	-0.072	0.012
-321.070	194.107	-0.105	0.157
-320.056	315.048	0.152	0.282
-319.041	-53.175	-0.059	0.027
-318.026	631.753	0.121	-0.301
-317.012	103.826	0.196	-0.228
-315.997	31.130	-0.086	0.073
-314.983	-200.000	0.002	-0.252
-313.968	192.603	0.061	0.091
-312.953	-200.000	-0.002	-0.257
-311.939	557.735	-0.037	0.088
-310.924	-92.649	0.133	-0.037
-309.910	-32.268	0.261	0.144
-308.895	145.333	0.033	-0.043
-307.880	-200.000	0.021	0.384
-306.866	-41.387	0.241	0.122
-305.851	134.468	0.246	0.315
-304.837	5.640	0.243	-0.177
-303.822	271.552	-0.096	0.166
-302.807	-92.605	0.227	0.063
-301.793	-200.000	-0.055	0.246
-300.778	-94.527	-0.091	-0.025
-299.764	-53.165	0.215	0.097
-298.749	-18.870	-0.217	0.133
-297.735	31.613	0.169	0.144
-296.720	-200.000	-0.051	0.245
-295.705	-116.976	-0.193	-0.035
-294.691	-200.000	0.409	0.001
-293.676	-200.000	0.058	0.253
-292.662	-38.559	0.143	0.075
-291.647	794.620	-0.044	0.119
-290.632	178.552	0.108	-0.155
-289.618	762.035	0.022	-0.059
-288.603	-88.255	-0.146	-0.043
-287.589	-63.218	0.204	-0.083
-286.574	285.229	-0.235	-0.418
-285.559	35.441	0.023	-0.020
-284.545	-200.000	-0.018	-0.217
-283.530	-200.000	-0.029	-0.142
-282.516	14.249	-0.071	0.055
-281.501	-64.462	0.184	0.074
-280.486	72.288	-0.134	-0.137
-279.472	800.000	0.050	-0.164
-278.457	59.876	-0.240	0.233
-277.443	-200.000	-0.025	0.186
-276.428	-34.855	0.199	0.107
-275.413	351.225	-0.129	-0.251
-274.399	67.529	0.106	0.107
-273.384	80.533	0.285	0.302
-272.370	67.174	-0.340	-0.341
-271.355	-147.905	-0.151	0.012
-270.340	-200.000	-0.024	-0.294
-269.326	-200.000	-0.050	0.280
-268.311	-13.786	0.363	-0.231
-267.297	273.642	-0.226	-0.393
-266.282	53.860	0.115	0.109
-265.267	-38.508	0.050	-0.026
-264.253	537.628	0.022	0.051
-263.238	-63.378	0.228	0.092
-262.224	233.084	0.110	-0.178
-261.209	674.780	-0.100	-0.255
-260.195	-149.215	0.025	-0.002
-259.180	6.830	-0.093	-0.068
-258.165	-160.920	-0.421	-0.022
-257.151	29.184	0.301	-0.252
-256.136	-35.143	-0.222	-0.119
-255.122	7.654	0.093	0.069
-254.107	121.720	-0.019	0.023
-253.092	244.112	-0.062	-0.103
-252.078	-114.598	0.173	0.033
-251.063	192.121	-0.110	-0.164
-250.049	764.470	-0.139	0.372
-249.034	-123.826	0.255	0.040
-248.019	-87.370	-0.293	-0.087
-247.005	168.844	0.115	0.161
-245.990	-21.643	-0.138	0.083
-244.976	25.097	-0.060	-0.049
-243.961	-200.000	0.010	0.100
-242.946	452.543	-0.073	0.158
-241.932	-72.282	0.214	0.078
-240.917	-146.923	0.277	0.023
-239.903	-49.099	0.168	0.079
-238.888	-146.927	0.354	-0.030
-237.873	320.974	-0.156	0.292
-236.859	-151.644	0.398	-0.029
-235.844	-63.245	0.256	-0.104
-234.830	-28.538	-0.261	-0.148
-233.815	-200.000	-0.019	-0.500
-232.800	102.099	-0.224	-0.257
-231.786	-54.605	0.310	-0.138
-230.771	167.776	-0.284	-0.397
-229.757	800.000	0.019	-0.052
-228.742	107.883	-0.068	0.079
-227.727	800.000	0.058	-0.187
-226.713	-68.010	0.292	0.112
-225.698	-126.967	-0.082	0.012
-224.684	-200.000	0.002	0.104
-223.669	42.773	-0.243	0.217
-222.655	-140.552	0.079	0.008
-221.640	168.179	-0.150	0.210
-220.625	-185.187	0.169	0.003
-219.611	-71.754	-0.152	0.056
-218.596	36.555	0.292	-0.254
-217.582	-120.972	-0.247	0.041
-216.567	576.882	0.008	-0.019
-215.552	233.014	-0.035	0.056
-214.538	-152.167	0.314	0.022
-213.523	-200.000	-0.004	-0.387
-212.509	-200.000	-0.041	-0.201
-211.494	-176.812	0.298	-0.007
-210.479	-105.440	-0.286	0.064
-209.465	212.549	0.114	0.177
-208.450	-51.871	0.049	-0.022
-207.436	-200.000	-0.031	-0.328
-206.421	-139.968	-0.209	-0.022
-205.406	182.022	0.044	0.063
-204.392	-140.023	0.161	0.017
-203.377	240.896	0.008	0.012
-202.363	190.114	-0.124	0.183
-201.348	-200.000	-0.012	0.090
-200.333	706.301	0.077	0.199
-199.319	-12.846	0.338	0.216
-198.304	195.689	0.121	0.180
-197.290	800.000	0.100	-0.283
-196.275	267.109	0.034	-0.058
-195.260	-145.006	0.353	0.032
-194.246	-128.915	0.242	-0.033
-193.231	-23.768	-0.084	-0.049
-192.217	-135.678	-0.084	-0.010
-191.202	-64.229	0.321	0.128
-190.187	-129.885	-0.133	-0.018
-189.173	-31.123	-0.431	0.238
-188.158	-163.747	0.240	-0.011
-187.144	-142.208	0.411	0.040
-186.129	726.515	-0.041	0.108
-185.114	800.000	-0.040	0.173
-184.100	-26.719	-0.136	0.078
-183.085	-200.000	0.027	0.144
-182.071	-200.000	-0.038	-0.343
-181.056	-70.207	-0.227	-0.084
-180.042	18.605	-0.179	0.140
-179.027	-200.000	0.003	0.041
-178.012	800.000	-0.102	0.311
-176.998	-84.216	0.047	0.015
-175.983	66.114	0.120	-0.120
-174.969	-200.000	0.025	0.461
-173.954	-79.311	-0.164	-0.054
-172.939	-30.698	0.064	-0.036
-171.925	800.000	-0.132	0.360
-170.910	800.000	-0.064	0.196
-169.896	-135.507	-0.336	-0.039
-168.881	-111.099	0.141	0.028
-167.866	-79.340	-0.427	-0.142
-166.852	800.000	0.071	-0.236
-165.837	40.438	-0.062	-0.055
-164.823	111.817	-0.228	0.269
-163.808	9.591	0.294	0.218
-162.793	-200.000	0.052	0.490
-161.779	-14.881	0.080	0.051
-160.764	-135.422	-0.155	0.018
-159.750	-75.685	-0.229	0.080
-158.735	-200.000	-0.011	0.208
-157.720	-65.651	0.228	0.090
-156.706	229.897	0.148	-0.238
-155.691	-55.832	-0.177	0.078
-154.677	65.740	-0.057	0.056
-153.662	45.238	-0.223	-0.202
-152.647	83.780	0.111	-0.119
-151.633	-125.365	-0.319	0.048
-150.618	-137.012	0.205	-0.023
-149.604	331.557	0.104	-0.196
-148.589	-46.269	-0.260	0.125
-147.574	212.341	0.243	0.375
-146.560	-172.538	0.130	0.004
-145.545	-33.500	-0.087	-0.047
-144.531	276.674	0.183	-0.319
-143.516	-99.573	0.328	0.081
-142.502	-200.000	0.021	0.138
-141.487	-74.582	-0.140	0.050
-140.472	301.772	-0.104	-0.188
-139.458	-200.000	-0.013	-0.067
-138.443	297.457	-0.077	-0.138
-137.429	-200.000	0.006	-0.129
-136.414	54.859	0.141	0.134
-135.399	378.481	0.072	0.145
-134.385	695.487	0.105	0.271
-133.370	102.761	-0.217	-0.248
-132.356	267.513	-0.142	-0.243
-131.341	55.574	0.188	-0.178
-130.326	-81.742	-0.103	0.033
-129.312	-200.000	-0.016	-0.182
-128.297	-38.628	0.240	0.124
-127.283	-200.000	0.010	0.136
-126.268	-200.000	-0.025	-0.126
-125.253	800.000	0.023	-0.091
-124.239	-170.498	-0.148	-0.005
-123.224	-8.249	-0.222	-0.147
-122.210	68.322	-0.184	0.185
-121.195	-29.476	0.258	-0.144
-120.180	-200.000	0.003	0.136
-119.166	-116.880	-0.258	0.046
-118.151	219.755	-0.027	0.042
-117.137	23.070	-0.067	-0.054
-116.122	67.347	0.275	0.275
-115.107	-43.976	-0.076	-0.038
-114.093	800.000	-0.035	0.125
-113.078	195.043	0.086	-0.127
-112.064	187.270	0.052	-0.076
-111.049	-200.000	-0.002	-0.293
-110.034	-143.433	0.419	-0.039
-109.020	-200.000	0.020	0.169
-108.005	285.179	0.037	0.065
-106.991	-139.604	-0.189	0.020
-105.976	-200.000	0.010	0.142
-104.962	-135.958	0.107	-0.012
-103.947	-200.000	0.006	-0.031
-102.932	51.857	-0.318	0.296
-101.918	307.240	-0.173	-0.316
-100.903	-13.702	0.280	0.177
-99.889	354.917	-0.164	0.318
-98.874	-132.503	-0.065	0.008
-97.859	-118.446	-0.117	0.020
-96.845	-84.587	0.233	0.072
-95.830	363.877	-0.067	0.131
-94.816	-200.000	0.072	-0.385
-93.801	135.324	0.223	0.283
-92.786	-200.000	-0.032	-0.236
-91.772	66.465	0.189	0.188
-90.757	10.409	0.087	0.065
-89.743	132.794	-0.159	0.200
-88.728	-107.247	0.427	-0.092
-87.713	-200.000	-0.014	-0.127
-86.699	583.607	-0.115	0.277
-85.684	-45.521	0.187	0.091
-84.670	-144.037	0.198	-0.018
-83.655	278.901	0.177	0.309
-82.640	455.824	-0.084	0.181
-81.626	-200.000	-0.016	-0.184
-80.611	41.642	-0.134	-0.119
-79.597	800.000	0.025	0.068
-78.582	402.955	0.054	-0.110
-77.567	67.263	-0.316	0.315
-76.553	106.644	-0.130	-0.151
-75.538	-130.097	-0.363	-0.048
-74.524	117.563	-0.085	0.102
-73.509	-18.899	0.250	-0.152
-72.494	-2.091	0.301	-0.207
-71.480	408.515	0.032	-0.067
-70.465	-95.708	0.123	-0.032
-69.451	-8.589	0.039	0.026
-68.436	460.916	0.099	-0.216
-67.422	-66.080	0.098	-0.038
-66.407	29.317	-0.293	0.243
-65.392	-200.000	0.027	0.160
-64.378	-90.203	0.193	-0.055
-63.363	-85.434	0.225	-0.068
-62.349	4.859	-0.153	-0.110
-61.334	12.041	-1.237	-0.929
-60.319	328.423	0.385	0.721
-59.305	203.175	-0.563	-0.850
-58.290	125.808	1.028	1.267
-57.276	326.818	0.750	1.404
-56.261	-200.000	116.923	648.071
-55.246	496.103	1547.474	3472.050
-54.232	174.915	2719.129	3841.978
-53.217	104.595	2180.365	2506.690
-52.203	37.190	1695.991	1465.772
-51.188	29.644	1511.711	1255.416
-50.173	27.446	1486.736	1219.922
-49.159	50.018	1546.659	1424.129
-48.144	48.332	1561.558	1426.263
-47.130	29.687	1517.090	1259.979
-46.115	26.711	1501.814	1227.122
-45.100	26.612	1498.238	1223.481
-44.086	26.414	1496.433	1220.627
-43.071	26.397	1494.538	1218.917
-42.057	26.452	1492.892	1217.899
-41.042	26.340	1491.323	1215.816
-40.027	26.498	1489.837	1215.619
-39.013	26.405	1488.546	1213.890
-37.998	26.413	1487.538	1213.076
-36.984	26.518	1486.255	1212.682
-35.969	26.528	1485.041	1211.714
-34.954	26.450	1483.771	1210.106
-33.940	26.556	1481.670	1209.054
-32.925	26.434	1481.080	1207.706
-31.911	26.592	1479.043	1207.056
-30.896	26.553	1477.864	1205.784
-29.881	26.481	1476.863	1204.440
-28.867	26.602	1475.283	1203.907
-27.852	26.573	1474.497	1203.025
-26.838	26.642	1472.827	1202.071
-25.823	26.495	1471.696	1200.129
-24.809	26.553	1469.637	1198.786
-23.794	26.485	1468.723	1197.539
-22.779	26.610	1467.189	1197.071
-21.765	26.496	1466.243	1195.494
-20.750	26.552	1464.920	1194.743
-19.736	26.566	1463.899	1193.952
-18.721	26.573	1463.052	1193.259
-17.706	26.494	1461.312	1191.275
-16.692	26.512	1460.967	1191.064
-15.677	26.395	1460.095	1189.533
-14.663	26.443	1458.693	1188.659
-13.648	26.514	1457.882	1188.423
-12.633	26.473	1456.935	1187.332
-11.619	26.578	1455.933	1187.160
-10.604	26.439	1455.426	1185.785
-9.590	26.385	1454.503	1184.629
-8.575	26.447	1453.583	1184.242
-7.560	26.504	1452.513	1183.695
-6.546	26.456	1451.664	1182.645
-5.531	26.518	1450.699	1182.215
-4.517	26.407	1449.772	1180.687
-3.502	26.401	1449.203	1180.138
-2.487	26.443	1448.033	1179.410
-1.473	26.485	1446.967	1178.774
-0.458	26.430	1445.578	1177.235
0.556	26.678	1435.213	1165.336
1.571	23.343	1409.936	1123.594
2.586	19.755	1350.041	1053.940
3.600	18.069	1268.083	980.207
4.615	16.935	1223.497	939.383
5.629	14.470	1167.227	883.059
6.644	8.499	1086.761	792.584
7.659	4.026	1050.968	744.925
8.673	3.453	1045.513	738.252
9.688	3.421	1042.629	735.999
10.702	3.357	1041.238	734.647
11.717	3.449	1038.819	733.310
12.731	5.165	1039.725	742.049
13.746	11.164	1047.874	776.465
14.761	17.336	1056.692	812.509
15.775	19.518	1057.952	823.831
16.790	19.079	1056.783	820.755
17.804	18.254	1054.784	815.202
18.819	17.235	1052.754	808.716
19.834	16.851	1051.205	805.630
20.848	16.571	1050.735	803.868
21.863	16.517	1050.031	802.998
22.877	16.311	1049.300	801.394
23.892	15.981	1048.969	799.505
24.907	16.120	1047.363	798.865
25.921	16.082	1046.908	798.270
26.936	16.108	1046.088	797.695
27.950	16.133	1045.320	797.156
28.965	16.149	1044.128	796.256
29.980	16.216	1043.187	795.782
30.994	16.246	1042.164	795.075
32.009	16.464	1040.829	795.011
33.023	16.400	1040.618	794.478
34.038	16.349	1039.699	793.466
35.053	16.235	1038.818	792.188
36.067	16.223	1037.506	791.060
37.082	16.125	1037.069	790.200
38.096	16.217	1036.299	789.972
39.111	16.222	1035.430	789.264
40.126	16.401	1034.889	789.619
41.140	16.382	1032.848	787.902
42.155	16.140	1031.692	785.825
43.169	15.994	1031.299	784.775
44.184	16.020	1029.746	783.643
45.199	15.960	1028.677	782.481
46.213	15.902	1027.995	781.626
47.228	16.010	1027.128	781.399
48.242	16.175	1026.038	781.266
49.257	16.214	1025.242	780.768
50.271	16.230	1024.029	779.849
51.286	16.311	1023.088	779.438
52.301	16.257	1022.762	778.871
53.315	16.313	1021.643	778.211
54.330	16.198	1020.970	777.100
55.344	16.051	1020.211	775.774
56.359	16.042	1018.865	774.643
57.374	16.050	1018.157	774.072
58.388	16.185	1017.005	773.746
59.403	15.975	1016.417	772.269
60.417	15.820	1015.905	771.102
61.432	16.031	1014.623	771.025
62.447	16.044	1013.947	770.501
63.461	15.860	1013.473	769.234
64.476	15.883	1012.120	768.241
65.490	15.789	1011.334	767.151
66.505	15.753	1010.820	766.529
67.520	15.739	1009.905	765.703
68.534	15.915	1009.025	765.766
69.549	15.879	1008.487	765.128
70.563	15.873	1007.571	764.339
71.578	15.917	1006.573	763.715
72.593	15.810	1005.796	762.569
73.607	15.657	1004.923	761.151
74.622	15.653	1003.847	760.248
75.636	15.539	1003.477	759.385
76.651	15.667	1002.613	759.246
77.666	15.688	1001.483	758.413
78.680	15.847	1000.573	758.375
79.695	15.709	1000.102	757.331
80.709	15.772	999.844	757.350
81.724	15.862	998.892	756.969
82.739	15.993	998.414	757.126
83.753	15.949	997.738	756.350
84.768	16.021	997.113	756.133
85.782	16.176	996.258	756.113
86.797	16.366	995.571	756.373
87.812	16.447	994.853	756.126
88.826	16.281	993.831	754.539
89.841	16.247	992.707	753.468
90.855	16.305	991.902	753.047
91.870	16.220	991.644	752.405
92.884	16.417	990.763	752.549
93.899	16.507	990.121	752.395
94.914	16.315	989.247	750.813
95.928	16.416	988.678	750.762
96.943	16.533	988.013	750.709
97.957	16.431	986.859	749.313
98.972	16.237	985.989	747.727
99.987	16.252	985.553	747.397
101.001	16.417	984.662	747.385
102.016	16.305	983.830	746.191
103.030	16.303	982.667	745.236
104.045	16.330	982.155	744.901
105.060	16.395	981.383	744.535
106.074	16.442	979.739	743.427
107.089	16.167	979.024	741.611
108.103	15.987	978.056	740.021
109.118	15.829	977.037	738.491
110.133	15.902	976.536	738.371
111.147	15.859	975.130	737.052
112.162	15.818	974.792	736.553
113.176	15.859	973.908	735.996
114.191	15.932	973.031	735.587
115.206	15.960	972.103	734.943
116.220	15.976	971.128	734.213
117.235	16.042	970.072	733.637
118.249	16.056	969.443	733.156
119.264	16.003	968.189	731.912
120.279	15.981	968.123	731.703
121.293	15.887	967.327	730.630
122.308	15.873	966.259	729.697
123.322	15.729	965.696	728.582
124.337	15.716	964.537	727.587
125.352	15.835	963.245	727.066
126.366	15.833	962.075	726.106
127.381	15.792	961.147	725.167
128.395	15.877	960.181	724.737
129.410	15.860	959.497	724.086
130.424	15.911	958.399	723.414
131.439	15.774	957.992	722.453
132.454	15.857	957.158	722.115
133.468	16.031	956.108	722.004
134.483	16.077	955.419	721.619
135.497	16.004	955.408	721.234
136.512	15.972	954.407	720.279
137.527	16.090	953.626	720.126
138.541	15.967	952.711	718.848
139.556	16.095	951.598	718.489
140.570	16.032	951.433	718.036
141.585	16.316	950.349	718.363
142.600	16.330	950.085	718.158
143.614	16.398	949.283	717.777
144.629	16.450	949.108	717.802
145.643	16.483	947.883	716.953
146.658	16.490	946.891	716.165
147.673	16.259	946.125	714.547
148.687	16.213	945.421	713.757
149.702	16.099	944.380	712.425
150.716	16.210	943.152	711.905
151.731	16.106	942.588	710.977
152.746	16.012	941.618	709.790
153.760	16.167	941.091	709.981
154.775	16.146	940.376	709.288
155.789	16.270	939.735	709.266
156.804	16.313	939.085	708.893
157.819	16.289	938.210	708.069
158.833	16.298	937.902	707.809
159.848	16.426	936.762	707.424
160.862	16.402	936.400	706.986
161.877	16.420	935.351	706.207
162.892	16.275	934.617	704.984
163.906	16.263	933.243	703.836
164.921	16.110	933.088	703.018
165.935	16.143	931.873	702.182
166.950	16.260	930.583	701.630
167.964	16.308	930.116	701.416
168.979	16.275	929.160	700.496
169.994	16.380	928.037	700.024
171.008	16.161	927.720	698.814
172.023	16.296	926.853	698.660
173.037	16.412	925.948	698.395
174.052	16.550	925.233	698.364
175.067	16.453	924.859	697.618
176.081	16.350	923.426	696.054
177.096	16.263	922.498	694.933
178.110	16.149	922.131	694.126
179.125	16.155	921.887	693.904
180.140	16.328	920.674	693.640
181.154	16.388	919.996	693.315
182.169	16.436	919.252	692.890
183.183	16.460	918.928	692.682
184.198	16.530	918.454	692.551
185.213	16.446	917.790	691.644
186.227	16.639	916.739	691.583
187.242	16.648	916.401	691.302
188.256	16.599	915.942	690.696
189.271	16.790	914.790	690.544
190.286	16.763	914.193	689.920
191.300	16.470	913.447	688.103
192.315	16.293	912.236	686.412
193.329	16.198	911.529	685.432
194.344	16.160	910.999	684.821
195.359	16.210	910.599	684.660
196.373	16.338	910.261	684.866
197.388	16.499	909.737	685.063
198.402	16.652	909.202	685.220
199.417	16.802	908.818	685.475
200.432	16.835	908.408	685.239
201.446	16.994	907.947	685.473
202.461	16.931	907.889	685.113
203.475	16.981	907.114	684.671
204.490	17.055	906.056	684.109
205.504	16.848	905.153	682.535
206.519	16.774	904.248	681.495
207.534	16.668	903.862	680.715
208.548	16.795	902.746	680.327
209.563	16.565	902.728	679.330
210.577	16.704	901.778	679.112
211.592	16.877	901.033	679.185
212.607	16.932	900.586	679.005
213.621	17.027	900.042	678.919
214.636	17.095	899.061	678.387
215.650	16.988	898.704	677.633
216.665	16.984	898.313	677.262
217.680	17.090	897.386	676.926
218.694	17.073	897.223	676.675
219.709	17.182	897.002	676.884
220.723	17.233	895.986	676.256
221.738	17.129	895.444	675.376
222.753	17.187	894.338	674.714
223.767	16.985	894.082	673.657
224.782	17.122	893.099	673.401
225.796	17.157	892.778	673.235
226.811	17.279	892.162	673.195
227.826	17.250	891.074	672.201
228.840	17.125	890.231	671.013
229.855	17.062	889.839	670.409
230.869	17.127	889.251	670.163
231.884	17.117	888.762	669.695
232.899	17.129	887.856	669.002
233.913	16.961	887.153	667.752
234.928	16.948	886.586	667.212
235.942	16.861	885.846	666.255
236.957	16.809	884.903	665.285
237.972	16.948	884.804	665.694
238.986	16.951	883.739	664.847
240.001	16.909	883.280	664.278
241.015	17.105	882.333	664.274
242.030	16.966	881.965	663.395
243.045	17.164	881.157	663.502
244.059	17.150	880.398	662.816
245.074	17.353	879.990	663.242
246.088	17.144	879.739	662.180
247.103	17.259	879.128	662.111
248.117	17.215	878.599	661.483
249.132	17.427	878.030	661.817
250.147	17.586	877.431	661.926
251.161	17.652	876.981	661.787
252.176	17.761	876.142	661.518
253.190	17.945	875.161	661.430
254.205	17.787	874.889	660.553
255.220	17.848	874.334	660.311
256.234	17.837	873.753	659.774
257.249	17.743	873.440	659.114
258.263	17.864	872.467	658.791
259.278	18.016	871.757	658.779
260.293	17.898	871.606	658.156
261.307	17.924	870.866	657.637
262.322	18.014	870.169	657.399
263.336	18.033	869.519	656.920
264.351	17.991	868.873	656.215
265.366	17.978	868.543	655.858
266.380	18.114	867.651	655.647
267.395	17.977	867.378	654.859
268.409	18.011	866.240	654.071
269.424	18.008	865.374	653.350
270.439	17.929	865.005	652.709
271.453	17.932	863.968	651.883
272.468	17.907	863.364	651.271
273.482	17.912	862.584	650.645
274.497	17.757	862.329	649.804
275.512	17.908	861.651	649.812
276.526	17.896	860.501	648.841
277.541	17.956	860.102	648.711
278.555	17.877	859.328	647.769
279.570	18.063	859.388	648.463
280.585	18.186	858.285	648.039
281.599	18.170	858.079	647.765
282.614	18.071	857.220	646.688
283.628	18.076	856.731	646.280
284.643	18.055	856.007	645.598
285.657	18.150	855.692	645.659
286.672	17.991	854.889	644.398
287.687	17.889	854.889	643.954
288.701	18.160	854.212	644.411
289.716	18.033	853.592	643.406
290.730	18.070	852.991	643.035
291.745	18.235	852.211	643.011
292.760	18.227	851.652	642.501
293.774	18.113	851.251	641.714
294.789	18.273	850.634	641.796
295.803	18.373	850.062	641.679
296.818	18.291	849.168	640.640
297.833	18.071	848.727	639.430
298.847	18.159	848.226	639.324
299.862	18.150	847.325	638.555
300.876	18.249	846.230	638.043
301.891	18.149	846.295	637.662
302.906	18.260	845.794	637.640
303.920	18.393	844.846	637.367
304.935	18.424	844.392	637.081
305.949	18.512	843.804	636.908
306.964	18.503	843.073	636.268
307.979	18.525	842.394	635.782
308.993	18.674	841.475	635.584
310.008	18.581	841.451	635.163
311.022	18.692	840.816	635.038
312.037	18.413	840.657	633.832
313.052	18.509	840.025	633.654
314.066	18.258	839.257	632.089
315.081	18.416	838.475	632.027
316.095	18.367	837.983	631.420
317.110	18.306	837.511	630.784
318.125	18.477	836.858	630.865
319.139	18.347	836.208	629.843
320.154	18.384	835.893	629.686
321.168	18.471	835.356	629.547
322.183	18.351	834.804	628.633
323.197	18.448	834.345	628.588
324.212	18.372	833.925	627.938
325.227	18.529	833.244	627.943
326.241	18.607	832.750	627.800
327.256	18.480	832.314	626.952
328.270	18.364	831.851	626.122
329.285	18.457	831.246	625.954
330.300	18.426	830.389	625.137
331.314	18.357	829.960	624.508
332.329	18.473	829.381	624.440
333.343	18.701	828.306	624.407
334.358	18.728	828.370	624.496
335.373	18.653	828.117	623.979
336.387	18.648	827.491	623.432
337.402	18.594	827.233	622.988
338.416	18.678	826.544	622.718
339.431	18.806	825.713	622.499
340.446	18.920	825.233	622.498
341.460	19.002	825.020	622.579
342.475	19.013	824.283	622.007
343.489	19.119	824.235	622.298
344.504	19.248	823.215	621.939
345.519	19.196	822.656	621.275
346.533	19.008	822.343	620.305
347.548	19.194	821.756	620.478
348.562	19.145	820.785	619.512
349.577	18.867	820.679	618.379
350.592	18.808	820.098	617.673
351.606	18.918	819.607	617.643
352.621	18.908	819.068	617.146
353.635	18.881	818.747	616.755
354.650	18.925	818.350	616.559
355.665	19.075	817.454	616.364
356.679	18.968	817.227	615.756
357.694	19.115	816.720	615.845
358.708	18.971	816.410	615.043
359.723	19.052	815.605	614.673
360.738	19.123	815.159	614.535
361.752	19.027	815.001	614.020
362.767	19.198	814.304	614.050
363.781	19.285	813.772	613.904
364.796	19.312	813.563	613.789
365.810	19.306	813.311	613.521
366.825	19.592	812.758	614.066
367.840	19.495	812.997	613.848
368.854	19.499	812.363	613.328
369.869	19.364	811.618	612.232
370.883	19.278	810.951	611.371
371.898	19.497	810.113	611.460
372.913	19.615	809.469	611.337
373.927	19.526	809.223	610.782
374.942	19.352	808.577	609.626
375.956	19.555	807.890	609.771
376.971	19.599	807.201	609.352
377.986	19.831	806.585	609.652
379.000	19.748	806.054	608.903
380.015	19.700	805.862	608.534
381.029	19.509	805.631	607.636
382.044	19.603	805.039	607.465
383.059	19.667	804.291	607.072
384.073	19.660	803.877	606.681
385.088	19.599	803.410	606.060
386.102	19.613	802.298	605.220
387.117	19.548	802.035	604.739
388.132	19.517	801.317	604.036
389.146	19.529	801.081	603.847
390.161	19.424	800.953	603.328
391.175	19.559	800.443	603.365
392.190	19.747	800.409	603.942
393.205	19.894	799.502	603.717
394.219	19.623	799.473	602.694
395.234	19.546	798.549	601.676
396.248	19.553	797.737	601.035
397.263	19.517	797.606	600.759
398.278	19.459	797.059	600.093
399.292	19.457	796.948	599.950
400.307	19.532	796.026	599.464
401.321	19.619	795.524	599.332
402.336	19.459	795.423	598.647
403.350	19.468	795.221	598.474
404.365	19.629	794.875	598.719
405.380	19.599	794.317	598.143
406.394	19.877	793.553	598.476
407.409	19.891	793.293	598.273
408.423	19.851	792.983	597.852
409.438	19.865	792.396	597.403
410.453	20.041	792.085	597.722
411.467	20.126	791.680	597.657
412.482	20.209	791.099	597.451
413.496	20.161	790.928	597.105
414.511	20.259	790.333	596.942
415.526	20.262	790.134	596.746
416.540	20.042	789.705	595.614
417.555	20.157	789.335	595.677
418.569	20.028	788.698	594.702
419.584	20.187	787.900	594.591
420.599	20.146	787.783	594.311
421.613	162.550	1370.309	1796.961
422.628	140.755	1455.186	1797.031
