DTS Sentinel unit serial number:	SN413079Multiplexer serial number:	ORYXHardware model number:	OX4-SRSoftware version number:	ORYX F/W v4.00 Oryx Data Collector v3.7.2.0data status	okinstallation	princeton_trtdifferential loss correction	single-endedforward channel	channel 3reverse channel	N/Adate	2019/09/11time	02:22:10forward acquisition time	60.00reverse acquisition time	0.00gamma	496.2192k internal	0.2332k external	0.2332temperature offset calibration	0.9913default loss term (dB/km)	0.3790temperature slope calibration	1.0000multiplexer offset coefficient	1.0000multiplexer slope coefficient	1.0000fibre end	0.00T internal ref (°C)	29.19T ext. ref 1 (°C)	-0.30T ext. ref 2 (°C)	23.51length (m)	temperature (°C)	Stokes	anti-Stokes-747.200	38.765	0.170	-0.153
-746.185	-200.000	0.018	-0.163
-745.171	-185.794	-0.044	-0.001
-744.156	416.882	-0.178	0.383
-743.142	-200.000	-0.026	0.323
-742.127	97.662	0.021	0.024
-741.112	-200.000	0.021	0.172
-740.098	-200.000	-0.007	0.598
-739.083	-49.753	0.188	-0.090
-738.069	356.730	-0.203	0.407
-737.054	1.403	0.216	-0.156
-736.039	800.000	0.097	-0.298
-735.025	-106.333	0.224	0.051
-734.010	-200.000	-0.010	0.072
-732.996	35.762	-0.205	-0.181
-731.981	-189.336	-0.162	-0.002
-730.966	318.529	-0.209	-0.399
-729.952	800.000	0.030	0.131
-728.937	688.407	-0.086	0.225
-727.923	-102.233	-0.420	0.102
-726.908	95.033	-0.142	-0.163
-725.894	517.763	-0.041	-0.097
-724.879	406.415	-0.126	-0.267
-723.864	157.075	0.063	-0.088
-722.850	-74.127	-0.155	-0.057
-721.835	-126.207	-0.499	0.075
-720.821	-200.000	-0.067	-0.374
-719.806	381.945	-0.131	-0.270
-718.791	280.374	0.087	-0.156
-717.777	378.268	0.093	-0.192
-716.762	800.000	-0.075	-0.320
-715.748	228.509	0.180	-0.295
-714.733	-130.403	0.156	0.021
-713.718	-200.000	0.024	0.159
-712.704	-200.000	0.065	-0.328
-711.689	67.502	0.184	0.189
-710.675	-146.064	0.141	0.013
-709.660	800.000	0.091	-0.319
-708.645	800.000	-0.084	0.310
-707.631	577.259	0.100	0.245
-706.616	-163.319	0.153	-0.007
-705.602	-101.446	0.189	-0.046
-704.587	34.196	-0.218	0.191
-703.572	-189.328	-0.149	-0.002
-702.558	177.462	0.039	0.058
-701.543	-60.646	-0.215	-0.092
-700.529	-62.717	0.326	-0.136
-699.514	-0.422	-0.207	-0.148
-698.499	-200.000	0.008	0.049
-697.485	126.712	0.109	0.139
-696.470	148.009	-0.130	-0.177
-695.456	-200.000	-0.041	0.182
-694.441	-53.114	-0.086	-0.040
-693.426	-200.000	0.039	-0.189
-692.412	-200.000	-0.002	-0.179
-691.397	5.816	0.077	-0.057
-690.383	-41.205	-0.438	-0.227
-689.368	-200.000	-0.004	0.232
-688.354	-158.369	-0.195	0.011
-687.339	-200.000	-0.011	0.221
-686.324	-36.076	0.293	-0.159
-685.310	-91.747	-0.280	-0.080
-684.295	382.806	-0.180	-0.371
-683.281	-110.409	0.191	-0.040
-682.266	243.650	-0.158	0.267
-681.251	800.000	-0.023	-0.080
-680.237	3.368	0.351	0.256
-679.222	-68.795	-0.122	-0.047
-678.208	383.283	-0.086	-0.178
-677.193	-19.366	0.116	-0.072
-676.178	1.817	-0.231	0.167
-675.164	248.322	0.136	0.230
-674.149	-3.978	0.231	0.161
-673.135	-26.256	-0.299	0.176
-672.120	-102.469	-0.286	-0.069
-671.105	-153.747	-0.200	-0.014
-670.091	-200.000	-0.058	0.329
-669.076	97.934	0.161	0.186
-668.062	410.916	-0.089	-0.189
-667.047	-38.582	0.180	-0.096
-666.032	-55.478	0.306	-0.138
-665.018	241.805	-0.084	0.140
-664.003	800.000	0.119	0.363
-662.989	430.829	-0.027	0.059
-661.974	15.499	0.280	-0.220
-660.959	800.000	-0.111	-0.325
-659.945	-139.926	-0.302	0.032
-658.930	-30.314	-0.216	-0.123
-657.916	-200.000	-0.002	-0.291
-656.901	-136.865	-0.271	-0.031
-655.886	-20.065	0.293	-0.181
-654.872	571.298	-0.086	-0.210
-653.857	17.082	-0.286	-0.227
-652.843	-115.832	-0.214	0.040
-651.828	-21.925	0.250	-0.152
-650.814	-57.147	-0.192	0.085
-649.799	-99.902	-0.108	0.027
-648.784	47.893	0.071	0.067
-647.770	-60.307	-0.285	0.122
-646.755	-200.000	-0.009	-0.361
-645.741	-144.401	-0.084	0.008
-644.726	-200.000	0.001	-0.123
-643.711	753.012	0.029	-0.077
-642.697	-200.000	0.009	-0.142
-641.682	-200.000	-0.015	-0.322
-640.668	-200.000	0.019	-0.259
-639.653	276.671	0.082	-0.147
-638.638	-200.000	-0.034	-0.174
-637.624	46.729	0.117	-0.109
-636.609	-1.672	-0.265	0.187
-635.595	680.247	0.055	0.142
-634.580	800.000	-0.068	-0.284
-633.565	81.970	0.158	-0.172
-632.551	-200.000	-0.036	-0.282
-631.536	-177.200	-0.259	0.006
-630.522	1.455	0.200	-0.144
-629.507	800.000	-0.090	-0.268
-628.492	28.678	0.033	-0.028
-627.478	-117.858	-0.234	0.042
-626.463	116.235	-0.439	-0.539
-625.449	-105.484	0.221	0.050
-624.434	-200.000	-0.005	-0.199
-623.419	-86.568	-0.159	-0.049
-622.405	-78.246	-0.582	-0.200
-621.390	-106.311	-0.252	0.056
-620.376	150.784	0.138	0.187
-619.361	-200.000	0.064	-0.425
-618.346	800.000	-0.043	0.186
-617.332	41.005	-0.138	0.125
-616.317	800.000	-0.025	0.091
-615.303	-82.910	0.080	0.026
-614.288	33.186	0.299	0.260
-613.273	-119.321	-0.093	0.016
-612.259	-200.000	0.033	0.242
-611.244	-15.882	-0.234	0.149
-610.230	517.538	-0.091	-0.214
-609.215	-121.505	-0.359	-0.060
-608.201	-20.495	-0.354	-0.218
-607.186	-200.000	0.035	0.227
-606.171	-200.000	0.286	0.001
-605.157	105.495	-0.122	-0.144
-604.142	-66.219	0.250	0.100
-603.128	-93.110	-0.236	-0.066
-602.113	-64.463	-0.254	-0.103
-601.098	-200.000	0.021	0.094
-600.084	-84.159	-0.145	0.046
-599.069	69.939	-0.290	0.299
-598.055	-200.000	-0.040	0.261
-597.040	-200.000	0.054	0.331
-596.025	85.255	0.131	-0.143
-595.011	142.184	0.244	-0.323
-593.996	47.765	-0.005	-0.005
-592.982	783.959	0.008	0.022
-591.967	-142.090	-0.082	-0.008
-590.952	129.509	-0.167	-0.213
-589.938	281.553	0.043	-0.077
-588.923	800.000	0.051	0.186
-587.909	-144.778	0.313	-0.029
-586.894	89.559	0.056	0.062
-585.879	348.278	-0.129	-0.254
-584.865	-200.000	0.029	-0.379
-583.850	128.793	-0.357	-0.455
-582.836	-124.720	0.234	0.036
-581.821	-38.435	0.328	-0.173
-580.806	543.363	-0.039	0.093
-579.792	-83.537	0.180	-0.058
-578.777	-200.000	0.011	-0.251
-577.763	236.698	0.041	0.067
-576.748	-51.336	-0.180	0.084
-575.733	-64.484	0.159	-0.064
-574.719	-48.553	-0.130	0.062
-573.704	36.436	0.071	-0.063
-572.690	64.029	0.233	-0.235
-571.675	480.009	-0.034	-0.076
-570.661	55.785	-0.277	-0.268
-569.646	58.643	0.342	-0.335
-568.631	88.546	0.085	-0.094
-567.617	-200.000	0.001	-0.140
-566.602	-83.799	0.257	-0.082
-565.588	-102.365	-0.373	0.089
-564.573	140.163	0.243	0.320
-563.558	522.341	0.131	0.308
-562.544	-200.000	0.013	-0.225
-561.529	800.000	-0.153	0.452
-560.515	-119.159	-0.113	0.020
-559.500	-53.714	0.070	0.032
-558.485	-77.752	-0.403	0.139
-557.471	800.000	0.069	-0.297
-556.456	96.968	-0.207	-0.237
-555.442	-142.377	0.292	0.029
-554.427	800.000	0.046	0.194
-553.412	-161.933	0.176	-0.009
-552.398	-200.000	0.066	-0.402
-551.383	-200.000	0.106	0.630
-550.369	-200.000	-0.009	0.268
-549.354	-65.413	0.267	-0.107
-548.339	-200.000	-0.022	0.130
-547.325	-47.010	-0.149	0.073
-546.310	4.628	0.138	-0.101
-545.296	265.141	-0.151	-0.263
-544.281	321.831	-0.050	0.096
-543.266	69.312	-0.168	-0.172
-542.252	-200.000	0.329	0.001
-541.237	-62.259	0.181	-0.075
-540.223	388.552	0.061	0.126
-539.208	300.720	0.012	0.022
-538.193	393.707	0.143	-0.296
-537.179	-51.464	-0.462	0.216
-536.164	-132.648	-0.245	0.031
-535.150	-200.000	0.009	0.168
-534.135	-103.264	-0.246	0.058
-533.121	-200.000	-0.024	-0.274
-532.106	-4.091	-0.224	0.155
-531.091	290.238	-0.055	-0.099
-530.077	-200.000	0.018	0.111
-529.062	-200.000	0.018	0.118
-528.048	-72.854	-0.200	-0.073
-527.033	800.000	-0.105	0.445
-526.018	-200.000	0.024	-0.282
-525.004	383.691	0.092	-0.190
-523.989	-109.342	0.196	-0.041
-522.975	-33.169	0.177	-0.098
-521.960	-61.235	-0.238	0.100
-520.945	-182.951	-0.167	0.003
-519.931	11.990	-0.085	0.065
-518.916	117.824	-0.078	-0.095
-517.902	624.053	-0.054	-0.136
-516.887	-89.042	-0.120	-0.035
-515.872	-99.643	-0.136	-0.034
-514.858	58.319	0.165	0.162
-513.843	-200.000	-0.012	-0.238
-512.829	800.000	-0.123	0.429
-511.814	533.180	0.079	0.186
-510.799	-113.562	-0.317	-0.062
-509.785	-78.088	0.093	0.032
-508.770	-50.115	-0.270	-0.128
-507.756	125.946	-0.134	-0.169
-506.741	-200.000	-0.084	-0.386
-505.726	-200.000	-0.001	0.098
-504.712	-57.142	-0.136	-0.060
-503.697	71.904	0.050	0.052
-502.683	204.709	0.146	0.226
-501.668	-30.273	-0.120	0.068
-500.653	-83.315	0.121	-0.039
-499.639	-0.382	-0.086	-0.061
-498.624	-85.312	-0.077	-0.024
-497.610	-124.718	0.501	-0.077
-496.595	196.843	0.209	0.318
-495.581	800.000	0.094	0.259
-494.566	-129.683	-0.293	0.040
-493.551	800.000	-0.035	-0.112
-492.537	-38.442	-0.018	-0.009
-491.522	800.000	0.058	0.196
-490.508	-156.827	0.469	-0.029
-489.493	-200.000	0.000	-0.053
-488.478	-135.351	0.281	0.034
-487.464	268.681	0.132	-0.231
-486.449	-132.891	-0.347	0.044
-485.435	3.228	-0.189	-0.137
-484.420	239.347	-0.174	0.288
-483.405	-40.981	0.128	-0.066
-482.391	-102.720	-0.419	0.099
-481.376	-8.659	0.303	-0.203
-480.362	-6.311	0.176	0.119
-479.347	-185.034	-0.421	-0.007
-478.332	191.438	0.076	-0.114
-477.318	-200.000	0.024	0.167
-476.303	-130.679	0.175	0.023
-475.289	660.222	-0.088	-0.227
-474.274	-200.000	0.002	0.276
-473.259	-200.000	0.033	0.275
-472.245	176.620	0.127	-0.184
-471.230	28.722	0.076	-0.064
-470.216	40.754	0.142	0.127
-469.201	-178.778	0.180	0.004
-468.186	-33.947	-0.164	0.090
-467.172	800.000	0.082	0.313
-466.157	300.059	0.121	0.222
-465.143	173.420	-0.214	0.307
-464.128	154.912	-0.220	0.300
-463.113	168.167	-0.199	-0.281
-462.099	43.040	0.188	-0.171
-461.084	800.000	0.027	0.088
-460.070	-18.583	0.166	-0.103
-459.055	37.824	0.125	-0.111
-458.040	-123.647	-0.260	0.041
-457.026	-200.000	0.021	0.181
-456.011	-200.000	0.036	-0.162
-454.997	37.643	-0.043	0.038
-453.982	-90.074	0.077	0.022
-452.968	201.349	0.104	0.159
-451.953	-200.000	-0.008	0.144
-450.938	13.440	-0.158	0.122
-449.924	-91.968	0.430	-0.121
-448.909	595.582	-0.058	0.142
-447.895	124.580	-0.078	0.098
-446.880	800.000	-0.036	0.141
-445.865	-83.876	0.223	-0.071
-444.851	62.531	0.088	-0.088
-443.836	30.888	-0.180	-0.153
-442.822	-200.000	-0.008	-0.109
-441.807	147.999	0.181	-0.243
-440.792	74.771	-0.248	0.259
-439.778	-200.000	0.000	0.165
-438.763	-26.573	0.258	0.150
-437.749	160.270	0.074	-0.103
-436.734	748.590	0.028	-0.075
-435.719	254.736	0.056	-0.096
-434.705	168.561	0.193	0.273
-433.690	-45.673	0.418	-0.206
-432.676	71.151	-0.047	0.049
-431.661	173.024	-0.108	0.154
-430.646	-114.482	0.384	-0.073
-429.632	-38.988	0.228	0.120
-428.617	-184.645	-0.338	-0.005
-427.603	-60.514	-0.240	0.101
-426.588	-37.666	0.063	0.033
-425.573	10.204	0.144	-0.109
-424.559	38.910	0.141	0.125
-423.544	16.217	-0.242	0.190
-422.530	800.000	0.026	0.115
-421.515	-172.714	-0.296	0.009
-420.500	-110.303	-0.487	0.101
-419.486	800.000	0.041	-0.119
-418.471	-70.446	-0.176	0.066
-417.457	-200.000	0.005	0.022
-416.442	93.416	-0.181	0.204
-415.428	-44.821	-0.286	0.142
-414.413	-169.603	-0.363	-0.013
-413.398	-75.340	0.091	0.032
-412.384	224.732	0.087	-0.139
-411.369	-34.096	0.502	0.274
-410.355	336.826	0.115	0.221
-409.340	-70.655	-0.132	0.050
-408.325	120.511	0.227	-0.280
-407.311	-101.301	-0.169	-0.041
-406.296	463.086	-0.067	-0.148
-405.282	97.187	0.248	0.283
-404.267	-136.370	0.453	-0.052
-403.252	-150.720	-0.401	0.030
-402.238	-132.583	0.310	-0.040
-401.223	-47.588	-0.200	-0.096
-400.209	-86.520	0.109	0.033
-399.194	800.000	0.065	0.203
-398.179	-137.845	0.162	0.018
-397.165	141.118	0.054	-0.071
-396.150	171.948	0.165	0.235
-395.136	-200.000	-0.067	0.414
-394.121	-200.000	-0.037	-0.220
-393.106	-118.402	0.537	0.095
-392.092	73.332	0.059	0.062
-391.077	4.193	-0.216	-0.157
-390.063	800.000	-0.079	0.336
-389.048	-88.382	0.376	0.111
-388.033	-121.650	-0.152	-0.025
-387.019	-60.415	0.097	0.041
-386.004	50.796	-0.190	-0.179
-384.990	30.495	0.123	0.104
-383.975	534.309	0.046	-0.109
-382.960	365.189	-0.040	-0.080
-381.946	-142.310	-0.032	-0.003
-380.931	-109.945	-0.164	0.034
-379.917	-128.837	-0.128	0.018
-378.902	-200.000	0.013	0.135
-377.888	491.545	-0.126	-0.287
-376.873	204.004	0.181	-0.279
-375.858	-105.436	-0.089	0.020
-374.844	800.000	-0.054	-0.202
-373.829	47.170	-0.057	-0.052
-372.815	92.873	-0.127	-0.142
-371.800	88.236	0.089	-0.098
-370.785	313.394	0.133	-0.248
-369.771	-15.623	0.128	-0.081
-368.756	110.560	-0.160	0.191
-367.742	-36.618	-0.041	0.022
-366.727	-49.454	0.481	0.227
-365.712	240.701	-0.229	0.378
-364.698	217.849	0.061	-0.096
-363.683	22.714	0.201	0.163
-362.669	316.249	0.020	0.038
-361.654	-200.000	-0.019	0.148
-360.639	-63.583	-0.056	-0.023
-359.625	165.409	-0.078	0.109
-358.610	-64.475	0.064	0.026
-357.596	-3.108	-0.338	0.234
-356.581	-200.000	0.028	-0.142
-355.566	161.482	0.103	-0.143
-354.552	304.804	-0.034	0.062
-353.537	800.000	-0.094	0.342
-352.523	-49.319	-0.137	0.065
-351.508	418.315	-0.191	0.404
-350.493	53.494	-0.129	0.122
-349.479	57.369	-0.083	0.080
-348.464	418.032	-0.051	0.109
-347.450	-53.644	0.140	-0.063
-346.435	84.580	0.398	0.432
-345.420	-86.591	0.154	0.047
-344.406	-200.000	-0.003	0.183
-343.391	149.881	0.117	0.157
-342.377	-118.627	-0.349	0.061
-341.362	84.154	0.033	0.036
-340.348	800.000	0.030	-0.095
-339.333	171.008	-0.265	0.376
-338.318	-34.857	0.165	-0.089
-337.304	-109.110	0.129	0.027
-336.289	-154.306	-0.165	0.011
-335.275	-124.494	0.051	0.008
-334.260	443.436	-0.026	-0.057
-333.245	-117.674	0.341	0.061
-332.231	180.956	0.253	-0.367
-331.216	-46.276	0.209	0.102
-330.202	5.645	0.199	-0.146
-329.187	-90.045	0.208	0.060
-328.172	-200.000	0.002	0.078
-327.158	359.761	0.074	0.147
-326.143	-70.778	-0.300	0.112
-325.129	-200.000	0.041	-0.208
-324.114	-200.000	-0.014	0.117
-323.099	20.561	0.158	-0.126
-322.085	-125.313	0.344	0.052
-321.070	-2.711	0.088	0.061
-320.056	-91.891	0.083	0.023
-319.041	38.006	0.063	-0.055
-318.026	54.058	-0.206	0.196
-317.012	-25.838	-0.331	0.193
-315.997	-172.274	0.258	0.008
-314.983	-20.151	-0.266	0.162
-313.968	-76.486	-0.282	0.098
-312.953	-133.447	0.351	0.044
-311.939	-72.396	0.108	0.040
-310.924	-200.000	-0.015	0.107
-309.910	-49.861	-0.150	-0.071
-308.895	259.173	0.093	0.158
-307.880	-79.304	-0.153	-0.051
-306.866	65.285	0.125	-0.125
-305.851	-200.000	-0.047	-0.321
-304.837	564.628	0.060	0.144
-303.822	-171.859	0.206	-0.007
-302.807	-200.000	0.026	-0.169
-301.793	-200.000	0.030	-0.166
-300.778	-59.749	0.070	-0.030
-299.764	-74.767	-0.551	-0.196
-298.749	-138.307	-0.088	0.010
-297.735	225.373	-0.163	-0.262
-296.720	17.321	0.143	0.112
-295.705	-81.705	0.215	-0.070
-294.691	153.091	0.136	-0.185
-293.676	-122.435	-0.099	-0.016
-292.662	-97.229	-0.254	-0.066
-291.647	-46.375	0.241	0.117
-290.632	-200.000	0.031	-0.169
-289.618	-40.950	0.130	0.066
-288.603	-48.242	0.317	0.151
-287.589	158.684	-0.124	0.170
-286.574	83.519	-0.080	-0.086
-285.559	-200.000	0.033	0.209
-284.545	-200.000	-0.025	0.138
-283.530	-147.531	0.244	0.020
-282.516	540.069	-0.027	0.062
-281.501	-200.000	-0.025	0.137
-280.486	800.000	-0.047	0.138
-279.472	91.986	-0.149	0.166
-278.457	-103.256	0.323	-0.075
-277.443	-160.948	0.091	-0.005
-276.428	571.814	0.042	-0.101
-275.413	330.089	0.032	0.061
-274.399	-200.000	0.056	-0.269
-273.384	67.009	0.193	0.194
-272.370	-96.196	0.158	-0.041
-271.355	-152.605	0.088	0.006
-270.340	-116.766	-0.268	-0.049
-269.326	-119.519	-0.431	-0.074
-268.311	-200.000	0.014	-0.170
-267.297	-35.648	-0.065	0.035
-266.282	-140.455	0.369	0.038
-265.267	-200.000	0.017	0.182
-264.253	168.922	-0.145	0.204
-263.238	100.961	0.299	0.343
-262.224	800.000	-0.153	-0.441
-261.209	-94.210	0.192	0.052
-260.195	-57.908	-0.042	0.018
-259.180	-53.414	-0.178	0.081
-258.165	-200.000	-0.010	-0.361
-257.151	800.000	0.075	-0.266
-256.136	-75.840	-0.386	-0.135
-255.122	-141.187	-0.433	0.044
-254.107	-48.763	-0.132	0.063
-253.092	230.049	0.101	0.164
-252.078	780.969	-0.137	-0.370
-251.063	800.000	-0.068	-0.240
-250.049	-32.912	0.106	0.058
-249.034	347.335	-0.179	0.349
-248.019	-13.399	-0.175	-0.112
-247.005	682.777	0.151	0.388
-245.990	255.328	-0.157	-0.265
-244.976	-200.000	0.018	0.255
-243.961	-98.004	0.133	-0.034
-242.946	52.420	0.169	0.159
-241.932	-6.720	-0.161	0.108
-240.917	-200.000	-0.006	0.168
-239.903	326.462	-0.070	0.132
-238.888	800.000	-0.129	-0.359
-237.873	-55.954	0.075	-0.033
-236.859	125.111	-0.031	-0.038
-235.844	-79.451	-0.146	-0.049
-234.830	800.000	-0.104	0.313
-233.815	-169.235	-0.214	0.008
-232.800	-32.052	0.245	-0.135
-231.786	189.184	-0.218	-0.322
-230.771	412.471	-0.061	-0.128
-229.757	116.824	-0.018	-0.022
-228.742	126.602	0.071	0.088
-227.727	-72.979	0.168	-0.061
-226.713	-200.000	-0.002	-0.167
-225.698	11.569	0.064	0.049
-224.684	-200.000	-0.001	0.080
-223.669	286.892	0.059	-0.105
-222.655	800.000	0.077	0.220
-221.640	-14.601	0.270	0.171
-220.625	218.655	0.176	0.278
-219.611	800.000	0.040	0.116
-218.596	-30.087	0.118	0.066
-217.582	-200.000	-0.068	0.406
-216.567	800.000	-0.100	0.421
-215.552	413.645	0.129	-0.270
-214.538	-200.000	0.017	-0.171
-213.523	-28.272	0.187	0.107
-212.509	-26.318	0.141	-0.082
-211.494	-138.529	0.197	0.021
-210.479	800.000	-0.074	-0.239
-209.465	-117.970	0.146	-0.026
-208.450	-200.000	0.069	-0.309
-207.436	-54.183	0.111	-0.050
-206.421	99.534	-0.099	0.113
-205.406	-200.000	0.038	-0.225
-204.392	116.158	-0.156	0.189
-203.377	-86.500	-0.200	-0.061
-202.363	23.865	0.226	-0.184
-201.348	121.321	0.300	0.368
-200.333	628.947	-0.058	0.145
-199.319	-200.000	-0.035	-0.228
-198.304	-51.592	-0.203	-0.093
-197.290	309.513	-0.106	-0.195
-196.275	193.377	0.147	-0.218
-195.260	-200.000	-0.056	-0.268
-194.246	-200.000	-0.061	-0.302
-193.231	142.195	0.167	-0.218
-192.217	115.638	-0.045	-0.054
-191.202	-111.834	0.288	-0.057
-190.187	-200.000	-0.001	-0.146
-189.173	-108.111	0.120	-0.026
-188.158	-59.182	-0.445	-0.189
-187.144	5.708	-0.244	-0.177
-186.129	-200.000	0.049	0.240
-185.114	17.154	-0.115	-0.090
-184.100	767.939	-0.052	-0.139
-183.085	-36.232	-0.189	-0.100
-182.071	-200.000	0.003	-0.554
-181.056	800.000	-0.084	0.229
-180.042	-200.000	0.024	0.287
-179.027	-15.735	0.245	-0.154
-178.012	522.379	0.077	-0.178
-176.998	14.114	-0.031	0.024
-175.983	1.325	-0.216	-0.153
-174.969	-153.126	0.205	-0.014
-173.954	-97.225	0.085	0.022
-172.939	-87.516	0.241	-0.072
-171.925	602.853	0.036	0.087
-170.910	305.914	-0.045	0.083
-169.896	-19.481	-0.018	-0.011
-168.881	231.746	0.114	0.184
-167.866	-200.000	0.008	-0.361
-166.852	-133.388	-0.124	-0.015
-165.837	-8.043	0.360	-0.239
-164.823	-129.142	-0.481	-0.066
-163.808	153.419	-0.161	0.217
-162.793	-92.631	0.438	0.121
-161.779	27.179	-0.300	-0.248
-160.764	170.511	0.157	0.221
-159.750	800.000	0.101	0.298
-158.735	108.784	-0.066	0.077
-157.720	595.835	0.143	-0.349
-156.706	-200.000	0.028	-0.163
-155.691	-151.840	-0.376	-0.027
-154.677	-200.000	0.011	0.328
-153.662	245.715	-0.106	0.176
-152.647	47.891	0.223	-0.205
-151.633	111.144	-0.204	-0.242
-150.618	-116.118	0.415	0.076
-149.604	-84.328	0.236	-0.073
-148.589	-129.281	0.244	-0.033
-147.574	-67.130	-0.463	-0.179
-146.560	-73.876	0.092	-0.033
-145.545	-48.213	-0.303	0.144
-144.531	106.705	-0.072	0.084
-143.516	-27.431	-0.121	0.069
-142.502	169.338	0.102	0.143
-141.487	-13.820	0.139	-0.088
-140.472	-200.000	0.011	-0.229
-139.458	800.000	-0.067	-0.256
-138.443	145.506	-0.084	0.111
-137.429	-77.905	0.017	-0.006
-136.414	-75.674	0.099	-0.034
-135.399	800.000	0.090	-0.253
-134.385	-200.000	-0.004	0.198
-133.370	58.004	0.069	0.066
-132.356	-99.242	-0.505	-0.125
-131.341	-200.000	-0.035	-0.304
-130.326	211.872	0.113	-0.175
-129.312	40.289	-0.264	-0.234
-128.297	-18.311	-0.077	0.047
-127.283	-64.500	-0.087	0.035
-126.268	-118.338	0.380	-0.066
-125.253	392.209	-0.063	0.129
-124.239	-175.130	-0.341	0.009
-123.224	-200.000	0.010	-0.086
-122.210	-112.550	-0.163	0.032
-121.195	75.215	-0.116	-0.120
-120.180	118.585	0.090	-0.109
-119.166	15.985	0.330	-0.255
-118.151	-119.719	0.107	0.018
-117.137	181.472	-0.066	-0.096
-116.122	-108.145	0.282	-0.060
-115.107	800.000	0.088	0.341
-114.093	-83.101	0.202	-0.064
-113.078	-8.686	0.218	-0.143
-112.064	175.718	0.059	0.084
-111.049	-96.018	0.192	-0.050
-110.034	-22.263	0.147	-0.088
-109.020	-106.937	-0.257	-0.056
-108.005	223.139	0.156	-0.247
-106.991	-15.836	-0.141	-0.088
-105.976	800.000	-0.120	0.414
-104.962	292.586	0.080	0.142
-103.947	-84.825	0.127	-0.039
-102.932	263.266	0.142	0.242
-101.918	54.015	-0.045	-0.043
-100.903	-200.000	0.020	-0.273
-99.889	-55.567	-0.054	-0.024
-98.874	11.607	-0.284	0.214
-97.859	800.000	0.155	0.558
-96.845	614.205	-0.131	-0.321
-95.830	311.782	0.062	-0.114
-94.816	-200.000	0.034	0.361
-93.801	-200.000	-0.009	-0.056
-92.786	675.765	-0.132	0.337
-91.772	-200.000	-0.021	0.389
-90.757	-200.000	-0.017	-0.112
-89.743	-64.559	-0.151	-0.060
-88.728	-200.000	-0.013	0.158
-87.713	-190.841	-0.151	0.002
-86.699	-98.001	-0.245	-0.062
-85.684	31.576	0.272	0.229
-84.670	122.349	-0.194	0.238
-83.655	-200.000	-0.045	-0.283
-82.640	-73.397	0.043	-0.016
-81.626	800.000	-0.017	-0.054
-80.611	50.503	0.124	0.115
-79.597	800.000	0.020	0.067
-78.582	139.111	-0.084	-0.108
-77.567	123.533	-0.253	0.310
-76.553	38.387	0.254	0.222
-75.538	800.000	0.077	0.286
-74.524	225.117	0.126	-0.201
-73.509	-200.000	0.008	-0.072
-72.494	68.486	0.285	0.287
-71.480	-80.039	0.027	0.009
-70.465	-74.088	0.544	-0.193
-69.451	-89.801	0.432	-0.124
-68.436	416.651	0.079	0.165
-67.422	800.000	0.073	-0.211
-66.407	36.198	0.066	0.057
-65.392	188.831	-0.110	-0.161
-64.378	-200.000	0.023	-0.256
-63.363	362.268	0.048	-0.094
-62.349	800.000	-0.022	0.094
-61.334	40.249	-1.144	-1.008
-60.319	322.519	0.387	0.722
-59.305	800.000	-0.384	-1.148
-58.290	472.025	0.596	1.314
-57.276	576.265	0.576	1.379
-56.261	-200.000	106.406	624.760
-55.246	518.405	1513.740	3470.633
-54.232	175.962	2705.054	3845.248
-53.217	110.563	2185.006	2572.765
-52.203	39.922	1706.415	1500.686
-51.188	32.442	1518.093	1284.213
-50.173	29.961	1492.085	1245.498
-49.159	51.175	1548.068	1438.221
-48.144	51.335	1564.718	1454.731
-47.130	32.527	1520.103	1286.288
-46.115	29.561	1505.103	1253.445
-45.100	29.224	1502.665	1249.086
-44.086	29.303	1499.315	1246.782
-43.071	29.147	1497.734	1244.363
-42.057	29.187	1495.987	1243.134
-41.042	29.166	1494.942	1242.075
-40.027	29.227	1493.048	1240.862
-39.013	29.137	1491.730	1239.113
-37.998	29.066	1490.457	1237.527
-36.984	29.229	1489.185	1237.521
-35.969	29.132	1487.816	1235.679
-34.954	29.128	1486.490	1234.504
-33.940	29.146	1484.949	1233.294
-32.925	29.264	1483.293	1232.661
-31.911	29.210	1482.586	1231.666
-30.896	29.243	1481.271	1230.745
-29.881	29.243	1479.909	1229.561
-28.867	29.297	1478.437	1228.647
-27.852	29.225	1477.071	1226.985
-26.838	29.278	1475.811	1226.246
-25.823	29.227	1474.498	1224.767
-24.809	29.294	1472.425	1223.436
-23.794	29.190	1471.395	1221.846
-22.779	29.240	1470.137	1221.083
-21.765	29.288	1469.111	1220.503
-20.750	29.279	1468.052	1219.511
-19.736	29.155	1467.199	1217.936
-18.721	29.204	1466.058	1217.266
-17.706	29.198	1464.781	1216.116
-16.692	29.173	1463.451	1214.796
-15.677	29.171	1462.557	1213.994
-14.663	29.223	1461.470	1213.385
-13.648	29.198	1460.837	1212.649
-12.633	29.139	1459.792	1211.346
-11.619	29.135	1458.657	1210.327
-10.604	29.128	1457.937	1209.635
-9.590	29.136	1457.340	1209.148
-8.575	29.131	1456.366	1208.259
-7.560	29.194	1455.469	1207.876
-6.546	29.234	1454.557	1207.334
-5.531	29.066	1453.741	1205.510
-4.517	29.105	1452.769	1204.910
-3.502	29.128	1451.741	1204.164
-2.487	29.177	1450.696	1203.564
-1.473	29.147	1450.017	1202.763
-0.458	29.123	1449.093	1201.788
0.556	26.958	1438.907	1191.476
1.571	24.198	1413.593	1152.588
2.586	20.988	1354.500	1084.376
3.600	19.450	1274.154	1010.959
4.615	18.448	1229.957	970.135
5.629	15.978	1174.643	913.054
6.644	7.764	1090.243	805.899
7.659	0.814	1050.559	742.468
8.673	-0.101	1044.450	733.619
9.688	-0.298	1041.504	730.524
10.702	-0.422	1040.044	728.831
11.717	-0.378	1037.670	727.317
12.731	2.639	1040.701	744.038
13.746	11.503	1053.393	796.441
14.761	18.411	1062.654	837.252
15.775	20.102	1064.536	846.929
16.790	20.459	1063.759	847.981
17.804	20.318	1063.007	846.617
18.819	20.052	1062.423	844.779
19.834	20.184	1061.578	844.678
20.848	20.324	1061.236	845.014
21.863	20.255	1061.384	844.720
22.877	20.372	1060.557	844.553
23.892	20.307	1059.788	843.551
24.907	20.242	1059.010	842.543
25.921	20.235	1058.379	841.933
26.936	20.314	1057.068	841.198
27.950	20.237	1056.112	839.990
28.965	20.296	1054.824	839.175
29.980	20.270	1053.287	837.754
30.994	20.001	1052.127	835.461
32.009	20.414	1050.708	836.248
33.023	20.406	1050.532	835.996
34.038	20.196	1049.273	833.911
35.053	20.136	1048.127	832.636
36.067	20.317	1048.025	833.351
37.082	20.360	1047.116	832.762
38.096	20.391	1046.273	832.165
39.111	20.426	1045.563	831.697
40.126	20.639	1044.702	831.955
41.140	20.485	1043.391	830.100
42.155	20.211	1042.132	827.718
43.169	19.884	1040.866	825.082
44.184	20.025	1039.482	824.585
45.199	20.110	1038.413	824.065
46.213	20.045	1037.245	822.758
47.228	19.951	1036.263	821.460
48.242	20.051	1035.633	821.364
49.257	20.110	1034.947	821.023
50.271	20.136	1034.123	820.419
51.286	20.368	1033.308	820.801
52.301	20.336	1032.385	819.842
53.315	20.374	1031.496	819.245
54.330	20.304	1030.883	818.352
55.344	20.256	1029.873	817.253
56.359	20.343	1028.772	816.717
57.374	20.275	1028.332	815.977
58.388	20.146	1026.771	814.060
59.403	20.165	1026.565	813.914
60.417	20.200	1025.609	813.246
61.432	19.956	1024.693	811.306
62.447	20.034	1023.971	811.026
63.461	20.189	1023.003	810.915
64.476	19.952	1022.857	809.619
65.490	20.090	1021.841	809.385
66.505	20.050	1020.422	808.006
67.520	20.061	1019.725	807.434
68.534	20.107	1018.992	806.997
69.549	20.042	1017.531	805.464
70.563	19.728	1016.555	803.163
71.578	19.634	1016.058	802.261
72.593	19.746	1015.133	801.980
73.607	19.555	1014.084	800.193
74.622	19.541	1012.935	799.152
75.636	19.928	1012.272	800.350
76.651	20.058	1011.579	800.332
77.666	19.820	1010.464	798.278
78.680	19.872	1009.538	797.714
79.695	19.909	1008.910	797.322
80.709	19.935	1008.590	797.115
81.724	20.039	1007.902	796.982
82.739	19.978	1006.838	795.791
83.753	19.963	1006.175	795.125
84.768	20.200	1005.595	795.683
85.782	20.486	1004.532	796.084
86.797	20.626	1004.147	796.348
87.812	20.712	1002.862	795.651
88.826	20.478	1001.838	793.700
89.841	20.509	1001.139	793.220
90.855	20.586	1000.448	792.952
91.870	20.648	999.362	792.305
92.884	20.571	999.105	791.680
93.899	20.509	997.687	790.206
94.914	20.338	996.747	788.611
95.928	20.517	995.784	788.592
96.943	20.510	995.043	787.905
97.957	20.185	994.135	785.642
98.972	20.167	992.592	784.276
99.987	19.738	991.721	781.577
101.001	19.922	990.919	781.706
102.016	20.230	990.836	782.961
103.030	20.320	989.610	782.330
104.045	20.321	988.369	781.284
105.060	20.026	986.862	778.698
106.074	19.906	985.959	777.378
107.089	19.944	985.133	776.831
108.103	20.202	985.695	778.360
109.118	20.403	984.241	778.046
110.133	20.164	983.163	776.053
111.147	20.123	982.074	774.943
112.162	20.162	981.014	774.212
113.176	19.811	979.548	771.423
114.191	19.913	978.952	771.336
115.206	20.082	977.843	771.148
116.220	19.717	976.877	768.696
117.235	19.577	975.769	767.132
118.249	19.821	975.271	767.758
119.264	19.928	973.895	767.079
120.279	19.607	973.485	765.266
121.293	19.751	972.687	765.211
122.308	19.812	971.978	764.852
123.322	19.788	971.274	764.129
124.337	19.807	969.818	762.999
125.352	19.833	968.374	761.908
126.366	19.428	966.605	758.666
127.381	19.147	965.402	756.421
128.395	19.387	965.533	757.514
129.410	20.121	965.101	760.329
130.424	20.433	964.060	760.806
131.439	20.309	962.844	759.236
132.454	20.219	962.026	758.132
133.468	20.311	960.423	757.201
134.483	20.056	960.421	756.020
135.497	20.056	959.574	755.288
136.512	20.453	959.031	756.522
137.527	20.525	958.089	756.027
138.541	20.461	957.552	755.259
139.556	20.463	956.656	754.492
140.570	20.418	955.716	753.492
141.585	20.340	954.693	752.280
142.600	20.443	954.137	752.220
143.614	20.430	953.072	751.257
144.629	20.512	952.231	750.881
145.643	20.769	951.583	751.414
146.658	20.729	950.292	750.156
147.673	20.437	949.607	748.292
148.687	20.391	948.892	747.465
149.702	20.426	947.178	746.198
150.716	20.379	946.363	745.287
151.731	20.223	945.586	743.941
152.746	20.374	945.250	744.258
153.760	20.468	944.500	744.006
154.775	20.591	943.721	743.852
155.789	20.673	942.448	743.132
156.804	20.635	941.862	742.443
157.819	20.595	940.497	741.132
158.833	20.541	939.548	740.085
159.848	20.617	939.332	740.176
160.862	20.882	937.941	740.138
161.877	20.510	937.406	738.072
162.892	20.459	936.723	737.251
163.906	20.680	935.543	737.194
164.921	20.619	934.783	736.272
165.935	20.751	933.303	735.598
166.950	20.603	932.650	734.396
167.964	20.844	931.462	734.413
168.979	20.564	930.521	732.423
169.994	20.541	929.445	731.414
171.008	20.497	928.253	730.229
172.023	20.649	927.829	730.467
173.037	20.600	926.971	729.524
174.052	20.404	926.148	727.989
175.067	20.181	925.241	726.277
176.081	20.284	924.367	725.957
177.096	20.483	923.837	726.308
178.110	20.563	922.481	725.515
179.125	20.290	921.592	723.611
180.140	20.106	920.325	721.785
181.154	20.081	919.835	721.235
182.169	20.257	919.328	721.506
183.183	20.420	918.823	721.722
184.198	20.625	918.413	722.189
185.213	20.579	917.873	721.507
186.227	20.478	917.663	720.859
187.242	20.554	916.983	720.578
188.256	20.706	915.742	720.170
189.271	20.577	915.350	719.261
190.286	20.676	914.542	718.972
191.300	20.555	913.791	717.817
192.315	20.217	912.026	714.977
193.329	19.362	910.725	710.370
194.344	18.979	910.083	708.233
195.359	19.767	909.848	711.229
196.373	20.434	910.162	714.154
197.388	20.572	909.818	714.391
198.402	20.425	909.556	713.515
199.417	20.446	908.445	712.667
200.432	20.421	908.361	712.433
201.446	20.250	907.181	710.745
202.461	19.969	906.570	709.056
203.475	20.143	905.780	709.087
204.490	19.793	904.211	706.366
205.504	18.466	902.597	699.629
206.519	19.320	902.400	702.898
207.534	20.158	902.815	706.577
208.548	20.167	902.281	706.130
209.563	20.491	901.789	707.002
210.577	20.475	901.398	706.568
211.592	20.156	900.565	704.558
212.607	20.594	900.287	706.055
213.621	20.748	899.654	706.121
214.636	20.748	898.693	705.304
215.650	20.729	898.132	704.727
216.665	20.673	897.846	704.212
217.680	20.820	897.152	704.199
218.694	20.861	896.752	703.990
219.709	20.364	895.813	701.182
220.723	20.029	894.735	698.924
221.738	20.490	894.037	700.178
222.753	20.625	893.895	700.548
223.767	20.398	893.175	699.009
224.782	20.549	892.159	698.758
225.796	20.635	892.232	699.097
226.811	20.845	891.254	699.111
227.826	20.515	889.737	696.540
228.840	19.678	888.599	692.235
229.855	19.480	887.900	690.836
230.869	19.914	887.267	692.021
231.884	19.534	886.669	689.972
232.899	19.678	885.880	689.872
233.913	20.569	885.886	693.369
234.928	20.528	885.876	693.138
235.942	20.527	885.162	692.516
236.957	20.567	884.333	691.966
237.972	20.270	883.419	690.006
238.986	20.218	882.626	689.121
240.001	20.162	882.200	688.503
241.015	20.224	881.694	688.294
242.030	20.447	880.783	688.405
243.045	20.540	880.275	688.317
244.059	20.419	880.109	687.648
245.074	20.516	879.644	687.608
246.088	20.532	878.562	686.765
247.103	20.228	877.616	684.762
248.117	20.278	877.094	684.490
249.132	20.803	876.922	686.368
250.147	21.159	876.477	687.358
251.161	21.035	876.264	686.643
252.176	21.325	875.524	687.143
253.190	21.407	874.702	686.761
254.205	21.279	874.303	685.883
255.220	21.547	874.237	686.821
256.234	21.467	873.152	685.596
257.249	21.532	872.344	685.156
258.263	21.338	871.641	683.783
259.278	21.351	870.970	683.247
260.293	21.382	870.720	683.114
261.307	21.497	870.090	683.007
262.322	21.287	869.498	681.661
263.336	21.101	868.881	680.392
264.351	20.698	867.322	677.544
265.366	19.460	865.710	671.408
266.380	19.243	864.465	669.540
267.395	20.008	864.995	672.867
268.409	20.819	864.943	675.915
269.424	20.851	864.254	675.442
270.439	21.103	863.774	675.983
271.453	21.259	862.887	675.833
272.468	21.145	862.312	674.881
273.482	21.458	861.539	675.425
274.497	21.389	861.563	675.120
275.512	21.167	860.622	673.464
276.526	20.743	859.103	670.582
277.541	21.001	858.680	671.185
278.555	21.230	858.429	671.811
279.570	21.095	857.751	670.705
280.585	20.970	856.678	669.326
281.599	20.877	856.688	668.918
282.614	21.117	855.811	669.093
283.628	20.731	854.663	666.658
284.643	20.374	854.130	664.818
285.657	20.721	854.225	666.161
286.672	20.557	853.370	664.808
287.687	20.162	852.451	662.525
288.701	20.495	852.086	663.453
289.716	20.847	851.713	664.449
290.730	20.548	850.902	662.614
291.745	20.566	850.052	661.962
292.760	20.274	848.972	659.955
293.774	20.180	848.676	659.308
294.789	21.120	849.202	663.234
295.803	21.598	849.009	664.837
296.818	21.747	848.585	665.013
297.833	21.791	848.210	664.828
298.847	21.615	846.922	663.093
299.862	21.172	846.065	660.686
300.876	21.473	845.419	661.264
301.891	21.703	845.418	662.072
302.906	21.898	844.238	661.826
303.920	21.263	843.390	658.709
304.935	21.156	843.293	658.169
305.949	21.523	842.433	658.823
306.964	21.597	842.317	658.954
307.979	21.406	841.286	657.369
308.993	21.334	840.843	656.696
310.008	21.680	840.433	657.617
311.022	21.748	840.113	657.563
312.037	21.645	839.449	656.599
313.052	21.491	838.491	655.215
314.066	21.326	838.559	654.590
315.081	20.816	836.442	650.977
316.095	20.024	835.255	647.035
317.110	20.703	835.576	649.764
318.125	21.380	835.717	652.342
319.139	20.996	834.770	650.114
320.154	19.956	832.869	644.706
321.168	19.663	831.761	642.702
322.183	20.112	832.442	644.842
323.197	21.001	832.759	648.339
324.212	21.307	832.624	649.313
325.227	21.422	832.056	649.237
326.241	21.486	831.525	649.004
327.256	21.328	831.476	648.322
328.270	21.404	829.865	647.291
329.285	21.435	829.389	646.975
330.300	21.002	828.898	644.936
331.314	20.853	828.224	643.804
332.329	21.069	827.756	644.180
333.343	21.219	827.742	644.666
334.358	21.518	827.047	645.172
335.373	21.403	826.556	644.307
336.387	21.648	825.708	644.490
337.402	21.797	825.471	644.795
338.416	22.111	824.926	645.466
339.431	21.955	824.247	644.306
340.446	21.943	823.644	643.733
341.460	22.064	823.286	643.842
342.475	22.211	822.341	643.582
343.489	21.984	821.723	642.212
344.504	21.895	821.544	641.688
345.519	22.118	821.189	642.169
346.533	22.343	820.802	642.631
347.548	22.388	820.448	642.464
348.562	22.555	819.726	642.450
349.577	22.377	819.453	641.529
350.592	22.321	818.999	640.913
351.606	22.239	818.590	640.240
352.621	22.252	817.927	639.713
353.635	22.115	817.575	638.882
354.650	22.270	816.768	638.755
355.665	21.889	815.680	636.469
356.679	20.951	813.913	631.635
357.694	20.602	813.963	630.351
358.708	21.245	814.035	632.682
359.723	21.268	812.844	631.785
360.738	21.608	812.942	633.035
361.752	22.067	812.315	634.149
362.767	22.148	811.974	634.118
363.781	22.297	812.153	634.741
364.796	22.580	812.002	635.587
365.810	22.474	811.171	634.497
366.825	22.691	811.389	635.395
367.840	22.660	810.852	634.803
368.854	22.536	810.025	633.657
369.869	21.957	809.359	630.996
370.883	21.988	808.510	630.390
371.898	22.019	808.203	630.208
372.913	21.937	806.909	628.847
373.927	21.994	806.507	628.683
374.942	22.025	806.470	628.710
375.956	22.239	805.470	628.638
376.971	22.408	804.979	628.804
377.986	22.471	804.292	628.436
379.000	22.591	804.345	628.852
380.015	22.557	803.704	628.174
381.029	22.406	803.024	627.050
382.044	22.307	802.801	626.468
383.059	22.683	802.002	627.126
384.073	22.677	801.144	626.378
385.088	22.623	800.681	625.767
386.102	22.588	800.490	625.440
387.117	22.473	799.892	624.508
388.132	22.447	798.933	623.613
389.146	22.352	798.815	623.128
390.161	21.602	797.855	619.673
391.175	21.783	797.105	619.673
392.190	22.237	797.739	621.717
393.205	22.300	796.906	621.235
394.219	21.378	794.801	616.291
395.234	19.738	793.052	609.109
396.248	19.080	791.974	605.910
397.263	20.263	792.945	610.767
398.278	21.867	794.156	617.295
399.292	22.393	793.931	618.914
400.307	22.232	793.276	617.783
401.321	22.208	792.670	617.173
402.336	22.097	792.654	616.718
403.350	22.369	792.244	617.297
404.365	22.704	792.227	618.404
405.380	23.065	791.961	619.406
406.394	23.149	791.918	619.612
407.409	23.409	791.589	620.210
408.423	23.392	790.941	619.589
409.438	23.243	789.745	618.076
410.453	23.321	789.499	618.100
411.467	23.528	789.005	618.383
412.482	23.353	788.720	617.493
413.496	23.303	787.960	616.669
414.511	23.379	787.854	616.798
415.526	23.280	787.768	616.331
416.540	23.276	787.383	615.960
417.555	23.179	786.914	615.201
418.569	23.119	785.815	614.080
419.584	23.022	785.252	613.249
420.599	23.057	784.739	612.914
421.613	158.022	1363.434	1798.905
422.628	136.710	1447.722	1798.999
