DTS Sentinel unit serial number:	SN413079Multiplexer serial number:	ORYXHardware model number:	OX4-SRSoftware version number:	ORYX F/W v4.00 Oryx Data Collector v3.7.2.0data status	okinstallation	princeton_trtdifferential loss correction	single-endedforward channel	channel 3reverse channel	N/Adate	2019/09/16time	01:56:35forward acquisition time	60.00reverse acquisition time	0.00gamma	496.2192k internal	0.2336k external	0.2336temperature offset calibration	0.9953default loss term (dB/km)	0.3790temperature slope calibration	1.0000multiplexer offset coefficient	1.0000multiplexer slope coefficient	1.0000fibre end	0.00T internal ref (°C)	27.44T ext. ref 1 (°C)	10.07T ext. ref 2 (°C)	22.34length (m)	temperature (°C)	Stokes	anti-Stokes-747.200	-56.701	0.252	-0.112
-746.185	-8.598	-0.311	0.210
-745.171	-72.226	-0.339	0.126
-744.156	139.863	-0.075	0.099
-743.142	-32.788	-0.459	0.256
-742.127	-200.000	-0.016	0.322
-741.112	-35.313	0.317	0.173
-740.098	400.670	-0.144	0.304
-739.083	173.321	-0.151	-0.218
-738.069	252.865	-0.188	0.322
-737.054	404.605	0.155	0.328
-736.039	-146.861	-0.163	-0.014
-735.025	280.991	0.075	0.135
-734.010	-176.694	0.543	0.014
-732.996	-144.737	-0.225	0.021
-731.981	-149.654	-0.113	-0.009
-730.966	-135.968	0.288	0.034
-729.952	232.221	-0.073	-0.120
-728.937	183.535	0.071	0.105
-727.923	-54.473	0.190	0.086
-726.908	800.000	0.073	-0.276
-725.894	-200.000	-0.007	-0.388
-724.879	-70.238	0.019	-0.007
-723.864	800.000	-0.037	-0.150
-722.850	239.913	0.084	0.140
-721.835	-76.421	0.224	-0.079
-720.821	74.380	-0.301	-0.317
-719.806	-95.616	0.145	0.039
-718.791	9.469	-0.079	-0.060
-717.777	482.311	0.041	-0.094
-716.762	34.992	-0.271	0.238
-715.748	30.130	0.062	0.053
-714.733	99.757	0.093	0.108
-713.718	309.491	-0.107	-0.201
-712.704	510.456	-0.113	-0.263
-711.689	800.000	-0.015	-0.050
-710.675	216.862	0.014	-0.022
-709.660	-200.000	0.001	-0.051
-708.645	125.758	-0.218	-0.276
-707.631	-138.046	-0.525	-0.059
-706.616	-200.000	-0.029	-0.379
-705.602	92.006	-0.026	-0.030
-704.587	-200.000	0.029	-0.234
-703.572	243.152	-0.255	0.428
-702.558	-102.593	-0.319	-0.076
-701.543	119.441	-0.172	-0.213
-700.529	277.343	-0.092	-0.164
-699.514	800.000	0.024	-0.068
-698.499	800.000	0.060	-0.195
-697.485	482.707	-0.057	0.129
-696.470	-104.794	0.291	-0.067
-695.456	-99.313	-0.427	0.108
-694.441	8.599	0.206	-0.155
-693.426	-81.569	0.105	-0.035
-692.412	417.030	0.015	-0.032
-691.397	-200.000	-0.035	-0.276
-690.383	134.487	0.213	-0.277
-689.368	-200.000	-0.035	0.246
-688.354	-80.822	-0.252	-0.084
-687.339	-200.000	-0.049	0.234
-686.324	-116.324	0.202	-0.037
-685.310	-200.000	-0.038	-0.395
-684.295	35.855	-0.080	0.071
-683.281	-86.518	-0.651	0.200
-682.266	15.884	-0.072	0.057
-681.251	-200.000	0.047	-0.325
-680.237	-30.021	-0.171	-0.098
-679.222	177.105	0.063	0.092
-678.208	-55.971	-0.321	0.144
-677.193	-173.400	0.131	0.004
-676.178	-89.701	0.255	-0.075
-675.164	-69.516	-0.076	-0.029
-674.149	40.992	0.090	0.081
-673.135	70.684	0.188	0.195
-672.120	-148.849	-0.541	-0.044
-671.105	130.177	0.082	0.105
-670.091	-84.115	-0.225	0.072
-669.076	-37.195	-0.233	-0.125
-668.062	578.776	-0.112	0.275
-667.047	-2.178	0.225	-0.158
-666.032	-126.128	0.268	-0.040
-665.018	314.096	-0.144	-0.271
-664.003	191.443	0.162	-0.244
-662.989	-200.000	0.011	0.066
-661.974	750.402	0.014	-0.038
-660.959	-200.000	-0.038	-0.316
-659.945	45.846	0.085	-0.079
-658.930	7.354	0.016	0.012
-657.916	-200.000	0.042	-0.199
-656.901	-63.556	-0.130	0.054
-655.886	-200.000	0.002	-0.064
-654.872	26.014	-0.118	-0.098
-653.857	-4.888	-0.334	0.230
-652.843	379.501	-0.142	0.290
-651.828	800.000	0.062	-0.202
-650.814	13.794	0.154	-0.120
-649.799	276.910	0.214	-0.381
-648.784	52.061	-0.111	-0.106
-647.770	19.863	0.079	-0.063
-646.755	-200.000	-0.020	-0.176
-645.741	-73.508	-0.169	-0.062
-644.726	304.393	-0.096	-0.178
-643.711	622.498	0.062	0.157
-642.697	-58.772	0.037	0.016
-641.682	-140.231	-0.082	-0.009
-640.668	-200.000	-0.045	0.289
-639.653	494.835	-0.086	-0.197
-638.638	800.000	-0.069	0.230
-637.624	9.672	0.235	-0.178
-636.609	800.000	0.045	-0.187
-635.595	18.559	0.074	0.059
-634.580	458.445	-0.120	-0.267
-633.565	634.420	0.015	-0.039
-632.551	389.095	-0.073	-0.151
-631.536	-121.895	0.161	0.026
-630.522	-47.221	0.254	0.124
-629.507	-116.198	0.201	0.037
-628.492	-37.975	0.131	0.070
-627.478	402.686	-0.088	0.184
-626.463	-174.551	0.212	0.006
-625.449	-8.229	0.072	0.048
-624.434	-127.003	0.326	0.048
-623.419	-122.068	-0.145	-0.024
-622.405	176.481	0.129	0.187
-621.390	-41.726	-0.085	0.044
-620.376	128.086	0.233	-0.296
-619.361	-46.161	0.044	0.022
-618.346	-16.810	0.227	-0.144
-617.332	-200.000	-0.022	-0.140
-616.317	784.748	0.114	-0.313
-615.303	24.621	-0.099	0.082
-614.288	800.000	-0.027	-0.096
-613.273	-54.021	0.155	0.071
-612.259	43.452	0.356	-0.325
-611.244	-200.000	-0.064	0.301
-610.230	-8.726	0.127	0.085
-609.215	7.372	0.186	-0.139
-608.201	-176.140	0.085	-0.002
-607.186	-115.988	0.495	0.092
-606.171	800.000	-0.075	-0.245
-605.157	-18.996	-0.168	0.105
-604.142	-14.695	-0.213	-0.136
-603.128	78.000	0.117	-0.125
-602.113	149.681	-0.139	-0.187
-601.098	120.801	-0.124	-0.154
-600.084	-9.266	-0.231	-0.154
-599.069	-94.536	-0.241	0.066
-598.055	800.000	-0.059	-0.243
-597.040	-200.000	0.003	-0.244
-596.025	-200.000	0.002	-0.256
-595.011	800.000	-0.087	-0.304
-593.996	-5.904	-0.043	0.029
-592.982	176.512	-0.169	-0.246
-591.967	-96.534	-0.189	-0.050
-590.952	70.055	-0.168	-0.173
-589.938	-28.021	-0.168	0.097
-588.923	30.783	-0.286	-0.245
-587.909	-200.000	0.030	-0.254
-586.894	6.312	0.316	-0.234
-585.879	-170.395	-0.271	0.009
-584.865	-200.000	-0.018	-0.324
-583.850	450.024	-0.064	0.142
-582.836	-200.000	0.041	-0.485
-581.821	-200.000	0.000	0.008
-580.806	23.772	-0.201	0.165
-579.792	800.000	0.076	0.214
-578.777	-200.000	0.037	0.266
-577.763	-1.729	-0.224	0.157
-576.748	-57.731	-0.058	-0.025
-575.733	-200.000	-0.013	0.107
-574.719	-55.460	-0.359	0.161
-573.704	220.793	-0.072	-0.115
-572.690	36.802	0.296	-0.261
-571.675	-9.267	0.118	-0.079
-570.661	800.000	0.056	0.205
-569.646	597.379	-0.069	-0.170
-568.631	375.053	0.087	-0.176
-567.617	-150.375	0.078	-0.006
-566.602	-173.982	0.123	0.004
-565.588	159.137	-0.172	0.239
-564.573	800.000	0.072	-0.313
-563.558	699.461	0.031	0.080
-562.544	-200.000	0.003	-0.193
-561.529	-200.000	0.053	0.271
-560.515	-120.447	-0.298	-0.051
-559.500	412.734	-0.134	0.284
-558.485	-17.170	0.174	0.109
-557.471	-5.577	-0.090	-0.062
-556.456	292.912	-0.232	0.422
-555.442	-100.991	0.187	-0.046
-554.427	-200.000	0.002	0.050
-553.412	-33.540	-0.128	-0.070
-552.398	178.446	-0.197	-0.286
-551.383	-200.000	-0.059	0.296
-550.369	-50.739	0.232	0.109
-549.354	-45.892	-0.410	-0.202
-548.339	-81.083	-0.439	-0.145
-547.325	70.626	-0.286	0.295
-546.310	800.000	0.069	-0.220
-545.296	269.420	0.067	-0.116
-544.281	-200.000	0.046	0.278
-543.266	-136.506	0.340	-0.039
-542.252	800.000	-0.067	-0.261
-541.237	-200.000	-0.079	-0.621
-540.223	-114.706	0.227	-0.043
-539.208	44.104	-0.194	0.177
-538.193	-200.000	-0.031	-0.324
-537.179	84.641	-0.109	0.119
-536.164	174.528	-0.124	-0.179
-535.150	158.672	0.166	-0.230
-534.135	-105.186	0.066	0.015
-533.121	-16.772	0.199	0.125
-532.106	800.000	0.043	0.165
-531.091	800.000	-0.066	-0.213
-530.077	-200.000	-0.044	0.261
-529.062	-163.772	0.390	0.018
-528.048	-79.334	-0.171	0.058
-527.033	-40.375	0.179	-0.093
-526.018	-133.526	-0.224	0.028
-525.004	355.204	-0.110	0.217
-523.989	-200.000	0.060	-0.265
-522.975	13.235	-0.276	0.213
-521.960	800.000	0.041	-0.166
-520.945	275.377	0.110	0.194
-519.931	-173.435	-0.156	-0.005
-518.916	759.054	-0.051	0.138
-517.902	-27.327	-0.104	0.060
-516.887	788.967	-0.083	-0.227
-515.872	131.016	-0.341	-0.436
-514.858	-138.298	-0.127	0.014
-513.843	-11.826	0.136	-0.089
-512.829	800.000	0.027	-0.082
-511.814	-110.430	-0.099	0.020
-510.799	-200.000	0.002	0.228
-509.785	-200.000	-0.049	0.249
-508.770	-97.904	-0.239	0.061
-507.756	8.955	0.330	0.248
-506.741	800.000	0.075	0.231
-505.726	-31.849	0.174	-0.097
-504.712	-200.000	-0.000	-0.104
-503.697	800.000	-0.070	0.211
-502.683	26.653	-0.220	-0.183
-501.668	-200.000	-0.032	0.318
-500.653	-161.231	-0.066	-0.003
-499.639	-159.540	0.160	-0.009
-498.624	-200.000	-0.020	0.168
-497.610	-107.490	0.329	0.072
-496.595	3.145	-0.059	-0.043
-495.581	582.517	0.122	-0.297
-494.566	100.338	0.126	-0.146
-493.551	-200.000	0.000	-0.024
-492.537	800.000	0.081	0.295
-491.522	33.495	0.228	0.197
-490.508	521.658	-0.061	-0.142
-489.493	-200.000	-0.018	0.122
-488.478	-81.987	0.137	-0.045
-487.464	-108.578	-0.331	0.071
-486.449	76.569	-0.095	0.100
-485.435	-88.036	0.088	-0.026
-484.420	64.259	-0.187	-0.187
-483.405	-74.673	-0.167	-0.060
-482.391	49.067	-0.079	0.074
-481.376	-200.000	-0.058	-0.343
-480.362	-200.000	-0.025	0.156
-479.347	800.000	0.097	0.321
-478.332	-10.391	0.044	0.029
-477.318	37.251	-0.088	0.078
-476.303	-137.724	0.034	0.004
-475.289	-59.293	-0.118	0.050
-474.274	-22.569	-0.244	0.146
-473.259	168.694	0.034	0.048
-472.245	800.000	-0.055	-0.212
-471.230	46.915	-0.187	0.173
-470.216	326.715	0.040	0.075
-469.201	627.617	0.085	0.214
-468.186	70.190	-0.170	0.175
-467.172	-49.653	0.046	-0.022
-466.157	71.238	-0.284	-0.292
-465.143	795.004	-0.082	0.224
-464.128	106.966	-0.165	-0.195
-463.113	695.895	0.076	0.198
-462.099	800.000	0.056	0.202
-461.084	-171.435	0.138	-0.005
-460.070	-5.506	-0.244	-0.167
-459.055	800.000	-0.050	-0.148
-458.040	-91.719	0.167	0.047
-457.026	135.867	-0.149	0.192
-456.011	-43.448	0.321	0.161
-454.997	-200.000	-0.047	-0.217
-453.982	34.626	0.165	0.143
-452.968	800.000	0.063	0.247
-451.953	37.031	-0.225	0.198
-450.938	-44.444	-0.259	-0.129
-449.924	-90.458	0.159	0.046
-448.909	-195.905	0.132	0.001
-447.895	-200.000	-0.020	0.452
-446.880	397.523	0.023	0.047
-445.865	800.000	-0.153	0.464
-444.851	230.488	0.099	-0.160
-443.836	34.418	-0.227	0.196
-442.822	-75.905	-0.235	-0.082
-441.807	-54.796	0.149	-0.067
-440.792	-75.764	-0.298	0.105
-439.778	-200.000	0.052	0.321
-438.763	-200.000	-0.002	0.067
-437.749	-25.813	0.197	-0.115
-436.734	-154.791	-0.282	-0.018
-435.719	-200.000	0.002	-0.096
-434.705	-200.000	-0.013	-0.100
-433.690	-119.294	-0.185	-0.032
-432.676	-123.641	0.301	-0.047
-431.661	54.013	-0.081	0.077
-430.646	-160.328	0.199	-0.011
-429.632	517.934	0.102	-0.236
-428.617	-7.250	-0.234	-0.157
-427.603	38.296	-0.236	0.208
-426.588	107.920	-0.154	-0.182
-425.573	84.632	-0.308	0.334
-424.559	184.137	0.115	0.169
-423.544	-200.000	0.010	-0.212
-422.530	-146.136	0.065	0.006
-421.515	-59.470	0.475	0.202
-420.500	-76.432	-0.143	0.050
-419.486	-70.052	-0.210	-0.079
-418.471	-34.956	-0.137	-0.074
-417.457	53.621	0.241	0.230
-416.442	493.362	-0.023	0.053
-415.428	300.854	0.044	-0.081
-414.413	-200.000	-0.042	0.471
-413.398	132.402	-0.127	-0.162
-412.384	68.904	0.139	0.141
-411.369	210.967	-0.142	0.220
-410.355	61.908	-0.082	-0.081
-409.340	800.000	-0.042	0.138
-408.325	167.538	-0.100	0.142
-407.311	-200.000	0.024	0.322
-406.296	-130.911	0.158	0.021
-405.282	800.000	0.068	0.257
-404.267	43.234	-0.081	-0.073
-403.252	-200.000	0.006	0.078
-402.238	-123.640	0.109	-0.017
-401.223	6.524	0.086	-0.064
-400.209	109.918	0.138	0.163
-399.194	-83.312	0.272	-0.086
-398.179	467.226	-0.080	-0.178
-397.165	-56.662	-0.231	-0.101
-396.150	576.792	0.097	-0.235
-395.136	560.810	-0.085	-0.203
-394.121	-200.000	-0.003	0.054
-393.106	-27.208	-0.174	0.100
-392.092	800.000	0.138	0.386
-391.077	182.806	0.098	0.143
-390.063	-200.000	0.112	0.522
-389.048	-71.579	0.160	0.059
-388.033	150.045	-0.054	-0.072
-387.019	429.526	0.086	0.185
-386.004	287.124	-0.064	0.115
-384.990	72.727	0.103	-0.107
-383.975	-200.000	-0.041	-0.263
-382.960	471.408	-0.057	0.127
-381.946	8.515	-0.340	0.254
-380.931	-44.694	0.330	-0.163
-379.917	-200.000	0.010	0.054
-378.902	-8.494	0.103	0.068
-377.888	118.746	0.097	-0.118
-376.873	11.300	0.198	0.150
-375.858	303.600	0.033	-0.061
-374.844	385.868	-0.226	-0.462
-373.829	-71.087	0.061	-0.023
-372.815	223.400	0.072	-0.115
-371.800	-107.470	-0.168	0.036
-370.785	-200.000	0.016	-0.110
-369.771	416.665	0.017	0.035
-368.756	-54.368	-0.214	-0.096
-367.742	21.042	0.246	0.197
-366.727	32.432	-0.036	-0.031
-365.712	-68.867	-0.408	0.156
-364.698	14.970	0.114	-0.088
-363.683	-134.667	-0.171	-0.021
-362.669	68.157	0.127	0.129
-361.654	308.741	-0.056	0.104
-360.639	800.000	-0.032	-0.139
-359.625	36.698	0.198	-0.173
-358.610	188.931	-0.150	0.223
-357.596	-200.000	-0.013	-0.132
-356.581	135.555	-0.122	-0.157
-355.566	215.653	-0.079	-0.124
-354.552	97.712	0.366	0.416
-353.537	11.556	0.368	0.279
-352.523	17.421	-0.092	-0.072
-351.508	-92.454	-0.139	-0.039
-350.493	72.760	0.162	0.167
-349.479	-57.875	0.156	-0.068
-348.464	-40.818	-0.132	-0.067
-347.450	-151.620	0.129	-0.009
-346.435	-200.000	0.049	0.270
-345.420	-186.769	0.164	0.002
-344.406	800.000	0.037	0.105
-343.391	-84.696	0.153	-0.048
-342.377	114.671	-0.132	-0.159
-341.362	-86.762	-0.100	0.030
-340.348	-85.058	-0.277	-0.086
-339.333	377.042	0.054	-0.109
-338.318	800.000	0.056	0.202
-337.304	800.000	-0.073	0.247
-336.289	-63.147	0.192	0.078
-335.275	351.952	0.149	0.292
-334.260	-145.535	-0.221	0.020
-333.245	71.158	0.048	0.049
-332.231	-147.218	-0.047	0.004
-331.216	-113.403	0.139	0.027
-330.202	-36.066	-0.537	-0.287
-329.187	800.000	-0.031	-0.122
-328.172	67.949	0.099	0.100
-327.158	-89.425	0.408	0.119
-326.143	-124.156	0.435	0.067
-325.129	191.183	0.132	-0.197
-324.114	197.065	0.037	0.056
-323.099	-119.294	0.112	0.019
-322.085	800.000	-0.014	-0.049
-321.070	-200.000	-0.037	0.191
-320.056	78.072	0.147	0.155
-319.041	445.308	0.129	0.281
-318.026	-30.392	0.494	-0.277
-317.012	-74.306	0.142	0.051
-315.997	-76.123	-0.098	0.034
-314.983	172.153	-0.160	-0.227
-313.968	-200.000	0.024	0.179
-312.953	57.566	-0.059	-0.057
-311.939	-166.813	-0.234	-0.010
-310.924	-172.954	-0.055	0.002
-309.910	-200.000	-0.014	-0.119
-308.895	-122.527	0.013	-0.002
-307.880	-60.917	0.161	0.067
-306.866	121.969	-0.197	0.242
-305.851	-100.122	-0.329	-0.081
-304.837	-100.246	-0.216	-0.053
-303.822	9.164	0.167	0.124
-302.807	-98.249	0.168	-0.043
-301.793	-68.203	-0.255	-0.098
-300.778	-121.043	-0.279	0.046
-299.764	567.244	0.089	0.214
-298.749	17.079	0.252	-0.197
-297.735	-110.082	-0.332	-0.069
-296.720	-73.644	-0.129	0.046
-295.705	-200.000	-0.040	-0.520
-294.691	42.498	0.194	-0.174
-293.676	-111.133	0.247	-0.050
-292.662	-109.345	-0.122	0.025
-291.647	-101.760	0.153	0.036
-290.632	800.000	-0.035	-0.126
-289.618	-40.013	-0.231	-0.119
-288.603	-200.000	0.028	0.124
-287.589	-200.000	0.050	-0.254
-286.574	-200.000	0.036	0.158
-285.559	73.978	0.129	-0.134
-284.545	461.877	-0.024	-0.053
-283.530	-161.008	0.180	0.009
-282.516	131.700	-0.115	0.146
-281.501	800.000	-0.033	-0.117
-280.486	-49.853	0.042	-0.020
-279.472	-23.389	-0.041	0.024
-278.457	232.660	-0.284	-0.460
-277.443	-200.000	0.034	0.157
-276.428	800.000	-0.049	0.201
-275.413	-200.000	0.036	-0.209
-274.399	314.079	0.098	0.182
-273.384	-25.396	-0.297	0.173
-272.370	-200.000	-0.019	0.252
-271.355	-41.990	-0.279	-0.141
-270.340	41.650	-0.162	-0.145
-269.326	-30.604	-0.240	0.134
-268.311	800.000	0.043	0.135
-267.297	-68.057	-0.061	-0.024
-266.282	-189.398	-0.060	-0.001
-265.267	129.455	-0.081	-0.102
-264.253	-193.985	0.023	0.000
-263.238	61.505	0.067	0.066
-262.224	-200.000	0.030	0.256
-261.209	60.922	0.249	-0.244
-260.195	124.980	-0.104	-0.130
-259.180	-153.752	0.263	0.018
-258.165	-101.431	-0.109	0.026
-257.151	176.850	0.061	0.087
-256.136	101.818	0.147	-0.169
-255.122	34.786	-0.176	-0.151
-254.107	197.972	-0.156	-0.235
-253.092	308.508	0.096	0.176
-252.078	47.523	-0.177	0.162
-251.063	169.591	0.054	-0.077
-250.049	210.486	0.073	-0.113
-249.034	79.154	0.043	0.046
-248.019	43.172	0.038	-0.034
-247.005	574.808	0.038	0.091
-245.990	-121.646	0.225	-0.037
-244.976	241.745	0.092	-0.152
-243.961	310.133	0.101	-0.186
-242.946	-50.672	0.056	-0.026
-241.932	-41.480	0.045	-0.023
-240.917	-14.233	-0.159	-0.101
-239.903	134.319	-0.253	0.323
-238.888	-9.766	0.452	-0.297
-237.873	365.387	0.115	-0.228
-236.859	-28.270	0.039	-0.022
-235.844	89.263	0.141	-0.155
-234.830	-142.423	0.311	0.030
-233.815	328.824	0.015	-0.029
-232.800	36.749	0.117	-0.102
-231.786	-37.718	0.219	0.115
-230.771	-53.782	0.243	0.109
-229.757	153.586	0.135	0.183
-228.742	-177.195	0.272	0.007
-227.727	-134.463	-0.362	-0.044
-226.713	-169.799	-0.143	-0.005
-225.698	39.594	0.107	0.095
-224.684	800.000	-0.062	0.177
-223.669	-15.340	-0.135	-0.085
-222.655	148.448	-0.248	-0.329
-221.640	-95.155	0.137	0.036
-220.625	-200.000	-0.038	0.225
-219.611	66.938	0.291	0.292
-218.596	-200.000	-0.010	0.123
-217.582	-49.481	-0.136	-0.064
-216.567	-113.275	-0.273	-0.053
-215.552	201.660	-0.085	0.128
-214.538	-200.000	0.010	0.188
-213.523	-70.193	-0.186	0.070
-212.509	200.464	0.057	-0.086
-211.494	-200.000	-0.022	-0.226
-210.479	-115.681	0.170	-0.031
-209.465	519.334	0.095	-0.218
-208.450	10.213	0.119	-0.089
-207.436	-54.533	0.253	-0.113
-206.421	29.121	0.243	0.203
-205.406	-27.138	-0.164	-0.094
-204.392	-200.000	0.022	0.171
-203.377	-127.694	-0.077	-0.011
-202.363	-200.000	0.072	-0.382
-201.348	800.000	0.023	0.084
-200.333	-17.215	0.217	0.134
-199.319	-200.000	0.061	0.368
-198.304	376.819	-0.112	0.225
-197.290	-200.000	-0.007	-0.371
-196.275	800.000	0.121	-0.368
-195.260	17.885	0.179	-0.140
-194.246	-102.743	-0.205	-0.048
-193.231	-93.122	-0.282	-0.077
-192.217	54.943	0.212	0.201
-191.202	-200.000	0.010	-0.201
-190.187	194.987	-0.204	0.304
-189.173	174.548	0.144	0.204
-188.158	46.134	-0.328	0.299
-187.144	11.282	-0.248	0.186
-186.129	192.429	0.169	-0.251
-185.114	125.439	-0.107	-0.133
-184.100	345.515	0.095	0.183
-183.085	-30.939	-0.237	0.131
-182.071	485.225	-0.097	-0.216
-181.056	800.000	0.099	0.311
-180.042	258.849	0.053	0.089
-179.027	42.649	0.091	0.082
-178.012	800.000	-0.071	-0.207
-176.998	-200.000	-0.026	-0.132
-175.983	-51.174	-0.054	-0.025
-174.969	-200.000	0.002	0.031
-173.954	-138.680	-0.170	-0.018
-172.939	-200.000	0.028	0.186
-171.925	-28.389	-0.151	0.086
-170.910	800.000	-0.032	0.089
-169.896	-134.582	0.171	0.020
-168.881	382.137	-0.052	0.105
-167.866	-1.242	0.108	0.075
-166.852	800.000	0.086	-0.262
-165.837	164.432	0.078	0.109
-164.823	35.349	0.116	0.100
-163.808	-101.071	-0.411	0.099
-162.793	-139.725	0.170	-0.018
-161.779	800.000	0.013	-0.041
-160.764	-79.272	0.453	-0.151
-159.750	-200.000	-0.020	-0.292
-158.735	15.522	-0.129	0.099
-157.720	-92.923	0.171	-0.047
-156.706	-115.236	-0.145	-0.027
-155.691	376.273	-0.028	0.056
-154.677	-20.100	0.283	-0.171
-153.662	666.532	0.103	-0.260
-152.647	218.027	0.034	-0.053
-151.633	24.886	0.356	-0.289
-150.618	-3.959	0.126	0.086
-149.604	33.327	0.254	0.216
-148.589	-72.087	0.147	0.054
-147.574	800.000	-0.029	-0.107
-146.560	112.760	-0.155	-0.184
-145.545	294.724	0.118	-0.212
-144.531	751.568	0.057	0.152
-143.516	-200.000	-0.015	-0.163
-142.502	-160.493	-0.131	0.007
-141.487	156.010	0.098	0.132
-140.472	-99.838	-0.275	-0.068
-139.458	-170.256	-0.111	0.004
-138.443	-200.000	0.003	0.153
-137.429	-200.000	-0.011	0.222
-136.414	-164.870	0.066	-0.003
-135.399	-200.000	-0.054	-0.238
-134.385	-200.000	0.041	-0.216
-133.370	488.947	-0.095	-0.213
-132.356	-200.000	0.070	-0.321
-131.341	453.384	-0.007	0.014
-130.326	-200.000	0.040	0.211
-129.312	779.746	0.099	0.266
-128.297	273.127	0.057	-0.099
-127.283	173.467	-0.085	0.120
-126.268	-200.000	0.057	-0.249
-125.253	-176.157	-0.563	0.015
-124.239	-65.992	0.077	0.030
-123.224	449.603	0.059	-0.128
-122.210	87.822	0.068	-0.074
-121.195	-4.624	0.170	0.115
-120.180	631.545	-0.065	-0.160
-119.166	-111.310	-0.159	-0.032
-118.151	-154.177	-0.131	-0.009
-117.137	20.644	-0.133	0.105
-116.122	-154.355	0.037	0.002
-115.107	176.763	0.131	-0.187
-114.093	-74.637	-0.334	-0.118
-113.078	-56.724	-0.252	-0.109
-112.064	-200.000	0.058	0.292
-111.049	-200.000	-0.062	0.344
-110.034	-200.000	0.031	0.149
-109.020	300.939	-0.097	-0.175
-108.005	-200.000	-0.156	0.001
-106.991	-200.000	-0.010	-0.145
-105.976	-200.000	0.023	-0.226
-104.962	138.584	0.145	-0.187
-103.947	-200.000	0.229	-0.001
-102.932	-42.361	-0.295	-0.148
-101.918	162.030	-0.084	0.115
-100.903	800.000	0.063	-0.170
-99.889	9.435	0.318	-0.236
-98.874	-30.299	-0.229	-0.127
-97.859	-200.000	-0.062	-0.515
-96.845	97.648	0.188	0.212
-95.830	-32.596	-0.277	0.151
-94.816	800.000	-0.056	-0.239
-93.801	800.000	0.038	0.138
-92.786	294.987	-0.127	0.228
-91.772	-123.821	0.111	-0.017
-90.757	275.316	-0.066	0.114
-89.743	-100.512	0.247	-0.060
-88.728	-43.676	0.203	0.100
-87.713	232.442	0.213	0.343
-86.699	655.571	0.037	0.094
-85.684	-68.840	-0.247	0.093
-84.670	32.682	0.185	0.157
-83.655	305.772	0.088	0.159
-82.640	149.896	0.155	0.206
-81.626	-151.034	0.242	0.018
-80.611	139.224	-0.139	-0.179
-79.597	276.077	-0.056	0.098
-78.582	-200.000	-0.009	0.067
-77.567	-200.000	0.020	-0.104
-76.553	30.716	0.147	-0.123
-75.538	77.866	-0.187	0.195
-74.524	-108.270	-0.175	0.037
-73.509	-91.904	0.200	-0.055
-72.494	-200.000	-0.025	0.131
-71.480	-22.245	-0.253	0.150
-70.465	126.822	-0.092	0.114
-69.451	794.647	0.137	0.369
-68.436	260.778	-0.131	-0.222
-67.422	-29.915	-0.236	-0.131
-66.407	251.010	-0.113	0.187
-65.392	-200.000	0.006	0.077
-64.378	231.748	-0.101	0.162
-63.363	-200.000	-0.041	0.208
-62.349	800.000	0.078	-0.229
-61.334	-15.417	-1.519	-0.949
-60.319	44.474	0.556	0.499
-59.305	321.188	-0.685	-1.273
-58.290	800.000	0.506	1.438
-57.276	800.000	0.516	1.693
-56.261	-200.000	113.232	642.026
-55.246	475.358	1501.687	3314.387
-54.232	149.014	2665.340	3523.668
-53.217	102.917	2167.985	2481.466
-52.203	37.587	1698.466	1473.035
-51.188	30.516	1516.536	1267.190
-50.173	28.333	1491.887	1231.883
-49.159	52.508	1549.376	1445.565
-48.144	51.337	1564.746	1451.841
-47.130	30.845	1521.594	1273.465
-46.115	27.702	1506.669	1239.601
-45.100	27.502	1503.320	1235.445
-44.086	27.486	1501.363	1233.677
-43.071	27.416	1499.588	1231.696
-42.057	27.419	1497.805	1230.205
-41.042	27.473	1496.076	1229.100
-40.027	27.452	1494.695	1227.777
-39.013	27.430	1493.330	1226.458
-37.998	27.333	1492.343	1224.945
-36.984	27.390	1491.574	1224.649
-35.969	27.436	1489.711	1223.376
-34.954	27.359	1488.364	1221.708
-33.940	27.431	1486.698	1220.774
-32.925	27.398	1485.833	1219.794
-31.911	27.487	1483.841	1218.709
-30.896	27.419	1482.676	1217.246
-29.881	27.558	1481.562	1217.209
-28.867	27.529	1480.070	1215.745
-27.852	27.419	1479.188	1214.234
-26.838	27.561	1477.601	1213.831
-25.823	27.456	1475.569	1211.418
-24.809	27.462	1474.345	1210.407
-23.794	27.489	1473.095	1209.506
-22.779	27.568	1471.822	1208.942
-21.765	27.490	1471.096	1207.780
-20.750	27.538	1469.726	1206.923
-19.736	27.522	1468.731	1205.951
-18.721	27.438	1467.888	1204.656
-17.706	27.504	1466.688	1204.062
-16.692	27.468	1465.468	1202.771
-15.677	27.463	1464.451	1201.856
-14.663	27.393	1463.897	1200.894
-13.648	27.435	1462.958	1200.353
-12.633	27.335	1462.460	1199.236
-11.619	27.399	1461.539	1198.854
-10.604	27.433	1460.516	1198.190
-9.590	27.380	1459.576	1197.027
-8.575	27.364	1458.542	1196.024
-7.560	27.364	1458.123	1195.635
-6.546	27.404	1456.892	1194.843
-5.531	27.443	1456.096	1194.395
-4.517	27.446	1454.729	1193.247
-3.502	27.458	1453.998	1192.676
-2.487	27.532	1452.542	1191.924
-1.473	27.387	1452.174	1190.622
-0.458	27.519	1450.258	1189.869
0.556	25.766	1440.538	1177.858
1.571	23.046	1416.636	1140.686
2.586	19.905	1356.788	1072.957
3.600	18.585	1274.433	1000.052
4.615	17.513	1229.474	958.656
5.629	16.619	1176.687	912.594
6.644	13.429	1100.073	836.992
7.659	10.642	1065.197	796.723
8.673	10.219	1060.825	791.314
9.688	10.097	1057.317	788.031
10.702	9.959	1056.123	786.401
11.717	9.995	1054.171	785.053
12.731	11.281	1053.650	790.834
13.746	14.554	1058.172	810.078
14.761	17.281	1060.571	825.097
15.775	17.658	1061.284	827.413
16.790	17.021	1058.952	822.435
17.804	15.994	1056.388	815.401
18.819	15.085	1054.781	809.697
19.834	14.649	1052.866	806.048
20.848	14.140	1052.239	803.038
21.863	13.967	1051.268	801.391
22.877	13.715	1050.881	799.814
23.892	13.613	1049.735	798.379
24.907	13.532	1048.847	797.240
25.921	13.432	1048.194	796.194
26.936	13.558	1047.780	796.413
27.950	13.521	1046.578	795.255
28.965	13.634	1045.114	794.612
29.980	13.591	1044.291	793.712
30.994	13.846	1043.134	793.982
32.009	13.863	1042.421	793.451
33.023	13.776	1042.121	792.736
34.038	13.808	1040.860	791.859
35.053	13.810	1040.055	791.183
36.067	13.719	1038.966	789.853
37.082	13.749	1037.868	789.089
38.096	13.741	1037.374	788.607
39.111	13.686	1036.856	787.881
40.126	13.763	1035.661	787.269
41.140	13.670	1034.558	785.920
42.155	13.508	1033.540	784.312
43.169	13.461	1032.632	783.332
44.184	13.399	1031.872	782.394
45.199	13.497	1030.124	781.460
46.213	13.396	1029.641	780.546
47.228	13.461	1028.544	779.956
48.242	13.674	1027.294	779.941
49.257	13.691	1026.439	779.299
50.271	13.626	1025.663	778.339
51.286	13.748	1024.267	777.782
52.301	13.759	1023.854	777.452
53.315	13.596	1023.389	776.265
54.330	13.679	1022.210	775.690
55.344	13.605	1021.336	774.610
56.359	13.557	1020.731	773.861
57.374	13.674	1019.273	773.231
58.388	13.536	1018.597	772.010
59.403	13.518	1018.086	771.470
60.417	13.525	1017.288	770.828
61.432	13.457	1016.727	770.018
62.447	13.271	1015.829	768.405
63.461	13.455	1014.496	768.186
64.476	13.408	1013.987	767.511
65.490	13.428	1012.786	766.626
66.505	13.409	1012.326	766.124
67.520	13.362	1011.541	765.245
68.534	13.455	1010.512	764.829
69.549	13.474	1009.834	764.333
70.563	13.398	1009.076	763.345
71.578	13.345	1008.737	762.776
72.593	13.456	1007.340	762.161
73.607	13.366	1006.750	761.233
74.622	13.383	1005.428	760.247
75.636	13.329	1004.729	759.402
76.651	13.325	1003.893	758.683
77.666	13.326	1003.074	758.001
78.680	13.407	1002.332	757.746
79.695	13.455	1001.528	757.293
80.709	13.422	1000.997	756.671
81.724	13.470	1000.096	756.143
82.739	13.491	999.447	755.682
83.753	13.549	999.065	755.589
84.768	13.533	998.211	754.806
85.782	13.698	997.428	754.894
86.797	13.750	996.485	754.351
87.812	13.666	996.032	753.560
88.826	13.596	995.174	752.526
89.841	13.594	994.335	751.819
90.855	13.602	993.239	750.958
91.870	13.721	992.337	750.750
92.884	13.755	991.754	750.394
93.899	13.851	991.038	750.223
94.914	13.842	990.247	749.517
95.928	13.823	989.334	748.672
96.943	13.835	988.769	748.230
97.957	13.746	988.152	747.297
98.972	13.675	987.379	746.326
99.987	13.723	986.455	745.777
101.001	13.761	985.619	745.251
102.016	13.726	984.920	744.500
103.030	13.680	983.724	743.322
104.045	13.773	982.871	743.031
105.060	13.702	981.930	741.938
106.074	13.748	980.958	741.342
107.089	13.673	980.234	740.393
108.103	13.576	979.474	739.323
109.118	13.559	978.790	738.666
110.133	13.520	977.873	737.732
111.147	13.525	977.063	737.078
112.162	13.566	975.898	736.316
113.176	13.582	975.094	735.717
114.191	13.630	974.326	735.284
115.206	13.585	973.992	734.770
116.220	13.561	972.720	733.637
117.235	13.502	971.990	732.761
118.249	13.595	971.410	732.668
119.264	13.583	969.950	731.451
120.279	13.490	969.305	730.491
121.293	13.596	968.584	730.346
122.308	13.580	967.473	729.375
123.322	13.523	966.943	728.659
124.337	13.596	965.800	728.055
125.352	13.505	964.824	726.858
126.366	13.439	963.803	725.734
127.381	13.381	962.586	724.498
128.395	13.454	961.424	723.881
129.410	13.432	960.615	723.112
130.424	13.430	959.874	722.480
131.439	13.567	959.051	722.391
132.454	13.385	958.648	721.234
133.468	13.526	957.664	721.044
134.483	13.534	956.907	720.445
135.497	13.652	956.109	720.290
136.512	13.596	955.788	719.744
137.527	13.520	954.834	718.630
138.541	13.620	954.045	718.406
139.556	13.622	953.251	717.756
140.570	13.591	952.758	717.184
141.585	13.727	951.531	716.788
142.600	13.778	951.474	716.901
143.614	13.781	950.677	716.250
144.629	13.776	949.965	715.628
145.643	13.923	949.020	715.487
146.658	13.800	948.455	714.469
147.673	13.841	947.327	713.732
148.687	13.824	946.713	713.134
149.702	13.682	945.510	711.552
150.716	13.739	944.195	710.746
151.731	13.622	944.038	710.063
152.746	13.663	943.001	709.396
153.760	13.687	942.495	709.053
154.775	13.716	941.578	708.427
155.789	13.793	941.115	708.346
156.804	13.870	940.178	707.902
157.819	13.860	939.344	707.173
158.833	13.813	938.929	706.597
159.848	13.900	938.146	706.312
160.862	13.789	937.767	705.495
161.877	14.015	936.857	705.708
162.892	13.978	935.434	704.417
163.906	13.820	934.843	703.239
164.921	13.739	934.221	702.364
165.935	13.923	932.974	702.143
166.950	13.767	932.325	700.933
167.964	13.833	931.714	700.691
168.979	13.872	930.162	699.629
169.994	13.768	929.647	698.742
171.008	13.944	928.485	698.545
172.023	14.068	927.603	698.339
173.037	14.021	926.941	697.584
174.052	14.089	926.183	697.234
175.067	13.965	925.779	696.351
176.081	13.931	924.455	695.150
177.096	13.886	924.034	694.583
178.110	13.705	923.800	693.589
179.125	13.849	922.765	693.353
180.140	14.080	921.557	693.348
181.154	14.001	921.157	692.658
182.169	13.963	920.921	692.260
183.183	14.107	919.734	691.903
184.198	14.009	919.162	691.007
185.213	14.113	918.182	690.638
186.227	14.105	917.883	690.322
187.242	14.179	917.250	690.090
188.256	14.125	916.704	689.393
189.271	14.196	915.933	689.049
190.286	14.301	915.042	688.751
191.300	14.116	914.307	687.372
192.315	14.022	913.619	686.404
193.329	13.944	913.017	685.573
194.344	13.887	912.461	684.857
195.359	13.982	911.746	684.651
196.373	14.112	910.939	684.520
197.388	14.160	910.368	684.230
198.402	14.287	910.135	684.516
199.417	14.361	909.735	684.457
200.432	14.397	909.494	684.363
201.446	14.418	908.691	683.786
202.461	14.427	908.321	683.483
203.475	14.344	908.335	683.094
204.490	14.414	907.154	682.431
205.504	14.450	905.891	681.568
206.519	14.426	905.178	680.872
207.534	14.464	904.753	680.647
208.548	14.465	903.595	679.721
209.563	14.251	903.763	678.915
210.577	14.488	902.474	678.850
211.592	14.378	902.143	678.094
212.607	14.417	901.685	677.847
213.621	14.594	900.816	677.856
214.636	14.620	899.960	677.257
215.650	14.539	899.173	676.273
216.665	14.490	898.941	675.841
217.680	14.490	898.556	675.491
218.694	14.473	898.136	675.049
219.709	14.594	897.706	675.153
220.723	14.594	896.543	674.219
221.738	14.593	896.061	673.794
222.753	14.507	895.467	672.940
223.767	14.628	894.582	672.706
224.782	14.721	893.601	672.282
225.796	14.643	893.111	671.540
226.811	14.648	892.386	670.954
227.826	14.733	892.057	670.990
228.840	14.596	891.537	669.992
229.855	14.553	890.747	669.162
230.869	14.745	889.990	669.307
231.884	14.773	889.383	668.903
232.899	14.708	888.815	668.157
233.913	14.594	887.864	666.926
234.928	14.614	887.518	666.688
235.942	14.671	886.488	666.081
236.957	14.627	885.619	665.194
237.972	14.654	885.220	664.944
238.986	14.640	884.878	664.573
240.001	14.559	884.157	663.651
241.015	14.689	883.179	663.372
242.030	14.645	882.536	662.659
243.045	14.777	881.331	662.217
244.059	14.959	880.720	662.418
245.074	14.737	880.661	661.438
246.088	14.870	879.773	661.239
247.103	14.662	880.162	660.650
248.117	15.102	878.552	661.121
249.132	14.934	878.293	660.203
250.147	14.982	877.739	659.919
251.161	15.152	877.067	660.022
252.176	15.235	876.109	659.573
253.190	15.093	875.704	658.651
254.205	15.233	875.156	658.730
255.220	15.103	874.773	657.874
256.234	15.260	873.815	657.709
257.249	15.185	873.710	657.280
258.263	15.397	872.542	657.170
259.278	15.307	872.013	656.365
260.293	15.256	871.653	655.835
261.307	15.335	870.529	655.240
262.322	15.316	870.065	654.756
263.336	15.388	869.950	654.894
264.351	15.358	869.257	654.198
265.366	15.314	869.103	653.851
266.380	15.422	867.641	653.115
267.395	15.461	867.236	652.903
268.409	15.520	866.390	652.439
269.424	15.361	866.016	651.482
270.439	15.379	865.228	650.899
271.453	15.519	864.450	650.801
272.468	15.421	863.644	649.759
273.482	15.459	862.852	649.251
274.497	15.440	862.570	648.906
275.512	15.456	861.765	648.308
276.526	15.355	861.175	647.417
277.541	15.425	860.589	647.189
278.555	15.582	859.891	647.210
279.570	15.605	859.189	646.714
280.585	15.562	859.259	646.544
281.599	15.681	858.136	646.097
282.614	15.563	857.701	645.260
283.628	15.550	857.061	644.672
284.643	15.620	856.941	644.792
285.657	15.645	856.176	644.256
286.672	15.574	855.675	643.549
287.687	15.776	854.491	643.375
288.701	15.702	854.666	643.166
289.716	15.722	854.038	642.716
290.730	15.862	852.946	642.370
291.745	15.675	852.502	641.266
292.760	15.729	851.566	640.710
293.774	15.764	851.558	640.780
294.789	15.756	851.064	640.322
295.803	15.861	850.203	640.016
296.818	15.782	849.686	639.270
297.833	15.841	848.900	638.847
298.847	15.794	848.289	638.152
299.862	15.865	847.371	637.674
300.876	15.869	847.006	637.359
301.891	15.890	846.475	636.983
302.906	15.851	846.040	636.451
303.920	15.993	844.897	636.071
304.935	16.002	844.684	635.888
305.949	16.183	843.824	635.866
306.964	15.989	843.319	634.700
307.979	15.878	842.915	633.922
308.993	16.139	842.375	634.439
310.008	16.059	841.923	633.742
311.022	16.006	841.365	633.070
312.037	16.067	841.074	633.023
313.052	16.176	840.148	632.679
314.066	16.046	839.745	631.830
315.081	16.028	838.988	631.140
316.095	16.075	838.362	630.787
317.110	16.006	838.016	630.214
318.125	15.982	837.709	629.839
319.139	16.042	836.752	629.285
320.154	16.075	836.570	629.217
321.168	16.231	835.451	628.901
322.183	15.915	835.481	627.690
323.197	16.178	834.730	628.051
324.212	16.129	834.010	627.269
325.227	16.147	833.446	626.858
326.241	16.094	833.275	626.477
327.256	16.156	832.588	626.135
328.270	16.100	832.220	625.594
329.285	16.144	831.363	625.058
330.300	16.107	831.011	624.600
331.314	16.124	830.484	624.213
332.329	16.136	829.753	623.652
333.343	16.275	828.973	623.523
334.358	16.266	828.891	623.372
335.373	16.299	828.250	622.958
336.387	16.271	827.786	622.452
337.402	16.245	827.972	622.440
338.416	16.319	826.714	621.711
339.431	16.395	825.833	621.273
340.446	16.510	825.603	621.466
341.460	16.524	824.983	620.999
342.475	16.443	824.717	620.444
343.489	16.593	823.667	620.149
344.504	16.498	823.505	619.625
345.519	16.781	822.818	620.090
346.533	16.724	822.334	619.460
347.548	16.692	821.818	618.900
348.562	16.674	821.284	618.380
349.577	16.453	820.973	617.280
350.592	16.614	820.338	617.338
351.606	16.595	819.826	616.831
352.621	16.602	819.388	616.469
353.635	16.580	819.039	616.074
354.650	16.556	818.812	615.760
355.665	16.600	818.383	615.545
356.679	16.643	817.754	615.172
357.694	16.658	817.100	614.680
358.708	16.630	816.625	614.167
359.723	16.893	815.599	614.295
360.738	16.707	815.342	613.373
361.752	16.639	815.096	612.888
362.767	16.637	814.986	612.742
363.781	16.750	814.153	612.472
364.796	16.818	813.906	612.478
365.810	16.900	813.318	612.277
366.825	17.003	812.824	612.223
367.840	16.983	812.623	611.944
368.854	16.960	812.358	611.608
369.869	17.061	811.430	611.217
370.883	16.938	811.099	610.471
371.898	16.918	810.466	609.870
372.913	17.046	809.520	609.564
373.927	17.021	809.399	609.329
374.942	16.957	808.627	608.465
375.956	17.096	808.227	608.606
376.971	17.155	807.741	608.397
377.986	17.113	807.060	607.683
379.000	17.160	806.523	607.391
380.015	17.340	805.774	607.419
381.029	17.274	805.600	606.998
382.044	17.193	804.809	606.056
383.059	17.242	804.278	605.777
384.073	17.485	803.295	605.850
385.088	17.204	803.529	604.971
386.102	17.178	802.948	604.388
387.117	17.105	802.241	603.545
388.132	17.138	801.709	603.207
389.146	17.187	801.165	602.919
390.161	17.146	801.194	602.740
391.175	17.258	800.604	602.643
392.190	17.255	800.459	602.469
393.205	17.278	799.950	602.113
394.219	17.339	799.442	601.894
395.234	17.266	798.738	601.050
396.248	17.195	798.447	600.531
397.263	17.153	797.922	599.931
398.278	17.336	797.300	600.057
399.292	17.230	796.757	599.223
400.307	17.137	796.663	598.770
401.321	17.103	796.350	598.361
402.336	17.205	796.159	598.527
403.350	17.208	795.436	597.938
404.365	17.442	794.677	598.139
405.380	17.423	794.474	597.866
406.394	17.442	794.014	597.534
407.409	17.463	793.496	597.164
408.423	17.503	793.269	597.080
409.438	17.382	793.085	596.467
410.453	17.592	792.501	596.709
411.467	17.718	791.808	596.576
412.482	17.809	791.188	596.376
413.496	17.688	790.987	595.748
414.511	17.549	790.668	594.969
415.526	17.670	789.913	594.770
416.540	17.869	789.451	595.062
417.555	17.748	789.059	594.295
418.569	17.824	788.354	593.976
419.584	17.960	787.474	593.733
420.599	17.634	787.710	592.721
421.613	111.653	1292.893	1476.006
422.628	95.864	1366.454	1476.108
