DTS Sentinel unit serial number:	SN413079Multiplexer serial number:	ORYXHardware model number:	OX4-SRSoftware version number:	ORYX F/W v4.00 Oryx Data Collector v3.7.2.0data status	okinstallation	princeton_trtdifferential loss correction	single-endedforward channel	channel 3reverse channel	N/Adate	2019/09/17time	22:28:34forward acquisition time	60.00reverse acquisition time	0.00gamma	496.2192k internal	0.2344k external	0.2344temperature offset calibration	0.9951default loss term (dB/km)	0.3790temperature slope calibration	1.0000multiplexer offset coefficient	1.0000multiplexer slope coefficient	1.0000fibre end	0.00T internal ref (°C)	25.37T ext. ref 1 (°C)	0.18T ext. ref 2 (°C)	18.59length (m)	temperature (°C)	Stokes	anti-Stokes-747.200	-76.340	0.269	-0.095
-746.185	-200.000	0.008	0.204
-745.171	-52.395	-0.100	0.046
-744.156	-14.592	-0.321	0.207
-743.142	-73.075	0.391	-0.144
-742.127	-106.826	-0.138	0.031
-741.112	-200.000	0.018	0.234
-740.098	-18.121	0.080	-0.050
-739.083	-25.411	-0.283	0.167
-738.069	532.125	-0.071	0.167
-737.054	-105.525	-0.067	0.015
-736.039	50.187	-0.173	0.164
-735.025	-200.000	-0.013	0.118
-734.010	-200.000	-0.013	0.117
-732.996	-200.000	-0.076	-0.402
-731.981	-200.000	-0.007	-0.140
-730.966	46.211	0.049	-0.045
-729.952	-200.000	-0.074	-0.375
-728.937	-120.475	0.105	0.018
-727.923	-11.764	0.214	0.141
-726.908	-200.000	-0.021	0.000
-725.894	47.440	0.102	-0.095
-724.879	-125.892	-0.323	0.049
-723.864	192.897	-0.234	0.353
-722.850	210.531	0.135	-0.211
-721.835	-38.029	-0.463	-0.246
-720.821	102.605	-0.278	-0.325
-719.806	-132.332	0.262	0.034
-718.791	-88.667	0.123	-0.037
-717.777	800.000	0.107	-0.363
-716.762	-95.477	-0.273	0.073
-715.748	800.000	0.099	-0.322
-714.733	293.980	0.122	-0.224
-713.718	-90.651	0.131	-0.038
-712.704	-108.798	0.294	-0.063
-711.689	-200.000	0.017	-0.213
-710.675	-70.857	0.263	0.099
-709.660	350.128	0.079	0.155
-708.645	800.000	0.119	-0.342
-707.631	29.819	-0.066	0.056
-706.616	49.169	0.178	0.167
-705.602	135.649	0.190	0.247
-704.587	-200.000	-0.009	0.129
-703.572	63.793	-0.236	-0.237
-702.558	74.618	0.102	0.107
-701.543	-125.981	0.032	0.005
-700.529	8.765	0.069	0.052
-699.514	800.000	-0.028	-0.097
-698.499	34.286	-0.181	-0.158
-697.485	65.580	0.081	-0.082
-696.470	766.840	-0.032	-0.087
-695.456	123.338	0.170	-0.213
-694.441	-107.366	-0.346	-0.076
-693.426	230.647	0.117	-0.191
-692.412	-200.000	0.046	-0.273
-691.397	625.652	-0.028	-0.070
-690.383	9.593	0.185	-0.140
-689.368	98.138	-0.077	-0.088
-688.354	-148.139	-0.306	-0.025
-687.339	800.000	0.051	-0.150
-686.324	-127.140	-0.208	0.030
-685.310	481.460	-0.053	-0.121
-684.295	-99.091	-0.210	-0.053
-683.281	6.366	0.261	0.194
-682.266	-83.377	0.185	-0.059
-681.251	-171.099	-0.149	-0.005
-680.237	-96.404	0.297	-0.078
-679.222	-199.842	-0.150	0.001
-678.208	112.329	-0.091	0.110
-677.193	-106.793	0.263	-0.058
-676.178	457.593	-0.045	0.099
-675.164	-200.000	-0.049	0.281
-674.149	-200.000	-0.019	-0.165
-673.135	-65.442	0.380	0.152
-672.120	-158.621	-0.226	0.013
-671.105	-92.741	-0.362	-0.101
-670.091	62.382	0.044	-0.044
-669.076	-68.531	0.186	0.072
-668.062	280.291	-0.090	0.160
-667.047	123.629	-0.063	-0.078
-666.032	-119.481	0.287	0.050
-665.018	-4.301	0.236	0.163
-664.003	-5.673	0.061	-0.042
-662.989	-148.374	-0.163	0.013
-661.974	235.616	-0.055	-0.090
-660.959	198.512	0.031	-0.048
-659.945	-52.623	0.457	0.210
-658.930	-66.265	-0.313	-0.124
-657.916	-146.815	-0.090	-0.008
-656.901	390.583	0.138	-0.286
-655.886	-150.312	-0.219	-0.017
-654.872	-17.347	0.173	0.109
-653.857	-200.000	0.001	0.021
-652.843	-114.344	-0.232	0.045
-651.828	-50.750	0.084	-0.039
-650.814	-79.302	-0.320	-0.108
-649.799	800.000	0.091	0.392
-648.784	-9.574	-0.179	-0.119
-647.770	286.427	0.151	-0.272
-646.755	-19.581	-0.153	0.094
-645.741	-95.253	-0.251	-0.067
-644.726	-200.000	-0.047	-0.210
-643.711	-93.766	-0.262	0.072
-642.697	-186.441	0.136	0.002
-641.682	800.000	-0.025	-0.097
-640.668	-200.000	0.002	-0.236
-639.653	-135.455	-0.158	-0.019
-638.638	-54.675	0.261	-0.118
-637.624	-114.354	0.140	-0.027
-636.609	-8.574	-0.069	-0.046
-635.595	41.770	-0.052	0.047
-634.580	1.805	0.188	-0.135
-633.565	223.306	-0.021	-0.034
-632.551	270.072	-0.325	-0.570
-631.536	-169.532	-0.145	0.005
-630.522	147.101	-0.115	-0.154
-629.507	800.000	0.088	-0.281
-628.492	39.350	-0.203	-0.181
-627.478	-180.638	-0.301	0.006
-626.463	800.000	0.018	0.072
-625.449	-59.680	0.384	0.164
-624.434	-57.735	-0.353	0.154
-623.419	-153.754	-0.081	-0.006
-622.405	-31.890	-0.100	0.056
-621.390	-45.665	0.146	0.072
-620.376	606.289	0.158	0.392
-619.361	-130.733	-0.121	-0.016
-618.346	-47.681	-0.350	-0.169
-617.332	527.814	0.062	0.146
-616.317	-76.960	0.176	0.061
-615.303	-200.000	0.031	-0.203
-614.288	-25.687	0.350	-0.205
-613.273	2.524	0.198	-0.143
-612.259	203.084	0.182	-0.281
-611.244	109.274	-0.311	-0.371
-610.230	-123.210	0.112	-0.018
-609.215	-76.715	-0.213	-0.074
-608.201	416.358	0.104	0.221
-607.186	92.111	-0.296	-0.332
-606.171	59.243	-0.049	-0.048
-605.157	-143.966	0.131	-0.012
-604.142	-114.427	-0.234	0.045
-603.128	333.525	-0.043	-0.082
-602.113	457.752	-0.031	-0.068
-601.098	-164.641	0.246	0.011
-600.084	-171.883	0.397	-0.013
-599.069	-200.000	0.026	-0.126
-598.055	157.869	-0.098	-0.136
-597.040	-96.299	-0.154	0.041
-596.025	73.310	-0.017	0.017
-595.011	301.324	0.089	0.164
-593.996	-200.000	0.030	-0.237
-592.982	-48.299	0.122	0.059
-591.967	-163.040	-0.237	-0.011
-590.952	800.000	0.020	0.056
-589.938	800.000	0.112	-0.309
-588.923	258.964	0.194	0.332
-587.909	-79.522	0.223	-0.075
-586.894	-116.628	-0.045	0.008
-585.879	-200.000	-0.016	-0.205
-584.865	-61.237	-0.183	-0.077
-583.850	716.374	-0.054	0.141
-582.836	800.000	-0.091	0.262
-581.821	275.682	0.180	-0.317
-580.806	-122.746	0.196	0.032
-579.792	-148.819	-0.236	-0.019
-578.777	-171.323	-0.171	-0.006
-577.763	28.211	0.156	-0.131
-576.748	374.245	-0.046	0.092
-575.733	157.842	-0.330	0.455
-574.719	-200.000	0.001	0.122
-573.704	510.448	0.116	0.268
-572.690	23.947	0.222	0.182
-571.675	-147.523	-0.127	0.011
-570.661	-118.193	-0.465	-0.082
-569.646	36.136	-0.185	0.162
-568.631	-200.000	0.009	0.215
-567.617	-200.000	0.032	0.151
-566.602	78.147	-0.083	0.088
-565.588	-111.523	0.042	-0.008
-564.573	-200.000	-0.008	-0.210
-563.558	-200.000	0.032	-0.249
-562.544	92.865	-0.065	-0.073
-561.529	-118.733	-0.231	-0.040
-560.515	-118.976	-0.213	-0.037
-559.500	215.046	0.219	-0.345
-558.485	800.000	0.111	-0.372
-557.471	34.221	-0.022	-0.019
-556.456	-90.324	0.094	-0.027
-555.442	53.907	0.090	0.086
-554.427	-75.821	-0.390	0.137
-553.412	649.528	0.041	0.105
-552.398	-19.700	-0.332	-0.204
-551.383	-53.519	-0.117	-0.053
-550.369	264.451	0.113	0.196
-549.354	-30.881	0.156	0.087
-548.339	26.631	0.066	0.055
-547.325	49.759	0.219	0.205
-546.310	-180.038	0.130	0.003
-545.296	-21.956	-0.109	0.066
-544.281	-44.912	-0.123	-0.061
-543.266	-56.336	0.267	0.118
-542.252	-76.474	-0.073	0.025
-541.237	80.278	-0.152	-0.163
-540.223	247.152	0.149	0.250
-539.208	-200.000	-0.001	0.108
-538.193	-48.999	0.503	-0.239
-537.179	473.960	0.200	-0.447
-536.164	27.933	0.074	0.062
-535.150	270.954	-0.057	0.099
-534.135	-127.898	-0.372	0.053
-533.121	1.819	-0.239	0.171
-532.106	551.950	0.065	0.155
-531.091	-200.000	0.042	0.276
-530.077	325.055	-0.222	0.421
-529.062	-71.849	-0.119	-0.044
-528.048	-82.116	0.135	-0.044
-527.033	203.356	0.122	0.188
-526.018	800.000	0.032	0.108
-525.004	-83.350	-0.323	0.103
-523.989	-194.463	0.083	-0.001
-522.975	-74.254	0.168	-0.060
-521.960	42.796	0.060	-0.054
-520.945	516.262	-0.192	0.446
-519.931	60.012	0.174	-0.170
-518.916	-200.000	0.069	-0.354
-517.902	605.301	-0.152	-0.376
-516.887	424.611	0.067	0.144
-515.872	565.444	-0.025	0.061
-514.858	-82.385	-0.092	0.030
-513.843	-16.586	-0.209	-0.132
-512.829	-200.000	0.453	0.001
-511.814	255.201	0.235	-0.400
-510.799	800.000	0.064	-0.206
-509.785	178.990	0.054	-0.079
-508.770	-171.740	-0.319	0.010
-507.756	23.275	-0.254	0.207
-506.741	127.071	0.072	0.091
-505.726	46.233	0.059	-0.054
-504.712	-149.448	0.128	0.010
-503.697	-200.000	-0.016	-0.075
-502.683	120.429	0.161	0.199
-501.668	731.730	0.027	-0.072
-500.653	276.036	-0.095	-0.167
-499.639	191.778	0.081	-0.121
-498.624	-200.000	0.026	0.198
-497.610	135.001	-0.140	-0.180
-496.595	-200.000	0.010	-0.266
-495.581	-113.830	0.313	0.060
-494.566	-73.658	0.206	-0.074
-493.551	287.239	0.182	0.327
-492.537	-71.708	-0.444	-0.164
-491.522	-7.374	0.026	-0.017
-490.508	800.000	0.057	-0.190
-489.493	-84.326	-0.185	0.058
-488.478	-71.385	0.179	0.066
-487.464	800.000	-0.076	0.232
-486.449	-19.289	0.048	-0.029
-485.435	88.847	-0.044	0.048
-484.420	-41.802	-0.168	0.085
-483.405	-115.681	0.221	0.041
-482.391	497.521	-0.083	-0.190
-481.376	-200.000	-0.007	0.267
-480.362	800.000	0.132	-0.386
-479.347	168.983	-0.125	0.176
-478.332	-115.611	0.164	0.030
-477.318	-200.000	0.024	-0.179
-476.303	-200.000	-0.075	0.410
-475.289	-0.248	0.035	-0.024
-474.274	62.551	0.207	0.205
-473.259	-138.142	-0.234	0.026
-472.245	-101.110	-0.183	-0.044
-471.230	78.420	-0.084	-0.089
-470.216	-172.535	0.146	-0.005
-469.201	-15.618	-0.104	0.066
-468.186	800.000	0.057	-0.198
-467.172	-20.594	0.152	-0.092
-466.157	-111.519	-0.219	-0.044
-465.143	707.063	-0.117	0.305
-464.128	447.942	-0.087	-0.191
-463.113	486.849	-0.026	0.059
-462.099	-31.472	-0.473	0.263
-461.084	349.793	0.162	-0.317
-460.070	800.000	0.119	0.331
-459.055	-200.000	0.052	-0.271
-458.040	114.952	-0.213	-0.257
-457.026	206.551	-0.094	0.145
-456.011	-35.207	-0.064	0.035
-454.997	-22.584	-0.170	0.102
-453.982	330.568	-0.039	0.075
-452.968	-108.012	0.323	0.069
-451.953	320.950	0.092	-0.173
-450.938	-139.740	0.298	-0.031
-449.924	164.642	0.076	-0.106
-448.909	-15.354	0.075	-0.047
-447.895	548.575	0.016	0.037
-446.880	800.000	0.097	0.279
-445.865	-200.000	0.014	0.121
-444.851	218.297	-0.031	-0.049
-443.836	-45.253	0.376	0.184
-442.822	-200.000	-0.020	0.208
-441.807	-96.195	0.020	0.005
-440.792	-200.000	-0.009	0.093
-439.778	170.292	0.144	-0.204
-438.763	-200.000	0.003	-0.119
-437.749	74.282	-0.269	-0.280
-436.734	-200.000	0.000	0.005
-435.719	-200.000	-0.011	0.242
-434.705	-3.416	-0.045	0.031
-433.690	-20.438	-0.421	0.256
-432.676	-59.605	0.413	0.175
-431.661	-115.743	-0.152	0.028
-430.646	224.379	-0.245	0.392
-429.632	-56.751	-0.263	-0.115
-428.617	503.138	0.056	-0.129
-427.603	261.021	0.090	0.154
-426.588	102.423	-0.243	0.281
-425.573	381.497	0.119	-0.242
-424.559	-32.976	-0.143	0.078
-423.544	35.354	-0.120	0.104
-422.530	223.831	0.082	0.131
-421.515	-200.000	0.010	0.287
-420.500	800.000	-0.033	-0.130
-419.486	-200.000	-0.079	-0.465
-418.471	-62.827	0.185	0.076
-417.457	164.916	-0.050	-0.070
-416.442	-200.000	0.023	0.262
-415.428	218.168	-0.060	0.094
-414.413	-200.000	-0.010	0.285
-413.398	472.161	0.018	-0.039
-412.384	426.798	0.289	0.616
-411.369	68.435	-0.054	0.055
-410.355	26.229	-0.166	0.137
-409.340	174.235	-0.099	0.141
-408.325	233.122	0.237	0.386
-407.311	579.809	-0.137	0.331
-406.296	-35.309	-0.091	0.049
-405.282	121.424	-0.067	0.082
-404.267	0.408	-0.158	0.111
-403.252	527.887	-0.095	0.222
-402.238	-54.231	0.278	-0.124
-401.223	645.578	0.028	-0.072
-400.209	-114.165	0.109	0.021
-399.194	208.447	0.305	0.471
-398.179	107.659	-0.019	0.022
-397.165	-72.667	-0.094	-0.034
-396.150	-77.190	0.046	-0.016
-395.136	76.812	-0.110	0.116
-394.121	258.680	0.259	-0.440
-393.106	-200.000	-0.046	0.237
-392.092	800.000	0.069	-0.205
-391.077	-61.372	0.232	0.097
-390.063	-200.000	-0.016	-0.108
-389.048	-55.891	-0.078	0.034
-388.033	167.919	-0.119	0.166
-387.019	39.436	-0.190	-0.168
-386.004	-200.000	-0.009	-0.188
-384.990	-105.779	0.231	-0.051
-383.975	-49.302	0.102	-0.048
-382.960	800.000	-0.053	-0.206
-381.946	-200.000	-0.020	0.101
-380.931	-56.750	0.411	0.180
-379.917	-200.000	0.301	-0.000
-378.902	410.374	0.237	-0.496
-377.888	800.000	0.068	-0.220
-376.873	312.655	-0.172	0.318
-375.858	-94.978	-0.280	-0.075
-374.844	717.511	0.098	0.258
-373.829	-86.770	-0.474	-0.143
-372.815	57.076	0.092	-0.088
-371.800	140.051	-0.091	0.119
-370.785	-200.000	-0.027	-0.128
-369.771	800.000	-0.047	-0.129
-368.756	-140.806	-0.154	-0.016
-367.742	-200.000	0.015	0.418
-366.727	800.000	-0.114	0.352
-365.712	457.695	-0.065	0.143
-364.698	174.654	-0.150	-0.214
-363.683	14.920	0.121	0.093
-362.669	147.393	0.021	-0.028
-361.654	-42.808	0.042	0.021
-360.639	250.962	0.180	0.301
-359.625	631.009	-0.108	-0.271
-358.610	20.934	-0.287	0.229
-357.596	-36.847	-0.379	-0.201
-356.581	-168.691	0.119	-0.004
-355.566	-108.486	0.318	0.067
-354.552	800.000	0.049	0.179
-353.537	-34.979	-0.084	0.045
-352.523	191.894	0.080	0.120
-351.508	-40.474	-0.079	0.040
-350.493	-1.146	0.237	0.165
-349.479	-158.641	-0.033	0.002
-348.464	-200.000	-0.018	-0.135
-347.450	118.993	0.030	-0.036
-346.435	730.629	-0.055	0.144
-345.420	16.948	0.305	-0.238
-344.406	51.680	-0.086	0.080
-343.391	36.351	0.220	-0.192
-342.377	-71.743	0.032	0.012
-341.362	84.967	0.163	0.176
-340.348	-110.808	0.058	-0.012
-339.333	800.000	0.085	-0.311
-338.318	-161.711	-0.233	0.012
-337.304	-52.967	-0.132	0.060
-336.289	84.047	-0.054	-0.058
-335.275	153.486	0.075	-0.101
-334.260	-83.104	-0.305	-0.097
-333.245	-200.000	0.046	-0.336
-332.231	94.409	-0.170	-0.191
-331.216	-142.225	-0.024	0.002
-330.202	-30.697	-0.126	-0.070
-329.187	70.854	0.045	-0.046
-328.172	-60.924	0.390	0.162
-327.158	46.747	-0.108	-0.099
-326.143	-200.000	0.024	-0.102
-325.129	331.357	-0.102	0.193
-324.114	-193.295	-0.139	0.001
-323.099	240.265	0.116	-0.190
-322.085	64.956	0.169	-0.168
-321.070	21.617	0.233	-0.187
-320.056	28.718	-0.165	0.138
-319.041	171.327	-0.258	-0.364
-318.026	-101.815	0.185	-0.044
-317.012	-74.797	-0.226	-0.080
-315.997	-12.036	-0.176	0.113
-314.983	331.272	0.046	-0.087
-313.968	-147.207	-0.108	0.009
-312.953	-200.000	0.011	0.059
-311.939	439.106	0.087	0.187
-310.924	79.297	0.251	0.265
-309.910	300.623	-0.163	-0.295
-308.895	17.787	-0.380	-0.298
-307.880	-108.928	0.088	0.019
-306.866	70.258	-0.199	-0.202
-305.851	800.000	0.035	-0.139
-304.837	89.584	0.061	-0.067
-303.822	231.455	0.248	-0.399
-302.807	-200.000	0.014	-0.127
-301.793	353.459	-0.128	-0.250
-300.778	153.561	-0.016	0.022
-299.764	654.042	-0.111	-0.279
-298.749	8.274	0.282	0.209
-297.735	-200.000	-0.095	-0.495
-296.720	-78.441	-0.146	-0.049
-295.705	-200.000	0.022	-0.292
-294.691	-36.071	0.266	-0.141
-293.676	-116.657	-0.314	0.057
-292.662	284.566	-0.038	0.068
-291.647	800.000	0.049	-0.172
-290.632	-200.000	-0.005	0.419
-289.618	37.347	-0.378	0.329
-288.603	-200.000	-0.040	0.240
-287.589	-200.000	0.051	-0.310
-286.574	715.874	0.016	0.042
-285.559	800.000	-0.092	0.300
-284.545	-200.000	-0.038	-0.340
-283.530	-28.396	-0.120	0.068
-282.516	-200.000	-0.032	0.236
-281.501	174.333	0.003	-0.004
-280.486	620.359	-0.056	-0.139
-279.472	-83.523	-0.334	0.105
-278.457	320.070	-0.130	0.242
-277.443	-62.424	-0.162	0.066
-276.428	-40.398	-0.274	0.140
-275.413	23.072	0.187	0.151
-274.399	-200.000	-0.023	-0.189
-273.384	265.494	-0.195	-0.334
-272.370	11.161	0.219	0.165
-271.355	-120.859	0.087	0.014
-270.340	576.424	-0.028	0.067
-269.326	621.596	-0.137	0.339
-268.311	800.000	0.045	-0.157
-267.297	-85.310	0.387	-0.119
-266.282	41.116	-0.037	-0.033
-265.267	-200.000	0.011	-0.162
-264.253	289.922	-0.177	0.316
-263.238	-62.860	0.176	0.071
-262.224	81.815	0.126	-0.134
-261.209	-86.566	0.346	0.104
-260.195	-85.163	0.202	0.062
-259.180	-134.803	0.387	-0.046
-258.165	-200.000	0.038	-0.222
-257.151	-22.773	0.299	-0.177
-256.136	358.209	-0.044	-0.086
-255.122	434.526	0.087	-0.186
-254.107	800.000	-0.061	0.189
-253.092	-43.223	-0.394	-0.196
-252.078	-48.319	0.141	-0.067
-251.063	-5.705	0.290	-0.195
-250.049	-73.339	-0.291	-0.104
-249.034	-41.931	0.106	-0.053
-248.019	-67.559	-0.246	0.095
-247.005	-52.100	-0.282	0.128
-245.990	-63.337	-0.251	-0.101
-244.976	-76.735	-0.100	-0.034
-243.961	-0.085	-0.202	-0.141
-242.946	-111.893	0.576	-0.114
-241.932	-200.000	-0.009	-0.166
-240.917	407.328	0.123	0.254
-239.903	165.374	0.140	-0.194
-238.888	-126.531	-0.065	-0.009
-237.873	800.000	0.069	-0.233
-236.859	-19.569	0.304	-0.184
-235.844	-190.736	-0.205	-0.002
-234.830	109.265	-0.223	0.262
-233.815	-5.154	0.270	0.182
-232.800	664.044	-0.087	0.219
-231.786	-200.000	0.007	0.335
-230.771	-200.000	-0.038	0.229
-229.757	800.000	0.008	0.032
-228.742	78.303	-0.130	-0.136
-227.727	-43.808	-0.080	-0.039
-226.713	472.370	-0.172	0.380
-225.698	-200.000	0.004	-0.258
-224.684	45.516	0.312	-0.282
-223.669	-200.000	-0.017	-0.456
-222.655	15.357	0.089	0.069
-221.640	-200.000	0.041	-0.450
-220.625	242.887	0.253	0.415
-219.611	-156.467	-0.365	-0.022
-218.596	-200.000	0.028	-0.126
-217.582	-20.629	-0.251	-0.151
-216.567	499.701	0.115	-0.261
-215.552	-106.590	-0.137	-0.030
-214.538	800.000	-0.038	0.132
-213.523	-125.940	0.168	-0.025
-212.509	-200.000	0.005	-0.061
-211.494	380.964	0.058	-0.117
-210.479	-200.000	0.002	-0.008
-209.465	800.000	0.109	0.360
-208.450	-176.935	0.091	0.002
-207.436	-200.000	0.041	0.383
-206.421	-200.000	0.037	0.235
-205.406	106.400	0.089	0.103
-204.392	-200.000	0.005	-0.190
-203.377	257.750	-0.128	-0.216
-202.363	800.000	0.119	-0.392
-201.348	-60.268	-0.356	0.148
-200.333	-68.416	0.257	0.098
-199.319	-200.000	-0.027	-0.241
-198.304	-200.000	0.002	0.387
-197.290	800.000	0.072	0.212
-196.275	-200.000	-0.036	-0.248
-195.260	540.523	-0.068	0.158
-194.246	800.000	0.035	-0.144
-193.231	127.839	0.174	-0.216
-192.217	-200.000	0.047	0.337
-191.202	-112.224	0.350	0.069
-190.187	41.834	0.240	0.213
-189.173	-150.223	0.263	-0.020
-188.158	-200.000	0.006	0.158
-187.144	800.000	-0.072	-0.290
-186.129	-83.381	-0.286	-0.090
-185.114	284.949	0.103	-0.181
-184.100	800.000	-0.031	0.104
-183.085	-106.763	0.103	0.022
-182.071	245.942	-0.213	-0.352
-181.056	-75.170	0.090	0.032
-180.042	-89.566	0.325	0.093
-179.027	-61.551	0.013	0.005
-178.012	-40.967	-0.199	-0.101
-176.998	84.033	0.333	0.356
-175.983	178.133	-0.095	0.136
-174.969	726.609	-0.160	0.418
-173.954	-91.706	0.094	-0.026
-172.939	-200.000	-0.048	0.359
-171.925	24.665	-0.176	0.143
-170.910	-105.965	0.183	0.040
-169.896	4.747	0.137	0.098
-168.881	-15.327	-0.153	-0.096
-167.866	800.000	-0.047	-0.180
-166.852	-73.011	0.266	-0.096
-165.837	-54.772	-0.053	0.023
-164.823	-12.392	0.180	-0.115
-163.808	173.531	-0.042	-0.059
-162.793	772.669	0.058	0.156
-161.779	-171.147	0.310	0.010
-160.764	-200.000	-0.041	-0.180
-159.750	-5.700	-0.178	0.119
-158.735	464.950	-0.082	-0.180
-157.720	12.315	-0.351	0.265
-156.706	-47.586	0.350	0.166
-155.691	-26.981	0.193	0.110
-154.677	-3.298	-0.048	-0.033
-153.662	-55.547	0.349	0.153
-152.647	3.666	-0.139	-0.099
-151.633	-200.000	0.028	0.185
-150.618	382.030	-0.122	0.244
-149.604	195.299	0.086	-0.128
-148.589	-36.593	0.225	0.118
-147.574	67.481	-0.114	0.114
-146.560	61.238	0.275	-0.267
-145.545	-156.276	0.164	-0.010
-144.531	26.059	0.047	0.038
-143.516	154.360	0.171	-0.229
-142.502	96.188	0.192	0.214
-141.487	124.598	-0.123	0.152
-140.472	-65.170	0.144	-0.057
-139.458	-200.000	-0.046	0.269
-138.443	800.000	0.024	0.102
-137.429	75.661	-0.099	0.102
-136.414	660.741	0.153	0.385
-135.399	369.594	0.057	-0.113
-134.385	-37.668	0.311	-0.162
-133.370	-70.122	-0.152	-0.057
-132.356	800.000	-0.042	-0.115
-131.341	138.057	0.072	0.092
-130.326	6.157	-0.170	-0.123
-129.312	-34.149	0.137	-0.074
-128.297	-52.076	0.145	0.066
-127.283	-200.000	-0.006	0.165
-126.268	211.592	-0.130	-0.199
-125.253	-49.721	0.260	0.121
-124.239	-200.000	0.062	0.390
-123.224	669.317	-0.120	0.305
-122.210	-121.576	0.323	0.052
-121.195	-200.000	0.022	-0.342
-120.180	-2.578	0.074	0.051
-119.166	-103.204	0.178	-0.041
-118.151	-200.000	-0.004	0.189
-117.137	800.000	-0.026	0.112
-116.122	800.000	0.081	-0.313
-115.107	-200.000	-0.031	-0.228
-114.093	-136.073	0.215	-0.025
-113.078	55.967	0.278	-0.263
-112.064	-2.923	-0.379	0.259
-111.049	38.915	-0.143	0.125
-110.034	-200.000	0.009	0.190
-109.020	800.000	0.150	0.454
-108.005	210.267	-0.285	-0.437
-106.991	800.000	-0.051	0.180
-105.976	-200.000	0.029	0.266
-104.962	-17.643	0.328	0.201
-103.947	134.309	0.368	-0.466
-102.932	-200.000	0.020	0.283
-101.918	-200.000	-0.088	0.471
-100.903	31.573	0.105	0.088
-99.889	-115.010	0.063	0.012
-98.874	49.199	0.118	-0.108
-97.859	139.950	-0.145	-0.186
-96.845	210.645	-0.106	-0.163
-95.830	-37.720	0.191	-0.099
-94.816	44.651	0.214	0.192
-93.801	-11.963	0.138	-0.088
-92.786	-200.000	0.039	-0.463
-91.772	-140.263	0.249	-0.025
-90.757	-88.636	0.103	0.030
-89.743	138.321	0.143	0.182
-88.728	-200.000	0.015	-0.354
-87.713	76.051	0.124	-0.128
-86.699	-86.512	0.286	-0.086
-85.684	-72.815	0.087	0.031
-84.670	24.122	-0.165	0.133
-83.655	-200.000	0.037	0.255
-82.640	-126.775	-0.164	0.024
-81.626	-6.375	-0.191	-0.127
-80.611	3.756	0.124	-0.088
-79.597	57.140	-0.197	0.188
-78.582	12.857	0.236	0.178
-77.567	-200.000	0.018	0.257
-76.553	-160.649	0.320	-0.017
-75.538	-74.410	-0.129	0.045
-74.524	800.000	-0.027	-0.084
-73.509	-57.395	0.390	-0.167
-72.494	343.654	-0.156	-0.299
-71.480	15.956	-0.161	0.123
-70.465	89.793	-0.157	-0.171
-69.451	112.868	0.134	-0.159
-68.436	-6.981	-0.034	-0.023
-67.422	-6.310	-0.108	0.072
-66.407	800.000	0.106	0.296
-65.392	-92.734	-0.200	0.055
-64.378	-1.919	0.080	0.055
-63.363	-144.687	-0.143	-0.013
-62.349	274.208	0.169	0.292
-61.334	72.549	-1.017	-1.034
-60.319	394.813	0.484	0.982
-59.305	380.979	-0.528	-1.055
-58.290	281.568	0.952	1.662
-57.276	546.345	0.595	1.388
-56.261	-200.000	118.868	612.333
-55.246	408.947	1531.033	3157.595
-54.232	148.847	2680.505	3530.510
-53.217	96.404	2147.614	2393.808
-52.203	35.252	1674.188	1429.844
-51.188	28.428	1492.536	1229.083
-50.173	26.334	1468.359	1195.294
-49.159	46.972	1535.712	1390.997
-48.144	45.535	1550.157	1394.243
-47.130	28.426	1501.090	1235.916
-46.115	25.623	1485.256	1204.098
-45.100	25.391	1481.613	1199.549
-44.086	25.390	1479.854	1198.073
-43.071	25.340	1477.961	1196.156
-42.057	25.323	1476.133	1194.517
-41.042	25.250	1474.806	1192.910
-40.027	25.393	1473.129	1192.456
-39.013	25.332	1471.703	1190.849
-37.998	25.363	1470.326	1189.895
-36.984	25.328	1469.996	1189.348
-35.969	25.403	1467.930	1188.125
-34.954	25.346	1466.940	1186.900
-33.940	25.341	1465.678	1185.801
-32.925	25.316	1464.306	1184.480
-31.911	25.388	1462.964	1183.820
-30.896	25.403	1461.456	1182.648
-29.881	25.446	1460.564	1182.164
-28.867	25.469	1459.093	1181.080
-27.852	25.445	1458.060	1180.036
-26.838	25.428	1456.650	1178.738
-25.823	25.381	1455.047	1177.085
-24.809	25.398	1453.283	1175.723
-23.794	25.381	1451.954	1174.489
-22.779	25.410	1450.798	1173.697
-21.765	25.474	1449.862	1173.315
-20.750	25.419	1448.517	1171.819
-19.736	25.445	1447.357	1171.005
-18.721	25.456	1446.465	1170.307
-17.706	25.340	1445.611	1168.813
-16.692	25.419	1444.717	1168.560
-15.677	25.396	1443.680	1167.525
-14.663	25.379	1442.524	1166.432
-13.648	25.265	1442.451	1165.590
-12.633	25.292	1441.368	1164.843
-11.619	25.363	1440.236	1164.338
-10.604	25.326	1439.560	1163.510
-9.590	25.342	1438.707	1162.873
-8.575	25.308	1437.885	1161.946
-7.560	25.401	1436.725	1161.561
-6.546	25.369	1435.925	1160.662
-5.531	25.415	1434.956	1160.129
-4.517	25.330	1434.399	1159.083
-3.502	25.333	1433.098	1158.009
-2.487	25.259	1432.735	1157.194
-1.473	25.385	1431.178	1156.699
-0.458	25.392	1429.857	1155.628
0.556	23.536	1420.261	1143.317
1.571	20.226	1395.899	1102.603
2.586	16.693	1334.189	1032.264
3.600	14.919	1253.046	959.232
4.615	13.952	1209.766	920.659
5.629	12.150	1154.990	869.351
6.644	6.217	1074.721	779.529
7.659	0.993	1038.568	728.170
8.673	0.284	1033.114	720.894
9.688	0.208	1030.194	718.430
10.702	0.121	1028.562	716.812
11.717	0.097	1026.281	715.045
12.731	2.272	1027.568	726.221
13.746	8.706	1036.720	763.383
14.761	14.965	1044.032	798.665
15.775	16.931	1045.843	809.371
16.790	16.588	1044.803	806.862
17.804	15.500	1042.239	799.631
18.819	14.496	1040.983	793.818
19.834	14.184	1039.330	791.006
20.848	13.936	1038.288	788.966
21.863	13.743	1037.967	787.736
22.877	13.525	1036.964	785.871
23.892	13.258	1036.188	783.945
24.907	13.258	1034.916	782.915
25.921	13.214	1034.199	782.096
26.936	13.223	1033.934	781.866
27.950	13.204	1033.448	781.340
28.965	13.235	1032.747	780.887
29.980	13.314	1031.727	780.419
30.994	13.455	1030.198	779.862
32.009	13.479	1029.635	779.476
33.023	13.379	1029.134	778.560
34.038	13.386	1028.426	777.987
35.053	13.492	1027.309	777.569
36.067	13.361	1026.401	776.199
37.082	13.389	1025.525	775.601
38.096	13.383	1025.011	775.117
39.111	13.304	1024.347	774.175
40.126	13.437	1023.119	773.801
41.140	13.524	1021.780	773.126
42.155	13.306	1020.567	771.123
43.169	13.219	1020.598	770.674
44.184	13.244	1019.443	769.848
45.199	13.211	1018.353	768.804
46.213	13.328	1017.201	768.407
47.228	13.268	1016.538	767.561
48.242	13.388	1015.585	767.332
49.257	13.432	1014.526	766.668
50.271	13.452	1013.568	765.968
51.286	13.220	1013.299	764.621
52.301	13.214	1012.303	763.774
53.315	13.405	1011.317	763.847
54.330	13.323	1010.702	762.936
55.344	13.219	1009.748	761.669
56.359	13.318	1008.571	761.171
57.374	13.312	1007.629	760.363
58.388	13.220	1007.159	759.520
59.403	13.290	1006.280	759.109
60.417	13.256	1005.760	758.496
61.432	13.241	1004.458	757.379
62.447	13.245	1004.078	757.040
63.461	13.228	1003.372	756.364
64.476	13.153	1002.265	755.120
65.490	13.047	1001.614	754.081
66.505	13.154	1000.842	753.918
67.520	13.179	1000.282	753.547
68.534	13.205	999.111	752.713
69.549	13.170	998.675	752.159
70.563	13.267	997.642	751.758
71.578	13.256	996.541	750.809
72.593	13.306	996.040	750.593
73.607	13.132	995.375	749.238
74.622	13.133	994.302	748.368
75.636	13.048	993.725	747.481
76.651	13.116	992.728	746.973
77.666	13.151	991.967	746.494
78.680	13.092	991.148	745.543
79.695	13.227	990.746	745.785
80.709	13.096	990.365	744.840
81.724	13.304	989.055	744.725
82.739	13.273	988.441	744.062
83.753	13.330	987.531	743.566
84.768	13.392	987.065	743.425
85.782	13.336	986.332	742.559
86.797	13.387	985.646	742.206
87.812	13.420	984.856	741.692
88.826	13.331	984.174	740.712
89.841	13.290	983.273	739.787
90.855	13.410	982.225	739.468
91.870	13.459	981.460	739.045
92.884	13.349	980.979	738.129
93.899	13.435	980.311	737.943
94.914	13.565	979.311	737.705
95.928	13.523	978.800	737.065
96.943	13.580	977.999	736.654
97.957	13.445	977.042	735.268
98.972	13.451	976.473	734.798
99.987	13.415	975.704	733.996
101.001	13.464	974.946	733.578
102.016	13.521	974.232	733.230
103.030	13.405	973.469	732.078
104.045	13.478	972.600	731.682
105.060	13.492	971.915	731.163
106.074	13.507	970.523	730.117
107.089	13.445	969.664	729.132
108.103	13.274	969.333	728.068
109.118	13.237	968.479	727.198
110.133	13.243	967.249	726.239
111.147	13.316	966.451	725.895
112.162	13.447	965.385	725.603
113.176	13.301	965.092	724.680
114.191	13.440	963.700	724.178
115.206	13.388	962.886	723.274
116.220	13.460	962.192	723.004
117.235	13.343	961.688	722.050
118.249	13.382	960.554	721.303
119.264	13.221	959.916	720.060
120.279	13.355	959.033	719.916
121.293	13.528	958.073	719.887
122.308	13.320	957.748	718.675
123.322	13.308	956.632	717.723
124.337	13.348	955.615	717.068
125.352	13.446	954.403	716.520
126.366	13.249	953.500	714.927
127.381	13.309	952.500	714.371
128.395	13.313	951.703	713.731
129.410	13.274	950.718	712.760
130.424	13.492	949.329	712.590
131.439	13.349	948.673	711.421
132.454	13.273	948.280	710.738
133.468	13.408	947.345	710.555
134.483	13.436	946.857	710.246
135.497	13.383	946.100	709.385
136.512	13.358	945.218	708.554
137.527	13.426	944.519	708.260
138.541	13.430	943.581	707.513
139.556	13.318	943.216	706.698
140.570	13.403	942.290	706.302
141.585	13.550	941.500	706.277
142.600	13.566	940.844	705.791
143.614	13.505	940.039	704.863
144.629	13.489	939.535	704.354
145.643	13.574	938.628	703.975
146.658	13.511	937.696	702.943
147.673	13.555	936.803	702.399
148.687	13.586	936.000	701.867
149.702	13.543	935.173	701.003
150.716	13.394	934.495	699.801
151.731	13.480	933.662	699.481
152.746	13.492	932.634	698.698
153.760	13.639	931.676	698.539
154.775	13.612	931.393	698.148
155.789	13.626	930.713	697.638
156.804	13.695	929.552	696.996
157.819	13.720	928.856	696.517
158.833	13.620	928.221	695.561
159.848	13.665	928.138	695.626
160.862	13.784	927.079	695.267
161.877	13.763	926.519	694.701
162.892	13.553	926.033	693.394
163.906	13.551	924.784	692.390
164.921	13.688	923.895	692.234
165.935	13.634	923.040	691.306
166.950	13.672	922.202	690.778
167.964	13.536	921.664	689.747
168.979	13.596	920.500	689.065
169.994	13.683	919.521	688.633
171.008	13.692	918.646	687.952
172.023	13.658	917.820	687.131
173.037	13.762	916.864	686.788
174.052	13.786	916.653	686.666
175.067	13.814	915.339	685.738
176.081	13.785	914.822	685.171
177.096	13.776	913.717	684.246
178.110	13.679	913.486	683.612
179.125	13.694	912.799	683.100
180.140	13.753	911.861	682.580
181.154	13.692	911.529	682.018
182.169	13.782	910.973	681.911
183.183	13.859	909.765	681.262
184.198	13.883	909.409	681.034
185.213	13.901	908.765	680.569
186.227	13.944	908.145	680.219
187.242	13.930	907.820	679.859
188.256	13.907	906.888	679.004
189.271	14.021	906.140	678.850
190.286	14.068	905.431	678.452
191.300	13.939	904.822	677.411
192.315	13.693	904.417	676.044
193.329	13.780	903.442	675.609
194.344	13.787	902.657	674.992
195.359	13.707	902.380	674.398
196.373	13.948	901.693	674.803
197.388	13.959	900.870	674.173
198.402	13.985	900.632	674.041
199.417	14.111	900.207	674.174
200.432	14.208	899.578	674.034
201.446	14.154	899.423	673.644
202.461	14.276	898.817	673.624
203.475	14.247	898.601	673.282
204.490	14.253	897.845	672.682
205.504	14.250	896.881	671.888
206.519	14.277	895.993	671.270
207.534	14.272	895.272	670.653
208.548	14.179	894.589	669.705
209.563	14.088	894.228	669.013
210.577	14.207	893.106	668.591
211.592	14.168	893.078	668.356
212.607	14.153	892.168	667.553
213.621	14.262	891.764	667.629
214.636	14.323	890.998	667.243
215.650	14.182	890.190	666.014
216.665	14.298	889.677	666.033
217.680	14.389	889.218	665.994
218.694	14.215	889.147	665.186
219.709	14.480	887.893	665.246
220.723	14.508	887.296	664.855
221.738	14.519	886.247	664.054
222.753	14.420	885.846	663.302
223.767	14.406	885.099	662.624
224.782	14.456	884.544	662.350
225.796	14.467	883.773	661.758
226.811	14.596	882.771	661.462
227.826	14.496	882.618	660.890
228.840	14.464	882.105	660.322
229.855	14.352	881.559	659.410
230.869	14.488	880.715	659.261
231.884	14.553	879.707	658.703
232.899	14.472	879.028	657.815
233.913	14.506	878.460	657.466
234.928	14.671	877.667	657.466
235.942	14.548	877.218	656.588
236.957	14.418	876.315	655.341
237.972	14.451	875.777	655.013
238.986	14.600	874.926	654.902
240.001	14.503	874.385	654.060
241.015	14.519	873.750	653.589
242.030	14.527	873.145	653.108
243.045	14.564	872.406	652.643
244.059	14.568	872.034	652.322
245.074	14.716	870.912	652.002
246.088	14.616	870.872	651.526
247.103	14.721	870.130	651.321
248.117	14.758	869.266	650.763
249.132	14.758	868.805	650.359
250.147	14.790	868.522	650.214
251.161	14.884	867.607	649.838
252.176	14.895	867.184	649.506
253.190	14.932	866.510	649.088
254.205	14.989	866.099	648.945
255.220	14.912	865.233	647.940
256.234	14.986	864.515	647.630
257.249	14.985	863.961	647.153
258.263	14.985	863.493	646.744
259.278	14.885	863.030	645.958
260.293	14.973	862.589	645.907
261.307	15.096	861.546	645.543
262.322	15.254	860.725	645.479
263.336	15.145	860.763	645.032
264.351	15.209	859.935	644.602
265.366	15.246	859.241	644.167
266.380	15.207	858.749	643.590
267.395	15.329	858.006	643.446
268.409	15.197	857.310	642.359
269.424	15.148	856.511	641.517
270.439	15.297	855.906	641.576
271.453	15.146	855.373	640.544
272.468	15.268	854.447	640.260
273.482	15.184	854.167	639.672
274.497	15.208	853.668	639.334
275.512	15.303	852.566	638.814
276.526	15.298	851.857	638.207
277.541	15.223	851.500	637.595
278.555	15.344	851.069	637.679
279.570	15.427	850.148	637.248
280.585	15.446	849.883	637.065
281.599	15.502	849.036	636.585
282.614	15.377	848.739	635.832
283.628	15.468	848.100	635.643
284.643	15.487	847.565	635.258
285.657	15.382	846.982	634.365
286.672	15.369	846.755	634.093
287.687	15.408	846.059	633.660
288.701	15.494	845.727	633.683
289.716	15.403	845.022	632.751
290.730	15.326	844.670	632.146
291.745	15.430	844.170	632.106
292.760	15.514	842.826	631.359
293.774	15.716	842.172	631.570
294.789	15.649	841.928	631.082
295.803	15.525	841.384	630.152
296.818	15.642	840.630	629.971
297.833	15.669	839.830	629.416
298.847	15.692	839.204	628.977
299.862	15.601	838.999	628.428
300.876	15.521	838.448	627.659
301.891	15.706	837.564	627.635
302.906	15.742	837.071	627.343
303.920	15.734	836.028	626.477
304.935	15.864	835.707	626.663
305.949	15.814	835.171	626.022
306.964	15.748	834.974	625.572
307.979	15.755	833.974	624.793
308.993	15.833	833.259	624.492
310.008	15.936	832.533	624.273
311.022	15.896	832.364	623.946
312.037	15.785	831.677	622.964
313.052	16.050	831.162	623.503
314.066	15.927	830.549	622.532
315.081	15.757	830.260	621.633
316.095	15.937	829.215	621.460
317.110	15.957	829.004	621.321
318.125	15.953	828.047	620.533
319.139	15.892	827.837	620.098
320.154	15.888	827.403	619.704
321.168	15.950	826.854	619.464
322.183	15.961	826.343	619.067
323.197	16.027	825.617	618.710
324.212	16.098	825.346	618.714
325.227	16.125	824.515	618.136
326.241	16.136	824.264	617.932
327.256	16.040	823.650	617.065
328.270	15.909	823.401	616.344
329.285	16.149	822.626	616.589
330.300	15.994	822.078	615.558
331.314	16.059	821.522	615.322
332.329	15.962	820.769	614.351
333.343	16.018	819.992	613.918
334.358	16.167	819.664	614.160
335.373	16.156	819.323	613.811
336.387	16.125	818.822	613.269
337.402	16.184	818.300	613.038
338.416	16.325	817.220	612.687
339.431	16.225	817.087	612.169
340.446	16.241	816.453	611.700
341.460	16.303	816.300	611.756
342.475	16.436	815.221	611.371
343.489	16.500	814.558	611.054
344.504	16.458	814.267	610.627
345.519	16.464	813.854	610.285
346.533	16.498	813.219	609.879
347.548	16.407	812.752	609.147
348.562	16.437	812.384	608.927
349.577	16.290	811.790	607.896
350.592	16.433	811.125	607.858
351.606	16.486	810.774	607.732
352.621	16.381	810.595	607.169
353.635	16.455	810.044	606.967
354.650	16.334	809.626	606.168
355.665	16.429	808.638	605.715
356.679	16.491	808.562	605.826
357.694	16.590	807.839	605.586
358.708	16.646	807.209	605.258
359.723	16.465	807.203	604.554
360.738	16.547	806.248	604.077
361.752	16.637	805.604	603.863
362.767	16.545	805.776	603.610
363.781	16.732	805.233	603.817
364.796	16.718	804.400	603.088
365.810	16.712	804.176	602.844
366.825	16.686	803.920	602.507
367.840	16.710	803.359	602.120
368.854	16.792	803.227	602.258
369.869	16.809	802.563	601.767
370.883	16.785	802.128	601.304
371.898	16.916	801.270	601.071
372.913	16.879	801.005	600.689
373.927	16.807	800.491	599.995
374.942	16.875	799.645	599.547
375.956	16.895	799.117	599.169
376.971	16.960	798.470	598.861
377.986	16.968	798.198	598.634
379.000	17.078	797.425	598.388
380.015	17.126	797.097	598.257
381.029	17.099	796.456	597.630
382.044	17.023	795.846	596.850
383.059	17.085	795.281	596.592
384.073	16.978	795.163	596.076
385.088	17.135	794.387	595.990
386.102	17.261	793.263	595.537
387.117	16.953	793.239	594.386
388.132	16.976	793.105	594.314
389.146	17.047	792.387	593.972
390.161	17.093	791.886	593.706
391.175	17.066	791.708	593.426
392.190	17.241	791.174	593.583
393.205	17.165	790.827	593.006
394.219	17.230	790.593	593.003
395.234	17.221	789.730	592.273
396.248	17.075	789.405	591.468
397.263	17.126	788.703	591.069
398.278	17.091	788.410	590.673
399.292	17.079	787.681	590.035
400.307	17.045	787.600	589.801
401.321	17.093	787.316	589.706
402.336	17.197	786.688	589.541
403.350	17.140	786.829	589.398
404.365	17.270	786.355	589.443
405.380	17.305	785.710	589.027
406.394	17.297	785.445	588.748
407.409	17.412	784.744	588.568
408.423	17.318	784.358	587.902
409.438	17.401	783.843	587.751
410.453	17.463	783.577	587.715
411.467	17.576	782.836	587.496
412.482	17.461	782.368	586.698
413.496	17.486	782.234	586.629
414.511	17.640	781.668	586.684
415.526	17.551	781.386	586.114
416.540	17.548	781.358	586.033
417.555	17.472	781.105	585.530
418.569	17.485	780.192	584.838
419.584	17.611	779.736	584.876
420.599	17.547	779.396	584.349
421.613	113.716	1294.780	1483.738
422.628	97.476	1369.829	1483.818
