DTS Sentinel unit serial number:	SN413079Multiplexer serial number:	ORYXHardware model number:	OX4-SRSoftware version number:	ORYX F/W v4.00 Oryx Data Collector v3.7.2.0data status	okinstallation	princeton_trtdifferential loss correction	single-endedforward channel	channel 3reverse channel	N/Adate	2019/09/14time	18:28:35forward acquisition time	60.00reverse acquisition time	0.00gamma	496.2192k internal	0.2302k external	0.2302temperature offset calibration	1.0019default loss term (dB/km)	0.3790temperature slope calibration	1.0000multiplexer offset coefficient	1.0000multiplexer slope coefficient	1.0000fibre end	0.00T internal ref (°C)	36.66T ext. ref 1 (°C)	4.93T ext. ref 2 (°C)	30.49length (m)	temperature (°C)	Stokes	anti-Stokes-747.200	800.000	-0.055	-0.200
-746.185	222.850	0.100	0.164
-745.171	-68.616	0.240	-0.095
-744.156	-18.523	0.149	0.094
-743.142	29.046	0.092	-0.080
-742.127	800.000	-0.037	0.156
-741.112	228.011	-0.081	0.135
-740.098	-130.168	-0.108	-0.015
-739.083	317.690	-0.154	-0.297
-738.069	-96.716	0.054	0.015
-737.054	-64.302	-0.147	0.061
-736.039	53.806	-0.313	0.306
-735.025	526.861	-0.110	-0.264
-734.010	-87.703	-0.162	-0.050
-732.996	493.644	-0.155	-0.361
-731.981	-139.477	0.269	0.029
-730.966	374.796	0.015	0.030
-729.952	-200.000	0.022	0.168
-728.937	-78.931	-0.359	-0.125
-727.923	-133.762	-0.181	-0.023
-726.908	520.823	-0.022	0.053
-725.894	419.993	-0.168	0.366
-724.879	-107.584	-0.321	0.072
-723.864	393.959	0.130	-0.276
-722.850	387.787	0.151	0.317
-721.835	54.928	0.075	-0.074
-720.821	130.711	0.206	-0.269
-719.806	-200.000	-0.016	0.224
-718.791	-12.180	0.212	0.141
-717.777	591.838	-0.051	0.128
-716.762	-75.950	-0.611	0.220
-715.748	204.918	0.084	-0.133
-714.733	750.339	0.009	-0.026
-713.718	19.756	-0.045	-0.037
-712.704	133.496	-0.061	0.080
-711.689	-124.283	-0.171	0.027
-710.675	800.000	0.058	-0.201
-709.660	-62.249	0.148	0.063
-708.645	8.778	-0.294	-0.225
-707.631	233.635	0.177	-0.297
-706.616	379.710	0.090	0.187
-705.602	671.550	0.054	0.142
-704.587	800.000	0.056	-0.208
-703.572	54.975	0.209	-0.205
-702.558	-19.661	-0.173	0.109
-701.543	800.000	-0.061	0.209
-700.529	-176.116	-0.104	-0.003
-699.514	-200.000	0.025	0.268
-698.499	-112.637	-0.089	-0.018
-697.485	248.730	-0.068	-0.117
-696.470	-135.010	0.052	-0.006
-695.456	-200.000	0.030	0.155
-694.441	-200.000	-0.070	-0.322
-693.426	-11.523	-0.101	-0.068
-692.412	800.000	0.090	-0.360
-691.397	800.000	0.142	-0.605
-690.383	24.360	0.281	-0.236
-689.368	-114.106	0.287	-0.057
-688.354	-174.779	0.200	-0.006
-687.339	613.127	0.026	-0.067
-686.324	-116.346	-0.106	-0.020
-685.310	-200.000	-0.051	-0.307
-684.295	185.338	0.189	-0.285
-683.281	-200.000	0.019	-0.263
-682.266	146.305	-0.120	0.164
-681.251	-149.353	0.099	0.008
-680.237	-173.799	-0.419	0.013
-679.222	800.000	-0.050	-0.150
-678.208	47.829	-0.033	-0.031
-677.193	-41.922	-0.191	-0.100
-676.178	-142.550	0.215	-0.021
-675.164	5.614	-0.162	-0.122
-674.149	-130.913	-0.318	0.043
-673.135	-200.000	-0.010	0.107
-672.120	-38.949	0.225	0.121
-671.105	-200.000	-0.002	0.344
-670.091	68.069	0.114	-0.119
-669.076	435.277	-0.097	0.214
-668.062	-100.156	-0.320	0.081
-667.047	-22.307	0.323	-0.199
-666.032	-194.931	-0.184	-0.001
-665.018	-71.284	0.339	-0.129
-664.003	-186.089	-0.127	-0.002
-662.989	759.320	-0.058	0.160
-661.974	-153.063	0.141	-0.010
-660.959	-76.133	0.314	-0.113
-659.945	277.226	0.105	-0.190
-658.930	420.009	-0.068	0.148
-657.916	-0.445	0.107	0.077
-656.901	-60.945	-0.107	-0.046
-655.886	-200.000	0.058	0.316
-654.872	83.478	-0.151	-0.167
-653.857	638.147	-0.107	-0.277
-652.843	-200.000	0.047	0.303
-651.828	249.804	0.050	-0.086
-650.814	-32.753	0.073	0.041
-649.799	-138.854	-0.649	-0.072
-648.784	-6.413	-0.265	-0.184
-647.770	-134.628	-0.149	-0.018
-646.755	93.480	0.024	-0.028
-645.741	296.592	0.111	-0.206
-644.726	-200.000	-0.028	-0.224
-643.711	800.000	-0.026	0.091
-642.697	343.471	0.016	0.031
-641.682	381.043	0.112	-0.234
-640.668	694.361	-0.051	0.135
-639.653	-14.660	-0.210	-0.137
-638.638	-39.988	0.077	-0.041
-637.624	-18.646	0.399	-0.253
-636.609	-200.000	-0.035	-0.164
-635.595	800.000	0.142	0.444
-634.580	-66.718	-0.170	0.068
-633.565	39.999	0.136	-0.124
-632.551	-4.640	0.116	-0.081
-631.536	205.108	-0.058	0.091
-630.522	94.330	0.066	0.076
-629.507	200.702	-0.095	0.148
-628.492	800.000	0.050	-0.218
-627.478	405.488	-0.103	-0.220
-626.463	-87.727	0.008	0.003
-625.449	-200.000	-0.011	-0.455
-624.434	117.683	-0.096	-0.120
-623.419	554.163	0.064	0.156
-622.405	-94.345	-0.179	0.050
-621.390	-9.342	-0.110	0.075
-620.376	278.512	-0.110	0.199
-619.361	-200.000	-0.001	0.144
-618.346	800.000	0.085	0.242
-617.332	68.533	-0.096	-0.100
-616.317	191.136	0.148	-0.225
-615.303	-149.071	-0.503	0.041
-614.288	494.589	-0.084	-0.195
-613.273	-147.223	0.224	0.019
-612.259	46.662	0.289	-0.272
-611.244	54.412	-0.071	-0.070
-610.230	51.060	-0.074	-0.071
-609.215	800.000	0.104	0.314
-608.201	-162.390	0.209	-0.011
-607.186	-100.023	0.483	-0.122
-606.171	-109.005	-0.071	0.015
-605.157	-149.024	-0.501	0.041
-604.142	186.634	0.222	0.335
-603.128	-14.901	-0.321	0.209
-602.113	157.814	0.074	-0.104
-601.098	800.000	-0.136	-0.385
-600.084	-118.080	-0.224	-0.040
-599.069	77.553	0.133	0.143
-598.055	245.118	0.107	0.182
-597.040	414.446	0.074	-0.160
-596.025	-151.961	-0.152	-0.011
-595.011	-64.281	-0.313	-0.129
-593.996	573.054	0.029	0.072
-592.982	-124.374	-0.278	0.044
-591.967	241.591	0.145	-0.245
-590.952	62.060	0.279	-0.281
-589.938	236.132	0.082	-0.138
-588.923	254.012	-0.062	-0.107
-587.909	-89.954	0.296	0.087
-586.894	32.048	0.126	0.110
-585.879	800.000	0.051	-0.221
-584.865	664.687	-0.108	0.283
-583.850	-200.000	-0.003	0.126
-582.836	-125.572	-0.089	-0.014
-581.821	62.375	0.153	-0.155
-580.806	185.944	-0.160	-0.240
-579.792	-200.000	0.018	0.349
-578.777	-21.148	-0.228	-0.141
-577.763	-55.466	0.090	-0.041
-576.748	-171.728	0.188	0.006
-575.733	287.201	-0.161	0.294
-574.719	-200.000	0.020	0.390
-573.704	142.249	-0.199	-0.267
-572.690	-77.030	0.221	0.078
-571.675	-200.000	0.000	0.006
-570.661	-48.883	-0.038	-0.018
-569.646	-59.626	-0.207	0.090
-568.631	-60.754	-0.132	0.056
-567.617	110.578	-0.157	0.191
-566.602	43.617	-0.195	0.181
-565.588	478.219	0.109	-0.250
-564.573	207.092	0.089	0.141
-563.558	800.000	0.049	-0.184
-562.544	-14.523	0.252	-0.164
-561.529	-127.813	0.271	-0.040
-560.515	91.021	0.128	-0.146
-559.500	-29.082	-0.174	-0.101
-558.485	220.220	-0.143	0.232
-557.471	16.307	0.139	0.111
-556.456	-31.404	-0.135	0.077
-555.442	-20.309	-0.248	-0.155
-554.427	-124.229	-0.259	-0.041
-553.412	378.920	0.073	-0.152
-552.398	-49.091	-0.213	0.103
-551.383	112.380	-0.082	-0.100
-550.369	-57.196	0.384	-0.171
-549.354	251.711	-0.260	-0.447
-548.339	-33.082	-0.213	0.119
-547.325	-37.606	0.574	0.309
-546.310	-111.083	-0.316	0.066
-545.296	31.405	-0.025	0.022
-544.281	116.522	-0.110	-0.137
-543.266	-117.175	-0.517	-0.095
-542.252	417.507	0.062	0.133
-541.237	-129.892	0.130	-0.018
-540.223	182.254	0.185	-0.276
-539.208	101.640	-0.134	-0.158
-538.193	-7.336	-0.406	-0.278
-537.179	800.000	-0.121	-0.348
-536.164	-200.000	-0.031	0.227
-535.150	-90.946	-0.043	0.013
-534.135	130.834	0.084	-0.109
-533.121	-146.658	-0.364	0.032
-532.106	-94.187	-0.252	0.070
-531.091	-55.296	-0.213	-0.097
-530.077	555.953	-0.050	0.121
-529.062	-32.034	0.142	0.080
-528.048	800.000	0.028	-0.103
-527.033	-26.497	-0.203	0.120
-526.018	150.414	0.166	-0.227
-525.004	-18.165	-0.148	0.093
-523.989	195.801	0.174	0.268
-522.975	-3.814	0.145	0.102
-521.960	-200.000	-0.014	-0.117
-520.945	12.590	0.123	0.096
-519.931	-200.000	0.020	0.165
-518.916	-129.314	0.059	0.008
-517.902	-189.909	-0.160	0.002
-516.887	-57.710	0.210	0.093
-515.872	106.265	0.020	-0.024
-514.858	-125.971	-0.316	-0.048
-513.843	-200.000	-0.063	0.286
-512.829	-200.000	-0.002	-0.308
-511.814	116.811	0.123	-0.153
-510.799	1.522	-0.202	-0.147
-509.785	671.589	-0.087	0.227
-508.770	616.477	-0.066	0.167
-507.756	-5.536	-0.139	-0.096
-506.741	-200.000	-0.022	0.247
-505.726	-24.811	0.291	0.175
-504.712	110.378	0.065	-0.079
-503.697	16.149	-0.257	-0.205
-502.683	237.572	-0.102	-0.170
-501.668	-156.085	0.153	-0.010
-500.653	-165.474	0.252	0.011
-499.639	241.285	-0.065	0.109
-498.624	-200.000	0.023	0.497
-497.610	-200.000	0.036	0.309
-496.595	52.261	-0.104	0.100
-495.581	800.000	-0.071	-0.201
-494.566	84.181	0.252	-0.278
-493.551	46.493	-0.113	0.106
-492.537	-76.044	-0.154	0.055
-491.522	-200.000	-0.021	0.425
-490.508	-92.070	0.126	0.036
-489.493	-200.000	-0.013	-0.149
-488.478	267.257	0.035	0.061
-487.464	-114.960	0.329	0.063
-486.449	-94.286	0.372	0.102
-485.435	800.000	0.070	-0.231
-484.420	352.530	0.088	0.176
-483.405	-200.000	0.001	0.053
-482.391	800.000	0.025	-0.110
-481.376	-94.303	0.034	0.009
-480.362	-200.000	-0.021	-0.147
-479.347	83.155	0.297	-0.326
-478.332	-104.591	0.198	0.046
-477.318	-103.725	-0.057	-0.013
-476.303	145.351	-0.341	0.460
-475.289	-86.998	0.118	0.036
-474.274	800.000	-0.042	0.172
-473.259	764.728	0.050	-0.136
-472.245	-112.889	0.304	-0.061
-471.230	-35.583	-0.329	0.180
-470.216	800.000	-0.079	-0.273
-469.201	-123.612	0.200	0.032
-468.186	800.000	0.062	-0.178
-467.172	284.630	0.067	-0.122
-466.157	-156.347	-0.315	-0.020
-465.143	42.916	-0.226	0.208
-464.128	-200.000	-0.014	0.105
-463.113	351.751	-0.065	0.130
-462.099	-49.869	0.308	-0.148
-461.084	-17.690	0.236	-0.149
-460.070	685.544	-0.048	-0.126
-459.055	-200.000	-0.007	0.039
-458.040	-27.044	0.220	-0.129
-457.026	-113.594	-0.370	-0.073
-456.011	18.288	0.065	-0.052
-454.997	-123.640	0.165	0.026
-453.982	64.259	-0.265	-0.269
-452.968	10.540	-0.046	-0.035
-451.953	-88.837	0.140	-0.042
-450.938	800.000	-0.022	0.069
-449.924	65.059	-0.047	-0.048
-448.909	-84.074	0.404	-0.129
-447.895	-32.997	-0.163	-0.091
-446.880	258.318	-0.201	0.348
-445.865	-36.121	-0.153	0.083
-444.851	-108.965	0.003	0.001
-443.836	130.603	0.137	0.177
-442.822	-165.444	-0.112	0.005
-441.807	41.926	-0.294	0.268
-440.792	70.567	-0.222	0.232
-439.778	106.689	0.172	0.206
-438.763	61.133	-0.317	-0.317
-437.749	-99.363	0.071	-0.018
-436.734	-200.000	-0.022	0.148
-435.719	263.910	-0.114	-0.199
-434.705	-64.799	0.229	0.093
-433.690	-38.032	-0.221	0.118
-432.676	-71.549	0.091	0.034
-431.661	-200.000	0.003	-0.209
-430.646	-200.000	-0.012	-0.079
-429.632	-138.379	0.289	0.032
-428.617	-165.616	0.162	-0.007
-427.603	129.300	0.083	0.107
-426.588	77.985	-0.187	0.201
-425.573	556.993	0.116	0.282
-424.559	-94.499	0.180	-0.049
-423.544	-3.836	0.099	0.069
-422.530	-47.017	0.124	-0.061
-421.515	-30.247	0.068	0.039
-420.500	-200.000	-0.003	0.141
-419.486	105.637	0.261	-0.310
-418.471	-113.920	0.432	-0.084
-417.457	-200.000	-0.001	-0.086
-416.442	-93.449	-0.066	-0.018
-415.428	-29.423	0.272	0.156
-414.413	35.787	0.348	-0.308
-413.398	-147.753	-0.382	-0.032
-412.384	195.205	0.205	-0.313
-411.369	-98.393	-0.334	0.086
-410.355	-200.000	-0.034	0.334
-409.340	627.672	-0.099	0.253
-408.325	11.396	-0.190	-0.146
-407.311	-200.000	0.013	0.148
-406.296	417.998	0.035	0.076
-405.282	182.502	0.129	0.191
-404.267	-200.000	-0.088	0.000
-403.252	110.588	-0.127	-0.154
-402.238	185.037	0.250	0.373
-401.223	330.401	-0.122	0.237
-400.209	-108.010	-0.205	0.045
-399.194	-68.358	0.147	0.058
-398.179	-71.454	0.356	-0.134
-397.165	-20.336	-0.123	0.076
-396.150	-90.469	-0.247	0.072
-395.136	-200.000	-0.010	-0.243
-394.121	-93.802	0.194	0.054
-393.106	184.841	0.045	0.066
-392.092	-143.471	-0.143	0.014
-391.077	-200.000	0.034	-0.176
-390.063	-125.393	0.317	-0.049
-389.048	-123.107	0.271	0.044
-388.033	-78.565	0.224	-0.077
-387.019	5.489	-0.214	0.159
-386.004	16.698	0.092	0.073
-384.990	-65.628	0.029	0.012
-383.975	12.000	0.077	-0.060
-382.960	800.000	-0.075	-0.235
-381.946	-94.272	0.270	-0.074
-380.931	-10.456	-0.242	-0.161
-379.917	-72.076	-0.142	-0.053
-378.902	-145.082	-0.015	-0.001
-377.888	-4.946	-0.168	0.116
-376.873	263.798	0.159	-0.277
-375.858	800.000	-0.097	-0.394
-374.844	800.000	-0.104	-0.318
-373.829	429.592	-0.030	0.066
-372.815	9.025	0.192	0.145
-371.800	51.640	0.096	-0.092
-370.785	61.294	0.185	-0.185
-369.771	647.542	-0.118	-0.303
-368.756	-200.000	-0.033	-0.225
-367.742	-155.187	0.135	-0.009
-366.727	-200.000	-0.055	0.269
-365.712	-200.000	0.022	-0.130
-364.698	80.477	-0.236	0.256
-363.683	455.921	0.090	0.201
-362.669	-113.564	-0.404	-0.079
-361.654	60.082	-0.071	0.070
-360.639	227.796	0.140	0.228
-359.625	-52.300	-0.353	0.164
-358.610	203.065	-0.046	-0.071
-357.596	-1.198	-0.227	0.161
-356.581	41.654	0.164	0.149
-355.566	-33.266	-0.069	0.038
-354.552	-60.843	0.126	0.053
-353.537	-171.693	0.250	-0.008
-352.523	-26.886	0.047	0.027
-351.508	17.785	0.174	0.139
-350.493	800.000	0.009	-0.028
-349.479	-175.327	0.117	-0.003
-348.464	412.839	-0.075	-0.160
-347.450	-81.615	-0.172	0.057
-346.435	-200.000	-0.038	0.188
-345.420	179.631	0.217	0.319
-344.406	90.541	-0.007	-0.008
-343.391	67.665	-0.016	-0.016
-342.377	-120.728	0.242	0.041
-341.362	-54.149	-0.211	0.096
-340.348	176.238	0.269	-0.392
-339.333	107.758	-0.067	0.080
-338.318	800.000	0.040	0.170
-337.304	706.249	-0.034	-0.090
-336.289	-200.000	0.023	0.225
-335.275	-41.747	0.214	-0.110
-334.260	-200.000	0.000	-0.026
-333.245	-200.000	-0.003	0.072
-332.231	-200.000	0.013	0.216
-331.216	-34.285	0.082	0.045
-330.202	-200.000	0.030	-0.231
-329.187	-125.177	-0.191	0.029
-328.172	800.000	-0.032	-0.109
-327.158	-73.591	0.126	-0.046
-326.143	-7.056	0.135	0.092
-325.129	5.544	-0.288	-0.213
-324.114	-20.678	0.365	0.225
-323.099	290.200	-0.115	0.210
-322.085	-128.591	0.056	-0.008
-321.070	-51.426	0.187	-0.088
-320.056	-51.153	-0.194	-0.091
-319.041	-7.315	0.284	-0.193
-318.026	225.379	0.164	-0.266
-317.012	-200.000	0.003	-0.308
-315.997	-200.000	0.001	-0.077
-314.983	-1.701	-0.264	-0.186
-313.968	800.000	0.084	0.262
-312.953	-77.398	-0.162	-0.056
-311.939	-200.000	0.033	0.338
-310.924	112.506	0.088	-0.106
-309.910	143.239	-0.140	-0.186
-308.895	-200.000	-0.022	0.196
-307.880	-200.000	-0.043	0.190
-306.866	800.000	-0.049	0.142
-305.851	70.444	-0.153	0.158
-304.837	147.862	0.177	-0.239
-303.822	-69.870	0.037	-0.014
-302.807	61.080	-0.228	0.226
-301.793	9.339	-0.176	-0.133
-300.778	-148.490	0.440	0.036
-299.764	-66.297	0.084	-0.033
-298.749	380.858	-0.088	0.180
-297.735	-174.005	0.116	-0.003
-296.720	228.423	0.057	0.094
-295.705	225.425	-0.029	-0.046
-294.691	734.707	0.129	0.345
-293.676	294.705	-0.073	-0.133
-292.662	-42.571	-0.176	0.090
-291.647	24.107	-0.130	-0.108
-290.632	-97.365	-0.129	0.034
-289.618	-92.229	-0.277	-0.078
-288.603	-162.162	-0.223	0.011
-287.589	-200.000	0.012	0.190
-286.574	-41.331	0.323	-0.167
-285.559	201.660	-0.073	-0.113
-284.545	-200.000	0.005	-0.094
-283.530	191.937	0.197	0.297
-282.516	312.891	-0.046	0.086
-281.501	307.959	0.196	-0.366
-280.486	107.345	-0.126	-0.150
-279.472	-200.000	0.057	-0.280
-278.457	88.383	-0.062	0.069
-277.443	-3.851	-0.159	0.110
-276.428	-200.000	0.014	0.292
-275.413	-200.000	-0.029	0.154
-274.399	-118.125	-0.238	-0.043
-273.384	800.000	0.086	0.362
-272.370	-59.805	0.058	-0.025
-271.355	655.389	-0.081	-0.209
-270.340	233.360	0.121	-0.198
-269.326	359.263	0.111	-0.222
-268.311	-86.557	-0.154	-0.047
-267.297	-71.589	-0.329	0.123
-266.282	357.407	-0.154	-0.307
-265.267	274.970	0.115	0.204
-264.253	800.000	0.093	-0.305
-263.238	-136.144	-0.248	0.029
-262.224	-15.669	0.210	0.134
-261.209	-200.000	-0.049	0.223
-260.195	57.405	0.262	0.256
-259.180	-168.854	-0.315	0.012
-258.165	-0.266	-0.340	-0.242
-257.151	-94.435	-0.388	0.106
-256.136	-10.316	-0.099	0.066
-255.122	-151.157	0.221	-0.017
-254.107	-125.683	-0.271	0.041
-253.092	-156.736	-0.099	-0.006
-252.078	109.813	0.238	0.285
-251.063	-200.000	0.044	0.237
-250.049	720.625	0.136	0.363
-249.034	-57.686	0.195	-0.085
-248.019	-27.950	0.044	0.025
-247.005	-46.924	0.169	0.083
-245.990	-0.967	-0.139	0.098
-244.976	-182.032	0.133	-0.003
-243.961	-86.637	0.165	0.051
-242.946	-21.396	0.273	0.166
-241.932	-89.896	0.286	-0.084
-240.917	629.889	0.159	0.402
-239.903	-200.000	0.016	0.086
-238.888	12.040	-0.155	0.119
-237.873	-68.139	0.288	-0.112
-236.859	153.340	-0.149	0.203
-235.844	366.636	-0.119	0.240
-234.830	242.260	-0.054	-0.091
-233.815	321.863	0.096	-0.183
-232.800	-95.051	0.130	-0.035
-231.786	-82.331	0.223	0.072
-230.771	15.237	0.083	-0.065
-229.757	113.047	-0.084	0.102
-228.742	134.982	-0.087	-0.113
-227.727	-200.000	0.007	-0.131
-226.713	-43.418	0.103	-0.052
-225.698	-109.580	0.139	-0.029
-224.684	45.758	0.078	-0.072
-223.669	555.009	-0.054	-0.130
-222.655	717.510	0.094	0.249
-221.640	-45.995	-0.198	-0.097
-220.625	-106.900	-0.280	0.062
-219.611	1.515	-0.085	0.061
-218.596	800.000	0.019	0.053
-217.582	103.260	0.062	-0.073
-216.567	310.854	0.070	-0.131
-215.552	611.924	-0.138	0.345
-214.538	-200.000	0.002	-0.051
-213.523	-200.000	-0.018	-0.251
-212.509	146.184	-0.138	-0.185
-211.494	-83.636	-0.072	0.023
-210.479	5.807	0.295	0.218
-209.465	800.000	-0.052	-0.154
-208.450	3.284	0.191	-0.138
-207.436	383.861	-0.089	-0.183
-206.421	-138.849	0.111	0.012
-205.406	-200.000	0.031	0.376
-204.392	-180.121	-0.098	-0.002
-203.377	33.670	-0.080	0.070
-202.363	48.549	-0.101	0.094
-201.348	608.918	0.118	0.293
-200.333	-200.000	0.009	-0.089
-199.319	-200.000	0.080	-0.372
-198.304	-200.000	-0.068	-0.504
-197.290	204.493	0.092	0.142
-196.275	-24.233	-0.202	0.120
-195.260	110.840	0.256	-0.307
-194.246	-200.000	0.004	-0.031
-193.231	77.658	0.160	-0.169
-192.217	-200.000	0.019	0.131
-191.202	782.637	-0.037	0.100
-190.187	-200.000	-0.015	0.377
-189.173	169.262	0.239	-0.340
-188.158	53.624	0.202	-0.193
-187.144	322.146	-0.154	0.292
-186.129	-19.591	-0.178	-0.110
-185.114	-200.000	-0.008	0.149
-184.100	-70.285	-0.237	0.090
-183.085	50.449	0.161	-0.152
-182.071	-10.224	0.158	0.105
-181.056	358.879	0.096	-0.191
-180.042	-99.607	0.049	-0.012
-179.027	-113.369	0.234	-0.046
-178.012	-200.000	-0.015	-0.113
-176.998	343.152	0.177	-0.346
-175.983	77.081	0.099	-0.105
-174.969	93.485	-0.133	0.151
-173.954	-32.628	0.109	-0.060
-172.939	-106.936	0.066	-0.014
-171.925	-124.343	0.173	-0.027
-170.910	-86.373	0.024	-0.007
-169.896	-139.477	-0.214	0.023
-168.881	40.082	-0.036	-0.032
-167.866	-97.167	-0.121	0.032
-166.852	-200.000	-0.021	-0.112
-165.837	-175.888	0.335	-0.009
-164.823	-139.394	0.322	0.034
-163.808	-200.000	0.004	-0.290
-162.793	-99.578	-0.133	-0.033
-161.779	-66.959	-0.075	-0.029
-160.764	800.000	-0.123	-0.406
-159.750	57.460	-0.209	0.204
-158.735	-66.479	0.344	0.136
-157.720	-200.000	0.002	0.286
-156.706	-134.389	-0.246	-0.030
-155.691	397.859	-0.086	-0.180
-154.677	-75.645	-0.417	0.147
-153.662	-58.327	-0.238	0.103
-152.647	-84.460	-0.065	-0.021
-151.633	-13.371	0.193	-0.125
-150.618	-31.173	-0.106	-0.059
-149.604	-200.000	-0.002	-0.053
-148.589	800.000	-0.070	-0.260
-147.574	-76.704	0.313	-0.109
-146.560	-200.000	0.004	0.197
-145.545	-92.891	0.100	0.028
-144.531	64.484	0.160	0.160
-143.516	18.776	0.211	-0.168
-142.502	476.965	-0.046	-0.103
-141.487	402.696	0.025	0.053
-140.472	-46.674	0.057	-0.028
-139.458	-28.918	0.046	-0.026
-138.443	-200.000	0.017	-0.227
-137.429	800.000	0.057	-0.176
-136.414	194.558	-0.077	-0.115
-135.399	-192.878	0.214	0.002
-134.385	243.006	0.172	0.287
-133.370	7.334	-0.191	-0.142
-132.356	126.759	0.181	-0.228
-131.341	-65.622	0.150	0.060
-130.326	-75.983	-0.275	0.097
-129.312	-172.736	-0.257	-0.008
-128.297	-200.000	-0.008	0.522
-127.283	-156.255	0.209	0.013
-126.268	257.699	-0.103	0.176
-125.253	800.000	0.029	-0.085
-124.239	137.096	0.093	-0.121
-123.224	-167.432	0.167	0.007
-122.210	120.922	0.341	0.422
-121.195	-94.376	0.106	0.029
-120.180	-93.487	-0.128	-0.035
-119.166	-69.911	-0.217	0.082
-118.151	-97.064	0.159	-0.041
-117.137	-103.617	0.072	0.017
-116.122	-200.000	0.007	0.082
-115.107	3.428	0.319	-0.231
-114.093	-200.000	0.019	0.124
-113.078	-50.693	0.152	0.071
-112.064	699.017	-0.050	0.130
-111.049	4.316	-0.232	0.169
-110.034	546.042	0.078	0.185
-109.020	-200.000	0.029	0.170
-108.005	-200.000	-0.003	-0.147
-106.991	31.151	-0.045	-0.038
-105.976	-159.844	0.300	0.016
-104.962	160.941	0.056	0.078
-103.947	800.000	0.033	-0.122
-102.932	-13.954	0.050	-0.032
-101.918	-84.125	-0.226	0.071
-100.903	-41.948	0.167	-0.085
-99.889	14.446	0.066	-0.051
-98.874	66.283	0.121	0.122
-97.859	449.538	-0.055	0.120
-96.845	3.357	-0.210	-0.152
-95.830	-200.000	0.026	-0.177
-94.816	800.000	-0.014	-0.049
-93.801	203.193	0.221	-0.339
-92.786	-102.292	-0.310	0.074
-91.772	-86.747	0.160	-0.049
-90.757	-200.000	-0.016	0.178
-89.743	435.702	-0.081	0.176
-88.728	21.481	0.328	0.265
-87.713	-99.961	0.086	0.021
-86.699	-200.000	-0.049	-0.269
-85.684	56.352	-0.091	-0.087
-84.670	-200.000	-0.047	0.344
-83.655	-200.000	-0.041	-0.203
-82.640	-200.000	-0.035	-0.308
-81.626	277.791	0.164	-0.290
-80.611	-195.305	0.180	-0.001
-79.597	-200.000	-0.011	0.060
-78.582	-34.387	0.044	0.024
-77.567	-150.730	-0.121	-0.009
-76.553	800.000	-0.044	-0.129
-75.538	230.276	-0.009	0.015
-74.524	-178.398	-0.231	0.005
-73.509	-44.953	-0.034	-0.017
-72.494	182.328	-0.159	0.232
-71.480	800.000	-0.050	0.139
-70.465	-65.659	-0.067	-0.027
-69.451	225.360	-0.102	-0.164
-68.436	800.000	-0.026	0.073
-67.422	-22.840	0.066	0.040
-66.407	-102.618	0.135	0.032
-65.392	-200.000	0.040	0.231
-64.378	800.000	0.048	-0.172
-63.363	78.927	0.355	0.377
-62.349	127.497	0.098	0.123
-61.334	-13.971	-1.138	-0.729
-60.319	181.090	0.347	0.506
-59.305	-200.000	-0.083	-0.697
-58.290	677.122	0.346	0.892
-57.276	93.527	1.078	1.210
-56.261	-200.000	91.165	532.755
-55.246	585.061	1380.112	3364.345
-54.232	188.317	2585.858	3834.272
-53.217	122.632	2205.865	2736.127
-52.203	47.019	1738.785	1603.951
-51.188	39.697	1546.492	1375.696
-50.173	37.255	1518.384	1333.888
-49.159	55.195	1566.083	1501.308
-48.144	58.963	1586.018	1546.653
-47.130	40.265	1542.269	1375.672
-46.115	36.882	1527.076	1338.735
-45.100	36.780	1523.359	1334.720
-44.086	36.680	1521.838	1332.644
-43.071	36.624	1519.543	1330.201
-42.057	36.522	1518.507	1328.535
-41.042	36.622	1517.042	1327.887
-40.027	36.620	1515.423	1326.406
-39.013	36.625	1514.085	1325.219
-37.998	36.625	1513.045	1324.251
-36.984	36.537	1511.828	1322.533
-35.969	36.664	1509.876	1321.641
-34.954	36.659	1508.346	1320.215
-33.940	36.519	1507.759	1318.697
-32.925	36.636	1505.887	1317.804
-31.911	36.739	1504.603	1317.331
-30.896	36.666	1503.911	1316.174
-29.881	36.814	1501.600	1315.106
-28.867	36.645	1501.032	1313.406
-27.852	36.681	1499.057	1311.869
-26.838	36.654	1497.609	1310.371
-25.823	36.674	1496.007	1309.049
-24.809	36.677	1494.304	1307.526
-23.794	36.812	1492.651	1306.943
-22.779	36.571	1492.537	1305.159
-21.765	36.696	1490.397	1304.084
-20.750	36.723	1489.317	1303.270
-19.736	36.837	1488.146	1302.958
-18.721	36.718	1487.321	1301.382
-17.706	36.739	1486.127	1300.432
-16.692	36.624	1485.346	1298.923
-15.677	36.699	1484.101	1298.285
-14.663	36.603	1483.410	1296.985
-13.648	36.740	1482.133	1296.736
-12.633	36.635	1480.640	1294.675
-11.619	36.526	1480.433	1293.710
-10.604	36.593	1479.473	1293.271
-9.590	36.625	1478.492	1292.578
-8.575	36.724	1477.492	1292.309
-7.560	36.648	1476.761	1291.111
-6.546	36.574	1475.847	1289.768
-5.531	36.657	1475.110	1289.626
-4.517	36.600	1474.072	1288.288
-3.502	36.655	1472.807	1287.499
-2.487	36.585	1471.953	1286.233
-1.473	36.658	1470.643	1285.525
-0.458	36.634	1469.359	1284.189
0.556	36.152	1459.321	1271.761
1.571	32.725	1432.807	1226.304
2.586	28.635	1368.981	1146.095
3.600	26.514	1284.905	1063.166
4.615	24.668	1237.547	1013.434
5.629	21.080	1180.439	947.144
6.644	12.624	1094.576	835.424
7.659	5.978	1052.710	770.862
8.673	4.982	1047.004	761.750
9.688	4.945	1044.356	759.575
10.702	4.885	1042.801	758.082
11.717	4.898	1041.432	757.087
12.731	7.108	1043.429	769.219
13.746	14.804	1053.726	814.381
14.761	19.858	1060.363	844.161
15.775	19.492	1058.413	840.751
16.790	18.240	1056.278	832.892
17.804	17.251	1054.159	826.339
18.819	16.484	1051.833	820.723
19.834	15.943	1050.837	817.249
20.848	15.651	1049.850	814.994
21.863	15.466	1048.600	813.053
22.877	15.192	1048.379	811.481
23.892	15.170	1046.696	810.002
24.907	14.992	1046.609	809.002
25.921	15.082	1045.339	808.384
26.936	14.975	1045.043	807.568
27.950	14.977	1044.080	806.762
28.965	14.924	1043.195	805.752
29.980	15.124	1041.831	805.590
30.994	15.245	1040.525	805.090
32.009	15.257	1040.232	804.850
33.023	15.499	1039.056	805.025
34.038	15.474	1038.205	804.179
35.053	15.229	1037.894	802.691
36.067	15.075	1036.951	801.156
37.082	15.132	1035.598	800.312
38.096	15.256	1034.750	800.179
39.111	15.216	1034.269	799.544
40.126	15.330	1033.592	799.490
41.140	15.110	1032.462	797.502
42.155	15.021	1031.288	796.097
43.169	14.908	1030.377	794.790
44.184	14.847	1029.483	793.737
45.199	14.803	1028.268	792.524
46.213	14.898	1027.007	791.930
47.228	14.900	1026.440	791.434
48.242	14.911	1025.265	790.508
49.257	15.211	1024.220	791.051
50.271	15.043	1023.691	789.779
51.286	14.989	1022.767	788.740
52.301	15.153	1021.828	788.722
53.315	15.203	1020.669	787.992
54.330	14.959	1020.377	786.551
55.344	15.038	1018.810	785.642
56.359	14.941	1018.280	784.709
57.374	15.012	1017.729	784.547
58.388	15.025	1016.718	783.761
59.403	14.951	1015.835	782.662
60.417	14.853	1014.979	781.478
61.432	14.818	1014.678	781.010
62.447	14.967	1013.647	780.844
63.461	14.894	1012.874	779.839
64.476	14.802	1011.896	778.589
65.490	14.676	1011.077	777.306
66.505	14.782	1010.130	776.998
67.520	14.831	1009.675	776.809
68.534	14.872	1009.141	776.519
69.549	14.834	1008.022	775.414
70.563	14.860	1007.557	775.107
71.578	14.781	1006.742	774.048
72.593	14.761	1005.889	773.230
73.607	14.693	1004.503	771.782
74.622	14.675	1003.307	770.712
75.636	14.636	1003.127	770.324
76.651	14.645	1002.312	769.672
77.666	14.778	1001.292	769.435
78.680	14.781	1000.785	768.990
79.695	14.730	1000.322	768.333
80.709	14.845	999.802	768.390
81.724	14.759	999.024	767.330
82.739	14.912	998.091	767.249
83.753	14.972	997.399	766.926
84.768	15.117	996.572	766.884
85.782	15.183	996.000	766.677
86.797	15.277	995.055	766.313
87.812	15.252	994.262	765.521
88.826	15.184	993.450	764.518
89.841	15.135	992.720	763.663
90.855	15.178	991.985	763.226
91.870	15.274	991.239	763.025
92.884	15.231	990.120	761.898
93.899	15.323	989.374	761.674
94.914	15.282	988.572	760.802
95.928	15.208	988.387	760.261
96.943	15.230	987.869	759.891
97.957	15.342	986.373	759.180
98.972	15.169	985.830	757.915
99.987	15.168	985.272	757.413
101.001	15.201	984.358	756.793
102.016	15.205	983.846	756.351
103.030	15.284	982.378	755.512
104.045	15.205	981.729	754.587
105.060	15.232	980.591	753.768
106.074	15.195	979.890	752.999
107.089	15.056	978.346	751.122
108.103	14.903	977.624	749.813
109.118	14.880	976.770	748.990
110.133	14.820	975.824	747.927
111.147	14.879	975.146	747.609
112.162	14.840	974.055	746.530
113.176	14.899	973.169	746.050
114.191	14.930	972.411	745.541
115.206	14.958	971.360	744.794
116.220	14.844	970.950	743.906
117.235	14.995	969.882	743.693
118.249	14.986	969.215	743.077
119.264	14.931	968.168	741.961
120.279	14.936	967.503	741.409
121.293	14.788	966.967	740.275
122.308	14.847	965.910	739.662
123.322	14.753	964.880	738.394
124.337	14.692	964.009	737.395
125.352	14.770	963.051	736.940
126.366	14.790	962.185	736.300
127.381	14.791	961.061	735.380
128.395	14.758	959.960	734.326
129.410	14.759	959.179	733.669
130.424	14.730	958.530	732.978
131.439	14.884	957.518	732.815
132.454	14.900	956.772	732.249
133.468	14.905	956.410	731.930
134.483	14.948	955.534	731.381
135.497	15.069	954.619	731.147
136.512	15.005	953.931	730.276
137.527	15.011	953.039	729.554
138.541	15.147	952.429	729.614
139.556	15.032	951.243	728.142
140.570	15.076	950.734	727.881
141.585	15.062	950.340	727.451
142.600	15.333	949.039	727.569
143.614	15.275	948.598	726.913
144.629	15.166	948.566	726.350
145.643	15.370	947.433	726.302
146.658	15.305	946.375	725.147
147.673	15.187	944.987	723.509
148.687	15.089	944.524	722.669
149.702	15.108	943.672	722.033
150.716	15.014	942.621	720.761
151.731	15.055	941.821	720.263
152.746	15.064	941.339	719.868
153.760	15.133	940.402	719.387
154.775	15.066	940.128	718.825
155.789	15.183	939.083	718.462
156.804	15.145	938.228	717.583
157.819	15.138	937.971	717.291
158.833	15.171	937.193	716.774
159.848	15.288	936.419	716.619
160.862	15.198	936.376	716.140
161.877	15.186	935.361	715.247
162.892	15.118	934.411	714.170
163.906	15.055	933.381	713.049
164.921	15.125	932.221	712.399
165.935	15.072	931.702	711.713
166.950	15.110	930.403	710.818
167.964	15.365	929.522	711.165
168.979	15.362	928.597	710.380
169.994	15.277	926.998	708.735
171.008	15.124	926.683	707.788
172.023	15.232	926.000	707.659
173.037	15.249	925.387	707.197
174.052	15.386	924.654	707.151
175.067	15.306	924.243	706.439
176.081	15.238	923.281	705.356
177.096	15.200	922.045	704.191
178.110	15.171	921.548	703.627
179.125	15.231	920.614	703.103
180.140	15.262	919.940	702.657
181.154	15.199	919.543	702.026
182.169	15.311	918.714	701.801
183.183	15.311	917.916	701.127
184.198	15.314	917.742	700.946
185.213	15.393	916.868	700.545
186.227	15.450	915.827	699.924
187.242	15.516	915.384	699.801
188.256	15.614	914.680	699.608
189.271	15.569	914.207	698.999
190.286	15.575	913.629	698.520
191.300	15.648	912.205	697.669
192.315	15.215	911.616	695.363
193.329	15.075	911.308	694.484
194.344	15.136	910.518	694.074
195.359	15.282	910.039	694.253
196.373	15.367	909.377	694.037
197.388	15.415	908.939	693.842
198.402	15.552	908.424	693.954
199.417	15.672	907.874	693.965
200.432	15.654	907.767	693.748
201.446	15.878	907.324	694.273
202.461	15.874	906.843	693.826
203.475	15.836	906.400	693.271
204.490	15.890	905.485	692.729
205.504	16.013	904.160	692.160
206.519	15.720	903.666	690.518
207.534	15.590	903.311	689.655
208.548	15.589	902.426	688.913
209.563	15.574	901.826	688.330
210.577	15.874	900.513	688.497
211.592	15.688	900.225	687.454
212.607	15.731	900.132	687.499
213.621	15.895	899.290	687.462
214.636	15.891	898.445	686.739
215.650	15.768	897.895	685.756
216.665	15.733	897.335	685.129
217.680	15.732	897.028	684.827
218.694	15.864	896.579	684.962
219.709	15.925	896.248	684.898
220.723	16.129	894.967	684.687
221.738	15.865	894.650	683.310
222.753	15.866	894.053	682.800
223.767	16.004	893.127	682.591
224.782	16.073	892.359	682.220
225.796	15.925	891.748	681.094
226.811	16.103	890.977	681.167
227.826	16.049	890.369	680.424
228.840	15.991	889.783	679.682
229.855	15.944	889.098	678.909
230.869	15.921	888.252	678.108
231.884	15.984	887.518	677.743
232.899	15.926	887.013	677.062
233.913	15.950	886.011	676.337
234.928	15.855	885.681	675.643
235.942	16.036	884.549	675.445
236.957	15.876	884.377	674.612
237.972	15.915	883.268	673.864
238.986	16.046	882.661	673.863
240.001	15.820	882.324	672.645
241.015	15.954	881.714	672.653
242.030	16.059	880.851	672.356
243.045	15.977	880.688	671.843
244.059	15.988	879.927	671.247
245.074	16.014	879.093	670.654
246.088	16.111	878.672	670.660
247.103	16.103	878.100	670.133
248.117	16.257	877.384	670.140
249.132	16.271	876.995	669.837
250.147	16.411	876.313	669.813
251.161	16.424	876.515	669.959
252.176	16.575	875.135	669.443
253.190	16.599	874.407	668.921
254.205	16.613	873.615	668.312
255.220	16.720	873.188	668.350
256.234	16.829	872.670	668.323
257.249	16.584	872.200	666.938
258.263	16.782	871.258	666.938
259.278	16.549	870.889	665.682
260.293	16.551	870.552	665.371
261.307	16.686	870.114	665.508
262.322	16.788	869.339	665.257
263.336	16.772	868.733	664.670
264.351	16.807	868.166	664.317
265.366	16.844	867.663	664.017
266.380	16.743	867.245	663.245
267.395	16.836	866.517	662.991
268.409	16.675	865.923	661.848
269.424	16.684	865.006	661.124
270.439	16.740	864.406	660.827
271.453	16.798	863.221	660.087
272.468	16.667	862.799	659.199
273.482	16.685	861.831	658.468
274.497	16.661	861.739	658.247
275.512	16.773	860.648	657.789
276.526	16.729	859.851	656.953
277.541	16.724	859.399	656.531
278.555	16.811	858.926	656.448
279.570	16.750	858.675	655.959
280.585	16.853	858.315	656.028
281.599	16.878	857.757	655.639
282.614	16.850	856.820	654.757
283.628	16.845	855.999	654.053
284.643	16.939	855.379	653.884
285.657	16.831	854.701	652.890
286.672	16.881	854.196	652.639
287.687	16.832	854.163	652.369
288.701	16.803	853.570	651.746
289.716	16.829	853.050	651.393
290.730	17.051	852.422	651.705
291.745	17.082	851.611	651.147
292.760	17.067	850.732	650.362
293.774	17.042	850.505	650.032
294.789	17.051	850.069	649.676
295.803	17.209	849.134	649.510
296.818	17.164	848.486	648.784
297.833	17.029	847.906	647.767
298.847	16.974	847.275	647.019
299.862	17.041	846.404	646.552
300.876	17.119	845.836	646.356
301.891	17.200	845.184	646.110
302.906	17.240	844.614	645.771
303.920	17.301	843.928	645.421
304.935	17.331	843.556	645.192
305.949	17.229	843.160	644.447
306.964	17.441	842.241	644.489
307.979	17.322	841.759	643.612
308.993	17.321	841.256	643.166
310.008	17.430	840.666	643.071
311.022	17.515	840.194	642.975
312.037	17.379	839.801	642.104
313.052	17.315	839.120	641.282
314.066	17.228	838.257	640.241
315.081	17.281	837.489	639.798
316.095	17.199	837.206	639.214
317.110	17.213	836.642	638.780
318.125	17.204	836.109	638.282
319.139	17.317	835.587	638.252
320.154	17.222	835.279	637.604
321.168	17.335	834.660	637.498
322.183	17.376	833.988	637.082
323.197	17.376	833.715	636.816
324.212	17.443	832.959	636.434
325.227	17.376	832.452	635.741
326.241	17.352	832.104	635.330
327.256	17.311	831.532	634.684
328.270	17.287	830.836	634.007
329.285	17.279	830.385	633.577
330.300	17.457	829.319	633.368
331.314	17.388	828.844	632.693
332.329	17.388	828.272	632.201
333.343	17.508	827.845	632.267
334.358	17.564	827.300	632.001
335.373	17.532	826.704	631.370
336.387	17.535	826.206	630.944
337.402	17.542	825.841	630.636
338.416	17.700	824.885	630.435
339.431	17.768	824.454	630.301
340.446	17.838	823.944	630.113
341.460	17.790	823.850	629.809
342.475	17.930	822.937	629.573
343.489	17.970	822.611	629.416
344.504	17.924	821.758	628.538
345.519	18.089	821.181	628.648
346.533	18.005	821.029	628.166
347.548	17.983	820.549	627.662
348.562	17.920	820.007	626.960
349.577	17.826	819.187	625.933
350.592	17.802	818.915	625.584
351.606	17.778	818.398	625.045
352.621	17.721	817.748	624.285
353.635	17.730	817.603	624.151
354.650	17.800	817.195	624.040
355.665	17.754	816.641	623.392
356.679	17.692	816.337	622.879
357.694	17.803	815.735	622.769
358.708	18.019	815.030	622.965
359.723	17.936	814.659	622.324
360.738	17.867	814.048	621.551
361.752	17.911	813.667	621.364
362.767	18.010	813.491	621.536
363.781	18.180	812.968	621.700
364.796	18.143	812.500	621.150
365.810	18.099	812.464	620.911
366.825	18.248	811.412	620.592
367.840	18.299	811.189	620.551
368.854	18.352	810.888	620.456
369.869	18.212	810.535	619.624
370.883	18.210	809.915	619.090
371.898	18.138	809.249	618.266
372.913	18.229	808.753	618.162
373.927	18.249	808.122	617.696
374.942	18.111	807.670	616.797
375.956	18.294	806.661	616.633
376.971	18.301	805.960	616.065
377.986	18.442	805.644	616.277
379.000	18.380	805.169	615.636
380.015	18.372	804.868	615.324
381.029	18.404	804.550	615.139
382.044	18.487	803.511	614.589
383.059	18.596	803.128	614.634
384.073	18.592	802.486	614.073
385.088	18.477	801.896	613.154
386.102	18.471	801.308	612.631
387.117	18.376	800.837	611.876
388.132	18.253	800.540	611.155
389.146	18.196	800.420	610.808
390.161	18.383	799.873	611.002
391.175	18.554	799.018	610.906
392.190	18.463	799.056	610.555
393.205	18.584	798.193	610.272
394.219	18.331	798.308	609.408
395.234	18.331	797.820	608.980
396.248	18.346	797.284	608.571
397.263	18.318	796.173	607.568
398.278	18.286	795.787	607.106
399.292	18.336	795.503	607.013
400.307	18.348	794.887	606.531
401.321	18.397	794.490	606.348
402.336	18.316	794.616	606.106
403.350	18.437	794.188	606.153
404.365	18.501	793.541	605.831
405.380	18.579	792.916	605.575
406.394	18.724	792.633	605.818
407.409	18.689	792.601	605.615
408.423	18.647	792.040	604.986
409.438	18.850	791.620	605.327
410.453	18.833	791.020	604.755
411.467	18.907	790.312	604.422
412.482	18.868	790.108	604.075
413.496	19.028	789.498	604.115
414.511	18.899	789.559	603.657
415.526	18.928	789.209	603.438
416.540	18.970	788.493	602.982
417.555	18.916	787.851	602.251
418.569	19.022	787.656	602.418
419.584	19.001	787.287	602.010
420.599	19.108	786.521	601.744
421.613	153.802	1366.932	1786.645
422.628	132.879	1451.522	1786.758
