DTS Sentinel unit serial number:	SN413079Multiplexer serial number:	ORYXHardware model number:	OX4-SRSoftware version number:	ORYX F/W v4.00 Oryx Data Collector v3.7.2.0data status	okinstallation	princeton_trtdifferential loss correction	single-endedforward channel	channel 3reverse channel	N/Adate	2019/09/15time	00:36:34forward acquisition time	60.00reverse acquisition time	0.00gamma	496.2192k internal	0.2320k external	0.2320temperature offset calibration	0.9972default loss term (dB/km)	0.3790temperature slope calibration	1.0000multiplexer offset coefficient	1.0000multiplexer slope coefficient	1.0000fibre end	0.00T internal ref (°C)	32.12T ext. ref 1 (°C)	4.58T ext. ref 2 (°C)	27.12length (m)	temperature (°C)	Stokes	anti-Stokes-747.200	66.893	0.234	-0.241
-746.185	23.149	-0.138	0.115
-745.171	99.175	-0.111	0.130
-744.156	800.000	-0.055	0.175
-743.142	-200.000	0.428	-0.001
-742.127	-200.000	-0.033	0.228
-741.112	392.704	0.089	-0.186
-740.098	-200.000	-0.001	0.195
-739.083	23.909	0.098	-0.081
-738.069	-138.659	-0.296	0.033
-737.054	35.156	-0.342	-0.303
-736.039	-134.268	0.117	-0.015
-735.025	-89.005	0.260	-0.078
-734.010	55.542	-0.196	-0.192
-732.996	-166.413	-0.242	-0.010
-731.981	-184.492	0.333	-0.005
-730.966	286.039	-0.133	0.243
-729.952	62.101	0.074	0.075
-728.937	109.526	-0.236	-0.286
-727.923	800.000	-0.084	-0.296
-726.908	66.268	-0.069	-0.071
-725.894	-20.361	0.157	-0.098
-724.879	-200.000	0.011	-0.096
-723.864	-115.419	0.040	-0.008
-722.850	677.857	0.056	-0.148
-721.835	74.515	-0.028	-0.030
-720.821	-200.000	-0.004	-0.137
-719.806	-22.058	-0.011	0.007
-718.791	-77.814	-0.205	-0.071
-717.777	-137.798	0.085	-0.010
-716.762	-98.374	-0.288	0.075
-715.748	197.032	0.045	-0.069
-714.733	800.000	-0.053	-0.228
-713.718	110.293	-0.249	0.302
-712.704	-200.000	-0.007	-0.349
-711.689	-200.000	-0.036	-0.282
-710.675	-128.076	0.262	0.038
-709.660	-173.564	-0.142	0.004
-708.645	-200.000	0.016	-0.163
-707.631	262.768	0.182	-0.319
-706.616	499.096	-0.076	0.177
-705.602	800.000	0.055	-0.233
-704.587	-1.087	-0.361	0.258
-703.572	-200.000	0.052	0.238
-702.558	800.000	0.059	0.201
-701.543	-200.000	0.002	-0.092
-700.529	75.905	0.229	-0.245
-699.514	-135.415	-0.112	0.014
-698.499	-151.177	-0.218	-0.017
-697.485	43.556	0.168	-0.155
-696.470	57.012	0.052	-0.051
-695.456	-141.035	-0.237	0.024
-694.441	8.432	0.093	0.070
-693.426	185.248	-0.038	-0.056
-692.412	-46.154	0.199	-0.099
-691.397	384.210	0.156	0.325
-690.383	-135.546	0.089	0.011
-689.368	-63.083	-0.194	0.081
-688.354	-200.000	-0.026	-0.142
-687.339	-31.092	-0.213	-0.121
-686.324	476.935	0.091	-0.208
-685.310	-99.707	-0.133	0.034
-684.295	238.459	-0.124	-0.209
-683.281	-129.317	-0.186	0.026
-682.266	-94.234	0.263	0.073
-681.251	38.132	0.168	0.151
-680.237	-200.000	-0.017	0.109
-679.222	-28.692	0.163	0.095
-678.208	586.764	-0.032	-0.079
-677.193	127.247	0.133	-0.170
-676.178	-133.008	0.188	-0.024
-675.164	31.941	-0.173	0.150
-674.149	-51.849	-0.275	0.129
-673.135	-85.279	-0.154	-0.048
-672.120	141.453	0.089	-0.119
-671.105	-62.266	-0.185	0.078
-670.091	41.352	-0.249	-0.227
-669.076	98.816	-0.258	0.300
-668.062	102.177	-0.121	-0.143
-667.047	262.201	-0.021	-0.036
-666.032	-7.542	-0.253	0.173
-665.018	-81.609	-0.305	-0.101
-664.003	141.227	0.122	-0.163
-662.989	-113.574	0.150	-0.029
-661.974	109.098	-0.065	-0.078
-660.959	168.817	-0.058	0.084
-659.945	-200.000	0.050	0.352
-658.930	64.635	-0.038	0.039
-657.916	389.796	0.148	0.308
-656.901	314.276	0.165	0.313
-655.886	-28.186	-0.122	0.071
-654.872	-200.000	0.020	-0.194
-653.857	-25.312	0.098	-0.058
-652.843	398.314	-0.094	-0.199
-651.828	-118.648	-0.262	0.047
-650.814	-61.123	-0.179	0.076
-649.799	-23.057	-0.245	0.149
-648.784	-75.593	0.012	0.004
-647.770	-35.205	-0.263	0.144
-646.755	-200.000	-0.053	-0.274
-645.741	-200.000	0.035	-0.351
-644.726	133.919	0.125	-0.163
-643.711	-56.624	-0.176	0.079
-642.697	117.466	0.149	0.185
-641.682	-84.964	-0.225	-0.071
-640.668	-4.068	0.133	0.093
-639.653	-159.101	0.197	0.011
-638.638	-67.071	0.188	-0.075
-637.624	60.214	-0.089	0.088
-636.609	111.869	-0.097	-0.118
-635.595	-36.366	0.327	0.178
-634.580	-98.812	-0.076	-0.019
-633.565	95.299	-0.211	0.242
-632.551	-35.180	0.174	-0.096
-631.536	554.404	-0.179	-0.433
-630.522	-33.114	-0.108	-0.060
-629.507	-89.508	-0.237	0.070
-628.492	-200.000	0.011	-0.389
-627.478	-101.662	-0.170	0.042
-626.463	16.292	0.113	0.090
-625.449	-200.000	-0.023	-0.130
-624.434	542.077	-0.025	0.059
-623.419	19.672	0.400	-0.324
-622.405	800.000	-0.117	-0.504
-621.390	540.479	-0.155	-0.370
-620.376	154.112	-0.094	-0.130
-619.361	204.652	0.031	0.049
-618.346	-63.646	-0.148	0.061
-617.332	-200.000	0.003	0.111
-616.317	627.632	-0.166	-0.422
-615.303	800.000	-0.077	0.264
-614.288	65.836	-0.306	0.312
-613.273	-143.974	-0.132	-0.013
-612.259	-98.744	-0.164	-0.042
-611.244	-181.337	-0.085	-0.002
-610.230	-200.000	-0.012	0.251
-609.215	-200.000	-0.038	-0.238
-608.201	-200.000	-0.053	0.446
-607.186	-4.323	-0.324	-0.226
-606.171	-65.910	-0.338	-0.136
-605.157	178.280	0.124	-0.182
-604.142	390.806	0.070	0.145
-603.128	-60.329	0.129	0.055
-602.113	176.920	-0.219	-0.321
-601.098	240.155	-0.078	-0.130
-600.084	123.948	-0.091	0.116
-599.069	151.045	0.056	0.077
-598.055	-122.565	0.101	-0.016
-597.040	-38.423	-0.077	0.041
-596.025	-53.480	-0.208	0.096
-595.011	-16.698	0.225	-0.143
-593.996	-200.000	-0.008	-0.158
-592.982	93.220	0.245	-0.279
-591.967	59.311	-0.164	0.162
-590.952	103.666	-0.078	-0.092
-589.938	-156.518	0.389	0.024
-588.923	-76.295	-0.171	0.061
-587.909	-200.000	0.001	-0.178
-586.894	-200.000	0.019	-0.146
-585.879	528.434	0.030	0.070
-584.865	291.615	0.020	-0.036
-583.850	-69.846	0.156	0.060
-582.836	-200.000	-0.054	0.321
-581.821	-108.435	-0.077	0.017
-580.806	800.000	0.155	0.433
-579.792	-120.823	0.077	0.013
-578.777	162.783	0.136	-0.192
-577.763	-200.000	0.012	0.177
-576.748	-13.230	0.313	0.204
-575.733	595.007	0.053	0.131
-574.719	-122.193	0.448	-0.074
-573.704	90.432	0.026	0.030
-572.690	3.162	-0.125	0.091
-571.675	-81.249	0.247	0.082
-570.661	-67.967	-0.273	0.107
-569.646	-23.431	-0.140	0.085
-568.631	106.643	-0.302	-0.360
-567.617	-200.000	-0.009	0.243
-566.602	-200.000	0.019	-0.396
-565.588	-200.000	-0.048	-0.342
-564.573	-200.000	-0.004	0.272
-563.558	409.022	0.107	-0.227
-562.544	219.815	0.130	-0.210
-561.529	156.496	-0.071	-0.098
-560.515	-80.996	0.194	-0.064
-559.500	-200.000	0.009	0.334
-558.485	22.862	-0.102	0.084
-557.471	-122.502	0.284	0.046
-556.456	-82.442	0.327	-0.107
-555.442	11.528	-0.214	0.165
-554.427	382.469	0.021	0.043
-553.412	-200.000	-0.030	-0.347
-552.398	800.000	-0.032	-0.127
-551.383	-180.246	0.506	-0.011
-550.369	79.730	-0.104	0.112
-549.354	19.144	-0.185	-0.149
-548.339	-152.636	-0.086	0.006
-547.325	4.282	0.015	0.011
-546.310	-42.392	-0.082	0.042
-545.296	-200.000	-0.035	-0.223
-544.281	207.056	0.052	-0.081
-543.266	46.886	-0.169	0.158
-542.252	41.391	-0.121	0.110
-541.237	-53.787	-0.082	0.038
-540.223	-200.000	-0.033	-0.147
-539.208	-14.625	-0.141	0.091
-538.193	-90.761	-0.151	-0.044
-537.179	84.565	-0.168	0.185
-536.164	128.485	-0.088	-0.113
-535.150	-200.000	0.028	0.266
-534.135	94.183	0.240	0.273
-533.121	800.000	-0.063	-0.235
-532.106	-70.321	0.455	-0.173
-531.091	-200.000	0.092	-0.433
-530.077	-85.222	-0.204	0.064
-529.062	136.541	0.074	-0.097
-528.048	-76.613	-0.056	-0.020
-527.033	-64.746	0.088	0.036
-526.018	800.000	-0.086	0.364
-525.004	606.815	0.087	0.218
-523.989	425.899	-0.116	-0.250
-522.975	628.168	-0.108	-0.273
-521.960	133.716	-0.058	0.075
-520.945	-56.867	0.210	0.093
-519.931	-15.842	0.056	0.036
-518.916	-137.308	-0.388	0.044
-517.902	207.564	-0.215	0.336
-516.887	5.168	0.187	0.138
-515.872	-81.036	-0.102	-0.034
-514.858	-200.000	-0.003	-0.025
-513.843	712.722	0.072	0.192
-512.829	-71.134	-0.374	-0.141
-511.814	-200.000	0.012	-0.076
-510.799	-49.604	0.466	-0.222
-509.785	-132.126	-0.085	-0.011
-508.770	-57.186	0.155	0.068
-507.756	-200.000	0.021	0.134
-506.741	800.000	-0.096	-0.282
-505.726	77.846	0.213	-0.227
-504.712	-76.016	-0.325	0.115
-503.697	-29.167	-0.094	-0.054
-502.683	-62.930	0.154	-0.064
-501.668	59.367	-0.039	0.038
-500.653	-36.389	0.125	0.068
-499.639	-200.000	0.006	0.211
-498.624	279.110	0.040	-0.071
-497.610	-200.000	-0.002	0.012
-496.595	-27.014	-0.602	0.352
-495.581	-33.032	0.077	0.043
-494.566	-51.027	0.227	0.107
-493.551	-200.000	-0.071	-0.334
-492.537	-79.012	-0.263	0.090
-491.522	53.486	0.106	0.102
-490.508	-174.432	0.272	-0.008
-489.493	800.000	-0.034	-0.108
-488.478	-97.713	0.237	0.061
-487.464	248.086	0.066	0.111
-486.449	-200.000	0.010	0.196
-485.435	-200.000	0.018	-0.227
-484.420	-122.056	0.069	0.011
-483.405	48.598	-0.206	-0.193
-482.391	14.816	-0.320	-0.250
-481.376	1.459	0.178	-0.128
-480.362	16.363	-0.192	-0.152
-479.347	-97.084	0.181	0.047
-478.332	-113.214	0.075	0.015
-477.318	800.000	-0.047	0.142
-476.303	-62.553	-0.348	0.144
-475.289	322.695	0.062	0.119
-474.274	800.000	0.136	0.430
-473.259	-16.296	-0.451	0.286
-472.245	-88.402	-0.088	-0.026
-471.230	-114.399	0.235	0.045
-470.216	-138.346	0.230	0.025
-469.201	-88.114	-0.183	0.055
-468.186	-16.453	0.218	-0.138
-467.172	194.014	-0.083	0.125
-466.157	19.524	-0.281	-0.226
-465.143	-200.000	-0.063	0.297
-464.128	479.586	-0.072	-0.164
-463.113	-200.000	-0.361	0.001
-462.099	-200.000	-0.012	-0.281
-461.084	800.000	-0.057	0.242
-460.070	213.120	-0.021	-0.034
-459.055	106.347	0.178	0.210
-458.040	800.000	0.072	0.199
-457.026	-200.000	0.046	0.435
-456.011	100.583	-0.129	-0.149
-454.997	-120.049	0.110	0.019
-453.982	74.814	-0.155	-0.163
-452.968	383.552	0.104	-0.213
-451.953	-3.781	-0.176	0.123
-450.938	800.000	-0.090	0.355
-449.924	55.294	0.073	-0.070
-448.909	-106.719	-0.311	-0.069
-447.895	800.000	-0.012	0.051
-446.880	464.472	-0.023	-0.052
-445.865	-121.515	0.339	0.056
-444.851	-101.276	0.149	-0.036
-443.836	800.000	0.063	-0.193
-442.822	559.599	0.083	-0.200
-441.807	-200.000	-0.081	-0.535
-440.792	-31.357	-0.151	-0.085
-439.778	-62.895	0.102	-0.042
-438.763	-39.017	-0.164	0.086
-437.749	-147.465	0.113	0.010
-436.734	360.965	0.186	-0.372
-435.719	-123.433	-0.321	0.051
-434.705	-184.870	0.115	-0.002
-433.690	43.073	0.248	0.226
-432.676	-10.352	-0.193	-0.128
-431.661	-96.476	-0.151	-0.040
-430.646	-108.435	0.031	-0.007
-429.632	-200.000	-0.064	-0.407
-428.617	61.700	-0.090	0.090
-427.603	-200.000	0.014	-0.403
-426.588	-200.000	-0.021	-0.133
-425.573	-21.232	0.307	-0.187
-424.559	520.102	0.060	-0.140
-423.544	98.617	0.167	0.192
-422.530	123.244	-0.155	-0.194
-421.515	-200.000	-0.025	-0.173
-420.500	38.992	0.006	-0.006
-419.486	-94.908	0.479	0.130
-418.471	124.753	0.184	-0.232
-417.457	-77.074	0.191	-0.066
-416.442	10.556	0.078	0.059
-415.428	652.566	0.076	0.194
-414.413	-124.807	-0.286	0.044
-413.398	-200.000	0.061	-0.388
-412.384	-48.594	0.156	-0.075
-411.369	-121.000	0.186	0.031
-410.355	-200.000	0.007	-0.403
-409.340	119.520	-0.024	0.030
-408.325	351.829	-0.190	0.375
-407.311	702.496	-0.092	0.243
-406.296	448.309	-0.175	-0.385
-405.282	-77.421	-0.215	0.075
-404.267	-59.603	-0.097	-0.042
-403.252	304.026	0.104	-0.192
-402.238	131.112	-0.130	-0.167
-401.223	-34.315	0.277	-0.152
-400.209	467.190	-0.136	0.304
-399.194	-134.086	0.188	0.023
-398.179	142.207	0.045	0.059
-397.165	-200.000	-0.024	0.220
-396.150	384.478	-0.118	-0.243
-395.136	-41.168	-0.142	0.073
-394.121	-122.969	0.239	-0.038
-393.106	-125.945	-0.289	0.043
-392.092	-200.000	0.021	-0.183
-391.077	308.798	0.090	-0.168
-390.063	-106.117	0.457	0.102
-389.048	-200.000	0.006	-0.157
-388.033	181.638	-0.063	-0.093
-387.019	3.675	0.086	-0.063
-386.004	-196.197	-0.093	-0.001
-384.990	-91.444	0.327	0.093
-383.975	-37.890	0.198	0.105
-382.960	-42.469	-0.224	0.114
-381.946	-78.727	-0.148	0.050
-380.931	-200.000	-0.015	0.094
-379.917	-105.061	-0.194	0.044
-378.902	-28.109	-0.124	0.072
-377.888	102.694	-0.117	0.137
-376.873	-200.000	-0.004	0.029
-375.858	-165.615	0.272	-0.012
-374.844	-77.164	0.104	0.036
-373.829	258.650	-0.219	-0.376
-372.815	-1.331	0.025	-0.017
-371.800	49.405	-0.110	0.104
-370.785	-139.831	0.234	-0.025
-369.771	158.204	-0.185	0.256
-368.756	-128.188	-0.144	0.020
-367.742	-118.645	-0.093	-0.016
-366.727	305.605	0.155	-0.287
-365.712	-117.915	-0.170	-0.030
-364.698	182.955	-0.136	0.201
-363.683	-78.777	-0.203	0.069
-362.669	-63.193	0.185	0.076
-361.654	-200.000	-0.003	-0.066
-360.639	107.140	-0.201	0.238
-359.625	362.439	0.059	0.118
-358.610	-200.000	-0.076	0.375
-357.596	343.595	-0.029	0.057
-356.581	-169.198	0.293	-0.011
-355.566	724.833	0.059	-0.157
-354.552	353.853	-0.186	0.367
-353.537	-20.389	0.050	0.031
-352.523	640.513	0.109	0.277
-351.508	800.000	0.066	0.251
-350.493	-200.000	-0.016	0.236
-349.479	-200.000	-0.029	0.258
-348.464	261.522	-0.104	0.180
-347.450	246.292	-0.053	0.089
-346.435	-89.415	0.112	0.033
-345.420	116.201	-0.102	0.125
-344.406	422.914	0.141	-0.301
-343.391	800.000	0.182	-0.514
-342.377	-200.000	-0.031	-0.159
-341.362	-9.225	-0.304	-0.202
-340.348	24.829	0.214	-0.176
-339.333	242.436	0.116	0.193
-338.318	-99.865	0.052	-0.013
-337.304	40.206	-0.319	0.285
-336.289	-200.000	-0.061	-0.290
-335.275	-200.000	-0.001	0.237
-334.260	159.410	0.113	0.156
-333.245	1.596	0.081	0.058
-332.231	226.424	0.037	-0.060
-331.216	-74.239	0.178	0.064
-330.202	24.939	-0.108	0.089
-329.187	83.294	0.112	-0.122
-328.172	-200.000	0.033	0.293
-327.158	-42.833	0.036	-0.018
-326.143	800.000	0.060	0.189
-325.129	319.356	-0.061	-0.116
-324.114	-126.140	0.292	-0.044
-323.099	-200.000	-0.039	0.216
-322.085	800.000	0.084	-0.271
-321.070	-97.371	-0.233	0.060
-320.056	-200.000	-0.049	-0.221
-319.041	409.599	0.107	-0.226
-318.026	334.530	-0.152	-0.293
-317.012	24.157	0.243	-0.199
-315.997	198.923	-0.104	0.159
-314.983	-200.000	-0.008	-0.262
-313.968	800.000	-0.049	0.138
-312.953	484.724	-0.079	-0.180
-311.939	131.186	0.176	0.224
-310.924	-200.000	-0.043	0.349
-309.910	21.581	0.366	0.296
-308.895	-12.485	0.079	0.051
-307.880	1.805	-0.199	-0.143
-306.866	-200.000	0.049	0.282
-305.851	142.633	0.049	-0.065
-304.837	-98.886	0.212	0.054
-303.822	0.519	-0.010	0.007
-302.807	-41.988	0.167	0.085
-301.793	800.000	0.048	0.136
-300.778	243.617	0.042	0.070
-299.764	-200.000	0.011	0.067
-298.749	-79.748	0.036	-0.012
-297.735	800.000	0.060	0.197
-296.720	-133.300	-0.215	-0.027
-295.705	800.000	-0.042	0.157
-294.691	51.698	0.156	-0.147
-293.676	-200.000	0.005	-0.190
-292.662	-21.900	-0.053	-0.032
-291.647	33.278	-0.302	-0.261
-290.632	-200.000	-0.021	0.105
-289.618	366.931	-0.061	-0.122
-288.603	508.408	-0.134	-0.310
-287.589	800.000	0.019	0.074
-286.574	-96.525	0.103	0.027
-285.559	-109.549	-0.131	-0.027
-284.545	-93.084	0.320	0.088
-283.530	54.684	0.021	0.020
-282.516	183.547	0.290	-0.426
-281.501	366.161	-0.180	-0.361
-280.486	-107.090	0.362	0.079
-279.472	-105.217	-0.183	0.042
-278.457	714.538	0.101	0.267
-277.443	176.026	-0.174	-0.250
-276.428	-14.592	0.245	-0.156
-275.413	-95.183	0.259	-0.069
-274.399	26.220	0.124	0.103
-273.384	-174.828	0.303	0.008
-272.370	1.679	-0.141	0.101
-271.355	-25.287	-0.241	0.141
-270.340	148.987	-0.184	0.247
-269.326	65.638	-0.142	0.143
-268.311	-129.688	0.098	-0.013
-267.297	-102.517	0.149	0.035
-266.282	-151.481	0.251	0.018
-265.267	-200.000	0.077	0.633
-264.253	62.103	-0.224	0.222
-263.238	233.851	0.105	-0.171
-262.224	-59.917	-0.296	0.125
-261.209	-200.000	0.012	-0.112
-260.195	-200.000	0.005	0.388
-259.180	-73.167	-0.239	-0.087
-258.165	-92.231	0.245	-0.069
-257.151	-85.326	0.105	-0.033
-256.136	-200.000	0.029	0.131
-255.122	-21.087	0.088	-0.054
-254.107	683.005	-0.028	-0.073
-253.092	296.417	-0.152	-0.277
-252.078	-10.397	-0.346	-0.228
-251.063	-33.581	-0.238	0.130
-250.049	-200.000	0.039	0.187
-249.034	-50.892	0.416	0.194
-248.019	800.000	-0.075	0.243
-247.005	390.454	0.098	0.201
-245.990	-87.476	-0.048	0.014
-244.976	-131.885	-0.231	0.030
-243.961	-92.616	-0.275	-0.077
-242.946	4.545	-0.316	-0.230
-241.932	-84.125	-0.112	0.035
-240.917	44.603	0.119	0.108
-239.903	251.359	-0.121	-0.204
-238.888	-4.396	-0.103	0.071
-237.873	-200.000	-0.027	-0.133
-236.859	800.000	0.023	0.074
-235.844	800.000	0.089	0.259
-234.830	-75.371	-0.248	0.088
-233.815	195.781	-0.092	-0.138
-232.800	-162.094	0.227	0.011
-231.786	141.089	0.103	-0.135
-230.771	-200.000	0.001	-0.285
-229.757	143.101	0.026	-0.034
-228.742	227.451	-0.125	-0.201
-227.727	-200.000	-0.028	0.138
-226.713	537.691	-0.110	0.260
-225.698	569.893	0.075	0.180
-224.684	258.328	0.249	0.425
-223.669	57.334	0.101	0.098
-222.655	87.838	-0.171	0.188
-221.640	-51.126	0.170	-0.079
-220.625	-89.792	-0.331	0.096
-219.611	37.662	-0.225	0.197
-218.596	-122.288	0.233	0.038
-217.582	-200.000	-0.004	0.103
-216.567	-200.000	-0.031	-0.222
-215.552	-163.789	0.245	0.011
-214.538	800.000	-0.098	0.349
-213.523	-171.599	0.324	0.011
-212.509	-55.751	-0.216	0.096
-211.494	-49.992	0.360	0.169
-210.479	-40.091	-0.325	-0.168
-209.465	800.000	0.076	-0.229
-208.450	84.096	-0.139	-0.151
-207.436	512.334	-0.053	0.123
-206.421	-171.298	0.410	-0.014
-205.406	505.959	0.097	-0.223
-204.392	-45.784	0.309	0.151
-203.377	-87.867	-0.186	-0.056
-202.363	30.930	0.184	0.156
-201.348	60.582	-0.257	0.252
-200.333	-62.296	0.259	0.107
-199.319	800.000	0.040	-0.120
-198.304	-144.545	-0.149	-0.014
-197.290	-36.547	-0.092	-0.049
-196.275	-136.302	-0.455	-0.052
-195.260	-14.875	0.173	-0.110
-194.246	283.634	0.104	0.185
-193.231	292.054	-0.045	0.080
-192.217	106.314	-0.046	0.054
-191.202	-167.740	-0.264	0.010
-190.187	-42.457	0.284	-0.144
-189.173	-200.000	0.023	-0.134
-188.158	74.457	0.080	-0.084
-187.144	-60.444	0.120	0.051
-186.129	-200.000	0.089	0.395
-185.114	-14.910	-0.208	0.132
-184.100	37.868	-0.134	0.117
-183.085	414.587	0.042	-0.089
-182.071	-86.529	-0.198	-0.060
-181.056	-100.956	-0.075	0.018
-180.042	-200.000	-0.009	-0.091
-179.027	-200.000	0.032	-0.310
-178.012	-91.378	-0.408	0.115
-176.998	86.797	0.211	0.230
-175.983	375.783	-0.112	-0.225
-174.969	-200.000	0.020	-0.279
-173.954	-115.607	0.033	-0.006
-172.939	33.200	0.111	0.095
-171.925	-200.000	-0.006	0.034
-170.910	-66.801	-0.167	-0.065
-169.896	-200.000	0.005	-0.057
-168.881	-114.350	0.288	-0.055
-167.866	287.024	0.169	-0.302
-166.852	184.005	0.137	-0.201
-165.837	150.930	0.086	-0.116
-164.823	16.306	0.521	-0.407
-163.808	-109.988	0.394	-0.082
-162.793	800.000	-0.035	0.098
-161.779	-30.393	-0.263	0.148
-160.764	-64.459	0.482	0.194
-159.750	-200.000	-0.003	0.101
-158.735	60.375	0.188	-0.184
-157.720	151.711	-0.098	0.131
-156.706	117.896	-0.105	0.128
-155.691	-60.854	-0.103	-0.043
-154.677	-66.691	0.230	-0.090
-153.662	-154.526	0.288	0.019
-152.647	-22.752	-0.285	0.170
-151.633	-65.145	-0.105	-0.042
-150.618	31.003	-0.131	0.111
-149.604	104.240	0.173	-0.201
-148.589	800.000	0.045	0.129
-147.574	-135.596	0.262	0.031
-146.560	-133.305	0.143	0.018
-145.545	24.730	0.236	0.193
-144.531	39.937	0.219	-0.194
-143.516	-19.634	-0.039	-0.024
-142.502	-13.433	0.091	-0.058
-141.487	-25.107	0.254	0.148
-140.472	-7.872	-0.243	0.162
-139.458	-38.945	0.251	0.131
-138.443	-66.168	-0.072	-0.028
-137.429	74.065	-0.257	0.267
-136.414	115.603	-0.109	-0.131
-135.399	-49.008	-0.204	0.096
-134.385	-159.369	-0.208	-0.011
-133.370	192.599	0.305	-0.455
-132.356	99.202	0.098	0.112
-131.341	77.314	-0.394	-0.414
-130.326	94.005	0.121	-0.135
-129.312	-29.605	0.074	-0.042
-128.297	-67.737	-0.242	-0.093
-127.283	171.077	-0.077	0.109
-126.268	800.000	-0.073	0.263
-125.253	-200.000	-0.022	-0.111
-124.239	-75.164	-0.480	0.169
-123.224	-163.271	0.138	0.007
-122.210	800.000	-0.074	0.250
-121.195	-127.102	0.196	0.028
-120.180	-44.829	-0.110	0.054
-119.166	800.000	-0.018	-0.068
-118.151	221.998	0.023	0.037
-117.137	-51.511	0.067	-0.031
-116.122	-48.292	-0.143	0.068
-115.107	267.263	0.073	0.126
-114.093	-59.465	0.142	0.060
-113.078	373.975	0.104	-0.209
-112.064	800.000	-0.047	0.187
-111.049	-95.016	-0.226	0.060
-110.034	-99.467	-0.137	0.034
-109.020	-40.339	0.141	-0.072
-108.005	-72.762	0.134	-0.049
-106.991	234.241	-0.049	0.080
-105.976	320.860	-0.057	-0.106
-104.962	149.527	-0.148	-0.198
-103.947	-18.924	-0.113	0.069
-102.932	-200.000	0.029	-0.346
-101.918	-200.000	-0.037	-0.379
-100.903	141.332	0.193	0.252
-99.889	-200.000	-0.021	0.346
-98.874	126.665	-0.074	0.092
-97.859	456.060	0.065	0.143
-96.845	585.539	-0.218	0.529
-95.830	120.443	-0.059	0.072
-94.816	259.964	-0.238	0.406
-93.801	800.000	0.073	0.253
-92.786	166.194	0.088	-0.122
-91.772	-200.000	0.016	0.086
-90.757	-0.177	0.103	0.072
-89.743	-200.000	0.032	0.200
-88.728	800.000	-0.041	-0.130
-87.713	-200.000	0.036	0.159
-86.699	73.618	0.127	-0.131
-85.684	-91.273	0.124	0.035
-84.670	-141.809	0.121	-0.012
-83.655	-117.272	0.286	0.051
-82.640	-45.202	0.281	-0.138
-81.626	381.417	0.073	-0.148
-80.611	800.000	0.039	0.143
-79.597	-105.217	-0.029	-0.007
-78.582	-26.245	0.150	-0.087
-77.567	625.542	-0.090	-0.224
-76.553	189.695	-0.113	-0.167
-75.538	674.512	-0.064	-0.163
-74.524	129.054	0.032	0.040
-73.509	-200.000	0.014	0.204
-72.494	103.863	0.032	0.037
-71.480	28.765	0.060	-0.050
-70.465	-200.000	0.004	0.232
-69.451	137.937	-0.062	-0.080
-68.436	-18.310	0.121	0.075
-67.422	56.906	0.112	-0.108
-66.407	-84.847	0.284	-0.088
-65.392	19.799	-0.072	-0.057
-64.378	-46.539	0.294	-0.142
-63.363	800.000	0.098	0.349
-62.349	148.492	-0.223	0.296
-61.334	18.151	-1.284	-1.009
-60.319	18.339	0.581	0.457
-59.305	191.597	-0.443	-0.657
-58.290	127.086	0.855	1.067
-57.276	-200.000	0.315	1.402
-56.261	-200.000	95.313	591.887
-55.246	661.001	1365.467	3462.638
-54.232	200.460	2539.548	3841.793
-53.217	119.414	2159.227	2630.982
-52.203	42.872	1705.666	1530.148
-51.188	35.303	1518.536	1310.730
-50.173	32.880	1491.323	1270.897
-49.159	51.995	1539.623	1443.227
-48.144	53.702	1557.412	1471.526
-47.130	35.530	1517.447	1311.134
-46.115	32.365	1502.926	1277.087
-45.100	32.181	1499.862	1273.186
-44.086	32.216	1497.887	1271.697
-43.071	32.086	1495.975	1269.145
-42.057	32.127	1494.399	1268.032
-41.042	32.052	1493.118	1266.393
-40.027	32.096	1491.638	1265.381
-39.013	32.127	1490.136	1264.269
-37.998	32.078	1488.859	1262.806
-36.984	32.180	1487.138	1261.975
-35.969	32.207	1486.124	1261.248
-34.954	32.155	1484.670	1259.617
-33.940	32.070	1483.642	1258.123
-32.925	32.128	1481.998	1257.065
-31.911	32.080	1480.826	1255.703
-30.896	32.251	1479.153	1255.380
-29.881	32.132	1478.071	1253.615
-28.867	32.145	1476.917	1252.672
-27.852	32.233	1474.574	1251.221
-26.838	32.181	1473.893	1250.249
-25.823	32.218	1472.160	1248.973
-24.809	32.211	1470.175	1247.195
-23.794	32.203	1469.165	1246.236
-22.779	32.273	1467.585	1245.309
-21.765	32.168	1466.454	1243.606
-20.750	32.111	1465.886	1242.694
-19.736	32.128	1464.844	1241.875
-18.721	32.044	1463.652	1240.259
-17.706	32.156	1462.283	1239.790
-16.692	32.024	1461.394	1238.120
-15.677	32.129	1460.260	1237.801
-14.663	32.205	1459.018	1237.200
-13.648	32.073	1458.466	1235.813
-12.633	32.135	1457.229	1235.123
-11.619	32.126	1456.260	1234.195
-10.604	32.052	1456.072	1233.502
-9.590	32.073	1454.957	1232.645
-8.575	32.097	1454.162	1232.076
-7.560	32.008	1453.630	1230.995
-6.546	32.015	1452.128	1229.719
-5.531	32.077	1451.276	1229.357
-4.517	32.032	1450.175	1228.078
-3.502	32.018	1448.934	1226.890
-2.487	32.058	1448.267	1226.540
-1.473	32.113	1446.782	1225.589
-0.458	31.979	1445.711	1223.760
0.556	30.859	1436.377	1213.861
1.571	27.945	1411.334	1173.899
2.586	24.567	1351.074	1102.860
3.600	22.860	1270.127	1026.775
4.615	21.530	1223.996	981.937
5.629	18.592	1168.266	921.391
6.644	11.071	1084.993	817.982
7.659	5.302	1045.612	760.218
8.673	4.635	1040.271	753.042
9.688	4.644	1037.101	750.723
10.702	4.472	1035.584	748.727
11.717	4.559	1033.360	747.475
12.731	6.645	1035.433	758.949
13.746	13.485	1044.898	798.925
14.761	18.564	1050.788	827.939
15.775	18.453	1049.990	826.702
16.790	17.470	1047.737	820.123
17.804	16.417	1045.530	813.257
18.819	15.453	1043.856	807.249
19.834	14.981	1042.396	803.780
20.848	14.720	1041.252	801.575
21.863	14.569	1040.215	799.985
22.877	14.370	1039.962	798.762
23.892	14.241	1038.825	797.200
24.907	14.066	1038.432	795.991
25.921	14.135	1037.741	795.720
26.936	14.059	1036.947	794.682
27.950	14.077	1035.868	793.869
28.965	14.112	1034.827	793.169
29.980	14.184	1033.899	792.730
30.994	14.438	1032.240	792.595
32.009	14.336	1031.862	791.751
33.023	14.379	1031.000	791.220
34.038	14.439	1030.265	790.871
35.053	14.370	1029.212	789.667
36.067	14.195	1028.143	787.948
37.082	14.131	1027.697	787.232
38.096	14.272	1026.600	786.992
39.111	14.270	1025.621	786.160
40.126	14.329	1024.921	785.832
41.140	14.278	1023.772	784.643
42.155	14.155	1022.757	783.215
43.169	14.112	1021.530	782.007
44.184	14.141	1020.572	781.337
45.199	14.028	1019.890	780.216
46.213	13.989	1018.587	778.969
47.228	14.152	1017.933	779.165
48.242	14.185	1017.029	778.558
49.257	14.148	1016.128	777.624
50.271	14.267	1014.877	777.154
51.286	14.241	1014.013	776.303
52.301	14.166	1013.580	775.555
53.315	14.256	1012.261	774.895
54.330	14.222	1011.848	774.352
55.344	13.963	1011.003	772.433
56.359	14.099	1009.976	772.209
57.374	14.013	1009.026	771.017
58.388	14.159	1008.233	771.021
59.403	13.916	1007.920	769.585
60.417	14.094	1006.743	769.442
61.432	13.968	1006.260	768.424
62.447	13.894	1005.506	767.436
63.461	13.899	1004.787	766.844
64.476	13.956	1003.399	765.978
65.490	13.931	1002.874	765.394
66.505	13.917	1002.131	764.698
67.520	14.045	1000.999	764.352
68.534	14.008	1000.253	763.546
69.549	13.898	999.653	762.516
70.563	14.001	999.294	762.648
71.578	13.998	998.176	761.712
72.593	13.936	997.258	760.660
73.607	13.820	996.393	759.403
74.622	13.776	995.490	758.445
75.636	13.911	994.269	758.064
76.651	13.764	994.128	757.220
77.666	13.785	993.157	756.508
78.680	13.911	992.223	756.306
79.695	13.929	991.933	756.099
80.709	13.898	991.391	755.477
81.724	13.954	990.578	755.047
82.739	14.013	989.644	754.536
83.753	14.035	989.144	754.187
84.768	14.182	988.256	754.110
85.782	14.278	987.568	753.952
86.797	14.372	987.613	754.346
87.812	14.406	986.038	753.229
88.826	14.319	985.439	752.311
89.841	14.225	984.485	751.096
90.855	14.231	983.568	750.352
91.870	14.207	983.546	750.162
92.884	14.370	982.545	750.065
93.899	14.350	981.984	749.484
94.914	14.410	980.982	748.920
95.928	14.403	980.239	748.254
96.943	14.417	979.621	747.782
97.957	14.323	979.159	746.942
98.972	14.373	977.696	745.981
99.987	14.326	977.433	745.504
101.001	14.459	976.206	745.097
102.016	14.299	976.255	744.355
103.030	14.303	975.028	743.371
104.045	14.380	974.006	742.867
105.060	14.382	972.570	741.716
106.074	14.248	971.956	740.587
107.089	14.172	970.644	739.185
108.103	14.045	970.112	738.148
109.118	14.080	968.715	737.177
110.133	13.981	968.201	736.283
111.147	14.114	967.209	736.053
112.162	13.914	966.559	734.605
113.176	13.994	965.738	734.271
114.191	14.020	964.822	733.622
115.206	14.117	964.120	733.454
116.220	14.161	963.484	733.098
117.235	14.081	962.472	731.912
118.249	14.143	961.748	731.571
119.264	14.013	960.805	730.216
120.279	14.068	960.084	729.846
121.293	13.970	959.263	728.726
122.308	13.967	958.435	728.018
123.322	13.812	957.828	726.815
124.337	13.801	956.411	725.627
125.352	13.866	954.802	724.628
126.366	13.852	953.916	723.828
127.381	13.919	953.124	723.455
128.395	13.922	952.879	723.217
129.410	13.897	951.539	722.027
130.424	13.932	950.877	721.614
131.439	14.011	949.844	721.112
132.454	14.178	948.972	721.108
133.468	14.028	948.312	719.893
134.483	14.125	947.830	719.884
135.497	14.153	946.872	719.214
136.512	14.064	946.284	718.318
137.527	14.061	945.525	717.666
138.541	14.096	944.711	717.137
139.556	14.159	943.969	716.779
140.570	14.149	943.554	716.357
141.585	14.325	942.428	716.198
142.600	14.295	942.196	715.828
143.614	14.376	941.212	715.365
144.629	14.324	940.704	714.693
145.643	14.437	939.923	714.520
146.658	14.396	938.650	713.315
147.673	14.325	937.718	712.239
148.687	14.252	936.682	711.077
149.702	14.227	935.541	710.043
150.716	14.148	935.167	709.358
151.731	14.136	934.256	708.555
152.746	14.221	933.252	708.091
153.760	14.286	932.612	707.818
154.775	14.252	932.029	707.168
155.789	14.371	931.218	706.997
156.804	14.389	930.513	706.476
157.819	14.199	930.030	705.240
158.833	14.379	929.459	705.506
159.848	14.462	928.654	705.187
160.862	14.515	928.049	704.888
161.877	14.480	927.231	704.057
162.892	14.399	926.348	702.983
163.906	14.255	925.790	701.887
164.921	14.143	924.606	700.458
165.935	14.200	923.897	700.097
166.950	14.388	922.699	699.920
167.964	14.369	921.943	699.205
168.979	14.540	920.701	698.918
169.994	14.358	920.098	697.633
171.008	14.331	919.128	696.723
172.023	14.343	918.425	696.181
173.037	14.370	917.992	695.903
174.052	14.657	916.867	696.184
175.067	14.450	916.643	695.089
176.081	14.495	915.240	694.152
177.096	14.316	914.948	693.127
178.110	14.526	913.621	692.933
179.125	14.320	913.231	691.716
180.140	14.410	912.817	691.719
181.154	14.341	912.243	690.935
182.169	14.624	911.368	691.384
183.183	14.398	911.029	690.128
184.198	14.478	910.506	690.003
185.213	14.602	909.260	689.510
186.227	14.623	908.799	689.188
187.242	14.708	908.489	689.240
188.256	14.568	908.154	688.348
189.271	14.710	907.016	688.010
190.286	14.685	906.220	687.241
191.300	14.640	905.193	686.219
192.315	14.517	904.391	685.043
193.329	14.415	904.321	684.512
194.344	14.307	903.181	683.144
195.359	14.396	902.476	682.916
196.373	14.489	902.308	683.107
197.388	14.619	901.937	683.299
198.402	14.729	900.955	682.947
199.417	14.800	900.789	683.050
200.432	14.785	900.673	682.842
201.446	14.803	900.076	682.402
202.461	14.877	899.597	682.278
203.475	14.997	898.971	682.232
204.490	14.952	898.665	681.759
205.504	14.884	897.642	680.644
206.519	14.805	896.851	679.665
207.534	14.804	896.048	678.990
208.548	14.769	895.623	678.467
209.563	14.800	895.070	678.111
210.577	14.942	893.979	677.799
211.592	14.843	893.515	676.989
212.607	15.012	892.957	677.190
213.621	14.966	892.599	676.672
214.636	14.980	891.783	676.049
215.650	14.965	891.485	675.703
216.665	14.973	890.539	674.958
217.680	15.123	890.093	675.168
218.694	15.091	889.860	674.801
219.709	15.066	889.032	674.011
220.723	15.133	888.445	673.777
221.738	15.099	887.791	673.084
222.753	15.179	886.660	672.491
223.767	15.084	886.502	671.930
224.782	15.350	885.200	671.949
225.796	15.224	884.727	671.027
226.811	15.197	884.307	670.540
227.826	15.229	883.482	669.981
228.840	15.149	882.878	669.145
229.855	15.113	882.125	668.374
230.869	15.088	881.207	667.519
231.884	15.159	880.921	667.523
232.899	15.045	879.960	666.285
233.913	15.117	879.378	666.069
234.928	15.141	878.280	665.276
235.942	15.111	877.932	664.832
236.957	15.101	877.246	664.214
237.972	15.082	876.509	663.525
238.986	15.035	876.130	662.993
240.001	15.068	875.163	662.333
241.015	15.096	874.441	661.838
242.030	15.170	874.097	661.813
243.045	15.230	873.350	661.422
244.059	15.215	872.762	660.859
245.074	15.113	872.517	660.216
246.088	15.206	871.709	659.911
247.103	15.225	871.268	659.594
248.117	15.353	870.834	659.710
249.132	15.362	869.899	658.979
250.147	15.635	869.446	659.651
251.161	15.725	868.824	659.471
252.176	15.725	868.290	659.008
253.190	15.803	867.077	658.335
254.205	15.883	866.837	658.407
255.220	15.829	866.484	657.871
256.234	15.855	865.846	657.427
257.249	15.882	864.935	656.785
258.263	15.862	864.919	656.635
259.278	15.782	864.260	655.766
260.293	15.810	863.694	655.388
261.307	15.663	863.648	654.721
262.322	15.911	862.589	654.824
263.336	15.865	862.069	654.192
264.351	15.884	861.569	653.831
265.366	15.978	860.695	653.475
266.380	15.975	860.464	653.230
267.395	15.872	859.656	652.158
268.409	15.947	858.554	651.557
269.424	15.792	858.460	650.827
270.439	15.901	857.650	650.577
271.453	15.920	856.801	649.950
272.468	15.954	855.978	649.397
273.482	15.954	855.272	648.806
274.497	15.953	854.830	648.409
275.512	15.887	853.896	647.387
276.526	15.876	853.421	646.928
277.541	15.799	852.789	646.097
278.555	15.863	852.187	645.830
279.570	15.964	851.695	645.788
280.585	16.079	851.281	645.857
281.599	16.150	850.534	645.503
282.614	16.126	849.706	644.724
283.628	16.002	849.263	643.859
284.643	16.091	848.403	643.488
285.657	16.025	848.333	643.127
286.672	15.875	848.119	642.336
287.687	16.058	847.067	642.180
288.701	16.171	846.687	642.265
289.716	16.155	846.050	641.663
290.730	16.068	845.659	640.981
291.745	16.123	844.947	640.592
292.760	16.223	844.066	640.248
293.774	16.243	843.856	640.109
294.789	16.156	843.166	639.196
295.803	16.480	842.034	639.511
296.818	16.131	841.822	637.973
297.833	16.240	841.152	637.820
298.847	16.242	840.413	637.210
299.862	16.271	839.393	636.491
300.876	16.269	839.280	636.341
301.891	16.422	838.543	636.300
302.906	16.375	838.370	635.937
303.920	16.538	837.051	635.494
304.935	16.643	836.610	635.495
305.949	16.627	836.102	634.996
306.964	16.564	835.384	634.157
307.979	16.545	835.123	633.830
308.993	16.378	834.811	632.911
310.008	16.386	834.320	632.514
311.022	16.442	833.637	632.150
312.037	16.548	832.967	631.983
313.052	16.556	832.623	631.696
314.066	16.323	832.023	630.314
315.081	16.457	831.050	630.021
316.095	16.416	830.460	629.365
317.110	16.368	830.043	628.814
318.125	16.502	829.513	628.856
319.139	16.464	828.873	628.172
320.154	16.391	828.507	627.571
321.168	16.469	827.843	627.299
322.183	16.468	827.352	626.870
323.197	16.623	826.597	626.816
324.212	16.418	826.441	625.885
325.227	16.529	826.056	625.948
326.241	16.570	825.605	625.703
327.256	16.634	824.630	625.143
328.270	16.482	823.992	624.043
329.285	16.572	823.587	624.015
330.300	16.505	822.892	623.183
331.314	16.586	822.577	623.191
332.329	16.571	822.093	622.712
333.343	16.754	821.322	622.746
334.358	16.586	820.708	621.610
335.373	16.690	820.433	621.727
336.387	16.717	819.904	621.370
337.402	16.736	819.065	620.748
338.416	16.872	818.575	620.821
339.431	16.905	818.093	620.522
340.446	17.108	817.724	620.928
341.460	16.887	817.425	619.839
342.475	16.926	817.194	619.752
343.489	17.118	815.918	619.431
344.504	17.030	815.780	618.950
345.519	17.138	814.848	618.581
346.533	17.123	814.776	618.415
347.548	17.148	814.039	617.894
348.562	17.040	813.339	616.917
349.577	16.949	812.615	615.980
350.592	16.894	812.650	615.754
351.606	16.871	812.013	615.131
352.621	16.933	811.268	614.738
353.635	16.791	811.035	613.991
354.650	17.040	810.551	614.472
355.665	17.014	809.870	613.809
356.679	17.057	810.024	614.027
357.694	17.011	809.470	613.386
358.708	17.033	808.714	612.837
359.723	17.048	808.158	612.416
360.738	17.027	807.701	611.941
361.752	17.138	806.814	611.616
362.767	17.209	806.849	611.841
363.781	17.179	806.313	611.275
364.796	17.157	806.098	610.977
365.810	17.282	805.770	611.125
366.825	17.284	805.217	610.660
367.840	17.546	804.729	611.175
368.854	17.379	804.535	610.375
369.869	17.389	803.813	609.808
370.883	17.422	803.055	609.296
371.898	17.395	802.648	608.839
372.913	17.535	801.968	608.768
373.927	17.488	801.274	608.022
374.942	17.470	800.896	607.615
375.956	17.440	800.262	606.975
376.971	17.483	799.893	606.794
377.986	17.488	799.455	606.425
379.000	17.643	798.808	606.431
380.015	17.612	798.785	606.252
381.029	17.851	797.737	606.253
382.044	17.652	797.138	605.038
383.059	17.579	797.056	604.661
384.073	17.764	796.457	604.808
385.088	17.638	795.816	603.821
386.102	17.661	794.960	603.200
387.117	17.467	794.696	602.262
388.132	17.574	794.183	602.195
389.146	17.722	793.489	602.141
390.161	17.642	793.177	601.567
391.175	17.805	792.498	601.575
392.190	17.633	792.725	601.087
393.205	17.733	791.982	600.821
394.219	17.616	791.791	600.214
395.234	17.747	790.832	599.895
396.248	17.699	790.867	599.697
397.263	17.594	790.433	598.948
398.278	17.613	789.775	598.461
399.292	17.601	789.311	598.015
400.307	17.377	789.345	597.202
401.321	17.490	788.429	596.851
402.336	17.579	788.174	596.917
403.350	17.596	787.918	596.730
404.365	17.572	787.487	596.268
405.380	17.605	787.027	595.983
406.394	17.722	786.565	595.989
407.409	17.868	786.249	596.206
408.423	17.839	785.952	595.826
409.438	18.026	785.430	596.030
410.453	18.119	784.474	595.575
411.467	18.021	784.288	595.041
412.482	18.075	784.030	594.983
413.496	18.063	783.712	594.646
414.511	18.040	783.334	594.227
415.526	18.228	782.867	594.473
416.540	18.180	782.612	594.060
417.555	18.045	782.028	593.095
418.569	18.072	781.705	592.892
419.584	18.164	781.009	592.631
420.599	18.012	780.844	591.925
421.613	155.866	1369.243	1794.633
422.628	134.511	1454.967	1794.718
