DTS Sentinel unit serial number:	SN413079Multiplexer serial number:	ORYXHardware model number:	OX4-SRSoftware version number:	ORYX F/W v4.00 Oryx Data Collector v3.7.2.0data status	okinstallation	princeton_trtdifferential loss correction	single-endedforward channel	channel 3reverse channel	N/Adate	2019/09/16time	18:12:35forward acquisition time	60.00reverse acquisition time	0.00gamma	496.2192k internal	0.2302k external	0.2302temperature offset calibration	0.9947default loss term (dB/km)	0.3790temperature slope calibration	1.0000multiplexer offset coefficient	1.0000multiplexer slope coefficient	1.0000fibre end	0.00T internal ref (°C)	37.23T ext. ref 1 (°C)	15.72T ext. ref 2 (°C)	30.82length (m)	temperature (°C)	Stokes	anti-Stokes-747.200	-189.392	-0.072	-0.001
-746.185	-200.000	0.059	0.363
-745.171	35.665	-0.049	0.044
-744.156	143.594	-0.114	0.155
-743.142	370.077	-0.208	-0.429
-742.127	147.633	0.226	-0.310
-741.112	145.682	-0.063	-0.086
-740.098	-125.318	-0.090	0.014
-739.083	-15.724	0.025	-0.016
-738.069	-11.952	0.165	0.110
-737.054	9.112	0.175	-0.135
-736.039	-101.615	0.272	0.067
-735.025	-37.037	0.113	0.061
-734.010	89.676	-0.152	-0.173
-732.996	-1.151	-0.359	0.259
-731.981	-114.363	-0.223	-0.044
-730.966	-32.151	0.272	0.155
-729.952	800.000	-0.111	-0.379
-728.937	172.239	-0.133	0.194
-727.923	800.000	-0.042	0.143
-726.908	-200.000	-0.035	0.292
-725.894	-200.000	0.031	0.241
-724.879	-100.619	0.332	0.084
-723.864	10.279	-0.286	0.222
-722.850	-5.571	0.119	-0.083
-721.835	-129.889	0.022	-0.003
-720.821	-63.982	-0.156	-0.065
-719.806	13.220	-0.134	0.106
-718.791	-19.242	0.136	0.086
-717.777	-17.296	-0.201	0.129
-716.762	439.444	-0.174	-0.387
-715.748	596.076	0.037	0.093
-714.733	-53.474	-0.138	0.064
-713.718	800.000	-0.055	0.159
-712.704	-38.479	-0.279	-0.150
-711.689	-23.881	-0.115	-0.070
-710.675	-200.000	0.006	-0.130
-709.660	49.774	0.243	-0.233
-708.645	434.355	0.132	-0.292
-707.631	-200.000	-0.011	-0.110
-706.616	-200.000	-0.023	-0.129
-705.602	-90.892	0.220	-0.064
-704.587	-127.451	-0.220	-0.033
-703.572	-95.873	-0.269	0.073
-702.558	-130.854	0.148	-0.020
-701.543	74.623	-0.197	-0.211
-700.529	800.000	0.100	0.375
-699.514	159.872	-0.124	0.176
-698.499	105.750	-0.131	-0.158
-697.485	23.268	0.128	-0.107
-696.470	237.348	0.103	-0.173
-695.456	108.099	-0.083	-0.101
-694.441	-200.000	0.018	0.380
-693.426	-96.835	0.304	-0.081
-692.412	-200.000	-0.003	-0.087
-691.397	635.458	-0.087	0.225
-690.383	-103.652	-0.398	-0.095
-689.368	752.580	0.097	0.267
-688.354	-186.508	-0.049	-0.001
-687.339	181.772	0.151	-0.226
-686.324	35.117	-0.266	-0.237
-685.310	638.641	-0.100	-0.260
-684.295	60.477	0.445	-0.448
-683.281	-200.000	0.036	-0.173
-682.266	-44.169	-0.114	0.058
-681.251	-157.193	-0.214	-0.013
-680.237	-114.540	-0.130	-0.025
-679.222	-155.916	-0.110	-0.007
-678.208	-52.308	-0.077	-0.036
-677.193	10.390	-0.163	-0.126
-676.178	58.060	0.202	-0.201
-675.164	294.095	-0.036	0.067
-674.149	258.150	-0.106	-0.186
-673.135	-120.100	-0.238	-0.041
-672.120	108.536	-0.097	-0.117
-671.105	348.286	0.083	0.167
-670.091	304.787	-0.132	-0.249
-669.076	-95.609	0.229	-0.062
-668.062	-104.649	-0.129	0.030
-667.047	800.000	-0.054	0.190
-666.032	-54.961	-0.385	-0.176
-665.018	-76.639	-0.173	-0.062
-664.003	124.651	0.300	-0.384
-662.989	-200.000	0.040	-0.298
-661.974	-74.574	-0.367	-0.134
-660.959	285.349	-0.155	-0.283
-659.945	11.996	-0.113	-0.088
-658.930	-200.000	0.004	0.185
-657.916	79.728	-0.112	0.122
-656.901	-147.354	0.410	0.035
-655.886	343.477	-0.118	-0.235
-654.872	-59.449	0.323	-0.141
-653.857	587.098	-0.153	-0.383
-652.843	-43.039	0.145	-0.075
-651.828	112.143	0.014	0.017
-650.814	-39.049	0.254	0.136
-649.799	-117.005	-0.107	0.020
-648.784	-200.000	0.002	-0.107
-647.770	14.399	-0.103	-0.081
-646.755	38.252	-0.042	0.038
-645.741	-91.910	-0.079	-0.023
-644.726	66.234	-0.275	0.283
-643.711	-200.000	0.007	0.326
-642.697	38.929	-0.110	0.100
-641.682	140.160	-0.043	-0.058
-640.668	121.992	0.042	0.053
-639.653	-130.493	0.291	-0.040
-638.638	-62.518	0.081	0.034
-637.624	-200.000	0.035	0.221
-636.609	-200.000	-0.023	0.203
-635.595	114.143	-0.179	-0.222
-634.580	33.453	-0.066	0.058
-633.565	21.378	-0.216	0.178
-632.551	54.338	0.174	0.170
-631.536	410.691	-0.156	-0.337
-630.522	-61.097	-0.124	-0.053
-629.507	-92.095	-0.169	-0.049
-628.492	-106.655	0.076	-0.017
-627.478	242.392	-0.048	0.081
-626.463	-62.605	-0.278	0.117
-625.449	-72.569	0.360	-0.135
-624.434	268.947	-0.073	-0.129
-623.419	800.000	-0.127	0.372
-622.405	-41.966	0.062	-0.032
-621.390	-72.147	-0.121	0.046
-620.376	56.705	0.208	0.206
-619.361	554.336	-0.060	0.147
-618.346	343.919	0.123	-0.244
-617.332	67.758	0.207	-0.215
-616.317	173.206	-0.137	-0.200
-615.303	-200.000	-0.016	-0.316
-614.288	172.109	-0.072	0.105
-613.273	-147.031	-0.093	0.008
-612.259	-181.466	-0.188	-0.004
-611.244	-200.000	-0.011	-0.209
-610.230	7.403	0.339	0.257
-609.215	-66.922	-0.076	0.030
-608.201	34.300	0.182	0.161
-607.186	800.000	0.036	-0.134
-606.171	-169.899	-0.245	0.009
-605.157	-26.011	0.248	-0.148
-604.142	-200.000	-0.011	-0.074
-603.128	-119.594	0.229	-0.040
-602.113	60.607	-0.147	0.147
-601.098	-145.018	-0.058	0.005
-600.084	-81.158	-0.182	0.061
-599.069	43.605	0.094	-0.087
-598.055	71.779	-0.039	-0.041
-597.040	-19.467	-0.158	-0.099
-596.025	800.000	-0.004	-0.013
-595.011	-192.305	0.229	-0.002
-593.996	422.939	0.134	-0.292
-592.982	-70.096	-0.311	-0.120
-591.967	-94.746	0.182	-0.050
-590.952	267.440	-0.165	-0.292
-589.938	74.288	-0.021	0.022
-588.923	53.812	-0.070	0.068
-587.909	-19.135	-0.070	-0.044
-586.894	27.294	-0.280	0.238
-585.879	-137.651	0.147	0.017
-584.865	-157.006	0.110	-0.007
-583.850	-51.194	0.113	0.054
-582.836	30.118	-0.254	-0.219
-581.821	186.119	0.135	0.203
-580.806	-83.050	-0.071	0.023
-579.792	-200.000	-0.086	0.457
-578.777	225.092	-0.011	-0.018
-577.763	-200.000	0.018	0.168
-576.748	124.048	-0.144	-0.183
-575.733	633.431	-0.037	-0.096
-574.719	106.415	0.203	-0.244
-573.704	37.039	-0.149	-0.134
-572.690	-7.289	-0.056	0.038
-571.675	-200.000	0.019	0.286
-570.661	17.111	-0.125	-0.100
-569.646	800.000	0.042	0.167
-568.631	149.673	0.142	0.195
-567.617	800.000	0.071	-0.212
-566.602	-21.414	0.123	-0.076
-565.588	-11.494	-0.162	-0.108
-564.573	200.880	-0.110	-0.171
-563.558	-64.587	-0.291	0.120
-562.544	-200.000	0.003	-0.035
-561.529	406.546	0.147	-0.314
-560.515	-124.833	0.186	0.029
-559.500	800.000	0.008	0.026
-558.485	71.416	-0.023	-0.024
-557.471	-200.000	-0.027	-0.300
-556.456	606.932	-0.037	-0.092
-555.442	-200.000	0.010	0.125
-554.427	-48.425	-0.209	-0.102
-553.412	225.318	0.115	0.188
-552.398	122.124	-0.230	-0.290
-551.383	541.253	-0.110	-0.266
-550.369	-103.273	0.086	0.021
-549.354	-200.000	0.032	-0.289
-548.339	800.000	0.045	-0.127
-547.325	-200.000	-0.006	-0.229
-546.310	6.781	0.190	0.143
-545.296	-46.435	0.267	-0.133
-544.281	414.128	-0.038	-0.082
-543.266	800.000	-0.096	0.298
-542.252	-200.000	0.011	0.060
-541.237	800.000	0.073	-0.235
-540.223	252.487	0.106	-0.182
-539.208	4.856	0.284	-0.211
-538.193	216.759	-0.050	-0.081
-537.179	-200.000	0.030	0.281
-536.164	-200.000	0.043	-0.375
-535.150	-147.186	-0.282	-0.024
-534.135	188.081	0.038	0.058
-533.121	800.000	-0.026	-0.093
-532.106	-200.000	0.006	-0.050
-531.091	-107.434	0.312	-0.069
-530.077	328.593	0.108	0.210
-529.062	-135.990	0.113	0.013
-528.048	-14.030	-0.150	-0.098
-527.033	-112.179	0.106	-0.022
-526.018	217.946	-0.044	-0.071
-525.004	320.333	-0.124	-0.237
-523.989	-89.132	-0.257	0.077
-522.975	122.100	-0.254	-0.320
-521.960	-97.015	0.375	-0.099
-520.945	9.983	0.082	0.063
-519.931	800.000	0.034	0.096
-518.916	-56.076	0.124	-0.056
-517.902	-200.000	-0.044	0.282
-516.887	377.140	0.064	-0.131
-515.872	116.494	0.148	0.183
-514.858	800.000	-0.148	0.500
-513.843	77.818	0.035	-0.037
-512.829	75.973	-0.030	0.032
-511.814	-157.407	0.165	-0.010
-510.799	800.000	-0.031	-0.093
-509.785	-200.000	0.024	-0.200
-508.770	-200.000	0.007	0.122
-507.756	-86.163	0.317	-0.099
-506.741	-55.001	-0.277	-0.126
-505.726	238.925	0.164	-0.275
-504.712	800.000	0.116	0.397
-503.697	-200.000	0.007	-0.105
-502.683	-200.000	0.023	-0.197
-501.668	-200.000	0.033	-0.178
-500.653	-43.138	-0.142	0.073
-499.639	-78.573	-0.265	0.091
-498.624	800.000	-0.083	-0.283
-497.610	-200.000	0.063	0.391
-496.595	-73.573	-0.431	0.159
-495.581	800.000	0.122	0.371
-494.566	-35.684	-0.364	-0.199
-493.551	119.911	-0.073	0.091
-492.537	125.570	-0.055	-0.070
-491.522	-200.000	0.061	0.315
-490.508	-125.137	0.210	0.032
-489.493	482.506	-0.011	-0.025
-488.478	352.548	-0.130	-0.260
-487.464	37.808	-0.217	-0.195
-486.449	-97.545	0.210	0.055
-485.435	120.443	-0.232	-0.290
-484.420	125.155	-0.050	-0.064
-483.405	-149.719	0.045	0.004
-482.391	-126.886	-0.221	-0.033
-481.376	-93.981	0.468	-0.130
-480.362	-200.000	0.048	0.411
-479.347	675.965	-0.155	0.405
-478.332	-121.088	0.241	0.041
-477.318	15.973	-0.110	-0.088
-476.303	40.320	-0.211	-0.192
-475.289	-127.326	0.282	-0.041
-474.274	-95.592	0.265	0.072
-473.259	-82.193	0.080	-0.026
-472.245	-100.416	0.286	-0.071
-471.230	-128.863	-0.143	-0.020
-470.216	-118.131	0.173	0.031
-469.201	-86.574	0.272	0.084
-468.186	-36.040	-0.250	0.136
-467.172	-200.000	-0.006	0.292
-466.157	-55.341	-0.331	-0.150
-465.143	-200.000	0.031	-0.391
-464.128	501.699	-0.148	-0.345
-463.113	-9.733	-0.199	0.134
-462.099	-139.460	-0.503	0.054
-461.084	-76.288	-0.053	-0.019
-460.070	33.177	0.463	-0.405
-459.055	-66.161	0.235	-0.094
-458.040	-50.522	0.159	0.076
-457.026	-182.820	0.276	-0.005
-456.011	59.244	0.187	-0.185
-454.997	-200.000	0.050	-0.301
-453.982	144.723	0.085	-0.114
-452.968	452.571	0.144	-0.320
-451.953	117.960	-0.108	-0.134
-450.938	201.110	0.207	-0.321
-449.924	-70.574	0.207	-0.079
-448.909	173.658	0.137	0.200
-447.895	-145.926	0.159	0.014
-446.880	-92.818	-0.163	-0.046
-445.865	800.000	0.048	-0.196
-444.851	199.222	0.152	-0.235
-443.836	79.814	0.062	-0.067
-442.822	-200.000	0.011	-0.149
-441.807	-6.989	-0.326	0.223
-440.792	800.000	-0.096	0.269
-439.778	-200.000	-0.012	-0.058
-438.763	390.970	-0.165	0.346
-437.749	22.752	-0.053	-0.044
-436.734	-93.703	0.206	-0.057
-435.719	226.994	0.102	0.167
-434.705	800.000	-0.122	0.346
-433.690	18.187	0.330	0.265
-432.676	33.741	-0.090	-0.078
-431.661	800.000	0.047	0.167
-430.646	-200.000	-0.001	0.150
-429.632	-200.000	-0.035	-0.157
-428.617	-102.364	0.151	0.036
-427.603	800.000	0.048	0.179
-426.588	-67.976	0.106	-0.042
-425.573	87.299	-0.127	0.141
-424.559	110.588	-0.117	0.141
-423.544	343.133	0.051	0.101
-422.530	-123.945	-0.238	0.038
-421.515	800.000	-0.072	0.251
-420.500	800.000	0.023	0.085
-419.486	86.430	0.139	-0.154
-418.471	204.134	0.209	-0.326
-417.457	84.757	0.097	0.107
-416.442	-2.623	0.216	0.152
-415.428	-50.209	0.368	0.175
-414.413	800.000	0.076	0.325
-413.398	-135.039	-0.243	0.029
-412.384	23.037	-0.146	-0.121
-411.369	234.193	-0.033	0.055
-410.355	-25.095	0.171	-0.102
-409.340	-149.372	0.241	0.019
-408.325	800.000	-0.067	0.255
-407.311	122.998	-0.078	-0.098
-406.296	393.147	-0.127	0.267
-405.282	800.000	0.010	-0.042
-404.267	-21.265	0.105	0.064
-403.252	27.876	0.258	-0.219
-402.238	-16.867	0.087	-0.055
-401.223	-83.023	0.072	-0.023
-400.209	800.000	-0.036	-0.150
-399.194	-31.516	0.101	-0.057
-398.179	588.207	-0.050	0.124
-397.165	-58.543	-0.122	0.053
-396.150	351.648	-0.159	-0.316
-395.136	263.576	0.184	-0.321
-394.121	545.155	0.060	0.145
-393.106	-200.000	0.003	-0.131
-392.092	269.446	0.036	0.064
-391.077	332.762	-0.101	-0.197
-390.063	193.229	-0.139	0.211
-389.048	-200.000	0.077	-0.419
-388.033	-113.967	0.271	0.053
-387.019	342.465	-0.177	0.348
-386.004	-87.244	-0.113	0.034
-384.990	-13.285	0.114	0.074
-383.975	-17.212	0.186	0.118
-382.960	-200.000	-0.025	-0.167
-381.946	-120.430	0.260	-0.044
-380.931	-18.166	0.166	0.104
-379.917	88.859	0.088	0.099
-378.902	102.939	-0.074	-0.087
-377.888	-26.073	-0.124	0.073
-376.873	-63.243	-0.148	0.061
-375.858	184.004	-0.183	0.272
-374.844	-133.317	-0.196	-0.025
-373.829	-0.342	-0.139	0.099
-372.815	-114.880	-0.411	-0.079
-371.800	-18.777	-0.285	0.179
-370.785	-200.000	-0.021	-0.205
-369.771	-12.636	-0.052	0.034
-368.756	-154.278	0.190	0.013
-367.742	-16.648	-0.376	-0.239
-366.727	597.890	0.104	-0.258
-365.712	263.650	0.128	0.224
-364.698	-33.349	-0.076	-0.042
-363.683	-200.000	-0.011	0.104
-362.669	324.402	0.176	0.337
-361.654	183.988	0.230	0.341
-360.639	29.023	0.163	0.138
-359.625	615.156	-0.116	0.292
-358.610	39.425	0.126	0.114
-357.596	-200.000	0.027	-0.293
-356.581	-17.797	0.160	0.101
-355.566	97.991	0.072	0.083
-354.552	-200.000	0.015	-0.219
-353.537	-200.000	-0.112	-0.000
-352.523	228.627	-0.109	0.178
-351.508	164.275	0.054	-0.076
-350.493	-200.000	0.024	0.338
-349.479	379.695	-0.061	-0.125
-348.464	-200.000	-0.025	0.287
-347.450	-123.206	-0.237	0.038
-346.435	-93.974	0.211	0.058
-345.420	-200.000	0.035	-0.170
-344.406	14.210	-0.154	0.120
-343.391	-82.521	0.154	0.050
-342.377	50.871	-0.134	-0.128
-341.362	800.000	0.088	-0.262
-340.348	208.645	0.020	-0.031
-339.333	552.658	-0.017	-0.042
-338.318	-200.000	0.051	0.319
-337.304	800.000	-0.056	0.219
-336.289	144.817	-0.080	0.107
-335.275	-200.000	-0.011	0.073
-334.260	-200.000	-0.012	0.090
-333.245	556.272	-0.051	0.124
-332.231	79.882	-0.289	0.312
-331.216	-106.790	-0.234	-0.052
-330.202	-77.531	0.424	0.148
-329.187	-135.149	-0.177	-0.021
-328.172	-86.231	0.294	0.091
-327.158	46.623	-0.167	-0.156
-326.143	33.584	0.267	0.233
-325.129	20.932	-0.250	0.203
-324.114	-200.000	-0.017	0.103
-323.099	-109.818	0.090	0.019
-322.085	-98.387	-0.240	0.062
-321.070	800.000	-0.057	0.205
-320.056	800.000	-0.085	0.355
-319.041	-200.000	-0.039	0.207
-318.026	-89.084	-0.085	0.025
-317.012	39.635	0.111	0.100
-315.997	800.000	0.039	0.157
-314.983	-154.216	-0.145	0.010
-313.968	117.316	-0.134	0.165
-312.953	800.000	0.032	0.104
-311.939	261.107	0.034	-0.059
-310.924	-54.077	0.250	-0.114
-309.910	572.219	-0.064	-0.155
-308.895	26.336	0.223	0.187
-307.880	47.488	-0.226	-0.211
-306.866	-79.366	0.194	0.066
-305.851	76.346	0.124	0.131
-304.837	-200.000	-0.048	-0.431
-303.822	74.890	-0.114	-0.120
-302.807	-200.000	0.024	-0.561
-301.793	-74.206	-0.339	0.123
-300.778	-200.000	0.013	0.108
-299.764	800.000	-0.030	-0.089
-298.749	195.932	0.185	-0.282
-297.735	800.000	-0.064	0.182
-296.720	-200.000	-0.003	0.030
-295.705	95.411	-0.089	0.102
-294.691	-200.000	-0.004	-0.148
-293.676	324.644	0.083	-0.159
-292.662	-123.701	-0.247	-0.039
-291.647	658.350	-0.032	-0.082
-290.632	209.521	-0.112	0.176
-289.618	284.228	-0.136	-0.245
-288.603	-61.095	-0.238	0.100
-287.589	-91.914	-0.160	0.045
-286.574	800.000	0.079	-0.271
-285.559	-18.240	0.168	0.105
-284.545	-39.923	-0.134	0.070
-283.530	-200.000	-0.002	-0.460
-282.516	-8.324	-0.049	-0.033
-281.501	175.796	0.034	-0.049
-280.486	800.000	0.020	-0.056
-279.472	-88.489	0.068	-0.020
-278.457	-163.185	-0.101	-0.005
-277.443	-80.095	-0.077	-0.026
-276.428	-46.990	-0.009	-0.004
-275.413	-9.958	-0.138	-0.092
-274.399	-45.253	0.552	0.274
-273.384	48.934	0.219	0.206
-272.370	800.000	-0.071	0.226
-271.355	-51.384	-0.180	0.084
-270.340	800.000	-0.087	-0.264
-269.326	173.821	0.211	0.305
-268.311	-93.105	-0.056	-0.016
-267.297	-200.000	-0.043	0.235
-266.282	-200.000	0.028	0.159
-265.267	-149.663	-0.115	0.009
-264.253	-36.904	-0.460	-0.247
-263.238	-200.000	0.021	-0.300
-262.224	-80.055	0.276	0.093
-261.209	-126.606	0.284	0.042
-260.195	25.801	-0.186	0.155
-259.180	47.113	0.294	-0.273
-258.165	-90.176	0.279	-0.081
-257.151	34.729	0.137	0.120
-256.136	-89.648	0.063	0.019
-255.122	285.553	-0.176	0.317
-254.107	382.221	-0.041	-0.084
-253.092	800.000	0.066	-0.269
-252.078	-34.090	0.254	-0.140
-251.063	425.935	0.070	0.152
-250.049	33.680	0.294	-0.255
-249.034	-123.243	0.235	-0.038
-248.019	-109.737	0.285	0.060
-247.005	717.562	0.114	0.302
-245.990	-200.000	-0.006	-0.087
-244.976	-200.000	-0.065	-0.300
-243.961	80.199	0.128	-0.138
-242.946	79.474	-0.152	0.163
-241.932	262.771	-0.114	0.197
-240.917	-96.717	-0.446	-0.117
-239.903	-200.000	-0.006	-0.181
-238.888	371.812	-0.084	0.170
-237.873	-200.000	0.003	-0.243
-236.859	212.698	-0.203	0.320
-235.844	-124.086	-0.300	-0.047
-234.830	-200.000	-0.009	0.050
-233.815	28.332	-0.159	0.135
-232.800	800.000	0.054	0.174
-231.786	762.111	-0.116	0.314
-230.771	31.805	-0.154	-0.133
-229.757	104.758	0.316	-0.372
-228.742	-200.000	0.014	0.182
-227.727	800.000	-0.076	0.245
-226.713	-4.838	0.273	0.188
-225.698	-139.325	-0.560	0.060
-224.684	231.787	-0.066	-0.108
-223.669	-200.000	-0.028	0.140
-222.655	-174.662	-0.267	-0.008
-221.640	13.855	0.053	0.041
-220.625	-66.087	0.242	0.096
-219.611	-116.611	-0.401	0.074
-218.596	-22.521	0.131	-0.079
-217.582	-200.000	-0.041	0.194
-216.567	157.968	-0.032	-0.044
-215.552	28.358	-0.182	0.153
-214.538	-61.247	0.109	-0.046
-213.523	397.614	0.041	0.086
-212.509	140.608	-0.206	-0.272
-211.494	-54.141	-0.212	0.096
-210.479	800.000	0.038	0.140
-209.465	-200.000	0.025	-0.245
-208.450	-95.134	-0.377	0.102
-207.436	366.712	-0.071	0.143
-206.421	800.000	-0.069	-0.302
-205.406	-3.085	0.120	-0.083
-204.392	-200.000	0.008	0.116
-203.377	-92.827	-0.205	0.057
-202.363	-190.169	-0.120	0.001
-201.348	-200.000	-0.017	0.135
-200.333	-76.440	-0.103	-0.036
-199.319	-15.145	0.400	-0.256
-198.304	727.030	-0.088	-0.235
-197.290	-149.369	-0.125	-0.010
-196.275	212.656	0.067	-0.105
-195.260	628.527	-0.075	0.189
-194.246	81.693	-0.191	0.206
-193.231	-189.335	0.293	0.003
-192.217	97.112	0.175	-0.201
-191.202	13.953	0.192	-0.149
-190.187	298.407	-0.013	0.025
-189.173	-200.000	-0.021	0.240
-188.158	-200.000	-0.025	-0.344
-187.144	-80.223	0.200	-0.067
-186.129	82.345	-0.194	0.210
-185.114	49.529	-0.123	-0.116
-184.100	25.992	0.253	-0.210
-183.085	-55.942	-0.294	-0.131
-182.071	60.038	0.267	-0.263
-181.056	-55.759	0.243	0.108
-180.042	420.118	0.260	-0.554
-179.027	-24.200	-0.113	0.067
-178.012	-72.129	0.301	-0.112
-176.998	54.814	0.160	-0.154
-175.983	124.850	-0.183	-0.230
-174.969	-156.524	0.161	0.010
-173.954	800.000	-0.062	-0.193
-172.939	-200.000	0.049	-0.324
-171.925	-107.306	-0.223	-0.049
-170.910	48.751	0.209	-0.195
-169.896	-100.247	-0.172	0.043
-168.881	165.773	-0.143	-0.201
-167.866	-32.550	-0.280	0.155
-166.852	123.243	-0.400	0.500
-165.837	-200.000	-0.034	-0.289
-164.823	-114.448	-0.076	0.015
-163.808	-61.083	0.302	0.127
-162.793	117.867	0.207	0.254
-161.779	6.805	0.356	0.264
-160.764	175.611	-0.082	0.118
-159.750	800.000	-0.063	-0.222
-158.735	-200.000	-0.028	-0.152
-157.720	599.615	-0.072	-0.178
-156.706	-200.000	-0.022	0.273
-155.691	800.000	0.050	0.144
-154.677	63.725	0.125	0.125
-153.662	-200.000	0.026	0.178
-152.647	61.062	0.241	0.239
-151.633	-70.324	0.280	-0.106
-150.618	800.000	0.065	-0.192
-149.604	107.628	-0.148	0.176
-148.589	476.337	-0.156	0.352
-147.574	219.849	0.129	0.206
-146.560	32.478	0.161	-0.139
-145.545	-82.125	0.276	0.090
-144.531	39.600	-0.069	-0.062
-143.516	47.461	0.045	-0.042
-142.502	41.213	-0.325	0.292
-141.487	-37.816	0.357	0.189
-140.472	-83.310	0.116	-0.037
-139.458	-179.850	0.312	0.007
-138.443	197.495	0.055	0.083
-137.429	588.608	0.076	-0.186
-136.414	-200.000	0.019	0.197
-135.399	299.615	-0.127	-0.233
-134.385	-82.711	0.281	0.090
-133.370	333.074	0.171	0.329
-132.356	-75.856	0.301	-0.106
-131.341	-139.865	0.182	0.019
-130.326	-65.245	-0.174	0.070
-129.312	-200.000	-0.053	-0.358
-128.297	-43.101	-0.190	-0.096
-127.283	-30.540	0.075	0.043
-126.268	-200.000	0.005	-0.157
-125.253	-200.000	-0.017	0.133
-124.239	-200.000	0.028	-0.207
-123.224	408.608	0.175	-0.368
-122.210	-200.000	-0.015	-0.140
-121.195	-171.549	0.404	0.013
-120.180	160.468	0.010	0.014
-119.166	-20.376	0.310	-0.190
-118.151	-163.078	-0.234	-0.011
-117.137	-80.083	-0.289	-0.096
-116.122	-77.617	-0.218	0.075
-115.107	-25.737	0.085	0.050
-114.093	-200.000	-0.005	0.236
-113.078	-10.079	0.090	0.060
-112.064	127.095	-0.181	-0.228
-111.049	800.000	0.055	0.198
-110.034	102.739	0.071	-0.083
-109.020	268.834	-0.161	-0.281
-108.005	24.573	-0.023	-0.019
-106.991	-43.809	-0.220	-0.110
-105.976	606.387	-0.123	-0.306
-104.962	180.746	0.108	0.157
-103.947	-129.841	-0.169	0.023
-102.932	-121.988	-0.277	0.045
-101.918	-200.000	-0.093	-0.594
-100.903	800.000	-0.057	0.186
-99.889	800.000	0.064	-0.184
-98.874	61.606	0.130	-0.129
-97.859	-98.914	-0.189	0.048
-96.845	191.769	0.231	-0.345
-95.830	-49.244	-0.212	0.100
-94.816	-200.000	-0.012	-0.116
-93.801	800.000	-0.036	-0.104
-92.786	-112.676	0.342	-0.067
-91.772	800.000	0.184	0.619
-90.757	196.330	-0.016	0.025
-89.743	2.175	-0.326	-0.234
-88.728	788.082	0.040	-0.109
-87.713	-200.000	0.071	-0.401
-86.699	-200.000	-0.020	-0.119
-85.684	-200.000	-0.082	0.000
-84.670	349.597	-0.042	-0.082
-83.655	-90.045	-0.042	0.012
-82.640	-78.482	-0.164	-0.056
-81.626	-200.000	0.000	0.022
-80.611	-200.000	0.003	-0.126
-79.597	-91.740	-0.329	0.093
-78.582	800.000	-0.080	-0.281
-77.567	15.373	0.181	-0.141
-76.553	5.827	0.180	0.132
-75.538	312.725	0.145	0.270
-74.524	-0.218	-0.321	0.227
-73.509	331.194	0.127	0.242
-72.494	-200.000	-0.023	0.139
-71.480	-197.922	0.230	0.001
-70.465	-121.277	0.194	-0.032
-69.451	-200.000	-0.007	-0.150
-68.436	197.960	-0.174	-0.264
-67.422	-78.549	0.019	-0.006
-66.407	12.301	0.213	0.163
-65.392	-34.166	0.159	-0.086
-64.378	166.188	-0.260	0.365
-63.363	309.802	-0.137	0.253
-62.349	-200.000	0.009	-0.080
-61.334	52.299	-0.696	-0.659
-60.319	-200.000	-0.046	0.585
-59.305	-200.000	0.041	-0.675
-58.290	319.870	0.376	0.709
-57.276	800.000	0.412	1.499
-56.261	-200.000	89.914	520.912
-55.246	487.581	1382.609	3129.778
-54.232	150.150	2578.802	3470.515
-53.217	114.113	2209.288	2665.849
-52.203	47.490	1739.497	1608.287
-51.188	40.295	1546.727	1380.090
-50.173	37.906	1518.191	1338.206
-49.159	54.963	1565.573	1499.232
-48.144	59.187	1585.271	1547.496
-47.130	40.755	1542.472	1379.274
-46.115	37.478	1527.250	1343.019
-45.100	37.285	1523.802	1338.610
-44.086	37.227	1521.922	1336.505
-43.071	37.181	1519.900	1334.361
-42.057	37.136	1518.320	1332.611
-41.042	37.197	1516.914	1331.742
-40.027	37.203	1515.943	1330.878
-39.013	37.109	1514.103	1328.565
-37.998	37.196	1513.077	1328.210
-36.984	37.240	1511.433	1327.012
-35.969	37.207	1510.112	1325.572
-34.954	37.193	1508.873	1324.337
-33.940	37.200	1507.213	1322.875
-32.925	37.286	1505.883	1322.244
-31.911	37.314	1504.657	1321.302
-30.896	37.315	1503.021	1319.822
-29.881	37.261	1502.324	1318.791
-28.867	37.317	1500.650	1317.651
-27.852	37.270	1499.071	1315.892
-26.838	37.289	1497.409	1314.508
-25.823	37.214	1496.288	1312.963
-24.809	37.223	1494.375	1311.296
-23.794	37.227	1493.313	1310.337
-22.779	37.225	1492.035	1309.154
-21.765	37.265	1490.575	1308.088
-20.750	37.405	1489.322	1307.881
-19.736	37.338	1488.495	1306.649
-18.721	37.287	1487.452	1305.342
-17.706	37.300	1486.307	1304.369
-16.692	37.219	1485.448	1303.019
-15.677	37.207	1484.538	1302.091
-14.663	37.206	1483.145	1300.807
-13.648	37.165	1482.554	1299.965
-12.633	37.212	1481.247	1299.081
-11.619	37.217	1480.380	1298.305
-10.604	37.222	1479.543	1297.551
-9.590	37.183	1478.882	1296.660
-8.575	37.266	1477.450	1295.906
-7.560	37.273	1476.942	1295.456
-6.546	37.240	1476.010	1294.371
-5.531	37.129	1475.236	1292.896
-4.517	37.174	1474.453	1292.464
-3.502	37.160	1473.367	1291.365
-2.487	37.207	1471.856	1290.301
-1.473	37.120	1471.231	1289.126
-0.458	37.134	1469.771	1287.886
0.556	35.342	1459.455	1275.725
1.571	31.892	1432.599	1229.562
2.586	27.643	1369.337	1148.469
3.600	25.455	1285.082	1064.757
4.615	23.895	1237.788	1016.571
5.629	22.854	1185.912	968.174
6.644	19.553	1108.242	887.741
7.659	16.450	1069.941	841.558
8.673	15.940	1064.527	834.699
9.688	15.698	1061.649	831.173
10.702	15.631	1060.274	829.692
11.717	15.622	1058.495	828.183
12.731	16.917	1058.974	834.867
13.746	19.773	1062.134	851.367
14.761	20.173	1061.611	852.838
15.775	18.437	1058.073	841.404
16.790	17.038	1055.569	832.478
17.804	16.030	1052.895	825.361
18.819	15.025	1051.334	819.151
19.834	14.352	1049.721	814.530
20.848	13.964	1048.248	811.419
21.863	13.672	1047.777	809.556
22.877	13.379	1047.167	807.584
23.892	13.279	1046.001	806.128
24.907	13.343	1044.999	805.597
25.921	13.319	1044.055	804.679
26.936	13.320	1043.512	804.197
27.950	13.254	1042.662	803.150
28.965	13.259	1041.584	802.271
29.980	13.332	1040.585	801.783
30.994	13.582	1039.058	801.749
32.009	13.388	1038.630	800.408
33.023	13.482	1037.967	800.278
34.038	13.569	1036.551	799.535
35.053	13.419	1036.285	798.539
36.067	13.464	1034.729	797.485
37.082	13.450	1033.876	796.688
38.096	13.420	1033.136	795.905
39.111	13.485	1032.578	795.717
40.126	13.560	1031.108	794.875
41.140	13.523	1030.222	793.940
42.155	13.259	1029.382	791.962
43.169	13.221	1029.017	791.428
44.184	13.126	1027.777	789.949
45.199	13.154	1026.770	789.241
46.213	13.220	1025.723	788.678
47.228	13.228	1024.840	787.971
48.242	13.348	1023.565	787.489
49.257	13.318	1022.904	786.768
50.271	13.285	1021.969	785.822
51.286	13.455	1020.773	785.642
52.301	13.350	1020.109	784.561
53.315	13.345	1019.140	783.725
54.330	13.359	1018.398	783.150
55.344	13.291	1017.839	782.328
56.359	13.215	1016.825	781.122
57.374	13.341	1015.652	780.749
58.388	13.393	1014.926	780.367
59.403	13.246	1014.279	779.107
60.417	13.196	1013.689	778.347
61.432	13.219	1012.849	777.741
62.447	13.238	1012.165	777.238
63.461	13.109	1011.510	776.060
64.476	13.137	1010.198	775.118
65.490	13.192	1009.251	774.576
66.505	13.094	1008.792	773.697
67.520	13.276	1007.453	773.454
68.534	13.233	1006.671	772.586
69.549	13.239	1006.503	772.417
70.563	13.179	1005.276	771.126
71.578	13.298	1004.400	770.939
72.593	13.109	1004.183	769.826
73.607	13.058	1002.889	768.525
74.622	13.076	1001.854	767.748
75.636	13.075	1001.244	767.211
76.651	13.121	1000.540	766.815
77.666	13.093	999.986	766.195
78.680	13.108	999.137	765.546
79.695	13.113	998.583	765.078
80.709	13.136	997.677	764.420
81.724	13.211	997.059	764.224
82.739	13.128	996.361	763.240
83.753	13.073	996.261	762.842
84.768	13.344	994.759	762.873
85.782	13.464	993.995	762.774
86.797	13.426	993.304	762.002
87.812	13.394	992.562	761.217
88.826	13.309	991.871	760.228
89.841	13.445	990.471	759.711
90.855	13.449	990.020	759.319
91.870	13.330	989.597	758.379
92.884	13.447	988.260	757.827
93.899	13.460	987.862	757.514
94.914	13.481	986.946	756.841
95.928	13.483	986.338	756.315
96.943	13.539	985.425	755.805
97.957	13.430	985.128	755.013
98.972	13.456	983.961	754.167
99.987	13.414	983.690	753.704
101.001	13.352	982.563	752.493
102.016	13.477	981.733	752.357
103.030	13.428	980.605	751.204
104.045	13.413	979.903	750.530
105.060	13.423	978.975	749.799
106.074	13.397	977.771	748.695
107.089	13.389	977.236	748.182
108.103	13.259	976.154	746.699
109.118	13.231	975.223	745.795
110.133	13.242	974.259	745.039
111.147	13.385	973.224	744.830
112.162	13.312	972.998	744.261
113.176	13.237	971.962	743.065
114.191	13.336	970.687	742.466
115.206	13.324	970.076	741.881
116.220	13.413	969.557	741.817
117.235	13.279	968.614	740.429
118.249	13.230	968.033	739.701
119.264	13.366	966.743	739.258
120.279	13.334	966.152	738.599
121.293	13.412	965.004	738.002
122.308	13.242	964.586	736.859
123.322	13.294	963.460	736.166
124.337	13.211	962.599	735.075
125.352	13.193	961.491	734.084
126.366	13.215	960.603	733.440
127.381	13.279	959.314	732.674
128.395	13.308	958.209	731.892
129.410	13.312	957.094	730.992
130.424	13.169	956.802	730.073
131.439	13.343	955.549	729.820
132.454	13.306	954.654	728.912
133.468	13.479	953.761	728.924
134.483	13.325	953.713	728.146
135.497	13.242	953.233	727.349
136.512	13.369	951.857	726.796
137.527	13.407	950.772	726.066
138.541	13.454	949.964	725.591
139.556	13.421	949.581	725.091
140.570	13.435	948.812	724.501
141.585	13.398	948.236	723.835
142.600	13.469	947.394	723.441
143.614	13.545	946.150	722.757
144.629	13.618	945.480	722.498
145.643	13.411	945.134	721.268
146.658	13.529	944.374	721.140
147.673	13.554	943.326	720.384
148.687	13.397	942.603	719.086
149.702	13.351	941.787	718.200
150.716	13.370	940.753	717.430
151.731	13.443	940.154	717.225
152.746	13.477	939.028	716.450
153.760	13.446	938.396	715.772
154.775	13.360	937.621	714.746
155.789	13.385	937.013	714.327
156.804	13.412	936.225	713.777
157.819	13.536	935.381	713.605
158.833	13.357	935.270	712.689
159.848	13.625	933.970	712.786
160.862	13.565	933.094	711.799
161.877	13.682	932.264	711.605
162.892	13.605	931.417	710.564
163.906	13.592	930.385	709.658
164.921	13.507	930.100	709.015
165.935	13.476	928.836	707.854
166.950	13.609	927.862	707.619
167.964	13.538	927.157	706.714
168.979	13.502	926.503	706.002
169.994	13.709	925.236	705.855
171.008	13.496	924.528	704.345
172.023	13.731	923.583	704.560
173.037	13.648	922.797	703.546
174.052	13.610	922.276	702.924
175.067	13.736	921.567	702.856
176.081	13.632	920.814	701.781
177.096	13.572	920.226	701.016
178.110	13.550	919.256	700.124
179.125	13.455	918.662	699.207
180.140	13.535	917.851	698.868
181.154	13.735	916.846	698.882
182.169	13.672	916.212	698.072
183.183	13.726	915.902	698.000
184.198	13.710	915.028	697.204
185.213	13.765	914.492	696.965
186.227	13.810	913.787	696.558
187.242	13.821	913.363	696.219
188.256	13.845	912.802	695.831
189.271	13.861	911.970	695.202
190.286	13.919	911.030	694.665
191.300	13.844	910.421	693.827
192.315	13.652	909.777	692.472
193.329	13.532	909.115	691.407
194.344	13.600	908.177	690.913
195.359	13.524	907.602	690.101
196.373	13.713	907.205	690.522
197.388	13.818	906.576	690.420
198.402	13.931	906.313	690.630
199.417	14.020	905.588	690.384
200.432	13.913	905.107	689.515
201.446	14.000	904.819	689.594
202.461	13.965	904.297	688.988
203.475	14.115	903.559	688.989
204.490	14.057	903.150	688.373
205.504	14.140	901.883	687.692
206.519	14.258	900.789	687.285
207.534	14.074	900.594	686.313
208.548	14.065	900.088	685.831
209.563	13.970	899.577	684.987
210.577	13.992	898.990	684.570
211.592	14.001	898.391	684.091
212.607	14.034	897.395	683.409
213.621	14.110	897.175	683.493
214.636	14.139	896.062	682.703
215.650	14.104	895.678	682.209
216.665	14.117	895.184	681.826
217.680	14.040	895.077	681.368
218.694	14.229	894.021	681.278
219.709	14.231	893.361	680.720
220.723	14.216	892.855	680.212
221.738	14.271	892.381	680.017
222.753	14.277	891.439	679.263
223.767	14.268	890.824	678.699
224.782	14.278	889.872	677.952
225.796	14.327	889.698	677.960
226.811	14.479	888.614	677.693
227.826	14.392	887.799	676.657
228.840	14.361	887.379	676.154
229.855	14.307	886.829	675.456
230.869	14.273	886.033	674.651
231.884	14.352	885.273	674.333
232.899	14.359	884.611	673.798
233.913	14.480	883.503	673.383
234.928	14.314	883.181	672.406
235.942	14.303	882.331	671.655
236.957	14.216	881.792	670.837
237.972	14.316	881.086	670.641
238.986	14.299	880.675	670.200
240.001	14.362	880.025	669.900
241.015	14.413	878.978	669.249
242.030	14.419	878.304	668.701
243.045	14.508	877.836	668.643
244.059	14.460	877.459	668.102
245.074	14.474	876.755	667.563
246.088	14.444	876.319	667.054
247.103	14.541	875.384	666.670
248.117	14.643	874.900	666.649
249.132	14.565	874.281	665.809
250.147	14.758	874.126	666.401
251.161	14.641	873.255	665.210
252.176	14.834	872.510	665.355
253.190	14.749	872.057	664.610
254.205	14.780	871.564	664.302
255.220	14.921	870.628	664.088
256.234	14.975	870.020	663.780
257.249	14.853	869.441	662.797
258.263	14.979	868.720	662.687
259.278	14.948	868.235	662.134
260.293	14.867	868.188	661.719
261.307	14.966	867.440	661.481
262.322	15.061	866.844	661.344
263.336	15.058	865.719	660.416
264.351	15.181	865.354	660.564
265.366	15.074	864.880	659.723
266.380	15.140	864.440	659.588
267.395	15.088	863.676	658.743
268.409	15.047	863.196	658.158
269.424	14.940	862.295	656.992
270.439	15.043	861.456	656.700
271.453	14.948	861.018	655.932
272.468	15.204	859.645	655.830
273.482	15.013	859.289	654.754
274.497	15.073	858.945	654.671
275.512	15.074	858.220	654.064
276.526	15.129	857.161	653.414
277.541	15.157	856.746	653.148
278.555	15.123	855.878	652.296
279.570	15.119	855.477	651.915
280.585	15.224	855.005	651.907
281.599	15.346	854.539	651.968
282.614	15.214	853.863	650.883
283.628	15.087	853.470	650.033
284.643	15.098	852.660	649.399
285.657	15.261	852.451	649.816
286.672	15.299	851.542	649.213
287.687	15.375	851.021	649.053
288.701	15.164	851.138	648.269
289.716	15.241	850.342	647.900
290.730	15.301	849.728	647.609
291.745	15.252	849.038	646.836
292.760	15.339	848.142	646.432
293.774	15.517	847.309	646.427
294.789	15.413	847.218	645.896
295.803	15.410	846.462	645.253
296.818	15.484	845.881	645.036
297.833	15.349	845.140	643.898
298.847	15.512	843.933	643.544
299.862	15.409	843.936	643.094
300.876	15.454	843.453	642.844
301.891	15.417	842.733	642.096
302.906	15.576	841.514	641.716
303.920	15.489	841.085	641.002
304.935	15.611	840.607	641.045
305.949	15.695	839.668	640.595
306.964	15.616	839.245	639.915
307.979	15.652	838.565	639.476
308.993	15.610	838.114	638.914
310.008	15.705	837.739	638.935
311.022	15.695	837.117	638.364
312.037	15.686	836.622	637.895
313.052	15.801	835.716	637.583
314.066	15.762	835.192	636.982
315.081	15.720	834.897	636.542
316.095	15.583	834.431	635.610
317.110	15.754	833.578	635.549
318.125	15.702	833.386	635.152
319.139	15.649	832.955	634.568
320.154	15.667	832.409	634.162
321.168	15.734	831.588	633.733
322.183	15.561	831.541	632.991
323.197	15.923	830.455	633.471
324.212	15.903	829.816	632.852
325.227	15.733	829.592	631.986
326.241	15.633	829.341	631.361
327.256	15.754	828.664	631.247
328.270	15.769	828.323	630.985
329.285	15.855	827.504	630.627
330.300	15.782	826.769	629.741
331.314	15.743	826.411	629.265
332.329	15.867	825.776	629.188
333.343	15.940	825.060	628.858
334.358	15.930	824.488	628.331
335.373	15.842	824.332	627.830
336.387	15.788	823.663	627.062
337.402	15.968	823.254	627.368
338.416	15.916	822.811	626.780
339.431	16.145	821.923	626.899
340.446	16.104	821.347	626.252
341.460	16.133	820.597	625.730
342.475	16.306	819.951	625.826
343.489	16.118	819.713	624.893
344.504	16.234	819.165	624.848
345.519	16.201	818.879	624.454
346.533	16.310	818.106	624.210
347.548	16.293	817.731	623.808
348.562	16.307	817.125	623.342
349.577	16.132	816.676	622.297
350.592	16.129	815.913	621.650
351.606	16.234	815.509	621.674
352.621	16.232	815.388	621.519
353.635	16.286	814.863	621.264
354.650	16.175	814.610	620.608
355.665	16.115	814.116	619.956
356.679	16.303	813.594	620.195
357.694	16.367	812.941	619.876
358.708	16.282	812.839	619.431
359.723	16.239	812.116	618.668
360.738	16.387	811.497	618.681
361.752	16.254	810.865	617.660
362.767	16.387	810.391	617.729
363.781	16.458	810.066	617.687
364.796	16.275	809.868	616.813
365.810	16.408	809.461	616.934
366.825	16.592	809.079	617.259
367.840	16.677	808.424	617.017
368.854	16.559	808.157	616.327
369.869	16.574	807.467	615.801
370.883	16.610	806.851	615.407
371.898	16.548	806.419	614.800
372.913	16.656	805.681	614.574
373.927	16.542	805.324	613.833
374.942	16.629	804.527	613.488
375.956	16.657	804.078	613.192
376.971	16.615	803.370	612.445
377.986	16.678	802.886	612.250
379.000	16.788	802.594	612.372
380.015	16.752	802.170	611.862
381.029	16.851	801.336	611.532
382.044	16.819	800.990	611.097
383.059	16.733	800.440	610.314
384.073	16.845	799.777	610.158
385.088	16.857	799.305	609.785
386.102	16.926	798.664	609.492
387.117	16.744	798.380	608.568
388.132	16.652	797.898	607.814
389.146	16.780	797.432	607.866
390.161	16.730	797.185	607.443
391.175	16.924	796.621	607.657
392.190	16.970	796.590	607.744
393.205	16.839	795.792	606.613
394.219	16.889	794.994	606.129
395.234	16.908	794.550	605.804
396.248	16.856	794.161	605.267
397.263	16.789	793.896	604.772
398.278	16.760	793.554	604.357
399.292	16.860	792.974	604.218
400.307	16.748	792.709	603.561
401.321	16.831	792.311	603.503
402.336	16.804	791.956	603.082
403.350	16.891	791.545	603.027
404.365	16.865	791.183	602.605
405.380	16.969	790.538	602.428
406.394	17.114	789.980	602.466
407.409	17.171	789.600	602.323
408.423	17.141	789.494	602.084
409.438	17.125	788.778	601.428
410.453	17.281	788.168	601.462
411.467	17.263	787.526	600.854
412.482	17.114	787.293	600.096
413.496	17.203	786.564	599.804
414.511	17.357	786.446	600.203
415.526	17.414	786.059	600.054
416.540	17.270	785.870	599.350
417.555	17.301	785.603	599.202
418.569	17.253	784.726	598.311
419.584	17.162	784.799	597.993
420.599	17.328	784.107	597.996
421.613	100.162	1276.836	1422.458
422.628	85.449	1348.656	1422.597
