DTS Sentinel unit serial number:	SN413079Multiplexer serial number:	ORYXHardware model number:	OX4-SRSoftware version number:	ORYX F/W v4.00 Oryx Data Collector v3.7.2.0data status	okinstallation	princeton_trtdifferential loss correction	single-endedforward channel	channel 3reverse channel	N/Adate	2019/09/13time	02:24:35forward acquisition time	60.00reverse acquisition time	0.00gamma	496.2192k internal	0.2334k external	0.2334temperature offset calibration	1.0137default loss term (dB/km)	0.3790temperature slope calibration	1.0000multiplexer offset coefficient	1.0000multiplexer slope coefficient	1.0000fibre end	0.00T internal ref (°C)	27.50T ext. ref 1 (°C)	3.97T ext. ref 2 (°C)	22.25length (m)	temperature (°C)	Stokes	anti-Stokes-747.200	-90.255	-0.249	-0.073
-746.185	-25.445	-0.165	-0.098
-745.171	-175.685	-0.163	-0.004
-744.156	215.468	-0.097	-0.154
-743.142	-200.000	-0.005	-0.542
-742.127	-24.347	-0.007	-0.004
-741.112	194.113	-0.180	0.274
-740.098	-160.427	-0.091	-0.005
-739.083	320.279	0.036	-0.070
-738.069	206.658	-0.164	-0.257
-737.054	-14.089	0.078	0.051
-736.039	441.270	-0.200	0.440
-735.025	8.431	0.359	-0.271
-734.010	102.837	-0.251	0.295
-732.996	87.244	-0.142	-0.158
-731.981	-157.890	0.143	-0.008
-730.966	-96.555	-0.248	-0.066
-729.952	-200.000	0.009	-0.202
-728.937	-156.486	-0.086	0.005
-727.923	-200.000	-0.004	-0.282
-726.908	-0.299	-0.164	-0.117
-725.894	-12.705	-0.206	-0.135
-724.879	-200.000	0.010	0.219
-723.864	-100.001	-0.243	0.061
-722.850	-72.948	0.217	0.080
-721.835	-86.605	-0.495	-0.152
-720.821	215.042	-0.094	0.150
-719.806	-66.675	0.368	-0.146
-718.791	497.370	-0.155	-0.357
-717.777	-173.557	0.306	-0.009
-716.762	800.000	-0.056	-0.177
-715.748	800.000	0.032	0.139
-714.733	180.781	0.155	-0.229
-713.718	-10.332	0.105	-0.070
-712.704	-101.498	0.220	0.054
-711.689	800.000	-0.008	-0.025
-710.675	-133.343	0.049	-0.006
-709.660	-200.000	-0.021	0.440
-708.645	-138.266	0.148	-0.016
-707.631	59.773	0.142	0.140
-706.616	35.198	-0.125	0.110
-705.602	-173.586	-0.097	0.003
-704.587	-200.000	0.043	-0.225
-703.572	-114.322	0.061	-0.012
-702.558	-155.900	-0.113	-0.007
-701.543	-131.593	0.134	-0.018
-700.529	-45.641	-0.127	0.063
-699.514	-200.000	0.050	0.278
-698.499	-168.959	0.137	-0.005
-697.485	397.848	-0.058	-0.121
-696.470	-90.056	-0.325	0.095
-695.456	-200.000	0.013	0.219
-694.441	158.092	0.035	0.049
-693.426	-10.760	-0.302	0.201
-692.412	-67.559	-0.173	-0.068
-691.397	-28.789	0.182	-0.105
-690.383	179.001	0.033	0.048
-689.368	101.549	0.047	0.055
-688.354	80.150	-0.211	-0.228
-687.339	429.134	0.049	0.106
-686.324	45.924	0.114	0.106
-685.310	-57.404	-0.080	-0.035
-684.295	-200.000	-0.024	-0.159
-683.281	-95.894	0.210	-0.056
-682.266	712.680	0.093	-0.248
-681.251	246.887	-0.133	-0.225
-680.237	210.592	0.097	0.153
-679.222	-200.000	-0.043	-0.427
-678.208	-40.804	0.279	-0.145
-677.193	13.684	0.076	0.059
-676.178	-200.000	-0.027	-0.236
-675.164	131.458	-0.036	-0.047
-674.149	800.000	-0.114	0.322
-673.135	102.116	0.028	0.033
-672.120	-54.780	-0.050	-0.023
-671.105	-200.000	-0.027	0.452
-670.091	800.000	-0.044	0.143
-669.076	154.268	-0.061	-0.084
-668.062	387.502	-0.102	0.211
-667.047	-88.595	0.240	-0.072
-666.032	-29.396	-0.170	0.097
-665.018	-95.766	-0.194	0.052
-664.003	-200.000	-0.001	-0.281
-662.989	800.000	0.096	-0.274
-661.974	1.452	-0.345	0.249
-660.959	-97.611	-0.463	0.120
-659.945	-22.391	-0.122	-0.074
-658.930	-42.705	0.144	-0.073
-657.916	205.111	-0.165	-0.257
-656.901	-44.058	0.139	0.070
-655.886	253.954	0.098	0.168
-654.872	-200.000	-0.028	-0.143
-653.857	-34.826	-0.250	-0.137
-652.843	-19.454	-0.015	0.010
-651.828	-200.000	0.014	-0.166
-650.814	112.515	-0.181	0.219
-649.799	800.000	-0.140	-0.446
-648.784	-146.007	-0.151	-0.013
-647.770	800.000	-0.097	0.289
-646.755	-146.394	0.097	-0.008
-645.741	635.081	-0.081	0.207
-644.726	-84.955	-0.110	-0.035
-643.711	-105.557	0.247	-0.056
-642.697	450.128	0.043	0.095
-641.682	-44.752	-0.314	-0.157
-640.668	660.583	-0.047	-0.121
-639.653	-55.450	0.199	-0.089
-638.638	288.325	-0.053	0.096
-637.624	-185.870	0.261	0.004
-636.609	101.698	-0.062	-0.072
-635.595	-79.268	-0.110	0.037
-634.580	-126.281	0.264	0.039
-633.565	-180.642	-0.146	0.003
-632.551	-156.152	-0.351	-0.022
-631.536	-9.575	-0.201	0.134
-630.522	800.000	-0.067	-0.258
-629.507	-131.153	0.107	-0.014
-628.492	-200.000	0.001	0.193
-627.478	-200.000	-0.023	-0.171
-626.463	-111.795	0.150	-0.030
-625.449	530.711	-0.099	-0.234
-624.434	-96.562	-0.060	-0.016
-623.419	13.294	0.212	0.164
-622.405	-200.000	-0.014	0.184
-621.390	-200.000	-0.008	0.047
-620.376	-200.000	0.003	-0.020
-619.361	483.673	0.088	0.200
-618.346	86.366	-0.227	0.250
-617.332	-62.500	0.250	0.104
-616.317	-77.911	0.369	0.127
-615.303	9.131	-0.121	-0.091
-614.288	-123.452	-0.269	0.043
-613.273	-200.000	0.035	0.179
-612.259	-46.083	0.114	-0.056
-611.244	-200.000	0.010	-0.068
-610.230	301.963	-0.037	0.069
-609.215	-12.326	0.254	0.166
-608.201	7.229	-0.093	0.069
-607.186	-2.025	-0.155	0.109
-606.171	-200.000	0.022	-0.177
-605.157	-100.953	0.152	-0.037
-604.142	9.925	-0.147	-0.112
-603.128	800.000	-0.056	-0.235
-602.113	800.000	0.061	0.173
-601.098	26.560	0.318	0.266
-600.084	-71.930	-0.487	-0.181
-599.069	-118.505	-0.030	-0.005
-598.055	106.009	-0.240	-0.284
-597.040	-15.604	0.111	-0.071
-596.025	-200.000	0.024	0.130
-595.011	-149.604	-0.169	-0.013
-593.996	110.066	0.215	0.258
-592.982	-200.000	0.028	0.206
-591.967	373.213	0.046	-0.094
-590.952	17.700	-0.062	0.049
-589.938	92.559	0.169	-0.190
-588.923	-155.992	0.101	0.006
-587.909	319.201	0.079	0.150
-586.894	-64.172	-0.222	-0.091
-585.879	58.972	-0.277	0.272
-584.865	-143.717	-0.120	-0.011
-583.850	-173.823	0.159	0.005
-582.836	-200.000	0.000	-0.025
-581.821	-106.838	0.431	0.095
-580.806	-17.122	-0.188	-0.119
-579.792	-67.280	0.278	0.109
-578.777	-81.494	0.138	-0.045
-577.763	-17.266	0.275	0.173
-576.748	-200.000	0.013	-0.171
-575.733	-200.000	-0.010	0.121
-574.719	-96.123	0.272	0.072
-573.704	249.443	0.036	0.062
-572.690	-76.821	0.301	-0.105
-571.675	-17.538	0.138	-0.087
-570.661	269.321	0.185	0.324
-569.646	-200.000	0.038	-0.295
-568.631	6.737	-0.225	-0.167
-567.617	-44.466	0.327	-0.163
-566.602	30.874	-0.058	-0.050
-565.588	211.270	-0.137	-0.216
-564.573	-185.697	0.219	0.003
-563.558	166.493	-0.180	0.255
-562.544	-200.000	0.038	0.186
-561.529	768.791	-0.172	0.466
-560.515	-78.077	0.091	0.031
-559.500	800.000	0.113	-0.407
-558.485	-200.000	-0.024	-0.199
-557.471	448.327	-0.125	-0.276
-556.456	238.756	0.194	-0.322
-555.442	800.000	0.085	0.237
-554.427	23.317	0.087	0.071
-553.412	65.663	-0.103	0.104
-552.398	364.364	-0.214	0.429
-551.383	-3.080	0.210	0.146
-550.369	-20.741	0.228	-0.140
-549.354	255.787	-0.077	0.132
-548.339	-133.190	-0.167	0.021
-547.325	-200.000	-0.010	0.104
-546.310	18.012	0.183	-0.145
-545.296	338.655	0.022	0.042
-544.281	-91.255	-0.166	-0.047
-543.266	51.258	0.075	0.071
-542.252	-184.419	-0.199	-0.003
-541.237	-200.000	0.018	0.199
-540.223	-80.685	0.334	0.111
-539.208	-46.488	-0.098	-0.048
-538.193	309.388	0.104	-0.194
-537.179	43.332	0.245	-0.223
-536.164	-200.000	0.003	-0.119
-535.150	99.844	0.277	0.320
-534.135	-65.985	-0.159	0.063
-533.121	475.715	-0.124	-0.279
-532.106	-109.629	-0.031	0.007
-531.091	254.891	-0.084	0.144
-530.077	-65.610	-0.316	-0.126
-529.062	130.579	0.161	-0.206
-528.048	-200.000	0.019	-0.102
-527.033	151.302	-0.116	-0.158
-526.018	-84.075	0.215	-0.068
-525.004	-200.000	-0.017	-0.163
-523.989	10.831	-0.103	-0.079
-522.975	-146.197	0.149	-0.013
-521.960	75.532	-0.200	-0.211
-520.945	800.000	-0.095	0.331
-519.931	131.335	-0.064	-0.082
-518.916	41.938	-0.010	-0.009
-517.902	22.567	0.232	0.189
-516.887	800.000	0.136	0.530
-515.872	230.406	-0.057	0.094
-514.858	46.689	0.286	-0.265
-513.843	-33.377	-0.218	-0.120
-512.829	-91.115	0.065	0.019
-511.814	260.481	-0.064	0.110
-510.799	-200.000	0.013	-0.188
-509.785	-18.187	0.311	-0.194
-508.770	-149.070	0.416	-0.033
-507.756	387.573	0.162	0.334
-506.741	154.065	-0.035	0.047
-505.726	400.271	0.119	0.248
-504.712	-74.520	-0.214	-0.077
-503.697	-165.197	0.535	-0.024
-502.683	23.779	0.084	-0.069
-501.668	-39.919	-0.342	0.178
-500.653	21.574	0.119	0.096
-499.639	582.123	0.103	-0.253
-498.624	17.912	0.071	-0.056
-497.610	-200.000	-0.028	0.364
-496.595	-74.008	-0.107	0.039
-495.581	84.706	0.114	0.125
-494.566	32.950	-0.329	0.284
-493.551	-136.588	-0.224	-0.026
-492.537	0.092	0.095	-0.068
-491.522	187.616	0.069	-0.102
-490.508	-6.164	-0.232	-0.158
-489.493	-200.000	-0.025	-0.168
-488.478	800.000	0.051	0.190
-487.464	259.316	0.135	0.232
-486.449	800.000	-0.093	0.318
-485.435	204.717	0.090	-0.138
-484.420	183.465	-0.237	-0.349
-483.405	-156.610	-0.317	-0.020
-482.391	800.000	-0.047	-0.142
-481.376	-75.245	-0.490	-0.174
-480.362	148.207	-0.164	-0.221
-479.347	108.647	-0.056	-0.067
-478.332	-200.000	-0.011	-0.226
-477.318	-64.979	-0.174	0.070
-476.303	-58.606	-0.146	0.063
-475.289	-109.161	-0.468	-0.099
-474.274	-200.000	0.001	-0.009
-473.259	800.000	-0.042	0.117
-472.245	-16.014	-0.269	-0.170
-471.230	57.214	0.107	0.104
-470.216	153.361	-0.227	0.309
-469.201	-72.343	0.188	-0.069
-468.186	-200.000	-0.007	0.221
-467.172	-200.000	-0.051	0.451
-466.157	800.000	-0.026	-0.084
-465.143	20.658	-0.271	0.218
-464.128	111.444	-0.124	0.149
-463.113	-45.639	0.251	0.123
-462.099	-45.062	0.263	0.130
-461.084	-106.378	0.472	0.105
-460.070	-5.656	0.121	0.082
-459.055	-93.365	-0.239	0.066
-458.040	-200.000	0.009	0.072
-457.026	16.451	0.029	-0.023
-456.011	94.509	0.029	0.033
-454.997	-200.000	-0.000	-0.291
-453.982	-92.350	-0.045	-0.013
-452.968	63.208	0.276	0.275
-451.953	19.833	0.247	0.198
-450.938	800.000	-0.030	-0.097
-449.924	727.047	0.114	0.301
-448.909	800.000	0.009	0.028
-447.895	308.999	0.011	0.020
-446.880	-200.000	-0.016	0.198
-445.865	743.520	-0.083	0.222
-444.851	-156.435	0.069	-0.004
-443.836	276.594	0.092	0.163
-442.822	-0.949	0.081	-0.057
-441.807	800.000	-0.033	-0.095
-440.792	-200.000	0.022	0.218
-439.778	-105.044	0.139	-0.032
-438.763	131.995	-0.087	-0.111
-437.749	-63.176	0.027	0.011
-436.734	-41.576	-0.147	0.075
-435.719	-10.251	0.220	0.145
-434.705	286.010	-0.127	-0.228
-433.690	-11.948	-0.118	0.077
-432.676	800.000	-0.048	-0.140
-431.661	163.376	-0.120	0.167
-430.646	121.292	0.202	-0.250
-429.632	-121.935	-0.282	0.046
-428.617	-87.740	0.098	0.029
-427.603	31.047	0.117	-0.100
-426.588	-200.000	0.017	-0.144
-425.573	-83.542	-0.147	-0.047
-424.559	298.436	-0.166	0.302
-423.544	-200.000	-0.007	-0.176
-422.530	-67.501	0.281	-0.109
-421.515	-120.438	-0.509	-0.086
-420.500	45.357	0.304	-0.279
-419.486	696.209	-0.108	0.280
-418.471	-170.570	0.150	-0.005
-417.457	-158.219	-0.361	-0.021
-416.442	63.693	-0.410	0.408
-415.428	551.378	-0.056	-0.133
-414.413	-200.000	-0.006	-0.038
-413.398	210.563	-0.101	-0.158
-412.384	666.849	-0.123	0.314
-411.369	6.316	0.370	0.273
-410.355	78.857	-0.217	-0.231
-409.340	-43.480	0.347	0.174
-408.325	-200.000	0.032	0.448
-407.311	63.105	0.162	0.161
-406.296	-43.086	-0.059	-0.030
-405.282	-35.931	-0.245	-0.131
-404.267	-200.000	-0.031	-0.189
-403.252	-128.398	-0.207	0.029
-402.238	45.775	-0.069	-0.063
-401.223	-67.953	0.079	0.031
-400.209	-62.184	0.257	-0.106
-399.194	-139.118	-0.115	0.012
-398.179	-200.000	-0.002	-0.088
-397.165	-91.178	0.230	0.065
-396.150	-77.859	0.278	-0.095
-395.136	-184.631	-0.369	0.006
-394.121	-35.419	-0.096	-0.052
-393.106	62.874	0.092	0.091
-392.092	-198.501	-0.074	-0.000
-391.077	-147.482	-0.354	0.030
-390.063	155.341	0.206	-0.282
-389.048	-133.074	0.182	-0.023
-388.033	70.869	-0.149	0.153
-387.019	108.021	-0.073	0.086
-386.004	-200.000	0.006	-0.252
-384.990	-200.000	0.010	-0.245
-383.975	174.138	0.088	0.126
-382.960	54.162	0.009	0.009
-381.946	-200.000	0.026	0.161
-380.931	-200.000	0.002	0.246
-379.917	88.463	-0.052	-0.057
-378.902	24.175	-0.139	-0.114
-377.888	-117.421	-0.362	-0.065
-376.873	-73.313	-0.227	0.082
-375.858	-10.951	-0.061	-0.040
-374.844	-11.955	0.137	-0.089
-373.829	-200.000	-0.020	-0.129
-372.815	-81.947	-0.301	0.097
-371.800	64.203	-0.060	0.060
-370.785	0.537	0.145	-0.102
-369.771	153.919	0.065	-0.089
-368.756	-112.705	0.162	0.032
-367.742	12.737	0.225	-0.172
-366.727	-24.945	-0.195	-0.115
-365.712	86.665	0.157	-0.171
-364.698	11.617	0.216	-0.164
-363.683	-124.509	-0.173	0.027
-362.669	-200.000	0.139	-0.001
-361.654	-110.188	0.283	-0.059
-360.639	-56.439	-0.272	-0.120
-359.625	-10.741	-0.113	0.074
-358.610	-67.598	0.257	0.100
-357.596	-125.164	0.091	-0.014
-356.581	-94.726	0.276	-0.074
-355.566	-74.260	0.229	0.082
-354.552	93.564	-0.108	0.121
-353.537	396.517	-0.060	-0.123
-352.523	85.904	-0.116	0.126
-351.508	-200.000	0.004	-0.148
-350.493	-200.000	0.004	0.085
-349.479	-27.311	-0.376	0.216
-348.464	36.472	-0.282	-0.246
-347.450	113.950	0.279	0.336
-346.435	-200.000	0.013	0.125
-345.420	716.621	-0.094	0.247
-344.406	-52.290	-0.227	0.104
-343.391	-160.602	-0.123	-0.006
-342.377	-200.000	0.036	-0.189
-341.362	-200.000	0.006	0.179
-340.348	310.617	0.126	-0.234
-339.333	-200.000	-0.025	0.108
-338.318	800.000	-0.037	0.121
-337.304	-95.947	-0.219	-0.058
-336.289	-200.000	-0.011	-0.108
-335.275	800.000	0.087	0.281
-334.260	47.451	-0.279	0.257
-333.245	-22.813	0.185	-0.110
-332.231	-145.598	0.266	0.024
-331.216	-109.591	0.198	-0.041
-330.202	-200.000	0.016	-0.252
-329.187	275.103	0.064	0.113
-328.172	-156.942	0.316	-0.019
-327.158	69.787	-0.095	-0.096
-326.143	-81.381	0.040	-0.013
-325.129	-200.000	-0.049	-0.242
-324.114	-200.000	-0.002	-0.085
-323.099	21.151	-0.271	0.217
-322.085	-148.237	0.105	0.009
-321.070	116.214	0.156	0.188
-320.056	-31.680	0.074	0.041
-319.041	256.981	0.152	0.259
-318.026	-112.424	-0.342	0.068
-317.012	222.817	0.107	0.170
-315.997	-140.525	0.236	-0.024
-314.983	-152.397	-0.369	-0.026
-313.968	-178.091	0.486	0.011
-312.953	-117.558	-0.279	0.050
-311.939	-124.808	0.284	0.043
-310.924	101.079	0.036	0.042
-309.910	-200.000	0.002	0.204
-308.895	204.708	-0.235	0.360
-307.880	22.513	-0.026	-0.021
-306.866	-144.919	-0.152	-0.014
-305.851	18.411	-0.142	0.112
-304.837	800.000	0.095	-0.402
-303.822	-184.660	-0.129	0.002
-302.807	-67.047	0.267	-0.104
-301.793	-200.000	0.019	0.124
-300.778	-80.747	-0.294	0.096
-299.764	-14.871	-0.241	-0.153
-298.749	80.425	0.059	0.063
-297.735	31.036	0.096	0.081
-296.720	263.464	-0.117	-0.201
-295.705	800.000	0.062	-0.245
-294.691	-116.879	-0.075	0.014
-293.676	-34.446	0.186	-0.101
-292.662	-200.000	-0.030	-0.423
-291.647	75.568	0.196	-0.204
-290.632	49.804	-0.309	0.288
-289.618	-200.000	0.011	-0.236
-288.603	-58.797	-0.424	-0.181
-287.589	8.778	0.141	0.105
-286.574	202.179	-0.101	-0.154
-285.559	39.808	0.199	-0.176
-284.545	81.508	0.231	0.247
-283.530	168.156	-0.081	-0.114
-282.516	800.000	-0.089	0.306
-281.501	-42.606	-0.284	0.143
-280.486	-200.000	-0.032	-0.172
-279.472	6.740	-0.061	-0.045
-278.457	-57.048	-0.176	-0.077
-277.443	552.397	-0.119	-0.283
-276.428	138.533	-0.144	-0.187
-275.413	193.316	0.173	0.258
-274.399	-166.450	-0.197	-0.008
-273.384	415.022	0.041	0.087
-272.370	118.281	0.158	-0.192
-271.355	91.238	0.081	-0.089
-270.340	800.000	0.100	-0.351
-269.326	255.693	-0.181	-0.306
-268.311	-155.940	0.166	0.010
-267.297	-200.000	-0.028	-0.125
-266.282	71.066	0.207	0.211
-265.267	-200.000	0.001	0.142
-264.253	84.047	-0.202	-0.217
-263.238	268.318	0.047	0.082
-262.224	-30.062	-0.184	0.103
-261.209	622.696	-0.021	-0.052
-260.195	-117.211	0.248	-0.044
-259.180	294.552	0.114	0.206
-258.165	-21.870	0.149	-0.089
-257.151	79.614	-0.205	-0.217
-256.136	305.695	0.139	-0.254
-255.122	-168.059	-0.074	-0.003
-254.107	-94.013	-0.130	-0.035
-253.092	-200.000	-0.007	-0.182
-252.078	1.528	-0.118	0.083
-251.063	-200.000	0.003	0.223
-250.049	800.000	-0.039	-0.114
-249.034	80.950	-0.310	0.329
-248.019	800.000	0.032	0.130
-247.005	-200.000	0.029	-0.224
-245.990	34.637	0.120	-0.103
-244.976	-28.555	0.043	0.024
-243.961	72.300	0.105	-0.108
-242.946	-89.454	-0.354	-0.103
-241.932	-51.771	-0.208	0.096
-240.917	-82.581	-0.375	-0.120
-239.903	-117.764	-0.192	-0.034
-238.888	-200.000	-0.001	0.390
-237.873	28.254	0.283	-0.235
-236.859	100.813	0.115	-0.131
-235.844	800.000	0.029	-0.092
-234.830	209.305	0.198	0.306
-233.815	-34.333	-0.180	-0.097
-232.800	0.506	0.136	-0.096
-231.786	-200.000	-0.099	0.437
-230.771	-92.270	0.066	0.018
-229.757	-25.307	-0.138	0.080
-228.742	-200.000	0.034	-0.379
-227.727	-15.932	0.166	0.104
-226.713	194.347	0.115	-0.171
-225.698	243.537	0.083	0.137
-224.684	-8.789	0.095	0.063
-223.669	94.146	0.049	-0.055
-222.655	-56.583	0.219	0.096
-221.640	2.050	0.387	0.275
-220.625	-129.851	-0.239	-0.032
-219.611	-82.411	0.153	-0.049
-218.596	218.947	-0.166	0.262
-217.582	359.575	0.095	-0.187
-216.567	118.128	-0.211	0.256
-215.552	800.000	0.176	0.567
-214.538	-117.292	0.107	0.019
-213.523	-98.085	-0.311	-0.079
-212.509	800.000	-0.053	-0.217
-211.494	-39.612	-0.335	-0.173
-210.479	800.000	-0.027	0.113
-209.465	-143.300	-0.193	-0.018
-208.450	-141.194	0.368	0.037
-207.436	-99.533	-0.338	-0.084
-206.421	-40.498	-0.356	-0.182
-205.406	14.812	0.122	-0.094
-204.392	59.347	0.217	-0.210
-203.377	123.238	0.237	-0.292
-202.363	-200.000	0.032	-0.232
-201.348	-68.419	0.121	-0.046
-200.333	133.472	0.177	-0.225
-199.319	3.263	-0.171	-0.122
-198.304	-50.907	-0.236	-0.109
-197.290	-200.000	-0.013	0.159
-196.275	97.763	-0.140	0.159
-195.260	-9.364	-0.068	0.044
-194.246	-49.929	0.289	-0.135
-193.231	-136.222	0.087	-0.010
-192.217	-200.000	-0.015	-0.072
-191.202	184.562	-0.108	0.158
-190.187	800.000	-0.105	-0.391
-189.173	247.671	-0.113	0.189
-188.158	-2.256	-0.067	-0.046
-187.144	13.805	0.266	0.203
-186.129	-97.895	-0.070	-0.018
-185.114	800.000	0.081	-0.306
-184.100	-75.921	0.076	0.027
-183.085	-176.008	-0.130	-0.003
-182.071	-200.000	0.054	0.240
-181.056	166.949	0.079	-0.110
-180.042	68.439	0.105	-0.105
-179.027	22.596	-0.188	0.151
-178.012	509.840	0.111	0.254
-176.998	38.175	-0.249	0.218
-175.983	94.411	-0.120	-0.135
-174.969	800.000	0.054	-0.230
-173.954	-155.712	0.248	-0.016
-172.939	34.853	-0.269	-0.231
-171.925	494.761	-0.091	-0.205
-170.910	-26.188	0.195	0.113
-169.896	141.876	0.220	-0.287
-168.881	-97.554	-0.049	-0.013
-167.866	-74.984	-0.127	0.045
-166.852	-118.783	0.500	-0.087
-165.837	-200.000	0.010	-0.193
-164.823	0.946	0.045	0.032
-163.808	-158.818	0.233	-0.013
-162.793	-0.238	0.134	-0.094
-161.779	-168.703	0.523	-0.019
-160.764	-132.712	0.146	-0.018
-159.750	173.940	-0.049	0.070
-158.735	-17.067	0.126	0.078
-157.720	87.421	-0.357	-0.388
-156.706	102.865	-0.123	-0.141
-155.691	800.000	0.020	-0.056
-154.677	-200.000	0.051	-0.231
-153.662	506.633	-0.093	-0.211
-152.647	164.273	0.130	0.180
-151.633	474.865	-0.100	0.221
-150.618	20.261	0.227	0.180
-149.604	-200.000	-0.064	0.444
-148.589	61.444	-0.136	-0.133
-147.574	-43.989	0.208	0.103
-146.560	-80.512	0.450	-0.147
-145.545	-19.512	-0.140	-0.085
-144.531	-137.028	-0.334	-0.037
-143.516	86.089	0.298	-0.322
-142.502	706.574	0.136	0.354
-141.487	220.930	0.062	-0.098
-140.472	-161.989	0.056	-0.003
-139.458	6.482	-0.276	-0.201
-138.443	266.482	0.118	-0.202
-137.429	349.566	0.128	-0.249
-136.414	-79.227	0.242	-0.080
-135.399	273.183	0.025	-0.043
-134.385	536.976	-0.079	0.184
-133.370	66.155	0.313	0.312
-132.356	-19.952	-0.096	-0.058
-131.341	-180.364	0.197	-0.004
-130.326	107.115	-0.074	-0.086
-129.312	0.775	-0.148	-0.104
-128.297	-180.597	0.112	0.002
-127.283	-109.745	-0.204	0.042
-126.268	-200.000	0.020	-0.173
-125.253	-38.797	-0.082	0.042
-124.239	-124.660	0.257	0.039
-123.224	-96.667	-0.113	-0.029
-122.210	369.212	-0.070	-0.139
-121.195	-96.088	0.146	-0.038
-120.180	81.639	0.172	-0.182
-119.166	-144.197	0.150	0.014
-118.151	800.000	-0.148	-0.429
-117.137	800.000	-0.057	-0.215
-116.122	800.000	0.118	0.326
-115.107	264.238	0.153	-0.262
-114.093	800.000	-0.043	0.137
-113.078	237.255	-0.062	0.100
-112.064	-200.000	-0.025	-0.265
-111.049	-200.000	-0.010	0.184
-110.034	365.263	0.042	0.083
-109.020	-38.666	0.227	0.117
-108.005	66.209	0.061	-0.061
-106.991	-52.405	-0.215	-0.097
-105.976	-30.083	0.194	-0.108
-104.962	-32.143	0.077	0.042
-103.947	-55.169	-0.220	0.097
-102.932	173.730	0.104	0.147
-101.918	-200.000	0.028	0.170
-100.903	-200.000	0.221	0.001
-99.889	-85.130	0.134	0.041
-98.874	-42.838	0.489	-0.244
-97.859	254.561	0.115	-0.193
-96.845	225.223	-0.196	-0.311
-95.830	7.949	-0.082	0.060
-94.816	111.077	-0.038	0.045
-93.801	-152.320	0.146	-0.010
-92.786	-200.000	0.023	-0.366
-91.772	13.396	-0.016	-0.012
-90.757	-59.149	0.506	0.214
-89.743	-71.736	0.391	0.143
-88.728	-108.309	0.201	-0.043
-87.713	-98.387	0.214	-0.054
-86.699	427.838	-0.177	-0.375
-85.684	-45.305	0.378	-0.184
-84.670	-41.011	-0.072	-0.036
-83.655	-78.054	0.394	0.133
-82.640	207.625	0.125	0.190
-81.626	316.671	0.114	0.211
-80.611	800.000	0.063	0.263
-79.597	-200.000	-0.010	-0.134
-78.582	-168.517	-0.209	0.008
-77.567	800.000	0.025	-0.099
-76.553	13.780	-0.083	0.063
-75.538	-21.855	-0.277	-0.165
-74.524	-35.016	0.191	-0.102
-73.509	55.759	-0.162	-0.153
-72.494	-64.217	0.228	0.091
-71.480	-200.000	-0.045	-0.383
-70.465	-87.253	0.169	-0.050
-69.451	106.805	0.128	0.148
-68.436	-78.010	0.371	-0.125
-67.422	-200.000	0.062	-0.450
-66.407	8.852	-0.088	0.065
-65.392	-200.000	0.016	0.381
-64.378	417.836	-0.057	0.119
-63.363	800.000	-0.034	-0.112
-62.349	-134.634	-0.290	-0.035
-61.334	7.168	-1.164	-0.850
-60.319	141.762	0.604	0.783
-59.305	696.977	-0.560	-1.439
-58.290	800.000	0.398	1.105
-57.276	399.088	0.787	1.613
-56.261	-200.000	114.237	651.306
-55.246	538.147	1523.048	3542.267
-54.232	179.100	2687.358	3845.819
-53.217	108.306	2171.428	2534.863
-52.203	38.015	1697.649	1477.132
-51.188	30.582	1516.904	1269.299
-50.173	28.348	1492.549	1233.842
-49.159	52.312	1550.931	1447.222
-48.144	50.772	1566.371	1451.015
-47.130	30.839	1522.586	1275.607
-46.115	27.787	1507.456	1242.152
-45.100	27.514	1504.356	1237.689
-44.086	27.476	1502.528	1235.877
-43.071	27.428	1500.869	1234.138
-42.057	27.469	1498.703	1232.588
-41.042	27.485	1497.237	1231.442
-40.027	27.549	1495.392	1230.309
-39.013	27.381	1494.629	1228.494
-37.998	27.438	1493.297	1227.740
-36.984	27.462	1491.986	1226.773
-35.969	27.571	1490.430	1226.175
-34.954	27.523	1489.516	1225.056
-33.940	27.444	1488.005	1223.234
-32.925	27.485	1486.047	1221.847
-31.911	27.417	1485.878	1221.207
-30.896	27.475	1484.096	1220.079
-29.881	27.531	1482.887	1219.414
-28.867	27.606	1481.194	1218.476
-27.852	27.479	1480.855	1217.301
-26.838	27.575	1479.021	1216.381
-25.823	27.608	1477.474	1215.286
-24.809	27.613	1475.919	1213.990
-23.794	27.552	1474.236	1212.154
-22.779	27.501	1473.215	1210.928
-21.765	27.598	1472.275	1210.748
-20.750	27.535	1471.250	1209.441
-19.736	27.567	1470.030	1208.604
-18.721	27.469	1469.121	1207.158
-17.706	27.499	1468.255	1206.595
-16.692	27.500	1466.807	1205.360
-15.677	27.525	1465.838	1204.687
-14.663	27.552	1464.679	1203.864
-13.648	27.424	1464.466	1202.794
-12.633	27.482	1462.837	1201.792
-11.619	27.405	1462.692	1201.119
-10.604	27.336	1462.097	1200.124
-9.590	27.530	1460.661	1200.178
-8.575	27.476	1459.604	1198.908
-7.560	27.581	1458.671	1198.782
-6.546	27.559	1458.038	1198.071
-5.531	27.539	1456.831	1196.899
-4.517	27.444	1456.179	1195.693
-3.502	27.463	1455.113	1194.894
-2.487	27.421	1454.182	1193.807
-1.473	27.452	1453.375	1193.298
-0.458	27.563	1451.667	1192.578
0.556	29.224	1441.641	1180.745
1.571	26.024	1417.711	1140.839
2.586	22.667	1359.790	1073.732
3.600	20.986	1279.437	1000.557
4.615	19.609	1233.213	956.701
5.629	17.242	1177.056	900.528
6.644	10.248	1094.274	802.553
7.659	4.808	1056.649	748.783
8.673	4.243	1051.010	742.016
9.688	4.017	1047.702	738.538
10.702	3.807	1046.289	736.477
11.717	3.805	1044.550	735.178
12.731	6.349	1046.396	748.521
13.746	14.011	1056.868	792.615
14.761	20.695	1065.963	831.412
15.775	22.865	1067.293	842.746
16.790	22.366	1065.824	839.133
17.804	21.454	1064.262	833.484
18.819	20.779	1062.733	828.999
19.834	20.457	1061.358	826.321
20.848	20.341	1060.694	825.180
21.863	20.331	1060.654	825.030
22.877	20.236	1059.759	823.807
23.892	19.967	1059.200	822.025
24.907	19.923	1057.807	820.660
25.921	19.892	1057.359	820.097
26.936	19.851	1056.235	818.958
27.950	19.950	1055.160	818.521
28.965	19.824	1054.044	816.983
29.980	19.997	1053.087	816.986
30.994	20.189	1052.253	817.172
32.009	20.352	1051.188	817.043
33.023	20.335	1050.772	816.565
34.038	20.240	1050.224	815.621
35.053	20.193	1048.814	814.232
36.067	20.064	1047.810	812.779
37.082	19.938	1047.209	811.648
38.096	19.993	1046.083	810.962
39.111	20.122	1045.521	811.058
40.126	20.232	1044.717	810.878
41.140	20.214	1043.018	809.403
42.155	19.704	1041.971	806.139
43.169	19.583	1040.949	804.716
44.184	19.377	1040.290	803.174
45.199	19.370	1038.945	802.030
46.213	19.338	1038.269	801.291
47.228	19.509	1037.481	801.404
48.242	20.006	1036.646	802.994
49.257	20.064	1036.392	802.994
50.271	20.006	1035.318	801.823
51.286	20.075	1034.452	801.403
52.301	20.116	1033.833	801.041
53.315	20.226	1032.827	800.696
54.330	20.003	1031.849	798.841
55.344	19.833	1030.916	797.262
56.359	19.713	1029.749	795.736
57.374	19.665	1029.125	794.966
58.388	19.741	1028.339	794.635
59.403	19.631	1027.555	793.457
60.417	19.492	1026.847	792.201
61.432	19.382	1026.274	791.186
62.447	19.424	1025.816	790.951
63.461	19.332	1024.388	789.363
64.476	19.316	1023.379	788.438
65.490	19.223	1022.478	787.249
66.505	19.139	1022.095	786.501
67.520	19.327	1020.804	786.299
68.534	19.259	1020.667	785.812
69.549	19.238	1019.321	784.613
70.563	19.180	1018.768	783.851
71.578	19.231	1017.487	783.028
72.593	18.930	1017.294	781.443
73.607	18.861	1015.667	779.810
74.622	18.894	1014.517	779.008
75.636	18.988	1014.212	779.133
76.651	19.053	1013.224	778.595
77.666	19.039	1012.707	778.067
78.680	19.177	1011.839	777.955
79.695	19.236	1011.435	777.842
80.709	19.157	1010.807	776.933
81.724	19.268	1010.158	776.867
82.739	19.455	1009.378	777.040
83.753	19.494	1009.078	776.915
84.768	19.925	1007.885	777.866
85.782	20.171	1007.968	778.967
86.797	20.452	1007.527	779.818
87.812	20.578	1006.615	779.610
88.826	20.238	1005.906	777.469
89.841	20.269	1004.649	776.567
90.855	20.180	1004.250	775.791
91.870	20.414	1003.447	776.147
92.884	20.429	1002.761	775.614
93.899	20.277	1002.325	774.533
94.914	20.400	1001.245	774.177
95.928	20.338	1000.198	773.024
96.943	20.314	999.941	772.647
97.957	20.261	998.714	771.398
98.972	20.114	997.946	770.084
99.987	20.161	996.912	769.425
101.001	20.253	996.491	769.439
102.016	20.296	995.363	768.691
103.030	20.270	993.947	767.412
104.045	20.119	993.426	766.277
105.060	20.230	992.853	766.260
106.074	20.111	991.612	764.708
107.089	20.007	990.153	763.058
108.103	19.567	989.259	760.360
109.118	19.537	988.016	759.209
110.133	19.277	987.424	757.541
111.147	19.331	985.973	756.601
112.162	19.155	985.503	755.400
113.176	19.133	984.978	754.836
114.191	19.482	983.555	755.206
115.206	19.377	983.724	754.807
116.220	19.462	982.863	754.452
117.235	19.500	981.203	753.278
118.249	19.339	981.086	752.418
119.264	19.401	979.594	751.475
120.279	19.262	979.164	750.475
121.293	19.266	978.075	749.591
122.308	19.170	977.108	748.367
123.322	18.878	976.758	746.764
124.337	18.864	975.437	745.630
125.352	18.796	974.598	744.628
126.366	18.786	973.444	743.635
127.381	18.854	972.238	742.940
128.395	18.826	971.302	742.038
129.410	18.934	970.529	741.850
130.424	19.055	969.932	741.849
131.439	19.062	969.191	741.249
132.454	19.264	968.443	741.477
133.468	19.509	967.462	741.717
134.483	19.361	967.349	740.928
135.497	19.493	966.651	740.892
136.512	19.414	965.890	739.907
137.527	19.420	965.150	739.298
138.541	19.460	964.488	738.896
139.556	19.528	963.385	738.278
140.570	19.604	963.162	738.369
141.585	19.803	962.122	738.352
142.600	20.089	961.654	739.149
143.614	20.034	961.220	738.516
144.629	20.072	960.700	738.216
145.643	20.325	960.063	738.734
146.658	20.274	959.127	737.735
147.673	20.037	957.809	735.648
148.687	19.801	956.676	733.710
149.702	19.668	955.891	732.480
150.716	19.485	954.982	730.945
151.731	19.447	953.546	729.619
152.746	19.608	953.339	730.078
153.760	19.724	952.175	729.611
154.775	19.699	951.634	729.026
155.789	19.809	950.833	728.811
156.804	20.037	949.946	729.029
157.819	19.757	949.703	727.599
158.833	19.911	948.690	727.405
159.848	20.113	948.173	727.792
160.862	20.198	948.359	728.229
161.877	20.165	946.849	726.867
162.892	19.993	945.276	724.873
163.906	19.612	944.227	722.414
164.921	19.604	943.359	721.650
165.935	19.543	942.617	720.764
166.950	19.516	941.759	719.933
167.964	19.751	941.211	720.430
168.979	19.772	939.811	719.379
169.994	19.623	938.835	717.950
171.008	19.581	938.186	717.218
172.023	19.748	936.920	716.877
173.037	19.981	936.650	717.574
174.052	20.219	936.175	718.131
175.067	19.928	935.935	716.681
176.081	19.735	934.134	714.442
177.096	19.409	932.965	712.137
178.110	19.268	932.337	711.014
179.125	19.385	931.694	710.942
180.140	19.608	930.899	711.190
181.154	19.604	930.561	710.852
182.169	19.743	930.013	710.943
183.183	20.007	929.612	711.658
184.198	20.261	928.659	711.911
185.213	20.098	928.385	710.967
186.227	20.036	927.985	710.344
187.242	19.975	927.539	709.690
188.256	20.214	926.435	709.758
189.271	20.292	925.859	709.574
190.286	20.527	925.289	710.034
191.300	20.326	923.789	708.002
192.315	19.655	922.718	704.384
193.329	19.229	921.682	701.796
194.344	19.363	921.147	701.871
195.359	19.423	921.351	702.210
196.373	19.668	920.574	702.550
197.388	19.756	919.846	702.290
198.402	20.003	920.186	703.491
199.417	20.242	920.090	704.325
200.432	20.316	919.561	704.160
201.446	20.530	919.049	704.572
202.461	20.651	918.610	704.663
203.475	20.703	918.401	704.651
204.490	20.636	917.650	703.742
205.504	20.379	916.172	701.507
206.519	20.085	915.225	699.533
207.534	20.065	914.366	698.734
208.548	20.154	913.724	698.542
209.563	20.037	913.331	697.708
210.577	20.173	912.534	697.586
211.592	20.166	911.935	697.037
212.607	20.366	911.493	697.442
213.621	20.472	911.128	697.524
214.636	20.613	910.142	697.275
215.650	20.527	909.340	696.255
216.665	20.290	909.233	695.161
217.680	20.495	908.620	695.452
218.694	20.711	908.194	695.928
219.709	20.678	908.015	695.596
220.723	20.637	907.182	694.733
221.738	20.591	906.161	693.705
222.753	20.596	905.552	693.200
223.767	20.288	904.835	691.362
224.782	20.543	904.221	691.848
225.796	20.754	903.315	691.931
226.811	20.851	902.522	691.646
227.826	20.738	902.021	690.754
228.840	20.429	901.483	689.055
229.855	20.336	900.886	688.168
230.869	20.405	900.112	687.789
231.884	20.419	899.419	687.256
232.899	20.271	898.591	685.974
233.913	20.174	897.878	684.989
234.928	20.030	897.358	683.964
235.942	20.018	896.352	683.089
236.957	19.996	895.550	682.330
237.972	19.986	895.346	682.073
238.986	20.117	894.360	681.780
240.001	19.979	893.734	680.698
241.015	20.020	893.140	680.345
242.030	20.096	892.811	680.333
243.045	20.251	891.992	680.260
244.059	20.280	891.447	679.895
245.074	20.226	891.325	679.533
246.088	20.419	890.323	679.463
247.103	20.528	890.122	679.676
248.117	20.698	889.643	679.912
249.132	20.802	889.473	680.130
250.147	21.229	889.110	681.459
251.161	21.393	888.739	681.754
252.176	21.603	887.715	681.726
253.190	21.517	887.376	681.068
254.205	21.536	887.080	680.856
255.220	21.693	886.188	680.723
256.234	21.613	885.552	679.863
257.249	21.492	885.078	678.970
258.263	21.458	884.674	678.467
259.278	21.484	883.670	677.736
260.293	21.453	883.471	677.406
261.307	21.599	882.636	677.269
262.322	21.527	882.538	676.856
263.336	21.642	881.602	676.522
264.351	21.629	881.376	676.239
265.366	21.586	880.407	675.268
266.380	21.630	879.890	674.982
267.395	21.589	879.329	674.336
268.409	21.568	877.855	673.064
269.424	21.572	876.797	672.208
270.439	21.462	876.472	671.478
271.453	21.431	875.682	670.695
272.468	21.251	875.094	669.494
273.482	21.302	874.313	669.031
274.497	21.262	874.027	668.601
275.512	21.261	872.718	667.537
276.526	21.255	872.435	667.241
277.541	21.299	871.701	666.787
278.555	21.213	871.252	666.056
279.570	21.615	870.693	667.102
280.585	21.666	870.747	667.277
281.599	21.826	869.962	667.226
282.614	21.570	868.975	665.437
283.628	21.082	868.592	663.229
284.643	21.230	867.953	663.247
285.657	21.216	867.223	662.579
286.672	21.323	866.993	662.749
287.687	21.366	866.582	662.540
288.701	21.311	866.008	661.834
289.716	21.427	865.125	661.540
290.730	21.407	864.557	660.970
291.745	21.461	864.076	660.747
292.760	21.405	863.299	659.883
293.774	21.382	862.860	659.403
294.789	21.656	862.843	660.366
295.803	21.785	862.032	660.170
296.818	21.556	861.100	658.538
297.833	21.433	860.370	657.458
298.847	21.322	859.620	656.412
299.862	21.442	859.184	656.469
300.876	21.528	858.460	656.180
301.891	21.492	858.420	655.957
302.906	21.898	857.280	656.548
303.920	21.900	857.323	656.532
304.935	22.098	856.544	656.616
305.949	22.149	856.028	656.353
306.964	21.988	855.591	655.359
307.979	21.808	854.907	654.104
308.993	21.763	854.177	653.322
310.008	21.975	853.760	653.734
311.022	21.967	853.228	653.238
312.037	21.779	853.032	652.333
313.052	21.707	851.624	650.930
314.066	21.479	851.488	649.922
315.081	21.374	850.462	648.690
316.095	21.291	849.826	647.840
317.110	21.281	849.476	647.481
318.125	21.334	848.716	647.040
319.139	21.390	848.198	646.795
320.154	21.282	847.527	645.825
321.168	21.281	847.076	645.422
322.183	21.395	846.914	645.662
323.197	21.493	846.204	645.427
324.212	21.658	845.290	645.280
325.227	21.429	845.076	644.216
326.241	21.642	844.417	644.439
327.256	21.436	843.815	643.166
328.270	21.362	843.620	642.690
329.285	21.416	843.116	642.448
330.300	21.415	842.161	641.657
331.314	21.257	841.856	640.790
332.329	21.347	840.826	640.279
333.343	21.529	840.466	640.613
334.358	21.831	839.824	641.173
335.373	21.838	839.483	640.880
336.387	21.951	838.829	640.737
337.402	21.881	838.874	640.458
338.416	21.980	838.046	640.131
339.431	22.149	838.071	640.709
340.446	22.381	837.597	641.136
341.460	22.253	837.166	640.283
342.475	22.525	836.504	640.710
343.489	22.713	835.674	640.702
344.504	22.813	835.462	640.844
345.519	22.751	834.833	640.081
346.533	22.757	834.750	639.981
347.548	22.761	834.302	639.594
348.562	22.292	833.320	637.087
349.577	22.199	831.970	635.664
350.592	21.885	831.607	634.194
351.606	22.083	830.951	634.353
352.621	21.779	830.355	632.744
353.635	21.887	830.200	632.960
354.650	22.102	829.500	633.147
355.665	22.024	829.722	632.979
356.679	21.994	829.011	632.271
357.694	22.344	828.473	633.067
358.708	22.328	827.912	632.524
359.723	22.155	827.428	631.477
360.738	22.135	826.801	630.868
361.752	22.219	826.329	630.754
362.767	22.266	825.847	630.500
363.781	22.462	825.676	631.014
364.796	22.573	825.570	631.276
365.810	22.607	825.292	631.129
366.825	22.960	824.584	631.795
367.840	23.063	824.076	631.716
368.854	22.921	824.079	631.157
369.869	22.827	823.439	630.276
370.883	22.601	822.542	628.728
371.898	22.647	821.788	628.261
372.913	22.783	821.436	628.419
373.927	22.999	820.677	628.551
374.942	22.833	819.807	627.239
375.956	22.631	819.726	626.402
376.971	22.964	818.528	626.613
377.986	23.079	818.220	626.731
379.000	22.987	818.355	626.450
380.015	23.164	817.607	626.452
381.029	22.846	817.549	625.226
382.044	23.054	816.481	625.088
383.059	22.993	815.865	624.346
384.073	23.130	815.292	624.336
385.088	23.054	814.408	623.334
386.102	22.707	813.892	621.662
387.117	22.609	812.800	620.429
388.132	22.546	812.650	620.039
389.146	22.506	812.148	619.459
390.161	22.498	811.992	619.259
391.175	22.770	811.674	619.917
392.190	23.075	811.269	620.621
393.205	22.797	810.961	619.357
394.219	22.664	810.236	618.281
395.234	22.580	809.725	617.542
396.248	22.344	809.157	616.226
397.263	22.285	808.676	615.599
398.278	22.410	807.401	615.011
399.292	22.231	807.402	614.333
400.307	22.241	806.974	613.988
401.321	22.240	806.486	613.559
402.336	22.193	806.285	613.188
403.350	22.426	806.034	613.755
404.365	22.511	805.691	613.738
405.380	22.765	805.394	614.341
406.394	23.012	805.401	615.151
407.409	23.216	804.733	615.295
408.423	23.141	804.496	614.798
409.438	23.204	803.861	614.478
410.453	23.373	803.303	614.582
411.467	23.345	803.042	614.230
412.482	23.419	802.592	614.088
413.496	23.464	802.315	613.981
414.511	23.722	801.955	614.541
415.526	23.598	801.509	613.716
416.540	23.438	800.896	612.643
417.555	23.304	800.913	612.137
418.569	23.445	800.058	611.917
419.584	23.485	799.192	611.336
420.599	23.601	799.031	611.558
421.613	164.881	1371.333	1799.735
422.628	143.241	1454.690	1799.822
