DTS Sentinel unit serial number:	SN413079Multiplexer serial number:	ORYXHardware model number:	OX4-SRSoftware version number:	ORYX F/W v4.00 Oryx Data Collector v3.7.2.0data status	okinstallation	princeton_trtdifferential loss correction	single-endedforward channel	channel 3reverse channel	N/Adate	2019/09/19time	12:44:34forward acquisition time	60.00reverse acquisition time	0.00gamma	496.2192k internal	0.2333k external	0.2333temperature offset calibration	0.9987default loss term (dB/km)	0.3790temperature slope calibration	1.0000multiplexer offset coefficient	1.0000multiplexer slope coefficient	1.0000fibre end	0.00T internal ref (°C)	27.78T ext. ref 1 (°C)	0.89T ext. ref 2 (°C)	25.92length (m)	temperature (°C)	Stokes	anti-Stokes-747.200	-200.000	0.011	-0.184
-746.185	-91.257	-0.410	-0.118
-745.171	-138.133	0.205	-0.023
-744.156	-36.888	0.133	0.072
-743.142	341.222	-0.142	0.280
-742.127	-4.724	0.192	-0.133
-741.112	238.665	-0.197	-0.329
-740.098	-18.410	-0.277	0.174
-739.083	-142.551	0.249	0.025
-738.069	24.507	-0.133	0.111
-737.054	-6.085	0.040	0.027
-736.039	33.444	-0.201	-0.175
-735.025	-159.839	0.200	-0.011
-734.010	5.166	0.089	-0.066
-732.996	153.149	0.056	0.077
-731.981	-64.047	0.038	0.016
-730.966	9.013	0.220	-0.167
-729.952	267.280	0.244	-0.429
-728.937	89.113	-0.232	-0.259
-727.923	243.060	-0.114	0.192
-726.908	222.718	-0.093	-0.151
-725.894	624.807	0.074	-0.186
-724.879	-133.266	-0.190	0.024
-723.864	4.490	-0.332	-0.245
-722.850	310.091	-0.096	-0.180
-721.835	69.768	0.014	-0.015
-720.821	800.000	-0.074	-0.275
-719.806	-144.920	-0.100	-0.009
-718.791	1.646	0.146	0.106
-717.777	-106.812	0.096	0.021
-716.762	-147.174	0.137	-0.012
-715.748	-8.115	-0.275	-0.186
-714.733	262.790	0.139	-0.243
-713.718	-11.608	-0.103	-0.068
-712.704	50.849	0.053	-0.050
-711.689	-200.000	0.074	-0.489
-710.675	-56.569	-0.446	-0.199
-709.660	-200.000	0.001	-0.149
-708.645	232.952	-0.142	-0.235
-707.631	-121.330	0.216	0.036
-706.616	346.430	0.202	-0.399
-705.602	-120.043	0.151	-0.026
-704.587	106.161	-0.278	-0.330
-703.572	-200.000	0.002	0.018
-702.558	-65.701	-0.123	-0.050
-701.543	800.000	-0.061	0.170
-700.529	800.000	0.098	0.284
-699.514	23.195	0.236	0.194
-698.499	-160.066	-0.164	-0.009
-697.485	-200.000	0.034	0.352
-696.470	-46.363	0.049	0.024
-695.456	-152.428	0.120	-0.009
-694.441	168.742	0.105	-0.150
-693.426	-63.104	-0.252	-0.104
-692.412	-93.782	0.098	-0.027
-691.397	618.801	-0.094	-0.238
-690.383	224.839	0.059	-0.096
-689.368	-200.000	0.004	0.314
-688.354	-200.000	0.371	-0.002
-687.339	-54.807	0.104	0.047
-686.324	-102.149	-0.380	-0.092
-685.310	130.115	-0.163	-0.210
-684.295	-200.000	-0.002	-0.174
-683.281	164.721	0.121	-0.171
-682.266	-108.751	-0.353	-0.076
-681.251	-103.126	-0.385	0.092
-680.237	-200.000	-0.012	0.160
-679.222	192.021	-0.059	-0.089
-678.208	11.278	-0.047	-0.036
-677.193	239.083	0.170	-0.284
-676.178	-93.276	-0.201	0.056
-675.164	-200.000	0.030	-0.198
-674.149	448.516	-0.027	-0.061
-673.135	-161.799	-0.297	-0.015
-672.120	-200.000	0.028	-0.249
-671.105	-49.050	0.097	0.046
-670.091	62.567	-0.230	-0.231
-669.076	-28.096	-0.060	0.035
-668.062	-8.967	-0.219	0.147
-667.047	-110.324	0.126	0.026
-666.032	264.304	0.252	0.440
-665.018	-200.000	0.007	-0.129
-664.003	136.853	-0.205	0.269
-662.989	800.000	-0.016	0.062
-661.974	-65.576	0.251	0.101
-660.959	800.000	0.039	0.147
-659.945	-17.102	-0.090	-0.057
-658.930	-19.829	0.367	-0.227
-657.916	800.000	0.072	-0.288
-656.901	262.103	0.086	-0.150
-655.886	-200.000	-0.066	0.306
-654.872	120.395	0.067	-0.083
-653.857	-200.000	0.000	0.154
-652.843	559.296	0.027	-0.066
-651.828	-140.823	0.088	-0.009
-650.814	304.617	-0.031	-0.057
-649.799	64.494	-0.096	0.097
-648.784	-162.129	0.038	0.002
-647.770	-35.829	-0.202	-0.110
-646.755	-138.687	-0.314	-0.034
-645.741	-114.222	-0.431	0.083
-644.726	-102.428	-0.277	-0.066
-643.711	243.313	0.189	0.317
-642.697	-105.722	-0.119	-0.027
-641.682	26.389	0.235	-0.196
-640.668	-19.523	-0.140	0.087
-639.653	-200.000	-0.046	0.231
-638.638	-182.115	0.251	0.005
-637.624	-200.000	0.003	0.087
-636.609	45.999	-0.245	-0.227
-635.595	129.241	0.130	-0.166
-634.580	-113.639	0.118	-0.023
-633.565	76.830	-0.156	-0.166
-632.551	-200.000	0.001	0.300
-631.536	-130.401	0.325	0.044
-630.522	-65.822	0.176	-0.070
-629.507	-176.463	0.129	0.003
-628.492	7.538	0.161	-0.121
-627.478	-200.000	-0.023	-0.268
-626.463	568.477	-0.137	-0.334
-625.449	192.049	-0.138	0.208
-624.434	-125.715	0.164	-0.025
-623.419	-102.742	0.257	-0.061
-622.405	-200.000	0.023	0.144
-621.390	67.597	0.221	0.225
-620.376	191.557	0.073	0.110
-619.361	19.661	0.047	-0.038
-618.346	64.641	0.065	0.066
-617.332	142.274	-0.072	-0.096
-616.317	182.919	-0.216	-0.318
-615.303	-96.537	-0.061	0.016
-614.288	-200.000	-0.018	0.125
-613.273	-100.641	0.158	-0.039
-612.259	-86.889	-0.221	0.067
-611.244	800.000	-0.106	-0.315
-610.230	-127.448	-0.436	-0.063
-609.215	170.655	-0.329	-0.471
-608.201	-14.719	0.145	-0.093
-607.186	-166.480	0.222	0.009
-606.171	800.000	0.075	0.320
-605.157	-200.000	0.016	-0.285
-604.142	50.010	0.083	-0.079
-603.128	119.249	-0.267	-0.330
-602.113	179.156	0.076	-0.111
-601.098	-53.966	0.298	-0.136
-600.084	-200.000	-0.033	-0.285
-599.069	-27.036	-0.269	0.157
-598.055	-200.000	0.071	0.430
-597.040	-110.968	-0.156	-0.032
-596.025	619.623	-0.008	-0.021
-595.011	-200.000	-0.002	0.063
-593.996	800.000	0.076	0.214
-592.982	-75.000	-0.381	-0.136
-591.967	-200.000	-0.046	0.317
-590.952	-66.670	0.197	0.078
-589.938	-200.000	0.045	-0.239
-588.923	157.578	-0.151	-0.209
-587.909	-81.892	-0.131	-0.043
-586.894	164.461	-0.167	-0.236
-585.879	-60.993	0.201	0.085
-584.865	37.685	0.215	-0.191
-583.850	-99.415	-0.327	0.082
-582.836	-148.588	0.254	0.021
-581.821	-134.936	-0.242	0.029
-580.806	-79.123	-0.187	0.063
-579.792	120.102	-0.167	-0.207
-578.777	119.491	0.231	-0.286
-577.763	12.760	-0.185	0.143
-576.748	108.994	-0.106	-0.127
-575.733	-94.767	0.200	0.054
-574.719	369.113	0.091	-0.184
-573.704	6.333	-0.105	0.078
-572.690	-41.110	-0.137	0.070
-571.675	-200.000	-0.011	0.082
-570.661	-17.308	-0.260	0.163
-569.646	-200.000	0.049	-0.366
-568.631	115.173	0.083	-0.101
-567.617	800.000	-0.061	-0.190
-566.602	-200.000	0.018	0.320
-565.588	-200.000	-0.005	0.197
-564.573	18.305	-0.238	0.190
-563.558	329.077	-0.019	-0.036
-562.544	-200.000	-0.048	0.367
-561.529	171.512	-0.289	-0.414
-560.515	-30.352	-0.299	0.170
-559.500	8.884	-0.070	0.053
-558.485	-146.976	-0.131	0.011
-557.471	-200.000	0.041	-0.340
-556.456	-200.000	0.003	0.252
-555.442	252.127	0.194	-0.330
-554.427	2.598	-0.101	0.073
-553.412	-16.001	0.258	0.164
-552.398	30.213	0.113	0.097
-551.383	-200.000	-0.029	0.256
-550.369	-21.537	0.122	0.074
-549.354	-84.069	-0.150	0.048
-548.339	-200.000	-0.037	0.343
-547.325	-200.000	-0.276	0.000
-546.310	8.114	0.053	-0.040
-545.296	27.543	-0.097	0.082
-544.281	-9.574	-0.214	0.142
-543.266	-21.799	0.032	-0.019
-542.252	-10.449	0.281	0.186
-541.237	800.000	-0.048	-0.162
-540.223	473.927	-0.026	-0.059
-539.208	-103.634	0.196	0.046
-538.193	-200.000	-0.033	0.223
-537.179	523.484	-0.005	0.012
-536.164	-121.723	-0.111	0.018
-535.150	-200.000	-0.005	0.303
-534.135	800.000	-0.100	0.423
-533.121	-144.044	-0.230	0.021
-532.106	-109.216	0.283	-0.060
-531.091	-86.035	0.146	-0.045
-530.077	-200.000	0.037	-0.305
-529.062	285.468	-0.061	0.110
-528.048	-17.839	0.122	-0.076
-527.033	800.000	0.050	-0.216
-526.018	-200.000	-0.005	0.085
-525.004	-200.000	0.007	-0.293
-523.989	-121.823	0.302	-0.050
-522.975	-92.529	-0.181	0.051
-521.960	-200.000	0.014	0.410
-520.945	-189.410	-0.117	-0.001
-519.931	83.708	0.229	-0.249
-518.916	-200.000	-0.012	-0.208
-517.902	273.389	0.035	-0.061
-516.887	-90.451	0.169	-0.049
-515.872	-58.956	0.288	0.124
-514.858	-200.000	-0.017	-0.141
-513.843	71.498	-0.150	-0.155
-512.829	133.119	0.088	0.113
-511.814	-156.567	-0.208	0.013
-510.799	-44.470	0.123	-0.061
-509.785	33.965	0.149	0.129
-508.770	244.244	0.057	0.095
-507.756	-112.870	0.113	0.022
-506.741	162.366	-0.199	-0.278
-505.726	35.603	-0.140	-0.122
-504.712	-139.048	0.023	0.002
-503.697	-53.019	0.258	0.118
-502.683	38.399	0.144	0.128
-501.668	-1.781	0.190	0.133
-500.653	-57.821	0.170	0.074
-499.639	11.916	0.123	0.094
-498.624	688.017	0.061	-0.158
-497.610	466.496	0.141	-0.315
-496.595	-200.000	0.065	-0.308
-495.581	-133.345	0.293	-0.037
-494.566	215.295	0.059	-0.094
-493.551	413.349	-0.056	-0.119
-492.537	726.451	0.149	0.396
-491.522	248.572	0.137	-0.231
-490.508	232.251	0.024	0.039
-489.493	-154.710	0.185	-0.012
-488.478	7.044	0.184	0.136
-487.464	800.000	0.105	0.329
-486.449	8.115	0.137	0.103
-485.435	-127.380	0.253	-0.037
-484.420	-102.757	0.255	-0.061
-483.405	-200.000	-0.060	0.387
-482.391	221.581	-0.031	0.050
-481.376	-200.000	0.008	0.390
-480.362	-200.000	0.011	-0.103
-479.347	130.594	-0.226	0.288
-478.332	45.490	0.111	0.102
-477.318	800.000	0.102	-0.446
-476.303	-112.843	0.174	0.034
-475.289	-135.391	-0.202	0.024
-474.274	53.910	-0.112	-0.107
-473.259	189.559	0.155	-0.231
-472.245	28.776	-0.077	-0.065
-471.230	-200.000	0.014	-0.284
-470.216	-41.377	-0.153	0.078
-469.201	-90.647	0.129	-0.037
-468.186	-30.472	0.640	0.361
-467.172	800.000	-0.160	0.524
-466.157	-154.290	-0.276	0.019
-465.143	305.564	-0.094	-0.173
-464.128	682.588	0.049	-0.127
-463.113	-57.430	-0.075	-0.033
-462.099	-94.595	-0.225	0.061
-461.084	800.000	-0.083	0.329
-460.070	-200.000	-0.035	-0.182
-459.055	-1.240	0.109	-0.076
-458.040	-11.251	-0.128	-0.084
-457.026	-7.287	-0.282	0.190
-456.011	-200.000	-0.002	0.482
-454.997	-102.784	-0.231	0.055
-453.982	-200.000	-0.007	-0.178
-452.968	532.644	-0.125	-0.293
-451.953	-200.000	0.017	0.159
-450.938	-95.606	0.286	-0.076
-449.924	235.769	0.066	0.108
-448.909	3.417	-0.120	0.087
-447.895	-125.297	-0.160	-0.024
-446.880	-60.018	-0.310	0.131
-445.865	800.000	0.049	-0.147
-444.851	-41.150	-0.034	0.017
-443.836	102.550	-0.134	0.156
-442.822	-200.000	-0.015	0.258
-441.807	-95.006	-0.062	0.017
-440.792	-143.661	0.114	0.011
-439.778	-41.447	0.212	-0.108
-438.763	-200.000	-0.027	-0.353
-437.749	-69.115	0.127	-0.048
-436.734	34.149	-0.110	-0.095
-435.719	151.589	-0.115	-0.156
-434.705	-39.910	-0.417	-0.216
-433.690	-200.000	-0.042	-0.216
-432.676	-200.000	0.006	-0.296
-431.661	-37.352	0.050	-0.026
-430.646	20.374	-0.211	0.169
-429.632	-195.518	-0.228	-0.002
-428.617	-40.109	-0.252	-0.130
-427.603	-200.000	-0.005	0.189
-426.588	-20.428	-0.077	0.047
-425.573	131.882	-0.031	0.039
-424.559	-125.795	-0.067	-0.010
-423.544	800.000	0.093	0.344
-422.530	165.810	0.062	0.087
-421.515	-9.395	0.043	0.028
-420.500	57.531	-0.347	0.336
-419.486	310.506	0.119	-0.222
-418.471	29.034	-0.359	-0.302
-417.457	309.638	0.152	-0.283
-416.442	-41.499	0.500	-0.255
-415.428	90.153	0.045	-0.050
-414.413	69.343	-0.125	-0.128
-413.398	127.221	-0.114	-0.143
-412.384	-73.904	-0.116	0.042
-411.369	187.514	0.113	0.167
-410.355	-200.000	0.005	-0.107
-409.340	23.394	0.179	0.146
-408.325	164.870	-0.033	0.047
-407.311	58.141	0.191	-0.186
-406.296	798.561	-0.072	-0.197
-405.282	37.118	-0.066	-0.058
-404.267	215.271	0.034	-0.053
-403.252	48.437	0.094	0.088
-402.238	-162.668	0.154	-0.007
-401.223	-33.519	-0.125	-0.069
-400.209	-200.000	0.053	-0.254
-399.194	-114.359	-0.317	-0.061
-398.179	79.771	0.267	0.285
-397.165	-18.491	-0.216	-0.134
-396.150	800.000	-0.081	-0.257
-395.136	156.096	-0.117	0.160
-394.121	148.402	-0.174	-0.233
-393.106	800.000	0.081	-0.244
-392.092	-200.000	0.026	-0.251
-391.077	-200.000	0.019	-0.175
-390.063	557.126	0.189	0.452
-389.048	-136.731	-0.327	-0.037
-388.033	-200.000	0.012	0.116
-387.019	-200.000	-0.031	0.469
-386.004	-200.000	-0.006	0.031
-384.990	800.000	0.075	0.268
-383.975	333.891	-0.060	0.115
-382.960	5.386	0.288	-0.210
-381.946	22.383	0.267	-0.216
-380.931	800.000	-0.037	-0.121
-379.917	101.607	0.168	0.194
-378.902	218.729	0.082	0.129
-377.888	-8.431	-0.257	-0.171
-376.873	-200.000	-0.008	-0.162
-375.858	53.667	0.284	0.271
-374.844	474.900	0.199	-0.446
-373.829	203.770	-0.087	0.134
-372.815	-130.575	-0.120	0.016
-371.800	58.548	-0.048	0.046
-370.785	-13.340	0.213	-0.137
-369.771	-200.000	0.030	-0.151
-368.756	-39.168	-0.097	-0.051
-367.742	-200.000	-0.054	-0.292
-366.727	800.000	-0.099	0.385
-365.712	-45.202	-0.068	0.034
-364.698	211.317	-0.146	-0.228
-363.683	-128.019	-0.033	0.005
-362.669	-122.524	0.151	-0.024
-361.654	-200.000	0.044	-0.455
-360.639	-200.000	-0.057	-0.338
-359.625	156.259	-0.094	0.129
-358.610	-174.292	-0.218	-0.006
-357.596	81.376	-0.074	-0.079
-356.581	15.481	0.197	-0.153
-355.566	800.000	-0.046	0.170
-354.552	14.699	0.359	-0.278
-353.537	-47.219	-0.107	0.052
-352.523	122.345	-0.065	-0.080
-351.508	55.774	0.178	0.170
-350.493	-200.000	0.016	0.216
-349.479	-200.000	0.013	-0.071
-348.464	-18.425	0.109	-0.067
-347.450	441.047	-0.160	0.345
-346.435	-200.000	0.008	0.270
-345.420	147.895	0.035	0.046
-344.406	183.033	0.123	0.180
-343.391	-200.000	0.050	-0.314
-342.377	260.198	0.197	0.338
-341.362	-200.000	-0.040	-0.282
-340.348	-200.000	-0.023	-0.368
-339.333	133.192	0.237	0.303
-338.318	320.646	0.139	0.261
-337.304	-23.293	0.177	-0.105
-336.289	800.000	-0.020	0.081
-335.275	279.113	-0.163	-0.288
-334.260	321.939	-0.192	0.361
-333.245	498.571	-0.073	0.166
-332.231	290.334	-0.081	0.145
-331.216	800.000	0.039	0.136
-330.202	-88.039	-0.158	0.047
-329.187	137.369	0.137	-0.178
-328.172	-150.121	-0.146	0.011
-327.158	513.963	-0.050	-0.115
-326.143	101.601	0.106	0.122
-325.129	34.335	0.346	0.298
-324.114	-11.211	0.195	0.127
-323.099	76.175	-0.019	-0.020
-322.085	-6.007	-0.308	-0.208
-321.070	192.442	0.249	-0.371
-320.056	-177.653	-0.184	0.004
-319.041	800.000	-0.080	-0.237
-318.026	183.170	-0.187	-0.273
-317.012	-87.651	0.247	0.074
-315.997	156.666	0.232	0.317
-314.983	16.126	0.157	0.122
-313.968	68.977	-0.071	0.072
-312.953	-100.763	0.324	0.079
-311.939	376.777	0.104	0.209
-310.924	-200.000	-0.018	0.164
-309.910	401.056	0.050	0.103
-308.895	63.452	0.056	0.055
-307.880	-122.692	0.262	0.042
-306.866	475.326	0.042	-0.094
-305.851	-53.721	-0.025	0.011
-304.837	67.498	0.275	0.278
-303.822	92.056	-0.076	0.084
-302.807	-72.930	-0.265	0.096
-301.793	800.000	0.057	-0.218
-300.778	-57.407	0.088	0.038
-299.764	560.582	0.131	-0.314
-298.749	235.437	0.179	-0.292
-297.735	22.990	-0.131	-0.106
-296.720	66.690	-0.142	-0.143
-295.705	197.438	0.128	0.192
-294.691	-64.847	-0.087	-0.035
-293.676	90.910	-0.074	-0.082
-292.662	800.000	-0.101	-0.295
-291.647	-111.128	0.273	0.055
-290.632	141.708	-0.228	-0.298
-289.618	-128.239	0.126	0.018
-288.603	47.921	0.054	0.050
-287.589	-154.174	0.082	0.005
-286.574	-29.263	0.186	0.105
-285.559	181.925	-0.104	-0.152
-284.545	124.595	-0.115	0.143
-283.530	-131.913	0.314	-0.041
-282.516	402.029	-0.096	-0.200
-281.501	-128.916	-0.389	0.054
-280.486	88.154	-0.106	-0.116
-279.472	800.000	-0.074	0.308
-278.457	123.850	-0.079	-0.098
-277.443	68.305	-0.193	-0.195
-276.428	16.582	0.357	0.279
-275.413	-200.000	-0.000	-0.068
-274.399	800.000	0.089	-0.255
-273.384	628.398	-0.060	0.149
-272.370	-92.950	-0.149	-0.041
-271.355	304.213	-0.035	-0.065
-270.340	800.000	0.028	-0.092
-269.326	800.000	0.030	-0.103
-268.311	-200.000	0.018	-0.082
-267.297	-200.000	-0.024	-0.261
-266.282	281.324	-0.170	-0.301
-265.267	-155.501	0.620	-0.039
-264.253	276.371	0.170	0.298
-263.238	-93.636	-0.165	0.045
-262.224	-179.467	0.340	0.007
-261.209	39.102	-0.206	-0.181
-260.195	49.205	-0.091	0.085
-259.180	-46.937	0.317	-0.153
-258.165	-200.000	-0.022	0.311
-257.151	-81.332	0.187	0.061
-256.136	85.175	-0.049	-0.053
-255.122	364.337	0.014	-0.027
-254.107	703.579	-0.042	0.109
-253.092	-149.487	-0.389	0.030
-252.078	-141.328	0.175	-0.018
-251.063	800.000	-0.186	0.548
-250.049	264.688	-0.149	0.256
-249.034	230.690	0.251	0.406
-248.019	-141.055	0.098	-0.010
-247.005	-41.036	-0.261	0.133
-245.990	11.625	-0.133	0.101
-244.976	-150.507	-0.243	0.018
-243.961	-81.746	-0.425	-0.137
-242.946	800.000	-0.103	0.314
-241.932	-112.527	0.150	-0.030
-240.917	-45.261	-0.439	0.215
-239.903	800.000	-0.037	-0.136
-238.888	13.136	-0.238	-0.181
-237.873	-142.102	0.235	-0.023
-236.859	-200.000	-0.002	0.076
-235.844	7.087	0.029	0.021
-234.830	-160.627	-0.291	0.015
-233.815	-125.287	-0.331	-0.050
-232.800	-120.634	0.296	-0.049
-231.786	800.000	-0.061	0.242
-230.771	222.262	-0.171	-0.272
-229.757	630.225	-0.052	-0.129
-228.742	127.984	0.144	-0.181
-227.727	380.219	0.066	-0.133
-226.713	-84.284	-0.196	-0.061
-225.698	133.529	0.118	0.151
-224.684	26.568	-0.118	0.097
-223.669	-200.000	0.001	-0.031
-222.655	550.188	0.036	0.086
-221.640	-59.208	-0.175	0.074
-220.625	-200.000	0.009	0.240
-219.611	70.330	-0.151	0.154
-218.596	111.900	-0.176	-0.209
-217.582	-200.000	-0.019	0.302
-216.567	48.008	0.278	-0.256
-215.552	-155.992	-0.189	0.012
-214.538	-200.000	0.008	0.203
-213.523	-200.000	-0.064	0.281
-212.509	86.948	0.202	-0.219
-211.494	-92.856	0.283	0.078
-210.479	692.171	-0.125	0.322
-209.465	411.735	-0.065	-0.136
-208.450	86.616	0.097	-0.105
-207.436	-134.225	0.227	0.028
-206.421	-200.000	0.006	0.048
-205.406	-66.943	-0.135	0.052
-204.392	49.690	0.218	-0.203
-203.377	-200.000	0.039	-0.354
-202.363	-49.598	0.088	0.041
-201.348	-6.767	0.243	0.163
-200.333	-92.041	-0.126	0.035
-199.319	130.653	-0.126	-0.159
-198.304	715.587	-0.107	0.279
-197.290	-49.781	-0.095	-0.045
-196.275	182.778	0.163	0.237
-195.260	-119.685	0.096	0.016
-194.246	133.880	-0.113	-0.144
-193.231	-148.265	-0.195	0.016
-192.217	-129.495	0.298	0.041
-191.202	519.919	0.131	-0.302
-190.187	-70.988	0.200	0.074
-189.173	28.388	0.070	0.058
-188.158	130.655	-0.084	0.106
-187.144	-200.000	0.011	0.538
-186.129	-158.970	0.393	0.022
-185.114	44.906	-0.243	0.220
-184.100	-23.791	0.390	0.230
-183.085	-84.541	-0.224	-0.070
-182.071	114.047	-0.248	-0.296
-181.056	800.000	-0.055	-0.176
-180.042	-200.000	-0.014	0.072
-179.027	-200.000	-0.034	0.158
-178.012	-140.547	0.208	-0.021
-176.998	80.092	-0.083	0.088
-175.983	124.385	0.079	-0.098
-174.969	-118.984	0.177	0.031
-173.954	800.000	0.111	-0.345
-172.939	-56.423	-0.117	-0.051
-171.925	71.774	-0.094	-0.096
-170.910	-114.865	0.162	0.030
-169.896	-200.000	-0.037	-0.247
-168.881	-53.412	0.157	-0.071
-167.866	800.000	0.061	0.177
-166.852	-200.000	-0.073	0.325
-165.837	-104.619	0.222	0.050
-164.823	32.144	0.080	-0.068
-163.808	-200.000	-0.016	0.294
-162.793	10.130	-0.177	0.132
-161.779	-95.638	-0.196	0.051
-160.764	191.875	0.153	-0.227
-159.750	-122.830	0.275	0.044
-158.735	-111.827	-0.215	0.043
-157.720	800.000	0.038	0.156
-156.706	257.531	0.125	-0.211
-155.691	22.622	-0.359	-0.289
-154.677	85.775	0.175	0.189
-153.662	-127.366	-0.261	0.037
-152.647	-104.039	-0.212	-0.049
-151.633	-103.462	-0.053	0.012
-150.618	13.157	0.133	-0.101
-149.604	332.455	0.114	0.216
-148.589	-16.602	-0.153	-0.095
-147.574	-31.540	0.099	-0.055
-146.560	158.817	-0.082	-0.112
-145.545	-17.503	0.134	-0.083
-144.531	2.447	0.139	0.099
-143.516	139.940	0.281	-0.363
-142.502	547.419	-0.136	0.319
-141.487	123.523	0.148	0.182
-140.472	-4.114	-0.116	0.079
-139.458	713.757	-0.029	-0.074
-138.443	-200.000	-0.051	-0.354
-137.429	-91.618	0.505	0.141
-136.414	151.208	0.361	0.483
-135.399	237.252	-0.217	-0.353
-134.385	-95.541	-0.276	-0.073
-133.370	-28.905	0.140	0.079
-132.356	351.561	0.034	0.066
-131.341	199.948	-0.075	0.113
-130.326	-89.738	-0.073	-0.021
-129.312	-76.127	0.093	-0.032
-128.297	68.341	0.100	0.101
-127.283	694.630	-0.047	0.120
-126.268	-129.190	0.136	-0.019
-125.253	178.952	0.169	-0.242
-124.239	-55.278	0.169	-0.075
-123.224	78.012	0.115	0.120
-122.210	800.000	0.112	-0.323
-121.195	162.222	0.093	0.128
-120.180	-65.280	0.027	0.010
-119.166	-122.372	-0.011	-0.002
-118.151	302.676	0.035	-0.063
-117.137	-200.000	-0.025	0.256
-116.122	89.736	0.157	0.172
-115.107	592.797	0.009	0.022
-114.093	-200.000	0.043	0.278
-113.078	625.332	-0.085	0.210
-112.064	-122.371	0.281	-0.045
-111.049	-51.108	-0.323	0.149
-110.034	539.926	0.055	-0.127
-109.020	-39.873	0.168	-0.086
-108.005	94.710	0.022	0.024
-106.991	-16.370	0.205	-0.127
-105.976	-115.671	0.340	-0.063
-104.962	-200.000	-0.018	-0.139
-103.947	703.793	-0.023	0.060
-102.932	-200.000	0.003	-0.336
-101.918	-200.000	0.015	-0.210
-100.903	202.384	0.061	-0.092
-99.889	-76.104	0.169	0.058
-98.874	-73.275	-0.055	-0.020
-97.859	89.335	-0.083	-0.091
-96.845	34.602	0.088	0.075
-95.830	70.190	0.320	-0.324
-94.816	-49.502	-0.198	0.092
-93.801	27.347	0.267	0.220
-92.786	634.556	-0.061	0.153
-91.772	91.866	0.033	-0.036
-90.757	-200.000	0.024	-0.146
-89.743	69.327	-0.194	-0.196
-88.728	-67.941	0.093	-0.036
-87.713	792.962	0.106	0.286
-86.699	-101.855	0.216	0.051
-85.684	800.000	0.045	0.181
-84.670	537.183	0.060	-0.140
-83.655	-39.798	-0.071	-0.036
-82.640	268.790	0.081	0.138
-81.626	337.980	0.053	0.102
-80.611	-200.000	0.069	-0.304
-79.597	-53.984	-0.355	0.159
-78.582	21.296	0.231	-0.184
-77.567	-97.774	0.308	0.078
-76.553	-41.196	0.356	0.180
-75.538	288.242	-0.059	0.105
-74.524	202.529	-0.043	0.065
-73.509	-200.000	0.055	-0.265
-72.494	-48.611	0.267	0.126
-71.480	14.316	0.099	-0.075
-70.465	-132.973	0.200	-0.025
-69.451	61.572	-0.115	-0.113
-68.436	-108.661	0.083	-0.017
-67.422	-200.000	0.000	0.041
-66.407	9.687	0.290	0.215
-65.392	-25.404	-0.238	-0.138
-64.378	-16.615	-0.095	-0.059
-63.363	36.017	0.116	-0.100
-62.349	-200.000	-0.020	-0.086
-61.334	50.470	-0.940	-0.870
-60.319	44.870	0.603	0.543
-59.305	499.720	-0.536	-1.209
-58.290	311.704	0.621	1.140
-57.276	800.000	0.387	1.472
-56.261	-200.000	110.605	600.464
-55.246	411.785	1537.587	3195.499
-54.232	139.550	2734.618	3523.955
-53.217	100.656	2221.681	2526.194
-52.203	38.228	1739.987	1516.098
-51.188	30.922	1554.314	1303.386
-50.173	28.627	1529.188	1266.455
-49.159	50.818	1587.159	1471.116
-48.144	50.443	1603.215	1483.302
-47.130	31.147	1558.479	1308.252
-46.115	28.064	1543.549	1274.220
-45.100	28.023	1540.095	1271.037
-44.086	27.815	1538.572	1268.280
-43.071	27.924	1535.687	1266.612
-42.057	27.809	1534.376	1264.684
-41.042	27.857	1532.951	1263.787
-40.027	27.779	1531.690	1262.162
-39.013	27.763	1530.042	1260.641
-37.998	27.714	1528.841	1259.265
-36.984	27.798	1527.499	1258.689
-35.969	27.737	1525.944	1256.933
-34.954	27.876	1524.081	1256.309
-33.940	27.783	1522.725	1254.500
-32.925	27.761	1521.975	1253.681
-31.911	27.850	1519.982	1252.602
-30.896	27.794	1518.874	1251.254
-29.881	27.814	1517.754	1250.417
-28.867	27.893	1516.186	1249.616
-27.852	27.834	1514.793	1248.018
-26.838	27.841	1513.888	1247.270
-25.823	27.783	1512.335	1245.543
-24.809	27.791	1510.452	1244.000
-23.794	27.824	1509.097	1243.056
-22.779	27.813	1507.874	1241.930
-21.765	27.764	1507.362	1241.125
-20.750	27.847	1505.760	1240.321
-19.736	27.776	1504.816	1239.007
-18.721	27.849	1503.481	1238.357
-17.706	27.773	1502.172	1236.717
-16.692	27.753	1501.330	1235.836
-15.677	27.746	1500.373	1234.951
-14.663	27.860	1498.802	1234.380
-13.648	27.746	1498.061	1232.950
-12.633	27.813	1497.548	1232.930
-11.619	27.715	1496.816	1231.622
-10.604	27.804	1495.377	1230.986
-9.590	27.692	1494.561	1229.509
-8.575	27.773	1493.902	1229.465
-7.560	27.764	1492.715	1228.378
-6.546	27.737	1492.334	1227.834
-5.531	27.711	1491.352	1226.807
-4.517	27.752	1490.315	1226.180
-3.502	27.729	1489.265	1225.109
-2.487	27.803	1487.746	1224.307
-1.473	27.832	1486.620	1223.531
-0.458	27.856	1485.606	1222.802
0.556	27.300	1476.397	1214.940
1.571	24.928	1452.532	1179.587
2.586	21.875	1389.453	1108.990
3.600	20.184	1301.976	1029.051
4.615	18.105	1255.166	980.061
5.629	15.116	1197.183	918.340
6.644	7.716	1111.455	814.698
7.659	1.802	1071.943	756.373
8.673	0.950	1066.547	748.288
9.688	0.956	1062.712	745.564
10.702	0.875	1061.589	744.312
11.717	0.789	1059.624	742.442
12.731	2.941	1061.449	754.233
13.746	9.797	1070.525	794.471
14.761	15.589	1077.447	828.162
15.775	17.288	1079.437	838.004
16.790	17.095	1077.752	835.670
17.804	15.972	1075.565	828.379
18.819	15.141	1074.264	823.221
19.834	14.653	1072.911	819.720
20.848	14.418	1071.662	817.537
21.863	14.252	1071.126	816.245
22.877	14.002	1070.105	814.169
23.892	13.696	1069.236	811.939
24.907	13.626	1068.398	810.884
25.921	13.606	1067.618	810.124
26.936	13.688	1067.161	810.107
27.950	13.627	1066.445	809.193
28.965	13.666	1065.786	808.811
29.980	13.783	1064.467	808.312
30.994	13.763	1063.560	807.452
32.009	13.870	1062.587	807.161
33.023	13.970	1062.191	807.278
34.038	13.929	1060.865	806.000
35.053	13.913	1060.511	805.580
36.067	13.799	1059.173	803.939
37.082	13.840	1058.344	803.436
38.096	13.801	1057.829	802.789
39.111	13.919	1056.807	802.510
40.126	13.800	1056.072	801.305
41.140	13.830	1055.228	800.740
42.155	13.701	1054.654	799.613
43.169	13.636	1053.880	798.643
44.184	13.643	1052.509	797.564
45.199	13.553	1051.053	795.959
46.213	13.623	1050.294	795.652
47.228	13.688	1049.248	795.101
48.242	13.728	1048.047	794.308
49.257	13.776	1046.736	793.477
50.271	13.660	1046.045	792.326
51.286	13.622	1045.270	791.488
52.301	13.671	1044.431	791.020
53.315	13.764	1043.599	790.761
54.330	13.721	1042.599	789.730
55.344	13.623	1041.709	788.518
56.359	13.768	1040.210	788.001
57.374	13.639	1039.895	787.082
58.388	13.809	1038.067	786.434
59.403	13.661	1037.911	785.543
60.417	13.688	1037.210	785.071
61.432	13.525	1036.747	783.883
62.447	13.561	1036.106	783.500
63.461	13.540	1034.800	782.342
64.476	13.612	1034.112	782.091
65.490	13.660	1033.014	781.419
66.505	13.606	1032.328	780.577
67.520	13.679	1031.843	780.482
68.534	13.584	1031.221	779.499
69.549	13.696	1030.300	779.261
70.563	13.590	1029.652	778.203
71.578	13.648	1028.705	777.688
72.593	13.773	1027.318	777.158
73.607	13.574	1026.983	775.905
74.622	13.538	1026.060	774.968
75.636	13.552	1024.942	774.120
76.651	13.668	1023.950	773.845
77.666	13.486	1023.549	772.626
78.680	13.425	1022.903	771.783
79.695	13.500	1022.596	771.834
80.709	13.538	1021.573	771.170
81.724	13.567	1020.700	770.580
82.739	13.640	1019.756	770.135
83.753	13.596	1019.419	769.610
84.768	13.575	1018.636	768.852
85.782	13.829	1017.462	769.077
86.797	13.787	1016.748	768.274
87.812	13.822	1016.127	767.896
88.826	13.767	1015.071	766.780
89.841	13.643	1014.415	765.643
90.855	13.622	1013.708	764.944
91.870	13.688	1012.830	764.519
92.884	13.750	1012.099	764.185
93.899	13.819	1011.295	763.826
94.914	13.899	1010.495	763.522
95.928	13.763	1010.195	762.604
96.943	13.925	1009.201	762.529
97.957	13.936	1008.379	761.891
98.972	13.754	1007.738	760.504
99.987	13.781	1006.931	759.952
101.001	13.804	1005.963	759.262
102.016	13.872	1005.235	758.954
103.030	13.799	1004.246	757.809
104.045	13.691	1003.085	756.372
105.060	14.042	1001.655	756.825
106.074	13.799	1001.141	755.264
107.089	13.756	1000.270	754.342
108.103	13.620	999.727	753.252
109.118	13.714	998.285	752.523
110.133	13.706	998.036	752.236
111.147	13.737	996.798	751.373
112.162	13.531	996.144	749.884
113.176	13.660	995.101	749.614
114.191	13.744	994.341	749.356
115.206	13.746	993.260	748.483
116.220	13.822	992.350	748.071
117.235	13.735	991.883	747.265
118.249	13.689	990.789	746.168
119.264	13.662	989.865	745.285
120.279	13.727	988.748	744.668
121.293	13.703	988.039	743.960
122.308	13.753	987.201	743.486
123.322	13.836	986.578	743.325
124.337	13.706	985.450	741.827
125.352	13.644	984.446	740.726
126.366	13.806	983.174	740.429
127.381	13.776	982.233	739.522
128.395	13.579	981.339	737.906
129.410	13.614	980.904	737.670
130.424	13.677	979.454	736.792
131.439	13.631	978.630	735.905
132.454	13.716	978.072	735.798
133.468	13.857	976.955	735.517
134.483	13.709	976.545	734.486
135.497	13.802	975.339	733.926
136.512	13.778	974.758	733.315
137.527	13.732	974.333	732.729
138.541	13.616	973.541	731.556
139.556	13.777	972.467	731.393
140.570	13.706	972.037	730.696
141.585	13.754	971.068	730.113
142.600	13.807	969.958	729.444
143.614	13.795	969.579	729.044
144.629	13.827	968.374	728.212
145.643	13.905	967.785	728.048
146.658	13.969	966.654	727.413
147.673	13.869	965.876	726.327
148.687	13.847	965.113	725.593
149.702	13.818	964.364	724.839
150.716	13.836	963.267	724.028
151.731	13.819	962.950	723.651
152.746	13.778	962.204	722.846
153.760	13.875	961.103	722.380
154.775	13.861	960.599	721.876
155.789	13.886	959.975	721.449
156.804	13.945	958.687	720.676
157.819	13.983	957.705	720.038
158.833	13.946	957.847	719.922
159.848	13.986	957.022	719.411
160.862	14.082	956.057	719.036
161.877	13.984	955.474	718.109
162.892	14.097	954.131	717.527
163.906	14.073	953.071	716.562
164.921	13.998	952.830	715.992
165.935	14.034	951.560	715.132
166.950	13.890	951.259	714.223
167.964	14.031	949.909	713.749
168.979	13.973	949.239	712.935
169.994	14.023	947.891	712.073
171.008	13.978	947.172	711.277
172.023	14.052	946.765	711.225
173.037	14.084	945.956	710.695
174.052	14.109	945.070	710.070
175.067	14.186	944.219	709.699
176.081	13.951	943.420	708.033
177.096	14.038	942.884	707.936
178.110	13.890	942.247	706.768
179.125	14.048	941.235	706.618
180.140	14.079	940.720	706.301
181.154	14.044	939.759	705.368
182.169	14.115	939.179	705.169
183.183	14.269	938.198	705.025
184.198	14.206	937.890	704.463
185.213	14.169	937.225	703.745
186.227	14.219	936.389	703.265
187.242	14.276	936.197	703.299
188.256	14.261	935.128	702.371
189.271	14.117	934.854	701.497
190.286	14.297	933.773	701.384
191.300	14.230	932.752	700.269
192.315	14.192	931.949	699.448
193.329	14.175	931.403	698.902
194.344	14.244	930.784	698.667
195.359	14.076	930.499	697.687
196.373	14.257	929.871	697.911
197.388	14.229	928.884	696.992
198.402	14.490	928.216	697.523
199.417	14.418	928.095	697.068
200.432	14.381	927.800	696.631
201.446	14.462	927.150	696.420
202.461	14.522	926.437	696.070
203.475	14.472	925.632	695.195
204.490	14.512	925.313	695.060
205.504	14.456	924.486	694.149
206.519	14.575	923.243	693.646
207.534	14.588	922.749	693.269
208.548	14.519	921.738	692.163
209.563	14.579	921.305	692.025
210.577	14.575	920.478	691.326
211.592	14.470	920.288	690.685
212.607	14.597	919.155	690.298
213.621	14.666	918.972	690.385
214.636	14.672	917.998	689.617
215.650	14.625	917.417	688.925
216.665	14.564	916.861	688.195
217.680	14.656	916.486	688.235
218.694	14.717	915.791	687.902
219.709	14.825	914.957	687.657
220.723	14.586	914.905	686.575
221.738	14.575	914.113	685.876
222.753	14.809	912.885	685.854
223.767	14.813	912.320	685.385
224.782	14.740	911.505	684.413
225.796	14.670	910.811	683.543
226.811	14.795	910.312	683.623
227.826	14.796	909.427	682.902
228.840	14.746	908.644	682.049
229.855	14.798	908.023	681.735
230.869	14.855	907.358	681.408
231.884	14.904	906.439	680.857
232.899	14.873	906.099	680.414
233.913	14.817	905.406	679.605
234.928	14.767	904.995	679.033
235.942	14.863	904.523	679.008
236.957	14.920	903.256	678.230
237.972	14.800	902.513	677.126
238.986	14.886	901.565	676.704
240.001	14.760	901.437	676.036
241.015	14.967	900.313	675.968
242.030	14.891	900.035	675.395
243.045	14.947	898.932	674.735
244.059	15.014	898.251	674.433
245.074	15.038	897.841	674.160
246.088	15.003	897.290	673.547
247.103	14.981	896.654	672.922
248.117	15.000	896.401	672.750
249.132	15.081	895.381	672.250
250.147	15.091	894.849	671.830
251.161	15.222	894.044	671.690
252.176	15.280	893.296	671.302
253.190	15.235	892.535	670.493
254.205	15.118	892.095	669.632
255.220	15.286	891.208	669.580
256.234	15.334	890.373	669.086
257.249	15.343	889.901	668.705
258.263	15.397	889.832	668.809
259.278	15.389	888.987	668.082
260.293	15.314	888.080	667.043
261.307	15.440	888.037	667.456
262.322	15.449	887.140	666.757
263.336	15.459	887.151	666.747
264.351	15.615	886.138	666.545
265.366	15.525	885.469	665.627
266.380	15.524	884.625	664.929
267.395	15.473	884.277	664.407
268.409	15.517	883.382	663.850
269.424	15.472	882.758	663.142
270.439	15.465	881.746	662.296
271.453	15.512	881.373	662.142
272.468	15.655	880.489	661.985
273.482	15.483	880.321	661.124
274.497	15.502	879.475	660.503
275.512	15.612	878.364	660.040
276.526	15.532	878.020	659.412
277.541	15.544	877.074	658.690
278.555	15.595	876.698	658.550
279.570	15.511	876.077	657.695
280.585	15.545	875.593	657.407
281.599	15.694	874.898	657.411
282.614	15.740	874.272	657.059
283.628	15.674	873.667	656.291
284.643	15.835	873.157	656.478
285.657	15.716	872.760	655.654
286.672	15.717	872.120	655.122
287.687	15.692	871.849	654.763
288.701	15.724	870.917	654.127
289.716	15.867	870.464	654.287
290.730	15.730	870.296	653.569
291.745	15.738	869.187	652.713
292.760	15.738	868.569	652.189
293.774	15.873	867.596	651.924
294.789	15.900	867.274	651.727
295.803	15.888	866.974	651.399
296.818	15.936	866.236	650.973
297.833	15.807	865.619	649.952
298.847	15.959	864.396	649.564
299.862	15.878	864.028	648.918
300.876	15.987	862.988	648.500
301.891	16.039	862.368	648.173
302.906	15.989	861.892	647.568
303.920	15.893	861.581	646.909
304.935	16.067	860.882	646.992
305.949	16.154	859.750	646.420
306.964	16.101	859.555	646.013
307.979	16.242	859.164	646.201
308.993	16.206	858.310	645.364
310.008	16.168	857.873	644.833
311.022	16.202	857.353	644.514
312.037	16.358	856.835	644.663
313.052	16.167	856.401	643.550
314.066	16.251	855.536	643.165
315.081	16.227	854.838	642.493
316.095	16.221	854.634	642.259
317.110	16.002	854.491	641.261
318.125	16.059	853.486	640.666
319.139	16.216	853.100	640.916
320.154	16.262	852.309	640.440
321.168	16.179	852.142	639.943
322.183	16.262	851.394	639.638
323.197	16.203	850.996	639.060
324.212	16.317	850.110	638.770
325.227	16.255	849.647	638.132
326.241	16.410	849.125	638.266
327.256	16.478	848.092	637.691
328.270	16.246	847.904	636.618
329.285	16.361	847.569	636.743
330.300	16.429	846.701	636.293
331.314	16.282	846.248	635.344
332.329	16.461	845.401	635.322
333.343	16.285	844.749	634.115
334.358	16.414	844.317	634.220
335.373	16.422	843.627	633.674
336.387	16.443	843.541	633.631
337.402	16.344	843.121	632.891
338.416	16.464	842.005	632.447
339.431	16.460	841.863	632.270
340.446	16.644	841.172	632.380
341.460	16.590	840.604	631.698
342.475	16.535	840.089	631.049
343.489	16.590	839.171	630.509
344.504	16.474	838.894	629.811
345.519	16.735	838.263	630.252
346.533	16.782	837.405	629.727
347.548	16.726	837.359	629.430
348.562	16.597	837.019	628.639
349.577	16.788	836.111	628.609
350.592	16.785	835.611	628.167
351.606	16.681	834.941	627.224
352.621	16.815	834.474	627.313
353.635	16.711	834.475	626.871
354.650	16.721	834.003	626.501
355.665	16.798	833.298	626.198
356.679	16.808	832.924	625.898
357.694	16.819	832.313	625.426
358.708	16.978	831.625	625.440
359.723	16.757	831.338	624.352
360.738	16.888	830.702	624.305
361.752	16.754	830.357	623.497
362.767	16.855	829.684	623.305
363.781	16.958	829.154	623.233
364.796	16.962	828.878	622.984
365.810	17.064	828.620	623.110
366.825	17.224	827.747	622.984
367.840	17.104	827.909	622.610
368.854	16.997	827.409	621.789
369.869	17.107	826.450	621.413
370.883	17.226	826.209	621.614
371.898	17.075	825.611	620.555
372.913	17.258	824.936	620.662
373.927	17.279	824.242	620.164
374.942	17.082	824.011	619.214
375.956	17.028	823.417	618.518
376.971	17.297	822.265	618.576
377.986	17.264	821.796	618.050
379.000	17.290	821.341	617.747
380.015	17.246	821.065	617.323
381.029	17.321	820.737	617.296
382.044	17.221	820.412	616.634
383.059	17.210	819.504	615.858
384.073	17.245	818.943	615.508
385.088	17.396	818.288	615.508
386.102	17.332	817.855	614.897
387.117	17.226	817.463	614.164
388.132	17.339	816.753	613.982
389.146	17.523	815.854	613.917
390.161	17.362	815.985	613.382
391.175	17.360	815.550	612.991
392.190	17.407	815.177	612.826
393.205	17.544	814.499	612.754
394.219	17.370	814.766	612.276
395.234	17.475	813.864	611.921
396.248	17.211	813.259	610.466
397.263	17.455	812.711	610.874
398.278	17.554	812.169	610.770
399.292	17.329	811.930	609.729
400.307	17.343	811.544	609.435
401.321	17.510	811.188	609.710
402.336	17.395	810.720	608.895
403.350	17.414	810.212	608.525
404.365	17.486	809.864	608.469
405.380	17.458	809.460	608.011
406.394	17.633	809.246	608.423
407.409	17.533	808.656	607.567
408.423	17.727	807.485	607.324
409.438	17.649	807.663	607.129
410.453	17.611	807.229	606.613
411.467	17.696	806.705	606.468
412.482	17.735	806.112	606.107
413.496	17.702	805.687	605.615
414.511	17.807	805.375	605.698
415.526	17.795	804.990	605.313
416.540	17.786	804.731	605.034
417.555	17.724	804.225	604.382
418.569	17.871	803.590	604.371
419.584	17.926	802.994	604.065
420.599	17.874	802.193	603.224
421.613	112.121	1293.725	1476.213
422.628	96.689	1365.342	1476.284
