DTS Sentinel unit serial number:	SN413079Multiplexer serial number:	ORYXHardware model number:	OX4-SRSoftware version number:	ORYX F/W v4.00 Oryx Data Collector v3.7.2.0data status	okinstallation	princeton_trtdifferential loss correction	single-endedforward channel	channel 3reverse channel	N/Adate	2019/09/15time	16:08:34forward acquisition time	60.00reverse acquisition time	0.00gamma	496.2192k internal	0.2288k external	0.2288temperature offset calibration	0.9932default loss term (dB/km)	0.3790temperature slope calibration	1.0000multiplexer offset coefficient	1.0000multiplexer slope coefficient	1.0000fibre end	0.00T internal ref (°C)	43.12T ext. ref 1 (°C)	5.37T ext. ref 2 (°C)	40.65length (m)	temperature (°C)	Stokes	anti-Stokes-747.200	-200.000	-0.025	-0.372
-746.185	48.227	-0.342	0.328
-745.171	800.000	0.028	0.094
-744.156	-200.000	-0.029	0.417
-743.142	-49.560	-0.085	0.042
-742.127	79.876	0.199	0.219
-741.112	-98.191	-0.243	0.064
-740.098	-200.000	-0.009	0.043
-739.083	535.849	0.098	-0.239
-738.069	800.000	0.062	-0.185
-737.054	800.000	-0.113	-0.345
-736.039	373.151	-0.158	0.329
-735.025	-113.030	0.538	0.109
-734.010	-124.547	-0.237	0.038
-732.996	60.133	-0.148	0.150
-731.981	16.636	-0.177	-0.144
-730.966	800.000	0.097	-0.381
-729.952	26.500	0.027	-0.023
-728.937	-123.638	-0.114	-0.018
-727.923	782.994	-0.041	-0.114
-726.908	-121.709	-0.094	-0.016
-725.894	-116.718	-0.039	-0.007
-724.879	-113.415	-0.378	0.076
-723.864	-167.656	-0.163	-0.007
-722.850	-107.702	-0.464	0.104
-721.835	-104.486	0.098	-0.023
-720.821	3.454	0.108	0.081
-719.806	5.092	-0.392	-0.296
-718.791	-116.505	-0.091	-0.017
-717.777	-112.207	0.168	0.035
-716.762	-7.479	-0.145	-0.100
-715.748	60.638	0.164	-0.167
-714.733	-31.975	0.342	-0.196
-713.718	-73.481	0.607	-0.227
-712.704	-1.328	-0.196	0.142
-711.689	-152.752	-0.093	-0.007
-710.675	-200.000	0.086	-0.424
-709.660	-97.746	0.421	-0.111
-708.645	288.278	-0.115	-0.214
-707.631	148.422	0.154	0.213
-706.616	240.812	-0.139	0.238
-705.602	-19.858	-0.023	0.015
-704.587	-200.000	0.021	-0.103
-703.572	-200.000	-0.081	-0.388
-702.558	-124.912	-0.114	-0.018
-701.543	100.797	-0.262	0.311
-700.529	589.426	-0.076	0.192
-699.514	79.892	0.173	-0.190
-698.499	-200.000	-0.021	0.123
-697.485	-151.368	0.203	-0.016
-696.470	-29.599	-0.117	0.068
-695.456	-22.530	0.240	-0.148
-694.441	-200.000	0.009	0.091
-693.426	-18.251	-0.046	0.030
-692.412	-57.892	0.076	0.034
-691.397	39.765	-0.080	-0.073
-690.383	800.000	-0.047	0.201
-689.368	800.000	0.045	-0.165
-688.354	306.054	-0.247	-0.470
-687.339	-200.000	-0.054	-0.395
-686.324	2.747	-0.158	0.117
-685.310	800.000	0.027	0.095
-684.295	-29.643	-0.336	-0.196
-683.281	112.986	0.141	-0.175
-682.266	-156.601	0.476	-0.030
-681.251	-145.920	-0.243	-0.022
-680.237	-152.158	0.099	-0.007
-679.222	6.698	-0.291	-0.222
-678.208	456.098	0.062	-0.141
-677.193	-38.893	-0.321	-0.173
-676.178	-81.591	0.081	0.027
-675.164	800.000	-0.052	0.201
-674.149	800.000	0.045	0.198
-673.135	337.228	0.128	0.254
-672.120	70.152	-0.137	-0.145
-671.105	471.799	-0.194	0.446
-670.091	-167.105	-0.024	-0.001
-669.076	377.678	-0.188	-0.393
-668.062	173.717	0.068	-0.101
-667.047	40.403	0.017	0.015
-666.032	-59.323	-0.462	-0.203
-665.018	53.706	-0.118	-0.116
-664.003	21.423	-0.198	0.164
-662.989	78.590	0.286	0.312
-661.974	80.002	0.050	-0.055
-660.959	51.542	0.113	0.110
-659.945	163.728	-0.072	-0.104
-658.930	152.973	-0.087	0.121
-657.916	101.864	0.157	-0.187
-656.901	85.052	-0.068	0.076
-655.886	-200.000	0.001	0.275
-654.872	-22.496	-0.148	-0.092
-653.857	170.470	-0.167	0.244
-652.843	-67.293	0.169	0.068
-651.828	-27.446	-0.200	-0.119
-650.814	-101.068	0.114	-0.029
-649.799	-62.381	-0.389	-0.165
-648.784	7.130	-0.151	0.115
-647.770	751.371	-0.105	0.290
-646.755	200.084	-0.094	-0.147
-645.741	28.257	0.128	-0.111
-644.726	-137.836	0.185	-0.021
-643.711	-200.000	0.009	-0.048
-642.697	2.478	0.325	0.240
-641.682	-35.149	-0.227	-0.126
-640.668	572.646	-0.095	0.237
-639.653	-113.401	0.210	0.042
-638.638	-65.913	0.243	0.099
-637.624	787.791	0.081	0.226
-636.609	209.683	0.051	0.081
-635.595	-200.000	-0.006	-0.078
-634.580	-96.127	-0.004	0.001
-633.565	221.162	0.062	0.101
-632.551	-125.073	-0.055	0.009
-631.536	-147.200	0.427	0.037
-630.522	-152.877	0.335	0.024
-629.507	-34.227	-0.308	-0.173
-628.492	-33.081	0.115	0.065
-627.478	-200.000	-0.007	0.242
-626.463	-114.252	0.193	-0.038
-625.449	307.048	0.106	0.202
-624.434	-119.979	0.120	-0.021
-623.419	213.410	0.137	0.221
-622.405	-61.412	-0.117	0.050
-621.390	-200.000	-0.008	0.238
-620.376	-200.000	-0.021	-0.186
-619.361	-73.326	-0.241	-0.090
-618.346	-180.106	-0.085	0.002
-617.332	338.200	-0.118	-0.235
-616.317	0.112	-0.253	0.184
-615.303	800.000	-0.089	0.346
-614.288	-16.511	-0.325	-0.210
-613.273	269.679	-0.105	-0.188
-612.259	458.575	-0.114	-0.259
-611.244	-200.000	-0.042	-0.231
-610.230	424.845	0.122	-0.269
-609.215	-136.600	0.199	0.023
-608.201	397.375	-0.159	-0.339
-607.186	120.084	0.030	-0.038
-606.171	-92.730	-0.107	-0.031
-605.157	302.103	-0.124	-0.234
-604.142	800.000	0.046	-0.136
-603.128	44.328	-0.034	-0.032
-602.113	154.223	-0.033	-0.046
-601.098	800.000	-0.093	0.412
-600.084	-200.000	-0.001	0.013
-599.069	49.678	0.166	0.159
-598.055	192.202	0.206	0.317
-597.040	-122.225	0.454	0.076
-596.025	800.000	-0.031	-0.121
-595.011	337.301	0.078	0.155
-593.996	-75.282	-0.211	0.077
-592.982	149.057	0.231	-0.318
-591.967	281.838	0.154	-0.281
-590.952	30.699	0.286	-0.250
-589.938	-87.573	-0.260	0.080
-588.923	-149.780	0.194	-0.016
-587.909	6.007	-0.059	-0.045
-586.894	42.105	-0.160	0.148
-585.879	-200.000	-0.028	0.139
-584.865	-200.000	-0.053	0.315
-583.850	-20.701	-0.321	0.201
-582.836	-200.000	-0.051	0.282
-581.821	0.311	-0.042	0.031
-580.806	-16.176	-0.215	-0.139
-579.792	157.901	-0.097	0.137
-578.777	6.339	-0.205	0.155
-577.763	53.546	-0.071	-0.070
-576.748	800.000	-0.041	-0.160
-575.733	-87.005	0.264	-0.082
-574.719	-103.431	-0.422	-0.101
-573.704	-111.920	-0.275	0.057
-572.690	-109.076	0.056	-0.012
-571.675	-200.000	0.010	0.108
-570.661	365.125	-0.076	0.155
-569.646	26.642	-0.176	0.150
-568.631	-55.758	0.074	0.034
-567.617	-200.000	-0.082	-0.509
-566.602	-28.696	-0.095	0.056
-565.588	-35.629	0.291	-0.161
-564.573	-84.484	-0.372	-0.119
-563.558	-15.266	-0.128	0.083
-562.544	-200.000	0.080	0.000
-561.529	234.400	0.108	0.182
-560.515	-200.000	-0.010	0.071
-559.500	-23.146	0.216	0.132
-558.485	-25.444	0.088	0.053
-557.471	603.636	-0.063	-0.159
-556.456	-0.512	0.198	-0.143
-555.442	-200.000	0.004	0.062
-554.427	-44.330	0.287	0.147
-553.412	800.000	0.020	0.059
-552.398	-100.081	-0.279	-0.071
-551.383	-113.429	-0.261	0.052
-550.369	-23.891	0.455	0.277
-549.354	141.562	0.147	0.198
-548.339	-200.000	-0.013	0.334
-547.325	800.000	-0.039	0.111
-546.310	800.000	0.055	-0.231
-545.296	149.142	0.096	0.132
-544.281	-148.688	0.250	-0.021
-543.266	-25.655	-0.210	-0.126
-542.252	-147.957	-0.383	-0.032
-541.237	224.198	0.262	0.430
-540.223	-148.660	0.124	0.010
-539.208	-200.000	0.014	0.290
-538.193	-132.642	0.075	-0.010
-537.179	800.000	-0.076	0.268
-536.164	-120.308	-0.258	-0.045
-535.150	-200.000	-0.005	-0.043
-534.135	217.347	-0.149	-0.241
-533.121	126.445	-0.159	-0.205
-532.106	-200.000	-0.005	-0.357
-531.091	276.147	0.110	-0.198
-530.077	-60.858	0.265	0.114
-529.062	-144.800	-0.103	-0.010
-528.048	-200.000	0.028	0.316
-527.033	-7.691	0.127	-0.087
-526.018	217.698	-0.026	0.043
-525.004	800.000	-0.083	-0.307
-523.989	-200.000	0.075	-0.400
-522.975	116.172	0.084	-0.104
-521.960	171.887	0.065	-0.095
-520.945	-1.743	0.174	0.124
-519.931	7.809	-0.086	0.066
-518.916	156.896	-0.012	0.016
-517.902	84.231	0.034	0.038
-516.887	-83.299	-0.175	0.057
-515.872	-200.000	0.059	0.272
-514.858	447.008	-0.142	-0.316
-513.843	184.724	-0.225	-0.338
-512.829	-84.875	0.132	0.042
-511.814	-113.434	0.175	0.035
-510.799	-40.140	-0.059	0.031
-509.785	-200.000	0.041	-0.285
-508.770	800.000	-0.059	-0.176
-507.756	-48.323	-0.262	0.128
-506.741	60.493	-0.124	0.125
-505.726	438.118	-0.120	-0.266
-504.712	66.951	0.133	0.138
-503.697	-184.381	0.247	-0.004
-502.683	-200.000	0.046	-0.414
-501.668	582.030	-0.128	-0.318
-500.653	101.896	-0.029	-0.034
-499.639	800.000	-0.099	0.360
-498.624	-95.625	-0.263	-0.071
-497.610	-114.848	-0.333	-0.064
-496.595	-200.000	-0.019	0.159
-495.581	85.404	-0.215	0.239
-494.566	-75.450	0.457	-0.165
-493.551	-77.384	-0.073	-0.026
-492.537	-200.000	0.033	-0.245
-491.522	-200.000	0.018	0.316
-490.508	-200.000	-0.022	-0.312
-489.493	-87.273	0.188	-0.058
-488.478	-3.324	-0.076	0.054
-487.464	9.168	-0.074	-0.057
-486.449	-35.526	0.120	0.066
-485.435	-200.000	-0.042	0.192
-484.420	-138.092	-0.223	0.025
-483.405	224.955	0.075	-0.123
-482.391	9.636	0.193	0.148
-481.376	-24.118	0.169	-0.103
-480.362	-200.000	-0.295	0.001
-479.347	800.000	-0.054	-0.169
-478.332	-200.000	-0.019	-0.093
-477.318	-121.795	0.271	0.045
-476.303	-71.877	-0.125	0.047
-475.289	173.561	-0.152	-0.222
-474.274	52.072	-0.235	-0.227
-473.259	-120.055	0.211	0.037
-472.245	470.895	0.184	-0.420
-471.230	25.645	-0.026	0.022
-470.216	-200.000	0.020	-0.174
-469.201	-200.000	0.036	-0.189
-468.186	103.035	0.261	0.310
-467.172	118.416	0.140	0.175
-466.157	-15.502	-0.133	-0.086
-465.143	-116.092	-0.314	0.059
-464.128	-162.033	-0.463	-0.024
-463.113	449.955	-0.017	-0.038
-462.099	-103.316	0.297	0.071
-461.084	-112.801	-0.206	0.041
-460.070	800.000	-0.081	-0.248
-459.055	2.613	0.098	-0.072
-458.040	-200.000	-0.004	-0.133
-457.026	-35.786	-0.202	-0.111
-456.011	18.349	-0.279	-0.226
-454.997	-103.918	0.192	-0.045
-453.982	800.000	0.015	-0.068
-452.968	-101.772	0.477	0.117
-451.953	800.000	-0.076	-0.291
-450.938	16.051	0.225	-0.180
-449.924	-200.000	0.009	0.179
-448.909	-200.000	0.025	0.151
-447.895	-41.824	0.249	0.130
-446.880	800.000	0.104	0.349
-445.865	-200.000	-0.034	0.452
-444.851	-34.701	0.326	0.181
-443.836	34.508	0.127	0.113
-442.822	-200.000	-0.029	-0.173
-441.807	165.707	0.200	-0.287
-440.792	-78.764	0.186	0.064
-439.778	173.781	0.131	0.191
-438.763	-90.574	-0.174	-0.051
-437.749	-50.546	-0.190	-0.091
-436.734	58.532	-0.220	-0.219
-435.719	-70.083	0.054	-0.021
-434.705	-197.632	0.135	-0.001
-433.690	800.000	-0.062	-0.235
-432.676	-129.655	0.163	-0.023
-431.661	-200.000	-0.028	0.257
-430.646	51.532	0.229	-0.220
-429.632	-81.329	-0.192	-0.064
-428.617	800.000	0.006	0.021
-427.603	-113.069	-0.189	0.038
-426.588	800.000	-0.057	-0.171
-425.573	-102.068	0.079	0.019
-424.559	-177.381	0.073	0.002
-423.544	-200.000	0.031	-0.193
-422.530	148.396	-0.098	-0.134
-421.515	-130.669	0.179	0.024
-420.500	166.101	-0.149	-0.214
-419.486	-200.000	-0.055	0.351
-418.471	-200.000	-0.008	0.113
-417.457	146.092	0.131	0.177
-416.442	-88.705	0.410	-0.123
-415.428	187.541	-0.151	0.229
-414.413	-140.148	0.204	0.022
-413.398	17.174	0.095	-0.076
-412.384	800.000	0.136	-0.554
-411.369	451.572	-0.124	0.277
-410.355	-50.330	0.214	0.102
-409.340	245.304	-0.071	0.120
-408.325	168.006	-0.107	0.154
-407.311	-140.124	0.193	-0.021
-406.296	-101.189	-0.014	0.003
-405.282	-200.000	0.050	-0.250
-404.267	-40.122	0.007	-0.004
-403.252	125.658	0.103	-0.131
-402.238	-40.177	0.124	-0.065
-401.223	26.900	-0.146	-0.124
-400.209	3.702	-0.060	-0.045
-399.194	-111.409	-0.171	-0.035
-398.179	-77.064	-0.373	-0.131
-397.165	44.816	-0.340	0.317
-396.150	-200.000	0.009	0.115
-395.136	-200.000	-0.005	0.038
-394.121	-28.969	-0.212	-0.123
-393.106	72.586	-0.232	0.245
-392.092	-200.000	0.002	-0.026
-391.077	-162.803	0.275	-0.014
-390.063	-200.000	-0.044	-0.230
-389.048	-74.046	0.077	-0.028
-388.033	-1.691	-0.077	0.055
-387.019	-100.731	-0.219	0.055
-386.004	8.946	-0.042	0.032
-384.990	-19.233	-0.173	0.108
-383.975	-124.140	-0.386	0.061
-382.960	23.791	0.161	0.134
-381.946	-200.000	-0.026	-0.131
-380.931	800.000	0.030	-0.100
-379.917	-2.999	-0.124	0.087
-378.902	80.425	0.222	0.241
-377.888	-59.578	0.255	0.111
-376.873	800.000	0.087	-0.301
-375.858	800.000	0.025	0.090
-374.844	433.471	0.048	-0.106
-373.829	51.784	0.135	-0.129
-372.815	67.364	0.043	0.045
-371.800	-125.313	0.247	0.038
-370.785	-98.239	-0.374	0.097
-369.771	-28.333	-0.008	-0.005
-368.756	75.281	-0.199	0.212
-367.742	137.637	0.082	0.108
-366.727	-111.317	-0.316	0.065
-365.712	-85.832	0.351	-0.110
-364.698	42.439	-0.113	-0.104
-363.683	671.538	-0.071	-0.187
-362.669	178.676	0.083	0.123
-361.654	-21.406	-0.263	0.162
-360.639	-117.492	0.030	0.005
-359.625	-130.724	-0.205	-0.028
-358.610	91.646	-0.192	0.217
-357.596	-200.000	0.091	0.406
-356.581	-53.495	-0.286	-0.132
-355.566	-1.613	0.039	0.028
-354.552	98.653	0.170	-0.198
-353.537	-76.387	-0.128	0.045
-352.523	-160.532	0.344	0.019
-351.508	-97.913	0.268	0.070
-350.493	800.000	-0.028	-0.099
-349.479	3.412	0.272	-0.200
-348.464	-20.815	0.335	-0.207
-347.450	209.775	-0.068	-0.107
-346.435	-200.000	0.016	0.266
-345.420	-200.000	-0.020	0.234
-344.406	41.199	0.204	0.186
-343.391	306.719	-0.191	0.358
-342.377	54.536	-0.135	-0.132
-341.362	176.663	-0.085	-0.124
-340.348	-200.000	-0.063	-0.403
-339.333	483.457	0.088	0.202
-338.318	-200.000	0.004	0.112
-337.304	0.686	-0.134	0.097
-336.289	-140.141	0.199	-0.021
-335.275	-136.288	0.380	0.045
-334.260	-200.000	0.017	-0.145
-333.245	-200.000	0.014	-0.089
-332.231	-44.848	-0.030	0.015
-331.216	390.011	-0.140	-0.292
-330.202	53.669	0.111	-0.108
-329.187	285.262	-0.132	-0.240
-328.172	-138.803	-0.245	0.027
-327.158	85.572	-0.017	0.018
-326.143	800.000	0.063	0.256
-325.129	-90.021	0.321	-0.094
-324.114	1.119	-0.069	0.050
-323.099	-51.250	-0.288	-0.136
-322.085	-200.000	-0.019	-0.244
-321.070	-200.000	-0.068	-0.342
-320.056	1.731	-0.008	0.006
-319.041	87.751	-0.122	-0.136
-318.026	800.000	-0.078	-0.284
-317.012	800.000	-0.073	0.290
-315.997	394.422	0.134	0.281
-314.983	95.543	0.214	-0.246
-313.968	-8.919	0.234	-0.158
-312.953	-14.577	0.169	-0.110
-311.939	48.237	-0.149	0.140
-310.924	337.152	0.065	0.127
-309.910	-85.076	0.140	0.044
-308.895	-66.246	-0.339	-0.136
-307.880	800.000	0.072	-0.236
-306.866	-31.530	-0.169	-0.096
-305.851	-200.000	-0.021	-0.192
-304.837	601.139	-0.117	-0.294
-303.822	54.843	-0.081	-0.079
-302.807	-200.000	0.030	0.156
-301.793	-26.528	-0.024	0.014
-300.778	-100.415	0.134	0.034
-299.764	-114.104	0.166	0.032
-298.749	85.814	0.108	0.120
-297.735	59.870	-0.091	0.090
-296.720	-157.693	-0.073	-0.004
-295.705	269.279	0.149	0.264
-294.691	240.862	-0.068	0.114
-293.676	-52.850	-0.065	-0.030
-292.662	301.474	0.103	0.192
-291.647	46.295	0.216	0.202
-290.632	636.117	0.161	0.410
-289.618	-10.293	-0.088	-0.059
-288.603	-114.265	0.252	0.049
-287.589	414.892	0.177	0.381
-286.574	-97.968	0.064	0.017
-285.559	-154.384	-0.242	0.016
-284.545	-28.789	-0.032	-0.018
-283.530	-149.875	-0.289	-0.023
-282.516	296.373	-0.150	-0.277
-281.501	107.033	0.105	0.126
-280.486	-105.702	-0.229	0.052
-279.472	800.000	-0.054	-0.239
-278.457	8.374	0.217	0.164
-277.443	-47.002	0.194	-0.096
-276.428	480.926	0.189	-0.432
-275.413	-81.403	-0.106	-0.035
-274.399	671.460	-0.092	0.240
-273.384	-28.597	0.342	-0.198
-272.370	82.060	-0.229	-0.250
-271.355	-200.000	0.007	0.108
-270.340	657.644	-0.099	0.255
-269.326	-200.000	0.023	-0.239
-268.311	-200.000	0.014	-0.274
-267.297	41.794	-0.015	-0.014
-266.282	49.442	0.335	-0.317
-265.267	-139.985	-0.143	0.015
-264.253	800.000	-0.070	0.278
-263.238	68.851	-0.053	0.055
-262.224	97.842	0.192	0.222
-261.209	-200.000	0.071	0.346
-260.195	-200.000	-0.022	-0.218
-259.180	800.000	-0.097	0.297
-258.165	800.000	-0.082	-0.245
-257.151	57.204	-0.168	0.165
-256.136	252.332	-0.086	-0.147
-255.122	-200.000	-0.017	0.195
-254.107	114.507	0.087	0.106
-253.092	800.000	0.104	0.368
-252.078	-59.155	-0.323	0.140
-251.063	304.006	0.139	0.259
-250.049	-125.494	-0.251	-0.038
-249.034	41.889	-0.135	0.123
-248.019	-200.000	-0.018	0.276
-247.005	39.868	0.065	-0.059
-245.990	-115.402	-0.154	-0.029
-244.976	331.915	-0.138	0.267
-243.961	780.672	-0.063	0.173
-242.946	248.523	0.207	0.352
-241.932	248.368	0.025	0.043
-240.917	-11.640	0.236	-0.156
-239.903	-80.174	-0.283	-0.095
-238.888	-27.950	-0.071	0.041
-237.873	8.143	0.083	0.063
-236.859	-21.719	-0.267	-0.163
-235.844	61.772	0.120	0.120
-234.830	-200.000	-0.014	0.113
-233.815	-82.790	-0.124	0.040
-232.800	-135.063	-0.340	-0.041
-231.786	-200.000	-0.041	-0.266
-230.771	-70.745	0.404	-0.153
-229.757	67.340	0.075	0.077
-228.742	-120.297	0.299	-0.051
-227.727	-200.000	0.012	0.258
-226.713	113.392	-0.091	0.111
-225.698	60.038	0.231	0.229
-224.684	-98.921	-0.086	-0.022
-223.669	-63.668	-0.129	0.053
-222.655	178.615	-0.208	-0.305
-221.640	58.742	-0.157	0.155
-220.625	377.454	-0.134	-0.274
-219.611	221.983	-0.201	-0.324
-218.596	-200.000	0.020	0.196
-217.582	194.936	-0.138	-0.211
-216.567	507.354	-0.125	-0.291
-215.552	-111.473	-0.231	0.047
-214.538	389.788	0.073	-0.151
-213.523	129.556	0.079	-0.101
-212.509	75.090	0.421	0.445
-211.494	75.175	0.179	0.190
-210.479	324.086	-0.205	-0.394
-209.465	-200.000	-0.028	0.130
-208.450	-6.751	-0.172	-0.118
-207.436	535.062	0.086	0.205
-206.421	298.179	0.136	0.250
-205.406	-12.664	-0.248	-0.162
-204.392	800.000	-0.078	-0.276
-203.377	148.275	-0.064	-0.087
-202.363	-176.370	-0.230	0.006
-201.348	728.401	-0.162	-0.434
-200.333	-200.000	-0.052	0.312
-199.319	800.000	0.069	0.274
-198.304	-146.968	-0.108	-0.009
-197.290	-200.000	-0.033	-0.370
-196.275	800.000	-0.057	-0.224
-195.260	-35.273	0.114	-0.062
-194.246	-200.000	0.013	-0.074
-193.231	39.261	-0.227	0.203
-192.217	-137.934	-0.124	-0.014
-191.202	123.790	-0.216	0.272
-190.187	109.918	0.057	-0.069
-189.173	-106.122	0.239	-0.054
-188.158	-78.568	0.297	0.102
-187.144	-23.684	0.164	-0.099
-186.129	-200.000	-0.028	-0.134
-185.114	557.246	0.091	0.220
-184.100	-200.000	0.020	0.185
-183.085	18.164	-0.233	0.186
-182.071	142.387	0.150	0.199
-181.056	-161.513	0.150	0.008
-180.042	92.675	0.239	0.270
-179.027	722.587	-0.068	-0.181
-178.012	-33.410	0.117	-0.065
-176.998	-27.953	-0.136	0.079
-175.983	577.351	0.150	-0.368
-174.969	-153.561	0.185	-0.013
-173.954	-48.111	0.111	0.054
-172.939	112.883	0.047	0.058
-171.925	800.000	-0.030	0.085
-170.910	-141.187	-0.166	0.017
-169.896	-200.000	-0.018	0.162
-168.881	-68.444	0.394	0.153
-167.866	-70.462	0.195	0.074
-166.852	800.000	0.057	-0.206
-165.837	-46.170	0.203	-0.100
-164.823	800.000	-0.087	0.253
-163.808	-200.000	-0.020	0.090
-162.793	155.670	-0.152	-0.210
-161.779	-200.000	-0.001	-0.392
-160.764	-28.705	-0.375	0.216
-159.750	-137.292	0.218	-0.025
-158.735	93.182	-0.098	0.111
-157.720	800.000	0.042	0.169
-156.706	4.126	0.049	-0.036
-155.691	-200.000	0.024	-0.181
-154.677	-165.737	0.540	-0.023
-153.662	90.093	0.403	-0.451
-152.647	106.025	-0.063	0.075
-151.633	-175.230	-0.152	0.004
-150.618	33.404	-0.400	0.348
-149.604	17.707	-0.175	-0.140
-148.589	-29.763	-0.406	-0.232
-147.574	-149.939	0.266	0.021
-146.560	512.795	-0.086	-0.201
-145.545	-200.000	0.029	-0.263
-144.531	-136.794	-0.247	0.029
-143.516	800.000	-0.097	-0.292
-142.502	318.249	0.095	-0.180
-141.487	163.428	-0.210	0.296
-140.472	800.000	-0.132	0.365
-139.458	-23.080	-0.108	-0.065
-138.443	23.597	-0.070	0.058
-137.429	800.000	0.041	0.150
-136.414	-151.513	0.248	0.018
-135.399	-110.533	0.078	-0.016
-134.385	41.504	0.164	-0.149
-133.370	43.649	0.292	-0.267
-132.356	-43.830	0.381	-0.192
-131.341	-145.444	0.078	0.007
-130.326	80.155	0.100	0.108
-129.312	100.779	0.173	0.201
-128.297	-200.000	-0.038	0.272
-127.283	-61.696	0.060	0.025
-126.268	218.188	0.063	-0.100
-125.253	127.976	0.169	-0.215
-124.239	-200.000	-0.037	0.229
-123.224	-200.000	0.005	0.314
-122.210	34.675	-0.258	-0.226
-121.195	176.701	-0.046	0.067
-120.180	-200.000	-0.003	0.074
-119.166	-78.405	0.210	0.072
-118.151	800.000	0.035	0.125
-117.137	-200.000	0.009	-0.058
-116.122	-22.993	0.127	0.076
-115.107	-174.133	0.134	0.004
-114.093	800.000	-0.053	0.195
-113.078	131.188	-0.140	-0.180
-112.064	-200.000	0.015	0.065
-111.049	145.828	0.072	0.097
-110.034	353.791	0.239	0.474
-109.020	-200.000	0.057	0.333
-108.005	-200.000	0.014	-0.154
-106.991	-97.368	0.147	0.038
-105.976	111.768	0.140	-0.169
-104.962	-65.646	0.212	0.085
-103.947	205.358	0.161	-0.250
-102.932	-85.802	-0.120	-0.037
-101.918	118.288	-0.106	-0.131
-100.903	456.118	0.093	0.206
-99.889	-92.374	-0.184	0.052
-98.874	-74.265	0.029	-0.010
-97.859	800.000	-0.147	0.408
-96.845	800.000	0.033	0.108
-95.830	13.280	0.226	-0.175
-94.816	12.583	0.380	-0.293
-93.801	-48.912	-0.066	0.031
-92.786	-140.161	-0.338	0.035
-91.772	-60.706	0.046	0.019
-90.757	496.120	-0.026	0.060
-89.743	-6.138	-0.462	0.315
-88.728	-200.000	0.002	-0.123
-87.713	176.691	0.205	-0.298
-86.699	-200.000	-0.039	-0.185
-85.684	-73.683	-0.246	0.090
-84.670	567.082	0.039	-0.095
-83.655	-78.534	-0.496	0.170
-82.640	-200.000	0.032	0.300
-81.626	-16.809	0.243	0.154
-80.611	-200.000	-0.040	0.181
-79.597	800.000	-0.042	0.151
-78.582	-103.144	0.160	-0.038
-77.567	-33.716	-0.124	0.069
-76.553	-141.641	-0.065	0.007
-75.538	-200.000	-0.024	0.106
-74.524	-4.829	0.117	0.080
-73.509	40.076	0.355	0.318
-72.494	129.835	0.073	0.094
-71.480	68.646	0.145	-0.149
-70.465	-102.455	0.500	-0.120
-69.451	-200.000	0.011	0.102
-68.436	161.431	0.220	-0.307
-67.422	72.262	0.140	0.145
-66.407	-119.733	0.185	0.032
-65.392	208.788	-0.171	0.268
-64.378	-123.121	0.174	0.028
-63.363	435.923	0.160	-0.348
-62.349	-35.836	0.163	-0.088
-61.334	12.803	-1.009	-0.778
-60.319	-34.803	0.168	0.091
-59.305	-200.000	0.066	-0.449
-58.290	80.243	0.528	0.567
-57.276	800.000	0.597	1.760
-56.261	-200.000	71.998	539.667
-55.246	575.433	1295.837	3157.257
-54.232	141.689	2539.352	3356.856
-53.217	120.772	2261.472	2805.428
-52.203	54.822	1777.139	1711.216
-51.188	46.845	1569.004	1454.818
-50.173	43.834	1538.586	1405.700
-49.159	59.730	1572.141	1547.783
-48.144	66.997	1592.847	1618.854
-47.130	47.362	1556.669	1446.769
-46.115	43.396	1542.805	1406.278
-45.100	43.127	1539.246	1401.112
-44.086	43.116	1537.128	1399.053
-43.071	43.091	1535.084	1396.965
-42.057	43.004	1533.393	1394.768
-41.042	43.094	1531.378	1393.498
-40.027	43.079	1530.698	1392.721
-39.013	43.095	1528.660	1390.923
-37.998	43.018	1527.898	1389.641
-36.984	43.022	1526.795	1388.613
-35.969	43.211	1524.804	1388.046
-34.954	43.250	1523.396	1386.983
-33.940	43.180	1522.237	1385.389
-32.925	43.196	1520.311	1383.690
-31.911	43.287	1519.056	1383.120
-30.896	43.214	1517.847	1381.459
-29.881	43.220	1516.575	1380.287
-28.867	43.153	1515.240	1378.565
-27.852	43.168	1514.148	1377.614
-26.838	43.208	1512.270	1376.126
-25.823	43.048	1511.075	1373.892
-24.809	43.174	1508.728	1372.560
-23.794	43.134	1507.463	1371.084
-22.779	43.108	1506.550	1370.022
-21.765	43.141	1505.051	1368.827
-20.750	43.280	1503.482	1368.292
-19.736	43.236	1502.587	1367.128
-18.721	43.094	1501.795	1365.389
-17.706	43.152	1500.082	1364.171
-16.692	43.074	1499.199	1362.787
-15.677	43.092	1498.208	1361.952
-14.663	42.991	1497.660	1360.715
-13.648	43.139	1495.886	1360.050
-12.633	43.162	1495.032	1359.376
-11.619	42.963	1494.736	1357.707
-10.604	43.045	1493.848	1357.399
-9.590	43.065	1492.921	1356.641
-8.575	43.118	1491.606	1355.747
-7.560	43.180	1490.645	1355.236
-6.546	43.026	1490.222	1353.765
-5.531	43.067	1489.052	1352.919
-4.517	43.065	1488.051	1351.948
-3.502	43.071	1487.157	1351.122
-2.487	43.007	1486.268	1349.826
-1.473	43.119	1484.956	1349.331
-0.458	43.036	1483.217	1347.145
0.556	41.401	1475.370	1340.242
1.571	39.322	1448.490	1301.970
2.586	35.603	1384.887	1221.105
3.600	32.867	1300.000	1129.808
4.615	30.252	1250.758	1071.827
5.629	25.655	1192.799	996.676
6.644	15.399	1101.824	867.813
7.659	7.168	1054.662	789.694
8.673	5.664	1048.475	777.527
9.688	5.400	1045.806	774.175
10.702	5.215	1044.253	772.041
11.717	5.222	1042.690	770.854
12.731	8.491	1046.745	789.957
13.746	16.731	1058.461	839.752
14.761	20.552	1061.826	861.317
15.775	18.391	1058.022	847.475
16.790	16.882	1055.261	837.734
17.804	15.721	1052.833	830.005
18.819	14.811	1050.553	823.654
19.834	14.256	1049.473	820.001
20.848	13.999	1048.549	817.943
21.863	13.724	1047.433	815.644
22.877	13.534	1046.751	814.109
23.892	13.392	1045.619	812.457
24.907	13.252	1045.510	811.614
25.921	13.189	1044.775	810.661
26.936	13.167	1043.925	809.824
27.950	13.288	1042.872	809.527
28.965	13.277	1041.560	808.384
29.980	13.399	1040.372	807.988
30.994	13.472	1038.940	807.157
32.009	13.495	1038.261	806.672
33.023	13.485	1037.278	805.789
34.038	13.536	1036.448	805.319
35.053	13.480	1035.591	804.310
36.067	13.413	1034.824	803.321
37.082	13.455	1033.739	802.607
38.096	13.439	1033.048	801.926
39.111	13.540	1032.104	801.609
40.126	13.507	1031.388	800.821
41.140	13.454	1030.201	799.573
42.155	13.304	1028.851	797.734
43.169	13.181	1028.148	796.524
44.184	13.175	1027.134	795.640
45.199	13.108	1026.336	794.629
46.213	13.175	1025.519	794.248
47.228	13.230	1024.250	793.459
48.242	13.221	1023.660	792.888
49.257	13.354	1022.423	792.496
50.271	13.415	1021.405	791.931
51.286	13.303	1020.983	790.996
52.301	13.380	1020.077	790.593
53.315	13.409	1019.177	789.965
54.330	13.296	1018.671	788.963
55.344	13.174	1017.838	787.667
56.359	13.198	1016.356	786.563
57.374	13.234	1015.467	785.978
58.388	13.373	1014.602	785.898
59.403	13.087	1014.431	784.338
60.417	13.121	1013.497	783.709
61.432	13.010	1012.631	782.441
62.447	13.123	1012.095	782.496
63.461	13.050	1010.872	781.133
64.476	12.992	1010.233	780.295
65.490	13.116	1009.074	779.918
66.505	13.060	1008.276	778.970
67.520	13.002	1007.718	778.194
68.534	13.124	1006.387	777.675
69.549	13.268	1005.755	777.792
70.563	13.160	1005.581	777.084
71.578	13.023	1004.817	775.779
72.593	13.182	1003.467	775.413
73.607	12.941	1003.049	773.893
74.622	12.969	1001.591	772.831
75.636	13.024	1000.895	772.480
76.651	12.984	1000.045	771.568
77.666	13.024	999.302	771.118
78.680	13.063	998.345	770.489
79.695	12.902	998.573	769.848
80.709	13.027	997.848	769.803
81.724	13.159	996.732	769.487
82.739	13.211	995.625	768.808
83.753	13.062	995.119	767.659
84.768	13.270	994.549	768.113
85.782	13.240	994.142	767.596
86.797	13.392	992.943	767.303
87.812	13.502	992.121	767.111
88.826	13.472	990.946	765.998
89.841	13.345	990.105	764.693
90.855	13.330	989.645	764.200
91.870	13.362	988.979	763.765
92.884	13.349	988.511	763.276
93.899	13.461	987.297	762.785
94.914	13.412	986.778	762.093
95.928	13.445	986.063	761.627
96.943	13.447	985.685	761.278
97.957	13.406	984.702	760.262
98.972	13.452	983.603	759.556
99.987	13.467	982.559	758.752
101.001	13.532	982.326	758.802
102.016	13.464	981.604	757.865
103.030	13.346	980.507	756.413
104.045	13.347	979.465	755.547
105.060	13.523	978.582	755.603
106.074	13.387	977.880	754.371
107.089	13.408	976.690	753.483
108.103	13.300	975.985	752.381
109.118	13.188	974.759	750.859
110.133	13.155	974.180	750.197
111.147	13.225	973.283	749.756
112.162	13.100	972.768	748.729
113.176	13.318	971.778	748.889
114.191	13.309	970.593	747.868
115.206	13.308	969.757	747.152
116.220	13.336	968.918	746.566
117.235	13.262	968.362	745.738
118.249	13.305	967.410	745.135
119.264	13.282	966.404	744.188
120.279	13.200	965.850	743.329
121.293	13.267	965.071	742.963
122.308	13.216	964.153	741.964
123.322	13.223	963.068	741.092
124.337	13.196	961.994	740.079
125.352	13.116	961.104	738.970
126.366	13.188	960.088	738.449
127.381	13.242	959.141	737.894
128.395	13.153	958.050	736.595
129.410	13.194	957.340	736.165
130.424	13.194	956.607	735.534
131.439	13.325	955.540	735.231
132.454	13.247	955.053	734.445
133.468	13.285	954.128	733.840
134.483	13.395	953.262	733.594
135.497	13.266	953.047	732.792
136.512	13.357	952.195	732.476
137.527	13.328	951.641	731.855
138.541	13.281	950.849	730.974
139.556	13.294	950.288	730.538
140.570	13.325	949.439	729.958
141.585	13.498	948.588	730.002
142.600	13.485	948.115	729.517
143.614	13.600	946.617	728.802
144.629	13.591	946.376	728.514
145.643	13.622	945.292	727.753
146.658	13.661	944.708	727.408
147.673	13.580	943.958	726.409
148.687	13.360	943.321	724.895
149.702	13.417	942.095	724.136
150.716	13.368	941.222	723.185
151.731	13.364	940.351	722.435
152.746	13.462	939.415	722.080
153.760	13.374	938.936	721.265
154.775	13.460	938.298	721.087
155.789	13.521	937.444	720.632
156.804	13.557	936.636	720.103
157.819	13.579	935.714	719.425
158.833	13.627	935.240	719.206
159.848	13.590	934.875	718.701
160.862	13.627	934.452	718.474
161.877	13.598	933.574	717.607
162.892	13.487	932.746	716.428
163.906	13.458	931.402	715.206
164.921	13.352	930.641	714.101
165.935	13.406	929.898	713.700
166.950	13.490	928.809	713.163
167.964	13.585	927.859	712.781
168.979	13.569	926.729	711.779
169.994	13.454	926.009	710.671
171.008	13.450	925.355	710.089
172.023	13.477	924.393	709.405
173.037	13.652	923.481	709.391
174.052	13.737	922.985	709.308
175.067	13.700	922.512	708.723
176.081	13.591	921.674	707.553
177.096	13.504	920.615	706.305
178.110	13.386	919.989	705.259
179.125	13.488	919.153	704.993
180.140	13.628	918.437	704.977
181.154	13.408	918.039	703.672
182.169	13.664	917.056	703.945
183.183	13.642	917.164	703.870
184.198	13.669	916.187	703.174
185.213	13.740	915.219	702.670
186.227	13.887	914.219	702.461
187.242	13.850	914.128	702.173
188.256	13.819	913.499	701.499
189.271	13.924	912.862	701.390
190.286	13.913	911.929	700.565
191.300	13.656	911.221	698.876
192.315	13.655	910.288	698.093
193.329	13.522	909.407	696.796
194.344	13.482	909.178	696.392
195.359	13.697	908.338	696.588
196.373	13.698	908.055	696.315
197.388	13.652	907.777	695.848
198.402	13.877	907.105	696.215
199.417	13.844	907.071	695.987
200.432	14.103	906.180	696.326
201.446	14.141	905.505	695.907
202.461	14.116	905.165	695.478
203.475	14.107	905.126	695.349
204.490	14.133	904.304	694.763
205.504	13.998	903.477	693.506
206.519	14.088	902.515	693.081
207.534	13.906	901.942	691.819
208.548	13.872	901.223	691.067
209.563	13.943	900.410	690.675
210.577	14.039	899.681	690.456
211.592	13.996	898.861	689.585
212.607	14.041	899.112	689.906
213.621	14.245	897.997	689.835
214.636	14.226	897.278	689.142
215.650	14.151	896.729	688.346
216.665	14.076	896.264	687.619
217.680	14.118	895.752	687.340
218.694	14.434	895.132	688.108
219.709	14.352	894.453	687.186
220.723	14.381	893.972	686.875
221.738	14.426	892.919	686.191
222.753	14.305	892.303	685.161
223.767	14.332	891.817	684.836
224.782	14.248	891.212	683.969
225.796	14.364	890.360	683.730
226.811	14.440	889.624	683.413
227.826	14.389	888.661	682.405
228.840	14.273	888.579	681.807
229.855	14.309	887.808	681.303
230.869	14.414	886.830	680.920
231.884	14.341	886.381	680.217
232.899	14.305	885.999	679.716
233.913	14.305	884.787	678.726
234.928	14.284	884.228	678.154
235.942	14.212	883.776	677.452
236.957	14.267	883.131	677.121
237.972	14.201	882.577	676.369
238.986	14.256	881.699	675.861
240.001	14.210	881.491	675.456
241.015	14.351	880.218	674.992
242.030	14.270	879.908	674.366
243.045	14.409	879.091	674.241
244.059	14.396	878.586	673.741
245.074	14.358	877.757	672.893
246.088	14.332	877.310	672.385
247.103	14.584	876.640	672.829
248.117	14.575	876.071	672.298
249.132	14.580	875.352	671.707
250.147	14.771	875.313	672.384
251.161	14.654	874.657	671.353
252.176	14.717	874.236	671.220
253.190	14.896	872.908	670.860
254.205	14.818	872.509	670.184
255.220	14.881	871.878	669.893
256.234	14.965	871.373	669.780
257.249	15.003	870.534	669.227
258.263	15.012	870.167	668.923
259.278	14.910	869.675	668.079
260.293	14.849	869.289	667.480
261.307	14.966	868.327	667.148
262.322	15.133	867.612	667.204
263.336	14.983	867.472	666.441
264.351	15.091	866.726	666.237
265.366	15.095	865.982	665.622
266.380	15.069	865.647	665.204
267.395	15.121	864.658	664.589
268.409	15.028	863.913	663.593
269.424	15.094	862.858	662.981
270.439	15.124	862.559	662.812
271.453	15.239	861.152	662.129
272.468	15.003	860.961	660.989
273.482	14.906	860.708	660.354
274.497	15.108	859.897	660.469
275.512	15.199	858.839	659.957
276.526	15.150	858.436	659.396
277.541	15.248	857.445	658.962
278.555	15.164	857.339	658.495
279.570	15.106	856.933	657.897
280.585	15.222	856.579	658.020
281.599	15.306	855.798	657.692
282.614	15.187	855.157	656.675
283.628	15.264	854.462	656.383
284.643	15.089	854.164	655.414
285.657	15.187	853.453	655.192
286.672	15.226	852.951	654.902
287.687	15.294	852.335	654.636
288.701	15.259	852.327	654.433
289.716	15.336	851.553	654.084
290.730	15.226	850.977	653.156
291.745	15.334	850.172	652.898
292.760	15.351	849.510	652.399
293.774	15.235	849.208	651.659
294.789	15.427	848.456	651.768
295.803	15.545	847.752	651.629
296.818	15.429	846.857	650.432
297.833	15.380	846.439	649.865
298.847	15.506	845.794	649.798
299.862	15.471	845.139	649.105
300.876	15.476	844.531	648.599
301.891	15.409	843.847	647.759
302.906	15.616	843.248	648.039
303.920	15.602	842.719	647.522
304.935	15.739	842.123	647.532
305.949	15.783	841.314	647.021
306.964	15.727	840.728	646.298
307.979	15.708	840.137	645.715
308.993	15.702	839.908	645.459
310.008	15.672	839.475	644.955
311.022	15.703	838.981	644.639
312.037	15.802	837.938	644.156
313.052	15.742	837.584	643.598
314.066	15.641	837.074	642.764
315.081	15.681	836.049	642.073
316.095	15.574	835.740	641.368
317.110	15.629	835.456	641.304
318.125	15.581	834.861	640.608
319.139	15.808	834.113	640.843
320.154	15.734	833.603	640.114
321.168	15.599	833.229	639.253
322.183	15.661	832.622	638.967
323.197	15.682	832.174	638.648
324.212	15.505	832.294	638.010
325.227	15.683	831.422	637.962
326.241	15.838	830.596	637.860
327.256	15.778	829.776	636.947
328.270	15.760	829.063	636.274
329.285	15.799	828.771	636.141
330.300	15.823	828.043	635.616
331.314	15.732	827.499	634.800
332.329	15.899	826.800	634.837
333.343	15.849	826.355	634.248
334.358	15.907	825.855	634.028
335.373	15.869	825.376	633.462
336.387	15.960	824.745	633.264
337.402	16.011	824.590	633.281
338.416	15.950	824.039	632.572
339.431	16.055	823.268	632.318
340.446	16.047	822.988	632.015
341.460	16.175	821.943	631.636
342.475	16.178	821.713	631.416
343.489	16.061	821.505	630.761
344.504	16.314	820.580	630.943
345.519	16.158	820.555	630.283
346.533	16.435	819.534	630.478
347.548	16.401	818.913	629.817
348.562	16.123	818.891	628.707
349.577	16.261	818.080	628.544
350.592	16.225	817.540	627.939
351.606	16.072	817.258	627.097
352.621	16.061	816.723	626.591
353.635	16.052	816.239	626.131
354.650	16.048	816.134	625.981
355.665	16.133	815.324	625.619
356.679	16.123	814.908	625.209
357.694	16.243	814.381	625.193
358.708	16.289	813.758	624.831
359.723	16.203	813.665	624.384
360.738	16.284	812.591	623.804
361.752	16.348	812.376	623.820
362.767	16.343	811.625	623.168
363.781	16.532	811.094	623.405
364.796	16.516	811.011	623.226
365.810	16.529	810.750	623.018
366.825	16.619	810.607	623.184
367.840	16.665	809.883	622.743
368.854	16.736	809.416	622.589
369.869	16.567	808.838	621.467
370.883	16.575	808.121	620.891
371.898	16.503	807.672	620.229
372.913	16.506	807.389	619.967
373.927	16.638	806.944	620.055
374.942	16.657	806.179	619.480
375.956	16.602	805.711	618.864
376.971	16.774	804.884	618.803
377.986	16.809	804.272	618.406
379.000	16.708	804.170	617.903
380.015	16.805	803.493	617.685
381.029	16.832	802.985	617.336
382.044	16.970	802.059	617.072
383.059	16.955	801.317	616.392
384.073	16.813	801.184	615.721
385.088	16.835	801.107	615.686
386.102	16.863	800.027	614.903
387.117	16.662	799.913	614.029
388.132	16.812	799.293	614.044
389.146	16.795	798.834	613.575
390.161	16.913	798.090	613.379
391.175	16.852	798.115	613.120
392.190	16.898	797.756	612.959
393.205	16.870	797.372	612.507
394.219	16.960	796.726	612.282
395.234	16.894	796.043	611.465
396.248	16.941	795.540	611.195
397.263	16.748	795.050	610.069
398.278	16.679	794.756	609.539
399.292	16.897	794.189	609.836
400.307	16.801	793.914	609.226
401.321	16.826	793.577	609.004
402.336	16.692	793.464	608.381
403.350	16.886	792.913	608.601
404.365	16.828	792.525	608.042
405.380	16.890	791.958	607.775
406.394	17.073	791.237	607.822
407.409	17.070	790.993	607.569
408.423	17.138	790.543	607.415
409.438	17.038	790.513	606.978
410.453	17.180	789.745	606.846
411.467	17.131	789.301	606.274
412.482	17.280	788.592	606.206
413.496	17.299	788.625	606.247
414.511	17.249	788.301	605.766
415.526	17.446	787.653	605.914
416.540	17.374	787.406	605.415
417.555	17.353	786.855	604.863
418.569	17.581	786.177	605.100
419.584	17.455	785.902	604.387
420.599	17.471	785.490	604.074
421.613	82.674	1244.679	1308.731
422.628	69.836	1311.626	1308.865
