DTS Sentinel unit serial number:	SN413079Multiplexer serial number:	ORYXHardware model number:	OX4-SRSoftware version number:	ORYX F/W v4.00 Oryx Data Collector v3.7.2.0data status	okinstallation	princeton_trtdifferential loss correction	single-endedforward channel	channel 3reverse channel	N/Adate	2019/09/15time	10:48:35forward acquisition time	60.00reverse acquisition time	0.00gamma	496.2192k internal	0.2308k external	0.2308temperature offset calibration	0.9974default loss term (dB/km)	0.3790temperature slope calibration	1.0000multiplexer offset coefficient	1.0000multiplexer slope coefficient	1.0000fibre end	0.00T internal ref (°C)	34.25T ext. ref 1 (°C)	5.03T ext. ref 2 (°C)	29.66length (m)	temperature (°C)	Stokes	anti-Stokes-747.200	800.000	0.084	0.294
-746.185	-200.000	0.032	0.424
-745.171	-200.000	0.021	-0.167
-744.156	-101.596	-0.193	-0.048
-743.142	-167.858	-0.270	0.011
-742.127	-15.369	-0.116	-0.076
-741.112	56.299	0.093	0.092
-740.098	800.000	0.043	0.151
-739.083	-115.562	0.355	0.068
-738.069	28.539	0.114	0.098
-737.054	-11.193	0.289	-0.194
-736.039	8.568	-0.211	-0.162
-735.025	297.146	0.051	0.095
-734.010	-146.788	-0.173	-0.015
-732.996	-179.733	-0.069	-0.002
-731.981	-8.396	-0.286	-0.195
-730.966	-125.042	0.262	-0.041
-729.952	-7.322	-0.216	0.149
-728.937	-71.345	-0.159	-0.060
-727.923	-51.022	-0.221	-0.106
-726.908	722.542	0.051	-0.137
-725.894	-200.000	0.042	-0.288
-724.879	-66.831	-0.323	-0.130
-723.864	28.457	0.133	0.114
-722.850	-44.228	-0.252	-0.128
-721.835	-61.305	0.151	-0.065
-720.821	125.069	-0.165	-0.211
-719.806	-200.000	-0.015	0.237
-718.791	-46.654	-0.568	-0.283
-717.777	284.474	-0.071	-0.131
-716.762	-200.000	-0.036	-0.161
-715.748	295.618	0.122	-0.227
-714.733	-58.682	0.190	-0.084
-713.718	27.474	-0.149	-0.127
-712.704	281.532	0.207	-0.377
-711.689	-10.599	0.214	-0.144
-710.675	438.193	0.193	-0.428
-709.660	163.642	-0.142	0.203
-708.645	-39.694	-0.165	-0.088
-707.631	-181.648	-0.361	0.007
-706.616	-49.243	0.251	-0.121
-705.602	800.000	0.062	-0.269
-704.587	-37.756	-0.145	-0.078
-703.572	31.826	0.119	-0.104
-702.558	-200.000	-0.006	-0.116
-701.543	-200.000	0.013	-0.424
-700.529	-149.906	0.442	-0.035
-699.514	-75.714	-0.186	0.067
-698.499	59.465	0.153	0.153
-697.485	56.911	-0.076	0.075
-696.470	-96.679	-0.131	-0.035
-695.456	56.609	0.296	-0.292
-694.441	-116.949	-0.237	0.044
-693.426	70.527	0.338	0.355
-692.412	-139.917	-0.381	-0.041
-691.397	-43.015	-0.399	-0.205
-690.383	-93.137	-0.095	0.027
-689.368	174.213	-0.151	0.222
-688.354	-42.600	-0.273	-0.141
-687.339	-141.273	0.309	0.032
-686.324	-33.196	-0.095	0.054
-685.310	-146.702	0.215	-0.019
-684.295	-93.220	-0.101	0.029
-683.281	-102.242	0.289	0.070
-682.266	468.717	-0.065	0.147
-681.251	-7.366	-0.071	0.049
-680.237	-100.582	-0.080	0.020
-679.222	-200.000	-0.041	0.334
-678.208	131.093	-0.258	-0.335
-677.193	248.171	0.248	-0.426
-676.178	114.061	-0.116	-0.143
-675.164	-200.000	-0.013	0.088
-674.149	-151.619	-0.176	0.013
-673.135	588.056	-0.121	0.302
-672.120	-148.636	-0.196	-0.016
-671.105	48.717	-0.236	-0.224
-670.091	-157.434	0.342	0.021
-669.076	337.659	-0.010	-0.020
-668.062	23.774	-0.220	-0.183
-667.047	-102.640	-0.160	-0.039
-666.032	-200.000	-0.072	-0.400
-665.018	-127.327	-0.218	-0.032
-664.003	-125.707	-0.105	0.016
-662.989	-103.815	0.350	-0.083
-661.974	-86.842	-0.234	0.072
-660.959	30.438	0.150	0.130
-659.945	56.763	0.097	0.095
-658.930	-200.000	0.007	-0.200
-657.916	-82.235	0.094	0.031
-656.901	281.728	0.026	0.047
-655.886	791.021	0.067	-0.186
-654.872	-200.000	0.002	0.034
-653.857	-200.000	0.056	-0.339
-652.843	331.706	0.117	0.228
-651.828	91.569	-0.070	0.079
-650.814	-200.000	0.323	0.001
-649.799	189.542	0.089	-0.135
-648.784	-36.418	0.143	0.078
-647.770	42.433	0.137	-0.127
-646.755	-200.000	-0.102	0.478
-645.741	30.567	-0.083	0.072
-644.726	-70.494	0.174	0.067
-643.711	337.921	0.071	-0.141
-642.697	50.135	0.244	-0.233
-641.682	-200.000	-0.030	0.184
-640.668	-164.443	-0.439	0.020
-639.653	12.695	0.206	-0.161
-638.638	800.000	0.156	0.492
-637.624	73.304	0.293	-0.310
-636.609	-74.812	-0.095	-0.035
-635.595	-200.000	0.008	-0.054
-634.580	154.814	0.139	-0.193
-633.565	-200.000	-0.036	-0.352
-632.551	259.743	-0.291	-0.508
-631.536	-200.000	0.017	-0.334
-630.522	-200.000	-0.004	0.049
-629.507	-146.496	-0.280	0.025
-628.492	-130.128	0.087	0.012
-627.478	541.023	-0.119	0.288
-626.463	-126.016	-0.345	-0.053
-625.449	-134.073	0.049	0.006
-624.434	-82.635	-0.055	0.018
-623.419	-105.356	-0.116	-0.027
-622.405	-146.943	-0.087	0.008
-621.390	-103.764	-0.329	0.078
-620.376	49.937	0.187	0.179
-619.361	-28.256	-0.107	-0.063
-618.346	-200.000	0.008	0.168
-617.332	-170.286	-0.022	-0.001
-616.317	-162.226	0.263	0.013
-615.303	-65.645	0.275	-0.111
-614.288	54.353	0.106	0.104
-613.273	-108.624	-0.138	-0.030
-612.259	-186.037	0.131	-0.002
-611.244	287.632	-0.130	0.238
-610.230	-96.393	-0.366	0.098
-609.215	214.402	-0.113	-0.181
-608.201	-85.164	0.279	-0.088
-607.186	800.000	0.075	0.263
-606.171	31.282	0.163	-0.142
-605.157	-86.345	-0.394	0.122
-604.142	-154.429	-0.444	0.030
-603.128	174.775	-0.123	-0.181
-602.113	-200.000	-0.042	0.189
-601.098	-45.904	-0.085	0.042
-600.084	797.719	-0.144	-0.401
-599.069	-74.548	0.351	-0.128
-598.055	-147.445	-0.138	0.012
-597.040	184.313	0.090	-0.134
-596.025	800.000	-0.010	-0.035
-595.011	-152.594	0.169	-0.012
-593.996	-28.959	0.173	-0.101
-592.982	-122.816	-0.124	0.020
-591.967	152.755	0.189	-0.261
-590.952	114.225	0.092	-0.113
-589.938	53.149	0.044	0.043
-588.923	-81.852	0.225	0.074
-587.909	198.456	-0.180	0.279
-586.894	51.018	-0.227	-0.217
-585.879	-133.412	0.182	-0.023
-584.865	800.000	-0.014	-0.059
-583.850	800.000	0.017	0.072
-582.836	440.755	-0.143	-0.315
-581.821	-9.688	-0.149	-0.100
-580.806	-115.205	0.166	0.032
-579.792	407.420	-0.119	0.255
-578.777	181.402	-0.188	0.279
-577.763	147.529	-0.116	0.159
-576.748	-20.826	0.379	-0.235
-575.733	150.113	0.208	0.286
-574.719	-155.652	-0.070	0.005
-573.704	-26.861	0.192	0.113
-572.690	-85.171	0.289	0.091
-571.675	-200.000	-0.003	0.013
-570.661	-142.370	0.141	0.014
-569.646	-55.231	-0.259	-0.118
-568.631	800.000	-0.053	0.224
-567.617	-1.842	-0.151	-0.107
-566.602	-54.011	-0.253	-0.116
-565.588	114.447	-0.202	0.248
-564.573	99.395	-0.102	0.119
-563.558	800.000	0.020	-0.081
-562.544	24.344	0.195	-0.163
-561.529	-174.113	-0.235	0.007
-560.515	54.861	-0.201	0.196
-559.500	-15.304	0.071	0.046
-558.485	-125.410	-0.142	-0.022
-557.471	59.758	-0.372	0.371
-556.456	-147.278	0.365	-0.031
-555.442	-200.000	0.033	0.494
-554.427	199.619	0.076	0.118
-553.412	-200.000	0.011	-0.153
-552.398	-10.528	-0.262	-0.175
-551.383	800.000	0.052	-0.167
-550.369	-77.396	0.429	-0.150
-549.354	15.272	-0.221	0.175
-548.339	326.642	-0.148	-0.286
-547.325	5.181	0.173	0.129
-546.310	29.940	0.091	-0.078
-545.296	-56.966	-0.069	-0.031
-544.281	205.517	0.147	-0.230
-543.266	258.985	-0.183	0.318
-542.252	261.698	-0.104	0.181
-541.237	178.351	0.105	-0.155
-540.223	-200.000	0.071	-0.353
-539.208	-104.235	-0.079	-0.019
-538.193	418.540	-0.051	0.109
-537.179	-200.000	-0.033	0.180
-536.164	800.000	-0.086	0.255
-535.150	-80.072	-0.461	-0.156
-534.135	-22.237	-0.377	0.231
-533.121	319.649	0.095	0.183
-532.106	220.002	0.054	0.087
-531.091	-16.860	0.145	-0.093
-530.077	-42.252	-0.034	-0.018
-529.062	-176.616	-0.293	-0.008
-528.048	145.308	-0.045	0.061
-527.033	-200.000	0.041	-0.288
-526.018	800.000	0.034	-0.136
-525.004	-107.754	-0.470	-0.103
-523.989	676.597	-0.043	0.111
-522.975	438.761	-0.118	-0.260
-521.960	800.000	0.060	0.239
-520.945	-200.000	-0.051	0.332
-519.931	335.541	0.209	-0.408
-518.916	-200.000	0.003	-0.194
-517.902	-65.258	0.050	0.020
-516.887	482.545	0.021	0.048
-515.872	-4.279	0.131	-0.091
-514.858	-51.957	-0.507	0.238
-513.843	-200.000	-0.017	0.149
-512.829	137.987	0.112	0.148
-511.814	-200.000	-0.004	-0.024
-510.799	-200.000	-0.029	0.206
-509.785	157.737	-0.198	0.276
-508.770	28.944	0.237	-0.202
-507.756	-200.000	0.032	0.319
-506.741	-128.460	0.188	0.027
-505.726	-81.994	-0.159	0.052
-504.712	156.229	0.023	-0.032
-503.697	800.000	0.039	0.109
-502.683	-200.000	-0.049	0.388
-501.668	91.233	-0.221	-0.250
-500.653	-200.000	-0.011	0.119
-499.639	-200.000	-0.041	-0.280
-498.624	-40.532	-0.156	-0.082
-497.610	9.036	-0.274	-0.208
-496.595	-200.000	0.037	-0.378
-495.581	-200.000	-0.002	-0.028
-494.566	145.411	-0.088	-0.119
-493.551	-72.049	-0.317	0.119
-492.537	124.840	-0.226	-0.287
-491.522	-122.569	0.427	-0.070
-490.508	-36.159	0.099	-0.054
-489.493	-200.000	-0.005	-0.076
-488.478	16.567	0.373	-0.297
-487.464	197.741	0.183	-0.281
-486.449	21.697	-0.382	-0.313
-485.435	800.000	0.072	-0.205
-484.420	800.000	-0.055	-0.227
-483.405	-200.000	-0.034	0.384
-482.391	-6.319	-0.261	0.179
-481.376	-70.164	-0.045	-0.017
-480.362	274.129	-0.124	0.221
-479.347	-51.131	0.165	-0.078
-478.332	800.000	0.111	-0.329
-477.318	-200.000	-0.025	0.117
-476.303	-61.044	-0.225	-0.096
-475.289	74.087	0.140	-0.148
-474.274	800.000	-0.107	-0.308
-473.259	-60.998	0.192	-0.081
-472.245	258.240	-0.147	0.255
-471.230	87.577	-0.123	0.137
-470.216	57.584	0.212	-0.208
-469.201	-33.251	0.182	-0.102
-468.186	-200.000	-0.024	0.213
-467.172	4.291	0.191	-0.141
-466.157	-83.050	0.199	-0.065
-465.143	-155.586	-0.066	0.004
-464.128	-65.476	0.075	-0.030
-463.113	79.658	0.195	0.210
-462.099	-106.541	-0.147	0.033
-461.084	-67.038	-0.345	0.137
-460.070	-100.849	-0.302	-0.075
-459.055	-200.000	-0.013	0.221
-458.040	-142.918	0.245	-0.024
-457.026	-200.000	0.000	0.213
-456.011	-100.307	-0.022	0.006
-454.997	23.068	-0.172	0.142
-453.982	182.475	-0.063	0.093
-452.968	78.038	-0.063	-0.068
-451.953	-6.107	-0.062	-0.043
-450.938	55.860	0.232	0.226
-449.924	202.567	0.084	0.130
-448.909	15.784	0.239	-0.189
-447.895	16.253	0.150	-0.119
-446.880	77.947	0.181	0.194
-445.865	-56.834	0.272	0.121
-444.851	362.894	0.115	0.232
-443.836	-200.000	0.026	0.265
-442.822	217.168	-0.083	0.133
-441.807	-100.346	0.270	-0.067
-440.792	-112.128	-0.088	-0.018
-439.778	265.010	-0.150	-0.263
-438.763	-49.624	0.271	0.129
-437.749	-148.088	0.256	0.021
-436.734	800.000	-0.019	-0.079
-435.719	25.857	-0.173	-0.144
-434.705	800.000	-0.015	-0.049
-433.690	417.212	0.109	-0.234
-432.676	-75.115	-0.244	0.088
-431.661	398.920	0.093	0.197
-430.646	190.580	-0.150	-0.226
-429.632	-25.200	0.272	0.162
-428.617	-95.948	0.540	-0.144
-427.603	37.693	0.088	-0.078
-426.588	-200.000	0.011	-0.061
-425.573	-18.478	-0.153	0.096
-424.559	-33.826	-0.255	0.141
-423.544	-93.484	-0.318	0.089
-422.530	-200.000	-0.044	0.296
-421.515	-86.941	-0.261	-0.080
-420.500	-96.226	-0.294	-0.078
-419.486	-88.876	0.212	-0.063
-418.471	-54.372	0.171	0.078
-417.457	516.770	0.099	-0.231
-416.442	-106.907	-0.263	0.059
-415.428	-95.535	0.112	0.030
-414.413	69.681	0.099	-0.103
-413.398	34.648	-0.058	0.051
-412.384	-200.000	-0.022	-0.256
-411.369	136.883	-0.126	0.165
-410.355	348.147	0.078	-0.155
-409.340	-200.000	0.026	-0.224
-408.325	-58.844	-0.319	-0.139
-407.311	-76.559	-0.125	0.044
-406.296	192.690	-0.160	-0.242
-405.282	-83.508	-0.377	-0.121
-404.267	-123.095	-0.314	-0.051
-403.252	-61.736	0.317	-0.133
-402.238	-156.771	-0.111	-0.007
-401.223	-22.276	-0.228	-0.138
-400.209	800.000	0.065	0.204
-399.194	-99.116	-0.197	0.050
-398.179	106.881	0.146	-0.174
-397.165	-85.357	0.273	-0.085
-396.150	165.428	0.126	-0.179
-395.136	-141.223	-0.181	0.019
-394.121	-200.000	0.000	-0.165
-393.106	55.569	0.008	0.008
-392.092	-54.423	-0.390	0.177
-391.077	-64.901	-0.193	-0.078
-390.063	-144.191	0.135	-0.013
-389.048	800.000	-0.074	-0.246
-388.033	-117.750	0.111	-0.020
-387.019	800.000	-0.062	-0.217
-386.004	800.000	-0.036	-0.119
-384.990	54.236	0.251	0.243
-383.975	62.099	0.050	-0.050
-382.960	294.227	-0.113	0.207
-381.946	-200.000	0.009	0.363
-380.931	43.111	0.376	0.344
-379.917	800.000	0.094	-0.360
-378.902	792.402	0.051	-0.141
-377.888	-200.000	0.019	-0.101
-376.873	-44.821	-0.348	-0.174
-375.858	116.660	0.219	0.269
-374.844	420.623	0.074	-0.158
-373.829	58.473	-0.367	-0.360
-372.815	-78.681	0.228	-0.078
-371.800	243.375	-0.214	0.359
-370.785	-131.846	0.225	0.029
-369.771	776.391	0.096	-0.263
-368.756	20.492	-0.202	0.164
-367.742	-200.000	-0.026	0.426
-366.727	-200.000	-0.004	0.149
-365.712	51.037	-0.171	0.162
-364.698	-200.000	-0.004	-0.097
-363.683	47.167	-0.071	-0.066
-362.669	23.238	0.165	0.136
-361.654	-89.913	-0.191	0.056
-360.639	-45.110	-0.226	0.112
-359.625	-59.725	-0.215	-0.092
-358.610	-51.584	0.124	0.058
-357.596	173.152	0.026	0.037
-356.581	35.495	-0.094	-0.082
-355.566	-96.520	-0.118	-0.031
-354.552	248.686	-0.039	0.066
-353.537	-133.650	-0.301	0.038
-352.523	191.261	0.169	-0.255
-351.508	-10.523	0.109	-0.072
-350.493	41.039	0.188	-0.170
-349.479	85.287	0.186	-0.205
-348.464	-155.131	0.238	-0.016
-347.450	200.745	-0.007	-0.011
-346.435	-200.000	0.022	0.162
-345.420	-154.405	0.297	0.020
-344.406	-96.512	0.053	-0.014
-343.391	-139.584	-0.256	0.027
-342.377	208.103	-0.032	0.051
-341.362	48.453	0.259	0.243
-340.348	-174.657	0.343	0.010
-339.333	-16.104	0.265	-0.169
-338.318	28.918	0.105	-0.089
-337.304	-6.574	0.267	0.182
-336.289	-132.074	0.181	-0.024
-335.275	-98.110	-0.195	0.050
-334.260	-45.260	-0.162	0.080
-333.245	800.000	0.090	0.307
-332.231	-109.981	-0.230	-0.048
-331.216	-39.847	0.148	0.078
-330.202	-96.825	0.153	0.040
-329.187	-99.395	0.376	-0.095
-328.172	-72.961	-0.181	-0.066
-327.158	-13.248	-0.334	-0.217
-326.143	438.117	-0.149	-0.325
-325.129	555.047	-0.067	-0.162
-324.114	-66.638	0.187	0.074
-323.099	800.000	0.069	0.205
-322.085	-66.888	0.153	0.061
-321.070	-40.926	-0.423	-0.219
-320.056	-74.005	0.182	0.066
-319.041	-47.839	-0.010	-0.005
-318.026	3.565	0.057	0.041
-317.012	-200.000	-0.010	0.125
-315.997	-148.653	0.097	-0.008
-314.983	-57.354	0.213	-0.093
-313.968	596.497	-0.127	-0.314
-312.953	800.000	-0.051	-0.218
-311.939	71.749	0.161	0.167
-310.924	-111.716	-0.011	0.002
-309.910	-200.000	0.070	-0.343
-308.895	-99.463	-0.226	-0.057
-307.880	800.000	0.053	-0.145
-306.866	316.003	-0.095	0.178
-305.851	-123.684	0.244	0.039
-304.837	-51.755	-0.147	0.068
-303.822	-94.543	-0.061	-0.016
-302.807	-145.970	0.123	-0.011
-301.793	-3.008	0.360	-0.251
-300.778	-80.974	-0.248	0.082
-299.764	20.307	-0.167	0.135
-298.749	800.000	-0.027	-0.082
-297.735	-115.595	0.044	0.008
-296.720	-166.421	-0.325	0.014
-295.705	390.700	-0.123	0.256
-294.691	-126.409	0.020	-0.003
-293.676	373.880	-0.044	0.089
-292.662	123.710	0.204	-0.256
-291.647	800.000	-0.051	-0.178
-290.632	-6.786	-0.340	-0.231
-289.618	157.880	0.153	0.212
-288.603	159.248	-0.139	-0.193
-287.589	24.587	-0.297	0.246
-286.574	-200.000	-0.042	0.291
-285.559	-109.617	-0.363	-0.076
-284.545	403.524	0.096	-0.201
-283.530	-102.366	0.289	-0.069
-282.516	348.030	0.007	-0.014
-281.501	135.906	-0.239	0.311
-280.486	-137.643	-0.302	0.034
-279.472	-97.189	-0.027	0.007
-278.457	-112.777	0.280	0.055
-277.443	-0.273	0.044	0.031
-276.428	3.961	-0.150	0.110
-275.413	169.320	0.112	-0.159
-274.399	106.089	0.123	0.145
-273.384	-49.139	-0.203	-0.097
-272.370	26.216	-0.133	0.111
-271.355	-56.199	-0.075	-0.033
-270.340	-59.302	0.103	0.044
-269.326	295.331	-0.072	0.132
-268.311	62.746	-0.024	-0.024
-267.297	-155.883	-0.149	0.009
-266.282	378.859	-0.110	0.224
-265.267	-71.471	0.190	-0.071
-264.253	800.000	-0.125	-0.390
-263.238	-200.000	0.017	-0.170
-262.224	-109.074	0.261	-0.055
-261.209	568.641	0.056	-0.135
-260.195	-108.864	0.359	-0.077
-259.180	-168.915	0.530	0.020
-258.165	800.000	0.065	0.267
-257.151	361.891	-0.135	0.270
-256.136	-116.063	0.087	-0.016
-255.122	-94.159	0.320	-0.087
-254.107	800.000	0.032	0.115
-253.092	-200.000	-0.003	0.062
-252.078	800.000	-0.033	-0.132
-251.063	22.028	0.115	-0.093
-250.049	4.111	-0.285	0.208
-249.034	800.000	-0.059	0.213
-248.019	-9.264	0.295	0.196
-247.005	800.000	-0.116	0.336
-245.990	26.059	0.094	-0.078
-244.976	800.000	-0.047	-0.181
-243.961	-61.527	-0.179	-0.075
-242.946	631.226	-0.119	0.300
-241.932	326.809	0.031	0.060
-240.917	-116.133	-0.180	0.033
-239.903	1.253	-0.137	0.098
-238.888	-127.803	0.178	0.026
-237.873	259.045	0.127	0.218
-236.859	66.590	0.084	-0.086
-235.844	483.868	0.068	-0.154
-234.830	-33.364	0.253	-0.139
-233.815	12.022	-0.068	0.052
-232.800	-59.109	0.152	-0.065
-231.786	-38.628	0.059	0.031
-230.771	-13.863	0.117	0.075
-229.757	191.086	0.165	0.247
-228.742	-167.397	0.349	-0.014
-227.727	-200.000	-0.019	-0.109
-226.713	800.000	-0.031	0.131
-225.698	-200.000	-0.020	-0.118
-224.684	-85.493	-0.011	0.003
-223.669	342.362	0.074	-0.145
-222.655	-200.000	0.003	-0.070
-221.640	-78.336	0.149	-0.051
-220.625	59.947	-0.280	-0.275
-219.611	-116.768	0.240	-0.044
-218.596	800.000	0.091	-0.249
-217.582	800.000	-0.065	0.193
-216.567	-22.271	0.205	0.124
-215.552	-138.543	0.169	0.018
-214.538	196.573	-0.203	0.308
-213.523	-43.158	0.269	0.136
-212.509	-33.483	0.068	0.037
-211.494	38.259	0.201	0.178
-210.479	479.023	0.050	0.114
-209.465	-107.652	-0.165	0.036
-208.450	-52.038	-0.077	0.036
-207.436	263.973	0.121	-0.209
-206.421	180.272	0.126	0.184
-205.406	-36.269	0.404	-0.217
-204.392	27.132	-0.101	0.084
-203.377	-200.000	-0.029	0.355
-202.363	184.143	-0.161	-0.237
-201.348	71.001	0.200	0.207
-200.333	-80.519	0.154	-0.051
-199.319	-200.000	-0.014	0.319
-198.304	7.958	-0.261	-0.195
-197.290	3.657	-0.212	-0.154
-196.275	-71.155	0.242	-0.090
-195.260	-25.853	0.167	0.098
-194.246	78.051	-0.061	0.065
-193.231	-110.419	0.211	-0.044
-192.217	800.000	-0.068	0.284
-191.202	-163.670	-0.227	0.011
-190.187	130.093	0.193	0.246
-189.173	30.092	0.230	0.195
-188.158	-200.000	0.049	0.240
-187.144	-135.154	-0.418	0.050
-186.129	-200.000	-0.008	-0.164
-185.114	-103.676	0.168	-0.039
-184.100	142.523	0.171	-0.226
-183.085	176.639	0.133	0.192
-182.071	-71.208	0.410	0.153
-181.056	-77.636	-0.190	-0.065
-180.042	415.554	0.229	-0.486
-179.027	-67.248	-0.137	-0.053
-178.012	-54.000	0.068	-0.031
-176.998	96.226	0.141	-0.160
-175.983	79.452	-0.209	-0.222
-174.969	-124.230	0.074	0.012
-173.954	-200.000	-0.007	0.146
-172.939	800.000	0.076	0.238
-171.925	800.000	0.043	0.171
-170.910	295.367	-0.137	-0.248
-169.896	-128.111	0.026	0.004
-168.881	-113.007	0.050	-0.010
-167.866	-200.000	-0.051	-0.393
-166.852	212.503	-0.124	0.195
-165.837	91.277	0.087	-0.097
-164.823	-93.594	-0.052	-0.014
-163.808	-200.000	-0.001	0.060
-162.793	-200.000	-0.037	-0.205
-161.779	-109.204	-0.360	0.076
-160.764	99.646	0.155	0.179
-159.750	140.574	0.113	0.148
-158.735	-74.256	-0.220	-0.079
-157.720	182.815	-0.183	-0.269
-156.706	-200.000	-0.002	0.068
-155.691	800.000	0.060	0.250
-154.677	800.000	-0.057	0.231
-153.662	-147.207	0.294	0.025
-152.647	-200.000	0.003	-0.034
-151.633	-111.779	-0.129	0.026
-150.618	281.121	0.182	0.323
-149.604	-184.757	-0.279	0.004
-148.589	8.885	0.228	-0.171
-147.574	-101.000	0.474	-0.116
-146.560	79.665	0.130	-0.138
-145.545	264.499	-0.148	-0.256
-144.531	-183.167	0.150	0.003
-143.516	207.686	0.163	0.252
-142.502	67.593	0.124	-0.126
-141.487	118.058	0.115	-0.141
-140.472	145.454	0.049	-0.066
-139.458	87.244	-0.183	-0.201
-138.443	58.038	-0.160	0.156
-137.429	-8.948	-0.137	-0.091
-136.414	-143.586	0.095	-0.009
-135.399	-154.600	0.121	0.008
-134.385	35.823	-0.159	-0.139
-133.370	175.292	-0.019	0.028
-132.356	352.718	0.028	0.056
-131.341	-90.472	0.109	-0.031
-130.326	32.102	0.334	0.286
-129.312	24.624	0.112	0.092
-128.297	-64.623	-0.150	-0.060
-127.283	93.607	-0.239	-0.268
-126.268	87.910	0.066	-0.073
-125.253	-125.356	-0.204	0.031
-124.239	472.546	-0.048	-0.107
-123.224	271.109	-0.136	0.237
-122.210	23.662	0.326	-0.266
-121.195	-142.788	-0.402	0.039
-120.180	-2.913	0.244	-0.169
-119.166	800.000	0.128	0.356
-118.151	-200.000	0.037	0.176
-117.137	-53.541	0.215	0.097
-116.122	354.212	0.048	-0.095
-115.107	276.855	-0.072	-0.127
-114.093	410.103	0.138	-0.291
-113.078	-200.000	-0.030	-0.386
-112.064	800.000	0.069	0.282
-111.049	-200.000	-0.001	-0.355
-110.034	800.000	0.017	-0.066
-109.020	54.818	0.227	0.217
-108.005	-200.000	0.031	0.454
-106.991	-112.256	-0.301	0.060
-105.976	394.948	-0.098	0.203
-104.962	-141.074	0.095	-0.010
-103.947	-200.000	-0.090	0.416
-102.932	-104.180	0.194	-0.045
-101.918	-156.688	-0.216	-0.013
-100.903	150.111	-0.178	0.239
-99.889	-21.150	0.213	0.129
-98.874	-176.071	-0.165	-0.004
-97.859	65.726	-0.173	0.173
-96.845	-126.175	0.047	0.007
-95.830	-14.031	0.225	0.144
-94.816	143.705	0.232	0.306
-93.801	-200.000	0.001	0.391
-92.786	-122.902	0.027	0.004
-91.772	585.621	0.078	-0.189
-90.757	543.742	-0.099	0.235
-89.743	-35.075	0.201	0.109
-88.728	42.671	0.103	0.093
-87.713	-91.285	0.067	-0.019
-86.699	-40.099	0.291	0.150
-85.684	-102.603	0.237	0.056
-84.670	9.016	-0.294	0.220
-83.655	-9.447	-0.067	-0.044
-82.640	97.156	-0.342	0.389
-81.626	800.000	-0.034	0.142
-80.611	-75.905	0.384	0.135
-79.597	-151.953	0.345	-0.025
-78.582	-200.000	-0.045	0.205
-77.567	-11.553	0.197	-0.128
-76.553	-132.286	-0.285	-0.037
-75.538	39.296	-0.389	-0.345
-74.524	-200.000	0.010	0.070
-73.509	-139.627	-0.090	0.009
-72.494	-181.556	-0.309	-0.006
-71.480	449.660	-0.058	0.126
-70.465	137.524	0.292	0.378
-69.451	23.363	-0.079	-0.064
-68.436	-40.217	-0.246	0.127
-67.422	297.327	-0.060	0.109
-66.407	387.926	-0.107	0.220
-65.392	5.615	0.289	0.212
-64.378	229.621	0.090	-0.145
-63.363	-200.000	-0.034	-0.231
-62.349	324.599	-0.073	0.137
-61.334	116.265	-0.823	-0.999
-60.319	-99.435	0.500	0.125
-59.305	163.762	-0.470	-0.655
-58.290	800.000	0.223	0.935
-57.276	640.147	0.417	1.051
-56.261	-200.000	97.328	573.452
-55.246	629.007	1400.231	3502.955
-54.232	186.170	2608.264	3839.405
-53.217	120.020	2203.523	2704.416
-52.203	44.702	1736.252	1580.041
-51.188	37.399	1546.939	1356.960
-50.173	34.869	1520.756	1316.546
-49.159	53.659	1570.762	1491.755
-48.144	57.273	1589.491	1534.758
-47.130	37.748	1545.120	1357.583
-46.115	34.571	1529.310	1321.678
-45.100	34.404	1525.765	1317.407
-44.086	34.289	1524.369	1315.361
-43.071	34.233	1522.270	1313.112
-42.057	34.224	1520.708	1311.649
-41.042	34.186	1519.202	1310.032
-40.027	34.280	1518.259	1309.816
-39.013	34.225	1516.877	1308.195
-37.998	34.178	1515.638	1306.752
-36.984	34.120	1514.488	1305.313
-35.969	34.222	1513.041	1304.713
-34.954	34.251	1511.272	1303.331
-33.940	34.242	1510.080	1302.190
-32.925	34.248	1508.824	1301.096
-31.911	34.328	1507.198	1300.187
-30.896	34.257	1506.276	1298.858
-29.881	34.368	1504.350	1297.899
-28.867	34.304	1503.352	1296.550
-27.852	34.306	1501.819	1295.191
-26.838	34.287	1500.577	1293.938
-25.823	34.314	1499.254	1292.930
-24.809	34.367	1497.465	1291.694
-23.794	34.406	1495.971	1290.622
-22.779	34.286	1494.779	1288.729
-21.765	34.335	1493.422	1287.843
-20.750	34.369	1492.217	1286.982
-19.736	34.293	1491.313	1285.636
-18.721	34.161	1490.754	1284.210
-17.706	34.163	1489.944	1283.477
-16.692	34.324	1488.559	1283.314
-15.677	34.205	1487.432	1281.491
-14.663	34.238	1486.584	1280.934
-13.648	34.238	1485.346	1279.813
-12.633	34.221	1484.491	1278.913
-11.619	34.212	1483.952	1278.342
-10.604	34.236	1482.532	1277.225
-9.590	34.216	1481.571	1276.212
-8.575	34.218	1481.103	1275.770
-7.560	34.241	1480.123	1275.035
-6.546	34.196	1479.273	1273.950
-5.531	34.176	1478.512	1273.112
-4.517	34.311	1476.995	1272.655
-3.502	34.261	1476.210	1271.597
-2.487	34.177	1475.776	1270.611
-1.473	34.245	1474.232	1269.683
-0.458	34.126	1473.215	1267.961
0.556	32.967	1464.112	1257.575
1.571	30.082	1437.118	1215.389
2.586	26.381	1374.423	1139.003
3.600	24.607	1290.827	1059.127
4.615	23.126	1244.365	1012.441
5.629	20.378	1188.646	951.977
6.644	12.546	1103.264	843.507
7.659	6.058	1061.807	779.629
8.673	5.202	1056.290	771.284
9.688	5.011	1053.149	767.980
10.702	4.946	1051.345	766.280
11.717	4.941	1049.987	765.195
12.731	7.624	1052.141	779.883
13.746	15.103	1063.025	824.850
14.761	19.679	1067.892	851.142
15.775	18.746	1065.569	844.632
16.790	17.483	1063.361	836.602
17.804	16.305	1061.354	829.169
18.819	15.554	1058.993	823.569
19.834	15.022	1058.012	820.128
20.848	14.815	1056.604	817.951
21.863	14.525	1056.184	816.134
22.877	14.235	1055.621	814.209
23.892	14.127	1054.619	812.835
24.907	14.063	1053.470	811.564
25.921	13.944	1053.316	810.793
26.936	13.978	1052.222	810.048
27.950	14.063	1051.191	809.595
28.965	14.152	1049.819	808.899
29.980	14.139	1048.689	807.895
30.994	14.211	1047.743	807.445
32.009	14.145	1047.092	806.549
33.023	14.256	1046.352	806.447
34.038	14.192	1045.420	805.346
35.053	14.293	1043.892	804.586
36.067	14.229	1043.450	803.866
37.082	14.276	1041.982	802.890
38.096	14.227	1041.531	802.233
39.111	14.237	1040.815	801.659
40.126	14.193	1039.745	800.556
41.140	14.110	1038.813	799.368
42.155	14.029	1037.644	798.006
43.169	13.929	1036.931	796.910
44.184	14.002	1035.555	796.131
45.199	13.980	1034.700	795.299
46.213	14.000	1033.326	794.265
47.228	13.932	1032.714	793.402
48.242	14.051	1031.702	793.121
49.257	14.143	1030.623	792.661
50.271	14.072	1029.624	791.482
51.286	14.112	1028.862	791.017
52.301	14.120	1028.363	790.605
53.315	14.170	1027.299	789.954
54.330	14.051	1026.384	788.613
55.344	13.979	1025.403	787.447
56.359	14.034	1024.388	786.860
57.374	14.021	1023.606	786.127
58.388	14.077	1022.777	785.685
59.403	13.909	1022.006	784.233
60.417	13.792	1021.443	783.181
61.432	13.948	1020.377	783.025
62.447	13.919	1019.786	782.369
63.461	13.839	1018.755	781.130
64.476	13.993	1017.797	781.050
65.490	13.793	1017.180	779.569
66.505	13.816	1016.384	778.999
67.520	13.788	1015.759	778.320
68.534	13.933	1014.755	778.159
69.549	13.897	1014.492	777.722
70.563	13.896	1013.505	776.889
71.578	13.820	1012.612	775.783
72.593	13.888	1011.720	775.347
73.607	13.697	1011.066	773.887
74.622	13.659	1010.325	773.073
75.636	13.672	1008.877	771.960
76.651	13.690	1008.140	771.410
77.666	13.771	1007.405	771.157
78.680	13.777	1006.853	770.694
79.695	13.808	1006.708	770.657
80.709	13.944	1005.744	770.482
81.724	13.827	1005.229	769.479
82.739	13.898	1003.832	768.668
83.753	13.930	1003.490	768.485
84.768	14.052	1002.773	768.433
85.782	14.119	1001.918	768.020
86.797	14.239	1001.182	767.943
87.812	14.124	1000.488	766.811
88.826	14.130	999.550	766.052
89.841	14.127	998.472	765.145
90.855	14.227	997.670	764.922
91.870	14.254	996.823	764.330
92.884	14.332	996.263	764.188
93.899	14.182	996.133	763.333
94.914	14.433	994.773	763.373
95.928	14.305	994.243	762.314
96.943	14.351	993.220	761.673
97.957	14.152	992.416	760.078
98.972	14.180	992.122	759.913
99.987	14.189	991.077	759.087
101.001	14.276	990.423	758.918
102.016	14.081	989.638	757.360
103.030	14.196	988.789	757.165
104.045	14.330	987.573	756.777
105.060	14.288	986.824	755.947
106.074	14.232	985.738	754.792
107.089	14.089	984.643	753.242
108.103	13.918	984.059	751.952
109.118	13.973	982.712	751.104
110.133	13.829	982.389	750.140
111.147	13.924	981.314	749.685
112.162	14.048	980.035	749.196
113.176	13.960	980.167	748.838
114.191	13.973	978.839	747.813
115.206	14.031	977.955	747.331
116.220	13.988	977.619	746.815
117.235	14.048	976.699	746.316
118.249	13.971	976.023	745.390
119.264	13.964	974.683	744.267
120.279	14.011	973.870	743.793
121.293	13.958	972.607	742.526
122.308	13.949	972.025	741.976
123.322	13.925	971.312	741.256
124.337	13.834	970.270	739.992
125.352	13.644	969.489	738.482
126.366	13.873	968.124	738.400
127.381	13.973	966.755	737.732
128.395	13.954	966.045	737.039
129.410	13.975	964.927	736.217
130.424	13.943	964.187	735.444
131.439	14.049	963.249	735.132
132.454	13.978	962.798	734.410
133.468	14.093	962.126	734.341
134.483	14.211	961.314	734.178
135.497	14.011	960.813	732.845
136.512	13.931	960.194	731.955
137.527	14.012	959.139	731.442
138.541	13.973	958.656	730.842
139.556	14.106	957.677	730.611
140.570	14.144	957.044	730.232
141.585	14.079	956.394	729.385
142.600	14.157	956.023	729.379
143.614	14.310	954.855	729.097
144.629	14.233	954.147	728.152
145.643	14.375	953.404	728.143
146.658	14.350	952.434	727.226
147.673	14.239	951.537	725.993
148.687	14.217	950.572	725.099
149.702	14.123	949.883	724.101
150.716	13.976	949.159	722.842
151.731	14.130	947.717	722.351
152.746	14.037	947.214	721.497
153.760	14.014	946.601	720.868
154.775	14.093	945.986	720.679
155.789	14.265	944.988	720.599
156.804	14.231	944.057	719.680
157.819	14.249	943.714	719.432
158.833	14.272	942.908	718.853
159.848	14.254	942.478	718.383
160.862	14.261	942.140	718.094
161.877	14.538	940.633	718.074
162.892	14.384	939.769	716.689
163.906	14.340	939.040	715.879
164.921	14.212	938.761	715.055
165.935	14.254	937.258	714.025
166.950	14.251	936.495	713.370
167.964	14.413	935.314	713.098
168.979	14.260	934.982	712.129
169.994	14.213	933.844	710.998
171.008	14.322	932.889	710.672
172.023	14.302	932.297	710.073
173.037	14.367	931.799	709.909
174.052	14.483	930.585	709.415
175.067	14.497	930.212	709.126
176.081	14.468	929.348	708.283
177.096	14.200	928.693	706.583
178.110	14.229	927.905	706.045
179.125	14.289	927.061	705.592
180.140	14.277	926.174	704.806
181.154	14.335	925.692	704.622
182.169	14.461	924.888	704.478
183.183	14.486	924.313	704.085
184.198	14.520	923.730	703.720
185.213	14.649	922.845	703.531
186.227	14.498	922.655	702.685
187.242	14.619	921.945	702.590
188.256	14.667	921.024	702.031
189.271	14.661	920.470	701.519
190.286	14.683	919.549	700.849
191.300	14.527	918.701	699.485
192.315	14.337	918.161	698.218
193.329	14.256	917.278	697.143
194.344	14.237	916.455	696.376
195.359	14.334	916.175	696.509
196.373	14.476	915.184	696.288
197.388	14.464	914.991	696.030
198.402	14.680	914.535	696.520
199.417	14.692	914.540	696.514
200.432	14.843	913.813	696.529
201.446	14.860	913.418	696.235
202.461	14.874	913.051	695.951
203.475	15.057	912.124	695.947
204.490	14.947	911.640	695.058
205.504	14.845	911.047	694.123
206.519	14.730	910.041	692.814
207.534	14.723	909.296	692.158
208.548	14.744	908.699	691.730
209.563	14.838	907.630	691.244
210.577	14.640	907.465	690.237
211.592	14.785	906.650	690.157
212.607	14.830	906.040	689.814
213.621	14.958	905.809	690.109
214.636	15.018	904.987	689.666
215.650	14.912	904.329	688.670
216.665	15.062	903.469	688.569
217.680	15.025	903.144	688.109
218.694	15.044	903.104	688.097
219.709	14.993	902.419	687.303
220.723	15.055	901.704	686.952
221.738	15.235	900.569	686.766
222.753	14.999	900.313	685.540
223.767	15.099	898.946	684.848
224.782	14.991	898.512	684.014
225.796	15.038	898.017	683.772
226.811	15.220	897.485	684.047
227.826	15.160	896.385	682.907
228.840	15.043	896.142	682.183
229.855	15.098	895.238	681.659
230.869	15.020	894.507	680.722
231.884	15.117	893.832	680.544
232.899	15.135	892.878	679.830
233.913	15.011	892.401	678.903
234.928	15.042	892.060	678.712
235.942	14.944	891.569	677.879
236.957	14.860	890.536	676.694
237.972	15.046	889.467	676.573
238.986	15.089	889.147	676.443
240.001	15.068	888.330	675.678
241.015	14.914	887.863	674.643
242.030	15.115	887.132	674.838
243.045	15.129	886.654	674.470
244.059	15.281	885.954	674.490
245.074	15.122	885.347	673.329
246.088	15.204	884.944	673.293
247.103	15.349	883.878	673.003
248.117	15.342	883.582	672.692
249.132	15.354	883.143	672.343
250.147	15.426	882.641	672.191
251.161	15.486	882.273	672.090
252.176	15.602	881.514	671.919
253.190	15.655	880.380	671.207
254.205	15.749	880.126	671.328
255.220	15.824	879.260	670.906
256.234	15.691	878.828	669.989
257.249	15.759	878.206	669.725
258.263	15.723	877.360	668.877
259.278	15.629	877.045	668.204
260.293	15.640	876.757	667.970
261.307	15.843	875.841	668.020
262.322	15.733	875.615	667.352
263.336	15.730	874.955	666.776
264.351	15.886	874.094	666.680
265.366	15.797	873.647	665.926
266.380	15.777	872.988	665.287
267.395	15.894	872.215	665.101
268.409	15.992	871.468	664.861
269.424	15.922	870.445	663.744
270.439	15.836	869.990	663.001
271.453	15.788	869.419	662.318
272.468	15.853	868.513	661.823
273.482	15.806	867.947	661.151
274.497	15.785	867.220	660.456
275.512	15.964	866.606	660.631
276.526	15.774	865.880	659.273
277.541	15.893	864.888	658.926
278.555	15.760	865.200	658.586
279.570	15.866	864.150	658.141
280.585	15.987	863.741	658.243
281.599	16.136	862.961	658.175
282.614	16.037	862.258	657.194
283.628	15.960	861.849	656.524
284.643	15.946	861.008	655.771
285.657	16.045	861.080	656.152
286.672	15.964	860.609	655.421
287.687	16.038	859.551	654.843
288.701	16.139	859.211	654.920
289.716	15.960	858.742	653.810
290.730	15.930	858.199	653.222
291.745	16.070	857.319	653.038
292.760	16.155	856.565	652.732
293.774	16.043	856.269	652.016
294.789	16.128	855.913	652.018
295.803	16.075	855.178	651.193
296.818	16.212	854.450	651.111
297.833	16.167	853.612	650.240
298.847	16.201	852.779	649.682
299.862	16.137	852.102	648.860
300.876	16.217	851.363	648.547
301.891	16.200	851.153	648.265
302.906	16.243	850.341	647.753
303.920	16.287	849.844	647.485
304.935	16.457	848.927	647.381
305.949	16.360	848.444	646.584
306.964	16.418	847.762	646.231
307.979	16.461	847.201	645.910
308.993	16.620	846.625	646.020
310.008	16.381	846.303	644.807
311.022	16.552	845.659	644.911
312.037	16.535	844.916	644.221
313.052	16.409	844.774	643.576
314.066	16.463	843.920	643.075
315.081	16.408	843.173	642.239
316.095	16.289	843.036	641.627
317.110	16.414	842.161	641.377
318.125	16.316	841.837	640.702
319.139	16.335	841.462	640.434
320.154	16.514	840.506	640.325
321.168	16.490	840.091	639.864
322.183	16.565	839.765	639.841
323.197	16.540	839.112	639.192
324.212	16.486	838.549	638.504
325.227	16.494	838.187	638.203
326.241	16.637	837.500	638.162
327.256	16.386	837.082	636.840
328.270	16.493	836.479	636.728
329.285	16.520	835.853	636.295
330.300	16.424	835.415	635.544
331.314	16.513	834.684	635.266
332.329	16.591	834.183	635.123
333.343	16.607	833.413	634.540
334.358	16.685	832.617	634.170
335.373	16.629	832.522	633.832
336.387	16.672	832.253	633.734
337.402	16.770	831.463	633.443
338.416	16.707	830.830	632.668
339.431	16.799	830.349	632.589
340.446	16.737	829.911	631.969
341.460	16.791	829.348	631.683
342.475	16.954	828.554	631.629
343.489	17.046	827.881	631.404
344.504	17.066	827.456	631.097
345.519	17.053	827.020	630.663
346.533	17.235	825.908	630.433
347.548	17.232	825.748	630.244
348.562	16.977	825.797	629.280
349.577	16.929	825.138	628.546
350.592	16.791	824.589	627.559
351.606	16.852	824.031	627.305
352.621	16.736	823.807	626.650
353.635	16.923	823.049	626.708
354.650	16.896	822.624	626.232
355.665	16.927	822.175	625.946
356.679	16.894	821.945	625.597
357.694	16.995	821.435	625.524
358.708	16.991	820.862	625.019
359.723	17.016	819.965	624.373
360.738	16.928	819.444	623.596
361.752	17.012	819.283	623.726
362.767	17.153	818.662	623.718
363.781	17.067	818.279	623.054
364.796	17.145	818.021	623.088
365.810	17.147	817.570	622.698
366.825	17.293	817.063	622.791
367.840	17.309	816.771	622.573
368.854	17.390	816.378	622.513
369.869	17.325	815.997	621.931
370.883	17.244	815.336	621.075
371.898	17.261	814.442	620.402
372.913	17.298	813.661	619.887
373.927	17.404	813.242	619.899
374.942	17.308	813.063	619.357
375.956	17.366	811.795	618.548
376.971	17.407	811.426	618.361
377.986	17.532	811.322	618.683
379.000	17.588	810.313	618.061
380.015	17.447	810.209	617.415
381.029	17.622	809.448	617.414
382.044	17.499	809.004	616.576
383.059	17.556	808.372	616.247
384.073	17.615	807.865	616.020
385.088	17.625	807.240	615.523
386.102	17.530	806.897	614.865
387.117	17.437	806.270	613.998
388.132	17.426	805.540	613.348
389.146	17.381	805.512	613.110
390.161	17.416	805.056	612.834
391.175	17.561	804.532	612.901
392.190	17.628	804.287	612.903
393.205	17.575	803.715	612.222
394.219	17.463	803.412	611.533
395.234	17.542	802.716	611.235
396.248	17.542	802.266	610.838
397.263	17.562	801.795	610.496
398.278	17.379	801.544	609.597
399.292	17.557	800.547	609.420
400.307	17.433	800.492	608.880
401.321	17.421	799.988	608.399
402.336	17.695	799.612	609.039
403.350	17.617	799.354	608.512
404.365	17.584	799.059	608.116
405.380	17.646	798.327	607.725
406.394	17.654	798.062	607.499
407.409	17.977	797.289	608.005
408.423	17.768	797.313	607.226
409.438	17.923	796.481	607.089
410.453	18.009	796.286	607.195
411.467	18.025	795.624	606.693
412.482	18.035	795.555	606.620
413.496	18.025	794.795	605.954
414.511	18.092	794.407	605.841
415.526	18.275	793.945	606.081
416.540	18.035	793.653	604.955
417.555	18.065	793.482	604.879
418.569	18.019	792.828	604.164
419.584	18.143	792.075	603.976
420.599	18.115	791.843	603.644
421.613	153.595	1368.734	1791.926
422.628	132.839	1452.804	1792.055
