DTS Sentinel unit serial number:	SN413079Multiplexer serial number:	ORYXHardware model number:	OX4-SRSoftware version number:	ORYX F/W v4.00 Oryx Data Collector v3.7.2.0data status	okinstallation	princeton_trtdifferential loss correction	single-endedforward channel	channel 3reverse channel	N/Adate	2019/09/12time	19:05:04forward acquisition time	15.00reverse acquisition time	0.00gamma	496.2192k internal	0.2319k external	0.2319temperature offset calibration	1.0092default loss term (dB/km)	0.3790temperature slope calibration	1.0000multiplexer offset coefficient	1.0000multiplexer slope coefficient	1.0000fibre end	0.00T internal ref (°C)	32.69T ext. ref 1 (°C)	3.06T ext. ref 2 (°C)	27.21length (m)	temperature (°C)	Stokes	anti-Stokes-747.200	183.233	0.203	-0.303
-746.185	128.381	0.205	0.264
-745.171	-85.702	0.837	0.263
-744.156	44.890	-0.577	0.538
-743.142	178.541	-0.197	0.291
-742.127	-80.474	-0.027	0.009
-741.112	-87.158	0.288	-0.088
-740.098	316.642	-0.157	0.300
-739.083	91.535	0.469	0.533
-738.069	195.780	0.513	0.789
-737.054	-129.438	0.679	0.095
-736.039	-89.255	0.879	0.262
-735.025	70.087	0.312	0.326
-734.010	800.000	-0.055	0.170
-732.996	-186.242	-0.908	-0.013
-731.981	72.170	0.272	-0.286
-730.966	-200.000	-0.059	-0.618
-729.952	-28.107	-0.527	-0.308
-728.937	-83.017	0.365	-0.119
-727.923	76.880	0.210	0.226
-726.908	27.756	-0.331	0.282
-725.894	218.721	0.376	-0.607
-724.879	417.241	-0.208	-0.449
-723.864	153.218	0.287	0.397
-722.850	-44.322	0.392	0.198
-721.835	217.427	0.374	-0.602
-720.821	430.747	-0.204	-0.446
-719.806	107.473	0.204	0.245
-718.791	492.996	-0.263	-0.610
-717.777	-95.576	-0.561	-0.152
-716.762	-97.812	0.909	-0.237
-715.748	-104.614	-0.595	-0.139
-714.733	-150.314	-0.771	-0.060
-713.718	164.003	0.171	0.244
-712.704	-61.912	-0.560	0.237
-711.689	185.998	0.169	0.254
-710.675	-200.000	0.000	-0.111
-709.660	800.000	0.010	0.043
-708.645	-200.000	-0.142	-0.932
-707.631	-94.253	-0.252	-0.069
-706.616	622.784	0.095	-0.242
-705.602	-41.319	0.279	0.145
-704.587	-200.000	0.009	0.288
-703.572	-200.000	0.012	-0.265
-702.558	134.025	-0.098	0.128
-701.543	20.971	-0.242	0.198
-700.529	222.622	-0.284	0.462
-699.514	375.024	0.415	-0.855
-698.499	-200.000	0.027	0.132
-697.485	-200.000	-0.102	-0.900
-696.470	728.682	0.136	-0.367
-695.456	130.828	-0.386	-0.500
-694.441	-68.226	-0.395	-0.155
-693.426	800.000	-0.326	-1.220
-692.412	800.000	-0.457	-1.320
-691.397	11.354	0.586	0.453
-690.383	752.379	-0.078	-0.213
-689.368	800.000	0.241	-0.812
-688.354	307.548	-0.353	-0.664
-687.339	800.000	-0.077	-0.234
-686.324	-200.000	0.015	-0.078
-685.310	-14.466	0.566	-0.367
-684.295	-26.660	-0.375	0.221
-683.281	381.308	-0.221	-0.457
-682.266	327.003	-0.070	0.134
-681.251	-60.813	0.546	-0.233
-680.237	-98.749	0.291	0.075
-679.222	800.000	0.144	-0.470
-678.208	117.265	0.080	-0.099
-677.193	-200.000	-0.078	-0.459
-676.178	207.219	0.177	-0.279
-675.164	57.881	0.335	0.331
-674.149	120.836	-0.188	-0.236
-673.135	675.457	0.308	-0.806
-672.120	6.104	0.536	-0.401
-671.105	116.832	0.169	-0.210
-670.091	-92.564	0.210	0.060
-669.076	-157.464	0.460	0.028
-668.062	144.101	-0.270	0.363
-667.047	83.483	0.313	0.344
-666.032	98.320	0.201	0.234
-665.018	-200.000	-0.029	0.234
-664.003	800.000	0.189	-0.658
-662.989	82.371	0.393	0.430
-661.974	467.136	-0.239	0.540
-660.959	236.175	-0.371	-0.619
-659.945	-200.000	-0.062	-0.549
-658.930	-35.226	0.322	0.177
-657.916	796.979	0.278	0.771
-656.901	-34.414	-0.492	0.272
-655.886	564.708	-0.638	1.558
-654.872	-200.000	0.078	-0.548
-653.857	527.780	0.138	-0.327
-652.843	-155.123	-0.960	-0.063
-651.828	107.993	0.127	-0.153
-650.814	-0.691	0.580	-0.415
-649.799	-200.000	0.025	-0.822
-648.784	-108.588	0.035	-0.008
-647.770	-71.641	0.042	-0.016
-646.755	54.523	0.729	-0.708
-645.741	-103.431	0.540	-0.128
-644.726	800.000	0.295	-0.842
-643.711	-200.000	-0.015	0.109
-642.697	64.232	0.488	0.495
-641.682	115.698	-0.517	0.636
-640.668	-200.000	-0.097	-0.702
-639.653	-0.899	0.127	-0.091
-638.638	316.150	-0.497	-0.946
-637.624	-159.625	-0.820	-0.046
-636.609	-173.164	-0.464	-0.014
-635.595	-89.610	0.446	0.132
-634.580	-100.103	0.894	-0.224
-633.565	-200.000	-0.173	0.804
-632.551	211.281	-0.415	-0.658
-631.536	800.000	-0.191	0.705
-630.522	-75.987	-0.545	0.194
-629.507	-200.000	-0.090	0.870
-628.492	-94.015	-0.445	0.123
-627.478	-124.613	-0.696	-0.109
-626.463	-86.579	-0.358	0.110
-625.449	65.105	0.589	-0.599
-624.434	2.453	0.208	0.151
-623.419	177.944	-0.282	-0.415
-622.405	-82.948	-0.662	0.215
-621.390	-58.939	-0.287	-0.125
-620.376	-162.893	-0.422	0.021
-619.361	-112.290	-0.853	0.172
-618.346	-47.554	0.481	0.235
-617.332	800.000	0.149	-0.516
-616.317	72.491	0.093	-0.097
-615.303	-200.000	-0.063	0.382
-614.288	-158.120	0.392	0.023
-613.273	-200.000	0.023	0.172
-612.259	166.117	0.328	0.468
-611.244	454.386	-0.252	-0.563
-610.230	-3.412	0.138	0.097
-609.215	-166.023	0.339	0.015
-608.201	405.196	-0.066	-0.140
-607.186	-130.790	-0.994	0.134
-606.171	-196.259	0.158	-0.001
-605.157	-35.260	-0.785	-0.430
-604.142	-200.000	-0.040	-0.274
-603.128	-110.440	0.923	0.193
-602.113	-200.000	-0.084	0.406
-601.098	-200.000	-0.018	-0.699
-600.084	481.663	0.073	0.167
-599.069	-137.863	-0.479	0.054
-598.055	-13.374	0.364	0.237
-597.040	-200.000	-0.043	0.211
-596.025	424.017	-0.171	-0.371
-595.011	32.452	0.219	-0.190
-593.996	784.558	0.228	0.627
-592.982	-42.345	-0.649	0.333
-591.967	-75.913	-0.365	0.130
-590.952	-81.387	0.416	0.138
-589.938	58.602	0.402	0.397
-588.923	-97.501	0.328	0.086
-587.909	30.056	0.420	-0.360
-586.894	-71.191	0.922	-0.348
-585.879	800.000	0.103	-0.452
-584.865	551.653	0.306	0.738
-583.850	-31.277	0.090	-0.051
-582.836	40.676	0.720	-0.652
-581.821	-17.430	0.416	-0.263
-580.806	-181.539	-0.408	0.008
-579.792	166.008	0.146	-0.208
-578.777	213.531	0.116	-0.184
-577.763	13.162	0.141	0.110
-576.748	-50.555	0.672	0.319
-575.733	354.863	-0.269	-0.538
-574.719	-200.000	0.001	-0.611
-573.704	-75.613	0.586	-0.209
-572.690	172.704	0.237	-0.344
-571.675	-76.834	-1.009	-0.355
-570.661	-200.000	0.113	-0.636
-569.646	800.000	0.127	-0.430
-568.631	197.725	0.260	0.398
-567.617	-200.000	0.061	0.758
-566.602	-200.000	0.060	0.799
-565.588	-200.000	0.071	0.368
-564.573	-55.398	-0.476	0.215
-563.558	735.755	-0.118	0.318
-562.544	657.195	0.057	-0.147
-561.529	-35.114	-0.732	-0.400
-560.515	800.000	-0.156	0.556
-559.500	505.833	0.057	-0.133
-558.485	-136.143	-0.338	-0.040
-557.471	-168.191	0.539	0.021
-556.456	124.487	-0.355	0.449
-555.442	800.000	0.124	-0.360
-554.427	-200.000	-0.028	-0.631
-553.412	-71.071	-0.774	-0.292
-552.398	1.803	0.322	0.233
-551.383	54.298	0.313	0.303
-550.369	-200.000	-0.067	-0.376
-549.354	34.752	-0.783	-0.687
-548.339	-12.878	-0.993	-0.649
-547.325	-64.663	-0.646	-0.263
-546.310	-13.631	0.154	0.100
-545.296	-46.653	0.569	0.280
-544.281	-200.000	0.014	-0.299
-543.266	800.000	0.261	-0.832
-542.252	75.857	-0.286	0.303
-541.237	656.841	0.238	0.614
-540.223	-107.264	0.116	-0.026
-539.208	-65.161	-0.476	0.193
-538.193	-200.000	0.075	-1.109
-537.179	61.572	0.112	-0.111
-536.164	-121.810	0.237	-0.039
-535.150	138.697	-0.224	0.296
-534.135	346.743	-0.216	0.427
-533.121	-146.823	-0.221	0.019
-532.106	280.228	0.285	0.510
-531.091	-200.000	-0.036	-0.580
-530.077	-70.600	0.340	0.129
-529.062	-99.044	0.812	0.207
-528.048	800.000	-0.143	0.479
-527.033	381.261	-0.163	-0.335
-526.018	150.916	0.433	0.591
-525.004	-200.000	0.087	-0.570
-523.989	-200.000	-0.137	-0.787
-522.975	-113.472	-0.486	-0.095
-521.960	-53.977	0.246	0.112
-520.945	392.550	0.400	0.834
-519.931	-200.000	0.006	-0.053
-518.916	800.000	-0.196	0.575
-517.902	132.101	0.057	-0.073
-516.887	-200.000	0.117	-0.931
-515.872	-64.345	0.690	0.281
-514.858	85.041	0.339	0.372
-513.843	513.363	0.153	-0.358
-512.829	-67.827	0.395	0.155
-511.814	-200.000	0.002	-0.930
-510.799	622.616	0.109	-0.275
-509.785	-200.000	0.131	-1.008
-508.770	520.049	-0.380	0.892
-507.756	34.074	-0.497	-0.434
-506.741	160.404	-0.346	0.483
-505.726	779.445	0.131	0.358
-504.712	273.109	0.081	0.144
-503.697	-200.000	-0.037	0.319
-502.683	374.551	0.215	-0.438
-501.668	323.274	-0.114	-0.219
-500.653	800.000	0.114	0.413
-499.639	682.186	0.070	-0.182
-498.624	-74.760	0.047	-0.017
-497.610	800.000	-0.121	0.369
-496.595	-200.000	-0.026	0.316
-495.581	738.948	-0.153	0.412
-494.566	405.614	0.258	0.544
-493.551	-12.472	-0.138	-0.090
-492.537	-56.602	0.655	-0.291
-491.522	87.315	-0.221	-0.245
-490.508	-92.996	0.389	0.109
-489.493	-20.548	0.833	0.513
-488.478	-200.000	0.017	-0.205
-487.464	-126.745	-0.608	-0.090
-486.449	-25.719	0.456	0.270
-485.435	-200.000	-0.104	-0.683
-484.420	-200.000	0.183	-0.909
-483.405	65.126	-0.196	0.198
-482.391	27.562	-0.462	0.389
-481.376	93.609	-0.510	0.578
-480.362	-67.132	-0.350	0.138
-479.347	-200.000	0.040	0.620
-478.332	113.152	-0.205	0.249
-477.318	5.324	0.305	-0.225
-476.303	154.434	0.338	-0.465
-475.289	800.000	-0.187	-0.749
-474.274	-200.000	0.107	0.849
-473.259	25.017	0.373	-0.310
-472.245	800.000	-0.188	0.534
-471.230	-61.412	0.370	-0.156
-470.216	-2.911	0.129	-0.090
-469.201	54.432	-0.792	-0.764
-468.186	-200.000	0.048	0.705
-467.172	800.000	-0.138	0.427
-466.157	797.140	0.185	0.511
-465.143	-200.000	0.011	-0.366
-464.128	-50.077	0.334	0.158
-463.113	122.935	0.281	0.352
-462.099	36.626	0.419	-0.370
-461.084	-115.557	0.382	0.072
-460.070	-200.000	0.006	0.361
-459.055	-28.011	-0.535	-0.310
-458.040	-57.540	-0.162	-0.071
-457.026	800.000	0.188	-0.551
-456.011	7.734	-0.184	0.138
-454.997	69.261	0.402	-0.414
-453.982	508.132	-0.214	-0.496
-452.968	-88.938	0.179	-0.053
-451.953	150.392	0.203	0.275
-450.938	-122.205	0.071	-0.012
-449.924	-81.231	0.410	0.135
-448.909	800.000	0.221	-0.807
-447.895	-200.000	0.014	0.201
-446.880	-188.021	0.473	0.006
-445.865	-200.000	0.017	0.214
-444.851	8.912	0.552	-0.417
-443.836	-25.120	0.221	-0.131
-442.822	-20.798	0.165	0.101
-441.807	352.854	-0.486	0.964
-440.792	0.799	-0.567	0.406
-439.778	295.294	-0.409	-0.749
-438.763	-104.638	0.831	-0.191
-437.749	-200.000	-0.025	0.363
-436.734	15.457	-0.269	-0.211
-435.719	800.000	0.259	-0.926
-434.705	-200.000	-0.070	0.636
-433.690	101.679	0.205	0.238
-432.676	14.997	0.114	-0.089
-431.661	403.115	-0.410	-0.861
-430.646	25.391	0.277	-0.230
-429.632	146.551	0.431	-0.579
-428.617	265.527	0.323	-0.563
-427.603	68.895	-0.356	-0.365
-426.588	800.000	0.024	0.087
-425.573	-200.000	0.048	-0.264
-424.559	101.411	0.402	0.468
-423.544	555.783	0.142	-0.340
-422.530	-200.000	0.074	0.754
-421.515	-200.000	0.021	-0.378
-420.500	-86.620	-0.812	-0.248
-419.486	74.485	0.330	0.347
-418.471	-200.000	-0.041	-0.454
-417.457	-21.371	0.404	-0.246
-416.442	545.459	0.095	-0.227
-415.428	-50.933	-0.281	-0.132
-414.413	800.000	0.253	-0.766
-413.398	-31.190	-0.437	0.246
-412.384	-200.000	0.073	0.381
-411.369	-137.926	-0.500	-0.056
-410.355	-200.000	0.017	0.471
-409.340	636.310	-0.180	-0.455
-408.325	-5.045	0.427	0.293
-407.311	368.101	0.334	-0.674
-406.296	-200.000	-0.061	0.442
-405.282	95.523	0.308	0.351
-404.267	-200.000	0.036	-0.295
-403.252	-200.000	0.110	0.512
-402.238	-200.000	-0.008	0.210
-401.223	38.556	0.250	-0.223
-400.209	59.738	-0.236	0.233
-399.194	-94.215	0.661	0.181
-398.179	303.744	0.399	-0.738
-397.165	-43.105	-0.658	0.333
-396.150	245.157	0.097	-0.162
-395.136	-110.869	-0.783	-0.161
-394.121	28.873	-0.362	-0.306
-393.106	10.362	0.477	-0.362
-392.092	16.845	0.397	-0.314
-391.077	50.177	0.323	0.304
-390.063	-79.043	0.610	-0.207
-389.048	24.893	0.334	0.276
-388.033	40.801	0.350	0.315
-387.019	11.799	-0.228	-0.174
-386.004	85.755	0.300	0.329
-384.990	-118.015	-0.758	-0.135
-383.975	-200.000	-0.020	-0.630
-382.960	-80.063	0.283	0.095
-381.946	-200.000	-0.010	-0.711
-380.931	-58.810	0.614	0.265
-379.917	421.575	-0.108	0.230
-378.902	-188.141	0.724	0.009
-377.888	-200.000	-0.069	-0.616
-376.873	-178.361	-0.453	-0.011
-375.858	-200.000	-0.028	-0.411
-374.844	286.199	0.144	0.260
-373.829	-200.000	-0.024	0.415
-372.815	148.496	-0.146	0.197
-371.800	800.000	-0.157	0.647
-370.785	800.000	0.141	0.453
-369.771	-153.311	0.479	0.033
-368.756	-21.743	0.300	-0.182
-367.742	286.199	0.273	0.491
-366.727	-9.105	-0.186	-0.124
-365.712	-107.644	0.289	0.063
-364.698	-79.223	0.678	-0.229
-363.683	447.475	0.021	-0.047
-362.669	-173.087	-0.710	-0.022
-361.654	800.000	0.089	0.388
-360.639	-167.275	-1.399	0.056
-359.625	-200.000	0.033	-0.409
-358.610	-99.297	-0.136	-0.034
-357.596	-23.085	-0.183	-0.110
-356.581	-55.398	-0.312	-0.139
-355.566	-72.377	-0.661	0.244
-354.552	784.175	-0.048	-0.132
-353.537	800.000	0.053	0.170
-352.523	-31.587	-0.525	0.294
-351.508	15.819	0.401	-0.315
-350.493	364.935	-0.154	0.308
-349.479	-82.071	-0.557	0.181
-348.464	-111.264	0.945	0.192
-347.450	-149.841	0.276	0.022
-346.435	117.404	0.113	0.138
-345.420	593.635	0.310	0.762
-344.406	393.002	-0.290	0.602
-343.391	148.370	-0.493	-0.663
-342.377	63.165	0.649	0.647
-341.362	112.960	-0.404	-0.487
-340.348	-32.043	0.168	-0.094
-339.333	-200.000	0.027	0.914
-338.318	2.599	0.578	0.417
-337.304	-5.742	0.405	0.276
-336.289	387.815	-0.316	0.650
-335.275	-98.175	-0.447	0.114
-334.260	271.122	0.394	-0.691
-333.245	-200.000	0.029	0.525
-332.231	-63.568	-0.349	0.143
-331.216	-200.000	-0.056	0.386
-330.202	287.655	-0.520	0.936
-329.187	-22.089	-0.346	0.209
-328.172	-147.684	-0.130	0.011
-327.158	325.023	0.332	-0.632
-326.143	-89.654	-0.458	-0.134
-325.129	-22.685	0.240	-0.144
-324.114	-19.066	0.498	0.308
-323.099	-110.891	-0.374	0.077
-322.085	-200.000	-0.050	0.295
-321.070	-88.598	-0.938	-0.278
-320.056	82.769	-0.172	-0.186
-319.041	355.009	-0.053	0.104
-318.026	-104.445	0.623	-0.143
-317.012	800.000	-0.175	0.669
-315.997	435.624	0.155	-0.336
-314.983	178.009	-0.215	0.313
-313.968	-179.520	-0.709	-0.015
-312.953	137.937	-0.313	0.407
-311.939	-21.220	-0.253	-0.154
-310.924	-66.294	-0.481	-0.190
-309.910	-85.541	0.945	-0.292
-308.895	114.643	0.256	-0.311
-307.880	88.225	-0.267	-0.295
-306.866	-78.801	-0.551	0.187
-305.851	101.142	-0.485	-0.561
-304.837	-100.083	0.678	0.168
-303.822	-29.523	-0.756	0.430
-302.807	-60.594	-0.665	0.281
-301.793	399.525	-0.305	0.635
-300.778	285.020	-0.129	0.232
-299.764	-54.196	-0.718	0.324
-298.749	333.097	0.345	-0.662
-297.735	-7.569	0.534	-0.359
-296.720	-76.535	-0.556	0.194
-295.705	165.595	-0.571	0.802
-294.691	-90.928	-0.271	0.077
-293.676	293.862	0.364	-0.660
-292.662	800.000	0.255	0.934
-291.647	-200.000	0.039	0.348
-290.632	-167.838	-0.726	0.028
-289.618	-33.806	-0.642	0.352
-288.603	-110.051	0.391	-0.081
-287.589	-200.000	0.033	0.195
-286.574	72.897	-0.600	0.623
-285.559	-200.000	-0.049	-0.318
-284.545	77.819	-0.363	-0.384
-283.530	248.955	0.248	-0.417
-282.516	-200.000	-0.110	-0.841
-281.501	71.544	0.317	-0.327
-280.486	-88.659	-0.314	0.093
-279.472	0.245	-0.779	0.552
-278.457	-18.268	-0.430	0.267
-277.443	-97.796	-0.259	0.067
-276.428	800.000	0.109	0.324
-275.413	-16.954	-0.333	0.209
-274.399	115.423	0.300	0.364
-273.384	-200.000	0.128	-0.952
-272.370	-152.860	-0.357	-0.025
-271.355	331.200	0.084	0.161
-270.340	-50.114	0.358	0.168
-269.326	-200.000	0.032	0.180
-268.311	-118.174	1.001	-0.177
-267.297	58.332	-0.316	0.308
-266.282	53.331	-0.590	-0.562
-265.267	44.408	-0.374	0.341
-264.253	-87.888	0.937	0.280
-263.238	236.232	0.304	0.499
-262.224	-200.000	-0.084	0.677
-261.209	-88.239	0.683	0.203
-260.195	-200.000	0.044	-0.303
-259.180	73.339	0.469	0.487
-258.165	-200.000	0.002	0.519
-257.151	800.000	-0.237	-0.754
-256.136	121.098	0.160	-0.198
-255.122	-200.000	-0.018	-0.177
-254.107	800.000	-0.142	0.425
-253.092	63.274	0.495	-0.493
-252.078	800.000	-0.087	-0.285
-251.063	-93.852	0.831	-0.227
-250.049	-121.242	0.048	0.008
-249.034	61.858	0.424	0.419
-248.019	397.800	-0.145	0.301
-247.005	19.272	-0.579	0.461
-245.990	525.141	0.320	0.748
-244.976	112.934	-0.065	-0.078
-243.961	800.000	0.265	-0.881
-242.946	222.979	0.408	-0.652
-241.932	-73.419	0.232	0.084
-240.917	-200.000	-0.015	0.565
-239.903	-110.680	0.269	0.055
-238.888	-117.215	0.506	0.091
-237.873	162.371	-0.130	-0.181
-236.859	63.167	0.635	-0.631
-235.844	229.684	-0.357	-0.578
-234.830	-45.587	-0.452	-0.222
-233.815	138.732	0.775	1.009
-232.800	48.168	0.424	-0.393
-231.786	800.000	-0.138	0.431
-230.771	71.255	-0.346	-0.356
-229.757	15.982	-0.788	-0.615
-228.742	115.835	0.586	-0.711
-227.727	251.150	-0.103	0.174
-226.713	16.172	0.665	-0.520
-225.698	298.150	0.479	-0.873
-224.684	82.902	-0.586	-0.632
-223.669	800.000	0.117	0.351
-222.655	345.266	-0.307	0.597
-221.640	-149.641	0.189	-0.015
-220.625	226.851	-0.220	-0.354
-219.611	97.030	-0.155	0.177
-218.596	3.141	-0.537	0.387
-217.582	217.849	0.108	-0.171
-216.567	-47.487	-0.604	-0.291
-215.552	-200.000	-0.051	0.656
-214.538	56.384	0.564	-0.543
-213.523	-200.000	-0.081	-0.417
-212.509	-77.954	0.654	-0.223
-211.494	-98.935	0.246	-0.062
-210.479	-28.817	-0.468	0.266
-209.465	361.828	0.123	-0.244
-208.450	-86.659	0.666	-0.202
-207.436	-177.571	0.147	0.004
-206.421	170.938	-0.318	0.451
-205.406	289.762	0.286	0.515
-204.392	-56.946	0.398	-0.174
-203.377	259.154	0.228	-0.390
-202.363	-45.067	-0.727	0.358
-201.348	111.730	0.289	-0.345
-200.333	37.324	-0.423	0.371
-199.319	-200.000	-0.133	0.712
-198.304	-200.000	-0.065	0.334
-197.290	219.677	-0.296	0.470
-196.275	-89.002	-1.007	0.295
-195.260	83.690	-0.228	-0.246
-194.246	-8.933	0.390	0.259
-193.231	-41.552	-0.222	-0.113
-192.217	-44.221	-0.165	-0.082
-191.202	800.000	-0.065	0.195
-190.187	-1.746	-0.254	0.177
-189.173	-46.759	0.289	0.140
-188.158	-200.000	-0.051	-0.580
-187.144	141.853	-0.198	-0.259
-186.129	800.000	-0.160	-0.657
-185.114	50.182	-0.221	0.206
-184.100	800.000	-0.092	-0.256
-183.085	223.197	-0.025	0.040
-182.071	12.172	0.362	0.275
-181.056	-136.595	0.118	-0.014
-180.042	800.000	0.083	0.271
-179.027	-38.523	-0.200	-0.105
-178.012	-44.683	0.349	-0.173
-176.998	-77.857	0.505	-0.173
-175.983	72.788	0.120	-0.124
-174.969	-63.539	-0.766	-0.311
-173.954	-60.727	-0.220	-0.092
-172.939	126.116	-0.584	0.730
-171.925	-51.303	-0.192	0.089
-170.910	80.522	0.430	-0.458
-169.896	-114.840	-0.376	-0.071
-168.881	-108.677	-0.307	-0.065
-167.866	532.998	-0.377	0.882
-166.852	-11.290	-0.141	0.092
-165.837	-200.000	0.015	-0.166
-164.823	-100.930	-0.107	0.026
-163.808	-113.895	-0.542	0.104
-162.793	355.786	0.394	-0.775
-161.779	85.439	-0.037	-0.040
-160.764	-17.554	0.385	0.239
-159.750	223.564	0.459	0.732
-158.735	40.633	-0.438	0.390
-157.720	615.039	0.180	-0.447
-156.706	-80.622	-0.458	-0.151
-155.691	336.410	-0.038	0.073
-154.677	-173.558	0.782	-0.023
-153.662	-120.079	-0.463	0.078
-152.647	-200.000	-0.137	0.678
-151.633	521.927	0.068	-0.158
-150.618	800.000	-0.124	-0.479
-149.604	-58.472	1.293	-0.555
-148.589	800.000	0.246	-1.019
-147.574	45.532	-0.041	-0.038
-146.560	-200.000	-0.036	-0.221
-145.545	100.491	0.383	-0.440
-144.531	211.228	0.451	-0.701
-143.516	-200.000	-0.230	1.042
-142.502	104.676	0.072	-0.084
-141.487	-200.000	0.054	-0.441
-140.472	-142.801	0.593	0.057
-139.458	433.839	-0.143	0.307
-138.443	-16.398	-0.812	0.509
-137.429	-200.000	0.103	0.666
-136.414	55.235	-0.793	-0.757
-135.399	800.000	-0.228	0.875
-134.385	-142.530	0.630	-0.061
-133.370	736.926	-0.489	-1.294
-132.356	168.160	0.112	0.157
-131.341	-200.000	0.064	0.300
-130.326	-20.307	0.336	-0.204
-129.312	-200.000	0.015	0.367
-128.297	398.507	0.276	0.571
-127.283	-200.000	-0.026	0.438
-126.268	107.751	-0.249	0.293
-125.253	-200.000	-0.043	-0.292
-124.239	58.366	-0.834	-0.807
-123.224	203.750	-0.187	0.286
-122.210	100.944	-0.023	-0.027
-121.195	-200.000	0.074	0.418
-120.180	11.263	0.418	0.316
-119.166	-124.764	0.718	-0.110
-118.151	-118.427	-0.733	-0.128
-117.137	-183.881	0.494	0.008
-116.122	-27.033	-0.276	0.159
-115.107	-131.607	0.616	-0.080
-114.093	-20.788	-0.376	-0.227
-113.078	585.977	0.396	0.961
-112.064	-200.000	0.037	0.675
-111.049	241.085	-0.268	0.442
-110.034	-88.918	0.145	0.042
-109.020	-200.000	0.076	-0.347
-108.005	-140.869	0.752	0.076
-106.991	-181.525	-0.583	-0.011
-105.976	-65.166	0.240	-0.096
-104.962	-94.594	0.347	-0.093
-103.947	349.787	0.379	-0.739
-102.932	-103.612	0.249	-0.058
-101.918	494.369	-0.192	0.434
-100.903	-200.000	-0.026	0.333
-99.889	29.689	0.498	-0.418
-98.874	577.585	0.276	-0.664
-97.859	384.184	0.132	-0.269
-96.845	800.000	0.081	0.324
-95.830	-28.293	-0.546	0.311
-94.816	800.000	-0.140	0.546
-93.801	1.715	-0.037	-0.026
-92.786	-200.000	0.001	0.059
-91.772	800.000	-0.237	0.661
-90.757	800.000	-0.417	-1.140
-89.743	56.651	0.334	-0.320
-88.728	-25.506	0.604	0.352
-87.713	80.031	0.188	-0.199
-86.699	-200.000	-0.095	-0.648
-85.684	-200.000	-0.006	0.354
-84.670	172.456	0.643	0.912
-83.655	-68.334	-0.593	-0.227
-82.640	184.464	0.549	-0.802
-81.626	41.537	0.386	0.344
-80.611	-74.622	0.779	0.276
-79.597	391.914	0.217	-0.444
-78.582	308.221	-0.212	0.390
-77.567	-121.598	0.440	0.072
-76.553	-200.000	0.083	-0.498
-75.538	-108.833	-0.299	0.063
-74.524	296.925	0.253	-0.457
-73.509	-200.000	0.039	0.737
-72.494	-82.818	-0.208	0.066
-71.480	260.858	-0.494	0.841
-70.465	-86.146	0.296	0.090
-69.451	-200.000	0.142	0.750
-68.436	-200.000	-0.013	-0.558
-67.422	451.217	-0.273	-0.594
-66.407	147.754	0.317	-0.421
-65.392	-81.174	-0.448	0.146
-64.378	800.000	0.203	-0.598
-63.363	-146.881	0.261	-0.022
-62.349	-119.690	-0.632	0.107
-61.334	-45.330	-1.608	-0.786
-60.319	-49.602	0.237	0.111
-59.305	477.216	-0.387	-0.863
-58.290	121.426	0.734	0.900
-57.276	800.000	0.390	1.387
-56.261	-200.000	95.870	587.073
-55.246	669.676	1356.676	3457.801
-54.232	203.996	2517.608	3838.959
-53.217	118.278	2142.219	2601.146
-52.203	43.239	1694.919	1523.541
-51.188	35.573	1509.981	1305.405
-50.173	33.618	1483.164	1269.102
-49.159	53.829	1533.719	1450.307
-48.144	54.363	1552.002	1471.171
-47.130	35.909	1511.372	1308.689
-46.115	32.798	1497.691	1275.793
-45.100	32.650	1494.677	1272.170
-44.086	32.764	1491.244	1269.968
-43.071	32.906	1488.383	1268.435
-42.057	32.435	1487.825	1264.748
-41.042	32.747	1485.827	1265.090
-40.027	32.566	1485.301	1263.376
-39.013	32.253	1485.113	1261.071
-37.998	32.556	1482.735	1261.027
-36.984	32.995	1480.025	1261.608
-35.969	32.755	1479.301	1259.338
-34.954	32.795	1477.852	1258.320
-33.940	32.745	1476.815	1257.055
-32.925	32.742	1475.826	1256.144
-31.911	32.746	1474.092	1254.644
-30.896	32.887	1472.132	1253.862
-29.881	32.823	1471.705	1253.027
-28.867	32.729	1469.308	1250.307
-27.852	32.552	1469.761	1249.469
-26.838	32.903	1466.416	1248.900
-25.823	32.574	1465.731	1246.095
-24.809	32.726	1464.145	1245.698
-23.794	32.754	1463.314	1245.129
-22.779	32.665	1461.667	1243.088
-21.765	32.609	1460.524	1241.701
-20.750	32.698	1459.365	1241.253
-19.736	32.721	1459.013	1241.052
-18.721	32.860	1457.303	1240.462
-17.706	32.830	1455.061	1238.312
-16.692	32.588	1454.797	1236.444
-15.677	32.667	1453.976	1236.220
-14.663	32.792	1453.100	1236.241
-13.648	32.545	1452.048	1233.679
-12.633	32.861	1451.277	1235.045
-11.619	32.834	1449.385	1233.211
-10.604	32.611	1449.365	1231.685
-9.590	32.465	1449.045	1230.414
-8.575	32.551	1447.974	1230.016
-7.560	32.714	1446.857	1230.083
-6.546	32.522	1446.408	1228.400
-5.531	32.534	1445.637	1227.772
-4.517	32.581	1443.137	1225.907
-3.502	32.763	1442.239	1226.276
-2.487	32.523	1442.531	1224.917
-1.473	32.454	1441.747	1223.755
-0.458	32.571	1439.910	1222.907
0.556	33.829	1429.651	1212.910
1.571	30.638	1405.220	1172.009
2.586	26.900	1346.825	1100.584
3.600	25.020	1266.055	1023.757
4.615	23.593	1220.140	978.681
5.629	20.352	1163.186	915.842
6.644	11.240	1078.642	804.423
7.659	4.283	1037.967	740.886
8.673	3.187	1032.434	731.664
9.688	3.072	1028.765	728.454
10.702	2.856	1025.975	725.390
11.717	3.125	1024.994	725.902
12.731	5.797	1029.543	741.710
13.746	14.906	1040.906	793.224
14.761	22.649	1050.827	837.644
15.775	24.450	1052.478	847.447
16.790	24.297	1051.387	845.765
17.804	24.146	1050.302	844.104
18.819	23.914	1049.407	842.210
19.834	23.853	1048.287	840.950
20.848	23.803	1048.743	841.003
21.863	23.866	1048.484	841.020
22.877	23.816	1047.900	840.238
23.892	23.855	1045.967	838.799
24.907	23.882	1045.742	838.674
25.921	23.873	1044.379	837.465
26.936	23.778	1043.870	836.533
27.950	23.663	1042.607	834.904
28.965	23.658	1041.197	833.680
29.980	23.631	1040.602	833.004
30.994	23.344	1040.353	831.381
32.009	23.758	1039.633	832.675
33.023	23.627	1038.204	830.842
34.038	23.812	1037.143	830.785
35.053	23.982	1035.898	830.512
36.067	23.640	1035.459	828.488
37.082	23.537	1034.735	827.356
38.096	23.631	1033.599	826.812
39.111	23.563	1034.328	827.004
40.126	23.733	1033.776	827.280
41.140	23.783	1031.313	825.471
42.155	23.700	1029.510	823.568
43.169	23.094	1029.278	820.499
44.184	22.877	1029.090	819.269
45.199	23.005	1027.466	818.500
46.213	22.844	1027.225	817.490
47.228	23.297	1025.582	818.202
48.242	23.538	1024.944	818.734
49.257	23.763	1024.339	819.214
50.271	23.834	1024.301	819.437
51.286	23.888	1023.605	819.059
52.301	23.879	1022.833	818.327
53.315	24.055	1021.214	817.767
54.330	23.827	1021.483	816.864
55.344	23.675	1020.208	815.073
56.359	23.644	1018.732	813.678
57.374	23.621	1018.159	813.046
58.388	23.634	1017.518	812.523
59.403	23.476	1017.503	811.712
60.417	23.067	1016.258	808.776
61.432	23.197	1016.039	809.128
62.447	23.248	1014.819	808.319
63.461	23.299	1013.922	807.764
64.476	23.525	1013.034	808.013
65.490	23.470	1011.433	806.416
66.505	23.160	1011.372	804.885
67.520	23.236	1010.273	804.284
68.534	23.161	1010.247	803.852
69.549	23.158	1009.138	802.885
70.563	23.132	1007.567	801.448
71.578	22.509	1008.234	799.082
72.593	22.759	1006.321	798.628
73.607	22.478	1005.558	796.677
74.622	22.410	1004.405	795.387
75.636	22.892	1003.053	796.419
76.651	23.003	1003.124	796.908
77.666	22.863	1002.403	795.634
78.680	22.819	1002.332	795.306
79.695	23.068	1000.903	795.224
80.709	23.119	999.863	794.557
81.724	23.011	1000.582	794.569
82.739	23.309	998.449	794.143
83.753	23.113	998.732	793.419
84.768	23.709	998.229	795.620
85.782	23.846	998.178	796.126
86.797	24.089	997.519	796.614
87.812	23.994	996.860	795.593
88.826	24.190	994.412	794.442
89.841	23.858	994.309	792.809
90.855	23.959	993.444	792.500
91.870	24.276	991.905	792.612
92.884	23.933	991.869	790.988
93.899	24.086	991.145	791.023
94.914	24.100	990.444	790.456
95.928	24.066	989.718	789.652
96.943	24.080	989.788	789.703
97.957	24.112	987.362	787.837
98.972	24.026	986.716	786.871
99.987	23.609	986.671	784.923
101.001	23.751	985.477	784.533
102.016	23.699	985.005	783.854
103.030	23.807	984.065	783.515
104.045	23.944	983.154	783.325
105.060	24.116	981.465	782.665
106.074	24.132	980.661	782.025
107.089	23.806	980.750	780.594
108.103	23.716	979.979	779.516
109.118	23.522	979.471	778.195
110.133	23.688	977.052	776.928
111.147	23.037	976.267	773.388
112.162	23.209	975.507	773.471
113.176	22.880	976.033	772.382
114.191	23.108	974.145	771.812
115.206	23.500	972.465	772.119
116.220	23.220	972.241	770.655
117.235	23.235	970.796	769.506
118.249	23.041	969.498	767.567
119.264	22.665	970.024	766.285
120.279	22.880	968.520	765.960
121.293	22.645	967.344	763.946
122.308	22.725	967.415	764.279
123.322	22.609	966.378	762.888
124.337	22.661	964.989	761.952
125.352	22.767	963.929	761.503
126.366	22.475	963.417	759.774
127.381	22.744	961.474	759.333
128.395	22.996	961.651	760.490
129.410	23.430	960.740	761.563
130.424	23.393	960.362	761.039
131.439	23.280	958.170	758.752
132.454	23.511	958.420	759.873
133.468	23.615	957.686	759.669
134.483	23.720	957.040	759.537
135.497	23.407	956.859	757.989
136.512	23.465	956.351	757.768
137.527	23.452	955.753	757.171
138.541	23.528	954.854	756.713
139.556	23.715	953.952	756.728
140.570	23.754	953.166	756.203
141.585	23.653	953.132	755.683
142.600	23.809	951.746	755.179
143.614	24.034	951.304	755.718
144.629	23.918	951.412	755.243
145.643	24.286	950.205	755.780
146.658	24.202	950.057	755.239
147.673	23.882	947.604	751.870
148.687	23.871	946.804	751.120
149.702	23.623	945.559	749.019
150.716	23.496	944.741	747.768
151.731	23.382	944.280	746.859
152.746	23.918	942.524	747.660
153.760	23.845	942.731	747.451
154.775	23.506	942.418	745.709
155.789	23.849	941.243	746.156
156.804	23.671	941.224	745.327
157.819	24.046	939.755	745.668
158.833	23.821	938.651	743.783
159.848	24.014	938.099	744.089
160.862	24.103	937.798	744.156
161.877	24.416	936.504	744.371
162.892	23.668	936.099	740.861
163.906	23.689	934.933	739.961
164.921	23.592	934.339	739.020
165.935	23.397	933.027	737.107
166.950	23.445	932.539	736.855
167.964	23.647	931.385	736.718
168.979	23.587	930.742	735.895
169.994	23.484	929.230	734.209
171.008	23.571	927.662	733.263
172.023	23.458	928.416	733.327
173.037	23.911	927.096	734.087
174.052	24.042	926.385	734.002
175.067	23.946	925.317	732.697
176.081	23.380	925.162	730.175
177.096	23.350	923.750	728.873
178.110	23.296	922.849	727.876
179.125	23.224	921.817	726.703
180.140	23.414	919.903	725.910
181.154	23.248	920.179	725.379
182.169	23.419	919.773	725.696
183.183	23.619	920.276	726.849
184.198	24.035	919.096	727.554
185.213	23.817	918.669	726.260
186.227	24.163	916.320	725.747
187.242	23.728	916.884	724.358
188.256	24.005	916.472	725.098
189.271	24.225	915.528	725.182
190.286	23.891	915.644	723.849
191.300	23.783	914.666	722.572
192.315	22.957	913.164	717.970
193.329	23.065	911.789	717.263
194.344	22.777	911.380	715.710
195.359	23.332	911.385	717.898
196.373	23.927	911.044	719.977
197.388	23.789	909.970	718.504
198.402	24.448	909.166	720.471
199.417	24.200	909.822	719.923
200.432	24.427	909.890	720.831
201.446	24.325	909.031	719.674
202.461	24.559	908.240	719.929
203.475	24.365	907.882	718.797
204.490	23.793	907.464	716.099
205.504	23.491	906.567	714.115
206.519	23.796	904.783	713.869
207.534	23.946	904.504	714.191
208.548	24.013	903.574	713.659
209.563	24.225	902.741	713.788
210.577	24.043	903.037	713.228
211.592	23.917	902.377	712.140
212.607	24.419	901.982	713.774
213.621	24.573	900.891	713.465
214.636	24.463	900.064	712.307
215.650	24.241	900.163	711.437
216.665	24.346	899.074	710.928
217.680	24.085	899.666	710.294
218.694	24.209	897.748	709.212
219.709	24.377	898.400	710.333
220.723	24.016	897.094	707.802
221.738	23.938	896.371	706.859
222.753	24.011	895.431	706.344
223.767	23.568	895.758	704.782
224.782	23.665	894.302	703.957
225.796	24.296	893.795	705.995
226.811	23.990	893.053	704.136
227.826	24.108	892.311	703.954
228.840	23.569	892.320	701.769
229.855	23.526	890.697	700.261
230.869	23.421	891.235	700.207
231.884	23.489	889.794	699.282
232.899	23.549	889.410	699.154
233.913	23.662	889.004	699.217
234.928	23.476	888.507	698.033
235.942	23.699	887.153	697.782
236.957	23.428	887.013	696.547
237.972	23.551	884.832	695.256
238.986	23.620	884.580	695.267
240.001	23.226	884.356	693.485
241.015	23.311	883.242	692.881
242.030	23.275	882.891	692.403
243.045	23.714	883.009	694.153
244.059	23.545	882.052	692.678
245.074	23.905	881.264	693.403
246.088	23.842	881.687	693.427
247.103	23.621	882.104	692.834
248.117	23.728	881.129	692.422
249.132	24.250	881.146	694.409
250.147	24.868	879.820	695.705
251.161	25.291	879.566	697.085
252.176	25.300	878.970	696.588
253.190	25.205	879.072	696.238
254.205	25.104	878.534	695.359
255.220	25.284	877.313	695.026
256.234	25.048	876.621	693.504
257.249	24.766	876.253	692.063
258.263	24.806	876.000	691.956
259.278	24.809	874.745	690.915
260.293	24.672	874.630	690.232
261.307	24.759	874.246	690.203
262.322	25.229	872.797	690.808
263.336	25.081	872.589	690.014
264.351	24.857	871.665	688.361
265.366	24.470	870.836	686.157
266.380	24.496	870.565	685.984
267.395	24.896	870.809	687.653
268.409	24.860	870.215	686.984
269.424	25.013	868.402	686.078
270.439	24.689	868.344	684.733
271.453	24.592	868.726	684.598
272.468	24.775	866.367	683.378
273.482	24.889	866.124	683.561
274.497	24.629	866.407	682.733
275.512	24.751	865.361	682.311
276.526	24.650	864.104	680.875
277.541	24.594	863.457	680.092
278.555	24.839	863.817	681.251
279.570	24.474	863.966	679.917
280.585	24.743	863.548	680.552
281.599	25.311	861.219	680.812
282.614	24.930	861.252	679.332
283.628	24.622	860.315	677.367
284.643	24.552	859.313	676.251
285.657	24.707	858.878	676.435
286.672	24.699	859.209	676.605
287.687	24.612	858.376	675.563
288.701	24.749	858.554	676.158
289.716	25.016	856.847	675.762
290.730	24.886	856.466	674.914
291.745	24.881	856.093	674.539
292.760	24.709	855.260	673.175
293.774	24.645	855.406	672.991
294.789	25.012	855.219	674.163
295.803	25.045	855.569	674.504
296.818	25.168	854.051	673.711
297.833	24.959	852.998	672.038
298.847	24.943	852.438	671.478
299.862	24.835	851.753	670.471
300.876	24.925	850.790	669.993
301.891	25.101	850.060	670.015
302.906	25.248	850.424	670.792
303.920	25.473	849.872	671.138
304.935	25.396	849.100	670.181
305.949	25.687	848.018	670.354
306.964	25.347	848.258	669.216
307.979	25.315	847.048	668.083
308.993	24.872	847.183	666.481
310.008	25.128	846.571	666.893
311.022	25.371	845.230	666.680
312.037	25.351	844.374	665.871
313.052	25.078	844.794	665.132
314.066	25.203	843.376	664.420
315.081	24.423	843.056	661.220
316.095	24.495	842.142	660.709
317.110	24.536	841.672	660.436
318.125	24.644	841.114	660.336
319.139	24.598	840.433	659.573
320.154	24.534	840.053	658.983
321.168	24.255	838.870	656.966
322.183	24.205	839.204	656.987
323.197	24.613	838.701	658.037
324.212	24.737	837.969	657.861
325.227	24.934	838.288	658.779
326.241	24.448	837.787	656.539
327.256	24.264	837.035	655.217
328.270	24.445	835.707	654.783
329.285	24.672	835.331	655.263
330.300	24.410	834.677	653.732
331.314	23.903	833.783	651.117
332.329	24.391	832.123	651.544
333.343	24.692	833.434	653.616
334.358	24.680	833.524	653.585
335.373	24.731	832.060	652.564
336.387	24.649	832.102	652.239
337.402	25.185	831.122	653.368
338.416	25.060	830.926	652.700
339.431	25.364	830.902	653.732
340.446	25.285	830.298	652.909
341.460	25.687	829.360	653.577
342.475	25.876	828.292	653.359
343.489	25.619	827.919	652.079
344.504	25.719	827.838	652.319
345.519	25.986	828.085	653.424
346.533	25.820	827.464	652.275
347.548	26.302	826.197	652.961
348.562	25.972	825.657	651.282
349.577	25.523	825.962	649.843
350.592	25.178	825.135	647.891
351.606	25.272	824.374	647.573
352.621	25.359	823.123	646.847
353.635	25.209	822.808	646.005
354.650	25.228	823.017	646.177
355.665	25.490	821.060	645.525
356.679	24.931	822.342	644.466
357.694	24.778	821.496	643.195
358.708	25.243	820.771	644.241
359.723	24.966	820.578	643.037
360.738	25.145	819.790	643.006
361.752	25.018	818.305	641.328
362.767	24.551	819.636	640.642
363.781	25.244	819.144	642.683
364.796	25.479	817.742	642.365
365.810	25.696	817.910	643.217
366.825	26.179	816.257	643.581
367.840	25.932	817.493	643.617
368.854	25.587	816.875	641.844
369.869	25.164	817.119	640.467
370.883	25.184	816.142	639.716
371.898	25.507	814.384	639.431
372.913	25.678	814.136	639.787
373.927	25.786	813.867	639.905
374.942	26.023	812.803	639.850
375.956	25.377	811.872	636.771
376.971	25.613	811.608	637.344
377.986	25.937	810.485	637.552
379.000	25.867	810.825	637.516
380.015	26.046	809.680	637.192
381.029	26.039	809.492	636.964
382.044	25.675	809.069	635.289
383.059	26.197	808.460	636.594
384.073	26.179	807.526	635.741
385.088	25.929	807.262	634.595
386.102	25.722	805.834	632.690
387.117	25.365	805.722	631.290
388.132	25.046	805.131	629.652
389.146	25.474	804.198	630.368
390.161	25.128	804.646	629.448
391.175	25.406	804.557	630.300
392.190	25.822	804.953	632.013
393.205	26.278	803.690	632.562
394.219	25.595	802.436	629.130
395.234	25.025	801.847	626.620
396.248	24.708	800.945	624.753
397.263	24.432	802.191	624.705
398.278	25.533	800.825	627.428
399.292	24.864	800.498	624.785
400.307	24.756	799.458	623.540
401.321	24.768	799.100	623.248
402.336	25.059	798.952	624.089
403.350	25.076	799.073	624.189
404.365	25.437	798.243	624.741
405.380	25.728	797.990	625.497
406.394	26.110	798.569	627.225
407.409	26.614	796.973	627.664
408.423	26.176	797.979	626.880
409.438	26.371	796.961	626.699
410.453	26.679	796.038	626.985
411.467	26.525	795.264	625.786
412.482	26.243	795.569	624.997
413.496	26.170	795.065	624.293
414.511	26.303	794.727	624.434
415.526	26.423	793.537	623.855
416.540	26.445	792.910	623.382
417.555	26.386	792.231	622.592
418.569	25.851	793.437	621.638
419.584	25.917	793.023	621.487
420.599	25.850	791.892	620.316
421.613	159.731	1369.854	1792.654
422.628	138.345	1454.110	1792.697
