DTS Sentinel unit serial number:	SN413079Multiplexer serial number:	ORYXHardware model number:	OX4-SRSoftware version number:	ORYX F/W v4.00 Oryx Data Collector v3.7.2.0data status	okinstallation	princeton_trtdifferential loss correction	single-endedforward channel	channel 3reverse channel	N/Adate	2019/09/12time	00:06:10forward acquisition time	60.00reverse acquisition time	0.00gamma	496.2192k internal	0.2318k external	0.2318temperature offset calibration	1.0063default loss term (dB/km)	0.3790temperature slope calibration	1.0000multiplexer offset coefficient	1.0000multiplexer slope coefficient	1.0000fibre end	0.00T internal ref (°C)	33.69T ext. ref 1 (°C)	1.99T ext. ref 2 (°C)	28.19length (m)	temperature (°C)	Stokes	anti-Stokes-747.200	-200.000	-0.005	0.295
-746.185	800.000	-0.062	-0.186
-745.171	1.625	0.139	0.101
-744.156	597.975	-0.038	0.094
-743.142	-200.000	-0.018	0.192
-742.127	-141.060	-0.413	0.043
-741.112	126.757	-0.176	-0.226
-740.098	-117.215	0.280	0.051
-739.083	52.880	0.182	-0.176
-738.069	395.031	-0.201	0.425
-737.054	21.285	-0.247	-0.203
-736.039	-98.896	-0.385	-0.099
-735.025	-17.560	-0.261	0.166
-734.010	-200.000	-0.011	-0.074
-732.996	-57.819	0.102	0.045
-731.981	-39.506	-0.092	0.049
-730.966	-136.677	-0.387	-0.045
-729.952	151.728	0.133	-0.184
-728.937	27.711	0.131	0.111
-727.923	800.000	0.052	0.174
-726.908	-178.751	-0.106	-0.002
-725.894	-65.760	0.178	0.072
-724.879	-49.215	0.092	-0.045
-723.864	-36.661	-0.062	0.034
-722.850	98.489	-0.183	-0.213
-721.835	-17.880	0.375	-0.238
-720.821	-95.768	-0.325	0.088
-719.806	186.221	-0.148	-0.222
-718.791	-32.666	0.296	-0.166
-717.777	-116.487	-0.146	0.027
-716.762	132.377	0.142	0.185
-715.748	800.000	0.006	0.020
-714.733	-200.000	-0.039	-0.227
-713.718	510.839	-0.099	0.232
-712.704	-52.175	-0.261	0.122
-711.689	-41.197	0.260	0.136
-710.675	800.000	0.031	-0.123
-709.660	88.554	-0.159	-0.178
-708.645	800.000	-0.117	-0.493
-707.631	327.448	-0.085	-0.164
-706.616	-161.891	-0.196	-0.010
-705.602	634.941	0.155	0.399
-704.587	-77.040	-0.263	-0.093
-703.572	800.000	0.037	0.105
-702.558	-169.200	0.292	-0.011
-701.543	-83.623	0.198	-0.064
-700.529	332.219	0.137	0.266
-699.514	-146.513	-0.100	0.009
-698.499	800.000	0.111	0.359
-697.485	-136.101	-0.038	0.004
-696.470	381.928	0.025	-0.052
-695.456	97.947	-0.216	0.251
-694.441	40.174	-0.070	-0.064
-693.426	471.935	0.116	0.265
-692.412	279.824	0.184	-0.331
-691.397	53.145	0.209	-0.203
-690.383	79.092	-0.155	-0.168
-689.368	-200.000	0.044	0.236
-688.354	-200.000	-0.018	-0.091
-687.339	180.551	0.108	0.160
-686.324	-74.362	0.093	-0.034
-685.310	204.915	-0.159	-0.249
-684.295	-22.880	-0.260	0.158
-683.281	-200.000	0.013	0.196
-682.266	-84.195	0.267	-0.085
-681.251	-11.317	0.323	0.214
-680.237	-127.116	-0.187	0.028
-679.222	800.000	-0.020	0.073
-678.208	-200.000	-0.040	0.221
-677.193	49.499	-0.355	-0.337
-676.178	667.778	-0.061	-0.160
-675.164	655.127	0.083	0.214
-674.149	313.763	0.064	-0.121
-673.135	-200.000	0.010	0.151
-672.120	800.000	-0.056	-0.183
-671.105	62.204	0.122	-0.123
-670.091	74.277	-0.152	-0.161
-669.076	-200.000	0.031	-0.167
-668.062	-146.609	0.194	-0.017
-667.047	-200.000	-0.014	0.273
-666.032	13.280	-0.032	-0.025
-665.018	-164.552	0.227	0.010
-664.003	398.564	-0.062	-0.130
-662.989	-124.670	-0.081	0.013
-661.974	800.000	0.030	0.130
-660.959	-22.216	0.142	0.087
-659.945	80.690	0.020	-0.021
-658.930	-44.351	0.022	-0.011
-657.916	800.000	-0.021	-0.091
-656.901	-200.000	0.049	-0.284
-655.886	-48.251	-0.206	0.100
-654.872	-76.605	-0.157	-0.056
-653.857	294.723	-0.129	-0.238
-652.843	3.740	0.228	0.168
-651.828	-100.527	0.145	0.036
-650.814	-92.093	-0.163	0.047
-649.799	-45.096	0.106	-0.053
-648.784	60.350	0.088	-0.087
-647.770	-2.607	-0.211	0.149
-646.755	147.952	0.363	0.494
-645.741	608.419	0.106	-0.267
-644.726	-200.000	-0.025	-0.169
-643.711	-200.000	0.012	-0.305
-642.697	-7.074	-0.271	0.186
-641.682	407.699	-0.077	-0.165
-640.668	100.990	-0.078	0.091
-639.653	440.990	0.059	-0.130
-638.638	-200.000	-0.040	-0.265
-637.624	-39.417	-0.341	-0.180
-636.609	-115.022	-0.168	-0.032
-635.595	676.765	-0.128	0.336
-634.580	2.307	-0.196	-0.143
-633.565	421.704	0.097	-0.209
-632.551	800.000	-0.058	-0.199
-631.536	-100.728	-0.329	0.082
-630.522	381.025	0.124	-0.256
-629.507	40.766	0.317	-0.289
-628.492	0.650	0.156	-0.113
-627.478	-200.000	-0.056	-0.418
-626.463	131.051	-0.093	0.120
-625.449	-121.324	-0.080	-0.013
-624.434	-64.879	-0.352	0.144
-623.419	-200.000	0.056	0.289
-622.405	259.729	-0.097	-0.168
-621.390	435.374	-0.184	-0.402
-620.376	-81.283	-0.029	-0.010
-619.361	766.068	-0.030	0.082
-618.346	-72.173	-0.242	-0.090
-617.332	-25.386	-0.262	0.156
-616.317	-83.743	0.245	-0.079
-615.303	-200.000	0.043	-0.248
-614.288	41.535	0.115	-0.105
-613.273	-106.600	-0.221	-0.050
-612.259	387.036	-0.036	-0.076
-611.244	173.630	0.153	0.223
-610.230	-26.594	-0.114	-0.067
-609.215	746.681	0.204	-0.553
-608.201	368.560	-0.123	-0.251
-607.186	-200.000	0.053	0.270
-606.171	-48.821	0.132	-0.064
-605.157	-149.251	0.113	0.009
-604.142	139.332	0.032	-0.043
-603.128	800.000	-0.072	0.251
-602.113	41.439	0.114	0.104
-601.098	18.613	0.235	-0.189
-600.084	-49.338	0.073	-0.035
-599.069	-200.000	0.317	0.001
-598.055	12.479	0.260	0.201
-597.040	800.000	-0.059	-0.225
-596.025	774.763	0.083	0.228
-595.011	-70.968	-0.194	0.073
-593.996	-40.546	0.231	0.121
-592.982	-86.664	-0.192	0.059
-591.967	-98.574	-0.113	-0.029
-590.952	-200.000	0.065	-0.487
-589.938	-107.414	-0.231	0.051
-588.923	263.890	-0.093	0.163
-587.909	-10.084	-0.248	0.166
-586.894	247.640	0.152	0.259
-585.879	800.000	0.030	-0.098
-584.865	-1.501	-0.182	0.129
-583.850	-60.143	0.272	0.117
-582.836	-47.672	0.130	0.064
-581.821	-200.000	0.031	-0.350
-580.806	-38.950	-0.173	-0.092
-579.792	660.323	-0.150	0.389
-578.777	-27.369	0.171	0.100
-577.763	-200.000	-0.010	-0.451
-576.748	678.551	-0.059	-0.154
-575.733	-79.829	0.196	0.066
-574.719	254.377	0.071	-0.121
-573.704	-200.000	-0.037	0.381
-572.690	-165.391	0.499	0.022
-571.675	-98.859	-0.132	0.034
-570.661	-91.116	-0.393	0.113
-569.646	-200.000	-0.149	-0.001
-568.631	-11.872	0.257	-0.169
-567.617	235.676	0.042	-0.069
-566.602	-56.729	0.159	0.071
-565.588	80.147	0.230	-0.249
-564.573	-200.000	0.042	-0.186
-563.558	26.345	-0.232	0.195
-562.544	661.484	0.075	0.195
-561.529	800.000	0.060	-0.215
-560.515	-200.000	-0.040	-0.185
-559.500	-192.105	0.357	0.003
-558.485	-200.000	-0.005	0.343
-557.471	-55.142	0.231	-0.105
-556.456	-69.216	0.156	0.060
-555.442	-41.324	-0.245	0.127
-554.427	83.937	0.027	-0.030
-553.412	-18.750	-0.127	-0.079
-552.398	-132.491	-0.343	0.044
-551.383	319.278	-0.137	-0.262
-550.369	-200.000	-0.016	-0.195
-549.354	398.355	0.043	-0.091
-548.339	191.454	-0.153	-0.232
-547.325	-60.957	0.093	-0.039
-546.310	-103.891	-0.423	-0.099
-545.296	60.226	-0.017	0.017
-544.281	114.069	0.096	-0.117
-543.266	-200.000	0.009	-0.510
-542.252	-200.000	0.007	-0.464
-541.237	-55.639	-0.125	0.056
-540.223	800.000	-0.040	-0.117
-539.208	-132.728	-0.336	-0.043
-538.193	529.580	0.041	0.098
-537.179	-162.732	0.126	-0.006
-536.164	-200.000	0.007	-0.185
-535.150	-65.110	-0.078	0.031
-534.135	-200.000	-0.049	0.378
-533.121	-200.000	0.078	0.385
-532.106	375.729	-0.042	0.086
-531.091	429.646	-0.019	-0.041
-530.077	800.000	-0.037	-0.119
-529.062	197.483	0.090	0.138
-528.048	517.454	-0.127	0.299
-527.033	-40.350	-0.281	0.146
-526.018	-10.066	0.078	0.052
-525.004	-200.000	-0.003	0.148
-523.989	-62.271	0.327	-0.137
-522.975	690.953	-0.187	-0.490
-521.960	739.850	0.114	0.306
-520.945	-200.000	0.034	0.294
-519.931	71.943	-0.175	-0.182
-518.916	-53.531	0.271	0.124
-517.902	-163.728	0.174	0.008
-516.887	800.000	0.029	0.097
-515.872	292.821	-0.059	0.107
-514.858	508.801	0.094	-0.218
-513.843	738.074	0.150	-0.404
-512.829	-85.476	0.108	-0.034
-511.814	-123.455	0.194	0.031
-510.799	-139.042	0.259	-0.028
-509.785	-79.861	-0.065	0.022
-508.770	210.411	-0.093	0.146
-507.756	-200.000	0.020	0.321
-506.741	330.814	-0.059	-0.115
-505.726	-90.625	-0.163	0.047
-504.712	-82.038	0.139	0.045
-503.697	-100.880	0.134	-0.033
-502.683	-200.000	-0.006	-0.172
-501.668	-200.000	0.025	-0.293
-500.653	-200.000	0.051	0.425
-499.639	800.000	-0.018	0.069
-498.624	82.877	0.219	0.239
-497.610	-79.382	0.257	-0.087
-496.595	80.728	0.136	0.147
-495.581	800.000	-0.075	0.301
-494.566	-83.265	-0.184	-0.059
-493.551	-108.326	0.261	0.057
-492.537	800.000	-0.044	-0.143
-491.522	-200.000	-0.013	0.191
-490.508	739.419	0.088	0.235
-489.493	-78.225	0.026	-0.009
-488.478	-200.000	0.002	-0.353
-487.464	-200.000	-0.021	-0.242
-486.449	420.674	-0.089	0.191
-485.435	150.763	-0.091	-0.124
-484.420	-177.645	0.135	0.003
-483.405	-200.000	0.020	-0.202
-482.391	-200.000	-0.018	0.276
-481.376	653.758	0.061	-0.156
-480.362	314.433	0.039	0.074
-479.347	70.151	-0.184	-0.190
-478.332	185.756	0.043	0.065
-477.318	-66.448	-0.200	-0.079
-476.303	-181.771	-0.418	0.008
-475.289	193.953	-0.167	-0.253
-474.274	-17.678	0.036	-0.023
-473.259	-54.187	-0.238	0.108
-472.245	-105.657	0.288	0.065
-471.230	1.444	-0.247	0.178
-470.216	724.354	-0.032	0.087
-469.201	-200.000	0.005	0.181
-468.186	68.165	0.219	0.224
-467.172	140.236	0.221	0.292
-466.157	418.274	-0.127	-0.271
-465.143	308.760	0.004	0.007
-464.128	79.633	-0.199	0.214
-463.113	77.251	0.135	0.143
-462.099	-200.000	-0.010	-0.046
-461.084	-14.032	0.102	-0.066
-460.070	202.434	-0.152	0.236
-459.055	-24.064	0.082	-0.049
-458.040	186.512	0.080	0.119
-457.026	-78.933	0.046	-0.016
-456.011	33.016	-0.143	0.124
-454.997	-200.000	-0.001	-0.038
-453.982	-23.086	0.106	0.064
-452.968	-200.000	-0.006	-0.267
-451.953	800.000	0.150	-0.428
-450.938	94.594	-0.082	0.094
-449.924	-53.024	-0.207	-0.095
-448.909	800.000	0.007	0.020
-447.895	-200.000	-0.017	-0.155
-446.880	-200.000	0.036	0.177
-445.865	-120.178	0.118	-0.020
-444.851	-78.131	-0.163	-0.056
-443.836	-85.135	0.091	0.029
-442.822	430.315	-0.162	-0.352
-441.807	-66.892	-0.366	-0.145
-440.792	37.294	0.156	0.138
-439.778	-200.000	-0.027	0.290
-438.763	-98.275	0.126	0.032
-437.749	681.401	-0.060	0.156
-436.734	-200.000	-0.024	-0.204
-435.719	-64.500	0.204	0.083
-434.705	-200.000	-0.012	0.163
-433.690	-51.388	-0.104	0.049
-432.676	-65.715	0.260	0.104
-431.661	38.878	0.107	0.095
-430.646	-200.000	-0.047	0.255
-429.632	800.000	-0.091	-0.292
-428.617	-41.237	0.361	0.186
-427.603	-162.851	-0.139	-0.007
-426.588	-200.000	0.079	-0.363
-425.573	488.045	-0.073	-0.167
-424.559	-199.745	0.134	-0.001
-423.544	-200.000	0.001	0.076
-422.530	-200.000	0.034	-0.242
-421.515	-108.112	0.055	-0.012
-420.500	625.659	0.245	-0.617
-419.486	206.076	-0.144	-0.224
-418.471	455.381	0.072	0.159
-417.457	-67.331	0.364	-0.143
-416.442	-46.122	-0.102	-0.050
-415.428	-101.007	0.068	-0.017
-414.413	468.520	-0.064	-0.143
-413.398	240.881	-0.129	0.215
-412.384	800.000	-0.061	0.230
-411.369	-0.702	0.270	-0.191
-410.355	-76.788	0.152	0.053
-409.340	423.098	-0.138	-0.296
-408.325	447.938	0.037	-0.081
-407.311	155.026	-0.202	-0.277
-406.296	-200.000	0.032	0.256
-405.282	-10.353	-0.187	0.124
-404.267	87.151	0.327	0.361
-403.252	-200.000	0.003	0.105
-402.238	54.414	-0.139	0.134
-401.223	-22.765	0.385	-0.232
-400.209	800.000	-0.088	-0.306
-399.194	43.103	0.126	-0.114
-398.179	267.688	0.058	0.101
-397.165	800.000	0.023	0.073
-396.150	800.000	0.039	0.130
-395.136	-160.194	-0.660	-0.036
-394.121	102.869	0.051	-0.059
-393.106	-200.000	0.043	0.334
-392.092	-83.131	0.123	-0.040
-391.077	-46.750	-0.343	-0.168
-390.063	51.021	0.134	-0.127
-389.048	800.000	0.032	-0.139
-388.033	-36.315	-0.169	-0.091
-387.019	43.252	0.186	0.169
-386.004	-162.949	-0.182	-0.009
-384.990	-4.257	0.216	-0.149
-383.975	800.000	-0.078	0.289
-382.960	-60.169	0.294	-0.125
-381.946	250.144	-0.012	-0.020
-380.931	62.042	0.153	-0.153
-379.917	481.292	-0.110	0.249
-378.902	-200.000	0.054	0.483
-377.888	-1.295	0.271	0.191
-376.873	72.713	0.241	0.251
-375.858	256.836	-0.121	0.208
-374.844	84.217	-0.059	0.065
-373.829	800.000	-0.100	-0.292
-372.815	49.795	0.092	0.086
-371.800	-200.000	-0.014	-0.218
-370.785	62.393	-0.104	0.104
-369.771	4.038	0.187	0.137
-368.756	-200.000	0.032	0.222
-367.742	-154.882	-0.242	0.016
-366.727	-93.166	0.425	-0.118
-365.712	-36.831	-0.197	0.106
-364.698	-200.000	0.027	-0.129
-363.683	500.093	-0.054	-0.125
-362.669	-84.716	-0.024	0.007
-361.654	17.737	-0.174	0.138
-360.639	65.701	0.134	0.135
-359.625	742.684	0.048	0.130
-358.610	-18.641	-0.187	0.116
-357.596	-22.474	-0.250	0.151
-356.581	-200.000	0.042	-0.485
-355.566	299.469	0.083	0.152
-354.552	-194.451	0.163	-0.001
-353.537	118.316	-0.047	-0.058
-352.523	8.322	0.091	-0.068
-351.508	17.221	0.324	-0.256
-350.493	72.796	-0.341	0.355
-349.479	800.000	-0.038	0.108
-348.464	176.422	-0.061	-0.088
-347.450	-200.000	0.059	-0.269
-346.435	-26.804	0.106	-0.062
-345.420	154.447	0.030	0.042
-344.406	60.930	-0.146	-0.144
-343.391	-126.022	0.173	-0.026
-342.377	-99.503	0.108	0.027
-341.362	312.795	-0.080	-0.150
-340.348	-143.366	0.203	-0.019
-339.333	-39.433	0.099	0.052
-338.318	-200.000	0.019	0.221
-337.304	54.103	0.083	-0.079
-336.289	-37.924	0.120	-0.063
-335.275	234.258	-0.084	0.138
-334.260	84.323	-0.216	-0.235
-333.245	193.482	-0.148	0.222
-332.231	-69.142	0.224	-0.086
-331.216	-51.045	-0.213	-0.099
-330.202	64.283	0.148	-0.148
-329.187	-84.317	-0.207	0.065
-328.172	-200.000	0.031	-0.199
-327.158	-200.000	-0.065	0.290
-326.143	-58.862	-0.211	0.091
-325.129	800.000	-0.062	-0.242
-324.114	-200.000	0.035	-0.200
-323.099	-200.000	-0.000	0.120
-322.085	-109.035	-0.167	0.035
-321.070	154.665	0.388	0.531
-320.056	721.271	0.067	-0.178
-319.041	590.644	0.052	0.127
-318.026	41.385	-0.095	0.086
-317.012	426.350	0.160	-0.342
-315.997	94.482	-0.188	-0.212
-314.983	-55.488	0.245	0.110
-313.968	137.969	-0.173	0.225
-312.953	17.182	0.159	0.125
-311.939	-160.555	-0.195	-0.010
-310.924	-200.000	0.011	0.203
-309.910	620.395	0.105	0.264
-308.895	26.343	-0.243	0.202
-307.880	370.555	0.094	-0.189
-306.866	800.000	-0.089	-0.287
-305.851	-63.480	-0.147	-0.060
-304.837	224.988	-0.136	-0.219
-303.822	532.085	-0.018	-0.043
-302.807	267.400	0.076	0.132
-301.793	800.000	-0.010	0.040
-300.778	-200.000	-0.030	0.294
-299.764	66.637	0.190	0.193
-298.749	-56.523	0.132	0.058
-297.735	-200.000	0.006	0.026
-296.720	-200.000	-0.003	0.071
-295.705	-81.195	0.368	-0.121
-294.691	-56.792	0.190	0.083
-293.676	140.313	0.055	0.072
-292.662	-119.308	-0.239	-0.041
-291.647	800.000	0.056	0.199
-290.632	-200.000	0.000	0.211
-289.618	800.000	0.051	-0.206
-288.603	-200.000	-0.009	0.359
-287.589	-200.000	0.040	0.311
-286.574	139.432	-0.094	-0.124
-285.559	480.460	0.146	0.329
-284.545	-55.983	-0.305	0.135
-283.530	186.582	-0.132	-0.195
-282.516	-75.096	-0.267	0.095
-281.501	389.403	0.165	0.339
-280.486	9.020	0.152	-0.114
-279.472	-120.319	-0.229	0.039
-278.457	-200.000	0.016	0.080
-277.443	137.243	0.020	0.026
-276.428	209.440	-0.080	-0.125
-275.413	231.988	0.089	0.146
-274.399	-200.000	-0.008	-0.110
-273.384	-168.697	-0.184	-0.007
-272.370	-118.975	0.444	-0.077
-271.355	-200.000	0.004	0.218
-270.340	294.402	0.189	0.343
-269.326	-4.632	0.371	-0.255
-268.311	-69.525	0.160	0.061
-267.297	800.000	-0.015	0.058
-266.282	367.547	-0.077	0.155
-265.267	450.799	-0.120	0.263
-264.253	800.000	-0.044	0.158
-263.238	-68.122	0.270	0.104
-262.224	-27.613	-0.304	-0.176
-261.209	-113.964	0.179	-0.035
-260.195	-47.794	-0.238	0.115
-259.180	-200.000	-0.010	-0.167
-258.165	-77.320	0.235	-0.081
-257.151	429.643	-0.118	0.253
-256.136	18.196	0.247	-0.196
-255.122	-200.000	-0.014	0.095
-254.107	-187.075	0.104	-0.001
-253.092	96.804	-0.108	0.123
-252.078	800.000	-0.073	0.205
-251.063	800.000	0.034	-0.114
-250.049	-75.182	0.185	0.066
-249.034	-140.555	0.197	0.020
-248.019	-53.841	-0.151	0.068
-247.005	-62.857	0.268	-0.110
-245.990	-200.000	-0.072	-0.431
-244.976	-200.000	0.061	0.000
-243.961	800.000	0.081	0.333
-242.946	-33.795	-0.106	0.058
-241.932	-84.401	-0.414	0.130
-240.917	-59.689	-0.340	0.145
-239.903	112.448	-0.029	-0.035
-238.888	-200.000	0.011	0.055
-237.873	179.153	0.156	0.227
-236.859	32.572	0.079	-0.068
-235.844	-54.816	0.243	-0.109
-234.830	115.916	-0.203	-0.247
-233.815	-200.000	0.000	0.048
-232.800	43.614	0.058	-0.053
-231.786	-166.000	-0.216	-0.009
-230.771	174.698	0.081	0.116
-229.757	800.000	-0.038	0.140
-228.742	576.581	0.110	-0.266
-227.727	148.367	0.150	-0.201
-226.713	10.670	-0.139	-0.105
-225.698	-50.154	-0.220	0.103
-224.684	469.356	0.042	-0.093
-223.669	-13.080	0.300	0.193
-222.655	-200.000	0.000	-0.300
-221.640	150.231	0.106	-0.143
-220.625	39.117	-0.087	-0.077
-219.611	-49.115	0.078	0.037
-218.596	800.000	-0.118	-0.347
-217.582	-200.000	-0.030	-0.295
-216.567	-71.098	-0.189	-0.070
-215.552	-27.856	-0.589	0.339
-214.538	143.256	0.165	-0.218
-213.523	10.498	-0.121	-0.091
-212.509	175.649	0.141	0.203
-211.494	800.000	0.058	0.195
-210.479	3.912	-0.233	-0.169
-209.465	784.346	-0.097	-0.262
-208.450	601.917	0.068	0.168
-207.436	-200.000	-0.032	0.183
-206.421	127.212	-0.052	-0.065
-205.406	172.190	-0.026	-0.037
-204.392	-200.000	0.023	-0.151
-203.377	193.136	0.117	0.175
-202.363	-155.320	0.194	0.012
-201.348	-41.015	0.079	0.041
-200.333	-200.000	0.010	0.235
-199.319	-129.783	-0.106	-0.014
-198.304	22.727	-0.156	-0.126
-197.290	568.375	0.085	0.204
-196.275	169.992	-0.139	-0.197
-195.260	44.301	0.125	-0.114
-194.246	122.502	-0.163	0.202
-193.231	-132.626	0.261	-0.033
-192.217	189.362	0.104	0.154
-191.202	-190.929	0.077	0.001
-190.187	-111.428	-0.199	0.040
-189.173	582.441	0.095	-0.230
-188.158	483.708	-0.125	0.281
-187.144	35.966	0.044	0.039
-186.129	800.000	0.071	0.224
-185.114	800.000	0.059	-0.179
-184.100	293.119	-0.132	-0.238
-183.085	-200.000	-0.005	-0.108
-182.071	473.493	-0.033	0.073
-181.056	37.687	-0.335	-0.295
-180.042	-146.456	-0.153	0.013
-179.027	107.921	0.057	-0.067
-178.012	-107.571	-0.203	-0.044
-176.998	-200.000	-0.006	-0.042
-175.983	-99.008	-0.177	0.044
-174.969	-200.000	0.000	-0.155
-173.954	-132.889	-0.195	0.025
-172.939	11.606	-0.306	-0.232
-171.925	-200.000	-0.105	-0.613
-170.910	-13.636	0.181	0.116
-169.896	101.443	0.147	0.169
-168.881	800.000	-0.105	0.429
-167.866	-200.000	-0.052	0.344
-166.852	-6.167	-0.244	-0.165
-165.837	-85.459	0.223	0.069
-164.823	471.320	-0.059	-0.132
-163.808	-41.328	-0.080	-0.041
-162.793	-48.077	-0.118	-0.056
-161.779	484.695	0.109	-0.246
-160.764	-32.760	0.117	0.064
-159.750	-200.000	0.056	0.321
-158.735	-200.000	0.046	0.307
-157.720	209.910	-0.041	0.064
-156.706	77.263	0.131	-0.138
-155.691	72.532	-0.251	0.259
-154.677	97.294	-0.125	0.142
-153.662	800.000	-0.107	-0.324
-152.647	-38.703	-0.267	-0.139
-151.633	-84.747	0.302	0.094
-150.618	483.419	0.074	-0.166
-149.604	-200.000	0.027	-0.226
-148.589	65.546	-0.179	0.179
-147.574	-200.000	0.026	-0.192
-146.560	56.440	0.067	0.065
-145.545	-40.937	-0.239	0.122
-144.531	-56.805	0.356	-0.156
-143.516	-29.353	-0.093	-0.053
-142.502	89.596	-0.231	0.255
-141.487	3.808	-0.139	0.100
-140.472	-119.537	0.190	0.033
-139.458	-200.000	0.086	-0.446
-138.443	-76.198	-0.118	-0.041
-137.429	800.000	-0.095	0.281
-136.414	15.867	-0.209	0.163
-135.399	32.068	-0.177	-0.150
-134.385	281.742	-0.081	-0.143
-133.370	91.873	-0.341	-0.379
-132.356	112.616	-0.108	-0.129
-131.341	-148.049	-0.125	0.010
-130.326	800.000	-0.059	-0.171
-129.312	-46.965	0.036	-0.017
-128.297	800.000	0.047	-0.146
-127.283	-93.114	0.370	-0.102
-126.268	-200.000	0.036	-0.160
-125.253	800.000	0.051	-0.219
-124.239	800.000	0.116	-0.477
-123.224	37.170	-0.295	0.258
-122.210	-200.000	-0.018	-0.249
-121.195	706.053	0.156	-0.407
-120.180	-106.346	0.231	-0.051
-119.166	-111.007	-0.407	0.083
-118.151	769.395	0.048	0.130
-117.137	800.000	-0.073	0.228
-116.122	-54.935	-0.120	-0.054
-115.107	-123.900	0.174	-0.027
-114.093	417.996	-0.088	-0.186
-113.078	-200.000	0.003	-0.013
-112.064	-155.876	-0.251	-0.016
-111.049	538.949	-0.038	-0.090
-110.034	-191.303	0.168	0.002
-109.020	-117.709	0.358	-0.064
-108.005	0.234	0.267	0.188
-106.991	203.029	0.073	-0.112
-105.976	68.167	-0.145	-0.147
-104.962	113.139	0.209	0.251
-103.947	800.000	-0.019	-0.053
-102.932	67.579	-0.253	-0.255
-101.918	46.145	-0.177	0.162
-100.903	90.446	0.071	0.078
-99.889	800.000	0.101	-0.359
-98.874	0.091	-0.118	0.083
-97.859	-30.748	0.135	-0.075
-96.845	-120.341	-0.039	0.007
-95.830	-52.999	0.028	0.013
-94.816	323.544	-0.086	-0.162
-93.801	-147.963	-0.171	-0.014
-92.786	180.957	0.257	-0.372
-91.772	102.404	0.091	-0.106
-90.757	269.029	0.182	-0.315
-89.743	219.465	0.158	0.250
-88.728	-103.901	-0.047	-0.011
-87.713	-195.448	0.293	0.002
-86.699	-44.878	0.218	0.107
-85.684	112.846	0.059	-0.071
-84.670	-200.000	0.037	-0.252
-83.655	-115.917	0.257	0.047
-82.640	-200.000	-0.002	-0.013
-81.626	655.434	-0.046	-0.115
-80.611	264.871	0.098	0.169
-79.597	-200.000	0.098	-0.455
-78.582	176.417	0.128	-0.183
-77.567	674.762	-0.060	0.154
-76.553	-86.096	-0.125	0.038
-75.538	-148.561	0.170	0.014
-74.524	-71.484	-0.325	0.120
-73.509	62.187	0.177	0.174
-72.494	146.225	-0.161	0.213
-71.480	132.390	-0.197	0.251
-70.465	800.000	-0.097	-0.293
-69.451	-70.765	-0.074	0.028
-68.436	76.231	-0.218	0.227
-67.422	76.258	-0.127	0.132
-66.407	-200.000	0.042	0.245
-65.392	396.420	-0.070	0.143
-64.378	15.593	0.071	0.055
-63.363	-51.123	-0.200	0.092
-62.349	596.841	0.023	-0.057
-61.334	155.082	-0.739	-1.001
-60.319	53.950	0.626	0.593
-59.305	-200.000	-0.123	-1.016
-58.290	106.219	0.929	1.085
-57.276	800.000	0.493	1.535
-56.261	-200.000	96.681	576.715
-55.246	542.263	1387.088	3258.368
-54.232	156.061	2575.387	3498.762
-53.217	110.641	2169.280	2570.093
-52.203	43.798	1710.275	1542.625
-51.188	36.852	1523.095	1326.383
-50.173	34.525	1496.343	1287.355
-49.159	53.841	1546.518	1463.463
-48.144	55.727	1564.487	1493.343
-47.130	37.076	1522.163	1326.893
-46.115	33.933	1506.930	1292.234
-45.100	33.720	1504.415	1288.583
-44.086	33.711	1502.255	1286.619
-43.071	33.688	1500.495	1284.907
-42.057	33.693	1498.340	1283.039
-41.042	33.683	1497.769	1282.434
-40.027	33.703	1496.171	1281.150
-39.013	33.789	1494.527	1280.269
-37.998	33.692	1493.445	1278.643
-36.984	33.704	1491.887	1277.335
-35.969	33.711	1490.539	1276.182
-34.954	33.719	1489.222	1275.058
-33.940	33.717	1487.459	1273.483
-32.925	33.728	1486.599	1272.770
-31.911	33.800	1484.877	1271.724
-30.896	33.754	1484.052	1270.663
-29.881	33.766	1482.865	1269.674
-28.867	33.727	1481.493	1268.185
-27.852	33.673	1480.232	1266.697
-26.838	33.720	1478.681	1265.637
-25.823	33.635	1477.843	1264.299
-24.809	33.710	1475.467	1262.716
-23.794	33.663	1473.963	1261.067
-22.779	33.797	1472.481	1260.639
-21.765	33.665	1471.649	1258.999
-20.750	33.678	1470.610	1258.147
-19.736	33.676	1469.879	1257.457
-18.721	33.711	1468.247	1256.246
-17.706	33.642	1467.673	1255.248
-16.692	33.748	1466.377	1254.789
-15.677	33.794	1464.887	1253.769
-14.663	33.618	1464.396	1252.135
-13.648	33.620	1463.700	1251.503
-12.633	33.503	1463.015	1250.101
-11.619	33.661	1461.530	1249.819
-10.604	33.690	1460.741	1249.287
-9.590	33.584	1459.925	1247.844
-8.575	33.677	1458.859	1247.492
-7.560	33.643	1458.334	1246.770
-6.546	33.661	1457.213	1245.879
-5.531	33.725	1456.303	1245.477
-4.517	33.730	1455.644	1244.896
-3.502	33.654	1454.745	1243.575
-2.487	33.650	1453.820	1242.710
-1.473	33.659	1452.595	1241.673
-0.458	33.483	1451.563	1239.592
0.556	33.985	1442.334	1229.114
1.571	31.175	1417.309	1189.798
2.586	27.910	1360.725	1122.174
3.600	26.379	1280.595	1047.142
4.615	25.129	1233.757	1001.773
5.629	21.743	1176.143	936.839
6.644	11.467	1089.207	816.379
7.659	3.387	1045.506	744.642
8.673	2.268	1040.189	735.407
9.688	1.943	1037.336	731.763
10.702	1.889	1035.472	730.124
11.717	1.871	1033.772	728.779
12.731	5.636	1038.181	749.874
13.746	15.750	1052.517	809.036
14.761	23.272	1062.190	852.767
15.775	25.030	1063.150	861.930
16.790	25.198	1062.989	862.529
17.804	25.098	1062.319	861.427
18.819	24.943	1061.301	859.782
19.834	24.908	1060.969	859.269
20.848	25.074	1060.317	859.460
21.863	25.127	1059.998	859.383
22.877	25.046	1059.996	858.916
23.892	25.119	1059.104	858.468
24.907	25.058	1058.308	857.452
25.921	25.192	1057.214	857.132
26.936	25.109	1056.819	856.340
27.950	25.068	1055.695	855.157
28.965	25.039	1054.650	854.095
29.980	24.966	1052.835	852.206
30.994	24.882	1051.798	850.891
32.009	25.094	1051.145	851.291
33.023	25.123	1050.780	851.061
34.038	25.052	1049.289	849.441
35.053	24.932	1048.427	848.101
36.067	25.151	1048.038	848.747
37.082	25.022	1047.310	847.470
38.096	25.116	1046.656	847.309
39.111	25.151	1046.248	847.071
40.126	25.433	1044.922	847.254
41.140	25.255	1043.847	845.467
42.155	24.992	1041.979	842.644
43.169	24.743	1040.920	840.543
44.184	24.695	1039.784	839.325
45.199	24.906	1038.687	839.354
46.213	24.670	1037.688	837.368
47.228	24.738	1036.893	836.971
48.242	24.834	1036.441	836.981
49.257	24.955	1035.818	836.970
50.271	25.045	1035.221	836.830
51.286	25.114	1034.288	836.325
52.301	25.161	1033.805	836.080
53.315	25.235	1032.883	835.604
54.330	25.095	1032.528	834.593
55.344	25.037	1031.557	833.462
56.359	25.016	1030.870	832.737
57.374	25.094	1029.787	832.149
58.388	24.869	1028.674	830.137
59.403	24.779	1028.241	829.296
60.417	24.789	1027.968	829.047
61.432	24.662	1026.747	827.404
62.447	24.677	1026.091	826.871
63.461	24.853	1025.404	827.057
64.476	24.984	1024.451	826.821
65.490	24.860	1023.461	825.373
66.505	24.672	1023.077	824.124
67.520	24.740	1022.163	823.627
68.534	24.822	1021.280	823.221
69.549	24.717	1020.147	821.752
70.563	24.380	1019.287	819.440
71.578	24.281	1018.441	818.232
72.593	24.381	1017.268	817.679
73.607	24.364	1015.978	816.489
74.622	24.123	1015.865	815.223
75.636	24.469	1015.187	816.189
76.651	24.695	1013.752	815.997
77.666	24.645	1012.906	815.016
78.680	24.458	1012.081	813.427
79.695	24.447	1011.833	813.103
80.709	24.547	1011.208	812.987
81.724	24.668	1010.505	812.900
82.739	24.654	1009.602	812.035
83.753	24.693	1008.774	811.476
84.768	25.070	1007.721	812.266
85.782	25.210	1007.729	812.836
86.797	25.437	1006.983	813.188
87.812	25.549	1006.015	812.844
88.826	25.266	1005.337	810.944
89.841	25.164	1004.601	809.819
90.855	25.253	1004.180	809.809
91.870	25.345	1002.880	809.105
92.884	25.399	1001.968	808.540
93.899	25.194	1001.560	807.215
94.914	25.138	1000.549	806.078
95.928	25.242	999.594	805.703
96.943	25.330	998.420	805.084
97.957	24.883	997.945	802.623
98.972	24.752	996.707	800.969
99.987	24.576	995.418	799.075
101.001	24.715	994.775	799.110
102.016	24.930	994.355	799.663
103.030	24.997	993.667	799.336
104.045	24.933	992.557	798.087
105.060	24.825	991.504	796.693
106.074	24.673	990.378	795.038
107.089	24.589	989.453	793.855
108.103	25.051	989.226	795.652
109.118	25.152	988.268	795.262
110.133	24.716	987.309	792.487
111.147	24.788	985.935	791.631
112.162	24.753	984.638	790.365
113.176	24.545	983.872	788.761
114.191	24.650	983.143	788.571
115.206	24.807	982.499	788.678
116.220	24.368	981.416	785.805
117.235	24.313	979.884	784.265
118.249	24.466	979.405	784.486
119.264	24.444	979.090	784.068
120.279	24.425	977.803	782.886
121.293	24.355	977.075	781.924
122.308	24.549	976.421	782.185
123.322	24.431	976.110	781.348
124.337	24.507	974.881	780.627
125.352	24.327	973.527	778.689
126.366	23.886	971.984	775.463
127.381	23.586	970.837	773.170
128.395	24.244	970.715	775.871
129.410	24.806	970.361	777.962
130.424	24.966	969.694	778.058
131.439	24.938	968.776	777.131
132.454	24.919	967.676	776.095
133.468	24.761	967.082	774.866
134.483	24.877	966.273	774.650
135.497	24.890	965.435	773.968
136.512	25.156	964.702	774.461
137.527	25.104	963.940	773.555
138.541	25.222	963.261	773.452
139.556	25.311	962.501	773.155
140.570	25.285	961.620	772.267
141.585	25.377	960.769	771.913
142.600	25.393	960.062	771.342
143.614	25.278	959.390	770.243
144.629	25.334	958.644	769.815
145.643	25.569	957.861	770.124
146.658	25.446	956.624	768.534
147.673	25.180	955.648	766.547
148.687	25.103	954.345	765.105
149.702	25.169	953.252	764.441
150.716	24.952	952.720	763.023
151.731	25.018	951.444	762.217
152.746	24.992	950.779	761.504
153.760	25.328	950.136	762.349
154.775	25.443	949.687	762.408
155.789	25.456	948.629	761.550
156.804	25.274	947.918	760.139
157.819	25.387	946.594	759.488
158.833	25.202	946.180	758.308
159.848	25.486	945.174	758.634
160.862	25.444	944.884	758.156
161.877	25.366	943.645	756.768
162.892	25.199	942.842	755.350
163.906	25.349	941.962	755.211
164.921	25.201	941.192	753.906
165.935	25.328	940.042	753.449
166.950	25.319	938.880	752.413
167.964	25.316	938.467	752.005
168.979	25.410	937.260	751.365
169.994	25.322	935.900	749.839
171.008	24.953	935.246	747.707
172.023	25.335	934.301	748.481
173.037	25.509	933.659	748.623
174.052	25.303	932.709	746.941
175.067	25.067	931.554	744.968
176.081	24.968	931.132	744.151
177.096	25.096	930.161	743.842
178.110	25.271	928.961	743.542
179.125	24.990	928.136	741.654
180.140	24.787	927.174	739.977
181.154	24.708	926.574	739.108
182.169	24.823	926.164	739.189
183.183	25.095	926.101	740.198
184.198	25.256	925.621	740.413
185.213	25.366	924.512	739.914
186.227	25.169	924.324	738.887
187.242	25.170	923.962	738.535
188.256	25.267	923.056	738.145
189.271	25.442	922.334	738.220
190.286	25.494	921.596	737.778
191.300	25.316	920.391	736.017
192.315	24.772	919.156	732.737
193.329	24.011	917.597	728.316
194.344	23.610	916.255	725.549
195.359	24.228	916.982	728.586
196.373	24.908	917.234	731.501
197.388	25.251	917.406	732.978
198.402	25.238	915.989	731.726
199.417	25.217	915.546	731.224
200.432	25.210	915.282	730.920
201.446	25.096	914.665	729.896
202.461	24.910	913.652	728.268
203.475	24.924	913.214	727.912
204.490	24.421	911.801	724.680
205.504	23.403	909.245	718.460
206.519	23.581	909.878	719.616
207.534	24.657	910.318	724.263
208.548	24.807	909.093	723.833
209.563	25.101	908.919	724.818
210.577	25.216	908.435	724.832
211.592	24.943	907.533	722.946
212.607	25.286	907.348	724.119
213.621	25.545	907.069	724.878
214.636	25.301	906.144	723.090
215.650	25.414	905.545	723.003
216.665	25.376	905.091	722.424
217.680	25.364	904.698	721.998
218.694	25.522	904.051	722.055
219.709	25.099	903.556	719.897
220.723	24.808	902.166	717.557
221.738	25.041	901.451	717.859
222.753	25.245	901.027	718.275
223.767	25.053	900.815	717.275
224.782	25.316	899.994	717.609
225.796	25.351	899.643	717.403
226.811	25.698	898.766	718.025
227.826	25.346	897.391	715.461
228.840	24.291	896.191	710.242
229.855	24.265	895.339	709.399
230.869	24.436	895.030	709.773
231.884	24.329	893.885	708.377
232.899	24.232	893.772	707.840
233.913	24.883	894.312	710.791
234.928	25.268	893.615	711.699
235.942	25.141	892.837	710.513
236.957	25.158	892.164	709.983
237.972	24.845	891.217	707.928
238.986	24.834	890.049	706.894
240.001	24.903	889.854	706.951
241.015	24.783	889.566	706.185
242.030	25.071	888.496	706.408
243.045	25.119	887.954	706.104
244.059	25.234	887.608	706.219
245.074	25.361	887.219	706.347
246.088	25.314	886.095	705.205
247.103	24.908	885.611	703.164
248.117	24.937	885.317	702.983
249.132	25.569	885.271	705.364
250.147	25.911	885.051	706.467
251.161	25.982	884.453	706.203
252.176	26.262	883.525	706.495
253.190	26.105	882.997	705.398
254.205	26.070	883.081	705.265
255.220	26.272	882.514	705.541
256.234	26.298	881.738	704.956
257.249	26.194	880.778	703.722
258.263	26.123	880.386	703.070
259.278	25.971	880.090	702.181
260.293	26.105	879.705	702.333
261.307	26.236	878.986	702.206
262.322	26.195	878.199	701.354
263.336	25.829	877.777	699.535
264.351	25.698	875.732	697.335
265.366	24.477	874.071	691.226
266.380	24.023	873.357	688.843
267.395	24.827	873.955	692.369
268.409	25.601	873.890	695.246
269.424	25.670	873.056	694.788
270.439	25.807	872.672	694.950
271.453	25.906	871.904	694.659
272.468	25.888	871.236	693.995
273.482	26.088	870.563	694.170
274.497	26.136	870.607	694.329
275.512	26.185	869.620	693.666
276.526	25.513	868.261	689.942
277.541	25.626	867.847	689.984
278.555	26.011	867.743	691.319
279.570	25.867	867.117	690.208
280.585	25.703	866.309	688.874
281.599	25.774	865.999	688.839
282.614	25.836	865.427	688.562
283.628	25.544	863.940	686.201
284.643	25.114	863.208	683.921
285.657	25.502	863.426	685.510
286.672	25.319	862.626	684.119
287.687	24.835	861.711	681.491
288.701	25.225	861.551	682.787
289.716	25.783	861.250	684.613
290.730	25.258	860.547	681.995
291.745	25.086	859.877	680.754
292.760	24.986	858.968	679.593
293.774	24.985	858.099	678.842
294.789	25.777	858.732	682.283
295.803	26.494	858.872	685.053
296.818	26.491	858.059	684.331
297.833	26.589	857.585	684.264
298.847	26.390	856.559	682.631
299.862	25.943	855.784	680.267
300.876	26.179	855.632	680.976
301.891	26.416	855.463	681.675
302.906	26.464	854.658	681.155
303.920	26.131	853.338	678.790
304.935	26.049	852.682	677.901
305.949	26.422	852.649	679.214
306.964	26.519	852.369	679.298
307.979	26.353	851.272	677.738
308.993	26.235	850.982	677.007
310.008	26.443	850.624	677.440
311.022	26.731	850.157	678.086
312.037	26.452	849.536	676.489
313.052	26.295	848.966	675.387
314.066	26.079	848.379	674.055
315.081	25.443	846.715	670.303
316.095	24.736	845.380	666.550
317.110	25.191	845.629	668.384
318.125	26.366	845.601	672.679
319.139	25.840	844.492	669.780
320.154	24.631	843.020	664.064
321.168	24.018	842.242	661.114
322.183	24.823	842.370	664.148
323.197	25.659	842.975	667.667
324.212	25.901	842.522	668.147
325.227	26.145	842.207	668.743
326.241	26.230	842.189	668.984
327.256	26.211	841.044	667.944
328.270	25.928	841.018	666.818
329.285	25.912	840.289	666.125
330.300	25.829	839.099	664.814
331.314	25.473	838.591	663.042
332.329	25.664	837.827	663.081
333.343	26.141	837.454	664.484
334.358	26.224	837.403	664.691
335.373	26.396	836.467	664.521
336.387	26.321	836.047	663.852
337.402	26.515	835.985	664.458
338.416	26.839	835.411	665.132
339.431	26.646	835.166	664.169
340.446	26.803	834.500	664.157
341.460	26.919	834.050	664.162
342.475	26.868	833.279	663.303
343.489	26.705	833.005	662.432
344.504	26.740	832.000	661.700
345.519	26.968	832.098	662.554
346.533	27.232	831.373	662.878
347.548	27.218	831.054	662.518
348.562	27.299	830.577	662.371
349.577	27.145	830.022	661.309
350.592	27.105	829.613	660.781
351.606	27.030	829.088	660.033
352.621	27.031	828.439	659.460
353.635	26.837	828.218	658.520
354.650	26.893	827.222	657.873
355.665	26.585	826.112	655.817
356.679	25.484	824.837	650.763
357.694	25.352	824.571	650.019
358.708	26.274	824.296	653.077
359.723	25.967	823.947	651.633
360.738	26.414	823.362	652.728
361.752	26.674	823.438	653.670
362.767	26.799	823.249	653.912
363.781	27.134	823.100	654.945
364.796	27.417	822.676	655.567
365.810	27.506	822.214	655.463
366.825	27.606	822.017	655.604
367.840	27.579	821.831	655.304
368.854	27.358	821.241	653.979
369.869	26.885	820.228	651.419
370.883	26.727	819.837	650.483
371.898	27.149	818.458	650.842
372.913	26.996	817.946	649.829
373.927	26.874	817.471	648.960
374.942	26.904	817.093	648.708
375.956	27.072	816.888	649.088
376.971	27.256	815.977	648.965
377.986	27.381	815.514	648.983
379.000	27.475	815.553	649.293
380.015	27.477	814.929	648.747
381.029	27.095	814.522	647.002
382.044	27.213	813.460	646.522
383.059	27.459	812.858	646.863
384.073	27.581	812.389	646.865
385.088	27.541	811.938	646.306
386.102	27.459	811.300	645.449
387.117	27.309	810.753	644.425
388.132	27.121	810.274	643.324
389.146	27.058	809.459	642.396
390.161	26.545	808.215	639.541
391.175	26.573	808.262	639.622
392.190	27.198	808.068	641.617
393.205	27.178	807.745	641.232
394.219	26.022	806.370	636.009
395.234	24.603	803.651	628.819
396.248	23.706	802.761	624.912
397.263	24.839	803.903	629.735
398.278	26.448	804.833	636.071
399.292	27.106	804.933	638.407
400.307	26.806	804.269	636.770
401.321	26.658	804.040	636.014
402.336	26.814	803.371	635.976
403.350	27.023	803.631	636.858
404.365	27.530	803.459	638.443
405.380	27.775	802.977	638.860
406.394	28.003	802.938	639.572
407.409	28.294	802.103	639.868
408.423	28.337	801.498	639.477
409.438	28.188	801.381	638.806
410.453	28.045	801.092	638.022
411.467	28.165	800.615	638.002
412.482	27.973	800.169	636.922
413.496	28.062	799.381	636.550
414.511	28.111	799.047	636.397
415.526	28.271	798.672	636.599
416.540	28.271	798.642	636.519
417.555	28.081	798.199	635.448
418.569	27.857	797.170	633.797
419.584	27.687	796.541	632.651
420.599	27.893	796.058	632.923
421.613	109.645	1283.433	1450.858
422.628	94.422	1354.452	1450.981
