DTS Sentinel unit serial number:	SN413079Multiplexer serial number:	ORYXHardware model number:	OX4-SRSoftware version number:	ORYX F/W v4.00 Oryx Data Collector v3.7.2.0data status	okinstallation	princeton_trtdifferential loss correction	single-endedforward channel	channel 3reverse channel	N/Adate	2019/09/18time	03:48:34forward acquisition time	60.00reverse acquisition time	0.00gamma	496.2192k internal	0.2343k external	0.2343temperature offset calibration	0.9946default loss term (dB/km)	0.3790temperature slope calibration	1.0000multiplexer offset coefficient	1.0000multiplexer slope coefficient	1.0000fibre end	0.00T internal ref (°C)	23.00T ext. ref 1 (°C)	0.17T ext. ref 2 (°C)	18.09length (m)	temperature (°C)	Stokes	anti-Stokes-747.200	-56.033	0.239	0.107
-746.185	-153.895	-0.171	-0.012
-745.171	124.718	0.205	0.259
-744.156	-11.924	0.035	0.023
-743.142	800.000	0.096	0.292
-742.127	-172.712	-0.306	-0.010
-741.112	-149.804	0.342	-0.027
-740.098	800.000	0.045	0.154
-739.083	-63.972	0.156	-0.064
-738.069	-155.901	-0.349	-0.022
-737.054	-84.703	-0.247	0.078
-736.039	-150.808	-0.496	0.038
-735.025	-200.000	0.018	0.191
-734.010	800.000	0.061	-0.244
-732.996	-106.591	-0.470	0.105
-731.981	-200.000	-0.057	0.289
-730.966	-94.284	0.086	0.023
-729.952	67.762	-0.331	0.339
-728.937	-200.000	0.000	-0.023
-727.923	80.948	-0.269	-0.290
-726.908	86.633	-0.037	0.040
-725.894	167.483	0.209	-0.297
-724.879	88.292	0.082	-0.091
-723.864	28.998	0.112	-0.095
-722.850	294.411	-0.135	-0.247
-721.835	139.295	0.189	0.249
-720.821	-200.000	0.062	-0.320
-719.806	-142.709	0.073	-0.007
-718.791	-158.996	-0.322	-0.018
-717.777	800.000	-0.022	0.086
-716.762	614.466	-0.061	0.153
-715.748	169.983	-0.087	-0.124
-714.733	780.834	-0.080	0.220
-713.718	-107.793	-0.124	0.027
-712.704	-164.982	-0.323	-0.014
-711.689	230.200	0.270	-0.442
-710.675	-11.536	0.207	-0.136
-709.660	338.411	0.074	0.144
-708.645	289.116	-0.065	0.117
-707.631	22.252	-0.120	-0.098
-706.616	752.315	-0.192	-0.518
-705.602	-200.000	-0.014	0.168
-704.587	197.959	-0.254	-0.388
-703.572	800.000	0.055	-0.169
-702.558	-49.763	0.088	-0.042
-701.543	5.265	-0.074	0.055
-700.529	-200.000	-0.037	-0.276
-699.514	-98.385	-0.458	0.117
-698.499	-95.277	-0.082	0.022
-697.485	54.028	0.079	0.076
-696.470	-98.135	0.343	0.088
-695.456	-71.356	-0.115	0.043
-694.441	-52.299	0.269	0.125
-693.426	-46.139	-0.221	-0.109
-692.412	800.000	0.033	-0.128
-691.397	-200.000	-0.027	-0.151
-690.383	-162.628	0.317	-0.016
-689.368	-111.228	-0.110	0.023
-688.354	-200.000	0.022	0.135
-687.339	800.000	0.041	0.140
-686.324	192.012	0.077	-0.117
-685.310	-42.642	-0.239	-0.121
-684.295	-167.961	0.027	-0.001
-683.281	-23.540	-0.356	-0.214
-682.266	410.184	-0.085	0.181
-681.251	44.478	-0.196	0.180
-680.237	-139.776	0.034	-0.004
-679.222	237.867	-0.217	-0.359
-678.208	117.687	-0.136	0.167
-677.193	20.777	-0.140	0.113
-676.178	-119.693	0.094	0.016
-675.164	-65.981	0.371	-0.148
-674.149	-108.032	0.237	0.051
-673.135	742.910	-0.052	-0.139
-672.120	630.713	-0.120	-0.304
-671.105	-200.000	-0.061	0.404
-670.091	122.149	0.115	0.144
-669.076	-26.924	-0.245	0.143
-668.062	-76.578	0.476	0.167
-667.047	-200.000	-0.020	0.095
-666.032	5.854	0.135	-0.100
-665.018	800.000	0.069	-0.297
-664.003	-200.000	-0.017	0.184
-662.989	-200.000	0.042	-0.276
-661.974	36.264	-0.264	-0.232
-660.959	800.000	-0.091	-0.376
-659.945	665.607	0.063	-0.162
-658.930	-88.207	0.182	-0.054
-657.916	10.913	0.142	-0.108
-656.901	-200.000	0.066	-0.542
-655.886	-200.000	-0.025	0.141
-654.872	-127.560	-0.140	-0.020
-653.857	46.835	-0.131	-0.121
-652.843	-45.552	0.345	-0.171
-651.828	-154.107	0.213	-0.014
-650.814	-88.799	-0.164	0.049
-649.799	783.481	0.015	0.042
-648.784	-169.206	0.232	-0.009
-647.770	-33.558	-0.285	-0.157
-646.755	571.638	-0.045	0.108
-645.741	-200.000	-0.008	-0.173
-644.726	28.975	-0.069	-0.058
-643.711	-82.263	-0.212	-0.069
-642.697	269.032	-0.190	0.333
-641.682	-98.234	-0.191	-0.049
-640.668	215.881	-0.086	0.136
-639.653	394.640	-0.073	0.151
-638.638	-79.397	-0.130	0.044
-637.624	-31.060	-0.072	0.040
-636.609	-123.532	-0.195	-0.031
-635.595	-31.027	0.241	0.136
-634.580	379.835	-0.093	0.190
-633.565	43.919	0.078	-0.072
-632.551	140.443	0.097	-0.127
-631.536	800.000	-0.054	-0.218
-630.522	-27.168	-0.248	-0.144
-629.507	-200.000	-0.006	0.321
-628.492	-46.770	-0.291	-0.142
-627.478	-144.516	0.207	0.019
-626.463	-44.371	-0.226	-0.113
-625.449	-116.607	-0.101	-0.019
-624.434	-72.901	0.097	-0.036
-623.419	177.814	-0.170	-0.246
-622.405	-120.759	-0.131	-0.022
-621.390	348.490	0.118	-0.233
-620.376	394.400	-0.123	0.255
-619.361	144.771	-0.171	-0.228
-618.346	-14.828	0.128	0.082
-617.332	137.374	0.244	0.318
-616.317	-197.108	0.203	-0.001
-615.303	-200.000	-0.010	0.168
-614.288	246.072	-0.058	-0.098
-613.273	18.229	-0.213	0.169
-612.259	800.000	0.068	-0.252
-611.244	-134.142	-0.223	-0.027
-610.230	-200.000	0.019	-0.164
-609.215	18.040	0.143	-0.114
-608.201	-200.000	-0.044	0.232
-607.186	-200.000	0.022	-0.142
-606.171	-27.252	0.171	0.099
-605.157	-79.889	-0.180	-0.060
-604.142	-200.000	0.011	0.235
-603.128	-200.000	-0.000	0.087
-602.113	-113.520	-0.312	0.061
-601.098	-200.000	0.081	0.359
-600.084	-55.687	0.377	-0.168
-599.069	107.250	0.175	-0.208
-598.055	-200.000	0.027	-0.189
-597.040	80.324	0.065	-0.069
-596.025	4.553	0.235	-0.172
-595.011	189.186	-0.155	-0.232
-593.996	-4.875	-0.060	0.041
-592.982	-40.617	-0.101	-0.052
-591.967	-180.758	0.214	0.004
-590.952	37.451	-0.280	0.247
-589.938	-122.070	-0.049	-0.008
-588.923	28.244	0.307	-0.258
-587.909	-200.000	0.016	0.167
-586.894	-99.223	0.238	0.060
-585.879	800.000	0.057	0.186
-584.865	-200.000	-0.011	0.120
-583.850	800.000	-0.055	0.202
-582.836	-3.380	-0.240	0.166
-581.821	-200.000	-0.103	-0.517
-580.806	339.793	0.133	-0.258
-579.792	800.000	-0.031	0.123
-578.777	-137.063	-0.338	0.038
-577.763	-99.850	0.186	-0.046
-576.748	431.949	-0.080	-0.173
-575.733	11.924	-0.143	-0.109
-574.719	63.741	0.134	-0.134
-573.704	-103.609	0.135	-0.031
-572.690	87.859	-0.065	0.071
-571.675	-4.126	0.309	0.213
-570.661	-167.325	-0.138	-0.006
-569.646	461.767	0.169	0.374
-568.631	219.102	0.090	0.143
-567.617	388.600	0.142	0.293
-566.602	-150.875	-0.148	-0.011
-565.588	96.290	-0.228	-0.259
-564.573	143.189	-0.034	0.045
-563.558	-62.964	-0.302	0.124
-562.544	-2.172	-0.101	0.071
-561.529	-200.000	-0.005	0.158
-560.515	653.547	0.043	-0.110
-559.500	203.344	-0.074	0.114
-558.485	65.544	0.122	-0.123
-557.471	22.498	0.207	0.168
-556.456	532.707	0.097	-0.228
-555.442	339.818	0.054	-0.104
-554.427	229.003	-0.078	-0.126
-553.412	177.903	-0.104	-0.150
-552.398	9.905	-0.309	0.233
-551.383	800.000	-0.031	-0.126
-550.369	63.553	0.041	-0.041
-549.354	-200.000	-0.029	0.274
-548.339	-200.000	0.014	-0.212
-547.325	800.000	-0.107	-0.345
-546.310	48.151	-0.182	-0.170
-545.296	125.212	-0.092	0.116
-544.281	800.000	0.045	-0.174
-543.266	18.249	0.202	0.160
-542.252	-200.000	-0.044	0.426
-541.237	-7.022	-0.265	-0.179
-540.223	-200.000	0.035	0.234
-539.208	-8.248	-0.030	-0.020
-538.193	11.019	0.076	0.058
-537.179	-21.309	0.217	0.132
-536.164	-153.015	0.200	-0.014
-535.150	-200.000	0.011	0.144
-534.135	191.898	0.084	-0.126
-533.121	-200.000	0.058	-0.328
-532.106	800.000	-0.130	0.382
-531.091	28.533	0.173	0.145
-530.077	-200.000	0.010	-0.209
-529.062	295.969	0.116	0.210
-528.048	-200.000	0.023	0.175
-527.033	-140.647	0.076	-0.008
-526.018	496.263	-0.010	0.023
-525.004	-65.971	-0.305	-0.121
-523.989	800.000	0.063	0.227
-522.975	272.530	0.110	0.193
-521.960	-131.126	-0.139	0.018
-520.945	34.279	-0.406	-0.352
-519.931	-111.785	-0.226	-0.045
-518.916	-97.829	0.164	0.042
-517.902	-26.198	-0.191	0.112
-516.887	35.500	-0.115	0.100
-515.872	28.829	0.170	-0.143
-514.858	150.497	-0.200	0.269
-513.843	-45.589	0.394	-0.194
-512.829	-200.000	-0.011	-0.102
-511.814	237.020	-0.122	-0.201
-510.799	800.000	-0.062	-0.245
-509.785	40.651	0.121	0.108
-508.770	-13.066	-0.358	0.231
-507.756	500.766	0.068	-0.156
-506.741	-200.000	-0.001	-0.075
-505.726	800.000	0.143	-0.443
-504.712	-130.617	-0.108	-0.014
-503.697	311.221	0.103	0.192
-502.683	-182.976	-0.220	0.004
-501.668	557.764	0.057	-0.136
-500.653	-200.000	0.017	-0.261
-499.639	230.426	0.091	0.148
-498.624	113.552	0.100	-0.120
-497.610	58.728	0.162	0.157
-496.595	477.207	0.047	-0.105
-495.581	400.779	0.129	0.268
-494.566	112.291	-0.189	-0.227
-493.551	56.776	-0.224	-0.216
-492.537	176.260	0.219	-0.315
-491.522	-18.944	-0.347	-0.214
-490.508	92.182	0.221	0.247
-489.493	53.084	0.289	0.274
-488.478	800.000	-0.066	0.233
-487.464	366.149	-0.058	0.116
-486.449	74.200	-0.166	-0.172
-485.435	-200.000	0.015	-0.097
-484.420	535.894	-0.073	0.172
-483.405	43.404	-0.196	0.177
-482.391	-149.604	0.253	0.020
-481.376	-108.863	0.081	0.017
-480.362	-61.028	0.147	0.062
-479.347	203.697	-0.033	-0.050
-478.332	800.000	-0.037	-0.142
-477.318	-150.394	-0.118	0.009
-476.303	-110.597	-0.293	0.060
-475.289	-12.784	0.052	-0.034
-474.274	-120.189	-0.356	-0.060
-473.259	327.079	0.203	-0.385
-472.245	257.530	0.186	-0.317
-471.230	783.585	-0.035	0.094
-470.216	136.728	0.212	0.274
-469.201	-200.000	0.008	0.073
-468.186	187.881	0.074	-0.109
-467.172	41.595	0.315	-0.283
-466.157	-12.103	-0.158	-0.102
-465.143	-81.053	0.183	-0.060
-464.128	45.832	0.101	-0.093
-463.113	-127.290	0.419	-0.061
-462.099	103.242	0.029	0.033
-461.084	267.658	0.164	0.284
-460.070	-200.000	-0.019	0.230
-459.055	-200.000	0.021	0.230
-458.040	205.529	0.102	0.158
-457.026	800.000	-0.058	-0.161
-456.011	-124.375	-0.339	0.052
-454.997	-128.309	0.261	0.037
-453.982	-61.552	0.311	0.129
-452.968	116.927	0.219	-0.266
-451.953	-115.913	-0.329	0.061
-450.938	-53.617	-0.166	0.075
-449.924	-98.009	0.231	-0.059
-448.909	-57.946	-0.618	-0.267
-447.895	800.000	-0.018	-0.056
-446.880	111.731	-0.250	0.298
-445.865	-164.399	-0.140	-0.006
-444.851	-48.605	0.013	0.006
-443.836	800.000	-0.033	0.115
-442.822	289.419	-0.067	-0.121
-441.807	20.312	0.055	-0.044
-440.792	-12.596	-0.129	0.083
-439.778	-170.609	-0.260	0.009
-438.763	800.000	-0.117	-0.390
-437.749	72.302	-0.196	-0.202
-436.734	788.324	-0.033	-0.090
-435.719	229.134	-0.041	-0.067
-434.705	72.179	0.079	0.081
-433.690	-61.473	0.069	-0.029
-432.676	-200.000	-0.039	0.300
-431.661	304.234	-0.032	-0.058
-430.646	-48.148	0.337	-0.161
-429.632	-4.614	0.224	0.153
-428.617	-155.032	-0.082	0.005
-427.603	-0.240	0.291	-0.205
-426.588	146.911	-0.087	-0.116
-425.573	-200.000	-0.021	-0.265
-424.559	-171.608	-0.128	-0.004
-423.544	-97.574	-0.172	0.044
-422.530	421.246	-0.114	-0.243
-421.515	218.444	0.050	0.079
-420.500	-200.000	0.005	-0.073
-419.486	143.796	0.236	0.311
-418.471	-200.000	0.047	0.328
-417.457	-161.354	-0.057	-0.003
-416.442	8.325	-0.294	-0.218
-415.428	-39.548	-0.311	-0.161
-414.413	-11.470	0.344	0.224
-413.398	26.019	-0.130	-0.107
-412.384	800.000	-0.138	-0.542
-411.369	-200.000	0.025	0.277
-410.355	-10.787	0.257	0.168
-409.340	167.092	-0.073	0.102
-408.325	-50.584	0.008	-0.004
-407.311	49.051	0.104	-0.096
-406.296	-55.050	0.174	0.078
-405.282	-119.417	-0.171	-0.029
-404.267	-61.698	0.225	-0.093
-403.252	-200.000	-0.003	0.082
-402.238	-50.202	-0.122	0.057
-401.223	392.744	-0.022	0.046
-400.209	292.805	-0.052	-0.093
-399.194	47.586	-0.135	-0.124
-398.179	-41.335	0.251	-0.128
-397.165	35.048	0.118	0.103
-396.150	-51.590	-0.537	-0.248
-395.136	52.779	0.408	-0.385
-394.121	-46.727	-0.257	-0.124
-393.106	800.000	0.074	-0.255
-392.092	-14.757	-0.146	-0.093
-391.077	800.000	0.038	-0.120
-390.063	9.955	-0.359	0.269
-389.048	-67.071	0.182	0.071
-388.033	370.107	0.112	-0.225
-387.019	-200.000	-0.014	0.146
-386.004	453.319	-0.180	0.393
-384.990	-200.000	-0.015	-0.216
-383.975	-200.000	0.004	-0.133
-382.960	297.404	-0.077	-0.140
-381.946	-101.501	-0.094	0.023
-380.931	-10.973	-0.067	0.044
-379.917	800.000	0.029	-0.111
-378.902	-112.309	-0.290	0.057
-377.888	95.206	-0.231	-0.260
-376.873	-200.000	0.013	-0.207
-375.858	-184.560	0.296	0.005
-374.844	-200.000	0.015	-0.117
-373.829	-63.958	0.113	-0.046
-372.815	-200.000	0.033	-0.280
-371.800	-200.000	0.001	0.069
-370.785	-46.474	0.258	-0.125
-369.771	545.817	-0.016	0.039
-368.756	-200.000	0.024	-0.404
-367.742	60.375	-0.082	-0.080
-366.727	-47.719	-0.081	0.039
-365.712	-200.000	0.031	0.196
-364.698	262.670	-0.151	-0.258
-363.683	-29.149	0.152	0.086
-362.669	800.000	0.065	0.231
-361.654	318.521	0.126	0.236
-360.639	-2.151	-0.136	-0.094
-359.625	-157.979	-0.136	-0.008
-358.610	-53.656	-0.043	0.019
-357.596	800.000	0.025	-0.082
-356.581	-105.476	-0.132	-0.029
-355.566	508.806	0.030	-0.068
-354.552	4.746	0.213	-0.155
-353.537	-153.966	-0.247	0.017
-352.523	409.617	0.146	-0.305
-351.508	800.000	0.051	-0.217
-350.493	-200.000	-0.036	0.202
-349.479	-200.000	0.006	0.200
-348.464	-200.000	0.059	0.307
-347.450	800.000	0.116	0.395
-346.435	141.347	0.174	0.227
-345.420	87.340	-0.170	0.185
-344.406	-200.000	-0.054	0.303
-343.391	-17.492	0.207	0.129
-342.377	-152.579	0.106	0.007
-341.362	495.104	0.050	-0.114
-340.348	800.000	-0.064	0.236
-339.333	-200.000	0.014	-0.068
-338.318	-200.000	-0.083	0.480
-337.304	-200.000	0.013	-0.059
-336.289	-142.019	0.284	-0.028
-335.275	-47.564	-0.168	0.080
-334.260	624.665	-0.184	-0.458
-333.245	-200.000	-0.012	-0.381
-332.231	-200.000	-0.008	0.133
-331.216	135.099	0.181	-0.232
-330.202	-200.000	-0.015	0.113
-329.187	-200.000	0.008	0.251
-328.172	199.762	0.143	-0.216
-327.158	-127.119	0.015	0.002
-326.143	266.714	0.046	0.079
-325.129	108.217	0.217	-0.255
-324.114	-200.000	0.022	-0.128
-323.099	800.000	0.041	0.152
-322.085	800.000	-0.030	-0.092
-321.070	281.963	-0.086	-0.152
-320.056	800.000	-0.064	-0.207
-319.041	-108.313	0.310	-0.066
-318.026	164.294	-0.127	0.176
-317.012	-200.000	0.004	0.168
-315.997	-200.000	0.037	0.263
-314.983	-200.000	0.007	-0.198
-313.968	173.748	0.207	-0.294
-312.953	346.187	-0.043	0.083
-311.939	102.462	0.140	0.161
-310.924	84.955	-0.200	0.216
-309.910	-71.628	0.326	0.120
-308.895	21.074	0.278	0.222
-307.880	-200.000	-0.013	0.139
-306.866	800.000	0.032	0.098
-305.851	277.324	-0.068	0.120
-304.837	64.529	0.126	-0.125
-303.822	44.933	0.161	0.146
-302.807	-200.000	-0.001	0.206
-301.793	800.000	0.085	0.274
-300.778	87.875	-0.164	0.179
-299.764	-92.322	-0.141	0.039
-298.749	-53.517	0.187	-0.084
-297.735	74.503	-0.140	-0.145
-296.720	46.142	0.324	-0.295
-295.705	-200.000	0.011	-0.206
-294.691	-200.000	0.016	0.144
-293.676	-200.000	0.031	-0.249
-292.662	-165.252	-0.235	0.010
-291.647	-200.000	0.021	0.340
-290.632	646.386	-0.096	-0.240
-289.618	-10.016	0.260	0.170
-288.603	81.142	-0.284	-0.301
-287.589	528.742	0.118	-0.273
-286.574	80.400	0.126	0.133
-285.559	6.249	-0.190	0.138
-284.545	-136.163	0.179	0.021
-283.530	-200.000	0.003	-0.037
-282.516	-200.000	0.010	0.219
-281.501	286.349	0.086	0.153
-280.486	-200.000	-0.007	-0.078
-279.472	-62.884	0.270	0.110
-278.457	102.716	-0.121	0.139
-277.443	-6.004	0.180	0.121
-276.428	-200.000	-0.033	0.163
-275.413	-171.383	-0.098	-0.003
-274.399	-5.681	0.151	0.102
-273.384	-200.000	-0.021	-0.213
-272.370	-26.315	-0.148	-0.085
-271.355	-157.033	-0.258	0.015
-270.340	-112.992	-0.307	-0.060
-269.326	79.577	0.063	0.066
-268.311	-36.768	0.309	0.163
-267.297	-107.063	0.280	0.061
-266.282	-44.444	0.050	-0.025
-265.267	68.588	0.125	-0.126
-264.253	800.000	-0.056	0.206
-263.238	-200.000	0.003	-0.203
-262.224	-200.000	-0.005	-0.179
-261.209	-111.908	-0.233	0.046
-260.195	339.014	-0.118	0.226
-259.180	-75.644	-0.076	-0.027
-258.165	-200.000	0.012	0.115
-257.151	-200.000	0.003	0.367
-256.136	-58.161	-0.202	0.086
-255.122	52.945	-0.177	0.166
-254.107	-200.000	0.117	0.630
-253.092	109.561	-0.156	0.184
-252.078	-124.946	-0.161	-0.024
-251.063	370.294	0.050	-0.099
-250.049	800.000	-0.060	-0.195
-249.034	605.537	0.042	0.103
-248.019	-200.000	-0.026	-0.123
-247.005	65.523	-0.147	0.146
-245.990	12.853	0.122	0.093
-244.976	-97.424	-0.094	-0.024
-243.961	-115.278	-0.234	-0.043
-242.946	-104.741	0.164	0.037
-241.932	-134.668	0.363	0.043
-240.917	98.081	0.093	0.105
-239.903	772.857	0.032	0.087
-238.888	540.274	-0.046	0.107
-237.873	-61.415	-0.231	-0.096
-236.859	-35.466	-0.302	-0.161
-235.844	88.708	-0.116	0.127
-234.830	64.555	0.067	0.066
-233.815	-11.700	0.216	-0.139
-232.800	-60.045	-0.227	-0.095
-231.786	-56.423	-0.318	0.138
-230.771	-75.587	-0.261	-0.091
-229.757	778.357	-0.073	-0.195
-228.742	225.457	-0.124	0.197
-227.727	-200.000	0.033	-0.192
-226.713	66.821	0.248	0.247
-225.698	-200.000	-0.012	0.469
-224.684	26.809	0.452	-0.372
-223.669	32.891	-0.084	-0.071
-222.655	800.000	0.081	0.315
-221.640	-200.000	-0.004	0.114
-220.625	28.273	-0.162	0.134
-219.611	-200.000	-0.057	0.258
-218.596	-63.662	-0.060	-0.024
-217.582	800.000	0.029	-0.108
-216.567	483.493	0.187	0.416
-215.552	-60.491	0.275	-0.115
-214.538	-30.746	-0.153	-0.085
-213.523	41.036	0.023	-0.020
-212.509	-200.000	0.006	-0.043
-211.494	87.118	-0.190	0.206
-210.479	-122.882	0.285	0.045
-209.465	-82.546	-0.300	-0.095
-208.450	-25.001	0.207	-0.121
-207.436	-52.917	0.175	-0.079
-206.421	141.502	-0.213	-0.276
-205.406	9.057	0.054	-0.040
-204.392	154.111	0.188	0.253
-203.377	800.000	-0.085	0.238
-202.363	283.974	0.182	0.322
-201.348	6.746	0.392	0.286
-200.333	-200.000	-0.091	-0.574
-199.319	-180.175	-0.260	-0.005
-198.304	196.676	0.100	-0.149
-197.290	93.810	0.221	-0.246
-196.275	128.047	-0.339	-0.422
-195.260	-9.426	-0.063	-0.041
-194.246	90.016	-0.244	-0.268
-193.231	-23.450	-0.193	0.114
-192.217	-80.220	0.288	0.095
-191.202	-19.002	0.081	0.050
-190.187	90.732	0.118	-0.129
-189.173	40.507	0.032	0.028
-188.158	-15.264	0.063	-0.039
-187.144	-200.000	0.002	0.211
-186.129	-200.000	-0.001	0.348
-185.114	-63.469	0.278	-0.112
-184.100	-71.354	0.169	-0.062
-183.085	353.375	-0.096	-0.187
-182.071	-50.863	0.355	0.164
-181.056	-104.050	0.138	-0.031
-180.042	88.626	-0.184	0.200
-179.027	358.532	0.068	0.132
-178.012	-200.000	0.035	-0.304
-176.998	-14.660	0.273	-0.172
-175.983	-77.674	-0.143	-0.049
-174.969	753.163	0.044	-0.116
-173.954	-200.000	-0.024	-0.165
-172.939	-1.498	0.136	-0.094
-171.925	-69.458	-0.176	-0.066
-170.910	0.210	-0.330	0.231
-169.896	-105.415	-0.099	-0.022
-168.881	-200.000	-0.010	-0.057
-167.866	748.053	0.042	-0.111
-166.852	-161.012	0.159	-0.008
-165.837	534.102	-0.072	-0.168
-164.823	-90.571	0.240	0.068
-163.808	-73.770	0.071	0.025
-162.793	-68.311	0.083	0.031
-161.779	800.000	-0.045	0.159
-160.764	21.594	0.110	0.088
-159.750	-0.191	-0.178	0.124
-158.735	-200.000	0.019	0.191
-157.720	-102.949	0.080	-0.019
-156.706	800.000	0.051	-0.209
-155.691	-156.995	-0.198	-0.012
-154.677	-15.157	0.126	-0.079
-153.662	-200.000	-0.055	-0.340
-152.647	-200.000	-0.169	0.000
-151.633	-180.206	0.467	-0.010
-150.618	13.114	-0.146	-0.111
-149.604	-200.000	-0.021	0.243
-148.589	24.697	-0.215	0.174
-147.574	-67.783	0.105	0.040
-146.560	338.841	0.144	0.274
-145.545	180.654	0.121	0.174
-144.531	-113.235	0.204	0.039
-143.516	86.385	-0.100	-0.108
-142.502	-94.360	0.242	0.065
-141.487	-49.598	0.309	0.144
-140.472	-34.264	0.042	0.023
-139.458	204.133	-0.022	0.033
-138.443	-200.000	0.031	0.210
-137.429	800.000	0.174	0.521
-136.414	-65.687	0.273	-0.107
-135.399	17.369	0.038	-0.029
-134.385	-142.260	-0.164	-0.016
-133.370	318.495	0.122	-0.227
-132.356	-71.740	0.284	0.103
-131.341	9.774	-0.083	0.062
-130.326	55.460	0.145	-0.138
-129.312	-37.930	0.241	0.125
-128.297	800.000	-0.086	-0.296
-127.283	-94.645	-0.381	0.101
-126.268	753.331	-0.069	-0.183
-125.253	6.980	-0.081	-0.059
-124.239	242.942	0.151	-0.247
-123.224	148.388	-0.109	0.144
-122.210	93.194	-0.110	-0.122
-121.195	189.814	-0.150	-0.220
-120.180	25.817	0.343	0.280
-119.166	153.179	-0.050	0.067
-118.151	-200.000	-0.019	-0.098
-117.137	-200.000	0.051	-0.308
-116.122	-200.000	-0.010	0.122
-115.107	218.339	0.126	0.196
-114.093	800.000	0.037	-0.136
-113.078	800.000	0.033	-0.091
-112.064	-200.000	0.026	0.124
-111.049	-200.000	0.007	-0.060
-110.034	125.070	-0.097	0.119
-109.020	171.343	-0.148	-0.207
-108.005	-200.000	-0.005	0.048
-106.991	-109.959	0.193	-0.040
-105.976	59.040	0.235	0.226
-104.962	494.356	0.125	-0.280
-103.947	61.349	0.025	0.025
-102.932	15.681	-0.136	0.104
-101.918	-94.423	0.228	-0.061
-100.903	-8.576	-0.124	0.081
-99.889	259.966	-0.128	0.215
-98.874	800.000	0.047	0.183
-97.859	-101.795	-0.146	-0.034
-96.845	-52.802	-0.259	0.116
-95.830	459.315	-0.136	0.296
-94.816	698.797	-0.086	-0.222
-93.801	-54.477	0.306	0.135
-92.786	-83.726	-0.301	-0.094
-91.772	-80.208	-0.102	0.033
-90.757	800.000	-0.050	0.186
-89.743	101.873	0.042	0.047
-88.728	-161.035	-0.102	0.005
-87.713	500.123	-0.009	-0.021
-86.699	51.198	0.136	0.126
-85.684	57.544	0.016	0.015
-84.670	174.749	-0.230	0.325
-83.655	292.288	0.123	0.219
-82.640	800.000	0.095	-0.309
-81.626	-200.000	0.016	0.146
-80.611	534.248	0.071	0.164
-79.597	95.824	0.168	0.187
-78.582	389.861	-0.041	0.083
-77.567	800.000	0.075	0.264
-76.553	-200.000	0.014	-0.344
-75.538	-75.110	-0.160	0.056
-74.524	-25.877	-0.198	-0.114
-73.509	-123.892	0.238	-0.037
-72.494	11.343	-0.160	-0.120
-71.480	71.967	-0.097	0.099
-70.465	71.298	0.059	-0.060
-69.451	35.424	0.127	-0.109
-68.436	-186.598	-0.324	0.004
-67.422	602.765	0.119	0.289
-66.407	26.352	0.052	0.042
-65.392	451.342	0.020	-0.042
-64.378	-38.805	0.255	-0.131
-63.363	-200.000	-0.026	-0.321
-62.349	303.108	0.224	-0.404
-61.334	15.150	-1.201	-0.917
-60.319	120.086	0.847	1.025
-59.305	-200.000	-0.285	-1.371
-58.290	318.534	0.806	1.488
-57.276	610.803	0.666	1.623
-56.261	-200.000	124.802	651.991
-55.246	412.575	1577.587	3267.718
-54.232	141.871	2736.362	3535.230
-53.217	94.694	2186.067	2422.669
-52.203	33.440	1702.231	1440.722
-51.188	26.019	1519.842	1235.683
-50.173	24.139	1495.590	1203.235
-49.159	49.085	1567.401	1434.893
-48.144	45.687	1580.207	1423.006
-47.130	26.131	1528.859	1243.590
-46.115	23.242	1512.855	1210.799
-45.100	23.016	1509.422	1206.463
-44.086	23.058	1507.664	1205.294
-43.071	22.900	1505.995	1202.837
-42.057	22.924	1503.899	1201.280
-41.042	23.051	1502.005	1200.575
-40.027	22.929	1501.102	1198.978
-39.013	22.911	1499.632	1197.641
-37.998	22.929	1498.387	1196.717
-36.984	22.890	1497.488	1195.690
-35.969	23.024	1495.767	1195.175
-34.954	23.004	1494.081	1193.645
-33.940	22.871	1493.332	1192.101
-32.925	22.982	1491.910	1191.667
-31.911	22.900	1490.967	1190.312
-30.896	23.092	1489.495	1190.381
-29.881	23.125	1487.845	1189.235
-28.867	23.184	1486.083	1188.178
-27.852	23.068	1485.350	1186.769
-26.838	23.095	1483.464	1185.396
-25.823	23.052	1482.112	1183.982
-24.809	22.966	1480.774	1182.286
-23.794	23.104	1479.123	1181.842
-22.779	23.045	1478.288	1180.736
-21.765	23.007	1476.699	1179.164
-20.750	23.059	1476.023	1178.930
-19.736	22.996	1474.919	1177.577
-18.721	23.063	1473.324	1176.703
-17.706	23.080	1472.562	1176.160
-16.692	22.961	1471.465	1174.448
-15.677	22.965	1470.796	1173.898
-14.663	23.078	1469.146	1173.280
-13.648	22.995	1468.851	1172.450
-12.633	22.939	1467.942	1171.305
-11.619	22.940	1467.099	1170.591
-10.604	22.917	1466.267	1169.731
-9.590	22.928	1465.170	1168.880
-8.575	23.007	1464.160	1168.550
-7.560	23.052	1463.138	1167.986
-6.546	23.042	1462.531	1167.391
-5.531	22.961	1461.807	1166.232
-4.517	23.027	1460.304	1165.423
-3.502	22.969	1459.830	1164.612
-2.487	23.029	1458.712	1164.069
-1.473	22.981	1457.985	1163.127
-0.458	22.916	1456.573	1161.526
0.556	21.230	1447.103	1150.854
1.571	18.581	1423.860	1115.073
2.586	15.656	1363.381	1049.375
3.600	14.368	1280.132	977.664
4.615	13.474	1236.855	939.457
5.629	11.772	1179.570	886.649
6.644	5.696	1098.180	794.658
7.659	0.977	1061.731	745.040
8.673	0.266	1056.797	738.031
9.688	0.172	1052.800	734.713
10.702	0.148	1051.846	733.867
11.717	0.104	1049.458	731.923
12.731	2.024	1050.491	741.921
13.746	8.549	1059.105	779.841
14.761	14.662	1067.033	815.559
15.775	16.688	1069.017	826.909
16.790	16.361	1067.928	824.394
17.804	15.398	1066.201	818.294
18.819	14.595	1064.218	812.792
19.834	14.067	1062.775	809.047
20.848	13.781	1061.897	806.919
21.863	13.631	1061.230	805.610
22.877	13.470	1060.073	803.876
23.892	13.353	1059.156	802.543
24.907	13.206	1058.494	801.260
25.921	13.165	1057.879	800.522
26.936	13.187	1056.902	799.822
27.950	13.125	1056.658	799.264
28.965	13.124	1055.908	798.622
29.980	13.207	1054.819	798.128
30.994	13.331	1053.786	797.873
32.009	13.298	1052.865	796.947
33.023	13.314	1052.257	796.492
34.038	13.366	1051.474	796.081
35.053	13.281	1050.499	794.863
36.067	13.336	1049.384	794.212
37.082	13.202	1048.850	793.096
38.096	13.260	1048.198	792.812
39.111	13.262	1047.604	792.301
40.126	13.272	1046.468	791.418
41.140	13.334	1045.281	790.748
42.155	13.242	1043.944	789.230
43.169	13.199	1043.575	788.673
44.184	13.199	1042.447	787.754
45.199	13.116	1041.314	786.430
46.213	13.122	1040.199	785.548
47.228	13.278	1039.438	785.645
48.242	13.402	1037.796	784.922
49.257	13.238	1036.967	783.447
50.271	13.371	1036.064	783.328
51.286	13.332	1035.311	782.504
52.301	13.237	1034.842	781.629
53.315	13.292	1033.998	781.186
54.330	13.309	1032.881	780.353
55.344	13.203	1031.932	779.066
56.359	13.346	1030.613	778.674
57.374	13.288	1030.219	778.033
58.388	13.204	1029.256	776.846
59.403	13.183	1028.381	776.016
60.417	13.174	1027.775	775.450
61.432	13.176	1027.065	774.854
62.447	13.144	1026.221	773.999
63.461	13.156	1025.371	773.342
64.476	13.154	1024.435	772.563
65.490	13.263	1023.098	771.991
66.505	13.125	1022.962	771.180
67.520	13.122	1022.131	770.471
68.534	13.143	1021.382	769.932
69.549	13.192	1020.992	769.801
70.563	13.119	1019.948	768.606
71.578	13.263	1019.013	768.501
72.593	13.141	1018.215	767.268
73.607	13.078	1016.874	765.897
74.622	13.106	1015.991	765.293
75.636	13.027	1015.511	764.497
76.651	13.013	1015.067	764.030
77.666	13.033	1013.928	763.196
78.680	13.117	1013.060	762.864
79.695	13.175	1012.741	762.826
80.709	13.112	1012.541	762.316
81.724	13.229	1011.151	761.742
82.739	13.181	1010.525	760.979
83.753	13.267	1009.801	760.762
84.768	13.341	1008.723	760.224
85.782	13.364	1008.204	759.871
86.797	13.466	1007.402	759.667
87.812	13.401	1006.340	758.502
88.826	13.301	1005.926	757.665
89.841	13.329	1005.028	757.051
90.855	13.278	1004.000	755.976
91.870	13.378	1003.187	755.752
92.884	13.377	1002.576	755.224
93.899	13.403	1001.940	754.795
94.914	13.326	1001.363	753.940
95.928	13.454	1000.875	754.093
96.943	13.418	1000.036	753.227
97.957	13.548	999.058	753.015
98.972	13.378	998.102	751.456
99.987	13.418	997.496	751.117
101.001	13.415	996.847	750.548
102.016	13.332	996.109	749.551
103.030	13.377	995.059	748.898
104.045	13.371	994.127	748.103
105.060	13.368	993.280	747.385
106.074	13.464	992.252	746.978
107.089	13.451	990.929	745.856
108.103	13.147	990.909	744.405
109.118	13.292	989.660	744.056
110.133	13.288	988.649	743.213
111.147	13.304	987.946	742.687
112.162	13.217	986.930	741.467
113.176	13.323	985.648	740.916
114.191	13.291	985.184	740.357
115.206	13.192	984.592	739.402
116.220	13.408	983.648	739.597
117.235	13.303	982.559	738.242
118.249	13.210	982.054	737.384
119.264	13.174	981.293	736.587
120.279	13.238	980.538	736.236
121.293	13.310	979.311	735.572
122.308	13.240	978.501	734.586
123.322	13.234	977.789	733.963
124.337	13.158	977.294	733.187
125.352	13.253	975.548	732.235
126.366	13.239	974.343	731.204
127.381	13.163	973.666	730.294
128.395	13.257	972.687	729.911
129.410	13.184	971.475	728.612
130.424	13.299	970.566	728.376
131.439	13.264	970.037	727.759
132.454	13.226	969.119	726.841
133.468	13.307	968.541	726.696
134.483	13.248	967.655	725.709
135.497	13.277	966.900	725.206
136.512	13.227	966.130	724.344
137.527	13.384	965.466	724.472
138.541	13.213	964.847	723.195
139.556	13.337	964.058	723.080
140.570	13.291	963.554	722.438
141.585	13.301	962.578	721.685
142.600	13.356	961.700	721.202
143.614	13.427	961.097	720.997
144.629	13.517	960.155	720.618
145.643	13.520	959.682	720.210
146.658	13.518	958.764	719.449
147.673	13.554	957.450	718.559
148.687	13.481	956.959	717.810
149.702	13.475	955.971	716.977
150.716	13.425	954.760	715.790
151.731	13.452	954.190	715.418
152.746	13.451	953.701	714.981
153.760	13.415	952.795	714.086
154.775	13.484	952.365	713.998
155.789	13.427	951.417	712.979
156.804	13.548	950.523	712.765
157.819	13.624	949.790	712.480
158.833	13.506	949.242	711.496
159.848	13.559	948.633	711.204
160.862	13.535	948.031	710.588
161.877	13.630	947.289	710.376
162.892	13.460	946.920	709.307
163.906	13.550	945.457	708.534
164.921	13.550	944.915	708.068
165.935	13.384	943.938	706.561
166.950	13.557	942.909	706.469
167.964	13.558	942.091	705.797
168.979	13.567	941.099	705.030
169.994	13.636	940.045	704.470
171.008	13.650	939.269	703.887
172.023	13.695	938.534	703.464
173.037	13.686	937.615	702.675
174.052	13.628	936.903	701.833
175.067	13.719	936.164	701.601
176.081	13.709	935.790	701.219
177.096	13.540	934.966	699.824
178.110	13.621	934.067	699.430
179.125	13.628	933.099	698.673
180.140	13.697	932.440	698.410
181.154	13.661	931.695	697.639
182.169	13.750	931.151	697.543
183.183	13.830	930.300	697.179
184.198	13.869	929.609	696.766
185.213	13.899	928.943	696.332
186.227	13.742	928.672	695.406
187.242	13.828	928.026	695.222
188.256	13.951	926.795	694.753
189.271	13.887	926.996	694.575
190.286	14.116	925.649	694.461
191.300	13.922	924.546	692.762
192.315	13.673	924.632	691.727
193.329	13.737	923.665	691.207
194.344	13.806	922.773	690.768
195.359	13.933	922.411	690.965
196.373	13.824	922.010	690.147
197.388	13.884	921.419	689.895
198.402	13.988	921.003	689.952
199.417	13.921	920.581	689.299
200.432	14.127	919.702	689.432
201.446	14.157	919.480	689.329
202.461	14.105	919.610	689.153
203.475	14.179	918.909	688.873
204.490	14.221	917.704	688.081
205.504	14.181	917.154	687.443
206.519	14.051	916.328	686.227
207.534	14.230	915.286	686.120
208.548	14.204	914.654	685.482
209.563	14.050	914.257	684.487
210.577	14.250	913.338	684.561
211.592	14.124	912.711	683.516
212.607	14.289	912.054	683.638
213.621	14.116	911.624	682.545
214.636	14.186	911.298	682.530
215.650	14.355	910.083	682.252
216.665	14.299	909.537	681.551
217.680	14.370	909.397	681.675
218.694	14.437	908.625	681.313
219.709	14.389	908.143	680.694
220.723	14.386	907.695	680.285
221.738	14.421	906.726	679.641
222.753	14.456	906.125	679.274
223.767	14.370	905.628	678.491
224.782	14.387	904.604	677.735
225.796	14.560	903.447	677.508
226.811	14.548	903.331	677.315
227.826	14.456	902.366	676.156
228.840	14.458	901.637	675.558
229.855	14.447	901.358	675.245
230.869	14.580	900.169	674.833
231.884	14.445	899.882	674.012
232.899	14.492	898.917	673.422
233.913	14.424	898.534	672.799
234.928	14.357	897.786	671.908
235.942	14.452	897.041	671.676
236.957	14.565	896.445	671.623
237.972	14.583	895.649	671.040
238.986	14.524	894.642	669.989
240.001	14.527	894.566	669.887
241.015	14.558	893.644	669.262
242.030	14.642	893.244	669.240
243.045	14.556	892.413	668.211
244.059	14.612	891.709	667.851
245.074	14.607	890.748	667.051
246.088	14.646	890.476	666.943
247.103	14.669	890.079	666.678
248.117	14.784	888.864	666.169
249.132	14.726	888.638	665.708
250.147	14.826	888.510	665.954
251.161	14.843	887.576	665.262
252.176	14.982	886.918	665.263
253.190	14.918	886.178	664.395
254.205	14.968	885.668	664.151
255.220	14.990	884.924	663.624
256.234	15.043	884.066	663.130
257.249	14.980	883.759	662.590
258.263	14.999	883.247	662.224
259.278	14.964	882.677	661.599
260.293	14.988	882.014	661.141
261.307	15.076	881.757	661.238
262.322	15.075	880.993	660.599
263.336	15.196	880.248	660.463
264.351	15.101	879.937	659.794
265.366	15.125	878.554	658.794
266.380	15.154	878.171	658.562
267.395	15.192	877.617	658.238
268.409	15.271	876.835	657.903
269.424	15.132	876.489	657.039
270.439	15.209	875.935	656.867
271.453	15.199	874.943	656.027
272.468	15.205	873.952	655.251
273.482	15.295	873.111	654.915
274.497	15.229	873.010	654.522
275.512	15.180	872.477	653.874
276.526	15.188	871.486	653.103
277.541	15.127	870.852	652.332
278.555	15.324	869.820	652.269
279.570	15.250	869.812	651.915
280.585	15.286	869.426	651.710
281.599	15.403	868.575	651.467
282.614	15.452	867.863	651.066
283.628	15.354	867.734	650.531
284.643	15.372	866.993	649.987
285.657	15.483	866.181	649.753
286.672	15.495	865.628	649.325
287.687	15.342	865.580	648.640
288.701	15.420	865.135	648.551
289.716	15.460	864.139	647.901
290.730	15.546	863.787	647.912
291.745	15.500	863.032	647.112
292.760	15.427	862.344	646.258
293.774	15.388	862.055	645.833
294.789	15.574	860.900	645.625
295.803	15.551	860.024	644.822
296.818	15.512	860.015	644.608
297.833	15.595	859.328	644.357
298.847	15.552	858.699	643.664
299.862	15.601	858.088	643.334
300.876	15.627	857.397	642.861
301.891	15.642	856.894	642.485
302.906	15.720	856.135	642.154
303.920	15.678	855.227	641.258
304.935	15.822	854.758	641.398
305.949	15.824	853.968	640.755
306.964	15.852	853.366	640.355
307.979	15.790	852.915	639.722
308.993	15.865	852.209	639.421
310.008	16.025	851.800	639.667
311.022	15.955	851.314	638.980
312.037	15.844	850.875	638.172
313.052	15.798	850.472	637.639
314.066	15.845	849.660	637.152
315.081	15.975	848.400	636.643
316.095	15.904	848.415	636.329
317.110	15.879	848.024	635.884
318.125	15.711	847.615	634.888
319.139	15.840	846.844	634.740
320.154	15.940	846.683	634.940
321.168	15.898	845.622	633.930
322.183	16.006	845.189	633.955
323.197	15.994	844.736	633.516
324.212	15.977	844.568	633.269
325.227	15.925	843.420	632.159
326.241	15.899	843.022	631.705
327.256	15.908	842.718	631.454
328.270	15.941	842.014	630.996
329.285	16.004	841.236	630.591
330.300	16.065	840.772	630.416
331.314	15.964	840.487	629.769
332.329	16.083	839.535	629.446
333.343	15.919	839.083	628.438
334.358	16.191	838.294	628.806
335.373	16.152	837.919	628.322
336.387	16.079	837.404	627.611
337.402	16.139	836.849	627.361
338.416	16.157	836.395	627.032
339.431	16.214	835.827	626.762
340.446	16.394	834.942	626.714
341.460	16.269	834.629	625.959
342.475	16.418	833.966	625.957
343.489	16.505	833.240	625.678
344.504	16.323	832.953	624.734
345.519	16.520	832.280	624.904
346.533	16.659	831.600	624.850
347.548	16.526	831.345	624.115
348.562	16.531	830.691	623.587
349.577	16.333	830.407	622.587
350.592	16.259	829.853	621.843
351.606	16.326	829.359	621.666
352.621	16.437	828.808	621.605
353.635	16.318	828.660	621.003
354.650	16.228	828.224	620.289
355.665	16.477	827.201	620.382
356.679	16.549	827.085	620.504
357.694	16.404	826.760	619.676
358.708	16.583	826.144	619.815
359.723	16.629	825.465	619.419
360.738	16.451	824.807	618.217
361.752	16.455	824.572	618.003
362.767	16.576	823.668	617.713
363.781	16.667	823.302	617.714
364.796	16.462	823.214	616.845
365.810	16.842	822.538	617.670
366.825	16.756	822.150	617.012
367.840	16.821	821.938	617.034
368.854	16.958	820.967	616.747
369.869	16.713	820.937	615.779
370.883	16.802	820.203	615.497
371.898	16.634	819.914	614.617
372.913	16.698	819.288	614.327
373.927	16.766	818.959	614.272
374.942	16.888	817.665	613.687
375.956	16.862	817.525	613.435
376.971	16.928	816.661	612.970
377.986	16.890	816.352	612.548
379.000	17.053	815.535	612.467
380.015	16.963	815.428	612.010
381.029	16.864	814.996	611.274
382.044	17.003	814.044	611.006
383.059	16.975	813.611	610.525
384.073	16.926	813.360	610.109
385.088	17.082	812.462	609.940
386.102	16.998	811.963	609.210
387.117	17.051	811.481	608.983
388.132	17.088	811.171	608.831
389.146	16.911	810.939	607.968
390.161	17.027	810.470	607.980
391.175	17.187	810.027	608.165
392.190	17.021	809.711	607.280
393.205	17.056	809.173	606.948
394.219	17.093	808.714	606.684
395.234	17.095	807.812	605.957
396.248	16.995	807.502	605.317
397.263	16.998	807.522	605.289
398.278	17.106	806.650	604.965
399.292	17.053	806.309	604.466
400.307	17.126	806.141	604.548
401.321	17.148	805.614	604.177
402.336	16.984	805.442	603.412
403.350	17.118	804.863	603.402
404.365	17.240	804.350	603.395
405.380	17.223	803.834	602.897
406.394	17.163	803.549	602.415
407.409	17.316	802.728	602.290
408.423	17.436	802.208	602.272
409.438	17.262	802.166	601.569
410.453	17.328	801.659	601.368
411.467	17.287	801.240	600.859
412.482	17.328	800.641	600.498
413.496	17.391	800.063	600.236
414.511	17.488	799.483	600.091
415.526	17.429	799.320	599.705
416.540	17.392	799.184	599.421
417.555	17.593	798.639	599.667
418.569	17.578	798.467	599.429
419.584	17.543	797.772	598.733
420.599	17.542	796.956	598.064
421.613	113.478	1298.398	1488.123
422.628	97.706	1371.412	1488.180
