DTS Sentinel unit serial number:	SN413079Multiplexer serial number:	ORYXHardware model number:	OX4-SRSoftware version number:	ORYX F/W v4.00 Oryx Data Collector v3.7.2.0data status	okinstallation	princeton_trtdifferential loss correction	single-endedforward channel	channel 3reverse channel	N/Adate	2019/09/11time	04:30:11forward acquisition time	60.00reverse acquisition time	0.00gamma	496.2192k internal	0.2331k external	0.2331temperature offset calibration	0.9910default loss term (dB/km)	0.3790temperature slope calibration	1.0000multiplexer offset coefficient	1.0000multiplexer slope coefficient	1.0000fibre end	0.00T internal ref (°C)	29.56T ext. ref 1 (°C)	-0.31T ext. ref 2 (°C)	23.40length (m)	temperature (°C)	Stokes	anti-Stokes-747.200	25.234	0.252	0.210
-746.185	800.000	-0.084	0.299
-745.171	-39.957	0.130	0.068
-744.156	-135.871	0.039	-0.005
-743.142	-88.834	-0.039	-0.012
-742.127	-40.857	-0.081	0.042
-741.112	84.224	0.208	0.229
-740.098	40.863	-0.329	0.299
-739.083	-77.882	0.156	0.054
-738.069	-200.000	0.010	0.194
-737.054	30.182	-0.233	-0.200
-736.039	-200.000	-0.025	0.357
-735.025	63.333	0.107	0.107
-734.010	800.000	-0.075	-0.275
-732.996	-200.000	-0.010	-0.171
-731.981	-200.000	-0.028	-0.233
-730.966	56.466	-0.310	-0.304
-729.952	228.003	0.059	-0.096
-728.937	-110.983	-0.354	0.073
-727.923	512.524	-0.073	0.171
-726.908	-28.722	0.122	0.071
-725.894	73.857	0.056	-0.060
-724.879	-200.000	-0.052	0.260
-723.864	-186.324	-0.304	0.004
-722.850	37.555	0.127	-0.114
-721.835	2.433	-0.166	0.121
-720.821	-128.125	-0.031	0.004
-719.806	82.660	0.058	-0.063
-718.791	-42.068	-0.306	0.158
-717.777	-200.000	0.017	-0.165
-716.762	-200.000	-0.033	-0.191
-715.748	17.651	0.239	0.191
-714.733	-18.536	-0.213	-0.134
-713.718	-98.106	-0.101	-0.026
-712.704	-200.000	0.010	-0.139
-711.689	-158.886	0.474	0.027
-710.675	543.818	0.071	0.171
-709.660	12.403	-0.092	0.071
-708.645	79.418	0.252	0.272
-707.631	-23.172	0.078	0.047
-706.616	-200.000	-0.001	0.227
-705.602	68.535	0.287	0.296
-704.587	-100.554	-0.214	0.053
-703.572	-13.484	-0.238	-0.155
-702.558	109.505	0.187	0.225
-701.543	734.554	0.044	0.117
-700.529	-200.000	-0.054	0.373
-699.514	-200.000	0.001	-0.094
-698.499	-95.754	0.304	-0.082
-697.485	419.273	0.099	-0.213
-696.470	-200.000	-0.036	-0.176
-695.456	-16.719	-0.218	-0.138
-694.441	11.069	-0.158	-0.121
-693.426	-171.659	0.069	-0.002
-692.412	55.716	0.175	-0.170
-691.397	-124.405	-0.192	0.030
-690.383	-200.000	-0.152	-0.000
-689.368	204.177	-0.120	0.187
-688.354	13.863	0.059	0.046
-687.339	3.712	0.246	-0.180
-686.324	371.961	-0.076	-0.155
-685.310	188.887	0.177	0.266
-684.295	-200.000	0.049	0.303
-683.281	-200.000	0.006	0.254
-682.266	32.172	0.036	0.031
-681.251	-200.000	0.023	0.328
-680.237	594.394	0.059	0.147
-679.222	-145.911	0.119	-0.011
-678.208	400.535	-0.032	0.067
-677.193	-13.594	-0.383	-0.249
-676.178	-43.864	-0.118	0.059
-675.164	-51.343	-0.320	0.150
-674.149	462.803	0.082	-0.184
-673.135	800.000	-0.025	0.076
-672.120	-52.167	0.049	0.023
-671.105	-73.669	-0.427	0.156
-670.091	-97.530	-0.187	-0.049
-669.076	-200.000	-0.003	0.083
-668.062	34.403	-0.079	0.069
-667.047	-200.000	0.013	-0.084
-666.032	35.137	0.200	-0.176
-665.018	-200.000	-0.063	0.463
-664.003	800.000	0.024	0.087
-662.989	1.904	0.122	-0.088
-661.974	-200.000	-0.001	0.262
-660.959	800.000	0.117	0.464
-659.945	800.000	-0.066	-0.225
-658.930	-36.390	-0.080	0.043
-657.916	-15.335	-0.184	-0.118
-656.901	-32.299	0.144	-0.080
-655.886	-200.000	-0.012	0.103
-654.872	56.851	0.163	-0.159
-653.857	-43.694	0.285	0.144
-652.843	-122.994	0.280	0.045
-651.828	-200.000	-0.005	0.266
-650.814	-108.063	0.149	0.032
-649.799	-102.039	-0.285	-0.069
-648.784	0.939	0.088	0.063
-647.770	-156.593	-0.182	-0.011
-646.755	-43.879	0.098	0.049
-645.741	800.000	-0.056	-0.191
-644.726	-173.923	0.062	-0.002
-643.711	-33.064	-0.218	-0.121
-642.697	408.853	-0.116	-0.246
-641.682	338.390	0.052	0.102
-640.668	-200.000	-0.022	0.411
-639.653	-109.153	-0.187	0.040
-638.638	155.415	-0.294	-0.406
-637.624	502.612	-0.025	-0.059
-636.609	-19.125	-0.183	-0.114
-635.595	45.285	-0.076	-0.070
-634.580	438.894	-0.080	-0.175
-633.565	-29.266	-0.390	-0.224
-632.551	-200.000	-0.018	-0.093
-631.536	-78.227	-0.180	0.062
-630.522	77.699	0.142	0.151
-629.507	86.822	0.047	0.052
-628.492	-23.818	0.078	0.047
-627.478	264.931	-0.074	-0.129
-626.463	670.013	-0.129	0.335
-625.449	-200.000	-0.010	-0.298
-624.434	-200.000	0.019	-0.116
-623.419	-200.000	-0.022	0.136
-622.405	132.098	0.143	0.184
-621.390	244.710	-0.163	0.274
-620.376	148.525	0.101	0.137
-619.361	24.188	0.190	-0.157
-618.346	800.000	-0.023	-0.094
-617.332	-200.000	-0.035	-0.196
-616.317	517.298	0.053	0.125
-615.303	-7.477	0.175	-0.119
-614.288	-73.822	0.081	-0.030
-613.273	-29.940	0.076	0.043
-612.259	200.552	-0.153	0.235
-611.244	56.727	-0.138	-0.135
-610.230	444.046	0.208	0.458
-609.215	-5.059	0.109	0.075
-608.201	-124.320	-0.197	-0.031
-607.186	-101.091	-0.032	0.008
-606.171	107.981	0.111	-0.132
-605.157	-200.000	0.052	0.337
-604.142	-81.957	0.068	0.022
-603.128	-26.512	0.288	0.169
-602.113	14.188	-0.022	-0.017
-601.098	-43.724	0.210	0.106
-600.084	-153.153	0.096	-0.007
-599.069	-47.731	-0.340	-0.165
-598.055	-200.000	-0.012	0.128
-597.040	667.944	-0.090	0.233
-596.025	-103.615	-0.045	-0.011
-595.011	-3.737	-0.150	-0.104
-593.996	-172.922	0.279	-0.009
-592.982	119.900	-0.190	-0.236
-591.967	23.496	0.197	-0.162
-590.952	472.880	0.081	0.183
-589.938	-146.928	0.273	-0.024
-588.923	-192.951	0.179	0.002
-587.909	-199.178	0.103	0.001
-586.894	-101.749	-0.078	0.019
-585.879	635.315	0.062	-0.158
-584.865	-92.966	0.288	-0.080
-583.850	-43.244	-0.142	-0.072
-582.836	-91.026	0.244	0.070
-581.821	800.000	-0.114	-0.321
-580.806	58.261	0.117	-0.114
-579.792	-92.742	0.156	-0.044
-578.777	-56.689	0.356	0.158
-577.763	-200.000	0.025	-0.302
-576.748	72.052	-0.060	-0.063
-575.733	-86.550	-0.074	-0.023
-574.719	-8.293	-0.130	-0.087
-573.704	800.000	-0.135	0.513
-572.690	386.266	-0.099	0.204
-571.675	-200.000	-0.004	0.177
-570.661	-200.000	-0.010	0.290
-569.646	226.039	0.114	-0.184
-568.631	-101.279	-0.159	0.039
-567.617	256.982	0.074	0.128
-566.602	-104.195	-0.201	-0.047
-565.588	122.471	0.155	-0.193
-564.573	-123.101	-0.370	-0.059
-563.558	-100.579	-0.346	-0.086
-562.544	-200.000	0.070	-0.333
-561.529	32.419	0.154	0.133
-560.515	-67.518	0.222	-0.087
-559.500	-44.184	0.273	0.137
-558.485	399.313	-0.153	-0.319
-557.471	800.000	0.126	0.446
-556.456	115.699	0.162	-0.198
-555.442	-59.850	0.327	-0.140
-554.427	800.000	-0.069	0.237
-553.412	-149.698	0.116	-0.009
-552.398	-58.945	0.140	-0.061
-551.383	-56.519	-0.178	-0.079
-550.369	-32.097	0.286	0.160
-549.354	-98.889	-0.279	-0.071
-548.339	800.000	0.054	0.163
-547.325	34.141	0.343	0.299
-546.310	94.463	0.185	-0.210
-545.296	-30.784	-0.058	-0.033
-544.281	-200.000	-0.017	0.298
-543.266	800.000	0.031	-0.114
-542.252	-85.589	0.132	0.041
-541.237	14.348	0.125	0.098
-540.223	-184.345	0.427	-0.007
-539.208	253.752	-0.146	-0.249
-538.193	-200.000	0.006	-0.286
-537.179	800.000	-0.006	0.023
-536.164	-107.691	-0.158	0.034
-535.150	-200.000	0.039	-0.520
-534.135	-200.000	-0.044	-0.227
-533.121	-138.350	-0.111	0.012
-532.106	-200.000	0.008	0.232
-531.091	-134.842	0.124	0.015
-530.077	239.530	0.044	0.074
-529.062	-200.000	-0.046	0.317
-528.048	-200.000	0.010	0.167
-527.033	5.668	-0.267	-0.197
-526.018	47.195	0.236	0.219
-525.004	-4.316	-0.244	0.168
-523.989	220.478	0.011	-0.018
-522.975	44.124	-0.133	-0.122
-521.960	-82.594	-0.351	-0.113
-520.945	405.215	0.133	0.279
-519.931	800.000	-0.081	0.292
-518.916	-165.996	0.095	-0.004
-517.902	17.199	0.091	-0.072
-516.887	-200.000	0.007	0.161
-515.872	-93.215	-0.124	-0.034
-514.858	-200.000	0.033	0.197
-513.843	380.455	-0.048	0.098
-512.829	-200.000	-0.019	-0.110
-511.814	-177.923	0.269	-0.006
-510.799	2.638	-0.339	0.245
-509.785	-118.196	0.136	0.024
-508.770	-200.000	0.057	-0.276
-507.756	-117.960	0.513	0.092
-506.741	107.002	-0.097	0.115
-505.726	-173.903	-0.112	-0.003
-504.712	800.000	-0.048	0.136
-503.697	222.510	0.054	-0.087
-502.683	-200.000	-0.012	-0.139
-501.668	317.755	-0.067	0.126
-500.653	28.796	-0.287	-0.242
-499.639	547.130	0.112	0.267
-498.624	-123.555	0.191	-0.030
-497.610	-21.060	-0.113	0.069
-496.595	800.000	0.036	-0.104
-495.581	-30.645	0.169	0.095
-494.566	-63.401	-0.084	-0.034
-493.551	-200.000	-0.041	0.320
-492.537	-200.000	-0.003	-0.211
-491.522	-194.244	-0.272	0.002
-490.508	-200.000	-0.062	-0.320
-489.493	-52.562	-0.150	0.069
-488.478	-126.102	0.139	-0.021
-487.464	515.746	-0.140	-0.325
-486.449	-144.171	-0.110	0.010
-485.435	69.731	0.125	-0.128
-484.420	149.497	-0.228	-0.308
-483.405	-123.339	-0.201	-0.032
-482.391	800.000	0.017	0.073
-481.376	-56.490	-0.147	0.065
-480.362	-28.396	-0.277	-0.159
-479.347	-129.945	-0.128	0.018
-478.332	-200.000	0.036	0.236
-477.318	133.414	0.241	0.310
-476.303	11.703	-0.226	0.172
-475.289	-17.261	-0.141	-0.088
-474.274	386.792	-0.203	0.417
-473.259	800.000	-0.086	0.337
-472.245	301.834	0.154	0.284
-471.230	-85.441	0.118	-0.037
-470.216	260.196	0.093	-0.161
-469.201	800.000	0.018	0.053
-468.186	-200.000	0.003	0.116
-467.172	121.528	0.093	0.116
-466.157	-69.772	-0.156	-0.059
-465.143	-50.483	0.192	-0.090
-464.128	-11.276	-0.027	0.018
-463.113	-117.733	-0.310	0.056
-462.099	106.368	0.131	0.154
-461.084	-154.832	-0.144	0.009
-460.070	254.719	0.035	-0.060
-459.055	146.109	0.107	-0.143
-458.040	170.860	0.088	-0.125
-457.026	-130.254	-0.312	0.042
-456.011	36.880	0.078	-0.069
-454.997	-200.000	0.004	-0.049
-453.982	-51.313	-0.316	0.147
-452.968	67.495	0.069	0.070
-451.953	-60.291	0.352	0.149
-450.938	74.405	-0.228	0.238
-449.924	-67.916	0.107	0.042
-448.909	800.000	-0.052	0.166
-447.895	-200.000	0.018	-0.182
-446.880	-57.196	0.167	0.073
-445.865	800.000	0.029	0.098
-444.851	-103.318	0.249	-0.059
-443.836	114.585	-0.205	-0.248
-442.822	-200.000	0.016	-0.251
-441.807	106.088	-0.160	0.189
-440.792	247.609	-0.150	-0.252
-439.778	27.580	-0.365	0.306
-438.763	-52.332	-0.139	0.064
-437.749	-200.000	-0.008	-0.545
-436.734	-26.876	-0.297	-0.173
-435.719	800.000	0.054	0.204
-434.705	-93.917	0.157	0.043
-433.690	12.334	0.300	-0.230
-432.676	338.335	0.039	0.076
-431.661	800.000	-0.040	0.134
-430.646	-200.000	0.005	0.152
-429.632	-200.000	0.020	-0.216
-428.617	496.347	0.159	-0.362
-427.603	-47.230	0.161	-0.078
-426.588	800.000	0.040	0.142
-425.573	-53.959	0.178	-0.080
-424.559	-110.485	0.189	-0.039
-423.544	-128.292	0.208	-0.029
-422.530	54.157	0.155	0.148
-421.515	-147.270	-0.382	-0.032
-420.500	145.925	0.203	-0.270
-419.486	-200.000	-0.011	0.066
-418.471	-152.455	-0.054	0.004
-417.457	-93.190	0.341	-0.094
-416.442	800.000	-0.031	-0.091
-415.428	-147.648	-0.409	-0.034
-414.413	-131.852	0.375	0.049
-413.398	-66.769	0.055	-0.022
-412.384	-100.611	0.096	-0.023
-411.369	-51.194	0.080	0.037
-410.355	125.820	0.039	-0.049
-409.340	-13.345	0.202	-0.130
-408.325	-89.882	-0.115	0.033
-407.311	-3.686	-0.153	0.106
-406.296	-114.535	-0.206	0.039
-405.282	121.082	0.089	-0.110
-404.267	800.000	0.048	0.154
-403.252	49.601	-0.141	-0.132
-402.238	416.695	-0.079	0.168
-401.223	39.012	-0.215	-0.191
-400.209	-37.627	0.057	0.030
-399.194	576.826	-0.086	-0.208
-398.179	-13.338	0.147	0.095
-397.165	-120.421	-0.344	0.058
-396.150	201.063	-0.122	0.187
-395.136	34.562	-0.232	0.201
-394.121	-77.871	-0.220	-0.075
-393.106	371.582	-0.046	0.093
-392.092	-115.369	0.214	0.040
-391.077	126.554	-0.315	0.396
-390.063	78.655	0.139	0.147
-389.048	800.000	-0.042	0.147
-388.033	-197.108	-0.399	-0.003
-387.019	16.097	-0.281	0.220
-386.004	-200.000	-0.159	0.000
-384.990	469.833	-0.012	-0.028
-383.975	44.810	0.230	0.210
-382.960	-200.000	-0.016	0.235
-381.946	800.000	0.066	-0.275
-380.931	-107.966	0.196	0.042
-379.917	19.052	-0.095	-0.075
-378.902	800.000	0.079	0.309
-377.888	-105.019	-0.214	-0.049
-376.873	17.063	0.213	0.168
-375.858	-53.033	-0.095	0.043
-374.844	183.864	-0.085	-0.125
-373.829	-200.000	-0.025	-0.167
-372.815	-200.000	-0.048	-0.223
-371.800	275.568	0.160	-0.281
-370.785	20.473	0.096	-0.077
-369.771	213.033	0.036	0.057
-368.756	-200.000	-0.020	-0.458
-367.742	93.771	-0.071	-0.080
-366.727	-165.863	-0.163	0.007
-365.712	800.000	0.088	0.258
-364.698	-200.000	0.066	0.323
-363.683	320.980	-0.126	-0.238
-362.669	78.155	-0.147	-0.156
-361.654	139.891	-0.108	-0.141
-360.639	-61.238	-0.260	-0.109
-359.625	62.464	-0.275	0.272
-358.610	278.657	-0.054	-0.095
-357.596	-151.756	-0.198	-0.014
-356.581	745.392	0.072	-0.192
-355.566	800.000	-0.038	-0.128
-354.552	-200.000	0.026	0.165
-353.537	-38.128	-0.074	-0.039
-352.523	-7.419	-0.187	0.125
-351.508	600.751	0.102	-0.252
-350.493	515.885	-0.108	0.250
-349.479	-58.636	0.127	0.055
-348.464	422.748	0.049	-0.104
-347.450	-200.000	-0.358	-0.001
-346.435	-200.000	-0.004	-0.221
-345.420	-101.285	0.060	0.015
-344.406	-110.187	0.526	0.109
-343.391	251.857	0.051	-0.086
-342.377	-9.953	0.315	-0.208
-341.362	800.000	-0.004	0.015
-340.348	531.033	-0.123	0.289
-339.333	-33.997	-0.075	-0.041
-338.318	-54.004	0.217	0.098
-337.304	800.000	0.007	0.024
-336.289	-200.000	0.050	-0.313
-335.275	362.439	0.212	-0.422
-334.260	229.011	0.066	-0.106
-333.245	146.775	-0.072	-0.096
-332.231	505.529	-0.074	-0.170
-331.216	-97.999	0.196	0.050
-330.202	800.000	0.093	-0.299
-329.187	291.520	0.120	-0.216
-328.172	-175.134	-0.182	0.005
-327.158	333.892	0.031	-0.060
-326.143	0.606	-0.062	-0.044
-325.129	373.284	-0.120	-0.241
-324.114	-112.227	-0.295	-0.059
-323.099	66.365	0.184	0.185
-322.085	-118.918	0.083	0.014
-321.070	800.000	-0.021	0.075
-320.056	-79.092	-0.324	0.109
-319.041	-91.003	-0.161	0.046
-318.026	-200.000	-0.021	-0.248
-317.012	307.419	-0.034	0.062
-315.997	-143.910	-0.288	0.027
-314.983	-68.295	0.221	0.085
-313.968	-200.000	-0.076	0.359
-312.953	-169.630	-0.223	0.008
-311.939	216.372	-0.088	-0.138
-310.924	-200.000	0.012	-0.106
-309.910	800.000	-0.118	-0.466
-308.895	31.207	-0.132	-0.112
-307.880	-200.000	-0.010	0.168
-306.866	-16.553	0.095	0.060
-305.851	-56.620	-0.262	0.115
-304.837	350.270	0.051	0.099
-303.822	800.000	0.088	-0.322
-302.807	174.712	0.291	0.417
-301.793	167.235	0.132	0.185
-300.778	243.464	-0.121	0.201
-299.764	126.914	-0.155	0.194
-298.749	-200.000	0.018	-0.161
-297.735	-87.614	0.127	0.038
-296.720	-57.776	0.144	-0.062
-295.705	186.864	0.104	0.153
-294.691	36.176	-0.079	-0.069
-293.676	-167.378	0.464	-0.018
-292.662	-125.171	0.336	-0.051
-291.647	-7.680	0.407	-0.272
-290.632	9.966	0.087	0.065
-289.618	757.737	-0.078	0.208
-288.603	410.050	0.058	-0.121
-287.589	14.224	0.102	-0.079
-286.574	-18.571	-0.187	-0.115
-285.559	39.562	0.063	-0.056
-284.545	-19.810	0.306	0.187
-283.530	190.982	0.143	-0.213
-282.516	2.184	0.171	0.122
-281.501	34.709	-0.171	-0.148
-280.486	543.508	0.078	0.184
-279.472	-200.000	0.167	-0.001
-278.457	195.657	-0.179	-0.268
-277.443	-136.240	0.257	0.030
-276.428	-169.549	-0.214	0.008
-275.413	276.171	-0.048	0.084
-274.399	280.519	-0.090	0.159
-273.384	-200.000	-0.007	0.064
-272.370	545.669	0.026	-0.062
-271.355	124.392	-0.084	-0.104
-270.340	44.533	0.203	0.184
-269.326	-15.186	0.211	0.133
-268.311	-150.492	0.257	0.019
-267.297	400.426	0.110	-0.227
-266.282	-23.376	-0.148	0.088
-265.267	657.962	-0.046	0.116
-264.253	800.000	0.041	0.132
-263.238	267.444	0.102	-0.176
-262.224	282.924	-0.039	0.070
-261.209	442.943	0.074	0.160
-260.195	20.768	-0.208	-0.166
-259.180	18.968	-0.254	-0.201
-258.165	-200.000	-0.022	-0.381
-257.151	800.000	-0.153	0.496
-256.136	257.910	0.087	-0.148
-255.122	-82.199	-0.302	0.097
-254.107	-100.332	-0.097	0.024
-253.092	-34.292	0.280	0.152
-252.078	104.500	0.040	-0.046
-251.063	38.592	0.244	0.215
-250.049	399.452	0.041	0.085
-249.034	78.515	-0.403	0.425
-248.019	-29.524	0.120	0.068
-247.005	-161.398	-0.039	-0.002
-245.990	178.790	0.110	-0.159
-244.976	287.024	0.142	-0.254
-243.961	2.470	-0.125	-0.089
-242.946	-31.877	-0.147	0.081
-241.932	-170.297	0.090	-0.003
-240.917	-14.270	0.087	-0.056
-239.903	-20.825	0.139	0.084
-238.888	97.288	0.023	0.026
-237.873	-200.000	0.016	-0.290
-236.859	-146.987	-0.407	-0.034
-235.844	219.413	-0.121	0.190
-234.830	324.438	0.116	0.219
-233.815	12.503	0.277	-0.211
-232.800	58.187	-0.259	0.251
-231.786	-119.054	-0.064	0.011
-230.771	245.188	-0.187	-0.311
-229.757	-66.300	0.134	0.053
-228.742	314.207	0.012	-0.022
-227.727	-18.771	-0.284	-0.175
-226.713	34.889	0.092	-0.080
-225.698	164.432	0.130	-0.181
-224.684	-200.000	0.055	0.298
-223.669	-51.608	-0.352	0.162
-222.655	-116.411	0.221	-0.040
-221.640	-200.000	-0.022	0.182
-220.625	519.779	-0.103	0.239
-219.611	371.263	-0.202	0.403
-218.596	-2.189	0.355	0.246
-217.582	-134.063	-0.385	0.047
-216.567	119.802	-0.135	-0.165
-215.552	-17.445	-0.150	0.093
-214.538	-163.276	0.062	0.003
-213.523	-123.397	-0.210	0.033
-212.509	-11.354	-0.163	-0.106
-211.494	537.433	-0.125	0.294
-210.479	-200.000	0.063	0.284
-209.465	215.203	-0.205	0.320
-208.450	800.000	-0.035	-0.120
-207.436	800.000	0.107	-0.437
-206.421	122.974	0.107	-0.132
-205.406	800.000	0.066	-0.208
-204.392	-200.000	0.010	0.068
-203.377	800.000	0.015	-0.050
-202.363	-51.578	0.233	0.107
-201.348	-200.000	-0.058	0.394
-200.333	-200.000	-0.070	-0.383
-199.319	-200.000	-0.004	0.032
-198.304	168.700	0.050	0.070
-197.290	34.614	0.203	-0.175
-196.275	-161.044	0.154	0.008
-195.260	161.944	-0.057	-0.078
-194.246	-200.000	-0.009	-0.138
-193.231	119.955	0.240	-0.293
-192.217	3.202	0.206	0.148
-191.202	800.000	-0.033	-0.116
-190.187	-56.840	-0.162	0.070
-189.173	-81.208	0.235	-0.076
-188.158	604.157	-0.139	0.341
-187.144	447.448	-0.078	-0.169
-186.129	211.918	0.123	-0.191
-185.114	-83.087	-0.256	-0.081
-184.100	80.197	-0.177	-0.187
-183.085	-85.656	0.294	0.090
-182.071	-200.000	-0.002	0.148
-181.056	-129.002	-0.256	-0.035
-180.042	290.702	-0.185	-0.331
-179.027	-11.086	0.032	0.021
-178.012	54.077	0.245	0.232
-176.998	7.225	0.250	0.184
-175.983	-34.441	-0.146	-0.079
-174.969	361.429	0.110	-0.218
-173.954	126.734	0.069	0.086
-172.939	-2.194	0.203	0.141
-171.925	149.142	-0.138	-0.183
-170.910	-200.000	0.048	0.223
-169.896	274.617	0.144	-0.251
-168.881	600.339	-0.125	-0.306
-167.866	321.888	0.087	-0.163
-166.852	-26.108	-0.146	0.084
-165.837	-100.522	0.329	0.080
-164.823	-160.601	0.377	-0.020
-163.808	763.713	0.081	-0.215
-162.793	-51.979	-0.295	0.135
-161.779	218.261	-0.091	-0.142
-160.764	-200.000	0.004	0.201
-159.750	-107.179	0.216	0.047
-158.735	-1.177	0.298	-0.207
-157.720	-140.642	-0.222	-0.023
-156.706	-200.000	-0.001	0.150
-155.691	-54.193	0.321	0.143
-154.677	800.000	0.050	-0.186
-153.662	-200.000	-0.003	-0.090
-152.647	-200.000	0.019	-0.089
-151.633	-112.453	0.270	0.053
-150.618	34.282	-0.165	-0.142
-149.604	800.000	0.048	0.142
-148.589	800.000	0.054	-0.153
-147.574	80.797	-0.165	0.175
-146.560	12.624	-0.144	-0.110
-145.545	48.203	-0.105	0.097
-144.531	-91.146	0.290	-0.082
-143.516	800.000	-0.082	-0.298
-142.502	258.590	-0.141	0.240
-141.487	-2.037	0.068	0.047
-140.472	-200.000	-0.014	0.123
-139.458	-67.338	0.394	0.152
-138.443	800.000	0.120	0.344
-137.429	800.000	0.019	-0.059
-136.414	-50.439	-0.174	-0.081
-135.399	-200.000	-0.017	-0.173
-134.385	32.015	0.143	-0.121
-133.370	-200.000	0.002	0.328
-132.356	-102.805	0.071	-0.017
-131.341	184.050	-0.106	-0.154
-130.326	-84.560	0.167	0.052
-129.312	315.066	0.093	-0.172
-128.297	137.744	0.145	0.187
-127.283	133.769	-0.045	-0.058
-126.268	581.180	-0.056	-0.136
-125.253	382.730	0.150	-0.302
-124.239	-108.216	-0.383	-0.081
-123.224	-71.402	0.074	-0.027
-122.210	55.572	0.200	0.190
-121.195	62.244	-0.277	0.272
-120.180	34.213	0.295	0.252
-119.166	800.000	-0.057	0.158
-118.151	-116.605	-0.382	-0.069
-117.137	111.824	-0.073	0.086
-116.122	-200.000	0.005	-0.289
-115.107	67.191	0.198	-0.199
-114.093	-21.522	0.263	0.158
-113.078	114.092	-0.104	0.124
-112.064	-49.127	0.179	-0.084
-111.049	-200.000	-0.029	0.391
-110.034	-70.598	0.350	-0.130
-109.020	130.753	0.167	-0.210
-108.005	-114.689	0.175	0.033
-106.991	-85.834	0.041	0.013
-105.976	800.000	-0.010	0.038
-104.962	-35.801	0.199	0.106
-103.947	54.083	-0.166	-0.157
-102.932	-29.598	-0.278	-0.156
-101.918	-91.827	0.213	0.059
-100.903	-111.353	0.121	0.024
-99.889	14.097	0.124	0.095
-98.874	-75.873	-0.088	-0.030
-97.859	15.307	0.520	-0.400
-96.845	33.132	-0.136	0.116
-95.830	0.371	-0.355	-0.248
-94.816	-121.761	-0.279	-0.045
-93.801	800.000	0.040	-0.155
-92.786	31.407	-0.225	0.190
-91.772	110.589	0.215	0.254
-90.757	-200.000	-0.019	-0.140
-89.743	-64.068	-0.179	0.072
-88.728	-200.000	0.000	0.300
-87.713	-44.100	0.347	0.171
-86.699	800.000	0.027	0.092
-85.684	800.000	-0.040	0.137
-84.670	-189.890	-0.044	-0.000
-83.655	-117.666	0.109	-0.019
-82.640	407.637	0.086	0.179
-81.626	800.000	0.044	-0.160
-80.611	150.653	-0.138	0.185
-79.597	-200.000	0.033	0.208
-78.582	16.484	0.222	0.172
-77.567	-119.581	-0.461	0.078
-76.553	-106.949	0.080	-0.017
-75.538	-31.442	-0.077	0.042
-74.524	250.246	0.145	-0.242
-73.509	309.549	-0.097	0.178
-72.494	-200.000	0.019	-0.122
-71.480	-200.000	-0.004	0.027
-70.465	-51.136	0.169	-0.078
-69.451	-36.005	-0.259	-0.137
-68.436	-64.185	-0.407	0.163
-67.422	77.251	0.199	-0.208
-66.407	213.683	-0.088	0.136
-65.392	49.801	0.108	-0.100
-64.378	800.000	-0.044	-0.121
-63.363	800.000	-0.059	-0.187
-62.349	800.000	0.109	0.303
-61.334	96.911	-0.993	-1.116
-60.319	291.584	0.378	0.674
-59.305	433.937	-0.462	-0.984
-58.290	68.771	0.862	0.867
-57.276	256.889	0.821	1.383
-56.261	-200.000	105.736	613.812
-55.246	505.345	1508.016	3422.646
-54.232	176.366	2700.417	3843.937
-53.217	110.595	2185.930	2575.110
-52.203	40.211	1704.319	1501.608
-51.188	32.809	1513.817	1283.584
-50.173	30.302	1487.568	1244.489
-49.159	51.389	1544.221	1436.648
-48.144	51.676	1560.235	1453.449
-47.130	32.912	1516.003	1285.935
-46.115	29.768	1501.570	1252.384
-45.100	29.680	1497.444	1248.305
-44.086	29.674	1495.481	1246.577
-43.071	29.542	1493.128	1243.674
-42.057	29.517	1491.395	1242.017
-41.042	29.584	1490.178	1241.403
-40.027	29.508	1488.931	1239.804
-39.013	29.492	1487.164	1238.175
-37.998	29.482	1486.041	1237.127
-36.984	29.497	1484.862	1236.193
-35.969	29.474	1483.428	1234.799
-34.954	29.576	1481.977	1234.222
-33.940	29.492	1480.687	1232.538
-32.925	29.654	1478.875	1232.063
-31.911	29.677	1477.595	1231.100
-30.896	29.702	1476.418	1230.235
-29.881	29.698	1475.153	1229.105
-28.867	29.667	1474.027	1227.916
-27.852	29.644	1472.685	1226.596
-26.838	29.641	1471.323	1225.391
-25.823	29.605	1469.633	1223.694
-24.809	29.648	1467.951	1222.535
-23.794	29.616	1466.360	1220.945
-22.779	29.596	1465.844	1220.339
-21.765	29.569	1465.118	1219.504
-20.750	29.702	1463.591	1219.066
-19.736	29.619	1462.183	1217.295
-18.721	29.580	1461.372	1216.313
-17.706	29.638	1459.906	1215.426
-16.692	29.579	1459.176	1214.385
-15.677	29.566	1458.079	1213.337
-14.663	29.572	1456.626	1212.118
-13.648	29.510	1456.071	1211.200
-12.633	29.569	1455.437	1211.017
-11.619	29.436	1454.654	1209.442
-10.604	29.396	1454.056	1208.638
-9.590	29.408	1452.986	1207.776
-8.575	29.530	1452.486	1208.113
-7.560	29.549	1451.039	1206.982
-6.546	29.467	1450.035	1205.569
-5.531	29.495	1449.203	1205.006
-4.517	29.464	1448.757	1204.389
-3.502	29.340	1448.103	1202.988
-2.487	29.650	1445.437	1202.741
-1.473	29.459	1445.270	1201.315
-0.458	29.521	1443.971	1200.592
0.556	27.119	1434.309	1189.517
1.571	24.248	1409.340	1150.213
2.586	21.022	1350.858	1082.399
3.600	19.610	1270.118	1009.363
4.615	18.321	1226.254	967.146
5.629	16.227	1171.346	912.449
6.644	8.158	1087.873	806.676
7.659	1.047	1047.251	741.764
8.673	-0.245	1042.550	732.074
9.688	-0.245	1038.586	729.223
10.702	-0.380	1036.964	727.367
11.717	-0.371	1034.825	725.847
12.731	2.880	1038.729	744.296
13.746	11.722	1051.236	796.414
14.761	18.625	1059.900	836.682
15.775	20.571	1061.480	847.350
16.790	20.793	1061.308	848.219
17.804	20.503	1060.568	846.144
18.819	20.441	1059.670	845.051
19.834	20.506	1058.956	844.720
20.848	20.744	1058.455	845.402
21.863	20.674	1058.186	844.775
22.877	20.660	1057.893	844.397
23.892	20.601	1057.353	843.607
24.907	20.637	1056.215	842.795
25.921	20.515	1055.958	841.928
26.936	20.550	1055.325	841.514
27.950	20.585	1053.603	840.237
28.965	20.570	1052.566	839.266
29.980	20.479	1050.906	837.425
30.994	20.344	1049.850	835.863
32.009	20.563	1048.676	835.906
33.023	20.682	1048.037	835.895
34.038	20.432	1046.564	833.448
35.053	20.521	1045.528	832.976
36.067	20.719	1045.037	833.459
37.082	20.678	1044.231	832.547
38.096	20.621	1043.777	831.838
39.111	20.758	1043.384	832.103
40.126	21.065	1041.805	832.237
41.140	21.019	1040.626	831.005
42.155	20.648	1039.533	828.289
43.169	20.309	1038.152	825.503
44.184	20.215	1037.279	824.290
45.199	20.346	1035.966	823.798
46.213	20.145	1034.751	821.803
47.228	20.333	1033.806	821.870
48.242	20.491	1032.958	821.874
49.257	20.478	1032.321	821.232
50.271	20.539	1031.507	820.796
51.286	20.598	1031.385	820.906
52.301	20.649	1030.074	820.033
53.315	20.655	1029.638	819.640
54.330	20.665	1028.671	818.843
55.344	20.426	1028.160	817.242
56.359	20.689	1026.355	816.969
57.374	20.642	1026.121	816.489
58.388	20.433	1025.111	814.633
59.403	20.411	1024.411	813.902
60.417	20.516	1023.499	813.598
61.432	20.278	1022.857	811.904
62.447	20.240	1022.327	811.230
63.461	20.393	1021.101	810.903
64.476	20.363	1021.208	810.775
65.490	20.383	1020.018	809.854
66.505	20.210	1019.029	808.187
67.520	20.282	1017.987	807.623
68.534	20.381	1017.241	807.425
69.549	20.358	1015.743	806.055
70.563	20.093	1014.566	803.820
71.578	19.902	1013.961	802.386
72.593	20.097	1012.902	802.380
73.607	19.884	1011.983	800.596
74.622	20.004	1010.810	800.148
75.636	20.077	1010.517	800.185
76.651	20.368	1009.406	800.576
77.666	20.201	1008.667	799.151
78.680	19.990	1008.161	797.705
79.695	20.044	1007.362	797.252
80.709	20.171	1006.779	797.303
81.724	20.233	1006.017	796.916
82.739	20.307	1004.911	796.306
83.753	20.256	1004.020	795.297
84.768	20.503	1003.330	795.813
85.782	20.721	1002.828	796.341
86.797	20.909	1002.132	796.578
87.812	20.926	1000.815	795.540
88.826	20.671	1000.339	793.927
89.841	20.758	999.494	793.583
90.855	20.907	998.288	793.231
91.870	20.874	997.840	792.656
92.884	20.824	996.991	791.684
93.899	20.716	996.045	790.371
94.914	20.714	994.877	789.365
95.928	20.768	994.209	789.010
96.943	20.761	993.425	788.290
97.957	20.521	992.056	786.045
98.972	20.288	991.282	784.312
99.987	20.110	990.072	782.482
101.001	20.293	989.537	782.813
102.016	20.603	988.573	783.380
103.030	20.532	987.943	782.489
104.045	20.549	986.588	781.423
105.060	20.353	985.543	779.647
106.074	20.173	984.386	777.856
107.089	20.153	983.498	776.995
108.103	20.508	983.620	778.616
109.118	20.569	982.642	778.043
110.133	20.325	981.229	775.766
111.147	20.516	979.944	775.533
112.162	20.216	979.191	773.530
113.176	20.038	977.523	771.353
114.191	20.140	976.838	771.198
115.206	20.308	975.980	771.198
116.220	20.108	974.867	769.364
117.235	19.966	973.710	767.752
118.249	20.043	973.299	767.703
119.264	20.058	972.277	766.896
120.279	20.086	970.940	765.897
121.293	19.974	970.652	765.106
122.308	20.109	970.002	765.122
123.322	20.166	968.950	764.475
124.337	20.137	968.057	763.574
125.352	20.091	966.650	762.198
126.366	19.815	964.658	759.346
127.381	19.407	963.240	756.374
128.395	19.785	963.403	758.093
129.410	20.470	963.166	760.841
130.424	20.631	962.246	760.750
131.439	20.608	960.752	759.402
132.454	20.523	959.924	758.308
133.468	20.570	959.031	757.740
134.483	20.503	957.937	756.518
135.497	20.430	957.960	756.153
136.512	20.661	957.230	756.514
137.527	20.762	956.258	756.115
138.541	20.719	955.454	755.229
139.556	20.885	954.102	754.812
140.570	20.738	953.356	753.518
141.585	20.761	952.957	753.235
142.600	20.764	952.408	752.747
143.614	20.759	950.865	751.442
144.629	20.717	950.411	750.834
145.643	21.062	949.771	751.748
146.658	20.901	948.722	750.161
147.673	20.720	947.329	748.215
148.687	20.621	946.367	746.963
149.702	20.680	945.126	746.169
150.716	20.491	944.383	744.706
151.731	20.549	942.744	743.596
152.746	20.627	942.322	743.533
153.760	20.926	941.448	744.052
154.775	20.871	941.350	743.675
155.789	20.967	940.231	743.136
156.804	20.919	939.254	742.092
157.819	20.894	938.037	740.961
158.833	20.818	937.925	740.482
159.848	21.014	936.970	740.495
160.862	20.945	936.109	739.454
161.877	20.918	934.521	738.022
162.892	20.730	934.059	736.797
163.906	20.953	933.287	737.064
164.921	21.001	932.531	736.604
165.935	20.876	931.163	734.931
166.950	20.795	929.884	733.518
167.964	20.941	929.057	733.416
168.979	20.750	928.278	731.929
169.994	20.783	927.097	731.072
171.008	20.714	926.194	730.007
172.023	20.938	925.576	730.394
173.037	20.966	924.735	729.784
174.052	20.909	923.563	728.557
175.067	20.585	922.610	726.388
176.081	20.488	921.967	725.411
177.096	20.778	920.474	725.381
178.110	20.822	919.739	724.918
179.125	20.450	919.217	722.895
180.140	20.252	917.979	721.036
181.154	20.324	917.232	720.687
182.169	20.562	916.792	721.263
183.183	20.569	916.916	721.326
184.198	21.063	915.814	722.441
185.213	20.908	915.050	721.133
186.227	20.684	914.785	719.933
187.242	20.736	914.280	719.690
188.256	20.922	913.039	719.416
189.271	20.944	912.368	718.916
190.286	20.942	911.816	718.408
191.300	20.907	910.715	717.333
192.315	20.406	909.322	714.111
193.329	19.732	908.186	710.388
194.344	19.327	906.869	707.631
195.359	19.951	907.182	710.374
196.373	20.746	907.271	713.643
197.388	20.929	907.193	714.271
198.402	20.835	906.233	713.066
199.417	20.861	905.391	712.446
200.432	20.704	905.391	711.742
201.446	20.507	904.913	710.494
202.461	20.393	903.644	708.974
203.475	20.298	903.682	708.550
204.490	20.020	901.780	705.865
205.504	18.879	900.026	699.785
206.519	19.382	899.896	701.671
207.534	20.261	899.981	705.248
208.548	20.400	899.301	705.217
209.563	20.887	899.277	707.115
210.577	20.857	898.200	706.082
211.592	20.590	897.754	704.588
212.607	20.947	897.815	706.020
213.621	20.918	896.987	705.188
214.636	20.918	896.367	704.638
215.650	21.033	896.008	704.759
216.665	20.949	895.206	703.725
217.680	20.952	895.051	703.554
218.694	21.015	894.693	703.465
219.709	20.719	893.135	700.985
220.723	20.453	891.933	698.910
221.738	20.599	891.578	699.159
222.753	20.676	891.561	699.390
223.767	20.730	890.610	698.803
224.782	20.947	889.311	698.591
225.796	20.982	888.933	698.370
226.811	21.230	888.462	698.931
227.826	20.833	886.851	696.015
228.840	20.035	885.887	692.012
229.855	19.835	885.408	690.776
230.869	20.146	885.049	691.679
231.884	19.740	884.151	689.296
232.899	19.831	883.358	688.977
233.913	20.671	883.652	692.494
234.928	20.773	883.644	692.831
235.942	20.704	882.771	691.811
236.957	20.770	882.148	691.526
237.972	20.494	880.854	689.354
238.986	20.506	880.088	688.741
240.001	20.524	879.989	688.674
241.015	20.506	879.079	687.830
242.030	20.479	878.515	687.221
243.045	20.737	878.239	687.964
244.059	20.894	877.187	687.698
245.074	20.938	877.207	687.825
246.088	20.858	876.350	686.780
247.103	20.326	875.888	684.258
248.117	20.459	874.718	683.808
249.132	20.930	874.942	685.776
250.147	21.437	874.561	687.409
251.161	21.486	873.777	686.924
252.176	21.560	873.279	686.765
253.190	21.654	872.320	686.316
254.205	21.563	871.833	685.517
255.220	21.872	871.383	686.313
256.234	21.817	870.760	685.545
257.249	21.673	870.352	684.601
258.263	21.498	869.519	683.202
259.278	21.467	869.025	682.632
260.293	21.623	868.542	682.800
261.307	21.738	867.926	682.702
262.322	21.612	867.217	681.596
263.336	21.586	866.367	680.764
264.351	20.998	865.090	677.418
265.366	19.875	863.316	671.612
266.380	19.404	862.385	669.004
267.395	20.419	862.968	673.332
268.409	21.124	862.886	675.942
269.424	21.197	861.936	675.419
270.439	21.355	861.568	675.682
271.453	21.507	860.638	675.480
272.468	21.508	860.258	675.127
273.482	21.697	860.090	675.663
274.497	21.703	859.641	675.272
275.512	21.702	858.681	674.456
276.526	21.032	856.957	670.468
277.541	21.212	857.097	671.210
278.555	21.667	856.575	672.489
279.570	21.338	856.165	670.847
280.585	21.096	855.247	669.137
281.599	21.243	854.670	669.190
282.614	21.251	854.283	668.858
283.628	20.846	853.424	666.579
284.643	20.585	852.305	664.648
285.657	20.964	852.608	666.274
286.672	21.003	851.421	665.435
287.687	20.376	850.552	662.309
288.701	20.770	850.550	663.749
289.716	21.309	849.631	665.026
290.730	20.842	849.175	662.833
291.745	20.702	848.299	661.560
292.760	20.690	847.276	660.656
293.774	20.366	847.282	659.375
294.789	21.323	847.635	663.223
295.803	21.982	847.227	665.344
296.818	21.899	847.044	664.827
297.833	22.106	846.336	664.995
298.847	22.017	844.999	663.550
299.862	21.432	844.673	661.024
300.876	21.653	844.221	661.447
301.891	21.935	843.252	661.694
302.906	21.983	843.100	661.697
303.920	21.753	841.318	659.375
304.935	21.476	841.173	658.158
305.949	21.792	840.906	659.083
306.964	22.007	840.441	659.468
307.979	21.701	839.739	657.708
308.993	21.668	839.206	657.109
310.008	22.049	838.780	658.146
311.022	22.222	838.458	658.483
312.037	21.893	837.840	656.706
313.052	21.809	837.054	655.720
314.066	21.673	836.415	654.652
315.081	21.043	835.050	651.176
316.095	20.328	833.708	647.404
317.110	20.928	834.109	649.898
318.125	21.711	834.544	653.099
319.139	21.253	833.206	650.287
320.154	20.240	831.298	644.976
321.168	19.814	830.905	643.031
322.183	20.425	830.802	645.164
323.197	21.161	831.439	648.338
324.212	21.333	831.031	648.602
325.227	21.623	830.339	649.078
326.241	21.819	829.745	649.281
327.256	21.765	829.227	648.620
328.270	21.696	828.891	648.046
329.285	21.542	827.894	646.641
330.300	21.238	827.875	645.445
331.314	21.166	826.574	644.105
332.329	21.423	825.935	644.499
333.343	21.587	825.711	644.870
334.358	21.805	825.202	645.219
335.373	21.859	824.552	644.852
336.387	21.973	824.096	644.857
337.402	22.004	823.821	644.698
338.416	22.395	823.122	645.528
339.431	22.298	822.628	644.728
340.446	22.239	822.077	644.025
341.460	22.135	822.230	643.705
342.475	22.321	821.537	643.787
343.489	22.177	820.286	642.225
344.504	22.148	819.839	641.710
345.519	22.510	819.358	642.600
346.533	22.655	819.453	643.146
347.548	22.641	819.001	642.681
348.562	22.758	818.471	642.637
349.577	22.742	817.824	642.014
350.592	22.644	817.344	641.223
351.606	22.579	816.722	640.443
352.621	22.562	816.468	640.123
353.635	22.361	816.316	639.219
354.650	22.369	815.344	638.429
355.665	22.158	814.087	636.624
356.679	21.107	812.578	631.588
357.694	20.983	812.366	630.916
358.708	21.592	811.996	632.776
359.723	21.485	811.806	632.184
360.738	21.778	811.486	632.937
361.752	22.220	811.276	634.315
362.767	22.326	811.082	634.488
363.781	22.540	811.017	635.152
364.796	22.951	810.254	635.980
365.810	23.084	809.860	636.090
366.825	23.011	809.909	635.810
367.840	23.067	809.335	635.505
368.854	22.737	808.737	633.794
369.869	22.463	807.571	631.843
370.883	22.230	807.349	630.775
371.898	22.511	806.499	631.062
372.913	22.432	805.486	629.931
373.927	22.294	805.409	629.322
374.942	22.379	804.842	629.126
375.956	22.479	804.003	628.771
376.971	22.617	803.803	629.055
377.986	22.650	803.418	628.814
379.000	22.926	802.905	629.342
380.015	22.876	802.592	628.861
381.029	22.797	801.638	627.777
382.044	22.670	801.256	626.969
383.059	22.702	801.163	626.956
384.073	22.845	800.456	626.854
385.088	22.879	799.717	626.341
386.102	22.876	799.080	625.776
387.117	22.858	798.096	624.886
388.132	22.677	797.746	623.918
389.146	22.444	797.230	622.634
390.161	21.965	796.270	620.139
391.175	21.957	796.071	619.900
392.190	22.645	795.568	621.882
393.205	22.640	795.259	621.567
394.219	21.716	793.775	617.099
395.234	20.110	791.686	609.775
396.248	19.357	790.538	606.190
397.263	20.538	791.521	611.046
398.278	22.313	792.641	618.097
399.292	22.581	792.680	619.013
400.307	22.238	792.041	617.256
401.321	22.167	791.426	616.475
402.336	22.236	791.445	616.675
403.350	22.539	791.205	617.497
404.365	22.991	790.996	618.862
405.380	23.306	790.804	619.759
406.394	23.533	790.310	620.110
407.409	23.630	790.137	620.262
408.423	23.655	789.505	619.796
409.438	23.484	789.086	618.814
410.453	23.503	788.734	618.552
411.467	23.651	788.286	618.662
412.482	23.523	787.870	617.832
413.496	23.528	787.101	617.194
414.511	23.648	786.708	617.249
415.526	23.607	786.609	616.973
416.540	23.628	785.976	616.494
417.555	23.614	785.341	615.895
418.569	23.374	784.470	614.326
419.584	23.128	784.144	613.163
420.599	23.353	783.589	613.453
421.613	157.111	1364.900	1797.661
422.628	135.813	1449.596	1797.756
