DTS Sentinel unit serial number:	SN413079Multiplexer serial number:	ORYXHardware model number:	OX4-SRSoftware version number:	ORYX F/W v4.00 Oryx Data Collector v3.7.2.0data status	okinstallation	princeton_trtdifferential loss correction	single-endedforward channel	channel 3reverse channel	N/Adate	2019/09/17time	03:56:35forward acquisition time	60.00reverse acquisition time	0.00gamma	496.2192k internal	0.2323k external	0.2323temperature offset calibration	0.9940default loss term (dB/km)	0.3790temperature slope calibration	1.0000multiplexer offset coefficient	1.0000multiplexer slope coefficient	1.0000fibre end	0.00T internal ref (°C)	29.92T ext. ref 1 (°C)	0.14T ext. ref 2 (°C)	24.44length (m)	temperature (°C)	Stokes	anti-Stokes-747.200	800.000	0.081	0.300
-746.185	-200.000	0.016	-0.202
-745.171	800.000	0.111	-0.345
-744.156	71.005	-0.210	0.219
-743.142	215.793	0.062	-0.099
-742.127	1.581	-0.225	-0.164
-741.112	76.461	-0.177	-0.189
-740.098	-40.681	0.426	0.223
-739.083	-59.120	0.196	-0.085
-738.069	-101.369	-0.170	-0.042
-737.054	214.156	-0.219	0.350
-736.039	142.328	-0.154	0.206
-735.025	-182.950	0.271	0.005
-734.010	-200.000	-0.031	-0.346
-732.996	595.214	-0.073	-0.182
-731.981	-200.000	-0.018	0.102
-730.966	90.057	0.152	-0.172
-729.952	-170.279	-0.396	-0.014
-728.937	-164.496	-0.216	-0.010
-727.923	-188.064	-0.220	0.003
-726.908	-16.817	0.229	-0.146
-725.894	20.388	-0.290	-0.237
-724.879	-11.938	-0.336	-0.222
-723.864	16.228	-0.037	0.030
-722.850	-200.000	-0.006	0.403
-721.835	-55.063	-0.026	0.012
-720.821	-200.000	-0.061	0.388
-719.806	23.448	-0.165	0.137
-718.791	800.000	0.067	0.188
-717.777	-53.540	-0.064	-0.029
-716.762	-82.770	-0.370	0.121
-715.748	-76.783	0.225	0.080
-714.733	-200.000	-0.025	-0.161
-713.718	-74.245	-0.194	0.071
-712.704	-176.351	0.158	0.004
-711.689	676.075	-0.098	-0.257
-710.675	138.423	0.091	-0.120
-709.660	-200.000	-0.029	-0.165
-708.645	336.032	0.014	0.027
-707.631	148.818	-0.136	0.186
-706.616	-171.849	0.419	-0.014
-705.602	800.000	0.055	-0.165
-704.587	116.052	0.127	0.157
-703.572	-104.260	-0.249	-0.058
-702.558	5.863	-0.052	0.039
-701.543	-8.936	-0.047	-0.031
-700.529	-28.338	-0.319	0.186
-699.514	202.071	-0.043	-0.067
-698.499	-107.775	-0.290	0.064
-697.485	-105.079	-0.261	-0.060
-696.470	174.952	-0.338	0.494
-695.456	-0.836	-0.383	-0.273
-694.441	87.368	-0.149	-0.166
-693.426	-200.000	0.018	-0.180
-692.412	71.506	0.132	-0.138
-691.397	-200.000	-0.016	0.172
-690.383	604.178	0.094	-0.237
-689.368	-18.689	0.060	-0.038
-688.354	-200.000	-0.011	-0.113
-687.339	38.063	0.254	-0.228
-686.324	800.000	0.122	-0.390
-685.310	16.703	-0.272	-0.216
-684.295	-107.124	-0.067	-0.015
-683.281	800.000	-0.070	-0.231
-682.266	-111.641	-0.286	-0.058
-681.251	189.798	0.121	-0.183
-680.237	106.739	-0.089	-0.107
-679.222	512.687	-0.070	0.164
-678.208	100.457	0.084	0.098
-677.193	800.000	-0.020	-0.056
-676.178	800.000	-0.045	-0.187
-675.164	800.000	-0.037	0.115
-674.149	690.488	0.047	-0.123
-673.135	32.896	-0.105	-0.092
-672.120	-200.000	0.014	0.078
-671.105	-55.289	-0.045	-0.020
-670.091	94.328	-0.129	0.147
-669.076	36.289	-0.105	-0.093
-668.062	40.783	0.141	-0.128
-667.047	295.713	0.172	-0.317
-666.032	84.449	-0.207	0.228
-665.018	-160.243	0.142	0.008
-664.003	77.398	0.271	0.290
-662.989	800.000	-0.132	-0.401
-661.974	-2.805	0.139	0.098
-660.959	-150.330	0.164	-0.013
-659.945	-200.000	0.020	0.294
-658.930	800.000	0.016	0.051
-657.916	333.016	0.035	-0.069
-656.901	-200.000	0.005	-0.582
-655.886	-36.167	-0.248	0.135
-654.872	800.000	0.076	0.222
-653.857	-42.318	-0.154	-0.079
-652.843	23.570	0.161	-0.133
-651.828	78.514	-0.050	-0.054
-650.814	-58.339	0.395	-0.173
-649.799	-200.000	-0.050	0.393
-648.784	-200.000	0.012	0.095
-647.770	-170.469	0.148	0.005
-646.755	205.847	-0.090	-0.140
-645.741	591.593	-0.059	-0.146
-644.726	28.770	0.156	0.133
-643.711	593.265	-0.116	-0.289
-642.697	-200.000	0.006	0.271
-641.682	167.475	0.138	0.197
-640.668	-194.647	0.117	0.001
-639.653	-39.964	0.274	-0.144
-638.638	82.735	-0.018	-0.020
-637.624	800.000	0.058	-0.182
-636.609	-2.583	-0.127	0.089
-635.595	481.537	-0.095	0.218
-634.580	71.133	-0.168	-0.175
-633.565	-160.265	-0.142	-0.008
-632.551	396.275	-0.150	0.314
-631.536	411.580	-0.156	0.333
-630.522	-126.064	0.207	-0.031
-629.507	686.992	0.122	-0.321
-628.492	-200.000	0.035	-0.175
-627.478	-158.915	0.374	-0.021
-626.463	22.316	-0.219	-0.180
-625.449	129.134	0.125	-0.160
-624.434	486.470	-0.067	-0.155
-623.419	-60.846	0.202	-0.086
-622.405	471.776	-0.051	-0.116
-621.390	-200.000	0.019	0.130
-620.376	-1.377	0.067	-0.047
-619.361	-39.752	-0.286	0.150
-618.346	-12.033	-0.246	0.162
-617.332	-200.000	-0.024	0.223
-616.317	-9.662	-0.237	-0.158
-615.303	-200.000	-0.023	-0.137
-614.288	-118.476	0.255	0.045
-613.273	-200.000	0.002	0.251
-612.259	39.974	-0.284	-0.256
-611.244	150.095	-0.218	-0.297
-610.230	55.118	-0.085	-0.083
-609.215	-200.000	0.055	-0.261
-608.201	-14.647	0.174	-0.113
-607.186	800.000	0.066	0.210
-606.171	-49.860	-0.232	0.110
-605.157	-25.790	0.269	-0.159
-604.142	-130.558	0.157	0.021
-603.128	188.472	0.015	-0.022
-602.113	120.657	0.043	0.054
-601.098	800.000	0.031	0.099
-600.084	268.257	0.094	-0.165
-599.069	35.517	-0.262	-0.231
-598.055	-114.302	-0.544	-0.105
-597.040	-200.000	-0.018	-0.219
-596.025	-200.000	0.025	0.109
-595.011	-2.594	0.313	-0.220
-593.996	-200.000	-0.004	-0.215
-592.982	468.191	0.097	0.218
-591.967	188.273	0.036	-0.054
-590.952	282.054	-0.118	0.212
-589.938	176.127	0.251	-0.366
-588.923	-105.916	-0.110	0.025
-587.909	800.000	-0.079	-0.249
-586.894	26.803	-0.048	-0.040
-585.879	-124.738	-0.220	0.034
-584.865	157.182	-0.169	-0.235
-583.850	53.575	0.267	-0.257
-582.836	263.090	-0.137	0.239
-581.821	48.745	0.172	0.162
-580.806	-107.814	0.174	0.038
-579.792	-70.458	0.137	0.052
-578.777	19.441	0.259	-0.209
-577.763	305.795	0.070	-0.130
-576.748	562.669	-0.137	0.333
-575.733	-69.886	0.159	0.061
-574.719	-110.360	-0.162	0.034
-573.704	-7.768	0.145	0.098
-572.690	-200.000	-0.005	0.042
-571.675	-63.301	0.136	-0.056
-570.661	35.972	-0.063	-0.055
-569.646	424.748	-0.183	-0.395
-568.631	39.150	-0.156	0.140
-567.617	-98.841	-0.300	-0.077
-566.602	-200.000	-0.011	-0.097
-565.588	-200.000	-0.041	-0.207
-564.573	82.015	0.080	-0.087
-563.558	647.747	0.056	-0.142
-562.544	800.000	-0.070	-0.274
-561.529	-118.719	0.131	-0.023
-560.515	464.562	0.056	0.125
-559.500	21.332	-0.233	0.190
-558.485	-63.625	-0.372	-0.153
-557.471	224.310	0.186	-0.302
-556.456	3.099	-0.092	0.067
-555.442	-200.000	0.010	-0.054
-554.427	-106.241	-0.264	0.059
-553.412	40.986	0.185	-0.168
-552.398	226.506	0.042	-0.068
-551.383	-46.761	-0.055	-0.027
-550.369	258.473	-0.176	-0.304
-549.354	185.818	-0.306	0.456
-548.339	-67.792	0.381	-0.149
-547.325	-200.000	-0.012	0.126
-546.310	280.067	0.047	0.084
-545.296	-200.000	-0.017	0.322
-544.281	-48.946	-0.348	-0.167
-543.266	-133.916	-0.081	0.010
-542.252	-189.621	0.167	-0.002
-541.237	-191.315	-0.076	0.001
-540.223	-70.817	0.087	-0.033
-539.208	166.010	0.197	-0.280
-538.193	-117.929	0.260	-0.047
-537.179	138.302	-0.145	0.191
-536.164	195.111	-0.090	-0.138
-535.150	-200.000	0.063	0.334
-534.135	320.668	-0.063	0.119
-533.121	611.095	-0.052	-0.130
-532.106	-163.592	-0.313	-0.015
-531.091	800.000	-0.063	0.255
-530.077	-105.829	0.379	-0.086
-529.062	57.793	0.096	0.094
-528.048	-67.102	0.283	-0.112
-527.033	-120.459	-0.249	-0.042
-526.018	118.276	-0.224	-0.277
-525.004	157.117	0.117	0.162
-523.989	10.339	-0.147	0.112
-522.975	0.638	0.274	-0.196
-521.960	-200.000	0.026	0.118
-520.945	800.000	0.127	-0.357
-519.931	-98.368	-0.191	-0.049
-518.916	114.107	-0.009	-0.011
-517.902	560.067	0.083	0.200
-516.887	800.000	-0.045	0.170
-515.872	-25.952	-0.034	-0.020
-514.858	13.400	0.528	-0.410
-513.843	-200.000	0.016	-0.136
-512.829	-200.000	-0.024	-0.390
-511.814	14.717	0.127	0.099
-510.799	-200.000	-0.014	0.330
-509.785	710.547	-0.061	0.162
-508.770	-127.448	0.171	0.025
-507.756	217.040	-0.166	-0.265
-506.741	56.616	-0.240	-0.234
-505.726	-80.218	0.114	-0.038
-504.712	51.798	0.197	-0.187
-503.697	-138.022	-0.345	-0.038
-502.683	255.376	-0.060	0.103
-501.668	-26.066	0.148	-0.087
-500.653	800.000	0.104	0.387
-499.639	-200.000	-0.031	-0.309
-498.624	723.775	-0.123	-0.328
-497.610	-11.166	-0.284	0.187
-496.595	-194.241	-0.113	0.001
-495.581	-175.121	-0.283	0.008
-494.566	-45.353	0.154	0.076
-493.551	77.940	-0.219	-0.233
-492.537	42.680	-0.238	0.216
-491.522	-200.000	-0.007	-0.111
-490.508	800.000	0.045	-0.146
-489.493	-197.359	0.260	0.002
-488.478	168.859	-0.030	0.043
-487.464	-136.043	0.160	0.019
-486.449	24.787	0.511	0.423
-485.435	101.246	-0.081	0.094
-484.420	-14.393	0.317	-0.204
-483.405	-53.427	0.335	-0.153
-482.391	19.788	-0.196	0.158
-481.376	25.323	-0.084	-0.070
-480.362	800.000	0.078	-0.218
-479.347	-23.672	-0.127	0.076
-478.332	-109.781	-0.161	-0.034
-477.318	118.346	0.202	0.249
-476.303	-56.679	0.158	-0.070
-475.289	-200.000	-0.032	-0.217
-474.274	-120.523	0.087	-0.015
-473.259	531.117	0.157	0.371
-472.245	-63.043	0.334	0.138
-471.230	-11.974	-0.087	0.057
-470.216	-110.343	-0.089	-0.019
-469.201	617.421	0.053	-0.132
-468.186	-80.115	0.142	0.048
-467.172	-154.310	0.126	-0.008
-466.157	114.384	-0.126	0.153
-465.143	-18.414	-0.166	-0.103
-464.128	-200.000	0.041	-0.218
-463.113	-89.742	-0.169	0.049
-462.099	-200.000	0.038	-0.181
-461.084	270.151	0.101	-0.177
-460.070	-49.945	-0.184	0.087
-459.055	-200.000	-0.027	0.188
-458.040	-200.000	-0.029	0.195
-457.026	-200.000	0.014	0.222
-456.011	-101.390	-0.054	0.013
-454.997	-154.298	-0.090	0.006
-453.982	85.655	0.229	-0.251
-452.968	-200.000	0.038	0.234
-451.953	15.286	0.176	0.138
-450.938	753.771	-0.112	-0.303
-449.924	-164.838	-0.027	0.001
-448.909	12.908	0.104	-0.081
-447.895	-115.624	-0.249	-0.047
-446.880	115.792	0.137	0.168
-445.865	-200.000	0.005	0.093
-444.851	47.539	-0.215	0.200
-443.836	-35.391	-0.141	0.077
-442.822	-72.721	-0.144	0.053
-441.807	-72.675	-0.063	0.023
-440.792	-36.674	-0.412	0.221
-439.778	435.107	-0.129	-0.280
-438.763	411.643	-0.039	0.082
-437.749	-22.060	-0.216	-0.131
-436.734	178.800	-0.090	-0.131
-435.719	-162.274	0.029	-0.001
-434.705	800.000	0.069	0.210
-433.690	24.419	0.104	-0.086
-432.676	-11.617	0.147	0.096
-431.661	-52.100	-0.179	0.083
-430.646	-97.048	0.259	0.068
-429.632	229.762	0.068	0.111
-428.617	-60.204	0.312	0.133
-427.603	549.216	0.067	0.161
-426.588	6.038	-0.159	0.117
-425.573	358.829	-0.154	-0.307
-424.559	-88.181	-0.041	-0.012
-423.544	136.539	0.192	0.250
-422.530	-100.649	-0.252	-0.062
-421.515	-15.255	-0.089	0.057
-420.500	-200.000	0.003	-0.098
-419.486	10.538	0.097	-0.074
-418.471	-35.681	-0.134	-0.073
-417.457	-15.845	0.024	-0.015
-416.442	-65.356	0.193	-0.077
-415.428	800.000	-0.102	0.338
-414.413	-200.000	0.050	0.321
-413.398	-190.631	-0.191	-0.002
-412.384	28.135	0.189	-0.159
-411.369	27.797	-0.063	0.053
-410.355	25.874	0.128	0.106
-409.340	-101.607	-0.063	-0.015
-408.325	-127.920	-0.252	0.036
-407.311	-200.000	-0.017	0.429
-406.296	-200.000	-0.015	-0.275
-405.282	800.000	-0.106	0.316
-404.267	-200.000	0.022	0.244
-403.252	116.675	-0.119	0.146
-402.238	-113.841	-0.079	0.015
-401.223	483.138	-0.038	0.086
-400.209	247.999	-0.095	-0.160
-399.194	800.000	-0.059	-0.196
-398.179	132.115	-0.147	0.188
-397.165	-140.527	0.147	0.015
-396.150	57.491	0.224	-0.218
-395.136	800.000	0.010	-0.043
-394.121	-200.000	-0.017	0.117
-393.106	78.884	0.155	0.165
-392.092	-200.000	-0.015	0.108
-391.077	-111.918	-0.072	0.015
-390.063	-200.000	0.010	-0.085
-389.048	-200.000	0.030	-0.233
-388.033	-200.000	0.007	-0.141
-387.019	399.104	-0.156	0.325
-386.004	-87.792	-0.261	0.078
-384.990	350.274	0.083	0.163
-383.975	293.415	0.149	-0.270
-382.960	-75.115	0.161	-0.057
-381.946	265.123	0.095	-0.165
-380.931	-200.000	0.067	-0.351
-379.917	800.000	-0.057	0.215
-378.902	421.497	-0.040	0.084
-377.888	800.000	-0.080	0.239
-376.873	84.126	-0.278	-0.303
-375.858	-110.503	0.342	-0.071
-374.844	122.563	0.212	-0.264
-373.829	-108.863	-0.113	0.024
-372.815	-94.643	0.252	-0.068
-371.800	-94.914	0.081	0.022
-370.785	307.076	0.056	-0.104
-369.771	800.000	-0.049	-0.143
-368.756	-24.315	-0.021	0.013
-367.742	-200.000	0.032	0.299
-366.727	800.000	-0.077	0.231
-365.712	-40.893	-0.078	0.040
-364.698	49.873	0.320	0.300
-363.683	-41.507	-0.211	-0.108
-362.669	-76.773	0.069	-0.024
-361.654	-167.698	0.327	0.013
-360.639	-137.880	-0.463	0.052
-359.625	-14.663	-0.430	-0.275
-358.610	-200.000	-0.024	0.111
-357.596	800.000	0.041	0.132
-356.581	-200.000	-0.037	0.183
-355.566	800.000	0.096	0.367
-354.552	-138.011	0.241	0.027
-353.537	-0.264	0.163	0.116
-352.523	-107.537	-0.086	-0.019
-351.508	800.000	-0.085	0.350
-350.493	-80.679	-0.198	-0.066
-349.479	240.501	0.074	0.123
-348.464	-54.508	-0.215	0.097
-347.450	-63.578	-0.073	-0.030
-346.435	-56.939	0.029	-0.013
-345.420	229.051	-0.145	-0.235
-344.406	800.000	0.071	0.243
-343.391	-200.000	0.036	0.440
-342.377	-80.632	-0.086	-0.028
-341.362	-114.652	-0.175	0.033
-340.348	-200.000	-0.002	-0.241
-339.333	-169.901	-0.162	0.006
-338.318	800.000	-0.047	0.192
-337.304	-108.119	0.372	0.080
-336.289	-107.896	0.115	0.025
-335.275	-200.000	0.012	-0.193
-334.260	-84.228	-0.299	-0.094
-333.245	284.335	0.292	-0.522
-332.231	-87.304	0.450	0.136
-331.216	-145.571	0.157	-0.014
-330.202	-62.847	0.214	0.088
-329.187	-135.434	0.195	0.023
-328.172	105.147	0.007	-0.008
-327.158	-123.716	0.402	0.063
-326.143	-121.293	-0.175	-0.029
-325.129	-200.000	0.040	-0.326
-324.114	-21.133	-0.273	-0.166
-323.099	70.996	0.190	0.195
-322.085	-164.394	-0.105	0.005
-321.070	-77.779	-0.207	-0.071
-320.056	-69.927	-0.094	-0.035
-319.041	-34.810	0.271	0.147
-318.026	358.003	0.111	-0.219
-317.012	-47.651	-0.129	0.062
-315.997	800.000	-0.049	0.175
-314.983	19.190	0.186	-0.148
-313.968	50.393	-0.246	-0.231
-312.953	800.000	0.023	-0.091
-311.939	209.579	0.100	-0.156
-310.924	-199.314	0.141	0.001
-309.910	800.000	0.008	-0.026
-308.895	-17.064	-0.174	0.109
-307.880	749.002	0.021	0.055
-306.866	245.737	-0.206	-0.344
-305.851	800.000	-0.104	-0.288
-304.837	519.864	-0.086	-0.201
-303.822	-200.000	0.025	-0.132
-302.807	-107.754	-0.321	-0.070
-301.793	368.687	0.150	0.301
-300.778	-195.535	0.061	-0.000
-299.764	-3.212	-0.526	0.364
-298.749	123.433	0.128	-0.159
-297.735	-200.000	-0.046	0.262
-296.720	-148.739	0.510	0.041
-295.705	180.457	-0.178	0.259
-294.691	-72.082	-0.407	-0.150
-293.676	-137.475	0.213	-0.024
-292.662	-200.000	-0.002	-0.163
-291.647	-161.425	-0.221	0.011
-290.632	-200.000	-0.021	0.133
-289.618	337.838	0.193	0.372
-288.603	252.944	0.068	0.114
-287.589	-67.877	0.113	0.044
-286.574	-103.115	-0.155	-0.036
-285.559	54.447	-0.143	-0.137
-284.545	-133.708	-0.307	-0.038
-283.530	40.919	-0.035	-0.031
-282.516	312.640	-0.135	0.252
-281.501	1.597	-0.140	0.100
-280.486	411.763	-0.219	-0.462
-279.472	58.761	-0.100	0.098
-278.457	-113.525	0.297	-0.058
-277.443	56.591	-0.102	0.099
-276.428	-200.000	0.003	0.182
-275.413	68.202	0.207	-0.210
-274.399	-200.000	0.023	-0.177
-273.384	-81.491	-0.138	0.045
-272.370	-200.000	0.015	-0.152
-271.355	-200.000	0.033	-0.158
-270.340	-89.665	0.276	-0.080
-269.326	-117.114	-0.414	-0.075
-268.311	-200.000	0.047	0.270
-267.297	-181.803	-0.095	0.002
-266.282	13.679	0.079	-0.061
-265.267	800.000	-0.086	0.239
-264.253	79.655	-0.099	0.105
-263.238	-200.000	-0.052	-0.427
-262.224	800.000	0.060	-0.228
-261.209	57.167	0.161	0.156
-260.195	56.934	0.080	-0.077
-259.180	-71.063	0.078	-0.029
-258.165	-200.000	-0.018	0.225
-257.151	-166.137	-0.017	-0.001
-256.136	86.673	-0.206	0.226
-255.122	-200.000	-0.019	-0.085
-254.107	104.289	-0.060	0.070
-253.092	-118.542	-0.205	-0.036
-252.078	-115.131	0.152	0.029
-251.063	-200.000	-0.041	-0.203
-250.049	-200.000	-0.032	0.248
-249.034	-96.181	0.114	-0.030
-248.019	331.736	-0.088	-0.168
-247.005	-200.000	0.009	-0.143
-245.990	800.000	-0.074	-0.301
-244.976	-21.432	-0.167	0.101
-243.961	24.228	0.049	0.040
-242.946	-144.631	0.336	-0.031
-241.932	74.617	-0.138	0.143
-240.917	267.235	-0.136	-0.235
-239.903	-136.163	-0.187	0.022
-238.888	-66.726	-0.186	0.073
-237.873	226.656	-0.215	0.345
-236.859	-92.554	0.460	0.128
-235.844	170.081	0.086	-0.122
-234.830	-200.000	0.005	0.052
-233.815	-62.960	0.081	-0.033
-232.800	-200.000	-0.016	0.411
-231.786	193.796	0.183	-0.275
-230.771	-113.394	-0.111	-0.021
-229.757	-200.000	0.020	-0.176
-228.742	-87.195	0.321	-0.096
-227.727	239.389	0.042	-0.069
-226.713	-200.000	0.045	0.275
-225.698	-152.392	0.400	0.028
-224.684	-27.238	-0.214	0.124
-223.669	37.717	0.164	-0.145
-222.655	318.259	0.228	-0.426
-221.640	800.000	-0.017	-0.054
-220.625	241.367	0.166	0.274
-219.611	-4.722	-0.340	-0.232
-218.596	74.332	-0.121	-0.126
-217.582	-48.880	-0.128	0.061
-216.567	-107.964	-0.202	0.043
-215.552	55.923	0.024	0.023
-214.538	-20.197	-0.151	-0.092
-213.523	90.198	-0.184	0.204
-212.509	292.197	0.128	-0.231
-211.494	505.540	0.095	0.218
-210.479	-200.000	0.007	-0.142
-209.465	-200.000	-0.006	-0.195
-208.450	88.017	0.131	-0.144
-207.436	2.674	0.140	0.100
-206.421	-119.480	0.126	0.022
-205.406	52.265	0.144	-0.136
-204.392	178.102	0.167	0.240
-203.377	95.740	-0.100	-0.113
-202.363	-200.000	-0.035	-0.281
-201.348	372.559	0.117	0.236
-200.333	800.000	-0.051	0.154
-199.319	82.997	-0.046	0.050
-198.304	-72.622	0.355	-0.129
-197.290	-157.422	0.257	-0.015
-196.275	-200.000	0.007	0.040
-195.260	-89.800	-0.104	0.030
-194.246	30.343	-0.117	0.098
-193.231	377.598	-0.082	0.165
-192.217	-110.382	-0.240	-0.049
-191.202	-102.075	0.045	0.011
-190.187	117.674	0.157	0.191
-189.173	-200.000	0.001	0.146
-188.158	351.684	0.182	-0.357
-187.144	800.000	0.025	-0.095
-186.129	-200.000	0.060	-0.408
-185.114	-200.000	-0.007	-0.087
-184.100	-155.916	0.342	-0.021
-183.085	15.816	0.191	-0.148
-182.071	451.791	0.196	0.427
-181.056	-52.974	-0.139	0.063
-180.042	-124.150	-0.265	0.041
-179.027	-105.529	-0.251	0.056
-178.012	-200.000	0.019	-0.096
-176.998	122.935	-0.135	-0.166
-175.983	-105.044	0.286	0.065
-174.969	-75.137	-0.006	0.002
-173.954	-149.056	0.232	0.018
-172.939	-134.390	0.273	0.033
-171.925	-200.000	0.006	0.259
-170.910	800.000	-0.062	0.214
-169.896	127.680	-0.197	-0.247
-168.881	122.268	-0.298	0.368
-167.866	-200.000	0.001	-0.057
-166.852	800.000	0.035	0.135
-165.837	-178.541	0.171	0.004
-164.823	188.890	0.066	-0.097
-163.808	800.000	0.080	-0.251
-162.793	-200.000	0.053	0.242
-161.779	677.544	0.104	0.268
-160.764	-31.769	0.181	-0.100
-159.750	-34.577	-0.360	0.195
-158.735	-200.000	-0.037	0.164
-157.720	-82.821	-0.028	-0.009
-156.706	-200.000	0.024	-0.193
-155.691	-68.998	-0.191	0.073
-154.677	391.438	-0.054	0.111
-153.662	-200.000	0.032	0.193
-152.647	126.871	0.276	0.345
-151.633	79.886	0.241	0.256
-150.618	-125.835	0.250	0.037
-149.604	-54.555	-0.058	-0.026
-148.589	-33.289	-0.272	0.149
-147.574	22.652	-0.271	-0.219
-146.560	800.000	-0.121	-0.353
-145.545	-25.441	0.309	0.180
-144.531	-99.678	0.221	-0.055
-143.516	-123.107	0.395	0.063
-142.502	525.151	-0.042	-0.097
-141.487	-98.409	0.140	-0.035
-140.472	652.299	-0.076	-0.193
-139.458	152.972	0.116	-0.156
-138.443	535.808	0.039	-0.092
-137.429	-200.000	0.020	0.183
-136.414	73.759	0.214	-0.221
-135.399	800.000	0.101	0.378
-134.385	11.499	0.078	0.059
-133.370	-59.249	0.225	-0.096
-132.356	-117.455	-0.113	-0.020
-131.341	14.458	0.194	0.149
-130.326	717.161	-0.098	0.256
-129.312	219.155	-0.071	0.113
-128.297	-155.476	0.112	0.007
-127.283	480.428	-0.068	-0.153
-126.268	-81.349	-0.280	0.091
-125.253	800.000	-0.013	-0.037
-124.239	-16.475	-0.251	0.157
-123.224	800.000	0.047	-0.151
-122.210	22.767	-0.065	0.053
-121.195	230.778	0.158	-0.254
-120.180	-117.056	-0.130	-0.023
-119.166	-31.940	-0.076	-0.042
-118.151	461.274	-0.029	-0.065
-117.137	586.534	-0.098	-0.238
-116.122	-200.000	-0.024	0.420
-115.107	62.416	0.085	0.084
-114.093	-54.337	-0.163	-0.073
-113.078	-200.000	-0.004	0.141
-112.064	-72.656	0.129	-0.047
-111.049	800.000	-0.068	-0.241
-110.034	800.000	-0.047	-0.154
-109.020	-200.000	-0.010	0.133
-108.005	18.158	0.155	0.122
-106.991	185.400	0.168	-0.245
-105.976	-200.000	0.014	-0.353
-104.962	-200.000	-0.068	-0.341
-103.947	-200.000	0.024	-0.114
-102.932	-177.206	-0.220	0.005
-101.918	-91.871	0.137	-0.038
-100.903	284.480	0.154	0.273
-99.889	-45.264	0.125	0.061
-98.874	-126.471	0.395	-0.058
-97.859	-200.000	-0.030	-0.214
-96.845	-105.811	0.138	0.031
-95.830	-80.575	0.170	-0.056
-94.816	-86.880	0.204	-0.061
-93.801	145.086	-0.078	-0.103
-92.786	-94.394	0.039	-0.011
-91.772	-73.658	0.178	-0.064
-90.757	381.999	-0.097	-0.196
-89.743	-3.133	-0.237	-0.163
-88.728	23.165	0.099	-0.080
-87.713	201.682	-0.150	0.227
-86.699	-12.019	0.178	-0.115
-85.684	-73.175	-0.329	-0.119
-84.670	132.656	-0.162	0.205
-83.655	30.773	0.063	-0.053
-82.640	800.000	-0.076	-0.224
-81.626	-4.734	-0.167	0.113
-80.611	-56.757	0.239	-0.104
-79.597	128.324	-0.081	-0.102
-78.582	-47.293	0.415	-0.199
-77.567	15.913	-0.169	0.131
-76.553	-139.332	-0.124	0.013
-75.538	216.684	-0.175	0.273
-74.524	800.000	-0.039	0.133
-73.509	79.175	0.152	-0.161
-72.494	-82.599	0.218	-0.070
-71.480	-200.000	0.023	-0.154
-70.465	180.214	0.144	-0.208
-69.451	-44.134	0.065	-0.032
-68.436	80.800	0.165	-0.175
-67.422	76.385	-0.126	-0.131
-66.407	-118.704	0.242	0.042
-65.392	749.668	-0.072	-0.192
-64.378	324.537	-0.119	-0.223
-63.363	-103.159	-0.274	0.064
-62.349	7.806	0.326	0.240
-61.334	63.400	-0.971	-0.957
-60.319	32.651	0.554	0.471
-59.305	-200.000	0.052	-1.297
-58.290	172.948	0.660	0.935
-57.276	-200.000	0.209	1.465
-56.261	-200.000	106.212	581.294
-55.246	455.515	1463.988	3191.333
-54.232	148.515	2648.414	3516.213
-53.217	106.246	2179.680	2538.191
-52.203	40.200	1709.805	1511.248
-51.188	33.055	1521.989	1296.392
-50.173	30.674	1495.021	1257.302
-49.159	50.834	1548.979	1441.972
-48.144	51.429	1566.199	1462.046
-47.130	33.222	1523.509	1298.627
-46.115	30.157	1508.512	1264.921
-45.100	30.041	1505.258	1261.352
-44.086	29.998	1502.847	1258.991
-43.071	29.792	1500.963	1255.964
-42.057	29.843	1499.492	1255.027
-41.042	29.890	1498.328	1254.322
-40.027	29.972	1495.759	1252.678
-39.013	29.869	1494.587	1250.947
-37.998	29.821	1493.539	1249.698
-36.984	29.806	1492.742	1248.881
-35.969	29.864	1491.108	1247.853
-34.954	29.901	1489.423	1246.644
-33.940	29.941	1487.712	1245.432
-32.925	29.890	1486.712	1244.202
-31.911	29.920	1485.497	1243.340
-30.896	30.021	1484.084	1242.784
-29.881	30.001	1483.003	1241.696
-28.867	29.932	1481.686	1240.078
-27.852	29.915	1480.621	1239.026
-26.838	30.007	1478.973	1238.211
-25.823	29.999	1477.456	1236.842
-24.809	29.935	1475.999	1235.146
-23.794	29.955	1474.494	1233.967
-22.779	29.972	1473.297	1233.030
-21.765	29.908	1472.395	1231.803
-20.750	29.996	1471.181	1231.323
-19.736	29.973	1470.203	1230.300
-18.721	29.956	1468.807	1228.975
-17.706	29.934	1467.834	1227.965
-16.692	29.968	1466.470	1226.999
-15.677	29.935	1465.561	1225.970
-14.663	29.937	1464.595	1225.125
-13.648	29.968	1463.489	1224.360
-12.633	29.953	1462.515	1223.394
-11.619	29.877	1462.092	1222.492
-10.604	29.993	1460.843	1222.166
-9.590	29.873	1460.135	1220.735
-8.575	29.928	1459.155	1220.224
-7.560	29.920	1458.405	1219.501
-6.546	29.893	1457.403	1218.435
-5.531	29.814	1456.887	1217.432
-4.517	29.858	1455.644	1216.637
-3.502	29.868	1454.684	1215.850
-2.487	29.943	1453.343	1215.178
-1.473	29.855	1452.548	1213.888
-0.458	29.767	1451.203	1212.139
0.556	27.962	1441.599	1201.331
1.571	25.039	1415.755	1160.784
2.586	21.586	1354.405	1088.946
3.600	19.908	1271.965	1012.765
4.615	18.721	1227.169	970.306
5.629	16.207	1171.438	912.577
6.644	8.296	1085.687	805.903
7.659	1.267	1045.392	741.659
8.673	0.471	1039.508	733.552
9.688	0.090	1036.753	729.698
10.702	0.040	1035.191	728.293
11.717	-0.031	1033.470	726.674
12.731	2.539	1036.286	741.031
13.746	10.829	1046.807	788.869
14.761	16.916	1054.163	824.009
15.775	17.389	1053.770	825.927
16.790	16.417	1051.816	819.612
17.804	15.361	1049.527	812.644
18.819	14.537	1047.534	807.042
19.834	14.183	1046.117	804.168
20.848	13.866	1045.245	801.893
21.863	13.622	1044.579	800.134
22.877	13.258	1044.174	797.995
23.892	13.121	1043.176	796.506
24.907	13.035	1042.261	795.322
25.921	12.961	1042.131	794.793
26.936	13.034	1041.178	794.346
27.950	13.115	1040.409	794.081
28.965	13.176	1039.503	793.613
29.980	13.254	1038.268	792.975
30.994	13.288	1037.703	792.635
32.009	13.322	1036.460	791.778
33.023	13.428	1035.993	791.857
34.038	13.413	1035.139	791.064
35.053	13.260	1034.598	789.850
36.067	13.276	1033.210	788.798
37.082	13.255	1032.627	788.182
38.096	13.300	1031.662	787.587
39.111	13.462	1030.833	787.658
40.126	13.325	1030.375	786.586
41.140	13.245	1029.140	785.192
42.155	13.029	1028.581	783.672
43.169	13.070	1027.443	782.930
44.184	13.082	1026.638	782.306
45.199	13.029	1025.325	780.984
46.213	13.066	1024.266	780.282
47.228	12.988	1023.248	779.072
48.242	13.169	1022.485	779.276
49.257	13.212	1021.502	778.657
50.271	13.172	1021.028	778.039
51.286	13.172	1019.738	776.988
52.301	13.239	1019.106	776.754
53.315	13.172	1018.149	775.640
54.330	13.108	1017.536	774.802
55.344	13.088	1016.590	773.921
56.359	13.153	1015.045	772.981
57.374	13.045	1015.019	772.386
58.388	13.047	1013.944	771.509
59.403	13.167	1012.940	771.239
60.417	13.077	1011.974	770.014
61.432	13.076	1011.666	769.707
62.447	13.015	1010.708	768.626
63.461	12.906	1010.030	767.538
64.476	12.989	1008.928	767.017
65.490	12.916	1008.177	766.039
66.505	12.953	1007.264	765.450
67.520	12.967	1006.870	765.146
68.534	13.059	1006.071	764.896
69.549	13.092	1005.163	764.294
70.563	13.000	1004.671	763.426
71.578	13.053	1003.741	762.896
72.593	12.949	1002.944	761.741
73.607	12.870	1001.970	760.571
74.622	12.949	1000.890	760.050
75.636	12.869	1000.412	759.251
76.651	13.057	999.114	759.060
77.666	12.899	998.590	757.869
78.680	12.852	998.106	757.220
79.695	12.958	997.512	757.192
80.709	12.876	996.976	756.339
81.724	12.931	996.191	755.931
82.739	13.115	995.279	756.012
83.753	13.184	994.280	755.501
84.768	13.034	993.918	754.475
85.782	13.108	993.484	754.418
86.797	13.215	992.396	754.013
87.812	13.232	991.446	753.300
88.826	13.227	990.762	752.692
89.841	13.091	990.168	751.553
90.855	13.195	989.534	751.479
91.870	13.149	988.580	750.482
92.884	13.255	987.735	750.255
93.899	13.257	987.207	749.794
94.914	13.194	986.479	748.890
95.928	13.324	985.450	748.632
96.943	13.326	984.937	748.186
97.957	13.278	984.344	747.449
98.972	13.211	983.157	746.180
99.987	13.341	982.327	746.070
101.001	13.186	981.829	744.928
102.016	13.285	980.870	744.582
103.030	13.256	980.308	743.957
104.045	13.274	979.125	743.074
105.060	13.293	978.197	742.389
106.074	13.260	977.095	741.338
107.089	13.120	976.010	739.826
108.103	13.123	975.529	739.409
109.118	13.030	974.733	738.322
110.133	13.060	974.040	737.868
111.147	13.022	973.266	737.044
112.162	13.026	972.039	736.069
113.176	13.035	971.278	735.469
114.191	13.142	970.230	735.083
115.206	13.118	969.731	734.538
116.220	13.133	968.915	733.920
117.235	13.182	967.897	733.301
118.249	13.153	966.887	732.340
119.264	13.348	966.059	732.515
120.279	13.140	965.732	731.279
121.293	13.109	964.622	730.236
122.308	13.133	964.079	729.868
123.322	13.161	963.039	729.141
124.337	13.080	962.046	727.965
125.352	13.088	960.986	727.137
126.366	13.169	959.788	726.519
127.381	13.194	958.511	725.600
128.395	13.087	957.944	724.636
129.410	13.064	956.917	723.694
130.424	13.086	956.329	723.281
131.439	13.083	955.399	722.501
132.454	13.230	954.211	722.182
133.468	13.209	953.505	721.492
134.483	13.252	953.351	721.498
135.497	13.247	952.350	720.657
136.512	13.235	951.301	719.745
137.527	13.093	950.832	718.710
138.541	13.243	950.087	718.736
139.556	13.246	949.331	718.112
140.570	13.178	948.853	717.391
141.585	13.293	947.791	717.025
142.600	13.353	947.161	716.743
143.614	13.269	946.307	715.673
144.629	13.277	945.998	715.409
145.643	13.356	945.004	714.936
146.658	13.350	944.049	714.123
147.673	13.452	942.829	713.577
148.687	13.426	942.029	712.795
149.702	13.301	941.149	711.532
150.716	13.284	940.572	710.957
151.731	13.286	939.951	710.435
152.746	13.107	939.251	709.073
153.760	13.239	938.495	709.006
154.775	13.327	937.277	708.399
155.789	13.283	936.688	707.706
156.804	13.390	936.001	707.578
157.819	13.298	935.220	706.534
158.833	13.362	934.467	706.175
159.848	13.361	934.075	705.811
160.862	13.482	933.005	705.456
161.877	13.516	932.450	705.122
162.892	13.420	931.708	704.090
163.906	13.432	930.915	703.477
164.921	13.311	930.266	702.411
165.935	13.459	929.141	702.127
166.950	13.341	928.430	701.028
167.964	13.454	927.241	700.549
168.979	13.358	926.380	699.430
169.994	13.377	925.757	698.977
171.008	13.517	924.381	698.467
172.023	13.464	923.988	697.886
173.037	13.549	923.333	697.685
174.052	13.566	922.379	696.973
175.067	13.482	921.554	695.937
176.081	13.414	921.193	695.316
177.096	13.455	920.191	694.672
178.110	13.408	919.335	693.767
179.125	13.462	918.437	693.254
180.140	13.544	918.049	693.242
181.154	13.506	917.014	692.240
182.169	13.641	916.319	692.220
183.183	13.504	916.246	691.529
184.198	13.600	915.323	691.171
185.213	13.661	914.671	690.872
186.227	13.637	914.108	690.289
187.242	13.591	913.434	689.526
188.256	13.782	912.463	689.525
189.271	13.702	912.039	688.810
190.286	13.645	911.352	687.995
191.300	13.640	910.695	687.419
192.315	13.587	909.629	686.334
193.329	13.443	909.245	685.386
194.344	13.563	908.173	685.014
195.359	13.514	907.919	684.559
196.373	13.723	907.089	684.736
197.388	13.620	907.091	684.252
198.402	13.740	906.072	683.915
199.417	13.812	905.985	684.088
200.432	13.960	905.304	684.121
201.446	13.818	905.492	683.618
202.461	13.897	904.859	683.407
203.475	13.988	904.461	683.417
204.490	13.899	903.798	682.492
205.504	13.946	902.910	681.952
206.519	13.891	901.626	680.698
207.534	13.779	901.204	679.860
208.548	13.902	900.673	679.904
209.563	13.873	899.962	679.190
210.577	14.019	898.864	678.896
211.592	13.947	898.547	678.303
212.607	13.954	898.151	677.971
213.621	14.160	896.871	677.783
214.636	14.054	896.525	677.030
215.650	14.092	896.261	676.925
216.665	14.100	895.262	676.144
217.680	14.139	895.027	676.066
218.694	14.100	894.926	675.771
219.709	14.122	894.024	675.121
220.723	14.217	893.119	674.762
221.738	14.149	892.773	674.167
222.753	14.106	891.858	673.241
223.767	14.112	891.566	672.986
224.782	14.152	890.449	672.245
225.796	14.253	889.798	672.100
226.811	14.321	888.691	671.481
227.826	14.275	888.647	671.202
228.840	14.113	888.227	670.170
229.855	14.378	886.859	670.146
230.869	14.279	886.367	669.318
231.884	14.151	886.085	668.532
232.899	14.206	885.265	668.074
233.913	14.131	884.597	667.211
234.928	14.199	883.608	666.678
235.942	14.149	883.288	666.177
236.957	14.141	882.501	665.494
237.972	14.175	882.135	665.294
238.986	14.186	881.057	664.464
240.001	14.308	880.167	664.223
241.015	14.346	879.547	663.845
242.030	14.271	879.488	663.446
243.045	14.313	878.613	662.895
244.059	14.442	877.762	662.704
245.074	14.378	877.216	661.978
246.088	14.434	876.882	661.892
247.103	14.541	875.990	661.584
248.117	14.553	875.447	661.165
249.132	14.520	875.147	660.747
250.147	14.548	875.023	660.704
251.161	14.650	873.867	660.179
252.176	14.701	873.231	659.841
253.190	14.716	872.213	659.071
254.205	14.792	872.011	659.160
255.220	14.762	871.169	658.350
256.234	14.769	870.735	657.988
257.249	14.974	870.119	658.273
258.263	14.736	869.971	657.168
259.278	14.803	869.210	656.798
260.293	14.726	869.048	656.312
261.307	14.972	867.984	656.419
262.322	14.855	867.555	655.577
263.336	14.918	867.128	655.443
264.351	14.914	866.475	654.875
265.366	14.943	865.172	653.944
266.380	14.926	864.896	653.614
267.395	14.867	864.665	653.150
268.409	14.938	863.745	652.674
269.424	14.948	863.054	652.133
270.439	15.136	861.968	651.987
271.453	15.000	861.318	650.908
272.468	14.960	860.715	650.239
273.482	14.894	860.075	649.444
274.497	15.095	859.477	649.712
275.512	15.011	858.839	648.848
276.526	15.158	857.834	648.599
277.541	14.978	857.551	647.633
278.555	14.862	857.404	647.014
279.570	15.125	856.249	647.103
280.585	15.125	855.937	646.809
281.599	15.127	855.207	646.207
282.614	15.360	854.143	646.244
283.628	15.005	854.235	644.889
284.643	15.034	853.713	644.550
285.657	15.094	853.203	644.338
286.672	15.155	852.661	644.108
287.687	15.150	852.272	643.737
288.701	15.151	851.551	643.140
289.716	15.213	851.096	642.977
290.730	15.204	850.387	642.349
291.745	15.186	849.932	641.880
292.760	15.317	849.016	641.633
293.774	15.182	848.814	640.907
294.789	15.390	848.305	641.260
295.803	15.243	847.653	640.151
296.818	15.340	846.965	639.943
297.833	15.307	846.093	639.103
298.847	15.381	845.379	638.789
299.862	15.340	844.693	638.059
300.876	15.531	843.694	637.973
301.891	15.406	843.156	637.035
302.906	15.385	843.052	636.822
303.920	15.497	842.203	636.546
304.935	15.513	841.557	636.061
305.949	15.482	841.390	635.763
306.964	15.632	840.482	635.589
307.979	15.531	839.617	634.496
308.993	15.559	839.612	634.541
310.008	15.641	838.721	634.120
311.022	15.733	838.254	634.058
312.037	15.628	838.435	633.745
313.052	15.615	837.647	633.044
314.066	15.559	836.893	632.207
315.081	15.456	836.209	631.248
316.095	15.561	835.400	630.974
317.110	15.695	834.819	630.984
318.125	15.618	834.549	630.433
319.139	15.546	833.878	629.603
320.154	15.667	833.308	629.569
321.168	15.554	833.167	628.983
322.183	15.702	831.942	628.558
323.197	15.717	831.957	628.569
324.212	15.779	831.245	628.208
325.227	15.748	830.597	627.546
326.241	15.821	830.108	627.392
327.256	15.778	829.332	626.589
328.270	15.714	829.370	626.326
329.285	15.662	828.599	625.493
330.300	15.707	827.620	624.867
331.314	15.802	827.122	624.788
332.329	15.920	826.622	624.793
333.343	15.903	825.962	624.178
334.358	15.730	825.327	622.999
335.373	15.896	825.133	623.414
336.387	15.888	824.643	622.959
337.402	15.863	824.291	622.543
338.416	15.899	823.318	621.889
339.431	16.027	822.651	621.800
340.446	16.026	822.378	621.538
341.460	16.080	822.018	621.408
342.475	16.044	821.464	620.802
343.489	16.058	820.672	620.199
344.504	16.067	820.320	619.912
345.519	16.268	819.555	620.019
346.533	16.397	818.985	620.007
347.548	16.222	818.527	618.964
348.562	16.195	817.833	618.282
349.577	16.112	817.715	617.834
350.592	16.080	817.285	617.337
351.606	16.220	816.268	617.029
352.621	16.087	816.531	616.687
353.635	16.078	816.063	616.245
354.650	16.087	815.151	615.533
355.665	16.194	814.762	615.575
356.679	16.277	814.325	615.493
357.694	16.144	814.076	614.767
358.708	16.225	813.487	614.564
359.723	16.185	813.189	614.137
360.738	16.156	812.364	613.354
361.752	16.350	811.913	613.663
362.767	16.341	811.249	613.074
363.781	16.350	811.133	612.968
364.796	16.413	810.953	613.005
365.810	16.372	810.301	612.310
366.825	16.565	809.957	612.695
367.840	16.407	809.787	611.938
368.854	16.523	808.843	611.591
369.869	16.391	808.754	610.991
370.883	16.485	807.716	610.493
371.898	16.514	807.259	610.197
372.913	16.462	806.689	609.527
373.927	16.449	806.277	609.115
374.942	16.513	805.478	608.688
375.956	16.433	805.169	608.113
376.971	16.653	804.215	608.129
377.986	16.684	803.638	607.749
379.000	16.544	803.555	607.131
380.015	16.609	803.146	607.002
381.029	16.704	802.654	606.915
382.044	16.840	801.839	606.735
383.059	16.759	801.084	605.819
384.073	16.856	800.701	605.822
385.088	16.819	799.919	605.045
386.102	16.565	799.820	604.010
387.117	16.673	799.025	603.740
388.132	16.715	798.722	603.607
389.146	16.734	798.591	603.523
390.161	16.731	797.802	602.863
391.175	16.771	797.541	602.753
392.190	16.724	797.030	602.149
393.205	16.837	796.895	602.395
394.219	16.827	796.000	601.629
395.234	16.948	795.258	601.443
396.248	16.816	795.068	600.779
397.263	16.835	794.238	600.167
398.278	16.777	794.049	599.766
399.292	16.687	793.668	599.104
400.307	16.666	793.280	598.687
401.321	16.683	793.063	598.528
402.336	16.836	792.864	598.867
403.350	16.847	792.320	598.442
404.365	16.895	791.820	598.179
405.380	16.952	790.971	597.685
406.394	17.075	790.590	597.779
407.409	17.066	790.226	597.418
408.423	17.116	789.791	597.213
409.438	17.117	789.717	597.107
410.453	17.031	789.301	596.439
411.467	17.063	788.915	596.204
412.482	17.069	788.190	595.628
413.496	17.342	787.621	596.099
414.511	17.221	787.562	595.580
415.526	17.175	787.100	595.015
416.540	17.168	787.029	594.884
417.555	17.283	785.956	594.424
418.569	17.373	785.684	594.479
419.584	17.084	785.542	593.310
420.599	17.221	784.814	593.187
421.613	108.709	1290.064	1468.287
422.628	93.113	1363.693	1468.407
