DTS Sentinel unit serial number:	SN413079Multiplexer serial number:	ORYXHardware model number:	OX4-SRSoftware version number:	ORYX F/W v4.00 Oryx Data Collector v3.7.2.0data status	okinstallation	princeton_trtdifferential loss correction	single-endedforward channel	channel 3reverse channel	N/Adate	2019/09/12time	12:58:11forward acquisition time	60.00reverse acquisition time	0.00gamma	496.2192k internal	0.2292k external	0.2292temperature offset calibration	1.0035default loss term (dB/km)	0.3790temperature slope calibration	1.0000multiplexer offset coefficient	1.0000multiplexer slope coefficient	1.0000fibre end	0.00T internal ref (°C)	40.87T ext. ref 1 (°C)	2.06T ext. ref 2 (°C)	37.38length (m)	temperature (°C)	Stokes	anti-Stokes-747.200	800.000	0.040	0.119
-746.185	20.223	-0.086	0.071
-745.171	-182.564	0.199	-0.004
-744.156	-182.950	-0.087	-0.002
-743.142	-200.000	-0.001	0.229
-742.127	32.176	0.059	0.052
-741.112	-87.737	0.116	0.036
-740.098	-95.834	0.124	-0.034
-739.083	-0.620	-0.209	0.152
-738.069	88.988	0.123	0.140
-737.054	-37.488	-0.369	0.202
-736.039	-99.886	0.247	0.063
-735.025	-18.268	0.096	-0.061
-734.010	183.283	-0.126	-0.190
-732.996	800.000	-0.083	-0.241
-731.981	-123.745	-0.173	-0.028
-730.966	41.938	-0.175	0.162
-729.952	-6.508	-0.065	0.045
-728.937	68.546	-0.113	-0.119
-727.923	-25.581	-0.248	-0.150
-726.908	-93.164	-0.196	-0.056
-725.894	-170.991	-0.118	-0.004
-724.879	-161.690	-0.216	-0.011
-723.864	-90.364	0.180	-0.053
-722.850	-7.353	0.183	0.127
-721.835	165.800	-0.265	0.384
-720.821	96.915	-0.357	0.418
-719.806	31.140	-0.225	-0.198
-718.791	-75.973	-0.432	-0.156
-717.777	-123.042	-0.341	-0.056
-716.762	267.643	0.187	-0.335
-715.748	800.000	-0.122	-0.436
-714.733	-146.036	-0.061	-0.006
-713.718	-200.000	-0.053	-0.258
-712.704	53.464	0.077	-0.075
-711.689	-0.437	-0.076	0.055
-710.675	-54.554	0.304	-0.141
-709.660	28.589	0.119	0.103
-708.645	-92.297	-0.089	-0.026
-707.631	-200.000	0.041	-0.504
-706.616	-200.000	-0.009	-0.110
-705.602	-170.616	-0.179	-0.006
-704.587	-37.927	0.120	-0.065
-703.572	-59.822	0.116	-0.051
-702.558	-32.032	-0.137	-0.078
-701.543	-123.523	0.290	0.047
-700.529	800.000	0.057	-0.211
-699.514	-131.235	0.239	0.032
-698.499	-200.000	-0.012	0.099
-697.485	-200.000	-0.003	-0.191
-696.470	-200.000	-0.002	0.244
-695.456	40.420	-0.186	-0.171
-694.441	-127.347	-0.165	0.025
-693.426	-57.059	0.230	0.104
-692.412	-130.381	-0.239	-0.033
-691.397	359.152	0.042	0.086
-690.383	220.403	0.195	0.320
-689.368	-30.843	-0.284	-0.164
-688.354	122.739	-0.240	0.307
-687.339	0.853	0.053	0.039
-686.324	109.079	-0.037	0.045
-685.310	-100.584	-0.509	0.128
-684.295	196.098	-0.233	-0.363
-683.281	59.553	-0.226	-0.227
-682.266	-135.061	-0.306	0.038
-681.251	-5.767	-0.102	-0.072
-680.237	-95.791	-0.474	0.129
-679.222	-169.936	-0.137	-0.005
-678.208	-200.000	-0.013	0.249
-677.193	508.456	-0.116	-0.276
-676.178	756.578	0.106	0.292
-675.164	-89.318	-0.403	-0.121
-674.149	151.762	-0.063	0.088
-673.135	20.608	-0.047	0.039
-672.120	177.189	0.055	-0.082
-671.105	-107.742	-0.239	-0.053
-670.091	351.672	-0.125	-0.253
-669.076	346.094	-0.037	0.074
-668.062	4.815	-0.158	-0.118
-667.047	136.244	-0.213	-0.283
-666.032	-38.915	0.056	0.030
-665.018	800.000	-0.065	-0.204
-664.003	-20.818	-0.344	-0.215
-662.989	-142.291	0.291	-0.029
-661.974	-174.920	0.118	0.003
-660.959	-68.239	-0.384	-0.153
-659.945	5.409	0.197	-0.148
-658.930	451.097	0.048	-0.109
-657.916	-16.733	-0.197	-0.127
-656.901	390.187	0.119	0.252
-655.886	-77.179	-0.124	-0.044
-654.872	-149.077	0.143	-0.012
-653.857	-73.235	0.077	-0.029
-652.843	-200.000	-0.041	-0.278
-651.828	468.447	-0.132	-0.302
-650.814	-200.000	0.002	-0.220
-649.799	325.165	-0.104	-0.202
-648.784	-151.592	-0.187	0.014
-647.770	87.385	-0.061	-0.069
-646.755	-59.929	-0.077	0.034
-645.741	-76.502	-0.137	-0.049
-644.726	-200.000	0.000	-0.076
-643.711	104.819	-0.106	-0.128
-642.697	-75.515	0.323	0.117
-641.682	800.000	-0.044	-0.126
-640.668	-200.000	0.013	0.215
-639.653	93.185	-0.266	-0.306
-638.638	304.202	0.064	0.121
-637.624	-110.372	0.257	-0.054
-636.609	-112.406	0.159	0.032
-635.595	209.688	0.141	-0.225
-634.580	662.363	0.027	-0.070
-633.565	-89.477	0.453	0.136
-632.551	193.318	-0.113	0.173
-631.536	286.666	-0.019	0.035
-630.522	-63.907	-0.220	-0.092
-629.507	-200.000	-0.001	-0.064
-628.492	86.707	-0.026	0.029
-627.478	-200.000	-0.057	0.305
-626.463	143.474	0.048	0.066
-625.449	249.126	-0.091	-0.156
-624.434	-200.000	-0.017	0.121
-623.419	800.000	-0.030	0.115
-622.405	-16.941	-0.297	-0.191
-621.390	800.000	-0.032	0.105
-620.376	-74.521	-0.181	0.066
-619.361	-200.000	-0.022	-0.310
-618.346	-102.388	-0.304	0.074
-617.332	-24.581	-0.311	0.189
-616.317	87.295	0.065	-0.073
-615.303	203.017	-0.096	0.151
-614.288	-200.000	-0.001	-0.199
-613.273	-112.807	-0.363	-0.073
-612.259	800.000	-0.051	0.177
-611.244	42.752	-0.188	0.174
-610.230	800.000	-0.017	0.061
-609.215	-57.964	-0.105	-0.047
-608.201	532.755	0.035	0.084
-607.186	-33.987	0.084	0.047
-606.171	413.913	0.068	0.148
-605.157	128.919	-0.054	-0.070
-604.142	20.022	0.155	-0.127
-603.128	90.156	0.245	-0.278
-602.113	-102.020	0.350	-0.086
-601.098	266.826	0.055	-0.098
-600.084	244.432	-0.066	-0.113
-599.069	-200.000	0.015	-0.188
-598.055	-59.479	-0.333	-0.145
-597.040	800.000	0.045	-0.186
-596.025	-97.142	-0.066	0.018
-595.011	82.683	-0.111	0.123
-593.996	800.000	0.041	0.153
-592.982	-200.000	-0.024	-0.224
-591.967	-62.501	0.425	0.180
-590.952	-26.466	-0.091	-0.054
-589.938	-19.486	-0.476	0.300
-588.923	800.000	-0.071	-0.202
-587.909	167.480	-0.164	0.237
-586.894	106.717	-0.116	0.140
-585.879	183.812	-0.119	0.179
-584.865	274.672	-0.108	-0.195
-583.850	8.331	0.129	0.099
-582.836	-96.195	-0.119	0.032
-581.821	165.425	0.117	-0.168
-580.806	51.334	-0.123	-0.119
-579.792	-200.000	-0.012	0.155
-578.777	-86.463	0.117	-0.036
-577.763	-156.522	-0.330	-0.021
-576.748	800.000	-0.061	0.224
-575.733	249.151	-0.126	-0.217
-574.719	-9.218	0.335	0.228
-573.704	226.385	-0.112	-0.185
-572.690	800.000	0.049	0.196
-571.675	-18.746	0.183	0.116
-570.661	3.017	0.182	0.135
-569.646	-105.720	-0.139	-0.032
-568.631	190.325	0.084	-0.128
-567.617	-72.456	0.118	-0.044
-566.602	-90.596	0.015	-0.004
-565.588	-54.896	-0.285	-0.131
-564.573	189.815	0.167	0.254
-563.558	16.127	0.212	-0.170
-562.544	-200.000	0.039	0.000
-561.529	56.351	-0.223	-0.220
-560.515	269.129	-0.282	0.503
-559.500	-200.000	0.021	-0.233
-558.485	57.916	-0.178	-0.177
-557.471	124.424	0.084	0.107
-556.456	800.000	0.084	0.307
-555.442	106.060	0.283	0.341
-554.427	-200.000	0.043	0.220
-553.412	61.485	0.064	0.065
-552.398	-71.205	-0.336	-0.128
-551.383	110.727	-0.117	-0.143
-550.369	150.640	-0.154	0.212
-549.354	787.918	-0.068	0.191
-548.339	238.614	-0.016	0.028
-547.325	-101.599	-0.296	-0.073
-546.310	46.354	-0.147	0.138
-545.296	-89.211	-0.151	0.045
-544.281	317.973	0.113	-0.218
-543.266	800.000	-0.054	-0.205
-542.252	156.701	0.053	0.074
-541.237	-200.000	-0.018	-0.193
-540.223	-94.115	0.218	0.061
-539.208	57.720	-0.297	0.295
-538.193	134.964	-0.141	0.186
-537.179	-6.154	0.162	-0.112
-536.164	800.000	0.092	-0.272
-535.150	-8.536	0.098	0.067
-534.135	-200.000	0.011	0.148
-533.121	-97.542	0.483	-0.127
-532.106	-129.567	-0.198	-0.028
-531.091	800.000	-0.048	-0.200
-530.077	-125.545	0.124	0.019
-529.062	5.491	-0.102	-0.076
-528.048	29.675	-0.100	0.086
-527.033	-200.000	-0.031	-0.142
-526.018	-157.274	-0.364	0.022
-525.004	-186.003	0.309	0.005
-523.989	800.000	-0.074	-0.327
-522.975	-200.000	-0.039	-0.534
-521.960	-37.540	0.215	0.116
-520.945	-152.551	-0.080	0.006
-519.931	67.865	0.109	0.113
-518.916	-56.404	0.138	0.062
-517.902	8.293	-0.283	-0.216
-516.887	-135.235	-0.130	-0.016
-515.872	71.012	-0.094	-0.099
-514.858	-89.971	0.065	-0.019
-513.843	38.048	-0.387	0.349
-512.829	-200.000	0.002	0.207
-511.814	-200.000	0.017	-0.149
-510.799	263.540	0.152	-0.269
-509.785	800.000	0.032	0.106
-508.770	267.997	0.134	-0.239
-507.756	-44.226	-0.034	0.017
-506.741	332.579	-0.098	0.192
-505.726	-127.676	0.379	-0.056
-504.712	320.982	-0.042	0.080
-503.697	39.871	0.076	-0.069
-502.683	-18.573	-0.323	0.204
-501.668	-200.000	0.030	0.358
-500.653	-200.000	-0.010	-0.355
-499.639	800.000	-0.076	0.220
-498.624	-200.000	0.023	0.230
-497.610	800.000	0.048	-0.148
-496.595	147.832	0.078	-0.107
-495.581	-51.027	-0.248	-0.118
-494.566	-200.000	0.036	-0.273
-493.551	-142.405	0.099	0.010
-492.537	-92.203	-0.176	0.050
-491.522	-29.657	-0.361	-0.209
-490.508	43.914	-0.048	0.044
-489.493	-96.745	0.334	0.089
-488.478	-200.000	-0.038	-0.301
-487.464	120.947	0.184	-0.232
-486.449	-200.000	-0.009	-0.184
-485.435	173.388	-0.116	-0.170
-484.420	-36.729	0.278	-0.151
-483.405	787.945	-0.057	-0.160
-482.391	32.547	-0.338	-0.296
-481.376	83.153	0.331	-0.364
-480.362	-26.347	-0.242	0.144
-479.347	-123.003	0.214	0.035
-478.332	62.533	-0.128	-0.129
-477.318	800.000	-0.057	-0.192
-476.303	-200.000	-0.050	0.302
-475.289	-200.000	0.016	-0.093
-474.274	206.013	-0.091	0.143
-473.259	-77.802	-0.247	-0.086
-472.245	58.920	-0.019	-0.018
-471.230	663.250	0.074	0.194
-470.216	-200.000	0.008	0.172
-469.201	-200.000	0.014	0.214
-468.186	-200.000	-0.006	0.090
-467.172	-200.000	-0.018	-0.133
-466.157	309.494	0.137	0.260
-465.143	97.691	0.228	0.265
-464.128	507.160	-0.109	0.255
-463.113	400.073	-0.092	0.196
-462.099	32.341	0.313	-0.274
-461.084	-200.000	0.000	-0.374
-460.070	22.204	0.342	-0.283
-459.055	-200.000	0.031	0.300
-458.040	200.867	0.077	-0.121
-457.026	-200.000	-0.001	-0.181
-456.011	-200.000	0.036	0.209
-454.997	-37.539	-0.179	0.097
-453.982	-200.000	-0.011	-0.085
-452.968	-200.000	0.037	0.390
-451.953	-4.711	-0.167	-0.117
-450.938	-200.000	-0.036	-0.410
-449.924	-79.585	-0.190	0.065
-448.909	-170.625	-0.257	0.009
-447.895	61.152	-0.077	-0.077
-446.880	-93.985	-0.088	0.025
-445.865	-52.178	0.090	0.042
-444.851	-89.048	0.184	0.055
-443.836	-200.000	0.023	-0.330
-442.822	313.813	0.112	-0.214
-441.807	486.249	0.036	0.084
-440.792	800.000	0.077	0.273
-439.778	30.050	0.067	-0.058
-438.763	-200.000	0.023	-0.201
-437.749	141.031	-0.169	0.226
-436.734	276.693	-0.127	-0.227
-435.719	-83.151	0.205	-0.067
-434.705	-166.693	0.328	0.014
-433.690	-188.597	-0.097	0.001
-432.676	189.820	0.077	0.117
-431.661	800.000	-0.049	0.183
-430.646	159.106	0.031	0.043
-429.632	-65.245	0.171	0.070
-428.617	-200.000	-0.021	0.247
-427.603	800.000	0.025	-0.081
-426.588	-200.000	0.006	-0.121
-425.573	771.895	0.047	0.128
-424.559	-200.000	-0.028	0.317
-423.544	-128.322	0.131	0.019
-422.530	27.134	0.176	-0.149
-421.515	800.000	-0.047	-0.184
-420.500	-53.927	-0.124	0.057
-419.486	-156.271	0.059	0.004
-418.471	-137.660	0.453	-0.051
-417.457	-200.000	0.061	-0.365
-416.442	-200.000	0.156	-0.000
-415.428	-167.903	0.072	0.003
-414.413	24.173	0.090	-0.075
-413.398	-12.462	0.073	-0.048
-412.384	80.250	0.241	-0.262
-411.369	800.000	0.061	0.203
-410.355	-36.288	0.058	-0.032
-409.340	-6.522	0.141	-0.097
-408.325	319.150	0.120	-0.229
-407.311	129.062	-0.145	0.187
-406.296	-103.967	-0.326	0.077
-405.282	160.055	-0.206	-0.290
-404.267	-200.000	0.106	-0.485
-403.252	-22.289	-0.155	-0.095
-402.238	-121.850	-0.129	-0.022
-401.223	-200.000	-0.011	-0.241
-400.209	-66.361	-0.108	0.043
-399.194	-106.706	-0.225	0.051
-398.179	389.466	0.090	0.189
-397.165	70.860	-0.123	0.129
-396.150	-12.312	0.251	0.166
-395.136	54.028	0.073	0.071
-394.121	-16.104	0.133	-0.086
-393.106	-133.305	-0.113	-0.014
-392.092	-98.675	-0.203	0.052
-391.077	800.000	0.036	0.133
-390.063	403.129	0.115	0.245
-389.048	89.925	0.182	0.205
-388.033	-137.685	-0.299	0.034
-387.019	104.622	-0.149	-0.178
-386.004	800.000	0.055	-0.201
-384.990	-105.746	0.107	0.024
-383.975	10.912	0.178	0.137
-382.960	166.986	0.178	0.254
-381.946	31.938	0.115	-0.100
-380.931	-51.813	0.209	0.098
-379.917	117.439	0.212	-0.263
-378.902	-91.121	-0.124	0.036
-377.888	-51.327	-0.258	-0.122
-376.873	800.000	-0.082	0.283
-375.858	77.987	0.170	-0.183
-374.844	-200.000	-0.031	-0.312
-373.829	139.682	0.093	-0.124
-372.815	-200.000	-0.027	-0.332
-371.800	-175.217	0.207	0.006
-370.785	-200.000	0.026	-0.131
-369.771	-81.878	0.276	0.091
-368.756	218.650	-0.154	-0.248
-367.742	107.819	0.047	0.056
-366.727	-200.000	0.376	-0.002
-365.712	800.000	0.088	0.326
-364.698	-200.000	-0.004	0.138
-363.683	-200.000	-0.008	0.037
-362.669	-141.323	0.254	-0.026
-361.654	-128.975	-0.226	-0.032
-360.639	800.000	0.037	0.123
-359.625	150.586	-0.108	-0.149
-358.610	-34.382	0.052	0.028
-357.596	383.160	0.183	0.379
-356.581	339.716	0.128	-0.252
-355.566	-200.000	-0.006	0.093
-354.552	-83.630	0.240	-0.077
-353.537	-131.641	0.033	-0.004
-352.523	428.229	-0.062	0.134
-351.508	15.497	-0.157	-0.124
-350.493	-69.448	0.255	-0.099
-349.479	126.789	-0.099	-0.127
-348.464	35.524	0.051	-0.045
-347.450	26.412	-0.041	0.035
-346.435	-150.696	-0.155	0.012
-345.420	-200.000	-0.050	0.307
-344.406	800.000	0.056	-0.156
-343.391	170.867	0.143	-0.206
-342.377	-55.017	0.356	0.161
-341.362	485.490	-0.061	0.141
-340.348	-100.675	-0.365	0.091
-339.333	-97.543	-0.313	-0.082
-338.318	-200.000	0.029	-0.237
-337.304	203.446	-0.067	-0.104
-336.289	-13.629	-0.223	0.145
-335.275	-145.179	0.141	-0.013
-334.260	-74.633	0.191	-0.069
-333.245	590.334	-0.065	0.161
-332.231	-72.471	-0.080	-0.030
-331.216	-200.000	0.064	-0.280
-330.202	426.171	-0.116	-0.251
-329.187	-200.000	-0.024	0.130
-328.172	-143.465	-0.127	0.012
-327.158	-100.613	-0.165	-0.041
-326.143	-146.876	-0.246	-0.021
-325.129	27.886	0.122	-0.103
-324.114	800.000	0.068	0.215
-323.099	-104.648	0.247	-0.057
-322.085	8.875	-0.135	0.102
-321.070	-141.888	0.483	0.049
-320.056	-44.733	0.332	-0.167
-319.041	90.935	-0.036	0.040
-318.026	-120.575	0.224	-0.038
-317.012	-200.000	0.006	-0.044
-315.997	-200.000	0.003	-0.090
-314.983	59.981	0.092	0.092
-313.968	675.369	0.080	-0.210
-312.953	-144.749	-0.208	0.019
-311.939	691.708	0.063	-0.166
-310.924	-91.705	0.162	-0.046
-309.910	370.717	-0.152	-0.310
-308.895	320.789	0.078	-0.150
-307.880	800.000	-0.133	0.493
-306.866	-36.690	-0.226	0.122
-305.851	-45.292	-0.118	0.059
-304.837	396.068	-0.049	-0.102
-303.822	76.200	0.306	0.326
-302.807	252.571	0.086	0.148
-301.793	-121.573	-0.215	0.036
-300.778	-86.188	0.268	0.083
-299.764	-9.465	0.057	0.038
-298.749	-200.000	-0.082	0.427
-297.735	573.253	0.042	-0.102
-296.720	-39.445	0.202	0.107
-295.705	-24.945	0.188	0.112
-294.691	-200.000	0.093	-0.414
-293.676	-35.963	-0.122	0.066
-292.662	357.086	-0.071	0.143
-291.647	78.416	-0.063	-0.068
-290.632	76.713	-0.194	-0.207
-289.618	48.242	-0.147	-0.138
-288.603	-65.490	0.434	0.175
-287.589	76.277	0.076	-0.081
-286.574	-114.709	0.112	-0.022
-285.559	275.801	-0.049	0.087
-284.545	-113.931	0.094	-0.018
-283.530	-80.226	0.225	0.076
-282.516	45.958	-0.124	-0.116
-281.501	-141.851	0.579	-0.058
-280.486	-17.768	0.186	0.117
-279.472	115.048	0.170	0.209
-278.457	-119.107	-0.173	-0.030
-277.443	-200.000	-0.009	0.126
-276.428	-82.536	-0.297	-0.097
-275.413	-200.000	0.027	-0.327
-274.399	86.326	-0.050	0.055
-273.384	197.897	0.034	-0.053
-272.370	-11.025	-0.124	0.082
-271.355	-200.000	-0.010	0.206
-270.340	-91.796	-0.218	0.062
-269.326	-21.412	-0.023	0.014
-268.311	30.622	0.123	-0.105
-267.297	-200.000	-0.009	0.153
-266.282	-132.488	0.243	0.031
-265.267	-200.000	0.035	0.191
-264.253	64.640	-0.013	0.013
-263.238	-200.000	-0.017	0.310
-262.224	-200.000	-0.005	0.128
-261.209	576.576	0.117	-0.286
-260.195	100.503	0.107	-0.125
-259.180	-200.000	-0.024	-0.170
-258.165	-56.817	-0.142	0.063
-257.151	358.650	0.116	0.232
-256.136	-68.422	0.086	-0.034
-255.122	-133.425	-0.008	0.001
-254.107	-45.825	0.085	0.042
-253.092	-132.794	-0.074	-0.009
-252.078	-26.076	-0.130	-0.077
-251.063	-119.657	-0.408	-0.071
-250.049	33.560	-0.286	-0.250
-249.034	-86.615	0.143	-0.044
-248.019	-99.600	-0.098	0.025
-247.005	27.953	0.104	-0.088
-245.990	-85.236	-0.166	-0.052
-244.976	-200.000	-0.003	0.200
-243.961	116.372	-0.118	-0.145
-242.946	-62.305	0.157	0.065
-241.932	-124.906	-0.108	-0.017
-240.917	54.298	0.401	0.387
-239.903	800.000	-0.062	-0.231
-238.888	249.679	0.105	0.179
-237.873	55.168	0.205	0.199
-236.859	78.227	-0.202	0.217
-235.844	-64.118	-0.059	0.024
-234.830	39.095	-0.368	0.330
-233.815	800.000	0.062	0.215
-232.800	-200.000	-0.001	0.170
-231.786	800.000	-0.032	0.114
-230.771	70.244	0.045	-0.047
-229.757	50.622	0.174	0.165
-228.742	-163.777	0.283	-0.013
-227.727	-108.065	-0.176	0.038
-226.713	-39.851	-0.069	0.036
-225.698	-200.000	0.007	-0.324
-224.684	-142.774	0.132	0.013
-223.669	1.827	0.082	0.059
-222.655	479.060	0.049	-0.111
-221.640	81.675	-0.145	0.157
-220.625	118.750	-0.139	0.172
-219.611	-16.138	-0.240	-0.153
-218.596	-31.682	-0.102	0.057
-217.582	-200.000	0.003	0.303
-216.567	-52.061	-0.252	0.117
-215.552	-200.000	0.029	0.313
-214.538	800.000	0.138	0.389
-213.523	-200.000	0.005	-0.241
-212.509	108.608	-0.142	-0.170
-211.494	-7.190	-0.384	-0.261
-210.479	-137.597	0.299	-0.034
-209.465	-101.306	0.303	-0.074
-208.450	254.625	0.139	-0.239
-207.436	-3.104	-0.180	-0.126
-206.421	624.816	-0.137	0.346
-205.406	-200.000	0.001	0.063
-204.392	103.191	-0.161	-0.189
-203.377	-9.718	-0.067	-0.045
-202.363	-86.670	-0.095	-0.029
-201.348	-200.000	-0.001	0.017
-200.333	-200.000	-0.008	-0.155
-199.319	-51.907	0.037	-0.017
-198.304	-200.000	-0.043	-0.438
-197.290	526.425	-0.177	-0.418
-196.275	-51.598	-0.120	-0.056
-195.260	199.357	-0.081	-0.125
-194.246	5.848	0.081	-0.060
-193.231	-58.136	0.139	0.061
-192.217	29.559	-0.204	-0.174
-191.202	-33.256	-0.157	-0.087
-190.187	-200.000	0.048	-0.369
-189.173	-50.328	0.047	-0.022
-188.158	-6.711	0.194	0.132
-187.144	-163.446	-0.261	0.012
-186.129	383.826	-0.156	-0.323
-185.114	286.677	-0.120	0.216
-184.100	237.848	-0.160	0.266
-183.085	-27.831	-0.238	0.138
-182.071	116.350	-0.139	0.171
-181.056	727.472	0.182	0.485
-180.042	-200.000	-0.015	-0.073
-179.027	-200.000	-0.029	-0.141
-178.012	-41.549	0.124	0.064
-176.998	-28.126	-0.090	-0.052
-175.983	-23.126	0.169	-0.102
-174.969	336.981	0.205	-0.399
-173.954	6.745	-0.320	0.239
-172.939	-56.897	0.368	0.163
-171.925	101.486	0.306	0.357
-170.910	201.379	0.188	0.290
-169.896	-200.000	-0.017	0.160
-168.881	412.962	-0.051	-0.108
-167.866	-200.000	0.014	-0.088
-166.852	115.667	0.109	0.133
-165.837	-44.759	-0.180	-0.090
-164.823	360.645	0.121	0.242
-163.808	-200.000	-0.021	-0.205
-162.793	-91.987	0.216	-0.061
-161.779	-191.449	0.158	-0.002
-160.764	-155.959	0.152	-0.010
-159.750	-200.000	-0.056	0.346
-158.735	339.556	-0.213	0.415
-157.720	331.992	0.033	-0.064
-156.706	800.000	-0.064	0.239
-155.691	-200.000	-0.018	0.388
-154.677	800.000	0.078	0.266
-153.662	-200.000	-0.004	-0.279
-152.647	-200.000	-0.058	-0.264
-151.633	-2.748	-0.146	-0.102
-150.618	-200.000	0.009	-0.347
-149.604	680.726	-0.113	-0.294
-148.589	49.473	0.052	0.049
-147.574	-200.000	-0.001	0.065
-146.560	-14.543	-0.226	-0.145
-145.545	5.801	-0.071	-0.052
-144.531	111.408	-0.091	-0.110
-143.516	-61.017	-0.092	0.039
-142.502	177.483	-0.185	0.269
-141.487	99.044	0.094	-0.108
-140.472	-200.000	0.025	0.257
-139.458	-98.821	0.125	-0.032
-138.443	800.000	0.038	0.159
-137.429	53.788	0.191	0.183
-136.414	466.108	-0.174	-0.390
-135.399	-200.000	0.008	-0.343
-134.385	800.000	0.032	0.089
-133.370	-1.672	0.328	0.231
-132.356	-200.000	0.004	-0.123
-131.341	-14.895	-0.114	-0.073
-130.326	-200.000	0.041	-0.202
-129.312	-24.586	0.128	0.076
-128.297	142.705	-0.106	0.140
-127.283	36.034	0.202	-0.177
-126.268	-77.163	0.359	0.125
-125.253	800.000	-0.050	0.172
-124.239	-168.565	0.153	-0.006
-123.224	800.000	-0.113	0.371
-122.210	-200.000	-0.002	-0.032
-121.195	-77.409	0.365	0.126
-120.180	-200.000	-0.021	-0.106
-119.166	-127.196	0.385	-0.056
-118.151	-67.272	0.150	-0.059
-117.137	105.126	-0.236	-0.278
-116.122	-30.007	-0.299	0.170
-115.107	47.260	-0.201	0.187
-114.093	208.497	0.046	-0.072
-113.078	-24.860	-0.058	0.035
-112.064	218.877	-0.054	0.086
-111.049	800.000	0.090	0.267
-110.034	-200.000	0.002	-0.080
-109.020	-200.000	0.029	0.242
-108.005	4.603	0.128	-0.094
-106.991	-49.508	0.351	0.167
-105.976	800.000	0.036	0.153
-104.962	-37.338	0.180	-0.096
-103.947	-200.000	0.019	-0.284
-102.932	342.741	-0.100	-0.194
-101.918	-200.000	-0.015	0.282
-100.903	-156.021	0.127	0.008
-99.889	104.791	-0.043	0.051
-98.874	122.491	0.102	0.127
-97.859	-31.040	0.085	-0.048
-96.845	106.466	0.310	0.367
-95.830	800.000	-0.072	0.219
-94.816	174.484	-0.021	0.031
-93.801	21.003	-0.242	-0.196
-92.786	-93.699	0.458	0.126
-91.772	800.000	-0.042	-0.130
-90.757	-48.014	0.110	-0.053
-89.743	-200.000	-0.004	0.163
-88.728	-121.118	0.240	0.040
-87.713	145.510	0.166	-0.222
-86.699	-98.812	0.220	-0.056
-85.684	-23.494	-0.293	0.176
-84.670	96.107	0.142	0.162
-83.655	-200.000	0.028	-0.228
-82.640	-52.322	0.102	-0.047
-81.626	-123.451	-0.225	-0.036
-80.611	-146.468	-0.133	-0.012
-79.597	800.000	0.076	-0.241
-78.582	279.674	0.109	-0.193
-77.567	-62.665	0.232	0.096
-76.553	-200.000	0.043	0.475
-75.538	339.202	0.095	-0.184
-74.524	331.535	-0.057	-0.110
-73.509	800.000	0.025	-0.084
-72.494	-200.000	-0.030	-0.181
-71.480	800.000	-0.068	0.213
-70.465	-200.000	0.063	0.280
-69.451	235.866	-0.120	-0.198
-68.436	800.000	-0.036	0.120
-67.422	-52.884	0.190	0.087
-66.407	136.292	-0.110	-0.144
-65.392	560.080	-0.034	-0.083
-64.378	340.890	-0.052	-0.101
-63.363	-58.250	0.259	0.112
-62.349	-200.000	0.026	-0.228
-61.334	8.430	-0.925	-0.693
-60.319	443.363	0.244	0.533
-59.305	-200.000	0.145	-0.837
-58.290	159.129	0.635	0.879
-57.276	800.000	0.683	1.950
-56.261	-200.000	75.906	505.458
-55.246	516.802	1328.613	3094.766
-54.232	145.573	2562.681	3420.122
-53.217	116.619	2247.546	2746.670
-52.203	51.549	1767.980	1674.001
-51.188	44.280	1565.485	1431.232
-50.173	41.604	1535.795	1385.495
-49.159	57.488	1571.981	1529.662
-48.144	63.397	1591.817	1590.258
-47.130	44.891	1555.099	1425.791
-46.115	41.168	1541.053	1386.985
-45.100	40.959	1537.580	1382.351
-44.086	41.004	1535.774	1380.982
-43.071	40.942	1533.525	1378.481
-42.057	40.868	1531.733	1376.299
-41.042	40.763	1530.789	1374.668
-40.027	40.827	1528.940	1373.399
-39.013	40.831	1527.847	1372.388
-37.998	40.773	1526.315	1370.558
-36.984	40.875	1524.803	1369.852
-35.969	40.852	1523.246	1368.239
-34.954	40.977	1521.809	1367.755
-33.940	40.974	1519.993	1366.043
-32.925	40.875	1519.041	1364.454
-31.911	40.891	1517.990	1363.571
-30.896	40.974	1516.378	1362.636
-29.881	41.105	1514.655	1361.926
-28.867	41.019	1513.614	1360.351
-27.852	40.942	1512.630	1358.886
-26.838	40.973	1511.019	1357.594
-25.823	40.907	1509.205	1355.463
-24.809	40.830	1507.804	1353.624
-23.794	40.889	1506.169	1352.504
-22.779	40.882	1505.514	1351.815
-21.765	40.914	1504.427	1351.005
-20.750	41.061	1502.572	1350.283
-19.736	40.924	1501.466	1348.309
-18.721	40.915	1500.516	1347.338
-17.706	40.873	1499.426	1346.021
-16.692	40.842	1498.703	1345.110
-15.677	40.847	1497.356	1343.881
-14.663	40.811	1496.753	1343.043
-13.648	40.829	1495.271	1341.779
-12.633	40.874	1494.023	1340.911
-11.619	40.794	1493.676	1340.009
-10.604	40.819	1493.010	1339.529
-9.590	40.829	1491.867	1338.515
-8.575	40.837	1491.015	1337.750
-7.560	40.769	1489.676	1336.041
-6.546	40.758	1489.063	1335.360
-5.531	40.740	1488.376	1334.573
-4.517	40.818	1487.372	1334.142
-3.502	40.758	1486.629	1333.018
-2.487	40.782	1485.473	1332.090
-1.473	40.794	1484.319	1331.087
-0.458	40.846	1482.890	1330.098
0.556	41.111	1473.807	1321.061
1.571	38.589	1446.376	1279.898
2.586	34.895	1384.430	1201.815
3.600	32.937	1300.926	1117.650
4.615	30.891	1252.493	1064.269
5.629	25.936	1193.318	986.850
6.644	13.563	1100.476	847.116
7.659	3.774	1052.720	762.198
8.673	2.401	1046.278	750.730
9.688	2.068	1043.367	746.949
10.702	1.895	1041.940	745.014
11.717	1.868	1040.104	743.504
12.731	5.403	1044.338	763.754
13.746	16.331	1060.735	829.634
14.761	24.401	1071.085	877.518
15.775	25.465	1071.401	882.932
16.790	25.438	1070.484	881.965
17.804	25.273	1070.082	880.746
18.819	25.097	1069.343	879.196
19.834	25.158	1068.071	878.370
20.848	25.254	1067.890	878.617
21.863	25.444	1067.275	878.962
22.877	25.299	1067.282	878.182
23.892	25.269	1066.369	877.205
24.907	25.234	1065.308	876.083
25.921	25.318	1064.489	875.741
26.936	25.282	1064.186	875.237
27.950	25.302	1062.744	874.071
28.965	25.268	1061.373	872.701
29.980	25.086	1060.308	870.864
30.994	25.058	1058.971	869.554
32.009	25.263	1058.601	870.169
33.023	25.411	1057.906	870.235
34.038	25.104	1056.733	867.710
35.053	25.161	1055.629	867.001
36.067	25.364	1055.073	867.450
37.082	25.371	1054.030	866.546
38.096	25.276	1053.999	865.987
39.111	25.428	1053.180	865.970
40.126	25.627	1052.081	865.951
41.140	25.449	1051.224	864.313
42.155	25.214	1049.569	861.745
43.169	24.891	1048.626	859.343
44.184	24.859	1047.304	858.034
45.199	24.903	1046.695	857.669
46.213	24.815	1045.615	856.287
47.228	24.911	1044.563	855.806
48.242	25.005	1044.069	855.774
49.257	25.157	1043.557	856.006
50.271	25.274	1042.611	855.714
51.286	25.377	1042.002	855.629
52.301	25.235	1041.540	854.494
53.315	25.356	1040.826	854.409
54.330	25.363	1039.394	853.195
55.344	25.260	1039.030	852.328
56.359	25.205	1038.043	851.184
57.374	25.393	1037.453	851.513
58.388	25.091	1036.441	849.177
59.403	25.030	1035.806	848.293
60.417	25.169	1034.868	848.107
61.432	24.953	1034.075	846.363
62.447	24.983	1033.382	845.862
63.461	25.070	1032.937	845.833
64.476	25.092	1032.249	845.299
65.490	25.130	1030.960	844.348
66.505	25.003	1030.109	842.980
67.520	24.950	1029.647	842.276
68.534	24.957	1029.000	841.709
69.549	24.864	1027.615	840.062
70.563	24.646	1026.407	837.980
71.578	24.560	1026.078	837.233
72.593	24.591	1024.811	836.268
73.607	24.427	1023.578	834.422
74.622	24.315	1023.091	833.429
75.636	24.743	1022.216	834.639
76.651	24.855	1021.838	834.783
77.666	24.784	1020.634	833.394
78.680	24.587	1020.145	832.001
79.695	24.722	1019.543	832.067
80.709	24.779	1018.898	831.732
81.724	24.901	1018.007	831.495
82.739	24.879	1017.210	830.670
83.753	24.858	1016.367	829.813
84.768	25.123	1015.665	830.392
85.782	25.365	1016.044	831.747
86.797	25.646	1014.704	831.877
87.812	25.637	1013.776	831.004
88.826	25.486	1012.825	829.450
89.841	25.424	1011.981	828.400
90.855	25.539	1011.118	828.152
91.870	25.509	1011.034	827.873
92.884	25.561	1009.852	827.070
93.899	25.359	1009.270	825.590
94.914	25.194	1008.284	823.954
95.928	25.291	1007.662	823.817
96.943	25.476	1006.378	823.542
97.957	25.172	1005.189	821.106
98.972	25.022	1004.032	819.399
99.987	24.842	1002.585	817.325
101.001	24.787	1002.765	817.148
102.016	25.183	1002.207	818.428
103.030	25.394	1000.569	817.982
104.045	25.307	999.793	816.877
105.060	25.104	998.683	814.977
106.074	24.961	997.483	813.276
107.089	24.977	996.908	812.807
108.103	25.158	996.912	813.558
109.118	25.263	996.220	813.399
110.133	25.061	995.105	811.503
111.147	25.009	993.776	810.113
112.162	24.885	992.874	808.744
113.176	24.679	991.760	806.836
114.191	24.780	991.143	806.720
115.206	24.995	990.362	806.982
116.220	24.728	989.562	805.054
117.235	24.355	988.700	802.604
118.249	24.573	988.117	803.040
119.264	24.638	986.883	802.256
120.279	24.602	986.026	801.330
121.293	24.637	985.429	800.931
122.308	24.823	984.653	801.060
123.322	24.599	984.338	799.732
124.337	24.711	982.961	799.041
125.352	24.515	981.803	797.154
126.366	24.070	980.073	793.698
127.381	23.808	978.936	791.537
128.395	24.261	978.883	793.445
129.410	24.993	978.118	796.005
130.424	25.138	977.845	796.357
131.439	25.119	977.000	795.514
132.454	25.212	975.829	794.901
133.468	25.340	974.706	794.483
134.483	25.031	974.201	792.635
135.497	25.231	973.146	792.591
136.512	25.325	973.340	793.095
137.527	25.382	972.680	792.739
138.541	25.458	971.464	792.012
139.556	25.478	971.077	791.712
140.570	25.358	970.229	790.426
141.585	25.488	969.086	789.994
142.600	25.557	968.234	789.533
143.614	25.478	967.461	788.487
144.629	25.524	966.832	788.105
145.643	25.772	966.553	788.895
146.658	25.577	965.306	786.954
147.673	25.509	963.671	785.255
148.687	25.383	962.804	783.930
149.702	25.276	961.959	782.705
150.716	25.207	960.737	781.342
151.731	25.258	959.446	780.445
152.746	25.084	959.453	779.624
153.760	25.357	958.697	780.127
154.775	25.462	958.059	779.995
155.789	25.480	957.309	779.392
156.804	25.642	955.861	778.845
157.819	25.458	955.128	777.385
158.833	25.434	954.453	776.662
159.848	25.579	954.273	777.075
160.862	25.798	952.909	776.841
161.877	25.589	952.267	775.347
162.892	25.563	951.087	774.207
163.906	25.538	950.880	773.859
164.921	25.486	949.508	772.452
165.935	25.514	948.191	771.433
166.950	25.534	947.548	770.927
167.964	25.543	946.607	770.130
168.979	25.554	945.645	769.327
169.994	25.527	944.680	768.359
171.008	25.363	943.730	766.818
172.023	25.639	942.904	767.256
173.037	25.629	942.512	766.826
174.052	25.524	941.274	765.305
175.067	25.177	940.661	763.261
176.081	25.193	940.067	762.781
177.096	25.251	938.967	762.068
178.110	25.525	937.591	762.046
179.125	25.298	937.016	760.548
180.140	24.866	935.971	757.803
181.154	24.807	935.523	757.124
182.169	25.010	934.643	757.202
183.183	25.196	934.843	758.086
184.198	25.520	934.288	758.936
185.213	25.403	933.780	757.963
186.227	25.496	932.962	757.626
187.242	25.530	932.504	757.326
188.256	25.520	931.824	756.667
189.271	25.668	930.797	756.388
190.286	25.598	930.432	755.729
191.300	25.418	929.329	754.012
192.315	24.960	927.826	750.807
193.329	24.105	926.381	745.990
194.344	23.588	925.548	743.090
195.359	24.215	925.828	745.874
196.373	25.214	926.178	750.269
197.388	25.420	926.143	751.038
198.402	25.420	925.086	750.115
199.417	25.314	924.973	749.514
200.432	25.382	924.228	749.125
201.446	25.330	923.458	748.219
202.461	25.028	922.413	746.047
203.475	25.085	922.189	746.041
204.490	24.690	921.065	743.421
205.504	23.604	918.691	736.932
206.519	23.930	918.596	738.143
207.534	24.737	919.212	741.924
208.548	24.990	918.162	742.059
209.563	25.226	918.277	743.065
210.577	25.300	917.770	742.892
211.592	25.026	916.803	740.913
212.607	25.554	916.422	742.719
213.621	25.662	916.153	742.884
214.636	25.533	915.280	741.578
215.650	25.498	915.181	741.287
216.665	25.406	914.599	740.371
217.680	25.583	913.936	740.499
218.694	25.625	913.405	740.175
219.709	25.408	912.497	738.480
220.723	25.006	911.432	735.905
221.738	25.237	910.876	736.338
222.753	25.358	910.920	736.802
223.767	25.351	909.724	735.744
224.782	25.568	909.230	736.165
225.796	25.611	908.686	735.836
226.811	25.720	907.848	735.540
227.826	25.400	906.864	733.368
228.840	24.699	904.990	728.933
229.855	24.471	904.814	727.796
230.869	24.752	904.523	728.643
231.884	24.345	903.407	726.023
232.899	24.284	903.229	725.570
233.913	25.154	903.119	728.953
234.928	25.261	903.288	729.460
235.942	25.117	902.136	727.882
236.957	25.327	901.255	727.957
237.972	25.071	900.273	726.063
238.986	24.905	899.774	724.923
240.001	25.049	899.286	725.051
241.015	25.159	898.535	724.825
242.030	25.140	897.812	724.102
243.045	25.261	896.872	723.765
244.059	25.383	896.950	724.255
245.074	25.629	895.999	724.415
246.088	25.562	895.539	723.710
247.103	25.130	895.051	721.515
248.117	25.068	894.389	720.669
249.132	25.629	894.531	722.974
250.147	26.105	894.047	724.430
251.161	26.124	893.591	724.071
252.176	26.235	893.087	724.042
253.190	26.209	892.681	723.546
254.205	26.256	892.235	723.310
255.220	26.454	891.872	723.745
256.234	26.548	890.710	723.112
257.249	26.351	890.072	721.745
258.263	26.238	889.681	720.912
259.278	26.154	889.343	720.237
260.293	26.369	888.691	720.505
261.307	26.415	888.214	720.236
262.322	26.193	887.681	718.859
263.336	26.203	886.707	718.044
264.351	25.735	885.210	714.912
265.366	24.674	883.576	709.321
266.380	24.140	882.695	706.432
267.395	24.971	883.024	709.928
268.409	25.815	883.222	713.369
269.424	25.759	882.542	712.534
270.439	25.856	882.154	712.542
271.453	26.082	881.300	712.683
272.468	26.142	880.749	712.410
273.482	26.213	880.277	712.246
274.497	26.350	879.833	712.365
275.512	26.119	878.860	710.604
276.526	25.576	877.498	707.303
277.541	25.750	877.075	707.586
278.555	26.036	877.342	708.861
279.570	25.919	876.667	707.793
280.585	25.871	875.243	706.396
281.599	25.902	875.090	706.329
282.614	26.169	874.443	706.790
283.628	25.573	873.497	703.633
284.643	25.126	872.985	701.408
285.657	25.541	873.016	702.993
286.672	25.491	872.407	702.247
287.687	25.096	870.744	699.304
288.701	25.426	870.529	700.357
289.716	25.761	870.785	701.809
290.730	25.450	869.731	699.684
291.745	25.254	869.219	698.448
292.760	25.183	868.017	697.143
293.774	25.063	867.277	696.025
294.789	25.902	868.480	700.188
295.803	26.622	868.237	702.725
296.818	26.764	867.696	702.777
297.833	26.793	866.962	702.231
298.847	26.456	865.954	700.049
299.862	26.085	865.132	697.886
300.876	26.234	864.861	698.183
301.891	26.587	864.610	699.281
302.906	26.741	864.216	699.495
303.920	26.361	862.737	696.775
304.935	26.090	862.305	695.317
305.949	26.504	862.303	696.850
306.964	26.517	861.816	696.446
307.979	26.429	860.606	695.066
308.993	26.182	860.773	694.192
310.008	26.641	860.043	695.303
311.022	26.886	859.570	695.800
312.037	26.624	858.879	694.174
313.052	26.360	858.186	692.542
314.066	26.280	857.152	691.338
315.081	25.674	856.066	688.087
316.095	24.866	854.923	684.018
317.110	25.315	855.125	685.836
318.125	26.184	855.446	689.353
319.139	25.941	854.539	687.635
320.154	24.699	852.507	681.209
321.168	24.177	851.920	678.692
322.183	24.785	852.041	681.045
323.197	25.768	852.494	685.086
324.212	26.143	852.108	686.143
325.227	26.322	851.497	686.269
326.241	26.429	851.476	686.598
327.256	26.379	850.307	685.406
328.270	26.387	849.659	684.854
329.285	26.302	849.026	683.962
330.300	26.004	848.329	682.211
331.314	25.639	847.701	680.266
332.329	25.857	846.971	680.444
333.343	26.124	846.875	681.315
334.358	26.585	846.096	682.364
335.373	26.672	845.643	682.268
336.387	26.567	845.215	681.465
337.402	26.770	844.874	681.895
338.416	26.886	844.605	682.054
339.431	26.902	844.218	681.739
340.446	26.901	843.881	681.403
341.460	27.258	842.894	681.884
342.475	26.945	842.885	680.644
343.489	26.736	842.136	679.197
344.504	26.816	841.416	678.854
345.519	27.129	840.851	679.510
346.533	27.305	840.851	680.107
347.548	27.403	840.331	679.992
348.562	27.473	839.630	679.625
349.577	27.374	839.497	679.089
350.592	27.263	838.726	677.994
351.606	27.335	837.722	677.389
352.621	27.231	837.498	676.760
353.635	27.144	837.186	676.124
354.650	27.002	836.500	674.983
355.665	26.802	835.628	673.478
356.679	25.683	834.061	668.004
357.694	25.546	833.315	666.840
358.708	26.235	833.406	669.407
359.723	26.242	832.707	668.811
360.738	26.521	832.487	669.609
361.752	26.914	832.485	671.003
362.767	26.910	832.361	670.828
363.781	27.216	832.280	671.832
364.796	27.530	832.195	672.865
365.810	27.706	831.360	672.781
366.825	27.838	830.918	672.851
367.840	27.684	830.767	672.099
368.854	27.612	829.864	671.046
369.869	27.138	829.263	668.756
370.883	26.804	828.718	667.028
371.898	26.993	828.127	667.189
372.913	27.012	827.248	666.492
373.927	27.012	826.544	665.866
374.942	27.145	826.354	666.139
375.956	27.200	825.697	665.754
376.971	27.348	825.086	665.744
377.986	27.330	825.035	665.576
379.000	27.457	824.721	665.731
380.015	27.539	824.134	665.494
381.029	27.411	823.353	664.340
382.044	27.485	822.329	663.724
383.059	27.607	821.679	663.584
384.073	27.557	821.635	663.311
385.088	27.601	821.137	663.008
386.102	27.511	820.515	662.121
387.117	27.389	819.700	660.960
388.132	27.286	819.279	660.187
389.146	27.240	818.476	659.316
390.161	26.530	817.904	656.226
391.175	26.729	817.337	656.431
392.190	27.179	817.342	658.008
393.205	27.259	816.928	657.906
394.219	26.226	815.140	652.678
395.234	24.584	812.901	644.904
396.248	23.807	811.675	641.074
397.263	24.761	812.592	645.184
398.278	26.502	814.071	652.585
399.292	27.059	814.212	654.650
400.307	26.839	813.507	653.232
401.321	26.870	812.789	652.711
402.336	26.789	812.484	652.117
403.350	27.212	812.176	653.330
404.365	27.644	812.300	654.926
405.380	27.912	812.172	655.727
406.394	28.237	811.774	656.514
407.409	28.448	811.575	657.051
408.423	28.242	811.151	655.910
409.438	28.172	810.710	655.244
410.453	28.148	810.261	654.738
411.467	28.422	809.686	655.195
412.482	28.354	809.320	654.599
413.496	28.368	808.217	653.699
414.511	28.402	807.978	653.567
415.526	28.252	807.798	652.831
416.540	28.404	807.313	652.923
417.555	28.230	806.975	651.972
418.569	27.989	806.088	650.341
419.584	27.962	805.628	649.816
420.599	27.993	805.187	649.513
421.613	94.583	1262.165	1372.003
422.628	81.133	1328.773	1372.154
