DTS Sentinel unit serial number:	SN413079Multiplexer serial number:	ORYXHardware model number:	OX4-SRSoftware version number:	ORYX F/W v4.00 Oryx Data Collector v3.7.2.0data status	okinstallation	princeton_trtdifferential loss correction	single-endedforward channel	channel 3reverse channel	N/Adate	2019/09/14time	09:08:35forward acquisition time	60.00reverse acquisition time	0.00gamma	496.2192k internal	0.2324k external	0.2324temperature offset calibration	1.0051default loss term (dB/km)	0.3790temperature slope calibration	1.0000multiplexer offset coefficient	1.0000multiplexer slope coefficient	1.0000fibre end	0.00T internal ref (°C)	30.39T ext. ref 1 (°C)	3.77T ext. ref 2 (°C)	28.55length (m)	temperature (°C)	Stokes	anti-Stokes-747.200	52.821	-0.145	0.140
-746.185	548.340	-0.051	0.124
-745.171	800.000	0.056	-0.167
-744.156	710.158	0.091	0.243
-743.142	2.002	0.122	0.089
-742.127	-46.067	0.160	0.079
-741.112	-107.468	0.180	-0.040
-740.098	-200.000	0.023	0.205
-739.083	800.000	-0.041	0.128
-738.069	100.105	-0.098	-0.115
-737.054	124.648	0.077	0.098
-736.039	148.708	0.204	-0.279
-735.025	-38.329	0.173	-0.092
-734.010	-200.000	0.043	-0.267
-732.996	-150.901	-0.431	-0.033
-731.981	-106.487	-0.172	0.039
-730.966	193.511	0.104	-0.159
-729.952	-111.113	-0.125	-0.026
-728.937	-57.763	0.155	-0.068
-727.923	800.000	-0.067	-0.287
-726.908	188.249	0.008	-0.012
-725.894	-63.575	-0.120	-0.050
-724.879	7.200	-0.287	0.216
-723.864	-54.834	0.128	-0.058
-722.850	90.090	0.199	-0.224
-721.835	16.885	0.033	-0.027
-720.821	-200.000	-0.007	0.042
-719.806	14.037	-0.097	0.076
-718.791	-71.196	-0.330	-0.125
-717.777	-171.595	0.137	0.005
-716.762	-164.472	-0.228	-0.010
-715.748	-63.336	-0.150	0.062
-714.733	71.160	0.121	0.127
-713.718	-134.408	0.293	-0.036
-712.704	-200.000	0.013	-0.142
-711.689	-113.260	0.145	-0.029
-710.675	-200.000	0.005	0.111
-709.660	174.643	-0.021	0.031
-708.645	635.478	-0.028	0.072
-707.631	-58.839	0.267	-0.116
-706.616	800.000	0.049	-0.208
-705.602	381.295	0.088	0.183
-704.587	-8.500	-0.104	0.071
-703.572	344.419	0.175	0.346
-702.558	-200.000	-0.047	0.353
-701.543	-93.696	-0.251	0.070
-700.529	-200.000	-0.044	-0.364
-699.514	-95.132	0.337	-0.092
-698.499	199.762	-0.185	-0.286
-697.485	119.194	0.209	-0.260
-696.470	-52.687	-0.092	0.043
-695.456	78.802	0.231	-0.249
-694.441	-200.000	0.029	-0.266
-693.426	-2.163	0.149	-0.105
-692.412	224.052	-0.026	-0.042
-691.397	158.979	-0.117	0.164
-690.383	6.870	0.084	0.063
-689.368	-82.878	0.320	-0.104
-688.354	-122.168	0.173	0.029
-687.339	424.263	-0.025	0.054
-686.324	-8.973	0.057	-0.038
-685.310	-200.000	0.026	-0.450
-684.295	612.644	-0.156	-0.393
-683.281	-32.083	-0.242	-0.136
-682.266	7.627	0.064	-0.048
-681.251	800.000	0.041	0.135
-680.237	-113.866	0.135	-0.026
-679.222	-125.122	-0.207	-0.032
-678.208	398.732	-0.071	-0.150
-677.193	-59.576	0.106	-0.046
-676.178	-15.835	-0.055	-0.035
-675.164	-200.000	0.011	-0.254
-674.149	-145.077	0.283	0.026
-673.135	-200.000	-0.052	0.251
-672.120	-200.000	0.027	0.245
-671.105	-129.546	-0.245	0.034
-670.091	203.283	0.181	-0.281
-669.076	-200.000	-0.047	-0.377
-668.062	-21.667	-0.196	-0.120
-667.047	-15.151	0.060	-0.039
-666.032	102.998	0.122	-0.144
-665.018	255.951	-0.120	-0.207
-664.003	11.232	-0.353	0.271
-662.989	-200.000	0.002	0.094
-661.974	397.275	-0.142	0.298
-660.959	-85.921	-0.139	-0.043
-659.945	464.666	-0.058	0.130
-658.930	-154.437	-0.096	0.007
-657.916	-126.861	0.242	-0.036
-656.901	800.000	0.131	0.403
-655.886	800.000	0.107	-0.318
-654.872	-88.949	-0.300	0.089
-653.857	-93.277	0.174	-0.048
-652.843	-134.780	0.279	-0.034
-651.828	179.814	-0.060	-0.088
-650.814	-104.606	0.230	-0.053
-649.799	-194.583	-0.380	0.003
-648.784	142.612	-0.135	-0.180
-647.770	-200.000	-0.029	-0.350
-646.755	800.000	0.101	-0.352
-645.741	440.910	-0.051	-0.112
-644.726	13.503	0.316	0.247
-643.711	-33.268	0.083	0.046
-642.697	54.405	0.256	0.248
-641.682	800.000	-0.050	-0.201
-640.668	-200.000	-0.019	-0.098
-639.653	117.430	-0.118	-0.145
-638.638	-185.936	-0.237	0.004
-637.624	-200.000	0.006	0.032
-636.609	691.699	-0.086	0.226
-635.595	-44.317	0.307	-0.155
-634.580	592.261	-0.074	0.185
-633.565	-42.862	0.456	0.233
-632.551	510.818	-0.130	-0.305
-631.536	-135.511	-0.327	-0.039
-630.522	-21.799	-0.172	-0.105
-629.507	121.493	-0.082	-0.103
-628.492	-112.523	-0.219	0.044
-627.478	128.383	0.112	-0.143
-626.463	-200.000	-0.025	-0.122
-625.449	800.000	0.093	0.287
-624.434	-129.170	-0.476	0.067
-623.419	462.990	0.138	-0.311
-622.405	-180.469	-0.334	0.007
-621.390	-172.259	-0.187	-0.006
-620.376	-161.369	-0.343	-0.018
-619.361	125.307	0.211	-0.267
-618.346	800.000	-0.047	0.185
-617.332	74.277	0.136	-0.143
-616.317	43.517	-0.059	0.055
-615.303	-103.888	-0.301	-0.071
-614.288	3.522	0.249	-0.182
-613.273	163.453	-0.176	-0.248
-612.259	57.360	0.314	0.308
-611.244	-200.000	-0.051	-0.239
-610.230	-15.793	-0.069	-0.044
-609.215	-152.044	0.314	0.023
-608.201	214.701	-0.130	0.207
-607.186	-26.976	-0.273	-0.160
-606.171	800.000	0.067	-0.204
-605.157	-200.000	0.020	-0.135
-604.142	-2.774	0.205	0.144
-603.128	800.000	0.121	0.362
-602.113	480.732	-0.031	-0.071
-601.098	800.000	-0.121	0.465
-600.084	552.431	0.128	0.308
-599.069	-76.784	0.217	0.076
-598.055	281.870	0.017	0.031
-597.040	800.000	-0.016	0.051
-596.025	141.255	-0.129	-0.171
-595.011	-122.280	-0.220	0.036
-593.996	73.735	-0.225	0.237
-592.982	42.548	0.237	-0.216
-591.967	39.438	-0.302	0.271
-590.952	392.153	0.060	0.126
-589.938	-200.000	0.007	-0.040
-588.923	800.000	-0.081	-0.244
-587.909	255.244	-0.089	-0.152
-586.894	-200.000	0.001	-0.071
-585.879	480.322	-0.186	-0.424
-584.865	55.555	-0.186	-0.180
-583.850	800.000	0.001	0.003
-582.836	-92.130	-0.140	0.040
-581.821	800.000	0.122	0.356
-580.806	107.360	0.185	0.221
-579.792	-200.000	0.043	-0.263
-578.777	-103.143	0.192	0.045
-577.763	-18.135	-0.170	-0.106
-576.748	-37.114	-0.281	0.151
-575.733	-86.079	-0.115	0.036
-574.719	-85.552	0.522	0.163
-573.704	-200.000	0.001	0.351
-572.690	107.135	-0.163	-0.194
-571.675	-200.000	-0.071	0.410
-570.661	-55.153	0.311	0.140
-569.646	-200.000	-0.013	-0.205
-568.631	67.120	0.095	0.097
-567.617	-71.093	-0.269	-0.101
-566.602	34.045	-0.253	0.221
-565.588	192.191	-0.061	-0.092
-564.573	-120.471	-0.103	-0.018
-563.558	-200.000	0.001	-0.180
-562.544	-200.000	-0.073	0.418
-561.529	623.687	-0.014	-0.034
-560.515	800.000	0.020	0.067
-559.500	-0.666	0.097	-0.069
-558.485	-88.860	-0.166	-0.049
-557.471	25.183	-0.380	-0.316
-556.456	-200.000	0.005	0.285
-555.442	169.902	0.081	0.116
-554.427	-41.878	0.283	-0.145
-553.412	36.967	0.127	0.113
-552.398	800.000	-0.095	-0.361
-551.383	301.502	0.212	-0.392
-550.369	-45.703	0.184	0.091
-549.354	-125.160	0.482	-0.074
-548.339	57.136	-0.264	0.258
-547.325	-76.314	0.237	-0.084
-546.310	18.776	0.134	-0.107
-545.296	-127.543	-0.315	0.046
-544.281	118.890	0.139	-0.173
-543.266	-50.004	-0.123	0.059
-542.252	-91.291	-0.428	-0.123
-541.237	-168.159	0.076	0.003
-540.223	250.001	-0.067	-0.114
-539.208	164.408	-0.154	-0.217
-538.193	350.492	0.084	0.166
-537.179	-200.000	-0.008	-0.047
-536.164	800.000	0.081	-0.283
-535.150	218.739	0.089	-0.142
-534.135	-78.699	-0.322	-0.110
-533.121	48.082	0.297	-0.278
-532.106	-200.000	-0.042	-0.310
-531.091	-200.000	0.017	-0.383
-530.077	28.922	-0.412	-0.350
-529.062	-107.211	-0.259	0.057
-528.048	330.029	-0.108	0.208
-527.033	-200.000	-0.027	-0.193
-526.018	-126.173	-0.246	0.037
-525.004	800.000	0.063	0.205
-523.989	466.767	0.036	-0.081
-522.975	800.000	-0.032	-0.096
-521.960	800.000	0.098	0.283
-520.945	-51.686	-0.228	0.106
-519.931	31.349	-0.240	0.206
-518.916	-64.407	-0.251	0.102
-517.902	41.038	-0.117	0.106
-516.887	-200.000	-0.001	-0.021
-515.872	-147.696	0.254	0.021
-514.858	800.000	0.022	0.091
-513.843	80.167	0.082	0.088
-512.829	174.951	-0.079	-0.114
-511.814	-100.304	0.150	-0.037
-510.799	-200.000	-0.002	0.281
-509.785	-24.160	0.165	0.099
-508.770	-81.192	0.180	-0.060
-507.756	18.296	-0.132	-0.105
-506.741	144.286	-0.044	0.058
-505.726	-200.000	0.056	-0.428
-504.712	-200.000	0.018	0.117
-503.697	-200.000	-0.016	-0.234
-502.683	-45.424	0.328	-0.163
-501.668	-2.632	-0.128	0.089
-500.653	-108.699	-0.030	-0.006
-499.639	-111.135	0.337	-0.069
-498.624	-14.848	0.122	-0.078
-497.610	137.279	-0.123	-0.160
-496.595	-53.946	0.530	0.241
-495.581	-98.956	-0.220	-0.056
-494.566	-200.000	-0.049	0.267
-493.551	340.366	0.028	0.055
-492.537	-88.431	0.164	-0.049
-491.522	-107.752	-0.131	-0.029
-490.508	76.368	0.320	0.338
-489.493	8.086	-0.053	0.040
-488.478	-9.552	0.058	-0.038
-487.464	-11.121	-0.351	0.232
-486.449	273.146	-0.067	0.118
-485.435	51.640	0.109	-0.104
-484.420	140.064	-0.256	-0.337
-483.405	-133.636	0.209	0.026
-482.391	-160.349	0.130	-0.007
-481.376	-59.714	-0.101	-0.043
-480.362	-104.357	-0.135	-0.031
-479.347	422.125	0.150	0.322
-478.332	-126.189	-0.137	0.020
-477.318	-32.606	0.303	0.169
-476.303	-102.844	0.066	0.016
-475.289	378.471	-0.070	-0.143
-474.274	58.544	-0.093	-0.091
-473.259	-66.475	0.129	-0.051
-472.245	-200.000	0.011	-0.095
-471.230	488.744	-0.028	0.064
-470.216	453.067	-0.134	0.296
-469.201	-70.053	-0.491	0.187
-468.186	800.000	-0.062	-0.260
-467.172	-40.915	0.079	0.041
-466.157	800.000	-0.141	-0.401
-465.143	24.811	0.186	-0.154
-464.128	663.985	-0.067	-0.173
-463.113	-40.953	0.250	0.129
-462.099	7.711	-0.036	0.027
-461.084	-200.000	-0.004	-0.143
-460.070	-147.636	-0.235	0.020
-459.055	-70.967	-0.208	0.078
-458.040	632.823	-0.041	0.103
-457.026	-102.414	-0.290	-0.069
-456.011	10.524	-0.125	-0.095
-454.997	28.427	0.280	-0.236
-453.982	-59.826	-0.117	-0.050
-452.968	-200.000	-0.031	0.194
-451.953	-26.644	0.079	0.046
-450.938	-73.520	-0.445	-0.162
-449.924	-151.593	0.248	-0.018
-448.909	-10.545	0.245	0.162
-447.895	-200.000	-0.034	-0.187
-446.880	84.204	0.173	-0.188
-445.865	-90.077	0.297	0.086
-444.851	-103.734	0.052	0.012
-443.836	214.775	-0.216	-0.341
-442.822	116.732	-0.195	-0.239
-441.807	58.319	0.117	-0.114
-440.792	70.239	-0.053	0.055
-439.778	291.160	-0.060	0.109
-438.763	-200.000	-0.021	-0.172
-437.749	5.466	0.244	0.180
-436.734	113.238	-0.195	0.235
-435.719	40.241	-0.049	0.044
-434.705	-69.536	0.337	0.129
-433.690	59.196	0.196	-0.192
-432.676	25.492	0.123	-0.102
-431.661	-200.000	0.003	0.393
-430.646	800.000	0.045	0.191
-429.632	282.571	0.172	-0.307
-428.617	496.071	-0.098	0.224
-427.603	273.754	0.026	0.046
-426.588	105.539	-0.179	-0.211
-425.573	68.616	0.150	-0.153
-424.559	8.618	0.198	-0.149
-423.544	-156.887	-0.333	-0.020
-422.530	-200.000	0.038	-0.405
-421.515	-143.219	-0.188	-0.018
-420.500	92.173	-0.133	0.149
-419.486	-200.000	0.002	0.076
-418.471	-75.695	-0.105	-0.037
-417.457	31.115	0.105	0.090
-416.442	237.612	-0.107	0.177
-415.428	-79.098	0.204	-0.069
-414.413	800.000	0.042	0.153
-413.398	61.031	-0.198	0.195
-412.384	148.238	0.246	-0.330
-411.369	-107.523	0.140	-0.030
-410.355	124.633	-0.154	-0.193
-409.340	-77.901	-0.195	-0.067
-408.325	-171.480	0.191	-0.006
-407.311	-200.000	0.038	-0.235
-406.296	-200.000	-0.044	0.198
-405.282	-200.000	0.106	0.516
-404.267	-200.000	0.011	0.279
-403.252	-89.020	0.210	0.062
-402.238	-155.291	-0.434	0.028
-401.223	295.043	-0.101	0.184
-400.209	-200.000	-0.004	0.116
-399.194	-51.823	0.232	0.107
-398.179	245.121	-0.082	0.137
-397.165	-200.000	-0.021	0.126
-396.150	117.503	-0.129	0.158
-395.136	800.000	0.035	0.123
-394.121	589.179	-0.182	-0.445
-393.106	426.013	0.019	0.042
-392.092	533.720	0.065	-0.153
-391.077	-82.045	-0.365	-0.119
-390.063	-200.000	0.069	0.352
-389.048	800.000	-0.111	-0.362
-388.033	263.324	-0.101	0.175
-387.019	78.964	0.101	-0.108
-386.004	-200.000	0.020	-0.239
-384.990	74.012	-0.274	-0.286
-383.975	12.497	-0.059	-0.045
-382.960	-169.757	-0.303	-0.011
-381.946	-200.000	0.024	0.314
-380.931	-130.024	-0.335	-0.046
-379.917	800.000	-0.021	0.060
-378.902	82.512	0.156	0.169
-377.888	-71.848	0.206	0.076
-376.873	-200.000	0.017	0.232
-375.858	-39.233	0.206	0.107
-374.844	139.193	-0.222	0.291
-373.829	171.061	0.148	0.211
-372.815	-198.165	0.132	-0.001
-371.800	101.341	0.239	0.277
-370.785	303.300	0.159	-0.293
-369.771	-200.000	-0.020	-0.101
-368.756	-80.278	-0.201	-0.067
-367.742	-35.538	-0.152	-0.082
-366.727	3.862	-0.243	0.177
-365.712	512.128	0.042	-0.096
-364.698	-122.745	-0.184	-0.030
-363.683	14.616	-0.136	0.105
-362.669	-142.342	0.308	0.030
-361.654	99.533	0.122	0.141
-360.639	-44.750	-0.153	0.076
-359.625	36.800	0.384	0.338
-358.610	483.934	-0.057	0.129
-357.596	20.286	-0.273	-0.220
-356.581	33.044	0.059	0.050
-355.566	-6.090	0.169	0.115
-354.552	-200.000	-0.018	0.225
-353.537	195.123	0.154	0.232
-352.523	10.177	-0.065	-0.049
-351.508	800.000	-0.029	-0.098
-350.493	167.399	0.093	-0.131
-349.479	240.621	-0.109	-0.182
-348.464	800.000	-0.177	-0.495
-347.450	-200.000	-0.033	-0.249
-346.435	-200.000	0.036	-0.384
-345.420	-127.664	-0.316	0.045
-344.406	35.012	-0.167	0.145
-343.391	-126.571	0.076	0.011
-342.377	-199.046	0.226	-0.001
-341.362	-66.706	0.109	-0.043
-340.348	188.626	-0.255	0.379
-339.333	-115.748	-0.039	0.007
-338.318	800.000	-0.087	-0.299
-337.304	152.160	0.128	-0.174
-336.289	10.530	0.158	-0.120
-335.275	134.735	-0.135	0.174
-334.260	-57.854	0.057	0.025
-333.245	-200.000	0.176	0.000
-332.231	-200.000	0.012	0.066
-331.216	-200.000	0.045	0.268
-330.202	-146.349	-0.480	-0.042
-329.187	45.965	-0.099	-0.091
-328.172	-142.771	0.112	0.011
-327.158	-20.790	-0.259	0.158
-326.143	-57.107	-0.190	-0.083
-325.129	800.000	-0.038	0.162
-324.114	-200.000	-0.004	0.093
-323.099	14.803	-0.063	0.049
-322.085	-114.589	-0.035	-0.007
-321.070	-200.000	-0.040	0.198
-320.056	-21.955	-0.165	0.100
-319.041	-45.065	0.333	0.164
-318.026	-200.000	-0.011	0.201
-317.012	203.294	0.056	0.086
-315.997	162.741	-0.081	0.113
-314.983	-107.268	0.151	0.033
-313.968	800.000	0.085	0.321
-312.953	-114.151	-0.260	-0.050
-311.939	-200.000	0.044	-0.324
-310.924	61.634	0.192	0.189
-309.910	248.839	0.080	0.134
-308.895	-67.948	-0.136	-0.053
-307.880	-50.302	-0.228	0.107
-306.866	163.999	-0.269	0.376
-305.851	-200.000	0.042	0.282
-304.837	-3.236	-0.144	0.100
-303.822	67.084	0.333	-0.337
-302.807	99.764	-0.184	-0.211
-301.793	-200.000	-0.091	0.462
-300.778	-200.000	0.034	-0.194
-299.764	-200.000	-0.002	0.200
-298.749	-200.000	-0.003	0.072
-297.735	-200.000	0.009	0.041
-296.720	800.000	-0.090	0.292
-295.705	16.612	0.253	0.199
-294.691	102.398	0.092	0.107
-293.676	-69.047	-0.212	0.081
-292.662	168.908	0.137	-0.193
-291.647	-33.081	0.129	-0.071
-290.632	189.690	-0.347	-0.516
-289.618	402.086	0.091	-0.190
-288.603	-100.852	0.702	-0.171
-287.589	272.012	-0.159	0.279
-286.574	277.117	0.122	0.215
-285.559	114.211	-0.140	0.169
-284.545	-117.817	0.037	0.007
-283.530	351.039	0.062	0.121
-282.516	-200.000	0.013	-0.062
-281.501	98.025	0.192	-0.219
-280.486	245.360	0.237	-0.396
-279.472	-169.663	0.284	0.010
-278.457	-200.000	0.041	-0.281
-277.443	-1.116	0.216	0.151
-276.428	-200.000	-0.011	0.155
-275.413	-200.000	-0.021	-0.192
-274.399	-84.242	-0.329	-0.103
-273.384	800.000	-0.082	-0.255
-272.370	-73.158	0.248	-0.090
-271.355	31.538	-0.166	-0.141
-270.340	-69.522	0.207	0.079
-269.326	-125.565	0.062	0.009
-268.311	-167.785	0.150	-0.006
-267.297	106.600	0.191	0.225
-266.282	-56.104	-0.187	-0.083
-265.267	-200.000	-0.001	-0.094
-264.253	182.335	-0.078	0.113
-263.238	-67.581	0.142	-0.055
-262.224	-177.778	-0.022	-0.001
-261.209	-58.886	0.215	0.092
-260.195	-200.000	0.010	0.184
-259.180	81.393	0.201	0.215
-258.165	-200.000	-0.033	-0.358
-257.151	-200.000	0.438	0.000
-256.136	287.387	-0.054	0.097
-255.122	34.831	-0.068	-0.059
-254.107	-200.000	-0.019	-0.383
-253.092	117.153	-0.156	0.190
-252.078	-200.000	0.008	-0.081
-251.063	800.000	-0.050	-0.190
-250.049	213.021	0.114	-0.178
-249.034	85.283	0.087	-0.095
-248.019	3.832	-0.189	0.136
-247.005	800.000	0.087	-0.375
-245.990	-200.000	0.045	0.215
-244.976	-49.387	-0.096	0.045
-243.961	211.771	0.104	0.163
-242.946	-93.859	0.339	-0.092
-241.932	205.852	0.070	-0.108
-240.917	-58.237	0.335	0.144
-239.903	-200.000	-0.025	0.112
-238.888	-200.000	-0.033	-0.210
-237.873	-76.422	0.228	0.079
-236.859	-200.000	0.018	-0.200
-235.844	-100.560	-0.170	0.041
-234.830	800.000	-0.042	-0.120
-233.815	-176.381	-0.159	-0.004
-232.800	49.917	0.208	0.194
-231.786	-200.000	-0.004	-0.019
-230.771	800.000	0.046	0.166
-229.757	-200.000	0.067	0.308
-228.742	145.189	0.112	-0.149
-227.727	-60.095	-0.239	-0.101
-226.713	-146.100	0.257	-0.022
-225.698	800.000	0.052	0.158
-224.684	-32.839	0.183	0.100
-223.669	149.582	0.158	0.212
-222.655	-49.420	-0.272	-0.128
-221.640	-72.768	0.346	0.126
-220.625	800.000	0.064	0.220
-219.611	345.311	-0.148	0.288
-218.596	37.014	0.156	0.137
-217.582	-20.777	-0.099	0.060
-216.567	800.000	-0.083	-0.240
-215.552	71.269	0.187	-0.191
-214.538	21.066	-0.158	-0.127
-213.523	800.000	0.048	0.198
-212.509	253.624	0.128	-0.215
-211.494	92.655	0.153	-0.171
-210.479	47.045	-0.068	0.062
-209.465	-200.000	0.004	0.086
-208.450	-200.000	0.009	-0.121
-207.436	458.771	0.124	-0.273
-206.421	800.000	-0.110	-0.396
-205.406	-58.448	-0.445	0.191
-204.392	-200.000	-0.019	0.094
-203.377	62.594	0.096	0.095
-202.363	-61.711	0.094	-0.039
-201.348	476.179	0.061	0.136
-200.333	-112.717	0.259	0.051
-199.319	358.301	0.045	-0.090
-198.304	163.071	0.255	0.353
-197.290	-20.890	-0.138	-0.084
-196.275	54.322	0.049	-0.047
-195.260	48.195	-0.163	0.150
-194.246	451.925	-0.032	0.070
-193.231	378.912	0.038	-0.078
-192.217	188.693	-0.131	0.194
-191.202	43.490	0.096	0.087
-190.187	-130.931	-0.131	-0.017
-189.173	99.411	-0.086	-0.098
-188.158	-33.452	0.034	0.019
-187.144	42.700	-0.078	0.070
-186.129	-175.729	0.135	-0.004
-185.114	800.000	0.074	-0.228
-184.100	-100.511	0.082	-0.020
-183.085	-165.664	0.321	0.014
-182.071	-200.000	-0.017	-0.359
-181.056	-34.941	-0.110	-0.059
-180.042	-74.132	0.189	-0.068
-179.027	96.782	-0.112	-0.127
-178.012	220.130	-0.113	0.179
-176.998	-45.981	-0.201	0.098
-175.983	339.777	-0.138	-0.266
-174.969	354.710	-0.038	0.075
-173.954	-91.502	-0.350	0.099
-172.939	300.355	0.141	-0.256
-171.925	10.822	0.260	0.196
-170.910	348.767	0.136	-0.264
-169.896	800.000	0.072	0.296
-168.881	800.000	0.040	-0.163
-167.866	-200.000	0.003	-0.013
-166.852	-107.374	0.127	-0.028
-165.837	-200.000	0.017	0.313
-164.823	-119.790	-0.402	-0.068
-163.808	81.628	-0.086	0.092
-162.793	157.679	0.267	0.365
-161.779	-45.799	0.158	0.077
-160.764	-134.040	-0.087	-0.011
-159.750	26.021	0.026	-0.022
-158.735	6.086	0.330	0.241
-157.720	800.000	0.018	-0.057
-156.706	800.000	-0.062	-0.249
-155.691	-200.000	0.017	0.094
-154.677	196.631	0.155	-0.233
-153.662	-64.663	-0.038	0.015
-152.647	-2.564	0.017	0.012
-151.633	29.486	0.164	-0.137
-150.618	-94.488	0.233	-0.063
-149.604	184.324	0.097	-0.142
-148.589	-200.000	-0.014	0.105
-147.574	-200.000	-0.029	0.358
-146.560	-139.672	0.176	0.018
-145.545	-36.084	0.191	-0.102
-144.531	27.159	0.108	-0.089
-143.516	-77.485	0.263	-0.090
-142.502	-144.127	0.344	-0.032
-141.487	114.462	0.103	-0.124
-140.472	-200.000	-0.057	0.290
-139.458	-37.219	-0.216	0.114
-138.443	32.929	0.211	0.180
-137.429	460.093	-0.120	0.263
-136.414	-109.316	0.098	-0.021
-135.399	55.629	0.174	-0.166
-134.385	-125.795	-0.274	-0.041
-133.370	-200.000	-0.061	-0.317
-132.356	-200.000	-0.011	0.264
-131.341	-125.038	-0.183	-0.028
-130.326	787.478	0.110	-0.297
-129.312	-100.891	-0.037	-0.009
-128.297	-200.000	-0.021	0.184
-127.283	112.726	0.253	0.302
-126.268	658.983	0.091	0.230
-125.253	-179.381	-0.129	0.003
-124.239	278.605	0.137	-0.240
-123.224	-135.668	0.143	0.017
-122.210	-200.000	0.003	0.072
-121.195	-200.000	0.010	0.143
-120.180	353.486	-0.098	0.191
-119.166	-200.000	0.071	0.354
-118.151	135.270	-0.129	0.165
-117.137	118.067	0.025	0.030
-116.122	-200.000	-0.096	-0.421
-115.107	51.944	0.156	0.147
-114.093	-200.000	0.010	-0.055
-113.078	-151.473	-0.235	0.017
-112.064	-61.490	-0.114	0.047
-111.049	-134.144	0.043	0.005
-110.034	-200.000	-0.014	0.126
-109.020	-200.000	0.029	0.138
-108.005	216.058	0.084	0.131
-106.991	-94.597	0.519	-0.139
-105.976	800.000	-0.097	0.359
-104.962	800.000	-0.054	0.206
-103.947	-4.535	0.141	-0.096
-102.932	342.248	-0.132	0.255
-101.918	-200.000	-0.014	0.271
-100.903	-200.000	0.073	0.470
-99.889	-200.000	0.091	0.399
-98.874	-65.178	0.314	-0.125
-97.859	-200.000	0.015	-0.285
-96.845	66.059	-0.171	0.171
-95.830	-129.433	0.132	0.018
-94.816	800.000	0.060	-0.211
-93.801	800.000	0.021	-0.059
-92.786	25.672	-0.183	-0.150
-91.772	-200.000	-0.036	-0.182
-90.757	135.212	0.128	-0.164
-89.743	168.823	-0.161	-0.226
-88.728	-0.653	0.148	-0.103
-87.713	800.000	-0.103	0.295
-86.699	-61.363	0.192	0.080
-85.684	10.870	0.103	-0.077
-84.670	-89.386	-0.240	-0.069
-83.655	-124.276	0.305	-0.047
-82.640	-200.000	-0.016	-0.071
-81.626	-16.563	0.145	-0.091
-80.611	26.465	0.123	0.102
-79.597	322.895	0.074	0.138
-78.582	8.179	0.338	0.249
-77.567	-59.974	-0.410	0.172
-76.553	460.466	0.153	-0.335
-75.538	-168.589	0.077	0.003
-74.524	-200.000	0.037	0.311
-73.509	-120.262	-0.133	0.022
-72.494	93.304	0.079	0.087
-71.480	-24.283	0.377	0.221
-70.465	312.171	0.074	-0.137
-69.451	782.154	-0.038	0.101
-68.436	-200.000	0.021	-0.229
-67.422	800.000	0.017	0.064
-66.407	-155.725	-0.113	0.007
-65.392	-195.733	0.197	0.001
-64.378	84.398	0.100	0.107
-63.363	-41.090	-0.151	0.077
-62.349	7.388	0.215	0.158
-61.334	44.072	-1.199	-1.080
-60.319	11.843	0.498	0.376
-59.305	631.834	-0.393	-0.978
-58.290	227.068	0.712	1.136
-57.276	800.000	0.482	1.581
-56.261	-200.000	99.086	583.658
-55.246	552.407	1426.845	3367.282
-54.232	185.385	2632.367	3839.614
-53.217	115.717	2191.977	2633.657
-52.203	41.398	1717.454	1526.343
-51.188	33.584	1525.004	1301.865
-50.173	31.144	1498.190	1262.444
-49.159	51.424	1549.344	1445.526
-48.144	52.370	1566.927	1468.384
-47.130	33.788	1525.879	1303.811
-46.115	30.682	1510.844	1269.747
-45.100	30.519	1507.353	1265.654
-44.086	30.426	1505.621	1263.516
-43.071	30.432	1503.112	1261.403
-42.057	30.415	1501.358	1259.768
-41.042	30.336	1500.639	1258.574
-40.027	30.392	1498.679	1257.261
-39.013	30.323	1497.563	1255.806
-37.998	30.302	1496.142	1254.429
-36.984	30.360	1494.601	1253.477
-35.969	30.356	1493.298	1252.310
-34.954	30.379	1491.993	1251.319
-33.940	30.388	1490.724	1250.265
-32.925	30.409	1488.963	1248.881
-31.911	30.415	1488.244	1248.265
-30.896	30.472	1486.589	1247.214
-29.881	30.410	1485.577	1245.900
-28.867	30.450	1483.625	1244.479
-27.852	30.407	1482.929	1243.556
-26.838	30.465	1481.212	1242.459
-25.823	30.420	1479.921	1241.020
-24.809	30.506	1478.009	1239.942
-23.794	30.501	1477.151	1239.140
-22.779	30.546	1475.064	1237.642
-21.765	30.415	1474.660	1236.384
-20.750	30.427	1473.477	1235.421
-19.736	30.483	1472.463	1234.893
-18.721	30.470	1471.154	1233.663
-17.706	30.325	1470.163	1231.816
-16.692	30.280	1469.163	1230.633
-15.677	30.434	1468.065	1230.686
-14.663	30.305	1467.293	1229.138
-13.648	30.390	1466.126	1228.668
-12.633	30.383	1465.511	1228.058
-11.619	30.417	1464.785	1227.630
-10.604	30.339	1463.353	1225.867
-9.590	30.319	1462.813	1225.232
-8.575	30.389	1461.923	1224.898
-7.560	30.364	1460.838	1223.776
-6.546	30.342	1459.884	1222.785
-5.531	30.328	1459.412	1222.250
-4.517	30.341	1457.763	1220.906
-3.502	30.340	1456.873	1220.106
-2.487	30.426	1455.616	1219.563
-1.473	30.252	1455.472	1218.252
-0.458	30.390	1453.359	1217.342
0.556	30.786	1445.400	1208.905
1.571	28.711	1421.138	1175.242
2.586	25.858	1361.899	1108.629
3.600	24.473	1280.209	1034.023
4.615	22.904	1234.313	988.092
5.629	19.086	1177.015	921.735
6.644	10.878	1092.050	814.176
7.659	4.755	1051.953	754.600
8.673	3.798	1046.906	746.290
9.688	3.742	1044.191	744.024
10.702	3.760	1042.497	742.836
11.717	3.780	1040.895	741.723
12.731	5.972	1043.132	753.787
13.746	14.044	1054.030	800.617
14.761	19.547	1060.746	832.244
15.775	19.776	1059.984	832.676
16.790	19.055	1057.963	827.547
17.804	18.089	1056.142	821.410
18.819	17.058	1054.525	815.135
19.834	16.781	1052.443	812.125
20.848	16.344	1052.549	810.040
21.863	16.247	1051.162	808.436
22.877	15.946	1050.640	806.520
23.892	16.030	1049.401	805.898
24.907	15.924	1048.646	804.743
25.921	15.768	1048.581	803.873
26.936	15.800	1047.395	803.050
27.950	15.911	1046.543	802.852
28.965	15.870	1045.991	802.163
29.980	15.923	1044.471	801.179
30.994	16.093	1043.047	800.823
32.009	16.314	1041.710	800.774
33.023	16.090	1041.906	799.791
34.038	16.153	1040.926	799.266
35.053	16.113	1039.696	798.060
36.067	16.063	1038.632	796.937
37.082	15.893	1038.119	795.672
38.096	15.967	1037.598	795.549
39.111	16.075	1036.819	795.392
40.126	16.114	1035.946	794.836
41.140	15.947	1034.763	793.073
42.155	15.755	1033.817	791.372
43.169	15.632	1033.107	790.180
44.184	15.685	1031.138	788.852
45.199	15.727	1029.849	787.996
46.213	15.549	1029.528	786.845
47.228	15.633	1028.494	786.381
48.242	15.850	1027.601	786.641
49.257	15.798	1027.525	786.272
50.271	15.973	1025.795	785.691
51.286	16.031	1024.948	785.244
52.301	15.950	1024.704	784.610
53.315	15.932	1023.404	783.462
54.330	15.869	1022.422	782.349
55.344	15.824	1021.675	781.499
56.359	15.728	1021.076	780.525
57.374	15.745	1019.865	779.613
58.388	15.697	1019.017	778.671
59.403	15.641	1018.109	777.651
60.417	15.699	1017.245	777.188
61.432	15.540	1016.977	776.182
62.447	15.590	1016.276	775.806
63.461	15.597	1015.186	774.938
64.476	15.394	1014.451	773.375
65.490	15.489	1013.755	773.214
66.505	15.541	1012.847	772.692
67.520	15.518	1011.904	771.799
68.534	15.649	1010.909	771.571
69.549	15.489	1010.383	770.368
70.563	15.470	1009.572	769.595
71.578	15.479	1009.082	769.193
72.593	15.387	1008.274	768.089
73.607	15.478	1006.763	767.287
74.622	15.448	1005.779	766.332
75.636	15.454	1005.276	765.909
76.651	15.529	1004.593	765.663
77.666	15.408	1003.931	764.537
78.680	15.527	1002.874	764.206
79.695	15.409	1002.549	763.354
80.709	15.512	1002.172	763.467
81.724	15.517	1001.294	762.754
82.739	15.651	1000.172	762.442
83.753	15.808	999.381	762.482
84.768	15.777	998.994	761.978
85.782	16.007	998.140	762.300
86.797	16.090	997.516	762.129
87.812	16.109	996.781	761.590
88.826	16.051	995.850	760.548
89.841	15.907	994.875	759.087
90.855	16.060	993.938	758.994
91.870	16.050	993.302	758.395
92.884	16.099	992.761	758.138
93.899	16.204	991.977	757.939
94.914	16.129	990.995	756.787
95.928	16.132	990.512	756.365
96.943	16.280	989.650	756.301
97.957	16.200	988.925	755.322
98.972	16.036	988.325	754.063
99.987	15.987	987.724	753.319
101.001	16.102	986.993	753.211
102.016	15.959	986.546	752.164
103.030	15.971	985.301	751.203
104.045	16.057	984.149	750.639
105.060	16.036	983.367	749.884
106.074	16.045	982.003	748.818
107.089	15.852	981.427	747.455
108.103	15.715	980.796	746.299
109.118	15.610	979.344	744.664
110.133	15.539	978.563	743.691
111.147	15.441	977.856	742.655
112.162	15.631	976.627	742.495
113.176	15.573	976.100	741.772
114.191	15.667	975.265	741.486
115.206	15.676	974.399	740.802
116.220	15.696	973.756	740.337
117.235	15.742	972.773	739.726
118.249	15.700	972.187	739.030
119.264	15.615	971.110	737.773
120.279	15.684	969.946	737.123
121.293	15.593	969.748	736.511
122.308	15.632	968.531	735.691
123.322	15.487	968.029	734.611
124.337	15.503	966.902	733.759
125.352	15.467	965.815	732.715
126.366	15.622	964.576	732.385
127.381	15.484	963.683	731.039
128.395	15.584	962.574	730.571
129.410	15.436	961.742	729.231
130.424	15.582	960.885	729.150
131.439	15.550	960.043	728.308
132.454	15.774	959.286	728.638
133.468	15.711	958.700	727.858
134.483	15.671	958.119	727.178
135.497	15.736	957.287	726.762
136.512	15.769	956.659	726.366
137.527	15.749	955.886	725.627
138.541	15.739	954.976	724.830
139.556	15.728	954.683	724.495
140.570	15.806	953.187	723.634
141.585	15.756	953.026	723.231
142.600	15.839	952.732	723.300
143.614	16.120	951.234	723.303
144.629	16.069	950.944	722.801
145.643	16.128	950.629	722.751
146.658	15.947	949.711	721.214
147.673	16.014	948.275	720.345
148.687	15.958	947.352	719.341
149.702	15.745	946.903	718.026
150.716	15.783	945.740	717.244
151.731	15.689	945.126	716.315
152.746	15.745	944.172	715.766
153.760	15.777	943.464	715.301
154.775	15.886	942.291	714.811
155.789	15.956	942.053	714.865
156.804	15.950	941.384	714.271
157.819	15.934	940.822	713.714
158.833	15.921	940.386	713.263
159.848	16.209	939.041	713.397
160.862	16.051	938.949	712.596
161.877	16.168	937.858	712.199
162.892	16.126	936.806	711.160
163.906	15.923	935.765	709.454
164.921	15.804	934.936	708.262
165.935	15.818	934.305	707.780
166.950	15.762	933.415	706.809
167.964	15.960	932.792	707.102
168.979	15.987	931.645	706.284
169.994	15.860	930.578	704.881
171.008	15.976	929.250	704.297
172.023	15.954	928.823	703.823
173.037	16.114	928.060	703.847
174.052	16.208	927.343	703.633
175.067	16.123	926.784	702.794
176.081	15.902	926.147	701.326
177.096	15.958	924.874	700.534
178.110	15.941	924.280	699.950
179.125	15.950	923.973	699.695
180.140	16.006	923.074	699.184
181.154	15.967	922.380	698.435
182.169	16.090	921.740	698.401
183.183	16.127	921.284	698.144
184.198	16.291	919.952	697.752
185.213	16.295	919.898	697.667
186.227	16.230	919.399	696.958
187.242	16.413	918.602	697.047
188.256	16.407	917.814	696.363
189.271	16.310	917.425	695.604
190.286	16.395	916.811	695.426
191.300	16.306	915.799	694.235
192.315	15.879	915.126	691.909
193.329	15.854	914.196	691.038
194.344	15.845	913.440	690.371
195.359	15.918	913.099	690.350
196.373	16.145	912.646	690.876
197.388	16.119	912.106	690.300
198.402	16.472	911.397	691.147
199.417	16.308	911.733	690.668
200.432	16.531	910.803	690.815
201.446	16.500	910.288	690.236
202.461	16.636	909.884	690.424
203.475	16.690	909.472	690.271
204.490	16.611	908.849	689.416
205.504	16.627	907.566	688.446
206.519	16.485	906.791	687.221
207.534	16.491	906.133	686.684
208.548	16.452	905.282	685.820
209.563	16.348	904.791	684.965
210.577	16.420	904.402	684.905
211.592	16.514	903.313	684.398
212.607	16.506	903.086	684.135
213.621	16.649	902.704	684.360
214.636	16.652	902.294	684.003
215.650	16.399	901.968	682.674
216.665	16.586	900.776	682.462
217.680	16.567	900.296	681.963
218.694	16.805	900.057	682.680
219.709	16.788	899.105	681.831
220.723	16.742	898.864	681.403
221.738	16.776	897.890	680.740
222.753	16.778	897.177	680.146
223.767	16.654	896.620	679.168
224.782	16.790	895.886	679.097
225.796	16.876	895.005	678.715
226.811	16.885	894.678	678.443
227.826	16.823	893.653	677.357
228.840	16.776	892.741	676.418
229.855	16.956	891.585	676.198
230.869	16.741	891.682	675.356
231.884	16.692	890.849	674.470
232.899	16.771	890.103	674.159
233.913	16.611	889.551	673.047
234.928	16.700	888.883	672.833
235.942	16.555	888.387	671.823
236.957	16.667	887.225	671.330
237.972	16.683	886.681	670.921
238.986	16.686	885.876	670.264
240.001	16.636	885.718	669.890
241.015	16.686	885.121	669.576
242.030	16.590	884.471	668.647
243.045	16.853	883.535	668.918
244.059	16.863	883.033	668.518
245.074	16.861	882.461	668.016
246.088	16.811	881.733	667.209
247.103	16.960	881.620	667.652
248.117	17.012	880.865	667.226
249.132	16.964	880.370	666.603
250.147	17.214	879.588	666.933
251.161	17.246	879.480	666.916
252.176	17.490	878.289	666.913
253.190	17.423	877.985	666.360
254.205	17.478	877.662	666.272
255.220	17.732	876.680	666.460
256.234	17.480	876.353	665.166
257.249	17.546	875.460	664.686
258.263	17.475	875.042	664.035
259.278	17.527	874.440	663.720
260.293	17.368	874.064	662.759
261.307	17.665	872.909	662.980
262.322	17.588	872.907	662.620
263.336	17.692	872.349	662.543
264.351	17.656	871.535	661.723
265.366	17.549	870.920	660.782
266.380	17.650	870.337	660.674
267.395	17.641	869.615	660.034
268.409	17.671	868.776	659.454
269.424	17.546	868.202	658.477
270.439	17.561	867.431	657.892
271.453	17.502	866.712	657.063
272.468	17.554	866.148	656.776
273.482	17.496	865.325	655.869
274.497	17.529	864.797	655.538
275.512	17.426	864.003	654.485
276.526	17.363	863.408	653.731
277.541	17.500	862.649	653.625
278.555	17.575	862.151	653.479
279.570	17.660	861.593	653.322
280.585	17.744	861.148	653.250
281.599	17.796	860.658	653.020
282.614	17.680	860.145	652.130
283.628	17.670	859.343	651.424
284.643	17.584	858.688	650.543
285.657	17.699	858.003	650.405
286.672	17.704	858.051	650.403
287.687	17.764	857.212	649.938
288.701	17.784	856.914	649.729
289.716	17.747	856.523	649.234
290.730	17.722	855.934	648.636
291.745	17.837	855.167	648.435
292.760	17.778	854.427	647.594
293.774	17.735	853.831	646.921
294.789	17.895	853.851	647.487
295.803	17.940	852.745	646.759
296.818	17.907	851.833	645.888
297.833	17.726	851.321	644.756
298.847	17.873	850.358	644.524
299.862	17.857	849.955	644.103
300.876	17.837	849.610	643.710
301.891	17.934	848.531	643.198
302.906	17.992	848.200	643.111
303.920	18.169	847.857	643.457
304.935	18.170	846.931	642.704
305.949	18.304	846.437	642.775
306.964	18.322	845.982	642.438
307.979	17.990	845.362	640.666
308.993	18.238	844.354	640.775
310.008	18.071	844.392	640.120
311.022	18.223	843.854	640.225
312.037	18.246	843.576	640.042
313.052	18.057	842.953	638.810
314.066	18.164	841.860	638.324
315.081	17.980	841.581	637.368
316.095	18.036	840.717	636.866
317.110	17.910	840.357	636.070
318.125	17.999	839.865	635.973
319.139	18.076	839.000	635.547
320.154	17.967	838.974	635.063
321.168	18.077	838.377	634.965
322.183	17.991	838.007	634.309
323.197	18.109	836.910	633.862
324.212	18.264	836.255	633.881
325.227	18.204	836.043	633.446
326.241	18.242	835.530	633.138
327.256	18.232	834.878	632.554
328.270	18.088	834.394	631.597
329.285	18.239	833.631	631.521
330.300	18.120	833.130	630.648
331.314	18.183	832.672	630.477
332.329	18.139	832.043	629.784
333.343	18.199	831.438	629.489
334.358	18.323	830.811	629.416
335.373	18.358	830.744	629.439
336.387	18.393	829.947	628.907
337.402	18.345	829.625	628.433
338.416	18.453	828.956	628.265
339.431	18.491	828.145	627.733
340.446	18.727	827.840	628.308
341.460	18.608	827.734	627.738
342.475	18.745	826.710	627.410
343.489	18.812	826.122	627.151
344.504	18.760	825.780	626.644
345.519	18.645	825.543	625.991
346.533	18.790	824.742	625.856
347.548	18.617	824.504	624.991
348.562	18.655	823.736	624.492
349.577	18.458	823.296	623.387
350.592	18.427	822.397	622.539
351.606	18.520	821.964	622.494
352.621	18.465	821.582	621.949
353.635	18.573	821.091	621.913
354.650	18.535	820.876	621.556
355.665	18.646	820.246	621.429
356.679	18.518	819.937	620.674
357.694	18.773	819.280	621.045
358.708	18.659	818.955	620.330
359.723	18.724	818.188	619.929
360.738	18.610	817.451	618.907
361.752	18.729	817.399	619.243
362.767	18.720	816.894	618.771
363.781	18.735	817.032	618.875
364.796	18.826	816.255	618.558
365.810	18.876	815.894	618.410
366.825	18.947	815.385	618.227
367.840	19.130	815.034	618.562
368.854	19.020	814.772	617.914
369.869	19.093	814.146	617.647
370.883	18.996	813.396	616.673
371.898	18.916	813.086	616.099
372.913	19.094	812.173	615.991
373.927	19.170	811.592	615.767
374.942	19.023	810.941	614.691
375.956	19.010	810.433	614.205
376.971	19.184	809.633	614.167
377.986	19.308	809.476	614.434
379.000	19.354	808.576	613.860
380.015	19.241	808.602	613.424
381.029	19.339	807.843	613.143
382.044	19.250	807.647	612.625
383.059	19.254	807.154	612.209
384.073	19.204	806.804	611.714
385.088	19.450	805.448	611.502
386.102	19.245	805.272	610.589
387.117	19.181	804.452	609.687
388.132	19.186	803.950	609.267
389.146	19.153	803.262	608.577
390.161	19.136	803.224	608.434
391.175	19.178	802.929	608.305
392.190	19.380	802.365	608.536
393.205	19.242	802.351	607.986
394.219	19.215	801.662	607.316
395.234	19.137	801.198	606.635
396.248	19.165	800.670	606.279
397.263	19.039	800.309	605.508
398.278	19.183	799.627	605.446
399.292	19.118	798.944	604.647
400.307	19.070	798.713	604.251
401.321	19.137	798.152	604.007
402.336	19.092	798.149	603.792
403.350	19.247	797.523	603.810
404.365	19.341	796.812	603.546
405.380	19.254	796.968	603.306
406.394	19.380	796.515	603.350
407.409	19.571	795.729	603.371
408.423	19.572	795.365	603.043
409.438	19.531	795.224	602.740
410.453	19.563	794.770	602.456
411.467	19.770	793.977	602.524
412.482	19.721	793.544	601.970
413.496	19.924	793.152	602.327
414.511	19.674	793.097	601.363
415.526	19.889	792.466	601.575
416.540	19.739	792.288	600.868
417.555	19.683	791.943	600.359
418.569	19.746	791.302	600.036
419.584	19.668	790.963	599.457
420.599	19.615	790.643	598.976
421.613	159.045	1369.543	1792.423
422.628	137.705	1453.910	1792.524
