DTS Sentinel unit serial number:	SN413079Multiplexer serial number:	ORYXHardware model number:	OX4-SRSoftware version number:	ORYX F/W v4.00 Oryx Data Collector v3.7.2.0data status	okinstallation	princeton_trtdifferential loss correction	single-endedforward channel	channel 3reverse channel	N/Adate	2019/09/13time	09:08:35forward acquisition time	60.00reverse acquisition time	0.00gamma	496.2192k internal	0.2327k external	0.2327temperature offset calibration	1.0139default loss term (dB/km)	0.3790temperature slope calibration	1.0000multiplexer offset coefficient	1.0000multiplexer slope coefficient	1.0000fibre end	0.00T internal ref (°C)	28.73T ext. ref 1 (°C)	4.39T ext. ref 2 (°C)	26.17length (m)	temperature (°C)	Stokes	anti-Stokes-747.200	136.861	-0.054	-0.071
-746.185	-21.886	-0.196	-0.120
-745.171	352.248	-0.133	-0.265
-744.156	-200.000	-0.022	-0.153
-743.142	223.146	-0.174	-0.283
-742.127	-30.290	-0.261	0.150
-741.112	800.000	0.017	-0.063
-740.098	-21.490	-0.181	-0.111
-739.083	376.456	0.092	0.189
-738.069	-200.000	0.004	0.298
-737.054	262.709	-0.220	-0.385
-736.039	174.419	-0.134	-0.196
-735.025	-5.841	0.448	0.309
-734.010	355.894	-0.091	-0.182
-732.996	43.319	0.132	-0.122
-731.981	-200.000	-0.045	-0.267
-730.966	9.022	0.240	0.182
-729.952	-52.309	0.042	-0.020
-728.937	251.164	0.190	-0.326
-727.923	-200.000	0.005	0.481
-726.908	95.874	-0.206	-0.237
-725.894	21.464	-0.153	-0.125
-724.879	-73.032	-0.291	0.108
-723.864	-70.334	0.116	-0.044
-722.850	-183.823	0.082	0.001
-721.835	-200.000	0.009	-0.121
-720.821	800.000	-0.016	0.059
-719.806	-80.281	-0.060	-0.020
-718.791	-200.000	0.004	0.303
-717.777	19.265	0.195	-0.158
-716.762	-108.487	-0.314	-0.068
-715.748	-20.532	0.275	-0.170
-714.733	173.390	-0.215	0.312
-713.718	-145.586	-0.206	0.019
-712.704	87.843	0.183	0.204
-711.689	-200.000	-0.023	-0.156
-710.675	-200.000	0.045	-0.261
-709.660	-149.560	0.145	-0.012
-708.645	132.228	0.116	-0.150
-707.631	-49.173	0.312	-0.150
-706.616	-33.107	0.193	0.108
-705.602	17.827	-0.369	-0.296
-704.587	77.012	0.073	0.078
-703.572	-72.755	0.228	0.085
-702.558	-9.704	-0.294	-0.197
-701.543	338.089	0.182	0.356
-700.529	45.085	0.210	0.195
-699.514	-7.757	-0.267	-0.182
-698.499	249.553	-0.009	0.015
-697.485	-200.000	0.010	-0.073
-696.470	-200.000	0.020	-0.139
-695.456	800.000	0.038	0.127
-694.441	25.972	0.044	0.037
-693.426	-53.663	-0.170	0.078
-692.412	115.771	0.123	-0.152
-691.397	-200.000	0.035	-0.551
-690.383	-36.652	0.130	0.070
-689.368	200.324	-0.175	0.271
-688.354	-40.185	-0.061	-0.032
-687.339	-200.000	-0.013	0.376
-686.324	-200.000	-0.029	-0.180
-685.310	800.000	-0.088	0.335
-684.295	-45.220	0.060	-0.030
-683.281	557.384	-0.078	0.188
-682.266	-141.999	0.087	-0.009
-681.251	144.292	0.193	0.259
-680.237	800.000	0.088	0.248
-679.222	-156.883	0.146	-0.009
-678.208	-49.787	-0.200	0.095
-677.193	351.387	-0.016	-0.032
-676.178	52.586	-0.202	-0.194
-675.164	-139.131	0.159	-0.017
-674.149	-63.969	-0.186	-0.076
-673.135	-200.000	0.009	0.102
-672.120	66.639	0.178	-0.182
-671.105	252.551	0.067	-0.115
-670.091	-34.620	0.112	-0.062
-669.076	800.000	-0.032	-0.111
-668.062	664.745	-0.040	0.103
-667.047	-106.553	-0.368	-0.083
-666.032	-200.000	-0.020	-0.191
-665.018	413.029	-0.057	-0.123
-664.003	249.538	0.080	-0.136
-662.989	-160.632	0.137	0.007
-661.974	-165.949	0.115	0.005
-660.959	-36.439	-0.082	0.045
-659.945	144.104	0.138	-0.185
-658.930	-51.493	0.376	0.177
-657.916	-127.799	-0.315	0.046
-656.901	-174.440	-0.248	0.007
-655.886	800.000	0.095	-0.309
-654.872	-153.717	0.121	0.008
-653.857	36.372	-0.174	0.155
-652.843	-156.183	0.380	0.024
-651.828	-186.892	-0.133	-0.002
-650.814	800.000	-0.100	-0.306
-649.799	-200.000	0.022	-0.324
-648.784	-149.329	0.206	0.017
-647.770	142.071	-0.154	-0.206
-646.755	14.867	0.171	-0.135
-645.741	-78.345	-0.166	0.057
-644.726	21.924	-0.147	0.120
-643.711	41.101	-0.119	0.108
-642.697	300.297	-0.115	-0.214
-641.682	-79.000	-0.154	0.053
-640.668	-200.000	0.014	0.145
-639.653	800.000	-0.025	-0.077
-638.638	-177.813	0.281	-0.007
-637.624	-87.435	-0.224	0.068
-636.609	-200.000	-0.009	-0.507
-635.595	-16.986	0.111	-0.070
-634.580	61.007	0.140	-0.140
-633.565	-200.000	-0.037	-0.211
-632.551	-126.552	0.277	-0.041
-631.536	800.000	-0.052	0.224
-630.522	-139.773	0.229	0.024
-629.507	-28.352	-0.225	0.130
-628.492	-24.275	0.333	0.200
-627.478	197.932	-0.089	-0.136
-626.463	-83.594	-0.297	0.095
-625.449	-49.560	-0.267	-0.127
-624.434	800.000	-0.023	-0.085
-623.419	-9.038	-0.024	-0.016
-622.405	-156.234	0.145	-0.009
-621.390	12.095	0.300	-0.232
-620.376	-55.599	-0.220	0.099
-619.361	483.711	-0.117	-0.268
-618.346	800.000	-0.041	0.139
-617.332	229.455	0.093	-0.152
-616.317	-53.186	-0.296	-0.136
-615.303	-97.267	0.348	0.091
-614.288	-200.000	0.140	0.623
-613.273	-77.192	-0.280	0.098
-612.259	-72.844	0.034	0.013
-611.244	800.000	-0.071	-0.263
-610.230	800.000	-0.013	0.040
-609.215	128.326	0.096	0.123
-608.201	-200.000	0.088	-0.433
-607.186	-200.000	0.029	-0.161
-606.171	800.000	-0.131	-0.410
-605.157	6.020	-0.275	0.204
-604.142	-200.000	0.024	-0.204
-603.128	-73.742	0.110	-0.040
-602.113	-200.000	-0.006	0.107
-601.098	800.000	0.050	-0.158
-600.084	800.000	-0.113	-0.349
-599.069	99.766	0.102	-0.119
-598.055	110.435	0.172	0.208
-597.040	-200.000	-0.167	-0.001
-596.025	104.457	0.095	-0.112
-595.011	513.097	0.107	-0.250
-593.996	-59.662	0.213	0.091
-592.982	-200.000	-0.049	0.252
-591.967	-120.127	-0.219	0.038
-590.952	-110.750	0.128	-0.026
-589.938	6.365	-0.263	0.196
-588.923	79.488	-0.223	-0.240
-587.909	18.843	0.274	-0.220
-586.894	-5.923	-0.356	-0.244
-585.879	-47.700	0.284	-0.138
-584.865	-114.822	0.185	0.035
-583.850	-200.000	-0.012	-0.221
-582.836	27.012	-0.169	0.142
-581.821	-200.000	0.043	-0.493
-580.806	800.000	-0.046	-0.169
-579.792	-200.000	0.029	-0.187
-578.777	186.318	-0.102	0.152
-577.763	-22.372	-0.118	0.072
-576.748	-200.000	0.012	-0.103
-575.733	44.531	0.160	0.147
-574.719	800.000	0.110	0.383
-573.704	307.158	0.154	-0.286
-572.690	-78.787	0.217	-0.074
-571.675	292.937	0.140	0.256
-570.661	-74.929	0.163	-0.058
-569.646	-42.137	0.156	0.080
-568.631	-58.115	0.358	0.156
-567.617	-136.077	-0.215	-0.025
-566.602	570.936	0.098	-0.238
-565.588	162.245	0.073	-0.102
-564.573	520.020	-0.037	0.088
-563.558	-33.353	0.263	-0.146
-562.544	800.000	0.057	-0.225
-561.529	-200.000	-0.001	0.061
-560.515	-200.000	0.033	0.310
-559.500	682.700	-0.062	-0.161
-558.485	800.000	0.088	0.356
-557.471	109.896	-0.150	0.181
-556.456	71.977	-0.064	-0.067
-555.442	340.234	0.028	0.055
-554.427	-17.165	0.262	0.165
-553.412	-200.000	-0.005	0.315
-552.398	1.078	-0.162	-0.117
-551.383	78.382	0.025	-0.027
-550.369	-88.472	0.338	-0.101
-549.354	-200.000	-0.018	-0.090
-548.339	-22.290	-0.018	-0.011
-547.325	-200.000	-0.011	-0.195
-546.310	-57.694	-0.158	-0.069
-545.296	-170.505	-0.373	-0.013
-544.281	-106.190	-0.253	0.057
-543.266	286.605	0.152	-0.275
-542.252	-11.130	0.036	-0.024
-541.237	49.323	-0.207	0.194
-540.223	-200.000	-0.036	0.190
-539.208	-73.241	0.046	0.017
-538.193	-128.650	-0.178	0.025
-537.179	-98.065	-0.118	-0.030
-536.164	22.684	-0.047	0.038
-535.150	800.000	0.020	0.084
-534.135	-25.432	-0.186	0.110
-533.121	-98.163	-0.143	0.037
-532.106	-78.417	-0.120	0.041
-531.091	117.463	-0.154	-0.189
-530.077	800.000	0.004	0.016
-529.062	67.670	-0.282	-0.288
-528.048	368.767	-0.083	-0.168
-527.033	-152.790	0.121	-0.009
-526.018	800.000	-0.148	-0.428
-525.004	800.000	0.075	-0.218
-523.989	-121.593	-0.116	-0.019
-522.975	-200.000	-0.015	0.138
-521.960	23.028	0.327	-0.268
-520.945	46.413	-0.199	-0.185
-519.931	-68.960	-0.279	0.108
-518.916	-48.400	-0.225	-0.108
-517.902	246.179	0.100	0.168
-516.887	-74.926	0.250	0.089
-515.872	415.839	-0.100	0.213
-514.858	-129.328	-0.325	0.045
-513.843	-200.000	-0.010	0.047
-512.829	800.000	0.082	-0.281
-511.814	800.000	-0.049	-0.166
-510.799	800.000	-0.043	0.141
-509.785	133.862	0.087	-0.112
-508.770	800.000	0.044	0.151
-507.756	-52.843	0.131	-0.060
-506.741	-89.087	-0.267	0.079
-505.726	-127.066	-0.095	0.014
-504.712	-200.000	0.009	-0.319
-503.697	800.000	-0.095	0.397
-502.683	-200.000	0.040	-0.215
-501.668	574.821	0.070	-0.170
-500.653	-200.000	-0.011	0.148
-499.639	-65.189	0.273	-0.110
-498.624	800.000	-0.094	0.372
-497.610	140.150	0.080	0.105
-496.595	318.566	-0.082	-0.155
-495.581	-91.427	-0.311	-0.089
-494.566	-120.182	-0.120	-0.020
-493.551	297.186	0.110	-0.202
-492.537	-142.673	0.140	0.014
-491.522	-90.529	-0.122	-0.035
-490.508	-200.000	0.050	-0.350
-489.493	239.965	0.115	0.192
-488.478	-165.364	-0.185	-0.008
-487.464	317.786	0.060	0.114
-486.449	100.124	-0.257	0.297
-485.435	239.390	0.113	-0.188
-484.420	-12.796	-0.065	-0.042
-483.405	157.251	-0.315	0.435
-482.391	-106.101	-0.342	-0.077
-481.376	112.261	0.225	-0.272
-480.362	-11.485	0.040	0.026
-479.347	-200.000	0.019	0.189
-478.332	-46.108	-0.011	0.005
-477.318	-23.433	0.060	-0.036
-476.303	-148.284	0.401	0.033
-475.289	68.175	-0.069	-0.070
-474.274	227.462	0.146	-0.236
-473.259	435.290	-0.143	-0.310
-472.245	-27.265	-0.019	-0.011
-471.230	-30.286	-0.079	0.045
-470.216	-200.000	-0.008	-0.050
-469.201	-66.969	-0.106	0.042
-468.186	-122.877	-0.196	0.031
-467.172	51.611	0.372	0.353
-466.157	124.621	-0.050	0.062
-465.143	800.000	0.041	0.149
-464.128	7.056	0.135	0.100
-463.113	68.870	-0.080	-0.082
-462.099	-200.000	0.007	-0.175
-461.084	800.000	0.054	-0.234
-460.070	-39.749	-0.058	0.030
-459.055	-102.149	-0.322	-0.077
-458.040	256.778	0.098	0.168
-457.026	-95.220	-0.319	0.086
-456.011	-200.000	0.003	-0.395
-454.997	-60.651	0.221	-0.094
-453.982	-89.469	-0.489	0.143
-452.968	800.000	-0.086	0.268
-451.953	612.456	0.151	-0.378
-450.938	-65.617	0.080	0.032
-449.924	360.353	-0.065	-0.129
-448.909	151.328	0.186	-0.253
-447.895	756.922	-0.089	-0.239
-446.880	-15.649	-0.039	-0.025
-445.865	211.889	0.196	-0.307
-444.851	14.597	0.270	-0.210
-443.836	120.144	0.099	0.123
-442.822	800.000	0.098	0.304
-441.807	-95.840	0.123	-0.033
-440.792	-200.000	-0.006	0.254
-439.778	-145.915	-0.125	0.011
-438.763	371.282	-0.073	-0.147
-437.749	800.000	0.074	0.250
-436.734	412.318	-0.083	0.176
-435.719	-200.000	-0.108	0.502
-434.705	45.637	0.259	0.238
-433.690	-33.722	-0.129	0.071
-432.676	89.583	-0.156	0.173
-431.661	-93.173	0.140	-0.039
-430.646	632.424	-0.062	-0.156
-429.632	410.345	-0.025	0.052
-428.617	800.000	0.084	0.245
-427.603	800.000	-0.053	-0.151
-426.588	31.115	-0.173	0.148
-425.573	800.000	-0.031	-0.134
-424.559	82.311	0.111	-0.120
-423.544	31.175	0.111	-0.095
-422.530	-200.000	-0.050	-0.403
-421.515	-16.909	0.274	-0.172
-420.500	-78.623	0.038	-0.013
-419.486	-22.583	0.060	-0.036
-418.471	-98.543	0.348	-0.089
-417.457	96.862	0.075	-0.086
-416.442	-55.686	-0.151	-0.067
-415.428	-47.383	0.084	-0.040
-414.413	-45.519	0.353	-0.174
-413.398	-87.959	-0.185	-0.055
-412.384	-69.091	-0.204	-0.078
-411.369	5.070	-0.188	0.138
-410.355	222.364	0.097	0.156
-409.340	-200.000	0.013	0.214
-408.325	-118.841	-0.445	0.078
-407.311	-7.922	-0.329	0.221
-406.296	172.967	0.039	-0.056
-405.282	18.435	0.201	-0.160
-404.267	31.645	0.401	0.343
-403.252	163.895	0.127	-0.178
-402.238	265.499	0.042	0.073
-401.223	-49.597	0.246	-0.117
-400.209	-200.000	0.004	-0.063
-399.194	59.861	0.273	0.269
-398.179	212.018	-0.039	0.061
-397.165	131.882	0.088	-0.112
-396.150	34.592	0.096	-0.083
-395.136	-89.358	0.212	0.062
-394.121	60.552	0.048	-0.047
-393.106	-3.407	-0.147	0.102
-392.092	-156.573	0.203	0.013
-391.077	-77.722	-0.374	0.128
-390.063	800.000	0.118	-0.335
-389.048	-22.656	-0.059	-0.036
-388.033	-200.000	-0.005	-0.508
-387.019	12.218	0.145	0.111
-386.004	-129.158	0.160	-0.022
-384.990	-200.000	0.037	0.186
-383.975	29.818	0.301	0.255
-382.960	226.818	-0.098	-0.158
-381.946	644.884	-0.105	-0.266
-380.931	-105.183	0.031	-0.007
-379.917	144.568	0.306	-0.406
-378.902	-116.862	0.171	-0.031
-377.888	-200.000	0.006	0.122
-376.873	224.122	0.282	-0.453
-375.858	-200.000	-0.017	0.350
-374.844	161.894	-0.225	0.313
-373.829	-200.000	-0.047	0.337
-372.815	-123.761	0.169	-0.027
-371.800	800.000	-0.066	-0.236
-370.785	-34.715	-0.253	0.138
-369.771	-120.740	-0.316	-0.053
-368.756	4.569	0.100	0.073
-367.742	-200.000	-0.001	-0.100
-366.727	-140.688	-0.285	0.029
-365.712	128.906	0.102	0.130
-364.698	-200.000	-0.019	-0.144
-363.683	-129.080	0.312	-0.043
-362.669	-200.000	-0.054	0.332
-361.654	312.794	0.096	0.178
-360.639	85.277	0.149	-0.163
-359.625	800.000	-0.107	0.430
-358.610	203.005	-0.132	0.203
-357.596	-200.000	0.018	-0.212
-356.581	221.526	-0.121	-0.194
-355.566	193.034	-0.191	0.286
-354.552	-200.000	-0.001	0.090
-353.537	-200.000	-0.104	-0.489
-352.523	-13.511	0.278	0.179
-351.508	800.000	0.016	0.067
-350.493	-200.000	-0.036	-0.271
-349.479	-108.118	0.178	-0.038
-348.464	43.984	-0.151	0.137
-347.450	76.282	0.104	0.110
-346.435	290.650	0.071	0.128
-345.420	-49.664	-0.213	0.100
-344.406	800.000	0.099	0.306
-343.391	-83.952	0.306	-0.096
-342.377	236.444	-0.127	0.209
-341.362	-85.119	0.035	0.011
-340.348	-54.661	-0.122	-0.055
-339.333	-153.739	0.034	-0.002
-338.318	729.927	0.032	-0.085
-337.304	-138.488	-0.073	0.008
-336.289	60.973	0.043	-0.042
-335.275	-200.000	0.019	-0.242
-334.260	-125.117	-0.250	0.038
-333.245	758.425	-0.080	0.216
-332.231	-104.560	0.380	0.087
-331.216	318.025	-0.096	0.180
-330.202	19.242	0.132	0.105
-329.187	-200.000	0.092	0.501
-328.172	1.223	0.267	0.190
-327.158	800.000	-0.152	0.505
-326.143	-4.960	0.149	-0.102
-325.129	-60.618	0.238	-0.100
-324.114	-54.779	-0.158	0.071
-323.099	769.079	0.112	0.302
-322.085	-197.476	0.103	0.001
-321.070	-46.827	0.196	0.095
-320.056	-200.000	0.007	-0.098
-319.041	-100.441	-0.070	-0.017
-318.026	-50.908	-0.144	-0.067
-317.012	-200.000	0.110	0.485
-315.997	-21.015	-0.131	-0.079
-314.983	80.000	-0.282	-0.300
-313.968	-200.000	0.008	0.065
-312.953	222.362	-0.026	0.041
-311.939	74.158	0.046	-0.048
-310.924	34.906	0.122	0.106
-309.910	-176.456	-0.177	-0.005
-308.895	-141.079	0.052	0.005
-307.880	-44.755	-0.154	0.076
-306.866	-91.788	0.115	-0.032
-305.851	80.307	0.076	0.081
-304.837	-200.000	-0.010	0.159
-303.822	-47.546	-0.411	0.198
-302.807	-200.000	0.022	0.127
-301.793	241.798	0.091	0.151
-300.778	501.971	-0.146	0.334
-299.764	603.590	-0.134	-0.330
-298.749	-32.541	-0.294	-0.162
-297.735	53.557	0.238	-0.227
-296.720	-200.000	-0.005	-0.120
-295.705	172.410	-0.121	-0.173
-294.691	-170.342	-0.134	0.005
-293.676	-49.510	0.301	-0.142
-292.662	800.000	0.057	-0.237
-291.647	574.865	0.076	0.183
-290.632	-200.000	-0.020	0.165
-289.618	-29.694	0.096	-0.054
-288.603	21.677	-0.342	0.275
-287.589	-200.000	0.021	0.210
-286.574	-200.000	0.007	0.132
-285.559	800.000	-0.040	0.153
-284.545	800.000	-0.017	-0.071
-283.530	159.837	-0.155	0.214
-282.516	719.188	-0.130	0.341
-281.501	-200.000	0.019	-0.082
-280.486	800.000	-0.057	0.163
-279.472	-29.191	-0.201	-0.114
-278.457	20.982	-0.259	-0.208
-277.443	-104.175	0.191	-0.044
-276.428	101.424	-0.143	-0.165
-275.413	36.482	-0.280	0.244
-274.399	-63.899	0.298	-0.121
-273.384	-200.000	-0.053	0.250
-272.370	-118.888	0.166	0.029
-271.355	105.283	-0.058	0.068
-270.340	-7.256	-0.223	0.150
-269.326	218.386	0.062	0.098
-268.311	800.000	-0.031	0.101
-267.297	800.000	0.060	0.181
-266.282	98.556	0.271	0.310
-265.267	-102.248	0.408	0.097
-264.253	49.527	0.156	0.145
-263.238	800.000	-0.068	-0.216
-262.224	246.539	-0.072	-0.120
-261.209	158.990	-0.132	0.182
-260.195	277.666	0.169	-0.297
-259.180	242.641	-0.120	-0.199
-258.165	800.000	-0.090	0.302
-257.151	63.590	-0.130	-0.130
-256.136	800.000	-0.034	-0.111
-255.122	-80.465	0.121	0.040
-254.107	74.061	0.048	-0.049
-253.092	-4.382	0.156	0.107
-252.078	-68.841	0.282	0.108
-251.063	-56.959	0.298	-0.130
-250.049	-174.032	-0.330	-0.010
-249.034	592.254	-0.065	0.159
-248.019	184.281	-0.089	0.131
-247.005	38.216	0.030	-0.027
-245.990	157.443	0.214	-0.293
-244.976	-146.974	-0.175	0.015
-243.961	149.548	-0.077	-0.104
-242.946	800.000	-0.119	-0.346
-241.932	-139.830	0.157	-0.016
-240.917	16.971	-0.128	0.100
-239.903	74.857	-0.105	-0.110
-238.888	-200.000	-0.020	-0.233
-237.873	-15.297	0.382	0.241
-236.859	-84.290	-0.138	-0.043
-235.844	219.822	-0.034	-0.054
-234.830	-113.618	0.186	-0.036
-233.815	14.142	-0.044	-0.034
-232.800	-53.178	-0.101	0.046
-231.786	638.410	-0.097	-0.243
-230.771	-200.000	-0.002	0.194
-229.757	800.000	0.045	0.165
-228.742	800.000	0.037	-0.117
-227.727	-47.958	0.163	-0.078
-226.713	0.568	0.007	0.005
-225.698	-200.000	-0.006	-0.079
-224.684	3.928	0.077	-0.055
-223.669	-4.044	-0.148	0.101
-222.655	-11.065	-0.300	-0.195
-221.640	3.079	-0.152	0.109
-220.625	-80.513	-0.169	-0.056
-219.611	-178.876	-0.446	0.010
-218.596	-52.506	0.062	0.029
-217.582	98.135	0.116	0.132
-216.567	-84.188	0.368	0.115
-215.552	-200.000	0.003	-0.110
-214.538	-200.000	-0.016	0.275
-213.523	28.664	0.219	0.183
-212.509	133.246	0.071	-0.091
-211.494	-47.351	-0.097	-0.047
-210.479	-200.000	-0.018	0.148
-209.465	800.000	-0.031	0.089
-208.450	-200.000	-0.022	0.407
-207.436	380.653	-0.061	-0.124
-206.421	61.335	0.331	0.324
-205.406	-200.000	0.039	0.326
-204.392	73.212	-0.201	-0.207
-203.377	-84.910	-0.052	-0.016
-202.363	-105.278	0.096	0.022
-201.348	-200.000	0.056	-0.326
-200.333	800.000	-0.048	0.141
-199.319	329.807	0.206	-0.391
-198.304	800.000	-0.027	-0.080
-197.290	174.076	0.253	-0.360
-196.275	-135.740	0.228	-0.027
-195.260	175.310	-0.257	-0.367
-194.246	800.000	-0.023	0.063
-193.231	235.015	-0.174	0.283
-192.217	164.981	-0.205	0.286
-191.202	-11.412	-0.246	-0.160
-190.187	265.836	-0.080	0.137
-189.173	43.131	0.053	-0.048
-188.158	1.143	0.050	0.035
-187.144	-138.921	0.060	-0.006
-186.129	-200.000	-0.014	0.401
-185.114	-78.622	-0.279	0.094
-184.100	103.544	-0.149	0.173
-183.085	134.405	0.256	0.328
-182.071	68.952	-0.088	-0.089
-181.056	67.369	-0.139	-0.140
-180.042	-83.166	-0.128	0.041
-179.027	-16.681	0.081	0.050
-178.012	73.750	-0.240	0.248
-176.998	-110.900	-0.350	0.071
-175.983	-200.000	-0.007	-0.048
-174.969	-45.450	0.344	-0.168
-173.954	-48.568	0.122	0.058
-172.939	67.575	-0.106	-0.107
-171.925	201.666	0.132	0.201
-170.910	113.558	0.099	0.118
-169.896	-70.612	-0.117	0.043
-168.881	-105.977	-0.139	-0.031
-167.866	-180.906	0.106	0.002
-166.852	-49.052	0.085	-0.040
-165.837	-32.669	-0.369	0.202
-164.823	800.000	0.085	-0.231
-163.808	116.444	0.163	-0.197
-162.793	800.000	-0.059	-0.211
-161.779	-120.980	-0.062	-0.010
-160.764	330.387	0.055	-0.105
-159.750	-16.580	0.256	-0.160
-158.735	-200.000	0.066	-0.355
-157.720	-130.708	-0.161	0.021
-156.706	-85.438	0.385	0.118
-155.691	-78.887	0.172	-0.058
-154.677	14.556	-0.194	-0.149
-153.662	-40.271	0.197	0.101
-152.647	-200.000	0.011	0.322
-151.633	33.913	0.261	-0.224
-150.618	-200.000	0.014	0.383
-149.604	-48.102	0.254	0.121
-148.589	-200.000	0.003	0.116
-147.574	-32.964	0.232	-0.127
-146.560	-4.455	0.279	0.190
-145.545	800.000	-0.027	-0.079
-144.531	13.101	0.107	0.081
-143.516	-181.129	0.345	-0.007
-142.502	-200.000	-0.027	0.236
-141.487	-153.992	-0.224	0.015
-140.472	800.000	-0.029	0.121
-139.458	-75.427	0.050	0.018
-138.443	-97.487	0.109	0.028
-137.429	-180.250	-0.149	-0.003
-136.414	-29.442	-0.297	-0.167
-135.399	-200.000	-0.039	-0.353
-134.385	326.485	0.203	0.382
-133.370	-200.000	-0.015	0.249
-132.356	286.661	0.048	0.086
-131.341	5.535	0.133	-0.096
-130.326	105.385	0.112	0.130
-129.312	76.648	-0.255	0.266
-128.297	227.451	0.046	-0.074
-127.283	96.518	-0.143	-0.161
-126.268	235.505	-0.135	0.219
-125.253	-92.809	0.237	0.065
-124.239	-21.119	-0.120	-0.072
-123.224	-98.294	0.222	-0.056
-122.210	800.000	0.098	0.284
-121.195	377.177	0.073	0.147
-120.180	46.788	0.186	0.170
-119.166	-200.000	0.053	-0.235
-118.151	-200.000	0.019	-0.118
-117.137	-200.000	0.007	0.127
-116.122	19.012	-0.112	-0.088
-115.107	-200.000	-0.000	-0.056
-114.093	800.000	-0.045	0.169
-113.078	-4.394	-0.067	-0.046
-112.064	-5.316	0.410	-0.277
-111.049	85.692	-0.319	0.345
-110.034	319.266	-0.069	0.128
-109.020	-123.495	0.492	0.077
-108.005	-133.759	-0.290	0.036
-106.991	78.787	-0.262	-0.275
-105.976	273.751	0.103	-0.179
-104.962	-200.000	-0.432	-0.001
-103.947	128.601	0.087	0.110
-102.932	800.000	-0.051	0.220
-101.918	-80.447	0.132	0.043
-100.903	60.490	-0.154	0.150
-99.889	78.518	0.211	0.222
-98.874	-131.000	0.066	-0.009
-97.859	-63.001	0.337	0.137
-96.845	800.000	0.020	0.065
-95.830	631.190	-0.108	0.268
-94.816	181.899	0.096	0.138
-93.801	-1.992	0.182	-0.126
-92.786	800.000	0.094	-0.319
-91.772	-90.616	0.366	0.104
-90.757	-119.755	-0.099	-0.017
-89.743	524.812	0.200	-0.463
-88.728	-55.279	-0.040	-0.018
-87.713	800.000	-0.095	-0.291
-86.699	200.893	0.129	-0.194
-85.684	-94.907	0.335	-0.089
-84.670	-200.000	-0.022	0.261
-83.655	53.539	-0.042	0.039
-82.640	-200.000	-0.016	0.120
-81.626	-104.991	-0.101	0.023
-80.611	-200.000	0.000	0.121
-79.597	-200.000	0.007	0.072
-78.582	459.079	-0.128	-0.279
-77.567	-200.000	-0.065	0.342
-76.553	366.970	0.143	0.283
-75.538	85.129	0.119	-0.129
-74.524	-10.122	-0.071	-0.047
-73.509	-200.000	0.042	0.192
-72.494	-53.586	-0.127	0.057
-71.480	68.817	0.165	-0.166
-70.465	-102.425	0.464	0.109
-69.451	800.000	0.072	0.259
-68.436	-97.663	-0.127	0.032
-67.422	-25.182	0.120	-0.070
-66.407	-75.301	-0.146	-0.051
-65.392	106.070	-0.321	0.373
-64.378	229.163	-0.154	0.247
-63.363	-167.600	0.264	-0.010
-62.349	53.895	0.044	0.042
-61.334	36.749	-1.183	-1.026
-60.319	77.046	0.548	0.572
-59.305	411.874	-0.421	-0.877
-58.290	553.643	0.396	0.936
-57.276	-200.000	0.339	1.776
-56.261	-200.000	106.268	590.359
-55.246	496.629	1503.342	3393.061
-54.232	175.033	2702.857	3841.094
-53.217	108.050	2195.600	2568.481
-52.203	39.121	1717.876	1507.682
-51.188	31.725	1531.578	1293.292
-50.173	29.561	1504.998	1256.097
-49.159	49.744	1561.400	1443.722
-48.144	50.053	1577.663	1460.848
-47.130	32.037	1533.629	1296.976
-46.115	29.079	1518.664	1263.994
-45.100	28.913	1515.486	1260.161
-44.086	28.790	1513.326	1257.470
-43.071	28.809	1511.214	1255.795
-42.057	28.724	1509.658	1253.873
-41.042	28.747	1508.340	1252.890
-40.027	28.646	1507.071	1251.094
-39.013	28.870	1504.555	1250.484
-37.998	28.696	1503.879	1248.683
-36.984	28.700	1502.781	1247.753
-35.969	28.715	1501.324	1246.598
-34.954	28.697	1500.054	1245.372
-33.940	28.706	1498.283	1243.909
-32.925	28.653	1496.981	1242.417
-31.911	28.715	1495.970	1241.952
-30.896	28.744	1494.795	1241.122
-29.881	28.778	1493.495	1240.224
-28.867	28.864	1491.877	1239.408
-27.852	28.799	1490.577	1237.843
-26.838	28.816	1488.952	1236.561
-25.823	28.781	1487.826	1235.341
-24.809	28.875	1486.098	1234.488
-23.794	28.865	1484.804	1233.298
-22.779	28.756	1483.808	1231.691
-21.765	28.742	1482.675	1230.604
-20.750	28.718	1481.431	1229.367
-19.736	28.823	1480.211	1229.007
-18.721	28.789	1479.306	1227.975
-17.706	28.705	1478.614	1226.793
-16.692	28.703	1477.209	1225.565
-15.677	28.701	1476.356	1224.793
-14.663	28.741	1474.995	1223.887
-13.648	28.582	1474.592	1222.439
-12.633	28.720	1473.147	1222.116
-11.619	28.790	1472.056	1221.628
-10.604	28.716	1471.244	1220.412
-9.590	28.749	1470.169	1219.689
-8.575	28.681	1469.718	1218.821
-7.560	28.652	1468.905	1217.902
-6.546	28.671	1468.037	1217.259
-5.531	28.691	1466.641	1216.186
-4.517	28.603	1465.957	1214.989
-3.502	28.686	1464.488	1214.272
-2.487	28.751	1463.488	1213.825
-1.473	28.637	1462.654	1212.333
-0.458	28.687	1461.529	1211.681
0.556	30.776	1451.980	1202.521
1.571	28.118	1427.032	1164.848
2.586	24.844	1365.823	1094.797
3.600	23.360	1282.001	1018.990
4.615	21.583	1235.912	972.406
5.629	18.533	1178.728	911.151
6.644	11.055	1095.398	809.596
7.659	5.450	1056.653	753.941
8.673	4.579	1051.605	746.093
9.688	4.364	1048.248	742.614
10.702	4.301	1046.334	740.894
11.717	4.296	1045.096	739.928
12.731	7.130	1047.421	755.041
13.746	14.896	1057.928	799.826
14.761	20.894	1065.578	834.347
15.775	22.124	1066.453	840.852
16.790	21.597	1064.686	836.865
17.804	20.716	1063.078	831.322
18.819	19.863	1061.237	825.739
19.834	19.472	1060.003	822.843
20.848	19.408	1059.070	821.737
21.863	19.316	1058.591	820.858
22.877	19.142	1058.102	819.575
23.892	19.040	1057.014	818.176
24.907	18.915	1056.286	816.945
25.921	18.862	1055.355	815.904
26.936	18.824	1054.802	815.223
27.950	18.939	1053.373	814.590
28.965	18.813	1052.571	813.303
29.980	18.956	1051.584	813.144
30.994	19.037	1050.623	812.713
32.009	19.242	1049.986	813.116
33.023	19.183	1049.677	812.524
34.038	19.311	1048.147	811.871
35.053	19.214	1046.675	810.204
36.067	18.989	1046.339	808.812
37.082	18.972	1045.273	807.840
38.096	18.933	1044.731	807.164
39.111	19.011	1044.044	806.929
40.126	19.147	1043.266	806.895
41.140	19.145	1041.808	805.685
42.155	18.804	1040.796	803.234
43.169	18.499	1039.756	800.939
44.184	18.561	1038.243	799.990
45.199	18.483	1036.959	798.569
46.213	18.490	1036.319	798.035
47.228	18.629	1035.889	798.283
48.242	18.827	1035.309	798.685
49.257	19.116	1034.137	799.049
50.271	19.054	1032.650	797.542
51.286	18.965	1032.688	797.089
52.301	19.052	1031.866	796.789
53.315	19.045	1030.705	795.791
54.330	18.884	1030.035	794.457
55.344	18.705	1029.217	792.930
56.359	18.697	1027.574	791.555
57.374	18.616	1027.166	790.797
58.388	18.702	1026.160	790.348
59.403	18.615	1025.503	789.374
60.417	18.633	1024.485	788.601
61.432	18.507	1024.026	787.599
62.447	18.413	1023.281	786.529
63.461	18.339	1022.879	785.809
64.476	18.274	1021.371	784.282
65.490	18.315	1020.447	783.692
66.505	18.343	1019.593	783.094
67.520	18.356	1018.664	782.369
68.534	18.329	1018.085	781.734
69.549	18.304	1017.383	781.010
70.563	18.383	1016.450	780.586
71.578	18.302	1015.896	779.724
72.593	18.226	1015.000	778.620
73.607	18.026	1013.726	776.666
74.622	17.980	1012.834	775.707
75.636	18.064	1011.893	775.296
76.651	18.101	1011.175	774.847
77.666	18.275	1010.393	774.967
78.680	18.160	1009.979	774.060
79.695	18.199	1009.226	773.591
80.709	18.227	1008.831	773.344
81.724	18.330	1007.902	773.030
82.739	18.610	1007.001	773.532
83.753	18.520	1006.573	772.732
84.768	18.882	1005.741	773.654
85.782	19.054	1005.677	774.307
86.797	19.343	1004.688	774.778
87.812	19.364	1004.065	774.321
88.826	19.115	1002.955	772.284
89.841	19.003	1002.520	771.376
90.855	19.194	1001.515	771.389
91.870	19.276	1000.833	771.163
92.884	19.412	1000.054	771.102
93.899	19.234	999.567	769.864
94.914	19.253	998.026	768.693
95.928	19.237	997.887	768.447
96.943	19.278	997.546	768.300
97.957	19.180	996.055	766.648
98.972	19.196	994.981	765.823
99.987	19.154	994.709	765.358
101.001	19.134	994.009	764.663
102.016	19.156	992.956	763.885
103.030	19.091	992.101	762.871
104.045	19.053	991.108	761.873
105.060	19.151	990.297	761.613
106.074	19.156	989.198	760.724
107.089	18.794	988.036	758.166
108.103	18.627	986.928	756.510
109.118	18.514	985.909	755.167
110.133	18.298	985.609	753.921
111.147	18.287	984.475	752.936
112.162	18.364	983.182	752.218
113.176	18.394	982.436	751.714
114.191	18.634	981.368	751.881
115.206	18.725	981.217	752.097
116.220	18.568	980.499	750.795
117.235	18.492	979.228	749.423
118.249	18.437	978.932	748.889
119.264	18.568	977.665	748.423
120.279	18.477	976.594	747.141
121.293	18.354	975.925	746.029
122.308	18.304	975.373	745.322
123.322	18.277	974.432	744.418
124.337	18.299	973.194	743.505
125.352	18.188	971.887	741.957
126.366	18.191	971.525	741.629
127.381	18.049	970.232	739.963
128.395	18.174	969.332	739.752
129.410	18.212	968.373	739.116
130.424	18.174	968.014	738.614
131.439	18.260	967.117	738.235
132.454	18.420	966.316	738.247
133.468	18.512	965.566	738.005
134.483	18.475	964.928	737.294
135.497	18.582	964.024	737.000
136.512	18.501	963.855	736.455
137.527	18.653	962.707	736.163
138.541	18.675	961.963	735.624
139.556	18.567	961.167	734.487
140.570	18.566	960.613	733.996
141.585	18.723	960.089	734.202
142.600	19.019	959.338	734.827
143.614	18.964	958.797	734.115
144.629	19.025	957.824	733.565
145.643	19.260	957.205	734.026
146.658	18.986	957.161	732.762
147.673	18.825	955.781	730.955
148.687	18.689	954.683	729.470
149.702	18.688	953.186	728.258
150.716	18.600	952.661	727.419
151.731	18.565	951.705	726.480
152.746	18.583	951.208	726.111
153.760	18.676	950.206	725.673
154.775	18.768	949.597	725.533
155.789	18.766	949.121	725.096
156.804	18.867	947.828	724.470
157.819	18.791	947.443	723.792
158.833	18.912	947.307	724.137
159.848	19.052	946.582	724.107
160.862	19.142	945.767	723.798
161.877	19.305	944.597	723.523
162.892	18.997	943.506	721.332
163.906	18.640	942.584	719.066
164.921	18.590	941.549	718.004
165.935	18.505	941.110	717.251
166.950	18.579	939.743	716.452
167.964	18.823	938.595	716.534
168.979	18.744	937.853	715.574
169.994	18.602	936.881	714.176
171.008	18.610	936.296	713.702
172.023	18.695	935.558	713.429
173.037	18.911	934.732	713.632
174.052	19.160	934.167	714.170
175.067	18.964	933.752	712.977
176.081	18.792	932.587	711.312
177.096	18.496	931.531	709.222
178.110	18.499	930.824	708.633
179.125	18.547	929.908	708.068
180.140	18.701	929.229	708.127
181.154	18.702	928.464	707.483
182.169	18.801	928.389	707.773
183.183	19.069	927.556	708.178
184.198	19.101	927.095	707.895
185.213	19.156	926.163	707.348
186.227	19.090	925.926	706.833
187.242	19.113	925.504	706.543
188.256	19.320	924.516	706.572
189.271	19.314	924.007	706.096
190.286	19.289	923.494	705.539
191.300	19.145	922.168	703.879
192.315	18.612	921.757	701.321
193.329	18.437	920.180	699.345
194.344	18.499	919.675	699.151
195.359	18.663	919.405	699.555
196.373	18.938	918.626	700.022
197.388	18.888	918.443	699.616
198.402	19.119	918.289	700.374
199.417	19.180	917.907	700.269
200.432	19.229	917.734	700.275
201.446	19.651	916.689	701.128
202.461	19.729	916.864	701.516
203.475	19.878	916.060	701.443
204.490	19.687	915.343	700.057
205.504	19.436	914.275	698.164
206.519	19.180	913.672	696.609
207.534	19.109	912.813	695.602
208.548	19.148	911.750	694.889
209.563	19.176	911.148	694.484
210.577	19.225	910.445	694.081
211.592	19.306	909.446	693.587
212.607	19.386	909.885	694.182
213.621	19.610	909.447	694.686
214.636	19.556	908.806	693.918
215.650	19.412	907.826	692.530
216.665	19.533	907.135	692.429
217.680	19.628	906.606	692.344
218.694	19.659	906.667	692.452
219.709	19.750	905.932	692.194
220.723	19.749	905.454	691.765
221.738	19.612	904.166	690.171
222.753	19.465	904.076	689.456
223.767	19.578	903.085	689.089
224.782	19.688	902.239	688.821
225.796	19.689	901.712	688.362
226.811	19.896	901.025	688.598
227.826	19.836	900.513	687.909
228.840	19.544	899.618	686.003
229.855	19.549	898.994	685.486
230.869	19.481	898.738	684.960
231.884	19.636	897.540	684.602
232.899	19.442	897.112	683.447
233.913	19.285	896.080	681.980
234.928	19.253	895.608	681.433
235.942	19.174	894.817	680.457
236.957	19.096	893.743	679.273
237.972	19.100	893.300	678.892
238.986	19.245	892.455	678.763
240.001	19.399	891.867	678.860
241.015	19.347	891.220	678.104
242.030	19.325	890.803	677.641
243.045	19.471	890.161	677.663
244.059	19.433	889.928	677.277
245.074	19.546	889.121	677.048
246.088	19.606	888.416	676.684
247.103	19.694	888.175	676.788
248.117	19.787	887.528	676.597
249.132	19.947	887.279	676.973
250.147	20.157	886.881	677.432
251.161	20.484	885.940	677.930
252.176	20.436	885.932	677.675
253.190	20.402	885.343	677.031
254.205	20.644	884.814	677.512
255.220	20.701	884.233	677.228
256.234	20.514	883.184	675.637
257.249	20.528	882.416	675.046
258.263	20.493	882.050	674.567
259.278	20.423	881.682	673.955
260.293	20.569	880.678	673.694
261.307	20.639	880.213	673.551
262.322	20.721	879.624	673.358
263.336	20.669	878.977	672.601
264.351	20.829	878.465	672.767
265.366	20.649	878.317	671.902
266.380	20.567	877.891	671.198
267.395	20.702	876.931	670.926
268.409	20.510	875.834	669.288
269.424	20.580	874.804	668.711
270.439	20.542	874.381	668.180
271.453	20.522	873.677	667.507
272.468	20.443	872.757	666.441
273.482	20.185	872.461	665.170
274.497	20.332	871.690	665.084
275.512	20.284	871.227	664.491
276.526	20.275	870.065	663.511
277.541	20.377	869.550	663.447
278.555	20.476	869.083	663.411
279.570	20.531	868.688	663.259
280.585	20.812	868.301	663.979
281.599	20.790	868.013	663.615
282.614	20.625	867.000	662.152
283.628	20.530	866.112	661.056
284.643	20.428	865.823	660.388
285.657	20.513	864.963	659.996
286.672	20.426	864.942	659.592
287.687	20.446	864.104	658.972
288.701	20.517	863.681	658.861
289.716	20.652	862.984	658.779
290.730	20.514	862.618	657.921
291.745	20.527	861.915	657.374
292.760	20.521	861.386	656.893
293.774	20.611	860.921	656.820
294.789	20.964	860.293	657.614
295.803	20.887	859.859	656.933
296.818	20.597	859.076	655.183
297.833	20.512	858.285	654.204
298.847	20.448	857.534	653.334
299.862	20.613	857.070	653.541
300.876	20.767	856.244	653.429
301.891	20.770	855.764	653.018
302.906	20.873	855.409	653.074
303.920	21.053	854.893	653.296
304.935	21.062	853.804	652.443
305.949	21.244	853.921	653.155
306.964	21.153	853.061	652.098
307.979	20.855	852.493	650.494
308.993	20.869	851.896	650.034
310.008	20.863	851.497	649.648
311.022	21.045	850.879	649.798
312.037	21.056	850.107	649.192
313.052	20.862	849.554	647.990
314.066	20.813	848.341	646.827
315.081	20.650	847.851	645.790
316.095	20.367	847.902	644.719
317.110	20.602	847.109	644.933
318.125	20.666	846.503	644.650
319.139	20.557	846.006	643.812
320.154	20.534	845.408	643.214
321.168	20.637	844.996	643.224
322.183	20.798	844.481	643.370
323.197	20.759	843.920	642.743
324.212	20.760	843.218	642.155
325.227	20.951	842.677	642.390
326.241	20.751	842.689	641.607
327.256	20.705	841.883	640.768
328.270	20.740	841.110	640.250
329.285	20.634	840.658	639.459
330.300	20.763	839.692	639.141
331.314	20.670	839.395	638.518
332.329	20.712	838.901	638.239
333.343	20.817	838.530	638.287
334.358	21.041	837.998	638.645
335.373	21.049	837.237	638.037
336.387	21.232	836.546	638.123
337.402	21.139	836.202	637.463
338.416	21.159	836.021	637.343
339.431	21.237	835.434	637.122
340.446	21.533	834.645	637.543
341.460	21.562	834.287	637.321
342.475	21.454	834.222	636.821
343.489	21.546	833.388	636.462
344.504	21.778	832.845	636.835
345.519	21.895	832.469	636.914
346.533	21.887	831.742	636.272
347.548	21.720	831.521	635.443
348.562	21.629	830.943	634.617
349.577	21.251	830.235	632.649
350.592	21.248	829.531	632.045
351.606	20.998	829.107	630.761
352.621	21.130	828.448	630.684
353.635	20.988	827.910	629.703
354.650	21.340	827.272	630.433
355.665	21.232	827.237	629.962
356.679	21.356	827.014	630.183
357.694	21.484	826.138	629.921
358.708	21.363	826.095	629.396
359.723	21.301	825.105	628.361
360.738	21.395	824.556	628.228
361.752	21.430	823.925	627.815
362.767	21.428	823.651	627.547
363.781	21.478	823.693	627.703
364.796	21.683	822.958	627.819
365.810	21.844	822.850	628.257
366.825	21.879	822.765	628.264
367.840	22.039	822.114	628.283
368.854	21.899	821.949	627.601
369.869	21.888	820.825	626.648
370.883	21.741	820.255	625.631
371.898	21.725	819.741	625.129
372.913	21.763	819.501	625.025
373.927	21.987	818.607	625.085
374.942	21.861	817.775	623.948
375.956	22.000	817.201	623.947
376.971	21.969	816.682	623.387
377.986	22.164	816.262	623.701
379.000	22.155	815.619	623.126
380.015	22.388	815.294	623.645
381.029	22.108	815.121	622.468
382.044	22.051	814.490	621.728
383.059	22.035	813.742	621.045
384.073	22.193	813.050	621.022
385.088	22.159	812.335	620.300
386.102	21.861	812.034	618.966
387.117	21.872	811.085	618.224
388.132	21.631	810.744	617.060
389.146	21.794	810.016	617.025
390.161	21.780	809.648	616.641
391.175	21.932	809.666	617.134
392.190	22.206	809.172	617.668
393.205	21.977	808.969	616.654
394.219	21.961	807.972	615.781
395.234	21.814	807.936	615.185
396.248	21.669	807.389	614.207
397.263	21.803	806.434	613.894
398.278	21.668	805.973	613.016
399.292	21.451	805.790	612.063
400.307	21.634	805.109	612.131
401.321	21.424	805.184	611.399
402.336	21.648	804.315	611.469
403.350	21.770	804.082	611.663
404.365	21.785	803.535	611.246
405.380	21.959	803.168	611.519
406.394	22.120	803.199	612.050
407.409	22.416	802.483	612.479
408.423	22.289	802.071	611.667
409.438	22.352	801.583	611.461
410.453	22.541	800.924	611.559
411.467	22.609	800.545	611.451
412.482	22.523	800.386	610.980
413.496	22.710	799.665	611.023
414.511	22.792	799.642	611.233
415.526	22.546	799.254	610.032
416.540	22.586	798.797	609.769
417.555	22.678	797.805	609.276
418.569	22.578	797.841	608.903
419.584	22.484	797.276	608.094
420.599	22.499	796.904	607.806
421.613	163.262	1369.828	1795.144
422.628	141.734	1453.290	1795.241
