DTS Sentinel unit serial number:	SN413079Multiplexer serial number:	ORYXHardware model number:	OX4-SRSoftware version number:	ORYX F/W v4.00 Oryx Data Collector v3.7.2.0data status	okinstallation	princeton_trtdifferential loss correction	single-endedforward channel	channel 3reverse channel	N/Adate	2019/09/12time	21:04:34forward acquisition time	60.00reverse acquisition time	0.00gamma	496.2192k internal	0.2325k external	0.2325temperature offset calibration	1.0128default loss term (dB/km)	0.3790temperature slope calibration	1.0000multiplexer offset coefficient	1.0000multiplexer slope coefficient	1.0000fibre end	0.00T internal ref (°C)	30.80T ext. ref 1 (°C)	3.65T ext. ref 2 (°C)	25.32length (m)	temperature (°C)	Stokes	anti-Stokes-747.200	-165.664	-0.181	-0.008
-746.185	-86.717	-0.129	-0.040
-745.171	-21.827	-0.266	0.163
-744.156	257.224	-0.097	0.168
-743.142	-200.000	0.070	0.429
-742.127	800.000	-0.072	0.284
-741.112	-194.867	0.218	-0.002
-740.098	174.944	-0.179	0.262
-739.083	35.976	0.051	-0.045
-738.069	-200.000	0.002	-0.162
-737.054	-51.621	0.305	0.144
-736.039	-107.905	-0.567	-0.124
-735.025	59.235	0.124	-0.124
-734.010	-61.956	-0.351	-0.148
-732.996	-200.000	0.036	-0.282
-731.981	294.614	0.075	-0.138
-730.966	250.421	-0.179	-0.306
-729.952	-35.204	0.282	-0.155
-728.937	-4.252	0.261	0.182
-727.923	-98.725	-0.280	-0.072
-726.908	762.321	-0.112	0.307
-725.894	800.000	-0.095	0.305
-724.879	-167.887	0.088	0.003
-723.864	800.000	-0.108	0.325
-722.850	143.610	-0.171	-0.230
-721.835	-84.376	-0.317	-0.101
-720.821	-200.000	-0.035	0.268
-719.806	-121.785	-0.056	0.009
-718.791	-0.806	0.321	0.229
-717.777	724.597	-0.044	0.117
-716.762	-129.669	-0.438	0.061
-715.748	800.000	0.019	-0.067
-714.733	-200.000	-0.050	-0.400
-713.718	-3.909	0.202	0.141
-712.704	22.250	-0.193	0.159
-711.689	-45.463	-0.120	-0.060
-710.675	-135.711	-0.280	-0.033
-709.660	437.028	-0.208	-0.456
-708.645	-200.000	0.044	-0.270
-707.631	47.414	0.081	-0.076
-706.616	50.106	-0.119	0.113
-705.602	302.353	0.103	-0.192
-704.587	-73.855	-0.267	0.098
-703.572	242.224	0.164	0.277
-702.558	-157.024	-0.122	-0.007
-701.543	-11.033	-0.111	0.074
-700.529	-200.000	-0.039	-0.358
-699.514	0.867	-0.236	-0.170
-698.499	-145.857	-0.117	-0.010
-697.485	-200.000	-0.018	0.195
-696.470	61.796	-0.084	-0.085
-695.456	156.262	0.065	0.091
-694.441	-24.241	0.371	-0.223
-693.426	-200.000	-0.011	0.068
-692.412	-7.588	0.055	-0.038
-691.397	63.769	-0.194	-0.196
-690.383	-105.236	0.220	-0.050
-689.368	-140.215	-0.170	-0.018
-688.354	-77.999	-0.296	-0.103
-687.339	-7.093	0.271	0.185
-686.324	800.000	-0.039	0.112
-685.310	-200.000	0.030	0.320
-684.295	85.818	-0.090	0.099
-683.281	470.547	-0.081	-0.183
-682.266	800.000	0.013	0.054
-681.251	800.000	0.027	0.111
-680.237	-124.461	0.048	-0.007
-679.222	314.577	-0.150	0.284
-678.208	55.704	-0.139	-0.136
-677.193	341.484	-0.141	-0.278
-676.178	-146.830	-0.105	-0.009
-675.164	266.584	-0.046	-0.082
-674.149	85.514	0.054	-0.060
-673.135	5.803	-0.270	0.201
-672.120	363.185	-0.083	-0.168
-671.105	800.000	-0.075	0.265
-670.091	308.692	-0.042	0.078
-669.076	23.179	-0.066	0.055
-668.062	306.986	0.085	-0.159
-667.047	-4.992	-0.110	-0.077
-666.032	-15.395	-0.168	-0.108
-665.018	-200.000	-0.008	0.226
-664.003	-200.000	0.067	-0.311
-662.989	16.280	-0.105	0.083
-661.974	174.975	0.323	-0.471
-660.959	160.971	-0.270	-0.379
-659.945	800.000	-0.053	0.154
-658.930	-200.000	-0.000	0.055
-657.916	214.172	-0.115	0.184
-656.901	800.000	-0.075	0.254
-655.886	15.001	-0.071	0.056
-654.872	139.774	0.052	-0.069
-653.857	148.158	-0.060	-0.082
-652.843	273.043	0.115	0.205
-651.828	-200.000	0.027	0.242
-650.814	800.000	0.084	-0.356
-649.799	602.150	0.131	-0.327
-648.784	-40.005	0.085	0.045
-647.770	-200.000	-0.037	0.325
-646.755	1.594	0.055	0.040
-645.741	216.249	-0.127	0.203
-644.726	-5.505	0.045	0.031
-643.711	-36.245	-0.174	-0.095
-642.697	-74.423	-0.131	0.047
-641.682	-26.301	-0.084	0.050
-640.668	23.450	0.024	0.020
-639.653	-58.701	0.140	0.061
-638.638	-200.000	0.040	-0.275
-637.624	-0.532	-0.244	-0.174
-636.609	-200.000	0.029	-0.188
-635.595	800.000	-0.116	-0.336
-634.580	-193.666	-0.157	0.001
-633.565	-29.533	-0.057	-0.033
-632.551	-87.298	-0.025	0.008
-631.536	263.576	0.124	0.217
-630.522	-96.345	0.384	-0.102
-629.507	-139.879	0.390	-0.041
-628.492	800.000	0.059	0.205
-627.478	45.922	-0.095	0.088
-626.463	-200.000	0.002	0.167
-625.449	678.755	0.040	-0.104
-624.434	-79.005	-0.056	0.019
-623.419	536.383	0.028	-0.067
-622.405	713.550	0.032	0.085
-621.390	-118.094	-0.290	-0.052
-620.376	-133.166	0.221	0.028
-619.361	26.551	-0.113	-0.095
-618.346	-200.000	-0.024	-0.262
-617.332	-141.158	0.255	0.026
-616.317	79.561	-0.136	-0.147
-615.303	-23.489	-0.024	0.014
-614.288	800.000	0.023	0.070
-613.273	-107.936	0.210	-0.046
-612.259	16.826	-0.118	0.094
-611.244	173.548	-0.112	0.162
-610.230	-30.371	-0.325	-0.185
-609.215	-119.675	-0.184	0.032
-608.201	-200.000	0.005	-0.215
-607.186	122.056	0.152	-0.190
-606.171	291.595	-0.040	0.073
-605.157	-117.521	-0.053	0.010
-604.142	-51.885	0.283	-0.132
-603.128	-200.000	0.047	-0.283
-602.113	-200.000	0.039	0.209
-601.098	-59.091	0.137	-0.059
-600.084	57.496	0.121	0.119
-599.069	84.248	0.142	0.155
-598.055	99.366	0.196	0.228
-597.040	762.122	0.069	-0.189
-596.025	-105.569	0.292	0.066
-595.011	-200.000	0.001	-0.114
-593.996	-74.061	-0.048	0.018
-592.982	-163.236	0.230	-0.011
-591.967	-41.803	0.161	-0.083
-590.952	-160.382	-0.268	0.014
-589.938	800.000	-0.137	-0.385
-588.923	278.424	-0.082	-0.147
-587.909	-200.000	-0.008	-0.105
-586.894	800.000	-0.022	0.090
-585.879	-53.217	-0.300	-0.138
-584.865	-200.000	-0.077	0.408
-583.850	357.154	0.097	0.194
-582.836	553.121	-0.156	-0.376
-581.821	159.248	-0.138	0.192
-580.806	800.000	-0.066	-0.262
-579.792	-200.000	0.010	0.135
-578.777	292.062	-0.157	0.287
-577.763	-200.000	0.008	-0.104
-576.748	800.000	0.149	0.517
-575.733	-200.000	-0.183	-0.001
-574.719	800.000	-0.077	0.321
-573.704	-200.000	-0.010	0.066
-572.690	-125.041	0.268	0.041
-571.675	213.723	-0.081	-0.128
-570.661	-200.000	-0.010	0.183
-569.646	-65.223	0.255	-0.103
-568.631	-144.174	0.245	0.023
-567.617	103.662	-0.047	0.056
-566.602	30.604	-0.088	-0.076
-565.588	-84.668	0.099	-0.031
-564.573	-28.576	0.108	0.063
-563.558	-115.630	0.101	-0.019
-562.544	0.832	-0.049	0.036
-561.529	56.100	0.190	0.184
-560.515	184.990	-0.012	-0.018
-559.500	-200.000	-0.011	0.094
-558.485	-57.031	0.307	-0.136
-557.471	315.719	0.155	0.293
-556.456	72.597	-0.112	-0.117
-555.442	112.014	0.039	-0.048
-554.427	-200.000	0.003	0.153
-553.412	-73.048	-0.288	0.106
-552.398	551.090	-0.021	0.051
-551.383	-200.000	-0.035	-0.240
-550.369	-200.000	0.010	-0.252
-549.354	-111.302	0.409	0.084
-548.339	-155.487	-0.134	0.009
-547.325	210.165	-0.058	-0.091
-546.310	88.519	-0.070	0.077
-545.296	20.357	-0.273	0.221
-544.281	-200.000	-0.050	0.298
-543.266	800.000	-0.041	-0.142
-542.252	35.925	0.027	0.024
-541.237	351.708	0.072	-0.142
-540.223	-160.017	0.406	0.022
-539.208	281.577	-0.045	0.080
-538.193	192.579	-0.198	0.299
-537.179	-61.505	-0.265	-0.111
-536.164	-141.293	0.098	-0.010
-535.150	-200.000	0.021	0.251
-534.135	205.649	-0.046	-0.072
-533.121	-110.103	0.119	0.025
-532.106	-70.029	-0.233	0.089
-531.091	-40.636	-0.130	-0.067
-530.077	160.704	-0.133	-0.186
-529.062	15.265	0.559	0.439
-528.048	75.951	0.192	-0.203
-527.033	569.048	-0.101	0.246
-526.018	17.748	0.081	0.064
-525.004	-149.402	0.256	0.020
-523.989	261.734	-0.215	-0.372
-522.975	85.830	0.208	-0.229
-521.960	117.548	-0.252	0.310
-520.945	228.002	0.112	0.182
-519.931	172.876	-0.309	0.445
-518.916	-200.000	-0.017	0.378
-517.902	-71.293	0.124	-0.046
-516.887	-43.538	-0.191	0.097
-515.872	-200.000	-0.002	-0.234
-514.858	-200.000	0.010	0.132
-513.843	-200.000	0.065	-0.353
-512.829	42.262	-0.061	-0.056
-511.814	-200.000	-0.000	-0.045
-510.799	-50.220	-0.222	-0.105
-509.785	800.000	-0.060	0.185
-508.770	-52.113	-0.119	0.055
-507.756	-74.329	-0.203	0.073
-506.741	-200.000	0.042	0.231
-505.726	797.621	-0.057	-0.157
-504.712	114.457	-0.242	0.294
-503.697	201.140	0.053	0.081
-502.683	-200.000	0.003	0.109
-501.668	-34.641	-0.193	-0.106
-500.653	-200.000	0.004	0.059
-499.639	622.930	0.056	0.141
-498.624	70.119	0.279	-0.288
-497.610	-31.911	0.259	0.145
-496.595	453.192	0.146	-0.324
-495.581	-67.570	0.101	-0.040
-494.566	-200.000	0.043	-0.238
-493.551	4.917	-0.178	0.131
-492.537	678.371	0.103	-0.269
-491.522	-8.579	-0.069	0.046
-490.508	-200.000	0.025	0.245
-489.493	318.479	-0.039	-0.073
-488.478	-200.000	0.000	-0.067
-487.464	-200.000	-0.100	0.000
-486.449	-200.000	0.031	-0.162
-485.435	-136.922	-0.112	-0.013
-484.420	-97.703	-0.060	-0.015
-483.405	-200.000	0.003	0.099
-482.391	-7.781	0.034	-0.023
-481.376	27.418	-0.292	-0.246
-480.362	800.000	-0.020	-0.057
-479.347	-107.714	0.038	0.008
-478.332	-82.968	0.153	0.049
-477.318	-200.000	0.003	0.120
-476.303	-200.000	0.006	0.191
-475.289	-147.925	-0.145	-0.012
-474.274	451.223	0.047	-0.104
-473.259	17.939	0.287	-0.228
-472.245	485.840	-0.114	-0.259
-471.230	645.894	-0.083	-0.212
-470.216	800.000	-0.103	-0.314
-469.201	14.524	-0.129	0.100
-468.186	-200.000	-0.005	0.060
-467.172	-74.848	-0.223	0.080
-466.157	-200.000	0.010	0.057
-465.143	67.521	-0.068	0.069
-464.128	-2.934	0.174	0.121
-463.113	247.535	0.054	-0.092
-462.099	81.633	0.011	0.012
-461.084	57.478	0.122	-0.119
-460.070	132.818	0.333	0.429
-459.055	-72.765	-0.447	-0.164
-458.040	273.994	-0.184	-0.324
-457.026	196.725	0.077	0.117
-456.011	272.960	-0.050	-0.089
-454.997	23.268	0.218	0.178
-453.982	498.329	0.039	0.090
-452.968	-128.617	-0.257	-0.036
-451.953	-200.000	0.005	0.251
-450.938	800.000	-0.053	0.167
-449.924	6.104	-0.170	0.126
-448.909	48.198	0.267	0.249
-447.895	275.629	-0.072	-0.127
-446.880	800.000	-0.001	0.004
-445.865	-200.000	-0.000	0.109
-444.851	-103.487	0.349	0.082
-443.836	98.086	-0.181	-0.207
-442.822	782.610	-0.041	0.112
-441.807	-22.595	-0.004	-0.002
-440.792	261.234	0.207	0.357
-439.778	-19.584	0.269	0.166
-438.763	696.824	-0.092	0.242
-437.749	339.196	0.063	-0.123
-436.734	185.955	0.045	-0.066
-435.719	303.241	0.076	-0.140
-434.705	-64.476	-0.082	0.033
-433.690	-84.078	0.233	0.074
-432.676	-124.364	-0.082	0.013
-431.661	-63.994	0.392	0.160
-430.646	189.650	-0.087	0.131
-429.632	-103.959	0.354	0.082
-428.617	-13.493	-0.334	-0.216
-427.603	-132.830	0.234	0.030
-426.588	349.089	-0.216	-0.424
-425.573	27.767	-0.122	-0.102
-424.559	-200.000	0.022	0.099
-423.544	-34.861	-0.132	0.072
-422.530	50.915	0.098	0.092
-421.515	-200.000	0.013	-0.295
-420.500	-120.567	0.042	0.007
-419.486	2.371	0.053	0.038
-418.471	217.976	-0.101	0.161
-417.457	-61.330	-0.158	-0.066
-416.442	-200.000	-0.030	0.153
-415.428	273.492	0.093	-0.164
-414.413	-35.441	0.088	0.048
-413.398	-91.840	-0.274	0.077
-412.384	-92.316	-0.046	-0.013
-411.369	-200.000	-0.011	0.205
-410.355	-200.000	-0.004	0.211
-409.340	92.138	-0.172	0.193
-408.325	800.000	-0.074	0.303
-407.311	-75.004	-0.101	0.036
-406.296	9.300	-0.169	0.127
-405.282	-83.778	-0.253	-0.080
-404.267	800.000	0.057	0.209
-403.252	-200.000	0.004	0.033
-402.238	-200.000	-0.014	-0.316
-401.223	-55.541	-0.128	-0.057
-400.209	116.177	-0.134	0.164
-399.194	-69.107	0.213	0.082
-398.179	-90.395	-0.411	0.119
-397.165	-48.103	-0.150	0.072
-396.150	447.663	0.099	-0.218
-395.136	-47.806	-0.075	-0.036
-394.121	-103.749	0.195	-0.045
-393.106	75.300	-0.138	0.145
-392.092	-8.931	0.125	0.083
-391.077	-158.813	-0.149	0.008
-390.063	1.242	0.119	0.085
-389.048	-200.000	0.000	0.108
-388.033	-100.229	-0.038	-0.009
-387.019	-187.008	0.269	-0.004
-386.004	-86.834	0.223	-0.068
-384.990	-200.000	0.036	-0.268
-383.975	-200.000	0.029	-0.264
-382.960	-200.000	0.089	0.398
-381.946	484.256	-0.067	0.153
-380.931	0.243	0.078	0.055
-379.917	56.247	0.140	-0.135
-378.902	-200.000	0.021	-0.285
-377.888	-200.000	-0.016	-0.193
-376.873	-200.000	0.019	0.322
-375.858	46.571	0.275	0.254
-374.844	-119.212	-0.086	-0.015
-373.829	23.001	-0.184	0.150
-372.815	-117.199	0.307	0.055
-371.800	-16.173	-0.082	0.052
-370.785	-84.236	0.193	-0.061
-369.771	45.124	0.067	-0.061
-368.756	-200.000	-0.012	0.385
-367.742	34.227	-0.163	0.141
-366.727	1.572	-0.041	0.029
-365.712	143.195	-0.101	-0.134
-364.698	800.000	0.039	-0.119
-363.683	259.171	-0.127	-0.218
-362.669	62.166	-0.139	-0.138
-361.654	-36.268	0.168	-0.090
-360.639	-200.000	-0.019	0.228
-359.625	-81.783	-0.197	-0.064
-358.610	320.139	-0.153	-0.288
-357.596	-42.364	-0.384	-0.195
-356.581	-200.000	0.038	-0.429
-355.566	-19.065	0.132	0.082
-354.552	-95.445	-0.127	0.034
-353.537	-200.000	0.020	-0.215
-352.523	-80.714	-0.199	-0.066
-351.508	-171.592	0.174	0.006
-350.493	24.721	-0.269	0.222
-349.479	-32.933	0.076	-0.042
-348.464	-23.646	0.175	-0.104
-347.450	22.189	0.111	0.090
-346.435	-62.076	-0.309	0.128
-345.420	-89.194	-0.104	0.030
-344.406	-169.378	-0.122	-0.004
-343.391	-35.346	-0.091	0.049
-342.377	30.741	0.344	-0.292
-341.362	-130.235	-0.171	0.023
-340.348	59.494	0.115	0.112
-339.333	352.008	-0.078	0.153
-338.318	-200.000	-0.023	-0.125
-337.304	-200.000	0.018	-0.248
-336.289	-62.254	-0.296	-0.122
-335.275	-113.471	0.296	0.058
-334.260	-1.001	0.073	-0.052
-333.245	-91.585	0.262	-0.074
-332.231	800.000	-0.018	-0.069
-331.216	-29.722	0.184	-0.104
-330.202	-90.009	-0.110	-0.032
-329.187	173.968	-0.064	-0.092
-328.172	-200.000	0.025	-0.112
-327.158	-21.516	-0.134	0.081
-326.143	443.562	0.037	0.080
-325.129	800.000	0.038	0.140
-324.114	-200.000	-0.033	-0.203
-323.099	26.393	0.117	0.097
-322.085	-91.124	0.281	0.080
-321.070	214.416	0.117	0.184
-320.056	-106.049	-0.205	-0.046
-319.041	153.718	0.218	-0.297
-318.026	286.534	0.112	0.201
-317.012	-156.709	-0.200	0.012
-315.997	-56.227	-0.126	-0.056
-314.983	800.000	-0.045	-0.156
-313.968	-114.949	0.459	-0.087
-312.953	299.528	-0.093	-0.170
-311.939	-70.671	0.264	0.099
-310.924	129.026	-0.109	-0.138
-309.910	-36.791	-0.171	-0.091
-308.895	73.228	0.290	-0.301
-307.880	-79.705	-0.271	-0.090
-306.866	41.630	0.160	0.144
-305.851	292.420	-0.067	-0.122
-304.837	800.000	0.044	-0.189
-303.822	800.000	-0.035	0.103
-302.807	800.000	0.086	-0.237
-301.793	-200.000	-0.000	0.092
-300.778	104.605	0.136	-0.159
-299.764	-148.061	0.166	0.014
-298.749	-56.259	-0.222	-0.098
-297.735	800.000	-0.035	0.133
-296.720	42.203	0.301	0.271
-295.705	-134.949	0.243	0.029
-294.691	-199.736	0.073	-0.000
-293.676	-200.000	0.005	0.244
-292.662	800.000	0.067	-0.186
-291.647	800.000	0.023	0.091
-290.632	-200.000	0.032	-0.250
-289.618	800.000	0.098	0.342
-288.603	-200.000	0.020	-0.108
-287.589	-115.991	-0.301	-0.056
-286.574	422.403	0.140	-0.299
-285.559	117.237	0.175	0.213
-284.545	-200.000	-0.043	0.211
-283.530	14.453	-0.273	0.211
-282.516	624.690	-0.037	-0.093
-281.501	-95.160	0.243	0.065
-280.486	46.039	-0.119	-0.109
-279.472	0.563	-0.287	0.203
-278.457	334.705	-0.081	-0.155
-277.443	451.687	0.094	0.205
-276.428	51.290	0.164	0.154
-275.413	90.288	-0.107	0.119
-274.399	-92.466	-0.185	0.052
-273.384	170.666	0.098	0.140
-272.370	-117.054	0.035	0.006
-271.355	67.246	-0.207	-0.209
-270.340	0.481	-0.148	-0.105
-269.326	260.389	-0.067	-0.115
-268.311	-41.391	-0.254	0.129
-267.297	-200.000	0.006	0.117
-266.282	-200.000	-0.002	0.084
-265.267	14.385	-0.106	-0.082
-264.253	348.981	0.074	-0.146
-263.238	-13.377	-0.162	-0.104
-262.224	83.919	0.259	-0.280
-261.209	800.000	0.062	-0.171
-260.195	28.423	0.244	0.205
-259.180	-200.000	-0.032	-0.161
-258.165	-103.904	-0.088	-0.020
-257.151	-139.366	-0.188	-0.020
-256.136	-107.409	0.090	-0.020
-255.122	390.307	-0.105	-0.215
-254.107	800.000	-0.100	0.297
-253.092	-101.552	-0.038	0.009
-252.078	147.835	-0.074	0.098
-251.063	28.263	-0.138	0.115
-250.049	-200.000	-0.004	-0.179
-249.034	160.588	-0.221	-0.305
-248.019	387.338	-0.045	0.093
-247.005	323.823	0.074	-0.139
-245.990	-68.593	0.179	0.069
-244.976	127.383	0.117	0.148
-243.961	625.793	0.085	-0.211
-242.946	-97.744	-0.267	-0.069
-241.932	2.924	0.272	0.196
-240.917	-200.000	-0.016	0.160
-239.903	-200.000	0.016	-0.135
-238.888	-200.000	0.051	0.368
-237.873	-60.550	-0.071	0.030
-236.859	76.753	-0.111	-0.117
-235.844	100.108	-0.133	0.153
-234.830	136.295	0.080	-0.103
-233.815	-200.000	0.037	-0.174
-232.800	62.212	-0.268	-0.265
-231.786	-2.885	-0.269	0.186
-230.771	-100.705	0.207	-0.051
-229.757	-1.952	0.040	-0.028
-228.742	-25.819	-0.258	-0.151
-227.727	-148.767	0.245	0.020
-226.713	728.947	-0.212	-0.560
-225.698	-200.000	0.022	0.260
-224.684	21.897	0.375	-0.302
-223.669	-200.000	-0.017	0.117
-222.655	90.403	0.152	-0.168
-221.640	136.864	0.046	0.060
-220.625	-123.209	0.325	-0.051
-219.611	84.882	-0.228	0.247
-218.596	299.203	0.139	-0.253
-217.582	-200.000	0.028	-0.139
-216.567	371.994	0.097	-0.194
-215.552	-33.516	-0.224	0.122
-214.538	-200.000	-0.039	-0.243
-213.523	52.807	0.040	0.037
-212.509	185.670	-0.043	0.062
-211.494	-71.939	-0.293	-0.108
-210.479	195.806	0.083	-0.125
-209.465	0.350	0.074	0.052
-208.450	38.095	0.177	0.155
-207.436	-101.183	0.567	0.137
-206.421	-29.548	-0.253	0.143
-205.406	-200.000	-0.039	-0.243
-204.392	-32.695	0.137	-0.075
-203.377	-16.775	0.120	0.075
-202.363	800.000	-0.099	-0.347
-201.348	-81.267	0.187	-0.061
-200.333	395.092	-0.126	0.259
-199.319	-70.601	-0.278	-0.104
-198.304	277.503	0.197	0.345
-197.290	-38.427	0.029	-0.015
-196.275	-38.617	-0.196	-0.102
-195.260	-200.000	-0.084	0.369
-194.246	240.700	-0.062	-0.102
-193.231	487.496	0.052	0.117
-192.217	-200.000	-0.004	0.050
-191.202	-200.000	-0.004	-0.066
-190.187	800.000	0.033	0.142
-189.173	-197.480	0.181	0.001
-188.158	-143.900	-0.154	-0.014
-187.144	58.092	-0.199	0.193
-186.129	-200.000	0.009	0.259
-185.114	800.000	-0.049	0.149
-184.100	-200.000	0.018	-0.186
-183.085	724.034	0.118	-0.310
-182.071	237.685	-0.026	0.043
-181.056	104.650	0.260	0.302
-180.042	-200.000	0.064	0.477
-179.027	-200.000	0.028	-0.175
-178.012	44.390	-0.128	0.116
-176.998	140.977	0.139	0.181
-175.983	-143.804	-0.265	-0.025
-174.969	411.940	-0.123	-0.257
-173.954	800.000	-0.014	-0.047
-172.939	117.212	0.082	-0.099
-171.925	183.674	0.124	0.181
-170.910	-117.038	0.225	0.041
-169.896	7.963	-0.315	0.233
-168.881	800.000	0.057	0.239
-167.866	41.478	0.090	0.081
-166.852	-200.000	-0.005	-0.305
-165.837	-200.000	-0.009	0.165
-164.823	14.143	-0.288	-0.221
-163.808	712.524	0.103	-0.269
-162.793	800.000	-0.039	-0.108
-161.779	-166.903	-0.315	0.013
-160.764	-200.000	0.039	0.281
-159.750	-200.000	-0.087	-0.457
-158.735	-200.000	-0.003	-0.044
-157.720	-200.000	0.031	0.146
-156.706	-78.890	0.218	-0.073
-155.691	108.692	-0.133	-0.157
-154.677	14.160	0.268	-0.206
-153.662	14.874	0.137	-0.106
-152.647	-2.416	-0.325	-0.225
-151.633	-200.000	0.077	-0.368
-150.618	-25.647	0.145	-0.084
-149.604	107.193	0.133	-0.156
-148.589	-32.311	-0.192	0.106
-147.574	-37.111	0.203	0.107
-146.560	-147.931	-0.299	-0.025
-145.545	261.607	0.154	0.263
-144.531	-113.329	0.236	-0.046
-143.516	2.130	-0.068	0.049
-142.502	-125.369	-0.223	0.034
-141.487	-200.000	-0.054	-0.294
-140.472	286.120	-0.025	0.044
-139.458	144.584	-0.113	0.149
-138.443	266.352	-0.181	0.311
-137.429	35.433	-0.174	0.150
-136.414	312.879	-0.160	-0.295
-135.399	257.997	-0.049	-0.082
-134.385	-108.518	0.177	-0.038
-133.370	42.948	0.188	-0.169
-132.356	800.000	0.049	-0.157
-131.341	-177.555	0.198	0.005
-130.326	800.000	-0.120	-0.335
-129.312	-54.926	-0.205	0.091
-128.297	-27.462	-0.041	-0.024
-127.283	-84.140	-0.111	-0.035
-126.268	-109.258	-0.098	0.021
-125.253	168.817	0.199	0.280
-124.239	-38.729	0.211	0.110
-123.224	-25.453	-0.191	-0.111
-122.210	-34.657	-0.290	-0.156
-121.195	210.790	0.144	0.223
-120.180	-81.956	0.298	-0.096
-119.166	179.699	0.178	0.256
-118.151	-200.000	0.013	0.265
-117.137	724.699	0.030	-0.078
-116.122	191.210	0.092	0.137
-115.107	-142.748	0.187	0.018
-114.093	-200.000	0.049	-0.309
-113.078	-176.963	0.137	-0.003
-112.064	-119.233	0.192	0.033
-111.049	800.000	0.036	-0.123
-110.034	4.721	-0.134	0.097
-109.020	11.467	-0.128	0.096
-108.005	-2.472	0.134	-0.092
-106.991	172.196	0.077	-0.109
-105.976	-68.719	-0.124	0.047
-104.962	-38.005	0.218	-0.114
-103.947	-28.080	-0.208	-0.118
-102.932	-79.704	0.115	0.038
-101.918	84.808	0.107	-0.115
-100.903	522.409	0.153	0.353
-99.889	-158.421	0.303	-0.017
-98.874	-20.500	-0.314	-0.190
-97.859	648.470	-0.029	0.072
-96.845	-93.550	0.083	-0.023
-95.830	446.933	-0.052	-0.114
-94.816	-25.588	0.090	0.052
-93.801	-97.720	0.219	-0.056
-92.786	-184.770	0.048	0.001
-91.772	-200.000	-0.009	0.079
-90.757	-2.153	-0.284	-0.196
-89.743	-200.000	-0.041	-0.256
-88.728	23.108	0.202	-0.163
-87.713	-120.227	-0.160	-0.027
-86.699	-200.000	-0.020	-0.093
-85.684	136.116	-0.122	0.156
-84.670	-200.000	-0.015	0.158
-83.655	107.767	-0.244	0.286
-82.640	499.901	0.167	0.379
-81.626	-23.403	0.352	-0.208
-80.611	122.573	-0.160	-0.196
-79.597	-200.000	-0.074	0.325
-78.582	800.000	-0.052	-0.219
-77.567	20.260	0.247	0.196
-76.553	73.204	-0.150	0.154
-75.538	-114.971	0.184	0.034
-74.524	-24.840	-0.168	0.098
-73.509	28.311	-0.248	-0.206
-72.494	-19.458	0.160	0.097
-71.480	-141.595	0.260	0.026
-70.465	-33.160	0.066	-0.036
-69.451	-98.001	0.311	0.079
-68.436	-70.676	0.105	-0.039
-67.422	-200.000	0.065	-0.293
-66.407	-93.381	-0.198	0.054
-65.392	-51.021	0.163	-0.075
-64.378	51.832	-0.278	0.260
-63.363	-200.000	0.026	-0.280
-62.349	11.241	0.322	0.242
-61.334	210.255	-0.686	-1.058
-60.319	-165.536	0.447	0.019
-59.305	800.000	-0.187	-0.725
-58.290	142.790	0.786	1.027
-57.276	338.297	0.733	1.402
-56.261	-200.000	102.187	594.734
-55.246	576.028	1422.091	3411.684
-54.232	190.832	2602.242	3843.123
-53.217	116.640	2153.970	2595.088
-52.203	41.471	1688.557	1500.784
-51.188	33.940	1499.653	1282.267
-50.173	31.505	1472.998	1243.264
-49.159	52.012	1525.681	1426.990
-48.144	53.353	1544.136	1453.269
-47.130	34.199	1501.234	1285.165
-46.115	31.114	1486.049	1251.458
-45.100	30.875	1482.880	1247.143
-44.086	30.821	1481.341	1245.435
-43.071	30.867	1478.763	1243.523
-42.057	30.739	1477.205	1241.314
-41.042	30.716	1476.094	1240.176
-40.027	30.704	1474.387	1238.613
-39.013	30.665	1473.023	1237.157
-37.998	30.807	1471.795	1237.024
-36.984	30.737	1470.306	1235.259
-35.969	30.826	1469.301	1234.957
-34.954	30.757	1467.757	1233.146
-33.940	30.846	1466.320	1232.484
-32.925	30.723	1465.602	1231.019
-31.911	30.893	1463.549	1230.364
-30.896	30.851	1462.540	1229.195
-29.881	31.033	1460.771	1228.854
-28.867	30.876	1459.709	1226.882
-27.852	30.877	1458.713	1226.003
-26.838	30.920	1457.304	1225.048
-25.823	30.836	1455.963	1223.321
-24.809	30.864	1454.022	1221.825
-23.794	30.722	1453.298	1220.243
-22.779	30.841	1451.904	1219.802
-21.765	30.875	1450.608	1218.883
-20.750	30.733	1449.879	1217.295
-19.736	30.840	1447.967	1216.338
-18.721	30.758	1447.401	1215.282
-17.706	30.817	1445.955	1214.402
-16.692	30.765	1445.163	1213.352
-15.677	30.709	1444.212	1212.142
-14.663	30.720	1442.988	1211.134
-13.648	30.781	1441.932	1210.597
-12.633	30.772	1441.267	1209.933
-11.619	30.793	1440.324	1209.230
-10.604	30.772	1439.313	1208.196
-9.590	30.820	1438.473	1207.753
-8.575	30.829	1437.331	1206.809
-7.560	30.776	1436.981	1206.125
-6.546	30.805	1436.103	1205.522
-5.531	30.686	1435.240	1203.981
-4.517	30.732	1434.591	1203.685
-3.502	30.707	1433.240	1202.344
-2.487	30.728	1432.395	1201.724
-1.473	30.683	1431.239	1200.415
-0.458	30.684	1430.152	1199.463
0.556	32.377	1420.319	1188.630
1.571	29.082	1395.920	1147.603
2.586	25.387	1337.308	1077.209
3.600	23.664	1257.178	1002.849
4.615	22.233	1211.832	958.794
5.629	19.432	1156.009	899.957
6.644	11.083	1073.636	795.138
7.659	4.765	1033.968	735.900
8.673	3.836	1028.413	727.510
9.688	3.642	1025.628	724.567
10.702	3.542	1023.377	722.441
11.717	3.601	1021.961	721.654
12.731	6.537	1025.016	737.499
13.746	14.874	1036.197	784.763
14.761	22.117	1045.152	825.640
15.775	24.122	1046.757	836.262
16.790	23.680	1046.228	833.691
17.804	22.971	1044.726	829.093
18.819	22.499	1043.386	825.744
19.834	22.252	1042.672	823.947
20.848	22.383	1041.983	823.945
21.863	22.412	1041.582	823.691
22.877	22.544	1040.946	823.731
23.892	22.418	1040.220	822.498
24.907	22.136	1039.000	820.144
25.921	22.076	1038.327	819.261
26.936	22.019	1037.549	818.307
27.950	21.934	1036.686	817.159
28.965	22.011	1035.340	816.385
29.980	21.967	1034.105	815.132
30.994	22.121	1033.390	815.213
32.009	22.240	1032.475	814.970
33.023	22.434	1031.639	815.137
34.038	22.338	1031.131	814.221
35.053	22.321	1030.082	813.240
36.067	22.076	1029.038	811.213
37.082	22.040	1027.572	809.820
38.096	22.014	1027.376	809.472
39.111	22.121	1027.355	809.878
40.126	22.257	1026.272	809.579
41.140	22.109	1025.364	808.112
42.155	21.759	1023.700	805.118
43.169	21.607	1022.683	803.551
44.184	21.365	1021.614	801.531
45.199	21.426	1020.634	800.970
46.213	21.440	1019.639	800.183
47.228	21.667	1018.545	800.292
48.242	21.905	1018.410	801.200
49.257	22.271	1018.276	802.696
50.271	22.183	1017.113	801.304
51.286	22.230	1016.782	801.187
52.301	22.339	1016.167	801.127
53.315	22.425	1015.200	800.685
54.330	22.302	1014.088	799.182
55.344	22.258	1013.328	798.312
56.359	21.836	1012.452	795.637
57.374	21.853	1011.131	794.604
58.388	21.752	1010.553	793.623
59.403	21.568	1009.884	792.195
60.417	21.559	1008.978	791.374
61.432	21.372	1008.603	790.162
62.447	21.543	1007.560	790.047
63.461	21.440	1006.696	788.839
64.476	21.399	1005.675	787.782
65.490	21.273	1005.286	786.839
66.505	21.223	1004.153	785.658
67.520	21.291	1003.401	785.305
68.534	21.365	1002.755	785.063
69.549	21.274	1002.063	784.045
70.563	21.131	1001.297	782.734
71.578	21.109	1000.433	781.891
72.593	20.907	999.436	780.140
73.607	20.772	997.656	778.075
74.622	20.713	997.096	777.308
75.636	20.877	996.256	777.315
76.651	20.917	995.670	776.968
77.666	20.980	995.049	776.696
78.680	21.078	994.521	776.651
79.695	21.026	993.996	775.939
80.709	20.961	993.354	775.081
81.724	21.254	992.624	775.746
82.739	21.304	992.366	775.695
83.753	21.377	991.737	775.459
84.768	21.834	990.651	776.568
85.782	22.299	990.923	778.772
86.797	22.636	990.762	780.066
87.812	22.796	989.247	779.512
88.826	22.482	988.607	777.550
89.841	22.312	987.685	776.006
90.855	22.436	987.310	776.193
91.870	22.585	986.407	776.068
92.884	22.408	986.123	774.997
93.899	22.446	984.974	774.192
94.914	22.479	984.344	773.775
95.928	22.501	983.592	773.214
96.943	22.553	982.509	772.520
97.957	22.347	981.557	770.802
98.972	22.186	980.567	769.252
99.987	22.376	980.046	769.606
101.001	22.353	979.689	769.155
102.016	22.273	978.346	767.686
103.030	22.265	977.455	766.884
104.045	22.325	976.722	766.502
105.060	22.405	975.920	766.152
106.074	22.256	974.923	764.655
107.089	21.937	974.229	762.657
108.103	21.728	972.937	760.669
109.118	21.442	972.200	758.784
110.133	21.277	970.784	756.897
111.147	21.213	969.601	755.633
112.162	21.161	968.286	754.314
113.176	21.187	967.764	753.953
114.191	21.367	966.703	753.839
115.206	21.553	966.030	754.048
116.220	21.498	965.960	753.689
117.235	21.253	964.756	751.630
118.249	21.306	964.137	751.310
119.264	21.331	963.043	750.496
120.279	21.148	961.985	748.823
121.293	21.062	961.400	747.932
122.308	20.997	960.691	747.032
123.322	20.907	959.468	745.631
124.337	20.759	958.847	744.450
125.352	20.671	957.124	742.672
126.366	20.679	956.651	742.275
127.381	20.742	955.527	741.604
128.395	20.838	954.844	741.417
129.410	20.898	953.815	740.808
130.424	21.047	952.908	740.670
131.439	21.177	952.228	740.628
132.454	21.404	951.657	741.079
133.468	21.359	951.564	740.750
134.483	21.407	950.662	740.185
135.497	21.447	949.966	739.748
136.512	21.483	949.046	739.118
137.527	21.493	948.862	738.951
138.541	21.385	947.807	737.612
139.556	21.475	947.077	737.354
140.570	21.528	946.539	737.096
141.585	21.927	945.577	737.960
142.600	22.158	945.259	738.616
143.614	22.273	944.923	738.771
144.629	22.258	944.438	738.265
145.643	22.444	943.728	738.425
146.658	22.321	942.881	737.182
147.673	22.181	940.950	735.022
148.687	21.830	939.820	732.607
149.702	21.870	938.779	731.896
150.716	21.661	937.658	730.088
151.731	21.555	937.022	729.085
152.746	21.639	936.541	728.997
153.760	21.748	935.458	728.544
154.775	21.962	934.974	728.990
155.789	22.011	934.108	728.453
156.804	22.179	933.348	728.495
157.819	21.939	932.652	726.892
158.833	22.058	932.154	726.930
159.848	22.187	931.808	727.132
160.862	22.319	931.345	727.251
161.877	22.330	930.116	726.273
162.892	22.009	928.929	723.959
163.906	21.552	927.725	721.072
164.921	21.440	926.914	719.917
165.935	21.433	925.570	718.783
166.950	21.367	925.074	718.063
167.964	21.718	924.215	718.772
168.979	21.766	923.066	718.011
169.994	21.639	921.766	716.417
171.008	21.421	921.165	714.995
172.023	21.682	920.545	715.518
173.037	22.024	919.994	716.419
174.052	22.296	919.453	717.046
175.067	22.211	918.637	715.999
176.081	21.667	917.920	713.164
177.096	21.478	916.072	710.894
178.110	21.287	915.389	709.526
179.125	21.550	914.242	709.641
180.140	21.348	914.021	708.588
181.154	21.504	913.468	708.730
182.169	21.644	913.478	709.241
183.183	22.149	913.070	710.906
184.198	22.128	912.475	710.292
185.213	22.155	911.604	709.664
186.227	21.965	911.426	708.694
187.242	21.965	910.939	708.253
188.256	22.046	910.312	708.028
189.271	22.268	909.545	708.263
190.286	22.396	908.986	708.283
191.300	22.112	907.834	706.181
192.315	21.508	906.742	702.841
193.329	21.085	905.711	700.284
194.344	21.209	904.947	700.127
195.359	21.451	904.478	700.674
196.373	21.589	904.165	700.919
197.388	21.789	904.103	701.610
198.402	22.002	903.819	702.181
199.417	22.262	904.012	703.308
200.432	22.516	903.848	704.135
201.446	22.699	903.230	704.320
202.461	22.717	902.711	703.925
203.475	22.681	902.239	703.351
204.490	22.644	901.311	702.419
205.504	22.171	900.119	699.547
206.519	21.947	899.345	697.992
207.534	22.093	898.342	697.731
208.548	22.101	897.218	696.828
209.563	21.886	897.238	695.929
210.577	22.082	896.377	695.977
211.592	22.077	895.905	695.527
212.607	22.390	895.659	696.513
213.621	22.541	895.579	696.987
214.636	22.385	894.737	695.655
215.650	22.361	893.745	694.726
216.665	22.208	893.557	693.914
217.680	22.419	893.140	694.362
218.694	22.604	892.172	694.277
219.709	22.626	892.028	694.191
220.723	22.537	891.526	693.390
221.738	22.515	890.260	692.257
222.753	22.213	889.723	690.591
223.767	22.215	888.773	689.800
224.782	22.387	888.304	690.050
225.796	22.532	887.882	690.231
226.811	22.740	887.411	690.618
227.826	22.515	886.708	689.128
228.840	22.260	885.419	687.067
229.855	22.023	884.916	685.693
230.869	22.041	884.547	685.417
231.884	22.026	883.916	684.808
232.899	22.044	883.323	684.358
233.913	22.012	882.654	683.654
234.928	21.783	881.902	682.120
235.942	21.560	881.159	680.617
236.957	21.553	880.274	679.849
237.972	21.658	879.213	679.377
238.986	21.606	879.221	679.121
240.001	21.750	878.399	678.983
241.015	21.683	878.139	678.461
242.030	21.632	877.514	677.722
243.045	21.972	876.639	678.301
244.059	22.106	876.080	678.325
245.074	22.168	875.435	678.005
246.088	22.144	875.275	677.727
247.103	22.302	874.500	677.678
248.117	22.425	874.444	678.047
249.132	22.584	874.340	678.520
250.147	23.057	874.061	680.062
251.161	23.488	873.841	681.487
252.176	23.599	873.179	681.339
253.190	23.600	872.621	680.845
254.205	23.594	872.270	680.487
255.220	23.687	871.703	680.341
256.234	23.556	870.831	679.101
257.249	23.440	870.041	677.980
258.263	23.353	869.603	677.245
259.278	23.244	869.270	676.510
260.293	23.194	868.719	675.832
261.307	23.376	868.122	676.000
262.322	23.478	867.429	675.789
263.336	23.528	867.130	675.687
264.351	23.549	866.430	675.164
265.366	23.455	865.721	674.194
266.380	23.458	864.898	673.503
267.395	23.506	864.457	673.284
268.409	23.448	863.741	672.447
269.424	23.281	862.579	670.851
270.439	23.339	861.981	670.546
271.453	23.239	861.548	669.770
272.468	23.085	860.822	668.563
273.482	22.937	860.336	667.568
274.497	23.070	859.479	667.345
275.512	22.944	859.051	666.480
276.526	23.075	857.980	666.083
277.541	23.075	857.607	665.734
278.555	23.074	857.467	665.563
279.570	23.311	857.152	666.150
280.585	23.707	856.717	667.241
281.599	23.667	856.028	666.498
282.614	23.523	855.219	665.266
283.628	23.098	854.179	662.809
284.643	22.948	853.915	661.982
285.657	23.030	853.134	661.625
286.672	23.055	852.894	661.476
287.687	23.228	852.160	661.493
288.701	23.106	852.385	661.153
289.716	23.232	851.343	660.756
290.730	23.219	850.955	660.347
291.745	23.182	850.478	659.782
292.760	23.312	849.515	659.461
293.774	23.195	849.510	658.963
294.789	23.417	848.947	659.295
295.803	23.768	848.215	659.970
296.818	23.367	847.773	658.081
297.833	23.166	846.790	656.512
298.847	23.061	845.948	655.414
299.862	23.020	845.515	654.867
300.876	23.101	845.150	654.826
301.891	23.400	844.664	655.499
302.906	23.731	844.200	656.302
303.920	23.855	843.320	656.018
304.935	23.925	843.216	656.137
305.949	24.327	842.207	656.775
306.964	24.160	841.780	655.768
307.979	23.708	841.164	653.568
308.993	23.331	840.743	651.797
310.008	23.568	840.213	652.199
311.022	23.775	839.862	652.628
312.037	23.723	839.032	651.734
313.052	23.674	838.208	650.860
314.066	23.397	837.361	649.129
315.081	22.952	837.021	647.180
316.095	22.847	836.202	646.104
317.110	22.982	835.815	646.243
318.125	23.074	835.251	646.083
319.139	22.885	834.711	644.918
320.154	22.810	834.197	644.191
321.168	22.689	833.780	643.370
322.183	22.902	833.166	643.617
323.197	23.041	832.876	643.841
324.212	23.052	832.592	643.607
325.227	23.040	832.097	643.123
326.241	23.260	830.841	642.895
327.256	23.101	830.331	641.865
328.270	23.057	829.691	641.154
329.285	22.917	829.339	640.319
330.300	22.942	828.647	639.819
331.314	22.853	827.893	638.857
332.329	22.860	827.318	638.381
333.343	23.149	826.993	639.118
334.358	23.278	827.353	639.806
335.373	23.507	826.404	639.841
336.387	23.563	825.700	639.444
337.402	23.446	825.563	638.860
338.416	23.808	824.943	639.623
339.431	23.850	824.749	639.568
340.446	24.059	824.487	640.062
341.460	24.280	823.781	640.250
342.475	24.420	823.171	640.221
343.489	24.378	823.011	639.891
344.504	24.476	822.335	639.660
345.519	24.632	821.897	639.820
346.533	24.858	821.411	640.192
347.548	24.654	820.725	638.873
348.562	24.259	820.142	636.952
349.577	23.840	819.207	634.672
350.592	23.773	818.648	633.946
351.606	23.627	818.004	632.872
352.621	23.647	817.215	632.276
353.635	23.562	816.926	631.694
354.650	23.725	816.574	631.946
355.665	23.665	816.260	631.431
356.679	23.518	815.929	630.599
357.694	23.749	815.637	631.136
358.708	23.919	814.917	631.128
359.723	23.799	814.221	630.108
360.738	23.700	814.081	629.594
361.752	23.677	813.320	628.868
362.767	23.732	813.070	628.812
363.781	23.909	812.921	629.266
364.796	24.385	812.810	630.811
365.810	24.537	812.384	630.960
366.825	24.676	812.113	631.186
367.840	24.733	811.831	631.111
368.854	24.513	811.372	629.921
369.869	24.350	810.643	628.727
370.883	24.207	809.696	627.433
371.898	24.038	809.317	626.488
372.913	24.444	808.435	627.179
373.927	24.655	807.870	627.422
374.942	24.209	807.587	625.583
375.956	24.179	806.673	624.715
376.971	24.323	806.223	624.815
377.986	24.613	805.748	625.409
379.000	24.775	805.422	625.664
380.015	24.716	805.403	625.389
381.029	24.807	804.377	624.854
382.044	24.732	803.636	623.961
383.059	24.564	803.659	623.341
384.073	24.755	802.901	623.361
385.088	24.741	802.201	622.715
386.102	24.314	800.945	620.200
387.117	24.049	800.542	618.910
388.132	24.120	799.689	618.445
389.146	23.989	799.019	617.416
390.161	24.100	798.754	617.544
391.175	24.345	798.772	618.350
392.190	24.661	798.446	619.139
393.205	24.530	798.058	618.330
394.219	24.208	797.317	616.586
395.234	24.038	796.323	615.175
396.248	23.738	795.979	613.819
397.263	23.757	795.571	613.515
398.278	23.954	795.201	613.857
399.292	23.597	795.112	612.502
400.307	23.737	794.050	612.111
401.321	23.675	793.749	611.611
402.336	23.634	793.168	610.970
403.350	23.948	793.461	612.219
404.365	24.155	792.928	612.465
405.380	24.223	792.870	612.603
406.394	24.715	792.505	613.954
407.409	24.967	792.340	614.639
408.423	25.106	791.763	614.614
409.438	24.973	791.639	614.005
410.453	24.995	791.295	613.761
411.467	25.126	790.773	613.749
412.482	24.858	790.427	612.512
413.496	25.053	789.864	612.687
414.511	25.245	789.214	612.784
415.526	25.141	789.232	612.388
416.540	24.949	788.861	611.391
417.555	25.108	787.839	611.087
418.569	24.936	787.338	610.059
419.584	25.150	786.795	610.311
420.599	24.952	786.680	609.494
421.613	163.003	1368.865	1796.032
422.628	141.168	1453.676	1796.149
