DTS Sentinel unit serial number:	SN413079Multiplexer serial number:	ORYXHardware model number:	OX4-SRSoftware version number:	ORYX F/W v4.00 Oryx Data Collector v3.7.2.0data status	okinstallation	princeton_trtdifferential loss correction	single-endedforward channel	channel 3reverse channel	N/Adate	2019/09/18time	17:40:35forward acquisition time	60.00reverse acquisition time	0.00gamma	496.2192k internal	0.2292k external	0.2292temperature offset calibration	0.9993default loss term (dB/km)	0.3790temperature slope calibration	1.0000multiplexer offset coefficient	1.0000multiplexer slope coefficient	1.0000fibre end	0.00T internal ref (°C)	40.28T ext. ref 1 (°C)	0.91T ext. ref 2 (°C)	35.10length (m)	temperature (°C)	Stokes	anti-Stokes-747.200	-99.262	-0.170	-0.044
-746.185	-200.000	-0.064	0.423
-745.171	-200.000	0.000	0.102
-744.156	-56.026	0.417	0.190
-743.142	-66.671	0.079	0.032
-742.127	233.739	-0.101	0.171
-741.112	-5.161	-0.169	0.119
-740.098	-118.975	0.252	0.045
-739.083	22.023	0.132	0.110
-738.069	98.155	-0.046	-0.055
-737.054	-62.512	0.051	0.021
-736.039	-200.000	0.052	0.275
-735.025	-133.173	0.373	0.048
-734.010	-48.670	-0.099	-0.049
-732.996	-95.579	0.088	-0.024
-731.981	-119.498	0.155	0.027
-730.966	155.176	-0.207	0.291
-729.952	235.536	-0.060	-0.101
-728.937	-200.000	-0.021	-0.103
-727.923	395.922	-0.046	-0.098
-726.908	-116.304	0.105	0.020
-725.894	800.000	-0.043	0.168
-724.879	784.305	-0.063	0.177
-723.864	-104.417	0.255	-0.060
-722.850	800.000	-0.088	-0.277
-721.835	361.735	0.027	0.055
-720.821	728.263	-0.035	-0.095
-719.806	-200.000	0.016	-0.260
-718.791	-200.000	0.069	0.364
-717.777	-184.350	-0.177	0.003
-716.762	-119.326	0.196	-0.035
-715.748	96.435	0.120	0.141
-714.733	-183.360	-0.200	-0.004
-713.718	132.214	-0.167	-0.220
-712.704	287.312	-0.188	0.348
-711.689	-4.915	0.171	0.120
-710.675	-104.839	-0.126	0.030
-709.660	-200.000	0.013	0.216
-708.645	508.228	-0.033	-0.079
-707.631	-93.840	0.189	0.053
-706.616	800.000	-0.092	-0.362
-705.602	74.675	0.181	-0.195
-704.587	-86.916	0.270	0.084
-703.572	-17.875	0.385	-0.247
-702.558	201.413	0.161	-0.253
-701.543	-70.186	0.239	-0.093
-700.529	-11.257	0.131	-0.088
-699.514	-71.133	0.401	0.154
-698.499	-127.028	0.188	-0.028
-697.485	84.729	0.034	-0.038
-696.470	109.015	0.061	-0.074
-695.456	-15.452	0.307	0.200
-694.441	395.367	0.119	-0.254
-693.426	-101.800	-0.323	-0.080
-692.412	-18.882	-0.403	0.256
-691.397	68.919	0.048	0.051
-690.383	278.179	-0.190	-0.346
-689.368	-90.869	0.477	-0.140
-688.354	-138.862	0.179	-0.020
-687.339	-116.156	-0.268	0.051
-686.324	61.203	0.245	0.248
-685.310	71.633	-0.191	-0.203
-684.295	-200.000	-0.053	-0.310
-683.281	488.445	-0.020	0.046
-682.266	94.950	-0.263	-0.306
-681.251	-186.051	0.157	-0.002
-680.237	-4.842	0.145	0.102
-679.222	512.586	-0.066	-0.157
-678.208	-200.000	0.025	-0.186
-677.193	-176.115	0.193	-0.005
-676.178	-200.000	-0.022	-0.273
-675.164	345.321	0.033	0.067
-674.149	800.000	-0.080	0.319
-673.135	-105.775	-0.078	0.018
-672.120	64.761	-0.088	0.090
-671.105	-106.144	0.276	-0.063
-670.091	-40.402	-0.295	-0.156
-669.076	-160.745	-0.115	-0.006
-668.062	258.780	-0.278	-0.490
-667.047	800.000	0.069	-0.310
-666.032	-105.938	0.222	0.051
-665.018	392.865	-0.105	0.223
-664.003	800.000	-0.024	0.095
-662.989	-200.000	0.043	0.346
-661.974	85.693	-0.144	-0.161
-660.959	800.000	0.056	0.196
-659.945	-200.000	-0.041	-0.220
-658.930	36.512	-0.258	-0.232
-657.916	114.180	-0.058	0.071
-656.901	-68.514	-0.240	0.095
-655.886	800.000	0.014	-0.046
-654.872	15.543	-0.321	-0.257
-653.857	215.298	0.082	-0.132
-652.843	11.114	-0.121	0.094
-651.828	-18.106	0.064	-0.041
-650.814	219.592	-0.092	-0.150
-649.799	-75.593	0.064	0.023
-648.784	-200.000	0.022	-0.160
-647.770	800.000	0.182	-0.532
-646.755	-200.000	0.028	0.138
-645.741	80.730	0.191	-0.210
-644.726	-31.538	0.194	0.111
-643.711	-34.489	0.326	0.182
-642.697	-93.373	0.046	0.013
-641.682	708.206	-0.222	-0.598
-640.668	-200.000	-0.004	-0.347
-639.653	-80.616	-0.094	0.032
-638.638	-46.344	-0.149	0.075
-637.624	-12.462	0.301	-0.201
-636.609	-200.000	-0.011	0.190
-635.595	-192.193	-0.062	-0.001
-634.580	-200.000	-0.005	-0.098
-633.565	-46.634	0.151	0.075
-632.551	30.910	-0.131	0.115
-631.536	305.392	0.058	-0.110
-630.522	-86.597	-0.265	-0.083
-629.507	800.000	-0.114	-0.326
-628.492	-200.000	-0.050	-0.350
-627.478	-107.358	-0.291	0.065
-626.463	-138.677	-0.281	-0.031
-625.449	-114.841	0.472	-0.092
-624.434	-200.000	-0.052	-0.394
-623.419	37.899	0.194	-0.176
-622.405	-87.397	0.176	0.054
-621.390	-90.963	0.104	0.031
-620.376	-200.000	0.001	-0.159
-619.361	-31.531	0.083	-0.048
-618.346	505.255	0.077	0.181
-617.332	79.498	-0.127	0.139
-616.317	-20.007	-0.058	0.037
-615.303	104.519	-0.160	-0.192
-614.288	-151.024	-0.081	0.006
-613.273	23.951	-0.224	-0.188
-612.259	-134.796	-0.410	-0.051
-611.244	800.000	-0.104	-0.410
-610.230	-108.843	0.141	0.031
-609.215	-131.065	0.144	-0.020
-608.201	453.457	0.136	0.306
-607.186	-43.325	0.104	0.054
-606.171	33.796	-0.296	-0.263
-605.157	-118.514	0.211	-0.038
-604.142	420.723	0.030	0.064
-603.128	-59.539	0.132	0.058
-602.113	722.219	-0.111	0.302
-601.098	187.353	-0.067	-0.102
-600.084	-200.000	0.018	0.234
-599.069	155.974	0.148	-0.208
-598.055	-200.000	-0.000	-0.234
-597.040	412.399	-0.141	-0.305
-596.025	-110.154	0.185	0.039
-595.011	6.124	0.249	-0.188
-593.996	63.508	-0.264	-0.270
-592.982	100.172	0.070	-0.083
-591.967	-23.223	-0.071	-0.044
-590.952	13.109	0.224	0.177
-589.938	510.571	-0.080	-0.188
-588.923	119.441	0.121	0.153
-587.909	-26.061	-0.109	0.065
-586.894	334.143	-0.060	0.117
-585.879	-179.423	-0.218	-0.005
-584.865	278.407	-0.062	0.113
-583.850	221.094	-0.086	0.141
-582.836	-63.053	-0.102	0.043
-581.821	-77.060	0.016	-0.006
-580.806	-134.514	0.289	0.036
-579.792	-140.231	-0.224	0.024
-578.777	-5.865	-0.181	-0.126
-577.763	-200.000	-0.025	-0.396
-576.748	-200.000	0.070	0.375
-575.733	119.738	-0.065	0.082
-574.719	-66.001	0.214	-0.087
-573.704	-200.000	0.012	0.173
-572.690	-1.093	0.121	0.087
-571.675	223.125	0.065	-0.106
-570.661	800.000	0.099	0.304
-569.646	-5.086	0.098	0.068
-568.631	-14.843	0.081	-0.053
-567.617	210.432	0.057	-0.091
-566.602	-159.781	0.199	0.011
-565.588	100.278	0.221	-0.260
-564.573	-200.000	-0.045	-0.284
-563.558	3.193	0.295	-0.218
-562.544	-200.000	0.012	-0.176
-561.529	800.000	0.010	-0.037
-560.515	-12.150	-0.055	0.037
-559.500	-118.969	-0.014	-0.003
-558.485	-57.905	-0.130	-0.058
-557.471	164.781	0.193	-0.277
-556.456	-162.700	0.354	-0.018
-555.442	-89.683	0.029	0.009
-554.427	-41.382	-0.133	0.069
-553.412	-22.655	0.051	0.032
-552.398	49.149	-0.148	-0.141
-551.383	-113.103	-0.041	-0.008
-550.369	25.370	-0.278	-0.234
-549.354	39.646	-0.123	0.112
-548.339	-166.809	0.099	0.004
-547.325	-200.000	0.009	0.175
-546.310	37.252	-0.132	0.119
-545.296	145.940	-0.210	-0.287
-544.281	126.613	-0.074	0.096
-543.266	800.000	0.017	-0.076
-542.252	-124.371	-0.339	0.054
-541.237	-84.941	0.080	0.026
-540.223	22.312	-0.120	0.100
-539.208	99.641	0.044	0.052
-538.193	-9.986	0.120	-0.081
-537.179	-78.396	0.081	0.028
-536.164	-200.000	-0.038	-0.241
-535.150	-57.884	0.101	0.045
-534.135	282.456	-0.195	-0.356
-533.121	32.490	0.180	-0.158
-532.106	22.557	-0.068	-0.057
-531.091	800.000	0.031	0.105
-530.077	535.902	-0.009	0.021
-529.062	363.869	0.091	-0.185
-528.048	-145.752	0.282	-0.026
-527.033	8.869	0.330	0.253
-526.018	167.284	-0.138	0.198
-525.004	55.501	0.085	-0.083
-523.989	71.868	0.158	0.167
-522.975	-200.000	0.036	-0.215
-521.960	43.748	-0.332	-0.308
-520.945	104.765	-0.388	-0.464
-519.931	-200.000	-0.019	-0.263
-518.916	104.103	-0.043	-0.051
-517.902	800.000	-0.045	-0.197
-516.887	355.462	0.158	0.319
-515.872	-155.855	-0.232	-0.015
-514.858	-74.279	0.087	-0.032
-513.843	10.499	-0.312	0.241
-512.829	26.101	-0.163	0.138
-511.814	-200.000	0.001	-0.262
-510.799	-200.000	-0.022	-0.197
-509.785	132.513	0.167	0.218
-508.770	-80.782	-0.423	-0.143
-507.756	281.238	0.191	0.348
-506.741	-200.000	-0.017	0.091
-505.726	-25.076	-0.099	0.059
-504.712	129.004	-0.183	-0.237
-503.697	394.955	-0.063	0.133
-502.683	-54.788	0.239	0.110
-501.668	-200.000	-0.059	0.297
-500.653	31.576	0.257	-0.224
-499.639	-25.514	0.178	-0.106
-498.624	800.000	-0.041	0.178
-497.610	101.432	-0.200	0.237
-496.595	13.245	0.088	-0.069
-495.581	108.626	-0.078	0.094
-494.566	800.000	-0.036	-0.151
-493.551	-127.169	0.442	-0.066
-492.537	-102.269	0.462	0.112
-491.522	800.000	-0.028	0.094
-490.508	270.971	0.084	-0.149
-489.493	-200.000	0.027	0.240
-488.478	-160.418	0.226	-0.012
-487.464	225.605	0.206	-0.338
-486.449	-200.000	-0.027	0.286
-485.435	-200.000	-0.045	0.381
-484.420	361.797	0.024	0.049
-483.405	475.318	0.103	0.235
-482.391	-111.775	0.057	-0.012
-481.376	800.000	0.032	-0.132
-480.362	-165.125	0.152	-0.007
-479.347	781.680	0.032	0.090
-478.332	393.246	-0.073	0.153
-477.318	-67.718	-0.065	0.026
-476.303	475.605	-0.042	-0.096
-475.289	800.000	-0.077	0.238
-474.274	-144.564	0.203	-0.019
-473.259	135.595	-0.191	-0.251
-472.245	19.110	0.127	0.103
-471.230	800.000	-0.050	-0.216
-470.216	69.861	-0.160	-0.167
-469.201	-21.525	-0.123	0.076
-468.186	-200.000	-0.018	0.411
-467.172	-48.910	0.223	0.108
-466.157	0.342	0.134	0.097
-465.143	179.970	-0.059	0.088
-464.128	-54.277	-0.318	-0.146
-463.113	5.729	0.227	-0.170
-462.099	-148.248	0.299	0.025
-461.084	-105.748	-0.242	0.055
-460.070	-132.070	0.219	0.029
-459.055	-200.000	0.018	-0.259
-458.040	133.541	0.066	-0.086
-457.026	-200.000	0.012	-0.054
-456.011	800.000	-0.022	-0.083
-454.997	-47.615	-0.345	0.169
-453.982	237.785	-0.069	-0.116
-452.968	-95.307	0.328	-0.089
-451.953	-200.000	0.017	0.092
-450.938	-74.579	-0.258	-0.094
-449.924	655.127	-0.121	0.314
-448.909	15.462	-0.033	0.026
-447.895	-200.000	-0.038	0.218
-446.880	145.680	-0.076	-0.103
-445.865	247.304	0.113	0.194
-444.851	-200.000	-0.036	-0.191
-443.836	59.079	-0.199	0.198
-442.822	15.697	0.154	0.123
-441.807	-200.000	-0.036	-0.183
-440.792	470.924	-0.004	-0.010
-439.778	-52.421	0.137	0.064
-438.763	102.021	-0.220	-0.259
-437.749	82.826	-0.107	0.118
-436.734	-72.014	0.342	0.129
-435.719	86.721	0.098	-0.110
-434.705	-200.000	-0.002	-0.190
-433.690	-194.439	0.257	0.002
-432.676	-59.931	-0.249	0.108
-431.661	-94.409	0.142	0.039
-430.646	800.000	0.067	0.242
-429.632	800.000	-0.143	0.600
-428.617	800.000	-0.038	-0.136
-427.603	-200.000	0.020	0.325
-426.588	-0.857	0.285	-0.204
-425.573	79.453	0.072	0.078
-424.559	43.695	0.087	-0.080
-423.544	-27.989	-0.057	-0.034
-422.530	-52.231	-0.099	-0.047
-421.515	800.000	0.049	0.172
-420.500	429.318	0.113	0.247
-419.486	30.506	0.163	0.140
-418.471	-71.294	-0.324	-0.123
-417.457	-86.445	-0.292	-0.091
-416.442	-145.073	-0.306	0.028
-415.428	136.342	0.113	-0.149
-414.413	15.842	0.416	0.331
-413.398	56.349	-0.108	0.106
-412.384	800.000	-0.180	0.510
-411.369	-133.573	-0.199	0.025
-410.355	800.000	-0.090	0.268
-409.340	-50.036	-0.166	-0.079
-408.325	49.430	-0.079	0.075
-407.311	-200.000	-0.050	0.395
-406.296	-25.805	0.271	-0.161
-405.282	-19.598	-0.179	-0.112
-404.267	-65.886	0.121	0.049
-403.252	800.000	-0.064	-0.275
-402.238	-48.361	-0.186	0.091
-401.223	-200.000	-0.089	0.426
-400.209	-137.568	-0.357	0.041
-399.194	68.940	-0.245	0.254
-398.179	-104.778	-0.072	0.017
-397.165	-131.990	-0.172	0.023
-396.150	136.096	-0.135	0.178
-395.136	606.480	-0.072	-0.181
-394.121	61.433	0.367	0.369
-393.106	242.150	-0.121	0.205
-392.092	-94.447	0.166	-0.046
-391.077	27.568	0.125	-0.106
-390.063	-73.869	-0.408	0.149
-389.048	-200.000	0.009	-0.292
-388.033	-200.000	0.000	-0.050
-387.019	473.709	-0.125	-0.285
-386.004	-114.361	-0.034	0.007
-384.990	-101.959	-0.125	-0.031
-383.975	186.976	0.046	-0.069
-382.960	150.939	0.155	0.212
-381.946	61.077	-0.130	0.130
-380.931	-132.258	0.157	-0.020
-379.917	-200.000	0.022	-0.149
-378.902	51.451	0.234	-0.224
-377.888	-200.000	-0.054	-0.246
-376.873	68.282	-0.220	-0.227
-375.858	-66.578	-0.164	0.066
-374.844	-74.212	-0.135	0.049
-373.829	449.337	0.035	-0.078
-372.815	-200.000	0.014	0.398
-371.800	89.346	-0.172	0.194
-370.785	25.132	-0.071	0.060
-369.771	-151.548	0.346	-0.026
-368.756	-200.000	-0.003	0.228
-367.742	299.576	-0.041	-0.076
-366.727	416.414	0.131	0.282
-365.712	90.624	-0.232	0.262
-364.698	-90.178	-0.179	-0.052
-363.683	-48.987	-0.181	0.087
-362.669	503.654	-0.089	-0.208
-361.654	65.075	-0.280	0.285
-360.639	235.478	-0.028	-0.046
-359.625	-106.559	0.197	-0.044
-358.610	800.000	0.042	0.118
-357.596	160.240	0.181	0.255
-356.581	163.522	0.196	0.278
-355.566	800.000	0.045	0.125
-354.552	335.721	0.043	-0.084
-353.537	-7.205	0.231	-0.158
-352.523	190.088	-0.087	-0.132
-351.508	44.242	0.263	0.243
-350.493	114.552	0.103	0.126
-349.479	185.412	-0.129	0.192
-348.464	-53.205	0.163	0.075
-347.450	-184.664	-0.312	-0.005
-346.435	-6.744	0.148	-0.102
-345.420	-101.783	0.271	-0.066
-344.406	-58.776	0.085	-0.037
-343.391	-200.000	-0.032	0.180
-342.377	158.323	0.057	-0.080
-341.362	-157.245	0.039	0.002
-340.348	800.000	0.028	0.125
-339.333	-173.630	-0.413	0.012
-338.318	-10.099	0.237	-0.159
-337.304	87.901	0.156	0.174
-336.289	130.719	-0.244	-0.315
-335.275	-43.879	-0.302	-0.153
-334.260	-200.000	0.013	0.155
-333.245	800.000	-0.099	-0.346
-332.231	-147.016	-0.244	0.021
-331.216	-153.010	0.157	0.011
-330.202	-200.000	0.002	0.104
-329.187	-200.000	-0.038	0.283
-328.172	800.000	-0.012	0.051
-327.158	-155.528	0.142	-0.009
-326.143	9.699	-0.293	-0.224
-325.129	-200.000	0.013	0.182
-324.114	2.333	-0.301	0.219
-323.099	-200.000	0.017	-0.332
-322.085	116.236	0.162	0.200
-321.070	800.000	0.115	0.380
-320.056	118.267	-0.185	0.229
-319.041	-200.000	0.018	-0.201
-318.026	-59.818	-0.156	0.067
-317.012	-64.789	0.217	-0.088
-315.997	22.272	-0.126	0.104
-314.983	-100.064	-0.236	0.059
-313.968	21.186	0.230	0.188
-312.953	238.589	-0.059	0.099
-311.939	800.000	-0.047	0.134
-310.924	-200.000	0.050	-0.286
-309.910	-123.823	0.239	0.038
-308.895	-129.397	0.084	0.012
-307.880	-200.000	-0.048	0.219
-306.866	18.335	-0.064	-0.051
-305.851	117.386	-0.164	0.202
-304.837	592.656	0.116	0.287
-303.822	-92.923	-0.295	0.083
-302.807	-82.903	0.349	-0.113
-301.793	-5.131	0.112	-0.078
-300.778	800.000	-0.123	0.414
-299.764	88.373	0.038	0.043
-298.749	800.000	-0.024	0.087
-297.735	-154.805	-0.185	-0.012
-296.720	271.774	-0.116	-0.205
-295.705	410.998	0.032	0.069
-294.691	69.123	0.023	-0.024
-293.676	-200.000	0.030	-0.299
-292.662	-72.012	-0.275	-0.103
-291.647	800.000	0.036	0.125
-290.632	338.979	-0.095	-0.186
-289.618	322.938	-0.168	-0.322
-288.603	800.000	-0.011	-0.042
-287.589	90.937	0.159	-0.180
-286.574	-90.372	0.095	-0.028
-285.559	-200.000	0.006	-0.125
-284.545	-54.942	-0.272	-0.123
-283.530	143.433	-0.172	-0.230
-282.516	-200.000	-0.013	-0.536
-281.501	-59.690	-0.186	-0.080
-280.486	55.742	-0.064	-0.062
-279.472	-71.478	-0.087	0.033
-278.457	-200.000	-0.038	0.201
-277.443	-155.478	0.062	-0.004
-276.428	297.035	0.090	0.167
-275.413	59.654	-0.175	0.174
-274.399	800.000	-0.055	0.182
-273.384	96.918	0.262	0.302
-272.370	196.558	0.152	-0.233
-271.355	84.621	0.237	-0.261
-270.340	406.738	-0.054	-0.115
-269.326	-107.034	0.299	-0.066
-268.311	-79.393	-0.193	-0.066
-267.297	800.000	0.023	0.074
-266.282	800.000	0.073	0.258
-265.267	-91.724	0.151	0.043
-264.253	-61.584	-0.254	0.107
-263.238	-38.716	0.093	-0.050
-262.224	134.832	-0.099	0.129
-261.209	24.265	0.043	-0.035
-260.195	-64.546	0.195	-0.080
-259.180	52.587	0.135	-0.129
-258.165	800.000	0.073	-0.255
-257.151	431.071	0.076	-0.166
-256.136	190.131	0.091	-0.138
-255.122	-117.221	-0.241	0.044
-254.107	-76.611	-0.215	0.076
-253.092	-139.242	-0.160	-0.017
-252.078	-200.000	-0.033	0.188
-251.063	800.000	-0.036	0.139
-250.049	108.245	-0.127	-0.153
-249.034	-107.137	-0.163	0.036
-248.019	-115.855	-0.157	0.030
-247.005	64.028	0.091	-0.092
-245.990	-40.207	0.236	0.123
-244.976	800.000	0.088	0.283
-243.961	-49.114	-0.076	0.036
-242.946	125.345	0.319	-0.404
-241.932	263.325	0.133	0.232
-240.917	84.313	0.209	-0.229
-239.903	-170.966	0.234	0.008
-238.888	75.348	0.239	-0.253
-237.873	350.484	0.084	0.166
-236.859	287.390	0.156	0.284
-235.844	800.000	-0.046	-0.150
-234.830	-78.217	-0.166	-0.057
-233.815	720.133	0.212	-0.567
-232.800	-200.000	0.008	-0.128
-231.786	139.633	-0.020	0.027
-230.771	70.267	0.188	0.194
-229.757	800.000	-0.023	0.076
-228.742	-154.325	-0.125	0.008
-227.727	-123.130	0.117	-0.019
-226.713	-106.477	-0.250	-0.056
-225.698	-18.771	0.175	0.109
-224.684	-14.948	-0.140	-0.090
-223.669	352.064	0.124	-0.247
-222.655	-200.000	-0.010	-0.124
-221.640	51.761	0.363	0.346
-220.625	95.017	0.092	-0.105
-219.611	-200.000	0.020	0.276
-218.596	174.101	-0.128	0.185
-217.582	-200.000	-0.031	-0.317
-216.567	325.028	-0.143	-0.274
-215.552	188.811	-0.150	-0.225
-214.538	-74.472	0.146	0.053
-213.523	217.588	-0.029	0.046
-212.509	151.788	0.237	0.324
-211.494	61.378	-0.138	-0.137
-210.479	757.088	0.112	-0.303
-209.465	-200.000	-0.050	0.284
-208.450	-155.403	0.027	-0.002
-207.436	290.319	-0.059	0.108
-206.421	-200.000	0.071	-0.431
-205.406	800.000	0.068	-0.207
-204.392	17.863	0.065	-0.052
-203.377	41.324	0.006	0.006
-202.363	2.617	0.494	0.359
-201.348	-64.183	0.127	0.052
-200.333	800.000	-0.101	-0.281
-199.319	-90.479	-0.382	0.111
-198.304	-103.953	-0.066	0.015
-197.290	-200.000	-0.000	-0.070
-196.275	-37.188	-0.202	0.108
-195.260	800.000	-0.058	0.243
-194.246	4.836	-0.285	0.210
-193.231	13.336	-0.041	0.032
-192.217	125.679	-0.256	-0.323
-191.202	-80.278	0.351	0.117
-190.187	-35.569	-0.180	-0.098
-189.173	640.936	-0.081	-0.207
-188.158	800.000	0.093	0.261
-187.144	-7.880	0.223	0.151
-186.129	38.464	0.140	0.125
-185.114	-20.550	-0.322	0.198
-184.100	293.082	-0.100	-0.182
-183.085	-69.977	0.200	0.076
-182.071	616.467	-0.133	-0.335
-181.056	-39.829	-0.279	-0.146
-180.042	-135.608	0.394	-0.047
-179.027	223.088	-0.164	-0.265
-178.012	52.619	0.163	-0.156
-176.998	730.669	0.037	0.100
-175.983	-128.078	0.098	-0.014
-174.969	-108.832	-0.091	0.020
-173.954	800.000	0.022	0.095
-172.939	-137.093	-0.095	-0.011
-171.925	40.410	0.283	0.255
-170.910	800.000	0.035	0.125
-169.896	472.071	-0.178	-0.400
-168.881	-129.861	-0.244	-0.034
-167.866	615.159	0.213	0.534
-166.852	-200.000	-0.006	-0.042
-165.837	-35.505	-0.260	0.141
-164.823	-200.000	-0.069	0.367
-163.808	-200.000	0.024	0.279
-162.793	-40.580	-0.107	0.056
-161.779	-45.261	-0.314	-0.156
-160.764	-112.955	0.312	0.062
-159.750	-3.729	0.248	-0.172
-158.735	-200.000	0.034	-0.233
-157.720	-88.392	0.015	0.005
-156.706	36.198	0.181	-0.160
-155.691	86.055	-0.095	-0.105
-154.677	800.000	0.091	-0.327
-153.662	-200.000	-0.021	0.178
-152.647	-200.000	0.013	0.324
-151.633	175.591	-0.012	-0.018
-150.618	-113.920	0.202	0.039
-149.604	566.954	-0.136	0.329
-148.589	-14.162	-0.104	0.067
-147.574	800.000	-0.057	-0.170
-146.560	800.000	-0.054	-0.197
-145.545	800.000	0.050	-0.160
-144.531	11.278	-0.106	0.081
-143.516	-200.000	0.008	0.309
-142.502	800.000	-0.111	0.401
-141.487	-200.000	0.110	0.511
-140.472	262.973	0.057	0.098
-139.458	140.661	-0.043	0.057
-138.443	454.577	0.109	0.242
-137.429	592.472	0.095	0.234
-136.414	-59.600	-0.145	-0.062
-135.399	82.428	0.278	0.302
-134.385	-18.836	0.281	0.175
-133.370	38.809	0.073	0.065
-132.356	1.874	0.273	0.197
-131.341	22.281	0.124	0.101
-130.326	-75.937	-0.159	0.056
-129.312	59.144	-0.264	-0.259
-128.297	427.648	-0.057	-0.124
-127.283	-60.489	-0.136	-0.058
-126.268	-16.372	-0.250	0.159
-125.253	13.353	-0.037	-0.029
-124.239	-35.557	-0.172	-0.093
-123.224	62.331	-0.181	-0.180
-122.210	722.495	0.065	-0.173
-121.195	93.357	-0.240	0.271
-120.180	-174.177	-0.407	0.012
-119.166	800.000	-0.082	-0.256
-118.151	-200.000	0.011	0.093
-117.137	0.003	0.265	0.188
-116.122	487.624	0.031	-0.071
-115.107	-200.000	0.010	-0.098
-114.093	293.285	0.119	0.217
-113.078	90.867	-0.087	0.097
-112.064	-143.366	-0.259	-0.025
-111.049	-200.000	-0.022	-0.232
-110.034	-198.015	0.198	0.001
-109.020	-200.000	-0.002	-0.069
-108.005	-200.000	-0.025	-0.259
-106.991	-200.000	-0.031	0.137
-105.976	-200.000	-0.041	0.203
-104.962	800.000	0.055	0.162
-103.947	-108.262	-0.236	-0.051
-102.932	-105.774	0.290	0.065
-101.918	-80.180	-0.239	0.080
-100.903	800.000	-0.085	-0.266
-99.889	219.878	0.091	0.146
-98.874	-52.554	0.124	-0.057
-97.859	-5.227	-0.394	-0.270
-96.845	457.502	0.063	0.139
-95.830	-147.825	-0.123	-0.010
-94.816	800.000	-0.043	0.162
-93.801	84.339	-0.121	0.133
-92.786	-57.027	-0.149	-0.066
-91.772	-86.816	0.378	-0.115
-90.757	169.949	0.092	0.131
-89.743	800.000	-0.068	-0.261
-88.728	-200.000	0.028	0.318
-87.713	-28.703	-0.099	-0.057
-86.699	800.000	0.125	-0.420
-85.684	800.000	-0.066	-0.212
-84.670	-54.333	0.360	-0.163
-83.655	-12.687	0.255	0.166
-82.640	-200.000	-0.029	0.236
-81.626	-100.460	0.396	-0.098
-80.611	46.228	-0.180	0.166
-79.597	-129.439	0.105	0.015
-78.582	220.602	0.069	-0.110
-77.567	-88.289	-0.128	0.038
-76.553	-129.222	0.064	0.009
-75.538	-77.835	0.211	-0.073
-74.524	-35.977	-0.076	0.041
-73.509	78.124	0.295	-0.314
-72.494	206.657	0.076	0.117
-71.480	-168.803	-0.244	0.009
-70.465	-88.358	0.221	-0.066
-69.451	-108.193	0.173	-0.037
-68.436	-91.184	0.208	0.059
-67.422	41.944	-0.179	-0.162
-66.407	-99.953	0.475	-0.118
-65.392	217.600	0.175	-0.277
-64.378	567.957	-0.019	-0.047
-63.363	800.000	0.043	-0.162
-62.349	35.956	0.125	-0.110
-61.334	800.000	-0.354	-1.046
-60.319	-9.456	0.520	0.346
-59.305	-200.000	-0.139	-0.917
-58.290	105.846	0.676	0.797
-57.276	800.000	0.453	1.431
-56.261	-200.000	77.397	524.119
-55.246	514.186	1338.639	3112.108
-54.232	143.080	2587.150	3428.895
-53.217	114.369	2273.753	2758.667
-52.203	50.916	1792.998	1692.889
-51.188	43.638	1589.595	1448.911
-50.173	40.969	1559.502	1402.626
-49.159	57.136	1596.448	1551.226
-48.144	62.410	1616.585	1608.265
-47.130	44.243	1579.401	1443.694
-46.115	40.658	1564.866	1405.024
-45.100	40.474	1561.278	1400.454
-44.086	40.358	1559.425	1397.912
-43.071	40.405	1556.929	1395.952
-42.057	40.259	1554.867	1393.019
-41.042	40.261	1553.923	1392.135
-40.027	40.278	1552.123	1390.586
-39.013	40.330	1550.418	1389.366
-37.998	40.219	1549.421	1387.641
-36.984	40.316	1547.927	1386.928
-35.969	40.207	1546.657	1384.970
-34.954	40.365	1544.846	1384.400
-33.940	40.299	1543.415	1382.602
-32.925	40.321	1541.661	1381.127
-31.911	40.298	1541.049	1380.368
-30.896	40.367	1539.015	1378.965
-29.881	40.354	1537.818	1377.754
-28.867	40.246	1536.876	1376.103
-27.852	40.393	1535.114	1375.489
-26.838	40.324	1533.698	1373.685
-25.823	40.395	1532.373	1372.937
-24.809	40.349	1530.598	1370.978
-23.794	40.301	1529.267	1369.395
-22.779	40.324	1527.597	1368.010
-21.765	40.311	1527.013	1367.340
-20.750	40.345	1525.619	1366.272
-19.736	40.381	1524.614	1365.564
-18.721	40.391	1522.891	1364.039
-17.706	40.264	1522.227	1362.511
-16.692	40.258	1520.924	1361.251
-15.677	40.215	1520.245	1360.294
-14.663	40.260	1518.737	1359.202
-13.648	40.240	1517.696	1358.077
-12.633	40.257	1516.797	1357.338
-11.619	40.137	1516.119	1355.852
-10.604	40.188	1514.870	1355.030
-9.590	40.193	1514.670	1354.831
-8.575	40.285	1513.065	1353.972
-7.560	40.201	1512.389	1352.742
-6.546	40.231	1511.252	1351.872
-5.531	40.245	1510.381	1351.139
-4.517	40.234	1509.612	1350.321
-3.502	40.194	1508.968	1349.421
-2.487	40.201	1507.530	1348.129
-1.473	40.276	1506.187	1347.380
-0.458	40.331	1504.886	1346.538
0.556	39.713	1495.213	1336.624
1.571	36.605	1467.083	1290.659
2.586	31.598	1400.199	1199.709
3.600	27.658	1312.055	1100.368
4.615	24.533	1261.441	1039.667
5.629	20.133	1202.954	966.888
6.644	10.565	1111.850	844.023
7.659	2.554	1065.856	768.947
8.673	1.108	1059.671	757.201
9.688	0.943	1057.084	754.460
10.702	0.830	1055.833	752.938
11.717	0.760	1054.136	751.315
12.731	3.119	1056.515	764.682
13.746	11.389	1068.102	814.424
14.761	17.338	1074.865	849.309
15.775	17.893	1074.454	851.679
16.790	17.234	1072.583	846.834
17.804	16.262	1069.993	839.880
18.819	15.408	1068.532	834.414
19.834	14.801	1067.287	830.352
20.848	14.482	1066.121	827.792
21.863	14.202	1065.210	825.622
22.877	14.025	1064.530	824.141
23.892	13.798	1063.821	822.395
24.907	13.789	1062.888	821.559
25.921	13.629	1062.135	820.110
26.936	13.726	1061.660	820.150
27.950	13.670	1060.865	819.190
28.965	13.736	1060.235	818.957
29.980	13.814	1059.852	818.973
30.994	13.903	1058.136	818.012
32.009	13.951	1057.328	817.553
33.023	13.893	1056.838	816.816
34.038	13.925	1055.945	816.209
35.053	13.933	1055.254	815.640
36.067	13.833	1054.223	814.282
37.082	13.755	1053.835	813.531
38.096	13.900	1052.098	812.826
39.111	13.907	1051.654	812.445
40.126	13.902	1050.441	811.411
41.140	13.856	1049.853	810.659
42.155	13.725	1048.957	809.256
43.169	13.749	1047.682	808.322
44.184	13.723	1046.792	807.437
45.199	13.725	1045.785	806.594
46.213	13.726	1044.409	805.469
47.228	13.749	1043.773	805.021
48.242	13.990	1042.306	804.985
49.257	13.636	1041.955	802.925
50.271	13.783	1041.039	802.862
51.286	13.801	1039.721	801.861
52.301	13.880	1039.117	801.706
53.315	13.845	1038.580	801.051
54.330	13.743	1037.661	799.779
55.344	13.728	1036.965	799.100
56.359	13.701	1035.716	797.939
57.374	13.608	1034.713	796.645
58.388	13.808	1033.522	796.618
59.403	13.621	1033.139	795.355
60.417	13.653	1032.366	794.842
61.432	13.727	1031.471	794.441
62.447	13.685	1030.956	793.774
63.461	13.731	1029.863	793.080
64.476	13.671	1029.007	792.062
65.490	13.599	1028.501	791.262
66.505	13.594	1027.835	790.654
67.520	13.793	1026.141	790.229
68.534	13.705	1025.723	789.416
69.549	13.629	1025.315	788.671
70.563	13.631	1024.414	787.921
71.578	13.624	1023.722	787.286
72.593	13.592	1023.230	786.686
73.607	13.639	1021.755	785.705
74.622	13.634	1021.033	785.055
75.636	13.596	1020.286	784.230
76.651	13.596	1019.095	783.249
77.666	13.581	1018.966	783.008
78.680	13.576	1018.135	782.276
79.695	13.555	1017.303	781.469
80.709	13.516	1016.839	780.860
81.724	13.608	1015.854	780.468
82.739	13.589	1015.243	779.839
83.753	13.641	1014.484	779.433
84.768	13.664	1013.744	778.903
85.782	13.796	1013.253	779.076
86.797	13.735	1012.293	777.980
87.812	13.774	1011.169	777.234
88.826	13.718	1010.524	776.406
89.841	13.720	1009.553	775.598
90.855	13.839	1008.341	775.155
91.870	13.826	1007.882	774.674
92.884	13.869	1007.019	774.144
93.899	13.819	1006.524	773.460
94.914	13.942	1005.529	773.201
95.928	13.873	1005.081	772.467
96.943	13.918	1004.206	771.937
97.957	13.927	1003.198	771.132
98.972	13.921	1002.693	770.650
99.987	13.699	1001.944	768.977
101.001	13.848	1000.950	768.837
102.016	13.959	999.979	768.536
103.030	13.842	999.491	767.551
104.045	13.836	998.379	766.601
105.060	13.954	997.306	766.256
106.074	13.869	996.444	765.132
107.089	13.700	995.435	763.512
108.103	13.669	994.827	762.837
109.118	13.698	993.758	762.081
110.133	13.731	993.018	761.599
111.147	13.714	991.689	760.433
112.162	13.781	991.112	760.229
113.176	13.712	990.546	759.414
114.191	13.806	989.675	759.107
115.206	13.736	988.908	758.133
116.220	13.826	988.079	757.839
117.235	13.722	987.296	756.700
118.249	13.812	986.238	756.231
119.264	13.844	985.326	755.610
120.279	13.717	984.629	754.431
121.293	13.805	983.360	753.792
122.308	13.769	983.060	753.334
123.322	13.643	982.326	752.131
124.337	13.742	980.827	751.366
125.352	13.815	979.791	750.836
126.366	13.805	979.046	750.153
127.381	13.767	978.005	749.119
128.395	13.770	977.093	748.366
129.410	13.671	976.430	747.345
130.424	13.737	975.592	746.938
131.439	13.869	974.114	746.330
132.454	13.762	973.347	745.199
133.468	13.897	972.408	745.019
134.483	13.933	972.080	744.863
135.497	13.878	971.376	744.013
136.512	13.830	970.702	743.212
137.527	13.872	969.699	742.569
138.541	13.887	969.048	742.070
139.556	13.854	968.031	741.080
140.570	13.940	967.347	740.874
141.585	13.943	966.532	740.198
142.600	14.027	965.932	740.048
143.614	14.046	965.304	739.586
144.629	14.087	964.274	738.912
145.643	14.033	963.563	738.062
146.658	13.988	963.063	737.412
147.673	13.852	962.070	735.984
148.687	13.957	961.125	735.664
149.702	13.836	960.153	734.319
150.716	13.738	959.520	733.334
151.731	13.936	958.182	733.124
152.746	13.947	957.810	732.820
153.760	13.866	956.948	731.741
154.775	13.845	956.318	731.101
155.789	13.928	955.468	730.750
156.804	13.970	954.788	730.350
157.819	13.925	953.968	729.461
158.833	13.944	953.410	729.053
159.848	14.055	953.027	729.185
160.862	14.079	951.845	728.319
161.877	14.056	951.690	728.036
162.892	14.053	950.799	727.275
163.906	13.837	949.883	725.566
164.921	13.845	948.944	724.823
165.935	13.952	947.912	724.436
166.950	14.092	946.757	724.097
167.964	14.083	946.194	723.566
168.979	14.176	944.656	722.729
169.994	13.970	944.201	721.423
171.008	13.997	943.230	720.736
172.023	14.150	942.670	720.904
173.037	14.158	941.600	720.060
174.052	14.178	940.855	719.509
175.067	14.134	940.354	718.876
176.081	14.126	939.743	718.311
177.096	13.998	939.215	717.290
178.110	14.042	938.182	716.628
179.125	14.109	937.183	716.090
180.140	14.185	936.366	715.729
181.154	14.135	935.830	715.040
182.169	14.151	935.398	714.715
183.183	14.077	934.640	713.754
184.198	14.181	934.001	713.651
185.213	14.310	933.038	713.404
186.227	14.133	932.914	712.487
187.242	14.237	932.411	712.487
188.256	14.363	931.550	712.305
189.271	14.470	930.564	711.945
190.286	14.104	930.482	710.257
191.300	14.199	929.051	709.504
192.315	14.217	928.223	708.885
193.329	14.102	927.826	708.029
194.344	14.102	927.344	707.599
195.359	14.290	926.345	707.575
196.373	14.157	926.175	706.816
197.388	14.373	925.309	707.010
198.402	14.408	924.820	706.724
199.417	14.358	924.796	706.431
200.432	14.287	924.302	705.690
201.446	14.301	923.879	705.363
202.461	14.640	922.888	705.979
203.475	14.596	922.544	705.466
204.490	14.517	922.129	704.752
205.504	14.527	920.758	703.682
206.519	14.600	920.218	703.517
207.534	14.508	919.517	702.530
208.548	14.497	918.670	701.776
209.563	14.609	918.194	701.821
210.577	14.680	917.087	701.212
211.592	14.631	916.463	700.468
212.607	14.470	916.532	699.783
213.621	14.620	915.744	699.746
214.636	14.650	914.855	699.129
215.650	14.628	914.398	698.630
216.665	14.654	913.520	698.004
217.680	14.775	913.167	698.179
218.694	14.882	912.342	697.934
219.709	14.761	912.159	697.225
220.723	14.705	911.668	696.553
221.738	14.767	910.916	696.177
222.753	14.835	910.178	695.837
223.767	14.851	908.945	694.896
224.782	14.928	908.148	694.547
225.796	14.869	907.467	693.718
226.811	14.906	906.686	693.213
227.826	14.920	906.188	692.828
228.840	14.835	905.750	692.084
229.855	14.958	904.996	691.954
230.869	14.795	904.282	690.671
231.884	14.839	903.867	690.475
232.899	14.879	903.019	689.931
233.913	14.812	902.273	689.027
234.928	14.908	901.511	688.777
235.942	14.836	901.412	688.344
236.957	14.873	900.270	687.564
237.972	14.870	899.459	686.870
238.986	14.940	898.789	686.588
240.001	14.756	898.351	685.438
241.015	14.871	897.748	685.386
242.030	15.001	896.573	684.962
243.045	15.025	895.875	684.467
244.059	15.047	895.485	684.196
245.074	15.040	894.976	683.719
246.088	15.069	894.289	683.250
247.103	15.013	893.725	682.533
248.117	15.076	893.133	682.275
249.132	15.090	893.030	682.194
250.147	15.186	891.929	681.684
251.161	15.388	890.897	681.656
252.176	15.222	890.716	680.782
253.190	15.356	890.100	680.796
254.205	15.250	889.520	679.861
255.220	15.391	888.741	679.776
256.234	15.322	888.180	679.008
257.249	15.319	887.550	678.453
258.263	15.379	886.996	678.213
259.278	15.295	886.872	677.721
260.293	15.291	886.122	677.070
261.307	15.426	885.228	676.870
262.322	15.513	884.435	676.555
263.336	15.537	883.801	676.109
264.351	15.646	883.323	676.123
265.366	15.435	883.347	675.229
266.380	15.594	882.332	675.035
267.395	15.591	881.417	674.263
268.409	15.652	880.675	673.880
269.424	15.723	880.026	673.607
270.439	15.585	879.058	672.254
271.453	15.590	878.685	671.931
272.468	15.611	878.036	671.460
273.482	15.526	877.431	670.595
274.497	15.685	876.999	670.841
275.512	15.584	876.066	669.665
276.526	15.576	875.420	669.083
277.541	15.715	874.961	669.224
278.555	15.767	874.327	668.885
279.570	15.610	873.936	667.905
280.585	15.700	873.441	667.824
281.599	15.647	872.611	666.923
282.614	15.779	871.776	666.746
283.628	15.736	871.541	666.338
284.643	15.684	870.849	665.544
285.657	15.759	870.513	665.523
286.672	15.892	869.805	665.452
287.687	15.827	869.173	664.653
288.701	15.842	869.009	664.525
289.716	15.780	868.473	663.813
290.730	15.725	867.774	663.001
291.745	15.849	867.070	662.896
292.760	15.913	866.271	662.479
293.774	15.915	865.559	661.884
294.789	15.960	865.102	661.653
295.803	16.005	864.817	661.553
296.818	15.925	864.147	660.666
297.833	15.997	863.186	660.154
298.847	15.950	862.653	659.507
299.862	15.951	861.921	658.890
300.876	16.063	860.939	658.520
301.891	16.017	860.360	657.837
302.906	15.909	860.092	657.153
303.920	16.194	858.806	657.223
304.935	16.000	858.580	656.236
305.949	16.289	857.896	656.783
306.964	16.141	857.382	655.753
307.979	16.352	856.264	655.661
308.993	16.211	856.187	654.997
310.008	16.177	856.055	654.706
311.022	16.251	854.826	653.995
312.037	16.316	854.478	653.921
313.052	16.099	854.363	652.936
314.066	16.295	853.071	652.648
315.081	16.140	852.800	651.785
316.095	16.177	852.520	651.655
317.110	16.384	851.345	651.499
318.125	16.307	851.121	650.971
319.139	16.266	850.530	650.305
320.154	16.254	850.196	649.943
321.168	16.227	849.712	649.413
322.183	16.309	848.819	648.989
323.197	16.275	848.588	648.625
324.212	16.367	847.738	648.269
325.227	16.240	847.614	647.630
326.241	16.250	847.109	647.226
327.256	16.316	846.397	646.878
328.270	16.360	845.593	646.376
329.285	16.449	845.014	646.214
330.300	16.395	844.696	645.709
331.314	16.496	843.940	645.459
332.329	16.499	843.228	644.870
333.343	16.567	842.396	644.435
334.358	16.551	842.072	644.069
335.373	16.473	841.718	643.444
336.387	16.553	840.788	642.978
337.402	16.558	840.471	642.699
338.416	16.590	840.039	642.432
339.431	16.608	839.654	642.151
340.446	16.624	838.853	641.542
341.460	16.579	838.326	640.912
342.475	16.731	837.937	641.132
343.489	16.776	837.264	640.733
344.504	16.784	836.787	640.340
345.519	16.833	836.232	640.044
346.533	16.797	835.718	639.459
347.548	16.839	835.296	639.238
348.562	16.773	834.736	638.504
349.577	16.769	834.404	638.176
350.592	16.747	833.687	637.490
351.606	16.767	832.970	636.963
352.621	16.696	833.065	636.712
353.635	16.711	832.066	635.948
354.650	16.769	831.859	635.949
355.665	16.821	831.608	635.895
356.679	16.910	830.921	635.648
357.694	16.893	830.329	635.077
358.708	16.794	830.000	634.399
359.723	16.857	829.375	634.099
360.738	16.859	828.699	633.534
361.752	16.996	828.271	633.663
362.767	17.018	827.484	633.085
363.781	16.836	827.591	632.433
364.796	16.860	827.666	632.524
365.810	16.941	826.524	631.895
366.825	16.834	826.297	631.270
367.840	17.262	825.799	632.424
368.854	17.169	825.498	631.792
369.869	17.115	824.853	631.042
370.883	17.160	824.382	630.792
371.898	17.064	823.981	630.075
372.913	17.125	823.397	629.797
373.927	17.147	822.525	629.159
374.942	17.216	822.053	628.998
375.956	17.200	821.335	628.333
376.971	17.204	820.759	627.851
377.986	17.367	819.682	627.574
379.000	17.172	820.005	627.046
380.015	17.194	819.701	626.836
381.029	17.377	818.854	626.808
382.044	17.325	817.929	625.854
383.059	17.490	817.221	625.865
384.073	17.219	817.031	624.666
385.088	17.389	816.358	624.722
386.102	17.429	815.433	624.105
387.117	17.474	814.943	623.841
388.132	17.365	814.908	623.358
389.146	17.387	814.368	622.970
390.161	17.468	813.854	622.819
391.175	17.398	813.858	622.510
392.190	17.459	813.358	622.294
393.205	17.428	813.036	621.880
394.219	17.550	812.236	621.658
395.234	17.638	811.659	621.482
396.248	17.321	811.710	620.313
397.263	17.482	810.738	620.102
398.278	17.390	810.582	619.592
399.292	17.350	810.392	619.245
400.307	17.326	809.651	618.537
401.321	17.462	808.946	618.440
402.336	17.470	808.783	618.286
403.350	17.520	808.721	618.367
404.365	17.612	808.285	618.315
405.380	17.461	807.759	617.308
406.394	17.625	806.802	617.118
407.409	17.687	806.287	616.892
408.423	17.626	806.130	616.497
409.438	17.817	805.907	616.964
410.453	17.810	805.061	616.234
411.467	17.739	804.748	615.685
412.482	17.825	804.026	615.389
413.496	17.775	803.795	614.975
414.511	17.917	803.288	615.045
415.526	17.877	802.974	614.605
416.540	17.927	802.618	614.462
417.555	17.848	802.126	613.743
418.569	17.774	801.700	613.098
419.584	17.901	801.093	613.035
420.599	17.943	800.537	612.709
421.613	94.157	1266.758	1380.833
422.628	80.520	1334.728	1380.950
