DTS Sentinel unit serial number:	SN413079Multiplexer serial number:	ORYXHardware model number:	OX4-SRSoftware version number:	ORYX F/W v4.00 Oryx Data Collector v3.7.2.0data status	okinstallation	princeton_trtdifferential loss correction	single-endedforward channel	channel 3reverse channel	N/Adate	2019/09/19time	00:56:35forward acquisition time	60.00reverse acquisition time	0.00gamma	496.2192k internal	0.2347k external	0.2347temperature offset calibration	0.9989default loss term (dB/km)	0.3790temperature slope calibration	1.0000multiplexer offset coefficient	1.0000multiplexer slope coefficient	1.0000fibre end	0.00T internal ref (°C)	22.00T ext. ref 1 (°C)	0.71T ext. ref 2 (°C)	15.44length (m)	temperature (°C)	Stokes	anti-Stokes-747.200	800.000	0.040	-0.115
-746.185	193.403	-0.073	0.110
-745.171	57.237	0.051	-0.050
-744.156	-6.402	-0.402	-0.274
-743.142	-16.561	0.117	-0.074
-742.127	-200.000	-0.104	0.682
-741.112	-200.000	-0.049	0.295
-740.098	257.954	-0.077	0.133
-739.083	46.709	0.215	-0.200
-738.069	122.331	-0.008	0.010
-737.054	-200.000	-0.020	0.106
-736.039	296.265	-0.088	0.162
-735.025	641.184	0.201	0.512
-734.010	-157.714	0.129	-0.008
-732.996	-163.275	-0.290	-0.014
-731.981	100.415	0.148	-0.171
-730.966	-200.000	0.006	0.029
-729.952	320.246	0.081	0.154
-728.937	228.817	-0.128	0.208
-727.923	-16.608	-0.109	-0.069
-726.908	800.000	0.027	0.109
-725.894	113.747	0.158	0.191
-724.879	-200.000	-0.008	0.177
-723.864	-200.000	0.001	0.200
-722.850	-200.000	-0.067	0.353
-721.835	-117.741	0.208	-0.037
-720.821	800.000	0.054	-0.186
-719.806	-194.180	-0.355	-0.003
-718.791	-125.604	-0.261	0.040
-717.777	-200.000	0.001	-0.058
-716.762	3.146	-0.222	-0.161
-715.748	14.531	0.182	0.142
-714.733	-75.035	-0.163	-0.058
-713.718	800.000	-0.070	0.301
-712.704	-200.000	0.040	0.221
-711.689	280.889	0.161	0.288
-710.675	-157.137	-0.500	-0.030
-709.660	103.181	-0.163	-0.190
-708.645	3.113	-0.081	-0.059
-707.631	-200.000	0.019	0.151
-706.616	-142.988	0.092	0.009
-705.602	6.516	-0.222	0.164
-704.587	-200.000	-0.054	0.266
-703.572	133.158	0.105	-0.135
-702.558	119.027	-0.157	-0.194
-701.543	146.329	0.183	-0.245
-700.529	115.976	-0.122	-0.149
-699.514	318.921	0.039	-0.073
-698.499	5.795	0.078	-0.057
-697.485	244.092	-0.132	-0.220
-696.470	90.885	0.169	-0.188
-695.456	96.004	-0.245	0.280
-694.441	-34.153	-0.213	-0.117
-693.426	-200.000	0.002	0.017
-692.412	-200.000	-0.020	-0.197
-691.397	19.100	-0.145	-0.116
-690.383	-200.000	0.009	-0.111
-689.368	38.737	0.164	0.146
-688.354	-153.689	0.141	-0.010
-687.339	-170.943	0.285	0.010
-686.324	-200.000	0.050	-0.259
-685.310	-89.521	-0.353	0.103
-684.295	642.488	0.093	0.237
-683.281	-42.453	0.039	0.020
-682.266	-200.000	0.090	-0.437
-681.251	227.392	-0.102	-0.166
-680.237	800.000	0.131	0.527
-679.222	-45.105	-0.271	0.134
-678.208	269.909	-0.027	0.048
-677.193	215.473	0.188	0.297
-676.178	-4.882	0.154	0.106
-675.164	73.933	-0.203	-0.212
-674.149	-78.665	-0.330	0.112
-673.135	71.977	-0.137	0.142
-672.120	-200.000	0.017	-0.166
-671.105	-99.984	0.179	-0.045
-670.091	-174.018	-0.382	-0.011
-669.076	633.882	-0.067	-0.169
-668.062	-70.547	-0.115	0.043
-667.047	22.537	0.236	-0.192
-666.032	-55.293	0.104	0.047
-665.018	252.585	-0.163	-0.276
-664.003	678.967	-0.052	-0.135
-662.989	800.000	-0.037	0.147
-661.974	800.000	-0.072	-0.246
-660.959	138.648	0.191	-0.250
-659.945	-87.576	-0.234	-0.071
-658.930	258.604	0.226	-0.388
-657.916	-3.882	-0.133	0.092
-656.901	-159.250	-0.163	0.009
-655.886	7.360	0.171	-0.127
-654.872	-200.000	-0.043	-0.373
-653.857	-97.387	0.223	-0.058
-652.843	-200.000	0.003	-0.224
-651.828	0.783	0.059	0.042
-650.814	398.397	-0.074	0.153
-649.799	-200.000	0.049	0.223
-648.784	-200.000	0.018	0.125
-647.770	-179.516	0.350	-0.008
-646.755	169.088	0.096	-0.136
-645.741	800.000	-0.042	0.129
-644.726	-82.992	-0.051	-0.016
-643.711	77.621	-0.088	0.093
-642.697	38.922	0.146	-0.130
-641.682	-200.000	0.010	-0.419
-640.668	-19.098	-0.287	0.178
-639.653	131.161	-0.134	-0.171
-638.638	455.126	-0.116	-0.256
-637.624	-200.000	-0.069	-0.402
-636.609	-115.947	-0.209	0.039
-635.595	-67.543	-0.022	-0.009
-634.580	-155.551	0.138	-0.009
-633.565	-17.028	-0.103	0.065
-632.551	-200.000	0.027	-0.209
-631.536	252.521	0.180	0.306
-630.522	422.094	-0.086	0.184
-629.507	-9.556	0.170	-0.113
-628.492	391.186	0.191	-0.395
-627.478	-119.545	-0.315	-0.054
-626.463	-200.000	-0.019	-0.186
-625.449	270.813	-0.016	-0.028
-624.434	-135.044	-0.299	0.036
-623.419	-125.589	-0.123	0.019
-622.405	-114.549	-0.417	-0.080
-621.390	-119.141	-0.385	0.067
-620.376	-33.039	-0.339	0.187
-619.361	-109.463	-0.145	0.031
-618.346	-57.089	0.259	0.114
-617.332	-200.000	0.001	0.209
-616.317	120.389	0.184	-0.228
-615.303	-91.999	-0.114	-0.032
-614.288	-12.670	0.158	-0.103
-613.273	66.731	-0.133	0.135
-612.259	119.457	-0.076	0.094
-611.244	-200.000	0.001	0.097
-610.230	800.000	-0.109	0.319
-609.215	-122.367	-0.067	0.011
-608.201	800.000	0.066	0.220
-607.186	-93.810	0.191	0.052
-606.171	543.655	0.225	-0.533
-605.157	-34.517	-0.202	0.110
-604.142	800.000	0.072	0.223
-603.128	103.187	-0.071	0.082
-602.113	48.508	0.295	-0.275
-601.098	202.405	-0.042	0.064
-600.084	-29.607	-0.050	-0.028
-599.069	-104.751	0.155	-0.036
-598.055	3.000	-0.244	0.176
-597.040	49.581	-0.257	0.240
-596.025	800.000	0.122	0.341
-595.011	596.520	-0.125	-0.308
-593.996	245.505	-0.091	-0.152
-592.982	192.481	0.127	0.190
-591.967	-145.488	0.292	0.026
-590.952	180.300	-0.039	-0.056
-589.938	236.104	-0.084	0.139
-588.923	-200.000	-0.010	-0.205
-587.909	-39.391	-0.097	0.051
-586.894	247.320	0.143	0.239
-585.879	535.684	-0.183	-0.432
-584.865	-110.211	-0.468	-0.097
-583.850	-200.000	0.315	-0.001
-582.836	105.415	-0.161	0.189
-581.821	-62.407	0.262	0.108
-580.806	210.292	0.045	0.069
-579.792	32.603	-0.102	0.087
-578.777	-84.466	-0.263	-0.083
-577.763	800.000	0.070	-0.248
-576.748	52.011	0.146	-0.138
-575.733	-88.226	-0.249	-0.074
-574.719	-200.000	0.027	-0.195
-573.704	784.534	-0.134	-0.364
-572.690	29.325	-0.082	-0.069
-571.675	-50.315	0.059	0.028
-570.661	-131.027	0.331	-0.044
-569.646	-124.374	-0.230	-0.036
-568.631	-186.467	-0.132	0.002
-567.617	-200.000	0.018	-0.180
-566.602	163.874	-0.128	-0.179
-565.588	203.294	0.103	0.158
-564.573	-61.404	0.295	-0.123
-563.558	-85.675	-0.076	-0.024
-562.544	9.103	-0.339	-0.254
-561.529	-26.881	-0.148	0.086
-560.515	800.000	-0.017	-0.073
-559.500	-200.000	0.022	-0.175
-558.485	-108.767	-0.267	-0.057
-557.471	93.765	0.203	0.228
-556.456	800.000	-0.019	0.065
-555.442	-200.000	-0.038	-0.181
-554.427	110.339	-0.066	-0.079
-553.412	800.000	-0.138	0.479
-552.398	-31.746	-0.349	-0.194
-551.383	-156.268	-0.118	-0.007
-550.369	-46.739	0.055	0.027
-549.354	800.000	-0.048	-0.161
-548.339	-60.766	-0.196	-0.082
-547.325	-49.844	-0.083	0.039
-546.310	86.689	0.164	-0.180
-545.296	-27.398	0.041	-0.024
-544.281	-39.784	-0.094	0.049
-543.266	-157.744	-0.291	-0.017
-542.252	-43.982	0.217	0.108
-541.237	-200.000	0.025	-0.126
-540.223	-87.646	0.591	0.177
-539.208	47.525	-0.145	0.134
-538.193	456.132	-0.062	-0.136
-537.179	-33.570	-0.096	-0.053
-536.164	-200.000	-0.006	0.093
-535.150	24.417	-0.058	0.048
-534.135	85.163	-0.067	0.073
-533.121	438.474	0.032	0.070
-532.106	189.331	0.189	0.281
-531.091	-69.415	0.228	-0.087
-530.077	323.361	-0.145	0.274
-529.062	254.975	0.150	-0.255
-528.048	-8.562	0.142	0.095
-527.033	129.145	0.192	0.242
-526.018	-50.487	-0.146	0.068
-525.004	800.000	-0.079	-0.276
-523.989	88.701	0.109	0.120
-522.975	235.831	-0.096	-0.158
-521.960	-135.346	0.180	-0.021
-520.945	-71.393	0.119	-0.044
-519.931	-22.573	-0.283	-0.169
-518.916	-200.000	-0.040	-0.228
-517.902	220.934	-0.232	0.369
-516.887	732.170	-0.071	-0.189
-515.872	-200.000	0.002	-0.321
-514.858	-132.261	0.274	0.035
-513.843	-105.851	0.160	-0.036
-512.829	-13.511	-0.099	0.063
-511.814	610.759	0.044	0.108
-510.799	-1.966	0.329	-0.229
-509.785	-148.595	0.128	0.010
-508.770	40.240	0.087	-0.077
-507.756	800.000	0.070	-0.282
-506.741	0.297	0.165	-0.117
-505.726	-200.000	-0.005	0.165
-504.712	605.393	-0.075	0.185
-503.697	671.882	0.085	0.218
-502.683	-200.000	0.016	-0.307
-501.668	-200.000	0.022	-0.218
-500.653	-106.823	-0.137	-0.030
-499.639	-63.574	-0.144	-0.058
-498.624	-126.481	-0.396	0.058
-497.610	800.000	0.082	0.294
-496.595	-200.000	-0.029	0.165
-495.581	-72.562	-0.095	0.035
-494.566	-200.000	-0.015	0.377
-493.551	734.817	0.063	0.168
-492.537	363.790	0.079	-0.157
-491.522	-158.006	0.279	0.016
-490.508	193.685	-0.008	-0.013
-489.493	281.552	-0.182	-0.322
-488.478	59.964	-0.171	0.167
-487.464	-200.000	0.147	0.001
-486.449	42.053	-0.276	-0.248
-485.435	-95.332	-0.109	-0.029
-484.420	4.855	0.254	-0.184
-483.405	78.848	0.173	-0.184
-482.391	-109.585	-0.138	-0.029
-481.376	-31.665	0.235	0.131
-480.362	143.908	0.067	-0.088
-479.347	44.240	0.167	0.152
-478.332	-99.808	-0.064	-0.016
-477.318	-200.000	0.059	-0.275
-476.303	-200.000	0.197	-0.001
-475.289	800.000	0.043	0.156
-474.274	3.581	-0.105	0.076
-473.259	-50.012	0.019	-0.009
-472.245	517.349	-0.067	0.154
-471.230	-84.819	0.390	-0.121
-470.216	-168.258	0.014	-0.001
-469.201	-124.728	-0.164	-0.025
-468.186	267.424	-0.146	0.253
-467.172	284.590	-0.038	0.068
-466.157	-144.938	-0.081	-0.007
-465.143	37.467	-0.154	-0.135
-464.128	-200.000	0.020	0.183
-463.113	91.438	0.130	-0.144
-462.099	315.114	0.099	0.185
-461.084	122.429	0.107	0.132
-460.070	317.845	-0.082	0.153
-459.055	15.853	0.132	-0.103
-458.040	133.535	-0.059	0.075
-457.026	-124.938	0.335	-0.051
-456.011	-100.933	-0.233	0.056
-454.997	-29.594	-0.184	-0.104
-453.982	428.599	0.050	0.107
-452.968	229.392	0.172	-0.277
-451.953	-200.000	0.193	-0.000
-450.938	237.860	0.155	-0.254
-449.924	-78.745	-0.180	0.061
-448.909	72.931	0.207	0.214
-447.895	800.000	0.025	-0.091
-446.880	-124.587	-0.213	-0.033
-445.865	-56.091	0.187	-0.082
-444.851	181.568	0.184	-0.268
-443.836	570.818	-0.053	0.127
-442.822	78.169	0.043	0.045
-441.807	-200.000	-0.008	-0.061
-440.792	54.763	-0.093	0.088
-439.778	-200.000	0.012	0.081
-438.763	354.418	-0.105	-0.207
-437.749	-200.000	-0.008	0.075
-436.734	49.851	0.022	0.021
-435.719	-124.321	-0.157	-0.024
-434.705	12.627	-0.053	-0.041
-433.690	-45.372	-0.221	0.108
-432.676	11.493	0.211	-0.160
-431.661	800.000	-0.024	-0.102
-430.646	-32.990	-0.415	0.228
-429.632	400.990	-0.070	-0.144
-428.617	-200.000	-0.032	0.183
-427.603	-100.796	0.121	0.029
-426.588	-200.000	0.018	-0.233
-425.573	-195.315	-0.132	-0.001
-424.559	-200.000	0.056	0.293
-423.544	-200.000	-0.004	-0.173
-422.530	792.424	0.041	0.110
-421.515	107.390	-0.147	-0.172
-420.500	-2.135	0.153	-0.106
-419.486	-43.561	0.236	-0.118
-418.471	-200.000	-0.024	0.574
-417.457	453.198	0.164	0.357
-416.442	-200.000	-0.060	0.267
-415.428	-110.721	0.254	0.052
-414.413	114.972	-0.327	0.393
-413.398	800.000	-0.072	-0.237
-412.384	800.000	0.037	-0.134
-411.369	475.738	0.085	-0.189
-410.355	-102.186	0.103	-0.024
-409.340	-55.641	-0.197	0.087
-408.325	-168.807	0.253	-0.009
-407.311	-162.447	-0.050	-0.002
-406.296	-88.007	-0.364	-0.108
-405.282	137.723	0.123	-0.158
-404.267	55.395	-0.079	0.076
-403.252	59.443	0.117	0.113
-402.238	-94.114	-0.200	-0.054
-401.223	-83.563	0.099	-0.031
-400.209	-200.000	0.007	0.112
-399.194	-78.576	0.165	-0.056
-398.179	-97.594	-0.327	0.084
-397.165	324.406	-0.060	-0.113
-396.150	-62.002	-0.122	-0.050
-395.136	-74.557	-0.276	-0.098
-394.121	53.399	-0.090	0.085
-393.106	106.033	-0.205	0.240
-392.092	71.400	-0.028	-0.029
-391.077	-103.420	0.148	-0.034
-390.063	85.452	-0.167	0.180
-389.048	800.000	0.034	-0.105
-388.033	409.029	-0.138	0.288
-387.019	800.000	0.055	0.176
-386.004	800.000	-0.069	0.218
-384.990	-75.564	0.087	-0.030
-383.975	-167.845	0.427	0.017
-382.960	50.559	0.092	-0.086
-381.946	74.258	-0.112	-0.116
-380.931	-28.417	0.284	0.161
-379.917	32.540	-0.236	-0.201
-378.902	800.000	0.054	0.214
-377.888	44.311	-0.161	-0.145
-376.873	86.288	-0.066	0.072
-375.858	549.519	-0.099	-0.233
-374.844	-21.322	-0.115	-0.069
-373.829	7.659	0.197	0.145
-372.815	-119.590	0.128	-0.022
-371.800	41.477	-0.098	-0.087
-370.785	-57.971	0.131	-0.056
-369.771	-27.613	0.243	0.139
-368.756	-7.115	-0.086	-0.057
-367.742	-200.000	-0.006	-0.134
-366.727	31.671	0.178	-0.151
-365.712	-134.699	0.248	-0.030
-364.698	32.997	-0.081	0.069
-363.683	432.298	-0.019	-0.041
-362.669	800.000	0.070	-0.253
-361.654	-57.693	-0.099	0.043
-360.639	528.540	0.041	0.094
-359.625	-25.629	-0.030	-0.017
-358.610	-96.158	-0.054	0.014
-357.596	234.856	0.103	0.167
-356.581	60.548	-0.178	0.173
-355.566	37.428	0.113	0.099
-354.552	-157.884	0.141	0.008
-353.537	391.802	-0.095	0.193
-352.523	518.444	0.168	0.386
-351.508	6.114	-0.171	-0.125
-350.493	428.507	0.057	-0.121
-349.479	-165.967	0.207	0.009
-348.464	800.000	0.048	-0.132
-347.450	263.707	-0.011	-0.019
-346.435	-67.508	0.295	-0.114
-345.420	443.880	0.026	-0.056
-344.406	706.653	-0.079	0.206
-343.391	-2.667	0.146	-0.101
-342.377	54.382	-0.248	-0.235
-341.362	-200.000	0.041	-0.326
-340.348	-98.784	-0.245	0.061
-339.333	125.950	-0.058	-0.072
-338.318	-24.344	0.170	-0.100
-337.304	-97.173	0.062	-0.016
-336.289	-200.000	0.013	-0.311
-335.275	441.992	0.062	-0.134
-334.260	-33.965	-0.122	-0.066
-333.245	-139.275	0.251	-0.027
-332.231	216.695	0.045	-0.071
-331.216	171.935	-0.090	-0.127
-330.202	143.559	-0.110	0.144
-329.187	139.274	0.116	-0.151
-328.172	189.411	-0.215	0.318
-327.158	-97.985	-0.068	0.017
-326.143	-37.364	-0.592	-0.311
-325.129	413.239	-0.148	-0.309
-324.114	800.000	0.036	0.103
-323.099	-200.000	-0.003	0.236
-322.085	95.728	0.207	-0.232
-321.070	-43.274	-0.194	0.097
-320.056	671.232	0.085	0.215
-319.041	800.000	0.061	0.250
-318.026	440.821	0.089	0.191
-317.012	-50.863	-0.171	0.079
-315.997	-86.605	0.173	0.052
-314.983	47.432	0.013	-0.012
-313.968	15.416	0.164	-0.127
-312.953	241.146	0.228	0.374
-311.939	-87.453	0.257	0.076
-310.924	-150.212	0.594	-0.045
-309.910	800.000	0.092	-0.292
-308.895	623.950	0.113	0.280
-307.880	-68.656	-0.045	-0.017
-306.866	-98.934	-0.226	-0.056
-305.851	-200.000	-0.013	-0.212
-304.837	1.259	0.188	-0.133
-303.822	553.644	-0.192	0.453
-302.807	-118.330	0.073	-0.013
-301.793	-193.515	0.185	-0.002
-300.778	-200.000	0.001	-0.182
-299.764	-76.551	-0.124	0.043
-298.749	83.269	0.225	-0.241
-297.735	137.271	-0.126	0.161
-296.720	-4.230	0.169	0.115
-295.705	402.555	-0.031	0.064
-294.691	193.615	-0.186	0.276
-293.676	147.924	-0.103	-0.136
-292.662	800.000	-0.121	0.362
-291.647	-171.016	-0.038	0.001
-290.632	34.297	-0.064	0.054
-289.618	-37.812	0.194	0.101
-288.603	-143.965	-0.218	-0.020
-287.589	800.000	-0.130	0.386
-286.574	-53.546	-0.228	0.102
-285.559	315.942	0.084	-0.156
-284.545	5.493	0.216	-0.156
-283.530	-7.135	-0.151	-0.100
-282.516	-49.059	-0.242	0.114
-281.501	377.271	-0.046	-0.093
-280.486	145.112	-0.085	-0.112
-279.472	-200.000	0.020	-0.094
-278.457	800.000	0.050	0.211
-277.443	-39.053	0.098	0.050
-276.428	-55.858	-0.301	-0.132
-275.413	-51.107	0.256	0.118
-274.399	69.834	-0.172	0.174
-273.384	91.785	0.059	0.065
-272.370	-200.000	-0.000	0.068
-271.355	189.979	-0.113	-0.167
-270.340	-101.428	0.072	0.017
-269.326	-48.603	0.064	0.030
-268.311	800.000	-0.044	0.150
-267.297	550.503	0.074	0.174
-266.282	-200.000	0.067	0.306
-265.267	-109.693	0.422	0.087
-264.253	-200.000	0.009	-0.119
-263.238	348.499	-0.030	0.059
-262.224	-176.437	-0.318	-0.008
-261.209	-200.000	0.022	0.184
-260.195	-114.734	0.391	0.073
-259.180	-96.796	-0.133	-0.034
-258.165	800.000	-0.024	-0.087
-257.151	-63.120	-0.153	-0.062
-256.136	164.109	-0.187	-0.259
-255.122	-18.795	0.400	0.244
-254.107	28.848	0.230	-0.191
-253.092	800.000	0.037	-0.138
-252.078	-174.837	-0.024	-0.001
-251.063	-61.889	0.100	0.041
-250.049	-81.358	0.245	-0.079
-249.034	90.687	0.124	-0.136
-248.019	-7.736	0.299	0.198
-247.005	-200.000	0.039	0.375
-245.990	-45.021	0.077	0.038
-244.976	-78.574	-0.130	0.044
-243.961	-200.000	0.037	-0.174
-242.946	-34.533	-0.090	0.048
-241.932	-116.920	0.090	0.016
-240.917	-200.000	-0.038	0.411
-239.903	-105.679	-0.264	-0.059
-238.888	-47.229	-0.254	-0.121
-237.873	-113.551	0.167	-0.032
-236.859	447.823	-0.101	-0.217
-235.844	-59.217	-0.292	-0.123
-234.830	-200.000	0.018	0.282
-233.815	-175.464	0.142	0.004
-232.800	-111.425	-0.419	-0.084
-231.786	85.235	0.078	-0.084
-230.771	-200.000	-0.045	0.349
-229.757	136.275	0.258	0.330
-228.742	42.567	0.119	-0.106
-227.727	168.140	-0.207	0.289
-226.713	-99.191	0.289	0.072
-225.698	-158.829	0.071	0.004
-224.684	-57.356	-0.230	0.099
-223.669	-63.634	0.122	0.049
-222.655	-60.846	0.205	-0.085
-221.640	-59.294	-0.275	0.116
-220.625	-200.000	0.010	-0.371
-219.611	449.526	0.038	0.082
-218.596	179.043	-0.096	-0.137
-217.582	800.000	-0.045	-0.162
-216.567	-200.000	-0.060	0.296
-215.552	-68.678	0.366	-0.138
-214.538	-100.839	-0.245	0.059
-213.523	137.002	0.166	0.213
-212.509	-144.124	0.176	0.016
-211.494	230.639	0.043	-0.069
-210.479	20.087	0.216	0.170
-209.465	-200.000	0.016	-0.470
-208.450	-106.163	0.332	0.073
-207.436	-200.000	0.006	-0.301
-206.421	287.078	-0.052	0.092
-205.406	-134.027	-0.105	-0.013
-204.392	-68.482	-0.173	0.066
-203.377	800.000	0.037	-0.142
-202.363	-200.000	0.009	-0.044
-201.348	121.376	-0.095	0.115
-200.333	61.888	-0.229	0.224
-199.319	-123.020	-0.286	-0.045
-198.304	-200.000	-0.001	-0.214
-197.290	-200.000	0.041	0.251
-196.275	800.000	-0.018	0.068
-195.260	385.600	0.105	0.212
-194.246	800.000	-0.023	0.082
-193.231	800.000	0.104	0.302
-192.217	7.901	0.075	0.055
-191.202	515.783	-0.039	-0.088
-190.187	203.663	-0.146	0.221
-189.173	-200.000	0.119	0.514
-188.158	180.349	-0.153	-0.220
-187.144	-19.135	0.271	-0.165
-186.129	-200.000	0.010	-0.120
-185.114	3.196	0.316	-0.225
-184.100	-37.564	-0.277	0.144
-183.085	-200.000	0.021	0.157
-182.071	51.310	-0.188	0.174
-181.056	247.838	0.062	-0.102
-180.042	-140.892	-0.169	0.017
-179.027	-200.000	0.022	0.112
-178.012	93.443	0.202	0.224
-176.998	200.688	-0.042	-0.064
-175.983	-50.522	-0.100	0.046
-174.969	725.131	0.033	0.085
-173.954	-200.000	-0.003	0.129
-172.939	-200.000	-0.040	-0.525
-171.925	-200.000	-0.041	-0.265
-170.910	-116.969	-0.089	0.016
-169.896	-200.000	0.080	-0.382
-168.881	-200.000	0.009	0.052
-167.866	-70.450	0.282	-0.104
-166.852	194.266	-0.265	-0.392
-165.837	51.456	-0.066	-0.061
-164.823	-109.652	0.328	-0.067
-163.808	43.808	-0.013	-0.011
-162.793	-200.000	0.003	-0.119
-161.779	-200.000	0.046	-0.350
-160.764	409.136	-0.122	-0.253
-159.750	-200.000	0.065	-0.324
-158.735	7.552	-0.315	-0.230
-157.720	8.729	0.315	0.232
-156.706	62.172	-0.229	-0.223
-155.691	-122.258	0.482	0.077
-154.677	-200.000	-0.034	0.255
-153.662	-22.986	-0.087	0.051
-152.647	-200.000	0.012	-0.121
-151.633	-181.544	0.105	0.002
-150.618	16.682	0.205	0.158
-149.604	-119.252	-0.327	-0.056
-148.589	103.057	0.154	-0.176
-147.574	317.873	0.053	0.098
-146.560	-99.543	0.173	-0.042
-145.545	800.000	0.047	-0.160
-144.531	-84.491	-0.061	-0.019
-143.516	-112.769	0.149	-0.029
-142.502	-200.000	0.012	-0.095
-141.487	200.606	0.197	-0.296
-140.472	800.000	0.118	-0.435
-139.458	19.797	-0.177	-0.139
-138.443	-40.028	-0.231	-0.117
-137.429	35.696	-0.027	0.023
-136.414	-126.254	-0.205	0.030
-135.399	-57.897	-0.160	0.068
-134.385	-25.355	-0.160	-0.092
-133.370	283.955	-0.088	0.154
-132.356	-129.428	-0.331	0.045
-131.341	-200.000	-0.023	-0.101
-130.326	572.286	-0.118	0.281
-129.312	-1.658	0.114	-0.078
-128.297	-200.000	-0.012	0.095
-127.283	251.987	0.168	0.279
-126.268	34.070	0.112	-0.095
-125.253	63.599	0.237	0.232
-124.239	-67.774	-0.304	0.116
-123.224	-200.000	0.006	-0.189
-122.210	-200.000	0.032	0.378
-121.195	800.000	-0.004	-0.016
-120.180	-200.000	-0.604	-0.000
-119.166	-178.111	0.324	0.007
-118.151	13.013	-0.037	-0.028
-117.137	191.165	0.020	0.029
-116.122	-200.000	0.024	0.104
-115.107	-200.000	0.007	-0.118
-114.093	-155.545	-0.157	0.010
-113.078	197.200	-0.068	0.101
-112.064	-200.000	-0.036	-0.341
-111.049	-112.097	0.213	-0.042
-110.034	71.368	0.284	-0.287
-109.020	-36.302	0.155	-0.081
-108.005	-200.000	-0.026	0.213
-106.991	-200.000	0.015	-0.188
-105.976	298.405	-0.025	0.045
-104.962	135.870	-0.251	-0.319
-103.947	-170.214	-0.161	-0.006
-102.932	-140.854	-0.264	0.026
-101.918	33.216	0.147	-0.125
-100.903	337.953	0.156	-0.296
-99.889	211.498	0.246	-0.377
-98.874	304.411	-0.127	-0.230
-97.859	8.413	-0.148	-0.109
-96.845	201.648	0.131	-0.197
-95.830	-3.469	-0.103	0.070
-94.816	800.000	-0.116	-0.388
-93.801	-200.000	-0.023	-0.161
-92.786	-77.970	-0.140	-0.047
-91.772	-200.000	0.045	0.219
-90.757	511.667	-0.125	-0.283
-89.743	473.979	0.148	-0.325
-88.728	-46.347	0.096	-0.046
-87.713	183.399	0.052	0.075
-86.699	80.181	-0.143	-0.150
-85.684	103.785	0.054	-0.062
-84.670	-200.000	-0.011	-0.132
-83.655	-168.491	0.309	0.012
-82.640	436.144	-0.137	-0.290
-81.626	156.024	0.055	-0.073
-80.611	2.630	0.331	-0.233
-79.597	155.638	-0.057	-0.076
-78.582	-87.710	0.172	0.051
-77.567	109.538	-0.158	0.185
-76.553	-200.000	0.006	0.105
-75.538	-29.178	-0.355	0.198
-74.524	-200.000	-0.030	0.138
-73.509	33.223	-0.090	0.076
-72.494	-99.172	0.085	0.021
-71.480	712.119	-0.187	0.483
-70.465	-200.000	0.014	0.140
-69.451	800.000	0.049	-0.132
-68.436	57.720	0.203	-0.194
-67.422	-200.000	0.049	-0.443
-66.407	376.975	0.153	-0.304
-65.392	-122.405	0.408	-0.065
-64.378	-27.473	-0.226	0.128
-63.363	-36.061	0.382	-0.201
-62.349	-44.743	0.220	0.107
-61.334	215.122	-0.918	-1.416
-60.319	90.909	0.639	0.698
-59.305	662.949	-0.535	-1.341
-58.290	342.423	0.768	1.462
-57.276	800.000	0.329	1.262
-56.261	-200.000	134.380	691.419
-55.246	359.279	1663.624	3235.655
-54.232	134.732	2801.999	3538.049
-53.217	91.599	2189.898	2394.543
-52.203	32.294	1704.294	1430.906
-51.188	24.990	1525.249	1230.562
-50.173	23.256	1502.870	1200.715
-49.159	47.478	1578.414	1431.028
-48.144	44.244	1589.400	1418.385
-47.130	25.130	1536.943	1240.770
-46.115	22.285	1520.668	1208.076
-45.100	22.090	1517.029	1203.802
-44.086	22.005	1515.219	1201.731
-43.071	21.924	1512.962	1199.340
-42.057	21.954	1512.079	1198.802
-41.042	21.984	1510.381	1197.610
-40.027	21.996	1509.142	1196.662
-39.013	21.868	1507.531	1194.468
-37.998	21.949	1506.396	1194.072
-36.984	21.978	1504.808	1192.960
-35.969	21.957	1504.157	1192.255
-34.954	21.930	1502.581	1190.773
-33.940	21.947	1501.136	1189.697
-32.925	21.993	1499.601	1188.744
-31.911	22.026	1498.450	1188.012
-30.896	22.000	1497.204	1186.799
-29.881	22.057	1496.334	1186.446
-28.867	22.107	1494.272	1185.103
-27.852	22.046	1492.936	1183.582
-26.838	22.052	1491.987	1182.822
-25.823	22.069	1489.885	1181.227
-24.809	22.058	1488.742	1180.200
-23.794	22.053	1487.350	1179.015
-22.779	22.003	1486.414	1177.889
-21.765	21.986	1485.217	1176.783
-20.750	22.042	1484.318	1176.401
-19.736	21.997	1482.903	1174.931
-18.721	21.978	1481.977	1174.022
-17.706	21.947	1480.984	1172.979
-16.692	21.949	1479.997	1172.169
-15.677	21.999	1478.818	1171.522
-14.663	21.923	1478.103	1170.402
-13.648	22.036	1476.607	1169.921
-12.633	22.020	1476.497	1169.682
-11.619	22.061	1475.136	1168.831
-10.604	22.070	1474.530	1168.363
-9.590	22.032	1473.410	1167.177
-8.575	22.082	1472.674	1166.881
-7.560	22.013	1471.656	1165.567
-6.546	22.036	1470.176	1164.504
-5.531	21.966	1469.967	1163.830
-4.517	22.023	1468.911	1163.321
-3.502	22.025	1467.735	1162.357
-2.487	22.034	1466.548	1161.430
-1.473	21.910	1466.221	1160.308
-0.458	22.029	1464.468	1159.658
0.556	20.813	1454.846	1146.983
1.571	17.506	1429.685	1105.609
2.586	13.984	1366.981	1035.116
3.600	12.306	1282.648	961.354
4.615	11.489	1239.288	924.154
5.629	10.123	1183.027	874.737
6.644	5.352	1102.593	791.090
7.659	1.247	1067.700	745.839
8.673	0.806	1062.299	739.842
9.688	0.808	1058.619	737.227
10.702	0.625	1057.450	735.454
11.717	0.612	1055.462	733.943
12.731	2.307	1055.746	742.311
13.746	7.988	1063.364	775.317
14.761	14.287	1071.389	811.903
15.775	17.133	1075.005	828.477
16.790	16.885	1073.535	826.063
17.804	16.050	1071.789	820.579
18.819	15.114	1069.774	814.414
19.834	14.728	1068.423	811.439
20.848	14.348	1067.806	809.054
21.863	14.190	1066.579	807.288
22.877	14.143	1065.490	806.162
23.892	13.716	1064.971	803.630
24.907	13.613	1064.076	802.385
25.921	13.585	1063.398	801.668
26.936	13.697	1062.572	801.514
27.950	13.803	1061.894	801.443
28.965	13.748	1061.338	800.689
29.980	13.719	1060.538	799.876
30.994	13.766	1059.739	799.427
32.009	13.858	1058.346	798.748
33.023	13.876	1058.247	798.689
34.038	13.971	1056.966	798.109
35.053	13.891	1056.359	797.195
36.067	13.912	1055.294	796.422
37.082	13.885	1054.597	795.694
38.096	13.838	1053.971	794.927
39.111	13.883	1053.026	794.360
40.126	14.055	1051.824	794.206
41.140	13.786	1051.263	792.425
42.155	13.797	1050.333	791.710
43.169	13.635	1048.977	789.843
44.184	13.747	1048.283	789.785
45.199	13.668	1047.156	788.491
46.213	13.642	1046.392	787.720
47.228	13.705	1045.533	787.305
48.242	13.882	1044.131	787.016
49.257	13.907	1042.985	786.202
50.271	13.818	1042.407	785.279
51.286	13.766	1041.551	784.318
52.301	13.904	1040.471	784.087
53.315	13.639	1040.238	782.591
54.330	13.805	1039.453	782.712
55.344	13.756	1038.350	781.584
56.359	13.755	1037.325	780.740
57.374	13.845	1036.174	780.223
58.388	13.809	1035.619	779.570
59.403	13.733	1035.065	778.725
60.417	13.786	1033.922	778.044
61.432	13.800	1033.187	777.490
62.447	13.757	1032.707	776.857
63.461	13.699	1031.988	775.975
64.476	13.628	1031.378	775.120
65.490	13.790	1029.930	774.719
66.505	13.737	1028.994	773.698
67.520	13.724	1028.561	773.244
68.534	13.609	1028.413	772.525
69.549	13.747	1026.957	772.006
70.563	13.867	1026.099	771.854
71.578	13.831	1025.685	771.304
72.593	13.688	1024.981	770.042
73.607	13.657	1023.861	768.990
74.622	13.567	1023.157	767.978
75.636	13.620	1022.204	767.439
76.651	13.644	1021.278	766.786
77.666	13.607	1020.353	765.853
78.680	13.605	1019.474	765.116
79.695	13.668	1019.243	765.166
80.709	13.753	1018.530	764.953
81.724	13.760	1017.437	764.097
82.739	13.736	1016.874	763.499
83.753	13.771	1016.231	763.109
84.768	13.859	1015.261	762.714
85.782	13.879	1014.490	762.163
86.797	13.919	1013.474	761.512
87.812	13.837	1012.996	760.713
88.826	13.931	1012.046	760.360
89.841	13.893	1011.507	759.714
90.855	13.846	1011.095	759.123
91.870	13.879	1009.711	758.169
92.884	13.920	1009.324	757.997
93.899	13.951	1008.720	757.619
94.914	13.908	1007.730	756.614
95.928	13.974	1006.992	756.292
96.943	14.036	1006.172	755.890
97.957	13.908	1005.498	754.736
98.972	13.902	1004.272	753.724
99.987	13.962	1004.077	753.782
101.001	13.936	1002.983	752.777
102.016	13.843	1002.408	751.856
103.030	13.953	1001.258	751.424
104.045	13.919	1000.541	750.666
105.060	13.951	999.166	749.713
106.074	13.983	998.171	749.044
107.089	13.889	997.662	748.171
108.103	13.842	996.747	747.207
109.118	13.833	996.255	746.732
110.133	13.761	995.042	745.433
111.147	13.949	993.952	745.395
112.162	13.692	993.468	743.815
113.176	13.866	992.801	744.026
114.191	14.001	991.818	743.832
115.206	13.827	990.951	742.336
116.220	13.862	989.905	741.641
117.235	13.949	989.027	741.306
118.249	13.769	988.624	740.137
119.264	13.875	987.354	739.595
120.279	13.857	986.885	739.097
121.293	13.759	986.003	737.935
122.308	13.616	985.705	737.010
123.322	13.689	984.509	736.374
124.337	13.830	983.180	735.940
125.352	13.856	982.051	735.148
126.366	13.669	980.984	733.457
127.381	13.702	980.235	732.975
128.395	13.784	978.785	732.190
129.410	13.799	978.068	731.655
130.424	13.850	976.867	730.916
131.439	13.844	976.027	730.194
132.454	13.767	975.464	729.372
133.468	13.812	975.165	729.280
134.483	13.821	974.134	728.486
135.497	13.910	973.169	728.090
136.512	13.803	972.749	727.242
137.527	13.777	972.105	726.583
138.541	13.850	971.362	726.280
139.556	13.844	970.676	725.678
140.570	13.921	969.737	725.247
141.585	13.969	968.992	724.838
142.600	13.955	967.839	723.848
143.614	13.972	967.081	723.290
144.629	13.954	967.120	723.180
145.643	14.041	966.287	722.869
146.658	14.109	965.418	722.450
147.673	14.058	964.237	721.283
148.687	14.027	963.352	720.423
149.702	14.047	962.551	719.847
150.716	14.050	961.803	719.239
151.731	13.900	961.444	718.255
152.746	14.007	960.332	717.823
153.760	14.047	960.002	717.685
154.775	14.055	958.762	716.732
155.789	14.099	958.160	716.405
156.804	14.167	957.383	716.053
157.819	14.159	956.605	715.373
158.833	14.135	956.187	714.897
159.848	14.192	955.578	714.622
160.862	14.211	955.020	714.224
161.877	14.373	953.588	713.782
162.892	14.165	953.300	712.615
163.906	14.029	952.458	711.340
164.921	14.209	951.405	711.261
165.935	14.067	950.454	709.879
166.950	14.183	949.712	709.757
167.964	14.216	948.773	709.131
168.979	14.275	947.785	708.583
169.994	14.146	947.133	707.483
171.008	14.152	946.564	707.020
172.023	14.183	945.593	706.363
173.037	14.288	945.074	706.359
174.052	14.298	943.982	705.524
175.067	14.280	943.474	705.005
176.081	14.271	942.603	704.257
177.096	14.228	942.052	703.599
178.110	14.343	940.846	703.121
179.125	14.372	939.916	702.487
180.140	14.297	939.410	701.731
181.154	14.208	938.911	700.920
182.169	14.268	938.085	700.494
183.183	14.412	937.439	700.556
184.198	14.247	936.980	699.459
185.213	14.442	936.114	699.566
186.227	14.454	935.318	698.961
187.242	14.525	934.850	698.848
188.256	14.514	934.191	698.247
189.271	14.559	933.541	697.887
190.286	14.487	932.730	696.919
191.300	14.409	932.222	696.151
192.315	14.368	931.553	695.417
193.329	14.335	930.756	694.624
194.344	14.277	930.134	693.857
195.359	14.460	929.187	693.850
196.373	14.509	928.699	693.630
197.388	14.517	928.300	693.303
198.402	14.485	927.887	692.800
199.417	14.609	927.283	692.805
200.432	14.657	926.790	692.571
201.446	14.705	926.441	692.449
202.461	14.605	925.912	691.578
203.475	14.753	925.419	691.762
204.490	14.732	924.265	690.750
205.504	14.857	923.437	690.589
206.519	14.712	922.650	689.338
207.534	14.673	922.080	688.691
208.548	14.757	921.483	688.531
209.563	14.629	920.859	687.478
210.577	14.831	919.809	687.465
211.592	14.703	919.606	686.724
212.607	14.734	919.048	686.374
213.621	14.805	918.297	686.044
214.636	14.826	917.542	685.506
215.650	14.850	916.669	684.890
216.665	14.828	916.360	684.510
217.680	14.828	915.752	683.993
218.694	14.916	915.226	683.902
219.709	14.950	914.842	683.692
220.723	14.882	914.090	682.793
221.738	14.912	913.068	682.093
222.753	14.988	912.506	681.922
223.767	15.073	911.795	681.674
224.782	14.990	910.940	680.639
225.796	14.979	909.817	679.695
226.811	14.889	909.808	679.262
227.826	15.194	908.546	679.496
228.840	15.038	908.215	678.555
229.855	14.804	908.062	677.433
230.869	15.123	907.025	677.892
231.884	14.997	906.112	676.641
232.899	15.012	905.431	676.132
233.913	14.968	904.792	675.418
234.928	14.983	904.569	675.249
235.942	14.941	903.832	674.472
236.957	15.011	902.823	673.942
237.972	14.999	902.267	673.420
238.986	15.104	901.656	673.326
240.001	15.224	900.534	672.910
241.015	15.236	899.935	672.451
242.030	15.045	899.673	671.429
243.045	15.081	898.838	670.891
244.059	15.174	898.532	670.974
245.074	15.235	897.236	670.193
246.088	15.261	896.510	669.696
247.103	15.250	896.253	669.399
248.117	15.262	895.842	669.082
249.132	15.325	895.042	668.677
250.147	15.346	894.509	668.303
251.161	15.445	893.758	668.074
252.176	15.457	892.866	667.396
253.190	15.545	892.220	667.207
254.205	15.442	891.779	666.408
255.220	15.567	890.973	666.242
256.234	15.348	890.927	665.280
257.249	15.487	889.962	665.050
258.263	15.609	889.151	664.869
259.278	15.503	889.026	664.296
260.293	15.520	888.434	663.863
261.307	15.589	887.964	663.727
262.322	15.582	887.333	663.166
263.336	15.644	886.367	662.633
264.351	15.687	885.785	662.310
265.366	15.566	885.366	661.460
266.380	15.667	884.822	661.390
267.395	15.892	883.423	661.172
268.409	15.742	883.181	660.344
269.424	15.806	882.292	659.870
270.439	15.804	881.412	659.146
271.453	15.852	880.714	658.755
272.468	15.731	879.964	657.660
273.482	15.746	879.646	657.425
274.497	15.809	878.967	657.103
275.512	15.778	878.532	656.602
276.526	15.741	877.479	655.609
277.541	15.783	876.913	655.294
278.555	15.705	876.688	654.763
279.570	15.907	875.569	654.655
280.585	15.921	875.230	654.399
281.599	15.891	874.924	653.997
282.614	16.048	873.813	653.715
283.628	16.013	873.564	653.337
284.643	15.975	872.497	652.335
285.657	15.939	872.596	652.209
286.672	15.931	872.089	651.742
287.687	16.079	871.400	651.740
288.701	15.979	871.130	651.094
289.716	16.137	870.292	651.020
290.730	15.970	870.218	650.266
291.745	16.041	869.117	649.658
292.760	16.189	867.981	649.323
293.774	16.215	867.452	648.969
294.789	16.092	867.130	648.198
295.803	16.162	866.639	648.040
296.818	16.314	865.659	647.834
297.833	16.131	865.193	646.725
298.847	16.213	864.540	646.494
299.862	16.261	863.823	646.088
300.876	16.270	863.078	645.506
301.891	16.131	862.712	644.644
302.906	16.326	862.082	644.860
303.920	16.241	861.537	644.071
304.935	16.329	860.586	643.639
305.949	16.346	860.001	643.211
306.964	16.439	859.480	643.118
307.979	16.479	858.558	642.520
308.993	16.457	858.264	642.163
310.008	16.368	858.068	641.621
311.022	16.513	857.214	641.475
312.037	16.418	856.673	640.654
313.052	16.591	856.482	641.110
314.066	16.617	855.228	640.213
315.081	16.408	854.709	638.975
316.095	16.338	854.636	638.600
317.110	16.390	853.769	638.091
318.125	16.561	853.146	638.216
319.139	16.428	852.687	637.314
320.154	16.332	852.334	636.633
321.168	16.494	851.881	636.847
322.183	16.596	851.057	636.559
323.197	16.543	850.925	636.204
324.212	16.470	849.806	635.037
325.227	16.518	849.574	634.987
326.241	16.608	849.159	634.958
327.256	16.673	848.186	634.419
328.270	16.594	848.063	633.977
329.285	16.475	847.524	633.070
330.300	16.574	846.708	632.774
331.314	16.596	846.120	632.364
332.329	16.595	845.609	631.920
333.343	16.659	844.700	631.425
334.358	16.675	844.215	631.067
335.373	16.741	843.769	630.922
336.387	16.869	843.038	630.797
337.402	16.828	842.714	630.346
338.416	16.703	841.748	629.103
339.431	16.791	841.088	628.880
340.446	16.927	840.697	629.037
341.460	16.827	840.483	628.451
342.475	16.735	839.672	627.449
343.489	16.950	838.906	627.614
344.504	16.916	838.523	627.146
345.519	17.009	838.141	627.149
346.533	16.964	837.950	626.784
347.548	17.094	837.345	626.757
348.562	16.930	836.803	625.692
349.577	16.918	836.466	625.339
350.592	16.919	835.861	624.836
351.606	16.856	835.392	624.198
352.621	16.901	834.772	623.843
353.635	16.921	834.367	623.560
354.650	16.949	833.682	623.095
355.665	17.054	833.503	623.292
356.679	17.153	832.813	623.084
357.694	17.043	832.549	622.427
358.708	17.128	831.923	622.218
359.723	17.105	831.434	621.714
360.738	17.104	831.113	621.414
361.752	17.105	830.148	620.642
362.767	16.963	830.236	620.133
363.781	17.136	829.804	620.387
364.796	17.137	828.848	619.622
365.810	17.284	828.335	619.718
366.825	17.376	828.068	619.799
367.840	17.266	827.780	619.128
368.854	17.488	827.451	619.634
369.869	17.339	826.805	618.557
370.883	17.350	826.405	618.239
371.898	17.342	825.811	617.712
372.913	17.331	824.875	616.918
373.927	17.398	824.429	616.773
374.942	17.434	823.976	616.510
375.956	17.475	823.010	615.880
376.971	17.570	822.524	615.807
377.986	17.623	821.876	615.457
379.000	17.661	821.597	615.332
380.015	17.595	820.945	614.552
381.029	17.518	820.609	613.969
382.044	17.629	820.162	613.978
383.059	17.613	818.938	612.949
384.073	17.770	818.843	613.392
385.088	17.508	818.579	612.195
386.102	17.596	817.765	611.849
387.117	17.633	817.060	611.399
388.132	17.566	816.890	610.980
389.146	17.575	816.821	610.906
390.161	17.713	816.141	610.837
391.175	17.607	816.042	610.331
392.190	17.601	815.808	610.080
393.205	17.683	815.164	609.838
394.219	17.719	814.441	609.372
395.234	17.775	813.652	608.925
396.248	17.724	813.676	608.710
397.263	17.850	812.594	608.293
398.278	17.674	812.478	607.526
399.292	17.603	812.404	607.164
400.307	17.570	811.959	606.660
401.321	17.549	811.624	606.281
402.336	17.667	810.915	606.118
403.350	17.664	810.739	605.921
404.365	17.833	809.986	605.906
405.380	17.780	809.521	605.316
406.394	17.749	809.280	604.971
407.409	17.834	808.520	604.650
408.423	17.816	808.203	604.297
409.438	17.952	807.597	604.272
410.453	18.051	807.220	604.287
411.467	17.753	807.063	603.062
412.482	18.006	806.226	603.278
413.496	18.099	805.522	603.027
414.511	18.172	805.195	602.985
415.526	17.994	805.001	602.159
416.540	18.029	805.050	602.266
417.555	18.054	804.316	601.750
418.569	18.067	803.830	601.377
419.584	18.084	803.146	600.875
420.599	18.193	802.755	600.910
421.613	115.915	1298.716	1491.055
422.628	100.120	1370.918	1491.126
