DTS Sentinel unit serial number:	SN413079Multiplexer serial number:	ORYXHardware model number:	OX4-SRSoftware version number:	ORYX F/W v4.00 Oryx Data Collector v3.7.2.0data status	okinstallation	princeton_trtdifferential loss correction	single-endedforward channel	channel 3reverse channel	N/Adate	2019/09/14time	05:40:34forward acquisition time	60.00reverse acquisition time	0.00gamma	496.2192k internal	0.2337k external	0.2337temperature offset calibration	1.0055default loss term (dB/km)	0.3790temperature slope calibration	1.0000multiplexer offset coefficient	1.0000multiplexer slope coefficient	1.0000fibre end	0.00T internal ref (°C)	26.94T ext. ref 1 (°C)	3.39T ext. ref 2 (°C)	21.73length (m)	temperature (°C)	Stokes	anti-Stokes-747.200	-86.030	-0.057	-0.018
-746.185	323.174	-0.060	0.114
-745.171	-170.135	0.146	0.005
-744.156	-169.992	-0.330	0.012
-743.142	321.280	-0.044	0.084
-742.127	141.220	-0.131	0.174
-741.112	-83.333	0.121	-0.039
-740.098	-200.000	-0.008	0.271
-739.083	-45.406	0.150	-0.075
-738.069	-200.000	-0.035	0.400
-737.054	355.746	-0.116	-0.231
-736.039	-200.000	0.014	-0.063
-735.025	410.331	0.139	0.296
-734.010	265.481	-0.129	-0.225
-732.996	177.646	-0.036	0.052
-731.981	1.759	-0.357	-0.258
-730.966	64.418	0.182	-0.184
-729.952	-200.000	-0.004	-0.460
-728.937	185.666	0.259	-0.386
-727.923	-200.000	-0.054	-0.330
-726.908	-45.776	-0.274	0.136
-725.894	-41.669	-0.218	0.112
-724.879	800.000	-0.141	-0.419
-723.864	-69.804	-0.262	0.100
-722.850	692.415	0.027	0.070
-721.835	44.468	-0.034	-0.032
-720.821	-7.756	-0.239	0.162
-719.806	11.488	-0.212	-0.163
-718.791	-55.165	-0.221	0.100
-717.777	800.000	0.077	0.272
-716.762	-200.000	-0.002	-0.218
-715.748	-200.000	0.030	0.187
-714.733	-62.894	0.259	0.108
-713.718	-198.256	0.137	-0.001
-712.704	210.490	0.036	-0.057
-711.689	-101.895	0.460	0.111
-710.675	101.776	-0.031	0.037
-709.660	16.348	-0.138	0.110
-708.645	39.039	0.101	-0.091
-707.631	5.651	0.074	-0.055
-706.616	800.000	0.055	-0.190
-705.602	9.807	-0.078	0.059
-704.587	-153.053	0.008	0.001
-703.572	-163.271	-0.227	-0.011
-702.558	-85.723	-0.331	-0.103
-701.543	-200.000	0.011	0.118
-700.529	-200.000	-0.012	-0.312
-699.514	800.000	-0.023	0.071
-698.499	598.205	0.055	0.136
-697.485	9.114	0.128	-0.097
-696.470	65.513	-0.231	-0.234
-695.456	800.000	0.059	-0.209
-694.441	-200.000	-0.008	-0.211
-693.426	187.088	-0.128	0.191
-692.412	-200.000	-0.045	-0.245
-691.397	-106.886	-0.408	0.091
-690.383	-200.000	-0.036	-0.163
-689.368	220.897	0.121	-0.194
-688.354	-200.000	-0.007	-0.036
-687.339	-11.807	0.270	0.177
-686.324	-200.000	0.014	0.062
-685.310	2.523	-0.332	0.241
-684.295	-91.505	0.131	-0.038
-683.281	-200.000	-0.001	-0.118
-682.266	343.600	-0.009	0.017
-681.251	276.741	0.108	0.193
-680.237	-87.660	-0.274	0.083
-679.222	2.217	-0.328	0.238
-678.208	705.846	0.144	0.380
-677.193	776.621	0.074	0.202
-676.178	-97.063	-0.126	0.033
-675.164	-120.856	-0.237	0.040
-674.149	746.526	0.039	0.106
-673.135	-54.461	-0.512	-0.232
-672.120	-105.217	0.185	-0.042
-671.105	727.789	-0.078	-0.209
-670.091	800.000	-0.113	-0.433
-669.076	72.177	0.152	0.159
-668.062	-137.397	-0.332	-0.038
-667.047	-152.371	-0.256	0.018
-666.032	151.311	-0.135	0.184
-665.018	80.919	-0.127	0.137
-664.003	157.721	-0.051	-0.070
-662.989	430.856	0.017	0.036
-661.974	-32.014	0.048	0.027
-660.959	290.072	0.101	0.184
-659.945	-11.242	-0.296	-0.195
-658.930	37.196	0.159	-0.140
-657.916	-200.000	0.046	0.230
-656.901	-200.000	-0.202	-0.000
-655.886	228.910	-0.101	0.165
-654.872	-62.692	0.287	0.119
-653.857	-200.000	0.026	0.165
-652.843	-148.897	0.266	0.021
-651.828	800.000	-0.071	0.308
-650.814	-46.298	-0.297	0.146
-649.799	-200.000	-0.012	0.133
-648.784	18.833	-0.232	0.185
-647.770	-200.000	-0.008	0.152
-646.755	-113.916	-0.355	-0.069
-645.741	-114.915	-0.202	0.038
-644.726	-200.000	0.015	-0.121
-643.711	-31.791	-0.193	0.108
-642.697	-8.738	-0.082	0.055
-641.682	127.286	-0.198	0.251
-640.668	293.044	-0.221	-0.404
-639.653	-168.057	-0.323	0.013
-638.638	-200.000	-0.024	-0.193
-637.624	344.658	-0.016	0.032
-636.609	101.973	-0.274	0.320
-635.595	-44.458	0.123	-0.062
-634.580	163.570	0.048	-0.067
-633.565	-200.000	0.009	-0.203
-632.551	-12.065	0.166	0.109
-631.536	62.545	-0.203	-0.203
-630.522	800.000	-0.056	-0.216
-629.507	800.000	0.094	0.264
-628.492	147.866	-0.081	-0.109
-627.478	-164.943	-0.093	0.004
-626.463	-91.026	0.157	-0.045
-625.449	-200.000	0.033	-0.173
-624.434	33.161	0.040	0.034
-623.419	79.064	-0.076	-0.082
-622.405	-74.985	-0.189	-0.068
-621.390	166.648	0.115	0.163
-620.376	142.731	-0.160	0.212
-619.361	-131.262	0.167	0.022
-618.346	158.042	-0.109	-0.150
-617.332	261.371	-0.082	-0.141
-616.317	-25.208	0.177	-0.105
-615.303	93.036	0.067	-0.076
-614.288	87.507	0.027	-0.030
-613.273	90.502	0.073	-0.082
-612.259	-62.855	-0.209	-0.087
-611.244	800.000	0.040	-0.110
-610.230	-38.937	0.216	-0.114
-609.215	-200.000	0.000	-0.243
-608.201	358.304	0.172	-0.344
-607.186	24.525	0.215	-0.178
-606.171	-3.828	-0.429	0.298
-605.157	800.000	0.067	0.215
-604.142	800.000	-0.036	0.137
-603.128	65.612	0.150	0.152
-602.113	158.500	0.064	0.089
-601.098	-169.537	0.138	0.005
-600.084	-200.000	0.029	0.173
-599.069	-90.189	0.112	-0.033
-598.055	-176.517	-0.273	-0.007
-597.040	-200.000	0.016	-0.336
-596.025	-95.337	0.226	-0.061
-595.011	50.414	0.317	0.299
-593.996	189.126	0.127	-0.190
-592.982	-7.510	-0.138	0.093
-591.967	493.492	0.050	-0.115
-590.952	320.513	-0.144	-0.273
-589.938	-118.784	0.342	-0.060
-588.923	-200.000	-0.014	-0.251
-587.909	-153.361	0.234	-0.016
-586.894	-41.556	0.172	0.088
-585.879	-151.182	-0.241	-0.018
-584.865	51.597	0.140	0.133
-583.850	-138.970	-0.496	-0.054
-582.836	174.556	0.149	-0.216
-581.821	800.000	-0.087	-0.333
-580.806	-173.451	-0.330	-0.010
-579.792	38.855	-0.300	-0.267
-578.777	96.227	0.211	0.241
-577.763	-66.906	-0.080	0.032
-576.748	698.862	0.056	0.148
-575.733	-183.349	-0.167	0.003
-574.719	800.000	0.028	0.094
-573.704	-4.279	-0.203	-0.140
-572.690	800.000	0.086	-0.261
-571.675	27.298	0.092	0.077
-570.661	-38.441	0.049	0.026
-569.646	120.715	-0.105	-0.130
-568.631	-100.568	0.225	0.055
-567.617	-42.706	-0.520	0.264
-566.602	184.045	0.155	-0.228
-565.588	800.000	0.098	-0.426
-564.573	-120.124	-0.363	-0.062
-563.558	-81.492	0.159	0.052
-562.544	221.280	-0.129	-0.206
-561.529	-200.000	0.058	-0.271
-560.515	-200.000	-0.034	-0.291
-559.500	320.241	-0.162	0.306
-558.485	-125.368	0.105	-0.016
-557.471	-200.000	0.015	0.291
-556.456	-36.862	0.170	-0.091
-555.442	201.462	0.126	-0.193
-554.427	70.761	0.099	0.103
-553.412	87.657	-0.340	-0.375
-552.398	22.582	-0.394	-0.321
-551.383	800.000	-0.063	-0.200
-550.369	-149.363	-0.481	0.038
-549.354	36.830	-0.087	0.076
-548.339	121.870	0.129	-0.160
-547.325	397.576	-0.099	0.207
-546.310	800.000	0.048	0.164
-545.296	79.031	-0.120	-0.128
-544.281	263.120	0.026	-0.045
-543.266	12.548	0.092	0.071
-542.252	22.799	-0.195	0.159
-541.237	222.923	-0.219	0.351
-540.223	144.488	-0.112	-0.148
-539.208	-200.000	-0.014	-0.329
-538.193	-94.791	-0.211	-0.057
-537.179	-83.112	0.502	-0.161
-536.164	800.000	-0.085	-0.318
-535.150	97.820	-0.055	0.063
-534.135	-47.326	-0.106	-0.051
-533.121	257.795	-0.117	-0.201
-532.106	511.879	0.048	0.110
-531.091	800.000	-0.094	-0.325
-530.077	9.267	0.131	0.098
-529.062	-200.000	-0.086	0.515
-528.048	-32.447	-0.351	0.195
-527.033	-74.401	0.202	0.073
-526.018	663.986	0.013	0.034
-525.004	-200.000	0.058	-0.319
-523.989	172.940	-0.102	-0.146
-522.975	-200.000	-0.045	0.253
-521.960	-165.433	-0.320	0.014
-520.945	-172.967	0.104	0.003
-519.931	234.882	-0.222	-0.365
-518.916	-59.285	0.139	0.059
-517.902	175.740	0.163	0.235
-516.887	-82.397	-0.081	-0.026
-515.872	-6.179	0.160	-0.109
-514.858	800.000	-0.040	0.160
-513.843	33.554	-0.106	-0.092
-512.829	-109.891	0.126	-0.026
-511.814	238.859	0.130	0.216
-510.799	62.194	0.212	-0.210
-509.785	-18.935	-0.208	0.129
-508.770	800.000	-0.074	-0.284
-507.756	800.000	-0.024	0.086
-506.741	-154.491	0.151	0.010
-505.726	-200.000	-0.014	0.125
-504.712	316.876	-0.095	-0.179
-503.697	369.574	0.059	-0.118
-502.683	-98.223	-0.206	-0.053
-501.668	-163.437	0.878	-0.042
-500.653	755.944	0.069	-0.186
-499.639	800.000	0.051	-0.168
-498.624	-79.002	0.483	-0.163
-497.610	255.248	0.147	0.251
-496.595	-124.393	0.211	0.033
-495.581	-65.317	0.307	-0.123
-494.566	-181.428	0.132	-0.003
-493.551	-162.912	0.141	0.007
-492.537	55.794	-0.166	0.160
-491.522	-155.944	0.265	0.017
-490.508	800.000	-0.044	0.170
-489.493	-4.419	0.124	0.085
-488.478	109.765	-0.303	0.361
-487.464	-200.000	-0.024	0.289
-486.449	-48.485	0.344	0.165
-485.435	-142.665	0.218	0.021
-484.420	-148.832	-0.191	0.015
-483.405	43.451	-0.189	-0.171
-482.391	800.000	-0.101	0.297
-481.376	34.500	0.154	-0.134
-480.362	800.000	-0.039	-0.138
-479.347	24.458	-0.160	0.132
-478.332	129.051	0.125	0.158
-477.318	-52.193	0.194	-0.089
-476.303	-200.000	0.060	0.328
-475.289	-59.571	-0.151	0.064
-474.274	-30.455	-0.194	-0.109
-473.259	-93.698	-0.251	-0.069
-472.245	-200.000	-0.004	-0.112
-471.230	-60.811	0.258	0.109
-470.216	800.000	0.090	0.257
-469.201	64.801	0.153	-0.154
-468.186	46.772	-0.061	0.056
-467.172	462.237	-0.039	-0.087
-466.157	800.000	-0.043	-0.155
-465.143	11.990	0.192	0.146
-464.128	-47.441	-0.229	0.111
-463.113	217.060	0.035	0.055
-462.099	33.512	-0.273	0.235
-461.084	314.387	-0.106	0.197
-460.070	-18.144	0.115	0.072
-459.055	777.466	-0.043	-0.117
-458.040	71.617	0.181	-0.187
-457.026	-200.000	-0.002	0.060
-456.011	313.476	0.134	-0.249
-454.997	-46.050	-0.083	0.040
-453.982	-200.000	0.010	-0.156
-452.968	-40.392	0.104	0.053
-451.953	-90.416	-0.428	0.123
-450.938	102.894	-0.193	-0.225
-449.924	67.199	0.130	0.131
-448.909	-200.000	-0.041	-0.218
-447.895	-200.000	0.007	-0.096
-446.880	184.077	-0.035	-0.052
-445.865	800.000	-0.057	0.234
-444.851	98.559	0.023	0.026
-443.836	-47.860	-0.128	-0.061
-442.822	615.549	-0.085	-0.211
-441.807	-40.354	-0.178	0.092
-440.792	-75.483	0.254	-0.090
-439.778	-200.000	0.029	-0.262
-438.763	125.332	-0.252	0.316
-437.749	800.000	0.054	0.191
-436.734	800.000	0.087	0.282
-435.719	22.593	0.163	-0.132
-434.705	-59.013	0.321	-0.137
-433.690	-23.249	-0.262	-0.156
-432.676	88.385	-0.034	0.037
-431.661	-25.923	0.280	-0.163
-430.646	-27.347	-0.263	-0.152
-429.632	5.023	0.347	-0.253
-428.617	-64.276	-0.127	-0.051
-427.603	-9.565	0.157	-0.104
-426.588	-200.000	-0.032	0.154
-425.573	800.000	-0.109	0.300
-424.559	-66.800	0.125	0.049
-423.544	582.713	-0.088	-0.214
-422.530	25.007	0.027	-0.023
-421.515	86.417	0.063	0.069
-420.500	-94.037	0.445	-0.121
-419.486	-200.000	0.010	0.441
-418.471	306.899	0.175	-0.323
-417.457	-129.117	-0.333	0.046
-416.442	800.000	0.044	-0.152
-415.428	41.339	0.153	0.137
-414.413	104.533	-0.085	-0.100
-413.398	232.633	-0.136	0.221
-412.384	235.621	-0.060	-0.098
-411.369	-200.000	-0.007	-0.216
-410.355	8.272	-0.264	-0.197
-409.340	315.892	0.048	-0.090
-408.325	-57.554	-0.285	0.124
-407.311	800.000	0.115	-0.348
-406.296	-157.672	-0.218	0.013
-405.282	335.256	-0.116	0.223
-404.267	48.998	0.165	0.154
-403.252	55.714	0.166	-0.159
-402.238	154.570	-0.048	-0.065
-401.223	484.563	-0.016	-0.037
-400.209	29.839	0.288	-0.243
-399.194	194.726	-0.105	0.158
-398.179	800.000	0.055	0.214
-397.165	-130.871	0.392	0.052
-396.150	-200.000	-0.049	0.216
-395.136	-170.836	-0.094	0.003
-394.121	-76.459	-0.207	0.072
-393.106	58.253	0.114	0.111
-392.092	-200.000	0.006	-0.030
-391.077	800.000	-0.033	0.113
-390.063	144.100	-0.125	0.165
-389.048	800.000	-0.104	0.351
-388.033	5.676	0.031	-0.023
-387.019	-159.944	0.106	0.006
-386.004	28.028	-0.296	0.247
-384.990	-103.337	0.004	0.001
-383.975	359.425	-0.086	0.170
-382.960	-200.000	-0.026	-0.179
-381.946	-200.000	-0.013	0.171
-380.931	-43.744	0.204	0.102
-379.917	-200.000	-0.020	-0.268
-378.902	800.000	0.095	-0.292
-377.888	-200.000	-0.004	-0.320
-376.873	-200.000	0.002	-0.099
-375.858	2.444	-0.127	0.091
-374.844	-200.000	-0.029	0.206
-373.829	-200.000	-0.026	0.152
-372.815	55.337	0.134	-0.128
-371.800	-200.000	-0.027	-0.122
-370.785	179.569	0.217	-0.315
-369.771	216.654	-0.105	0.166
-368.756	-117.547	0.112	-0.020
-367.742	800.000	0.082	-0.301
-366.727	-200.000	-0.009	-0.075
-365.712	800.000	-0.068	0.206
-364.698	800.000	-0.022	-0.086
-363.683	-133.821	-0.403	-0.050
-362.669	-119.605	-0.151	0.026
-361.654	-200.000	-0.018	-0.149
-360.639	75.318	-0.134	0.140
-359.625	-200.000	-0.050	-0.239
-358.610	-177.915	0.165	-0.004
-357.596	-200.000	-0.022	-0.096
-356.581	-199.219	0.208	-0.001
-355.566	-13.258	0.211	0.136
-354.552	-200.000	-0.014	-0.350
-353.537	-166.392	-0.121	0.005
-352.523	-144.941	-0.188	-0.017
-351.508	-138.346	0.211	-0.023
-350.493	-124.809	-0.140	-0.021
-349.479	29.093	0.133	0.112
-348.464	-125.809	-0.189	-0.028
-347.450	-200.000	-0.018	-0.084
-346.435	118.918	0.066	-0.081
-345.420	800.000	0.068	0.265
-344.406	331.072	-0.057	0.108
-343.391	-129.394	0.312	-0.043
-342.377	29.612	-0.292	0.246
-341.362	34.782	0.122	0.106
-340.348	3.707	-0.182	-0.132
-339.333	-57.001	0.252	-0.110
-338.318	-91.641	-0.273	0.077
-337.304	596.030	0.055	-0.135
-336.289	-41.476	-0.158	0.080
-335.275	800.000	0.089	0.309
-334.260	-51.336	-0.066	-0.031
-333.245	448.369	-0.154	-0.334
-332.231	29.854	0.220	0.185
-331.216	-181.738	0.195	0.004
-330.202	124.279	0.208	0.258
-329.187	-143.375	-0.154	0.015
-328.172	800.000	0.055	-0.153
-327.158	217.013	-0.136	-0.213
-326.143	104.170	0.165	0.191
-325.129	56.102	-0.361	-0.346
-324.114	-149.322	-0.259	0.020
-323.099	30.306	0.284	0.239
-322.085	270.396	-0.075	-0.130
-321.070	-103.528	0.072	-0.017
-320.056	-113.901	-0.024	-0.005
-319.041	125.997	-0.121	0.151
-318.026	337.606	-0.167	0.320
-317.012	-150.124	0.170	0.013
-315.997	-200.000	-0.011	-0.126
-314.983	-200.000	0.032	0.177
-313.968	-142.899	0.389	0.037
-312.953	505.198	-0.077	-0.177
-311.939	-200.000	-0.010	-0.075
-310.924	74.641	0.202	0.210
-309.910	35.242	-0.018	0.015
-308.895	164.310	0.036	-0.050
-307.880	118.450	-0.063	-0.076
-306.866	-108.793	0.078	-0.016
-305.851	800.000	-0.043	0.173
-304.837	800.000	0.069	0.261
-303.822	216.209	-0.042	0.065
-302.807	3.313	-0.322	0.231
-301.793	135.077	0.249	0.319
-300.778	27.063	-0.235	0.195
-299.764	-121.176	0.387	-0.064
-298.749	-200.000	0.027	0.156
-297.735	172.571	-0.080	0.113
-296.720	42.897	-0.164	-0.148
-295.705	66.516	-0.097	-0.097
-294.691	800.000	-0.052	0.194
-293.676	16.596	-0.039	-0.030
-292.662	223.519	-0.222	-0.353
-291.647	223.723	-0.163	-0.259
-290.632	387.835	-0.124	0.252
-289.618	-200.000	-0.044	-0.196
-288.603	-30.188	-0.109	0.061
-287.589	-184.707	0.147	0.002
-286.574	580.772	0.125	0.302
-285.559	-119.132	-0.415	0.071
-284.545	-168.543	0.370	0.014
-283.530	-55.129	0.315	0.140
-282.516	-18.253	-0.327	-0.202
-281.501	449.685	-0.040	0.086
-280.486	13.247	0.141	0.108
-279.472	-107.852	0.111	-0.024
-278.457	-200.000	-0.022	0.196
-277.443	800.000	0.003	-0.013
-276.428	-82.651	-0.094	-0.030
-275.413	-144.950	0.152	-0.014
-274.399	82.548	-0.152	-0.163
-273.384	-200.000	0.026	-0.141
-272.370	475.539	0.042	-0.094
-271.355	744.052	0.188	-0.497
-270.340	73.486	0.132	0.136
-269.326	-200.000	-0.006	0.083
-268.311	-62.744	-0.070	0.029
-267.297	800.000	-0.065	0.213
-266.282	125.764	0.150	-0.187
-265.267	-5.009	0.044	-0.030
-264.253	-125.283	0.277	-0.042
-263.238	-40.086	0.402	-0.206
-262.224	-125.581	0.071	-0.011
-261.209	-15.425	-0.112	0.070
-260.195	304.672	-0.040	0.073
-259.180	-170.569	-0.237	0.008
-258.165	664.214	-0.062	0.157
-257.151	-33.924	0.217	-0.118
-256.136	332.521	0.182	0.347
-255.122	-200.000	0.046	0.306
-254.107	178.900	-0.109	0.157
-253.092	-151.227	0.202	-0.015
-252.078	12.482	0.204	0.155
-251.063	691.066	0.153	0.393
-250.049	155.976	-0.209	-0.283
-249.034	-200.000	0.031	0.176
-248.019	-200.000	-0.003	0.359
-247.005	397.303	-0.088	0.182
-245.990	339.914	0.098	0.188
-244.976	381.506	-0.228	0.461
-243.961	-44.212	0.173	-0.085
-242.946	800.000	-0.050	0.156
-241.932	76.576	-0.153	-0.160
-240.917	307.430	-0.076	-0.139
-239.903	-88.152	-0.285	-0.084
-238.888	800.000	-0.050	-0.170
-237.873	-171.662	0.147	-0.005
-236.859	-172.640	0.171	0.005
-235.844	-65.640	-0.276	-0.109
-234.830	379.035	-0.137	0.277
-233.815	-200.000	-0.092	0.406
-232.800	-172.851	-0.113	-0.003
-231.786	-62.022	-0.147	-0.060
-230.771	158.660	0.158	-0.216
-229.757	65.755	0.367	-0.366
-228.742	-80.625	-0.264	-0.086
-227.727	90.430	0.175	-0.193
-226.713	-125.331	0.398	-0.060
-225.698	28.881	-0.322	0.268
-224.684	800.000	0.154	0.472
-223.669	800.000	-0.115	0.450
-222.655	-200.000	0.095	0.417
-221.640	328.596	-0.218	0.412
-220.625	191.345	0.252	-0.372
-219.611	44.095	0.193	-0.174
-218.596	-122.400	0.179	0.029
-217.582	-189.570	0.195	0.002
-216.567	516.664	0.068	0.155
-215.552	-28.464	-0.131	-0.074
-214.538	-200.000	-0.021	-0.117
-213.523	386.064	0.056	0.114
-212.509	-15.387	0.120	0.075
-211.494	800.000	-0.060	-0.166
-210.479	-8.705	-0.183	0.121
-209.465	-200.000	-0.040	0.191
-208.450	636.352	0.140	-0.348
-207.436	-200.000	0.010	-0.282
-206.421	-200.000	-0.051	0.235
-205.406	53.168	0.030	-0.028
-204.392	-95.296	0.113	0.030
-203.377	-161.980	-0.362	0.018
-202.363	-200.000	-0.033	-0.170
-201.348	14.405	0.081	-0.062
-200.333	7.798	-0.084	0.062
-199.319	-116.534	0.102	-0.018
-198.304	800.000	-0.068	0.231
-197.290	41.339	-0.107	0.095
-196.275	-59.552	0.190	0.080
-195.260	-200.000	0.063	0.283
-194.246	800.000	0.065	-0.249
-193.231	-90.824	0.098	0.028
-192.217	80.580	-0.106	-0.112
-191.202	800.000	-0.059	0.242
-190.187	223.735	0.059	-0.093
-189.173	-56.222	-0.355	0.155
-188.158	35.715	0.232	0.200
-187.144	-200.000	-0.018	0.113
-186.129	129.052	0.169	-0.212
-185.114	-200.000	-0.046	0.197
-184.100	-200.000	-0.086	-0.448
-183.085	-140.453	0.116	-0.012
-182.071	-116.455	0.202	0.037
-181.056	-112.747	0.112	-0.022
-180.042	-88.417	-0.166	0.049
-179.027	-150.845	0.259	-0.019
-178.012	-200.000	-0.003	0.060
-176.998	-49.556	0.244	0.114
-175.983	78.628	-0.134	-0.141
-174.969	136.602	0.170	-0.218
-173.954	-1.581	-0.182	-0.126
-172.939	-200.000	-0.003	0.115
-171.925	800.000	-0.130	0.387
-170.910	-114.891	0.030	0.006
-169.896	-200.000	-0.049	0.309
-168.881	59.132	-0.061	-0.059
-167.866	-124.843	0.278	0.042
-166.852	800.000	-0.074	-0.211
-165.837	189.012	-0.255	0.375
-164.823	174.140	0.102	-0.144
-163.808	99.952	0.249	-0.283
-162.793	61.147	-0.272	-0.265
-161.779	55.942	0.181	-0.172
-160.764	-200.000	0.050	-0.368
-159.750	-120.034	-0.066	0.011
-158.735	-200.000	0.027	-0.130
-157.720	-200.000	0.025	0.180
-156.706	142.232	0.063	-0.082
-155.691	-150.763	0.064	-0.005
-154.677	199.382	0.062	0.093
-153.662	-12.168	0.143	-0.092
-152.647	158.809	-0.129	-0.176
-151.633	-88.522	0.197	-0.058
-150.618	-61.050	0.226	-0.094
-149.604	-200.000	-0.057	-0.269
-148.589	-77.851	0.093	0.032
-147.574	204.896	-0.300	0.456
-146.560	-136.074	0.023	-0.003
-145.545	126.175	0.333	0.413
-144.531	483.715	0.088	-0.196
-143.516	-200.000	-0.047	-0.329
-142.502	-196.247	-0.286	-0.002
-141.487	110.775	0.146	-0.173
-140.472	283.065	-0.106	-0.186
-139.458	-62.450	0.138	-0.056
-138.443	387.465	-0.066	0.134
-137.429	783.998	-0.016	-0.042
-136.414	-146.804	0.475	-0.040
-135.399	-18.129	-0.125	-0.077
-134.385	-27.656	0.145	-0.083
-133.370	37.534	0.372	0.324
-132.356	419.908	-0.095	0.199
-131.341	54.162	-0.255	-0.240
-130.326	148.097	-0.058	0.077
-129.312	470.757	0.173	0.380
-128.297	-56.917	0.164	-0.071
-127.283	-111.377	0.230	-0.046
-126.268	256.740	0.273	-0.460
-125.253	-112.142	-0.206	0.041
-124.239	166.450	0.032	0.045
-123.224	155.614	0.170	0.229
-122.210	49.793	0.137	0.127
-121.195	-70.300	0.321	-0.119
-120.180	-74.885	-0.162	0.057
-119.166	-127.036	0.463	-0.067
-118.151	-162.854	-0.351	-0.017
-117.137	547.759	0.138	-0.325
-116.122	-80.994	0.275	-0.089
-115.107	252.756	0.198	-0.331
-114.093	-200.000	-0.323	0.000
-113.078	-115.914	-0.344	0.063
-112.064	-200.000	-0.012	0.307
-111.049	-86.526	-0.048	0.014
-110.034	-85.571	0.091	0.028
-109.020	-178.637	0.451	-0.010
-108.005	43.696	0.222	0.199
-106.991	-56.668	0.115	-0.050
-105.976	31.749	0.054	0.045
-104.962	-92.263	-0.236	-0.065
-103.947	-200.000	-0.070	0.331
-102.932	-150.804	0.027	0.002
-101.918	800.000	0.045	-0.126
-100.903	-200.000	-0.066	-0.350
-99.889	428.882	0.049	0.104
-98.874	-16.450	-0.125	0.077
-97.859	39.807	-0.168	0.148
-96.845	-100.743	-0.134	0.032
-95.830	-200.000	0.009	-0.162
-94.816	-141.793	-0.352	0.034
-93.801	-92.100	0.225	-0.062
-92.786	-45.755	0.269	-0.130
-91.772	-81.193	0.259	0.084
-90.757	44.794	-0.094	-0.085
-89.743	-126.455	0.185	0.027
-88.728	-145.100	0.319	0.028
-87.713	-86.439	0.075	0.023
-86.699	-168.443	-0.184	0.007
-85.684	351.603	-0.219	-0.424
-84.670	-4.019	-0.206	0.140
-83.655	-31.413	-0.120	-0.066
-82.640	19.926	0.166	-0.131
-81.626	-70.521	0.384	-0.142
-80.611	-52.982	0.196	0.088
-79.597	-4.569	-0.142	-0.096
-78.582	70.169	-0.106	0.107
-77.567	-69.140	0.290	0.109
-76.553	-45.646	-0.214	-0.104
-75.538	77.056	0.161	-0.167
-74.524	800.000	0.017	0.064
-73.509	-149.757	-0.166	0.013
-72.494	-110.820	0.313	0.063
-71.480	76.727	-0.120	-0.124
-70.465	217.296	-0.154	0.240
-69.451	89.823	-0.032	0.035
-68.436	-64.591	0.151	-0.060
-67.422	526.341	-0.121	0.279
-66.407	16.465	-0.036	0.028
-65.392	-151.446	-0.070	-0.005
-64.378	-27.401	-0.182	-0.103
-63.363	33.861	0.114	-0.097
-62.349	585.253	0.050	0.119
-61.334	214.353	-0.757	-1.171
-60.319	49.087	0.718	0.659
-59.305	-200.000	-0.242	-1.441
-58.290	532.395	0.537	1.243
-57.276	800.000	0.569	1.613
-56.261	-200.000	116.005	660.489
-55.246	530.153	1532.783	3537.868
-54.232	176.464	2705.982	3841.765
-53.217	108.027	2183.274	2542.381
-52.203	37.855	1701.494	1477.003
-51.188	30.083	1518.126	1264.973
-50.173	27.846	1492.818	1228.798
-49.159	52.433	1552.488	1447.286
-48.144	50.316	1567.628	1446.839
-47.130	30.262	1523.121	1270.160
-46.115	27.279	1507.191	1236.584
-45.100	27.041	1504.079	1232.366
-44.086	27.059	1502.189	1230.892
-43.071	26.992	1500.196	1228.757
-42.057	26.833	1499.223	1226.833
-41.042	26.870	1497.908	1225.955
-40.027	26.846	1496.569	1224.648
-39.013	26.915	1494.505	1223.381
-37.998	26.872	1493.682	1222.370
-36.984	26.906	1492.171	1221.310
-35.969	26.992	1490.844	1220.758
-34.954	26.932	1489.232	1218.983
-33.940	26.850	1488.582	1217.851
-32.925	27.095	1486.234	1217.527
-31.911	26.957	1485.489	1215.941
-30.896	26.962	1483.942	1214.661
-29.881	27.052	1482.822	1214.296
-28.867	27.016	1481.447	1212.884
-27.852	26.889	1481.220	1211.800
-26.838	26.960	1479.312	1210.666
-25.823	27.028	1477.387	1209.497
-24.809	27.022	1475.496	1207.856
-23.794	27.004	1474.391	1206.787
-22.779	26.961	1473.273	1205.541
-21.765	26.952	1472.246	1204.589
-20.750	26.858	1471.391	1203.219
-19.736	26.913	1470.038	1202.430
-18.721	26.988	1468.818	1201.881
-17.706	26.885	1467.947	1200.440
-16.692	27.030	1466.385	1200.075
-15.677	26.961	1466.243	1199.449
-14.663	26.896	1464.769	1197.768
-13.648	26.916	1464.009	1197.234
-12.633	26.863	1462.868	1195.903
-11.619	27.062	1461.832	1196.316
-10.604	26.979	1460.844	1194.917
-9.590	26.781	1460.883	1193.596
-8.575	26.959	1459.477	1193.570
-7.560	26.894	1458.730	1192.487
-6.546	26.862	1457.872	1191.529
-5.531	26.881	1456.806	1190.736
-4.517	26.885	1455.743	1189.841
-3.502	26.940	1455.132	1189.656
-2.487	26.888	1454.041	1188.379
-1.473	26.925	1452.942	1187.675
-0.458	26.930	1451.562	1186.536
0.556	27.189	1441.724	1175.488
1.571	24.153	1416.608	1135.583
2.586	20.678	1356.015	1065.672
3.600	19.164	1273.092	991.699
4.615	17.853	1228.194	949.352
5.629	15.340	1171.882	892.394
6.644	8.763	1090.017	797.329
7.659	4.192	1053.502	748.518
8.673	3.319	1048.509	740.709
9.688	3.461	1045.160	738.957
10.702	3.409	1043.722	737.628
11.717	3.391	1041.470	735.888
12.731	5.160	1042.595	745.064
13.746	11.747	1051.409	782.916
14.761	17.813	1060.034	818.455
15.775	19.463	1061.395	827.352
16.790	19.124	1059.563	824.226
17.804	18.184	1057.517	818.067
18.819	17.189	1055.431	811.633
19.834	16.883	1054.323	809.246
20.848	16.690	1053.418	807.558
21.863	16.548	1052.802	806.339
22.877	16.396	1052.074	804.986
23.892	16.162	1051.252	803.174
24.907	16.135	1050.325	802.264
25.921	16.052	1049.972	801.529
26.936	15.945	1049.320	800.452
27.950	16.073	1048.064	800.033
28.965	16.149	1046.631	799.228
29.980	16.154	1045.782	798.532
30.994	16.392	1044.078	798.283
32.009	16.376	1043.645	797.804
33.023	16.444	1043.081	797.624
34.038	16.364	1042.386	796.645
35.053	16.363	1040.985	795.500
36.067	16.248	1040.154	794.252
37.082	16.291	1039.552	793.924
38.096	16.131	1039.205	792.838
39.111	16.120	1038.673	792.311
40.126	16.310	1037.218	792.024
41.140	16.265	1036.109	790.896
42.155	16.085	1034.843	789.017
43.169	15.935	1033.472	787.198
44.184	15.849	1032.576	786.048
45.199	15.832	1031.348	784.963
46.213	15.867	1030.528	784.431
47.228	16.007	1029.683	784.373
48.242	16.105	1028.711	784.018
49.257	16.073	1028.165	783.383
50.271	16.200	1026.775	782.843
51.286	16.186	1025.995	782.113
52.301	16.334	1025.348	782.238
53.315	16.240	1024.724	781.260
54.330	16.003	1024.229	779.716
55.344	15.948	1023.225	778.626
56.359	16.042	1021.902	777.984
57.374	16.035	1021.055	777.241
58.388	16.066	1020.752	777.083
59.403	16.054	1019.367	775.905
60.417	15.858	1018.673	774.407
61.432	15.991	1017.878	774.344
62.447	15.881	1017.179	773.237
63.461	15.849	1016.299	772.354
64.476	15.800	1015.487	771.443
65.490	15.838	1014.231	770.596
66.505	15.802	1013.595	769.878
67.520	15.822	1012.635	769.175
68.534	15.756	1012.693	768.850
69.549	15.912	1011.392	768.505
70.563	15.843	1010.648	767.556
71.578	15.846	1009.983	766.998
72.593	15.760	1008.598	765.485
73.607	15.678	1008.190	764.735
74.622	15.641	1007.473	763.955
75.636	15.618	1006.325	762.915
76.651	15.619	1005.547	762.263
77.666	15.780	1004.566	762.180
78.680	15.692	1004.193	761.432
79.695	15.814	1003.340	761.269
80.709	15.753	1003.128	760.762
81.724	15.937	1002.095	760.744
82.739	15.958	1001.539	760.351
83.753	15.955	1000.599	759.558
84.768	15.992	1000.061	759.247
85.782	16.222	999.919	760.107
86.797	16.403	998.878	760.063
87.812	16.406	998.130	759.442
88.826	16.357	996.756	758.108
89.841	16.176	996.115	756.742
90.855	16.300	995.536	756.793
91.870	16.380	994.593	756.367
92.884	16.418	993.823	755.882
93.899	16.466	993.209	755.562
94.914	16.428	992.398	754.710
95.928	16.472	991.467	754.132
96.943	16.437	991.104	753.632
97.957	16.283	990.602	752.498
98.972	16.393	989.315	751.942
99.987	16.307	989.098	751.327
101.001	16.424	987.930	750.898
102.016	16.287	987.185	749.657
103.030	16.269	985.983	748.595
104.045	16.253	985.147	747.825
105.060	16.351	984.048	747.358
106.074	16.315	983.183	746.473
107.089	16.106	982.497	744.964
108.103	16.083	980.951	743.624
109.118	15.769	980.779	742.046
110.133	15.832	979.797	741.511
111.147	15.898	978.776	740.967
112.162	15.895	978.044	740.333
113.176	15.820	977.520	739.543
114.191	16.010	976.517	739.552
115.206	16.118	975.117	738.899
116.220	15.978	974.591	737.821
117.235	15.909	974.301	737.234
118.249	16.057	973.084	736.894
119.264	15.908	972.385	735.648
120.279	15.802	971.499	734.451
121.293	15.950	970.696	734.424
122.308	15.851	969.802	733.254
123.322	15.721	968.977	731.996
124.337	15.794	967.670	731.264
125.352	15.716	966.785	730.191
126.366	15.709	965.983	729.492
127.381	15.800	964.402	728.628
128.395	15.687	963.608	727.471
129.410	15.759	962.564	726.931
130.424	15.810	961.609	726.365
131.439	15.965	960.622	726.222
132.454	15.972	960.305	725.952
133.468	16.021	959.174	725.244
134.483	16.033	958.748	724.907
135.497	15.927	958.444	724.156
136.512	16.000	957.503	723.694
137.527	15.999	956.324	722.736
138.541	15.865	955.834	721.730
139.556	16.026	954.862	721.620
140.570	15.978	954.259	720.896
141.585	16.097	953.772	720.973
142.600	16.247	953.245	721.152
143.614	16.376	952.489	721.067
144.629	16.375	951.916	720.563
145.643	16.531	950.968	720.448
146.658	16.369	950.127	719.056
147.673	16.372	948.729	717.949
148.687	16.119	948.295	716.481
149.702	16.100	947.311	715.593
150.716	16.107	946.593	715.018
151.731	16.003	945.710	713.846
152.746	16.091	944.865	713.516
153.760	16.027	944.334	712.784
154.775	16.172	943.337	712.582
155.789	16.160	942.751	712.024
156.804	16.260	941.784	711.651
157.819	16.438	941.002	711.749
158.833	16.301	940.600	710.805
159.848	16.291	940.436	710.576
160.862	16.497	939.342	710.554
161.877	16.460	938.768	709.898
162.892	16.324	937.364	708.207
163.906	16.107	936.368	706.481
164.921	16.159	935.537	706.007
165.935	16.189	934.584	705.352
166.950	16.186	933.920	704.776
167.964	16.215	933.125	704.235
168.979	16.313	931.763	703.553
169.994	16.226	930.693	702.319
171.008	16.161	930.054	701.506
172.023	16.226	929.410	701.227
173.037	16.401	928.375	701.112
174.052	16.558	927.998	701.415
175.067	16.574	927.323	700.911
176.081	16.253	926.590	698.966
177.096	16.176	925.374	697.668
178.110	16.021	925.093	696.755
179.125	16.334	923.747	696.971
180.140	16.316	923.159	696.389
181.154	16.288	922.492	695.710
182.169	16.316	922.416	695.706
183.183	16.581	921.314	695.905
184.198	16.544	920.725	695.246
185.213	16.498	920.265	694.648
186.227	16.392	920.052	693.992
187.242	16.486	919.378	693.808
188.256	16.666	918.577	693.877
189.271	16.747	917.882	693.623
190.286	16.710	917.344	693.004
191.300	16.569	916.398	691.651
192.315	16.275	915.096	689.406
193.329	16.120	914.522	688.283
194.344	16.132	914.005	687.881
195.359	16.238	913.438	687.824
196.373	16.343	913.020	687.877
197.388	16.510	912.390	688.022
198.402	16.506	912.129	687.745
199.417	16.724	911.558	688.141
200.432	16.855	911.312	688.429
201.446	16.859	910.809	688.003
202.461	17.018	910.582	688.416
203.475	17.111	909.701	688.066
204.490	17.096	908.734	687.211
205.504	16.865	907.859	685.554
206.519	16.830	907.274	684.912
207.534	16.767	906.075	683.693
208.548	16.754	905.757	683.339
209.563	16.620	905.266	682.368
210.577	16.708	904.835	682.335
211.592	16.679	903.767	681.354
212.607	16.879	903.546	681.933
213.621	16.956	902.743	681.577
214.636	16.931	902.213	681.013
215.650	16.899	901.559	680.333
216.665	16.960	900.915	680.029
217.680	16.983	900.336	679.627
218.694	17.154	900.214	680.159
219.709	17.107	899.718	679.536
220.723	16.951	899.487	678.675
221.738	17.046	898.032	677.897
222.753	17.077	897.353	677.448
223.767	17.088	896.784	677.003
224.782	17.175	896.108	676.779
225.796	17.235	895.664	676.625
226.811	17.117	895.351	675.860
227.826	17.195	894.258	675.283
228.840	17.140	893.309	674.288
229.855	16.954	892.894	673.175
230.869	16.978	892.129	672.637
231.884	16.992	891.505	672.161
232.899	17.069	890.642	671.755
233.913	16.983	890.114	670.958
234.928	17.020	889.252	670.394
235.942	17.058	888.458	669.887
236.957	16.915	887.774	668.749
237.972	16.789	887.381	667.898
238.986	16.885	886.709	667.709
240.001	16.950	885.756	667.190
241.015	16.990	885.028	666.739
242.030	17.119	884.679	666.924
243.045	17.099	884.158	666.394
244.059	17.072	883.671	665.862
245.074	17.131	883.211	665.686
246.088	17.331	882.067	665.548
247.103	17.171	882.225	664.982
248.117	17.355	881.126	664.813
249.132	17.422	880.712	664.706
250.147	17.636	880.151	665.059
251.161	17.688	879.731	664.884
252.176	17.760	879.228	664.725
253.190	17.736	878.765	664.224
254.205	17.751	878.021	663.662
255.220	17.760	877.591	663.314
256.234	17.729	877.073	662.743
257.249	17.828	876.231	662.433
258.263	17.807	875.762	661.938
259.278	17.754	875.520	661.492
260.293	17.789	874.756	660.989
261.307	17.795	874.016	660.394
262.322	17.918	873.487	660.413
263.336	17.955	873.090	660.198
264.351	18.023	872.327	659.825
265.366	18.017	871.468	659.093
266.380	18.006	871.035	658.664
267.395	17.835	870.569	657.594
268.409	17.880	869.338	656.781
269.424	17.907	868.762	656.393
270.439	17.900	868.197	655.878
271.453	17.850	867.478	655.086
272.468	17.874	866.307	654.234
273.482	17.770	865.846	653.432
274.497	17.793	865.338	653.078
275.512	17.784	864.675	652.486
276.526	17.926	863.764	652.283
277.541	17.909	863.311	651.818
278.555	17.932	862.825	651.482
279.570	17.726	862.330	650.266
280.585	18.111	861.802	651.276
281.599	18.135	861.139	650.809
282.614	18.041	860.178	649.669
283.628	18.092	859.852	649.559
284.643	18.090	858.886	648.765
285.657	18.080	858.912	648.687
286.672	17.902	858.609	647.725
287.687	18.103	857.792	647.813
288.701	18.051	857.493	647.332
289.716	18.093	856.764	646.883
290.730	18.185	856.111	646.684
291.745	18.037	855.750	645.793
292.760	18.074	854.982	645.296
293.774	18.222	853.929	645.004
294.789	18.390	853.539	645.284
295.803	18.134	853.342	644.114
296.818	18.196	852.520	643.671
297.833	17.999	852.007	642.486
298.847	18.113	851.469	642.451
299.862	18.107	850.829	641.889
300.876	18.255	850.007	641.767
301.891	18.236	849.521	641.271
302.906	18.342	848.836	641.094
303.920	18.401	848.133	640.727
304.935	18.582	847.753	641.059
305.949	18.549	846.965	640.282
306.964	18.594	846.356	639.936
307.979	18.389	845.653	638.582
308.993	18.485	845.341	638.646
310.008	18.479	844.919	638.251
311.022	18.548	844.286	637.973
312.037	18.625	843.716	637.772
313.052	18.429	843.295	636.668
314.066	18.383	842.350	635.729
315.081	18.275	842.047	635.042
316.095	18.257	841.297	634.356
317.110	18.234	840.891	633.908
318.125	18.251	840.292	633.461
319.139	18.253	839.954	633.158
320.154	18.457	839.291	633.357
321.168	18.292	838.532	632.117
322.183	18.552	838.057	632.665
323.197	18.515	837.675	632.184
324.212	18.467	837.113	631.527
325.227	18.468	836.383	630.923
326.241	18.483	836.565	631.061
327.256	18.460	835.382	630.028
328.270	18.358	835.025	629.326
329.285	18.488	834.149	629.089
330.300	18.527	833.541	628.716
331.314	18.528	833.139	628.363
332.329	18.305	832.736	627.185
333.343	18.823	831.531	628.118
334.358	18.583	831.370	627.062
335.373	18.657	831.206	627.153
336.387	18.698	830.423	626.658
337.402	18.662	830.120	626.243
338.416	18.817	829.398	626.207
339.431	18.868	828.774	625.866
340.446	19.062	828.206	626.089
341.460	18.992	827.996	625.619
342.475	19.000	827.465	625.190
343.489	19.000	826.696	624.556
344.504	19.155	826.075	624.594
345.519	19.063	825.641	623.877
346.533	19.115	825.773	624.110
347.548	19.063	825.044	623.315
348.562	18.921	824.419	622.272
349.577	19.022	823.737	622.067
350.592	18.821	822.871	620.633
351.606	18.765	822.206	619.876
352.621	18.842	821.908	619.874
353.635	18.843	821.853	619.779
354.650	18.797	821.656	619.410
355.665	18.886	820.902	619.107
356.679	18.936	820.550	618.968
357.694	19.072	819.833	618.863
358.708	19.069	819.140	618.273
359.723	19.009	818.799	617.745
360.738	19.083	818.262	617.552
361.752	18.915	817.786	616.534
362.767	19.044	817.414	616.661
363.781	19.184	817.018	616.809
364.796	19.251	816.867	616.883
365.810	19.270	816.465	616.591
366.825	19.434	816.006	616.777
367.840	19.403	815.923	616.548
368.854	19.452	815.153	616.087
369.869	19.492	814.406	615.611
370.883	19.463	813.739	614.949
371.898	19.299	813.464	614.102
372.913	19.340	813.011	613.850
373.927	19.431	812.283	613.571
374.942	19.489	811.735	613.311
375.956	19.500	810.902	612.665
376.971	19.520	810.483	612.366
377.986	19.560	810.136	612.191
379.000	19.698	809.512	612.155
380.015	19.593	809.401	611.644
381.029	19.716	808.689	611.487
382.044	19.742	807.582	610.687
383.059	19.721	807.065	610.167
384.073	19.536	806.808	609.267
385.088	19.578	806.249	608.940
386.102	19.699	805.444	608.704
387.117	19.445	805.050	607.459
388.132	19.447	804.896	607.297
389.146	19.306	804.508	606.451
390.161	19.538	804.116	606.920
391.175	19.590	803.574	606.638
392.190	19.756	802.897	606.658
393.205	19.569	802.728	605.819
394.219	19.510	802.520	605.402
395.234	19.377	801.935	604.440
396.248	19.602	801.145	604.581
397.263	19.440	800.464	603.447
398.278	19.404	799.962	602.888
399.292	19.342	799.843	602.529
400.307	19.306	799.363	601.988
401.321	19.457	798.698	601.961
402.336	19.424	798.829	601.892
403.350	19.465	798.025	601.376
404.365	19.600	797.547	601.429
405.380	19.486	797.639	601.052
406.394	19.747	796.936	601.376
407.409	19.909	796.977	601.915
408.423	20.063	796.094	601.732
409.438	19.963	795.678	601.016
410.453	20.098	795.181	601.056
411.467	20.115	794.714	600.710
412.482	20.039	794.431	600.179
413.496	20.274	793.581	600.297
414.511	20.131	793.875	599.969
415.526	20.194	793.267	599.675
416.540	20.070	792.765	598.814
417.555	19.949	792.244	597.951
418.569	20.106	791.934	598.207
419.584	20.233	791.175	598.018
420.599	20.216	790.917	597.709
421.613	161.356	1371.834	1795.728
422.628	139.773	1456.438	1795.842
