DTS Sentinel unit serial number:	SN413079Multiplexer serial number:	ORYXHardware model number:	OX4-SRSoftware version number:	ORYX F/W v4.00 Oryx Data Collector v3.7.2.0data status	okinstallation	princeton_trtdifferential loss correction	single-endedforward channel	channel 3reverse channel	N/Adate	2019/09/19time	07:12:35forward acquisition time	60.00reverse acquisition time	0.00gamma	496.2192k internal	0.2348k external	0.2348temperature offset calibration	0.9985default loss term (dB/km)	0.3790temperature slope calibration	1.0000multiplexer offset coefficient	1.0000multiplexer slope coefficient	1.0000fibre end	0.00T internal ref (°C)	19.06T ext. ref 1 (°C)	0.56T ext. ref 2 (°C)	13.32length (m)	temperature (°C)	Stokes	anti-Stokes-747.200	-200.000	-0.028	0.252
-746.185	0.508	0.123	-0.088
-745.171	800.000	0.046	0.131
-744.156	-35.513	-0.293	0.159
-743.142	467.231	-0.070	0.156
-742.127	134.066	-0.293	0.380
-741.112	184.216	0.067	-0.099
-740.098	-125.955	-0.244	0.037
-739.083	702.743	-0.055	-0.146
-738.069	-43.925	-0.268	0.135
-737.054	712.435	-0.107	0.282
-736.039	800.000	0.047	0.172
-735.025	-141.422	0.032	0.003
-734.010	122.945	0.101	-0.126
-732.996	-25.231	-0.332	-0.196
-731.981	800.000	0.070	-0.235
-730.966	-133.194	-0.148	0.019
-729.952	800.000	0.072	-0.200
-728.937	-102.102	-0.136	-0.033
-727.923	538.061	0.054	-0.127
-726.908	25.117	0.078	-0.065
-725.894	-200.000	0.041	-0.353
-724.879	-143.958	0.231	-0.022
-723.864	41.676	0.171	-0.154
-722.850	-41.015	-0.234	-0.121
-721.835	193.403	0.039	-0.060
-720.821	-116.951	0.430	0.078
-719.806	-50.449	-0.185	-0.087
-718.791	127.062	0.121	-0.153
-717.777	-2.525	0.091	-0.064
-716.762	139.437	0.035	0.046
-715.748	-102.639	-0.201	0.048
-714.733	189.202	-0.222	-0.332
-713.718	-132.009	-0.261	-0.034
-712.704	-200.000	0.021	-0.349
-711.689	115.246	0.231	-0.282
-710.675	-50.219	0.107	0.051
-709.660	-91.118	0.182	-0.052
-708.645	-200.000	-0.026	-0.204
-707.631	50.239	-0.178	-0.167
-706.616	14.968	-0.108	-0.085
-705.602	109.684	0.223	0.267
-704.587	-200.000	-0.081	0.446
-703.572	-178.680	0.096	-0.002
-702.558	-200.000	0.030	0.204
-701.543	-120.026	-0.199	-0.034
-700.529	152.894	-0.156	-0.213
-699.514	33.447	0.126	-0.109
-698.499	-53.542	-0.353	0.161
-697.485	65.714	-0.262	0.264
-696.470	717.396	0.083	0.219
-695.456	-44.111	-0.289	0.145
-694.441	-200.000	0.004	0.236
-693.426	-104.779	0.203	-0.047
-692.412	58.896	0.055	0.054
-691.397	-200.000	0.006	-0.028
-690.383	588.016	0.034	0.083
-689.368	-141.676	-0.202	0.020
-688.354	220.419	-0.196	0.313
-687.339	2.323	-0.093	-0.067
-686.324	-26.292	-0.302	-0.177
-685.310	-55.288	-0.218	0.098
-684.295	32.818	0.091	-0.079
-683.281	-200.000	0.017	0.099
-682.266	-88.117	0.110	0.033
-681.251	800.000	0.062	0.186
-680.237	-129.581	-0.086	-0.012
-679.222	-200.000	-0.024	0.551
-678.208	778.548	0.034	0.094
-677.193	-110.543	0.043	0.009
-676.178	-88.246	-0.215	0.064
-675.164	800.000	-0.097	-0.354
-674.149	-122.443	-0.189	0.031
-673.135	120.069	-0.105	0.129
-672.120	-172.733	0.129	-0.004
-671.105	-102.835	0.188	0.045
-670.091	-200.000	-0.013	0.312
-669.076	-52.668	-0.096	-0.044
-668.062	800.000	0.040	0.115
-667.047	-93.070	0.274	-0.076
-666.032	67.330	-0.138	0.140
-665.018	-64.191	-0.093	-0.038
-664.003	278.943	0.103	0.184
-662.989	-142.689	0.383	0.037
-661.974	-101.597	-0.137	-0.033
-660.959	-200.000	0.046	0.352
-659.945	121.923	0.084	0.104
-658.930	-164.846	0.169	-0.008
-657.916	69.024	-0.167	-0.171
-656.901	294.282	-0.097	-0.177
-655.886	47.664	0.132	0.123
-654.872	122.257	0.138	-0.171
-653.857	-10.082	-0.121	-0.080
-652.843	21.936	-0.437	0.354
-651.828	-200.000	0.014	-0.251
-650.814	107.954	-0.021	0.025
-649.799	21.865	0.217	0.176
-648.784	72.513	-0.235	-0.244
-647.770	-200.000	-0.051	0.330
-646.755	87.908	0.061	0.068
-645.741	-6.733	0.036	-0.024
-644.726	-200.000	0.056	0.332
-643.711	-178.867	-0.243	-0.005
-642.697	188.803	0.079	0.118
-641.682	-200.000	0.045	0.198
-640.668	-152.160	-0.049	-0.004
-639.653	-21.714	-0.257	0.156
-638.638	-141.654	0.295	0.030
-637.624	173.833	-0.118	0.169
-636.609	0.532	-0.298	-0.212
-635.595	-60.247	-0.390	-0.165
-634.580	-103.150	-0.216	0.051
-633.565	-200.000	-0.013	-0.207
-632.551	-95.503	-0.090	0.024
-631.536	245.619	-0.157	0.264
-630.522	119.623	0.135	0.167
-629.507	128.791	0.030	-0.038
-628.492	24.166	0.106	0.087
-627.478	60.919	-0.099	0.098
-626.463	10.557	-0.216	0.163
-625.449	-74.555	-0.172	-0.061
-624.434	3.973	-0.121	-0.088
-623.419	33.158	-0.131	-0.113
-622.405	101.194	0.221	-0.256
-621.390	62.679	-0.099	0.098
-620.376	-200.000	0.023	0.128
-619.361	-39.969	0.244	0.126
-618.346	240.829	0.209	0.347
-617.332	-62.878	-0.124	-0.051
-616.317	-200.000	-0.005	0.093
-615.303	472.490	-0.155	0.348
-614.288	428.265	0.170	0.365
-613.273	66.582	0.159	0.160
-612.259	-200.000	0.004	-0.125
-611.244	-80.754	0.151	-0.050
-610.230	-85.402	-0.154	0.048
-609.215	-79.962	0.188	-0.063
-608.201	177.087	-0.212	0.307
-607.186	-132.240	-0.156	0.020
-606.171	-66.160	0.239	0.095
-605.157	-200.000	0.032	0.186
-604.142	12.263	0.157	-0.120
-603.128	271.630	-0.114	-0.200
-602.113	-200.000	-0.064	-0.414
-601.098	-100.276	0.290	0.072
-600.084	350.257	0.211	-0.415
-599.069	-57.038	0.137	0.060
-598.055	401.037	-0.069	-0.144
-597.040	-138.995	-0.219	-0.024
-596.025	101.367	-0.150	-0.173
-595.011	210.908	0.215	-0.336
-593.996	-41.607	-0.273	0.139
-592.982	256.613	0.017	0.030
-591.967	-105.940	-0.213	-0.048
-590.952	-82.683	-0.108	-0.035
-589.938	800.000	-0.054	-0.171
-588.923	285.926	0.049	-0.087
-587.909	520.624	0.040	-0.092
-586.894	-200.000	0.006	0.060
-585.879	800.000	-0.029	-0.089
-584.865	163.465	-0.029	0.040
-583.850	230.458	-0.225	-0.365
-582.836	-116.319	0.191	-0.035
-581.821	169.224	0.169	-0.239
-580.806	144.500	-0.149	-0.197
-579.792	105.715	-0.146	0.172
-578.777	626.610	-0.063	0.158
-577.763	-200.000	-0.034	-0.169
-576.748	182.639	0.185	-0.271
-575.733	449.499	-0.096	-0.211
-574.719	800.000	0.035	0.151
-573.704	-85.030	0.100	-0.031
-572.690	-200.000	-0.025	0.114
-571.675	-69.520	-0.125	-0.047
-570.661	27.400	-0.228	0.190
-569.646	-39.608	0.342	0.178
-568.631	800.000	-0.082	0.330
-567.617	-29.177	-0.125	-0.071
-566.602	800.000	-0.024	-0.097
-565.588	-96.861	-0.480	-0.125
-564.573	90.273	0.363	-0.403
-563.558	126.370	-0.071	-0.089
-562.544	-98.731	-0.194	-0.049
-561.529	505.196	0.090	0.208
-560.515	-91.330	-0.211	0.060
-559.500	-17.483	-0.097	0.061
-558.485	-33.765	-0.219	-0.120
-557.471	-200.000	0.020	0.188
-556.456	800.000	0.135	-0.444
-555.442	144.109	0.163	0.216
-554.427	-169.419	0.151	-0.005
-553.412	-113.682	-0.248	-0.048
-552.398	-39.642	0.062	-0.032
-551.383	-122.181	-0.130	-0.021
-550.369	800.000	-0.049	-0.198
-549.354	371.277	0.150	-0.303
-548.339	442.596	-0.041	-0.089
-547.325	-175.597	-0.183	0.005
-546.310	800.000	-0.093	-0.282
-545.296	41.868	-0.080	0.072
-544.281	-132.027	0.177	-0.023
-543.266	-200.000	-0.031	0.157
-542.252	-120.676	-0.246	0.041
-541.237	475.471	-0.136	0.305
-540.223	210.904	0.053	0.082
-539.208	-167.913	-0.022	-0.001
-538.193	-200.000	-0.038	0.326
-537.179	800.000	0.054	-0.170
-536.164	182.643	-0.026	0.038
-535.150	-200.000	0.047	0.269
-534.135	-192.076	-0.234	-0.002
-533.121	238.524	0.156	-0.257
-532.106	127.430	0.032	-0.040
-531.091	520.623	-0.091	0.211
-530.077	0.043	0.286	-0.202
-529.062	245.454	-0.130	0.216
-528.048	-162.226	0.087	0.004
-527.033	-200.000	0.042	-0.249
-526.018	66.093	-0.088	0.088
-525.004	-27.869	-0.133	-0.077
-523.989	-45.207	0.050	0.025
-522.975	-18.461	-0.159	-0.098
-521.960	-129.946	0.275	0.037
-520.945	-200.000	0.071	-0.378
-519.931	800.000	0.067	-0.212
-518.916	9.832	-0.141	-0.106
-517.902	-89.228	0.200	-0.059
-516.887	-52.262	-0.141	-0.065
-515.872	35.199	0.231	0.200
-514.858	-44.484	0.245	0.122
-513.843	270.220	0.134	-0.233
-512.829	-91.158	-0.121	0.034
-511.814	800.000	-0.078	0.322
-510.799	297.177	-0.120	0.217
-509.785	96.353	0.106	0.120
-508.770	-7.657	-0.505	-0.338
-507.756	-200.000	-0.008	-0.051
-506.741	800.000	0.090	0.300
-505.726	-22.655	0.139	0.083
-504.712	64.472	-0.165	-0.164
-503.697	-36.183	-0.057	0.030
-502.683	-32.890	0.390	0.214
-501.668	305.997	-0.069	-0.127
-500.653	-200.000	-0.001	0.175
-499.639	84.249	-0.193	-0.208
-498.624	-115.580	0.317	0.059
-497.610	624.102	-0.089	0.221
-496.595	59.829	-0.197	0.192
-495.581	18.103	0.104	-0.082
-494.566	-12.878	0.165	0.106
-493.551	197.854	-0.042	-0.064
-492.537	-60.638	0.104	0.044
-491.522	-200.000	-0.005	-0.186
-490.508	800.000	-0.074	-0.228
-489.493	492.829	0.010	-0.023
-488.478	110.825	-0.150	-0.178
-487.464	-200.000	0.021	-0.128
-486.449	-200.000	-0.008	-0.099
-485.435	22.079	0.195	0.157
-484.420	-146.931	0.263	-0.022
-483.405	-200.000	-0.076	-0.365
-482.391	1.676	0.437	-0.311
-481.376	-19.639	-0.499	-0.305
-480.362	-200.000	0.028	-0.219
-479.347	-200.000	-0.030	-0.274
-478.332	-147.599	-0.164	-0.014
-477.318	-86.384	0.078	0.024
-476.303	29.217	-0.229	-0.192
-475.289	663.549	-0.051	0.131
-474.274	-120.210	0.295	-0.050
-473.259	-87.301	0.177	0.053
-472.245	180.060	0.200	-0.290
-471.230	-200.000	-0.012	-0.140
-470.216	-114.488	-0.371	0.070
-469.201	-144.407	0.062	-0.006
-468.186	-76.957	0.472	0.163
-467.172	-200.000	-0.026	0.184
-466.157	449.424	0.113	0.246
-465.143	800.000	0.089	-0.370
-464.128	-200.000	0.017	0.239
-463.113	-200.000	-0.003	-0.060
-462.099	-88.698	0.203	-0.060
-461.084	-200.000	-0.009	0.040
-460.070	800.000	0.098	-0.288
-459.055	405.086	0.121	-0.251
-458.040	195.324	0.150	-0.225
-457.026	-151.057	0.192	-0.014
-456.011	800.000	0.055	0.174
-454.997	7.854	-0.071	-0.052
-453.982	-186.495	-0.233	0.003
-452.968	800.000	-0.073	0.207
-451.953	522.808	-0.091	0.212
-450.938	-41.314	0.236	-0.120
-449.924	361.368	0.134	-0.266
-448.909	-97.659	-0.063	0.016
-447.895	-151.415	-0.123	-0.009
-446.880	-180.014	0.205	-0.004
-445.865	346.248	-0.154	0.300
-444.851	56.231	-0.152	-0.146
-443.836	-39.724	0.083	-0.043
-442.822	-200.000	0.020	0.281
-441.807	-200.000	0.009	-0.312
-440.792	-5.705	0.127	-0.086
-439.778	-32.192	-0.331	0.182
-438.763	-139.805	0.255	-0.027
-437.749	-16.505	0.048	0.030
-436.734	-87.683	0.119	-0.035
-435.719	-170.868	0.127	-0.004
-434.705	54.222	-0.089	0.084
-433.690	163.523	0.097	-0.134
-432.676	-200.000	-0.019	0.141
-431.661	148.996	-0.095	-0.127
-430.646	-200.000	-0.022	0.103
-429.632	574.277	0.161	0.387
-428.617	93.768	0.164	-0.183
-427.603	340.725	0.185	-0.357
-426.588	487.324	0.142	-0.321
-425.573	-12.050	-0.136	0.088
-424.559	800.000	0.068	-0.197
-423.544	-62.206	-0.260	0.107
-422.530	509.749	-0.033	-0.076
-421.515	800.000	0.031	0.090
-420.500	-104.650	0.008	-0.002
-419.486	16.264	-0.186	0.145
-418.471	9.054	0.248	0.185
-417.457	-66.486	-0.211	-0.083
-416.442	593.561	0.035	-0.086
-415.428	62.731	0.169	0.166
-414.413	638.344	-0.079	-0.198
-413.398	-32.669	0.091	-0.050
-412.384	-26.473	-0.148	-0.086
-411.369	-200.000	0.022	0.334
-410.355	-97.283	0.133	-0.034
-409.340	180.639	0.078	-0.113
-408.325	118.180	-0.043	0.053
-407.311	-12.189	-0.275	0.178
-406.296	-26.746	0.469	-0.271
-405.282	-134.436	0.147	-0.018
-404.267	-69.920	-0.327	-0.123
-403.252	188.395	0.060	-0.088
-402.238	800.000	0.021	0.063
-401.223	86.239	-0.130	0.142
-400.209	-45.745	0.229	-0.112
-399.194	-181.601	-0.278	-0.005
-398.179	82.764	-0.204	-0.219
-397.165	316.634	-0.146	0.273
-396.150	-200.000	-0.010	0.141
-395.136	-154.379	-0.269	0.018
-394.121	-78.291	-0.081	-0.027
-393.106	97.963	0.110	-0.125
-392.092	-200.000	0.029	0.180
-391.077	39.903	-0.314	0.278
-390.063	-200.000	0.008	0.190
-389.048	800.000	0.058	-0.191
-388.033	-200.000	-0.019	0.133
-387.019	-69.158	0.182	-0.069
-386.004	-49.392	0.184	0.086
-384.990	-44.100	0.094	-0.047
-383.975	-156.289	-0.257	0.016
-382.960	800.000	-0.017	-0.058
-381.946	-56.550	0.071	0.031
-380.931	-75.958	0.237	0.083
-379.917	107.243	-0.149	-0.175
-378.902	153.039	0.116	0.157
-377.888	-118.475	0.258	0.045
-376.873	-158.680	-0.323	-0.018
-375.858	-138.340	-0.250	-0.027
-374.844	-21.538	0.109	-0.066
-373.829	178.454	0.158	-0.227
-372.815	-73.548	0.092	-0.033
-371.800	-200.000	-0.047	0.257
-370.785	-140.256	0.081	0.008
-369.771	280.078	0.068	-0.119
-368.756	-200.000	-0.062	0.285
-367.742	-98.600	0.348	0.088
-366.727	787.368	-0.053	0.143
-365.712	-135.893	-0.203	-0.024
-364.698	-49.678	-0.421	-0.197
-363.683	252.241	-0.028	0.047
-362.669	12.669	0.178	0.136
-361.654	437.109	-0.038	-0.082
-360.639	800.000	-0.082	0.264
-359.625	18.740	-0.488	0.385
-358.610	-163.023	0.392	-0.019
-357.596	-146.371	0.185	-0.016
-356.581	78.430	0.267	-0.281
-355.566	-181.723	0.196	-0.004
-354.552	-125.521	-0.052	0.008
-353.537	125.445	0.220	0.273
-352.523	2.120	-0.208	-0.148
-351.508	-90.349	0.378	-0.108
-350.493	-200.000	-0.056	0.360
-349.479	-5.129	-0.075	-0.051
-348.464	-200.000	-0.036	0.183
-347.450	-22.909	0.089	-0.053
-346.435	189.253	0.073	-0.108
-345.420	-19.074	-0.075	-0.046
-344.406	120.065	0.311	0.379
-343.391	-86.155	-0.256	-0.078
-342.377	691.845	-0.043	-0.111
-341.362	-95.224	0.094	-0.025
-340.348	292.731	0.118	0.212
-339.333	-200.000	0.008	0.148
-338.318	-117.037	-0.067	-0.012
-337.304	800.000	0.077	0.241
-336.289	10.176	0.113	-0.085
-335.275	292.846	0.130	0.234
-334.260	800.000	0.088	-0.265
-333.245	800.000	-0.120	-0.359
-332.231	296.330	0.032	0.058
-331.216	-200.000	-0.049	0.245
-330.202	-155.974	-0.110	0.007
-329.187	339.896	-0.116	-0.223
-328.172	106.644	0.136	-0.159
-327.158	-175.146	0.261	0.007
-326.143	-102.441	-0.117	-0.028
-325.129	-173.086	-0.285	-0.009
-324.114	-62.367	0.579	-0.237
-323.099	133.276	-0.190	0.242
-322.085	800.000	0.064	-0.253
-321.070	-28.399	-0.125	-0.071
-320.056	-111.712	0.166	0.033
-319.041	-200.000	0.014	-0.114
-318.026	308.865	-0.145	0.265
-317.012	134.692	0.023	0.029
-315.997	-177.859	0.265	0.006
-314.983	-89.757	-0.251	0.072
-313.968	89.378	0.260	0.284
-312.953	272.744	-0.085	-0.148
-311.939	-8.259	0.097	0.064
-310.924	-104.894	0.185	-0.042
-309.910	-71.016	-0.207	-0.077
-308.895	477.356	-0.089	0.198
-307.880	50.824	0.107	0.100
-306.866	2.475	-0.192	-0.136
-305.851	-38.765	0.241	0.125
-304.837	2.937	0.245	0.174
-303.822	298.386	-0.130	-0.236
-302.807	-143.465	0.225	0.021
-301.793	-200.000	0.018	-0.117
-300.778	-200.000	-0.009	0.045
-299.764	69.851	0.146	-0.147
-298.749	-200.000	-0.080	0.344
-297.735	-85.023	0.497	-0.153
-296.720	-94.705	-0.191	0.051
-295.705	118.710	0.120	0.145
-294.691	-137.609	0.295	0.033
-293.676	25.683	-0.115	-0.094
-292.662	800.000	-0.066	-0.197
-291.647	368.707	-0.167	-0.331
-290.632	21.463	-0.152	0.121
-289.618	-138.113	-0.164	0.018
-288.603	56.789	-0.174	0.167
-287.589	-45.760	0.145	0.070
-286.574	40.345	-0.266	-0.235
-285.559	-96.959	0.245	-0.063
-284.545	-111.763	-0.038	-0.008
-283.530	329.950	-0.167	0.315
-282.516	-118.715	0.172	-0.030
-281.501	-100.206	0.037	-0.009
-280.486	-200.000	-0.006	0.172
-279.472	-181.236	-0.068	-0.001
-278.457	-80.607	0.322	-0.105
-277.443	343.123	-0.133	-0.256
-276.428	-118.259	-0.128	0.022
-275.413	179.843	0.222	0.319
-274.399	-200.000	-0.050	0.248
-273.384	-169.790	-0.509	0.018
-272.370	-64.383	0.141	0.056
-271.355	-188.399	-0.315	0.004
-270.340	466.058	0.096	-0.212
-269.326	233.879	0.061	0.099
-268.311	20.204	0.234	-0.185
-267.297	800.000	0.021	0.066
-266.282	-118.271	-0.143	0.025
-265.267	-200.000	-0.026	-0.146
-264.253	-94.238	-0.068	-0.018
-263.238	-200.000	0.028	-0.289
-262.224	-66.256	0.097	-0.038
-261.209	800.000	-0.059	-0.235
-260.195	800.000	-0.018	-0.072
-259.180	214.535	-0.095	0.147
-258.165	239.533	-0.097	-0.158
-257.151	-51.336	0.209	0.096
-256.136	55.113	-0.166	0.157
-255.122	-15.810	0.179	-0.112
-254.107	131.066	-0.163	0.205
-253.092	-12.665	-0.131	0.084
-252.078	-152.250	-0.038	0.003
-251.063	-119.032	0.107	0.018
-250.049	-119.518	-0.232	-0.039
-249.034	-134.054	-0.282	0.034
-248.019	-200.000	-0.033	0.176
-247.005	800.000	-0.078	0.214
-245.990	142.525	-0.140	0.182
-244.976	-200.000	0.084	0.414
-243.961	800.000	0.017	-0.072
-242.946	-200.000	0.003	-0.069
-241.932	152.112	-0.147	0.197
-240.917	-59.557	0.104	0.044
-239.903	-139.050	-0.045	-0.005
-238.888	249.307	-0.066	-0.110
-237.873	-21.571	0.197	0.118
-236.859	262.783	0.087	0.147
-235.844	24.962	-0.124	0.101
-234.830	-118.957	0.061	-0.011
-233.815	-200.000	-0.012	0.118
-232.800	-84.456	-0.344	0.106
-231.786	-127.856	-0.066	-0.009
-230.771	-42.562	-0.123	-0.061
-229.757	-200.000	0.077	0.347
-228.742	539.022	0.068	0.158
-227.727	334.225	0.093	-0.176
-226.713	-123.053	0.234	0.037
-225.698	800.000	-0.051	-0.139
-224.684	607.655	-0.073	0.178
-223.669	114.993	0.068	-0.082
-222.655	-2.452	0.129	0.089
-221.640	-200.000	-0.013	-0.300
-220.625	50.605	-0.130	0.120
-219.611	338.195	-0.135	0.258
-218.596	-88.945	-0.264	0.077
-217.582	168.808	0.172	0.240
-216.567	116.468	-0.316	0.380
-215.552	800.000	0.031	-0.094
-214.538	151.543	-0.167	-0.223
-213.523	179.067	0.058	0.083
-212.509	122.845	0.144	0.176
-211.494	-119.758	-0.425	-0.072
-210.479	403.361	-0.238	-0.490
-209.465	800.000	-0.029	0.084
-208.450	-161.529	0.086	0.004
-207.436	800.000	0.041	0.152
-206.421	-35.498	-0.112	-0.059
-205.406	274.623	0.156	0.271
-204.392	800.000	0.056	-0.209
-203.377	-79.588	-0.247	-0.082
-202.363	288.702	0.070	-0.125
-201.348	293.589	0.054	-0.097
-200.333	627.412	-0.048	-0.118
-199.319	-99.470	0.215	-0.053
-198.304	-200.000	-0.016	0.162
-197.290	287.045	0.082	0.145
-196.275	373.687	0.074	-0.147
-195.260	86.817	-0.027	-0.029
-194.246	-90.187	-0.214	0.061
-193.231	-200.000	0.064	0.298
-192.217	176.070	0.044	-0.062
-191.202	-75.552	-0.083	-0.029
-190.187	-79.497	0.237	0.078
-189.173	11.574	0.185	-0.139
-188.158	800.000	0.067	-0.210
-187.144	-104.140	0.437	0.099
-186.129	-200.000	0.077	-0.499
-185.114	-146.257	-0.313	-0.027
-184.100	749.023	-0.037	0.098
-183.085	-160.688	0.294	-0.015
-182.071	118.522	0.121	-0.146
-181.056	618.201	0.074	-0.181
-180.042	-200.000	-0.006	-0.093
-179.027	408.650	-0.047	0.096
-178.012	-200.000	-0.052	-0.433
-176.998	-200.000	-0.028	-0.289
-175.983	-10.828	-0.135	0.087
-174.969	102.021	0.115	0.131
-173.954	-200.000	-0.029	-0.224
-172.939	-132.223	-0.176	0.022
-171.925	157.397	0.093	0.126
-170.910	-133.465	0.115	0.014
-169.896	53.461	0.095	0.089
-168.881	175.746	-0.183	-0.260
-167.866	-32.995	0.324	-0.176
-166.852	-200.000	-0.051	-0.394
-165.837	-20.608	0.046	-0.028
-164.823	165.907	0.082	-0.113
-163.808	-97.723	-0.343	0.087
-162.793	-26.027	-0.067	-0.038
-161.779	91.926	0.050	0.055
-160.764	19.390	0.380	0.298
-159.750	-200.000	-0.023	0.246
-158.735	53.498	-0.473	-0.443
-157.720	-113.566	0.078	0.015
-156.706	-15.053	-0.111	0.069
-155.691	-5.143	0.181	0.121
-154.677	-200.000	-0.030	0.131
-153.662	-200.000	-0.027	0.148
-152.647	161.876	-0.282	0.386
-151.633	-115.627	0.298	0.055
-150.618	6.698	0.170	-0.124
-149.604	146.096	0.072	-0.094
-148.589	-200.000	0.015	-0.131
-147.574	-35.281	0.207	0.110
-146.560	-130.145	0.072	0.010
-145.545	57.623	0.161	-0.153
-144.531	82.578	-0.100	-0.106
-143.516	-58.346	-0.277	-0.118
-142.502	-200.000	0.035	-0.199
-141.487	-28.497	0.146	-0.082
-140.472	51.293	-0.321	0.297
-139.458	355.416	-0.081	0.158
-138.443	160.536	0.146	-0.199
-137.429	183.488	0.127	0.184
-136.414	-55.606	-0.061	-0.027
-135.399	-200.000	-0.033	-0.293
-134.385	-80.017	-0.199	-0.065
-133.370	800.000	-0.078	0.264
-132.356	-84.652	0.343	0.106
-131.341	77.189	-0.118	-0.122
-130.326	-200.000	-0.049	-0.291
-129.312	-134.532	0.157	0.019
-128.297	16.775	-0.118	0.091
-127.283	800.000	-0.079	-0.243
-126.268	800.000	0.096	-0.319
-125.253	185.992	-0.070	-0.102
-124.239	33.575	-0.216	-0.183
-123.224	-11.588	-0.113	0.072
-122.210	-105.835	-0.027	-0.006
-121.195	64.080	-0.170	-0.167
-120.180	-200.000	-0.059	-0.366
-119.166	40.196	-0.240	0.211
-118.151	-200.000	-0.005	0.057
-117.137	219.442	0.148	0.231
-116.122	-58.006	0.251	-0.107
-115.107	-200.000	0.029	0.150
-114.093	324.043	0.028	-0.053
-113.078	800.000	0.102	0.412
-112.064	-200.000	-0.010	-0.174
-111.049	-56.108	-0.275	0.120
-110.034	-200.000	-0.009	0.139
-109.020	138.799	0.110	-0.141
-108.005	232.417	-0.134	-0.215
-106.991	-1.954	-0.057	0.039
-105.976	22.011	-0.236	0.188
-104.962	54.252	-0.032	0.030
-103.947	-116.940	0.062	0.011
-102.932	114.533	-0.100	-0.119
-101.918	65.222	-0.208	0.205
-100.903	800.000	0.005	0.018
-99.889	800.000	0.114	-0.324
-98.874	-133.357	0.236	-0.029
-97.859	3.705	0.100	-0.071
-96.845	-200.000	-0.028	-0.323
-95.830	800.000	-0.076	-0.321
-94.816	-103.878	0.213	0.049
-93.801	-77.204	0.464	-0.157
-92.786	75.995	0.207	-0.213
-91.772	41.901	0.264	-0.233
-90.757	-200.000	0.003	0.104
-89.743	-21.991	0.193	-0.114
-88.728	249.748	-0.052	-0.085
-87.713	-81.771	0.292	0.093
-86.699	800.000	-0.094	0.321
-85.684	-93.527	0.116	0.031
-84.670	-145.654	0.277	0.024
-83.655	-11.845	0.123	0.079
-82.640	-200.000	0.019	0.091
-81.626	-178.344	0.176	0.004
-80.611	-28.861	0.080	-0.045
-79.597	-63.112	0.094	-0.038
-78.582	-200.000	0.042	0.253
-77.567	-92.799	-0.134	-0.036
-76.553	-200.000	0.023	-0.192
-75.538	94.576	0.060	-0.066
-74.524	221.364	0.245	0.383
-73.509	245.696	0.088	0.144
-72.494	461.979	0.164	-0.355
-71.480	-200.000	-0.020	-0.128
-70.465	-10.209	0.219	-0.142
-69.451	-83.055	-0.204	0.064
-68.436	57.494	-0.095	0.090
-67.422	-200.000	0.040	0.350
-66.407	731.979	-0.041	0.106
-65.392	-94.059	-0.259	0.069
-64.378	-57.604	0.076	0.032
-63.363	-134.912	-0.108	-0.013
-62.349	127.978	0.066	0.082
-61.334	77.732	-1.262	-1.307
-60.319	145.029	0.757	0.985
-59.305	800.000	-0.502	-1.646
-58.290	800.000	0.509	1.559
-57.276	425.859	0.658	1.380
-56.261	-200.000	136.077	624.981
-55.246	344.082	1637.865	3124.164
-54.232	137.593	2776.170	3534.761
-53.217	80.969	2179.526	2287.509
-52.203	28.673	1699.767	1399.358
-51.188	21.854	1524.572	1208.276
-50.173	20.507	1503.902	1182.689
-49.159	43.498	1581.004	1405.560
-48.144	39.392	1591.291	1385.826
-47.130	21.844	1540.343	1220.511
-46.115	19.292	1524.359	1190.196
-45.100	19.099	1520.925	1186.139
-44.086	18.995	1519.540	1184.297
-43.071	18.914	1517.129	1181.816
-42.057	18.906	1515.746	1180.635
-41.042	19.063	1514.316	1180.549
-40.027	19.031	1512.477	1178.848
-39.013	18.946	1511.229	1177.250
-37.998	18.936	1509.864	1176.072
-36.984	19.035	1508.849	1175.908
-35.969	19.025	1507.464	1174.717
-34.954	18.985	1506.222	1173.430
-33.940	19.033	1504.831	1172.626
-32.925	19.124	1503.036	1171.799
-31.911	19.059	1501.807	1170.355
-30.896	19.108	1500.454	1169.588
-29.881	19.128	1499.366	1168.824
-28.867	19.137	1498.085	1167.842
-27.852	19.074	1496.632	1166.238
-26.838	19.129	1495.587	1165.750
-25.823	19.080	1493.747	1163.938
-24.809	19.141	1492.022	1162.957
-23.794	19.025	1491.069	1161.385
-22.779	19.168	1489.742	1161.270
-21.765	19.129	1488.991	1160.377
-20.750	19.111	1487.814	1159.291
-19.736	19.058	1486.651	1157.981
-18.721	19.135	1485.353	1157.447
-17.706	19.092	1484.278	1156.272
-16.692	19.139	1483.168	1155.679
-15.677	19.076	1482.235	1154.484
-14.663	19.079	1481.476	1153.867
-13.648	18.990	1480.372	1152.362
-12.633	18.981	1480.036	1151.992
-11.619	19.028	1478.564	1151.120
-10.604	19.034	1477.657	1150.403
-9.590	19.004	1477.109	1149.733
-8.575	19.140	1475.795	1149.576
-7.560	19.079	1475.038	1148.532
-6.546	19.069	1474.402	1147.926
-5.531	19.058	1473.307	1146.949
-4.517	19.009	1472.431	1145.900
-3.502	19.048	1471.514	1145.399
-2.487	18.970	1470.103	1143.735
-1.473	19.080	1469.365	1143.844
-0.458	18.933	1468.840	1142.417
0.556	17.997	1458.188	1131.387
1.571	14.895	1434.931	1092.995
2.586	11.706	1373.900	1026.424
3.600	10.366	1289.688	955.528
4.615	9.514	1246.573	918.640
5.629	8.544	1189.983	871.579
6.644	4.397	1110.776	792.359
7.659	1.094	1077.050	751.866
8.673	0.580	1072.637	746.183
9.688	0.536	1068.658	743.129
10.702	0.518	1067.582	742.230
11.717	0.606	1064.651	740.555
12.731	1.856	1065.057	746.901
13.746	6.971	1071.157	776.272
14.761	13.179	1079.970	813.233
15.775	16.705	1083.838	833.461
16.790	16.880	1082.969	833.578
17.804	15.740	1081.221	826.559
18.819	14.944	1079.343	821.144
19.834	14.507	1078.140	818.016
20.848	14.257	1077.368	816.132
21.863	14.197	1076.161	814.851
22.877	13.923	1075.418	812.872
23.892	13.657	1074.656	810.926
24.907	13.663	1073.995	810.383
25.921	13.547	1072.840	808.875
26.936	13.603	1072.282	808.655
27.950	13.631	1071.349	808.016
28.965	13.772	1070.891	808.285
29.980	13.753	1070.015	807.463
30.994	13.815	1068.974	806.907
32.009	13.850	1068.127	806.367
33.023	13.760	1067.741	805.567
34.038	13.843	1066.771	805.163
35.053	13.784	1065.783	804.062
36.067	13.720	1065.094	803.162
37.082	13.694	1064.179	802.277
38.096	13.739	1063.747	802.094
39.111	13.796	1062.613	801.446
40.126	13.854	1061.649	800.925
41.140	13.777	1060.083	799.302
42.155	13.616	1059.394	797.937
43.169	13.564	1058.537	796.971
44.184	13.697	1057.193	796.531
45.199	13.701	1056.511	795.966
46.213	13.475	1055.518	794.059
47.228	13.684	1054.120	793.940
48.242	13.729	1053.454	793.584
49.257	13.717	1052.154	792.477
50.271	13.727	1051.531	791.985
51.286	13.655	1050.512	790.802
52.301	13.741	1049.921	790.697
53.315	13.684	1049.249	789.852
54.330	13.754	1048.231	789.350
55.344	13.766	1046.941	788.366
56.359	13.620	1046.007	786.896
57.374	13.757	1044.983	786.710
58.388	13.780	1044.498	786.382
59.403	13.681	1043.720	785.259
60.417	13.581	1043.137	784.276
61.432	13.603	1042.029	783.478
62.447	13.707	1041.365	783.399
63.461	13.629	1040.266	782.137
64.476	13.552	1039.955	781.472
65.490	13.490	1038.826	780.260
66.505	13.601	1038.133	780.195
67.520	13.649	1037.312	779.736
68.534	13.626	1036.403	778.874
69.549	13.807	1035.107	778.679
70.563	13.625	1034.861	777.574
71.578	13.552	1034.333	776.763
72.593	13.524	1033.785	776.153
73.607	13.603	1032.186	775.255
74.622	13.488	1031.150	773.870
75.636	13.543	1030.662	773.692
76.651	13.590	1029.545	773.006
77.666	13.527	1029.042	772.265
78.680	13.584	1028.289	771.895
79.695	13.603	1027.397	771.248
80.709	13.524	1027.240	770.692
81.724	13.404	1026.593	769.581
82.739	13.669	1024.963	769.519
83.753	13.678	1024.802	769.374
84.768	13.664	1023.834	768.515
85.782	13.709	1023.129	768.128
86.797	13.899	1021.934	768.039
87.812	13.775	1021.181	766.834
88.826	13.722	1019.955	765.602
89.841	13.724	1019.528	765.222
90.855	13.676	1018.557	764.204
91.870	13.756	1018.160	764.206
92.884	13.748	1017.458	763.576
93.899	13.814	1016.640	763.196
94.914	13.830	1015.600	762.420
95.928	13.793	1014.753	761.551
96.943	13.836	1014.437	761.439
97.957	13.841	1013.293	760.540
98.972	13.849	1012.470	759.890
99.987	13.807	1012.012	759.287
101.001	13.815	1011.030	758.520
102.016	13.836	1010.120	757.866
103.030	13.882	1009.050	757.204
104.045	13.979	1008.202	756.942
105.060	13.909	1006.941	755.612
106.074	13.905	1006.091	754.887
107.089	13.774	1005.467	753.760
108.103	13.685	1004.833	752.812
109.118	13.643	1004.098	752.007
110.133	13.770	1002.863	751.588
111.147	13.690	1002.095	750.587
112.162	13.719	1001.423	750.144
113.176	13.766	1000.360	749.497
114.191	13.816	999.294	748.857
115.206	13.763	998.547	747.993
116.220	13.795	997.803	747.511
117.235	13.726	997.357	746.801
118.249	13.692	996.230	745.739
119.264	13.768	995.282	745.303
120.279	13.687	994.543	744.320
121.293	13.760	993.093	743.497
122.308	13.793	992.664	743.260
123.322	13.633	991.836	741.857
124.337	13.755	990.633	741.437
125.352	13.597	989.716	739.978
126.366	13.576	988.666	739.035
127.381	13.697	987.248	738.449
128.395	13.636	986.265	737.377
129.410	13.544	986.075	736.760
130.424	13.701	984.263	736.039
131.439	13.797	983.389	735.743
132.454	13.849	982.844	735.503
133.468	13.619	982.130	733.885
134.483	13.744	981.511	733.912
135.497	13.766	980.574	733.243
136.512	13.800	979.823	732.765
137.527	13.831	978.702	732.000
138.541	13.655	978.595	731.080
139.556	13.787	978.102	731.227
140.570	13.770	976.677	730.025
141.585	13.772	976.049	729.496
142.600	13.927	975.728	729.874
143.614	13.906	974.776	729.005
144.629	13.920	974.145	728.528
145.643	14.114	972.913	728.392
146.658	14.067	971.741	727.248
147.673	14.057	971.070	726.638
148.687	13.876	970.718	725.518
149.702	13.878	969.779	724.761
150.716	13.866	968.822	723.928
151.731	13.868	967.566	722.933
152.746	13.819	967.346	722.494
153.760	13.890	966.466	722.080
154.775	13.971	965.848	721.909
155.789	14.098	964.457	721.354
156.804	14.043	963.846	720.594
157.819	14.105	962.693	719.939
158.833	14.054	962.509	719.515
159.848	14.227	961.704	719.599
160.862	14.083	961.380	718.669
161.877	14.073	960.186	717.671
162.892	14.087	959.497	717.151
163.906	14.065	958.818	716.486
164.921	13.980	958.025	715.465
165.935	13.915	956.874	714.264
166.950	14.048	955.830	713.992
167.964	14.069	955.064	713.447
168.979	14.159	953.841	712.853
169.994	14.161	953.184	712.310
171.008	14.090	952.221	711.224
172.023	14.186	951.257	710.852
173.037	14.321	950.660	710.917
174.052	14.147	950.035	709.646
175.067	14.252	949.061	709.304
176.081	14.261	948.532	708.884
177.096	14.105	948.026	707.777
178.110	14.153	946.829	707.026
179.125	14.248	945.971	706.725
180.140	14.190	945.445	706.023
181.154	14.125	944.756	705.170
182.169	14.269	944.116	705.242
183.183	14.242	943.462	704.577
184.198	14.330	942.406	704.099
185.213	14.393	941.616	703.711
186.227	14.380	941.038	703.164
187.242	14.281	941.545	703.062
188.256	14.439	940.075	702.565
189.271	14.469	939.168	701.952
190.286	14.442	938.317	701.143
191.300	14.230	937.891	699.871
192.315	14.250	937.080	699.285
193.329	14.234	936.497	698.724
194.344	14.272	935.744	698.259
195.359	14.332	935.095	697.964
196.373	14.332	934.576	697.513
197.388	14.400	933.824	697.176
198.402	14.492	933.318	697.119
199.417	14.514	933.213	697.074
200.432	14.535	932.618	696.657
201.446	14.527	932.393	696.390
202.461	14.692	931.381	696.263
203.475	14.653	931.042	695.784
204.490	14.697	930.408	695.434
205.504	14.633	929.278	694.261
206.519	14.548	928.757	693.455
207.534	14.634	927.785	693.025
208.548	14.713	927.257	692.899
209.563	14.671	926.557	692.140
210.577	14.540	925.585	690.809
211.592	14.679	925.068	690.938
212.607	14.611	924.623	690.264
213.621	14.624	924.349	690.052
214.636	14.839	923.371	690.148
215.650	14.709	922.502	688.902
216.665	14.780	921.925	688.704
217.680	14.831	921.449	688.497
218.694	14.639	921.292	687.526
219.709	14.807	920.593	687.634
220.723	14.829	919.721	687.015
221.738	14.707	919.399	686.210
222.753	14.820	918.362	685.840
223.767	14.878	917.368	685.275
224.782	14.895	916.404	684.563
225.796	14.888	915.759	683.992
226.811	14.869	914.992	683.284
227.826	14.890	914.614	683.026
228.840	14.960	913.857	682.684
229.855	14.943	913.395	682.210
230.869	14.829	912.435	680.969
231.884	14.927	911.716	680.769
232.899	14.892	911.045	680.066
233.913	15.015	910.382	680.011
234.928	14.797	909.970	678.758
235.942	14.983	908.938	678.684
236.957	14.887	908.468	677.884
237.972	14.968	907.960	677.774
238.986	15.007	907.334	677.401
240.001	15.046	906.684	677.014
241.015	14.997	905.663	675.994
242.030	15.179	904.919	676.113
243.045	15.044	904.185	674.963
244.059	15.082	903.610	674.625
245.074	15.137	902.825	674.202
246.088	15.130	902.275	673.703
247.103	15.073	902.220	673.374
248.117	15.247	900.769	672.928
249.132	15.093	900.838	672.301
250.147	15.301	899.302	671.930
251.161	15.254	898.970	671.433
252.176	15.295	898.532	671.213
253.190	15.394	897.848	671.039
254.205	15.366	896.886	670.149
255.220	15.541	896.393	670.421
256.234	15.577	895.306	669.690
257.249	15.531	895.314	669.452
258.263	15.571	894.390	668.861
259.278	15.429	894.364	668.220
260.293	15.588	893.458	668.113
261.307	15.516	893.141	667.532
262.322	15.460	892.636	666.874
263.336	15.635	891.908	666.966
264.351	15.721	891.210	666.724
265.366	15.781	890.787	666.587
266.380	15.699	890.050	665.651
267.395	15.625	889.334	664.766
268.409	15.740	888.632	664.634
269.424	15.660	887.949	663.752
270.439	15.690	887.033	663.127
271.453	15.638	886.644	662.572
272.468	15.627	885.502	661.614
273.482	15.521	885.460	661.108
274.497	15.599	884.653	660.756
275.512	15.619	883.938	660.240
276.526	15.700	882.872	659.705
277.541	15.860	881.972	659.601
278.555	15.762	881.687	658.942
279.570	15.810	881.064	658.608
280.585	15.826	880.395	658.111
281.599	15.873	879.961	657.912
282.614	15.739	879.311	656.846
283.628	15.813	878.634	656.569
284.643	15.901	877.813	656.244
285.657	15.767	878.053	655.842
286.672	15.826	877.006	655.232
287.687	15.930	876.724	655.366
288.701	15.874	876.146	654.660
289.716	15.897	875.518	654.221
290.730	16.055	874.786	654.231
291.745	16.008	873.978	653.384
292.760	15.900	873.563	652.600
293.774	16.015	872.869	652.468
294.789	16.003	872.388	652.003
295.803	16.143	871.375	651.732
296.818	16.016	870.937	650.854
297.833	15.916	870.474	650.064
298.847	15.926	869.861	649.589
299.862	16.049	868.820	649.229
300.876	16.156	868.353	649.233
301.891	16.175	867.683	648.746
302.906	16.261	866.552	648.176
303.920	16.189	866.376	647.708
304.935	16.177	865.671	647.079
305.949	16.242	865.358	647.035
306.964	16.377	864.422	646.796
307.979	16.268	863.668	645.760
308.993	16.292	863.312	645.526
310.008	16.407	862.870	645.580
311.022	16.243	862.390	644.537
312.037	16.474	861.561	644.739
313.052	16.358	861.467	644.169
314.066	16.299	860.649	643.277
315.081	16.351	860.000	642.934
316.095	16.200	859.865	642.202
317.110	16.327	858.984	641.968
318.125	16.333	858.373	641.479
319.139	16.203	858.212	640.806
320.154	16.401	857.274	640.801
321.168	16.367	856.598	640.112
322.183	16.475	856.355	640.282
323.197	16.463	855.605	639.618
324.212	16.512	854.875	639.200
325.227	16.434	854.172	638.324
326.241	16.419	853.976	638.067
327.256	16.444	853.538	637.775
328.270	16.523	852.783	637.452
329.285	16.545	852.176	637.024
330.300	16.571	851.771	636.764
331.314	16.433	851.523	636.003
332.329	16.623	850.237	635.701
333.343	16.545	849.915	635.112
334.358	16.550	849.454	634.729
335.373	16.473	848.870	633.947
336.387	16.564	848.599	634.030
337.402	16.634	847.854	633.680
338.416	16.699	847.114	633.312
339.431	16.698	846.525	632.813
340.446	16.768	846.065	632.675
341.460	16.855	845.118	632.234
342.475	16.721	844.926	631.536
343.489	16.734	844.642	631.316
344.504	16.754	843.838	630.735
345.519	16.891	843.131	630.659
346.533	16.749	842.936	629.928
347.548	16.775	842.795	629.863
348.562	16.904	841.630	629.417
349.577	16.895	841.047	628.892
350.592	16.991	840.204	628.562
351.606	16.946	839.927	628.134
352.621	16.829	839.977	627.680
353.635	16.805	839.558	627.222
354.650	16.907	838.991	627.121
355.665	16.922	838.559	626.801
356.679	16.967	837.995	626.488
357.694	17.029	837.729	626.463
358.708	16.901	836.984	625.379
359.723	16.951	836.368	625.048
360.738	17.004	835.788	624.755
361.752	17.003	835.327	624.348
362.767	16.912	835.281	623.927
363.781	17.042	834.645	623.873
364.796	17.056	834.186	623.526
365.810	17.117	833.666	623.307
366.825	17.023	833.614	622.867
367.840	17.130	832.910	622.677
368.854	17.252	832.107	622.469
369.869	17.161	831.722	621.794
370.883	17.096	831.367	621.236
371.898	17.238	830.500	621.051
372.913	17.270	830.042	620.770
373.927	17.217	829.520	620.134
374.942	17.226	829.037	619.747
375.956	17.205	828.017	618.855
376.971	17.291	827.599	618.801
377.986	17.456	826.909	618.830
379.000	17.506	826.320	618.518
380.015	17.470	826.169	618.219
381.029	17.400	825.662	617.530
382.044	17.668	824.662	617.701
383.059	17.584	824.239	617.021
384.073	17.461	823.712	616.129
385.088	17.377	823.498	615.609
386.102	17.458	822.689	615.245
387.117	17.377	822.577	614.812
388.132	17.422	822.042	614.520
389.146	17.445	821.489	614.137
390.161	17.600	820.997	614.273
391.175	17.602	820.518	613.868
392.190	17.570	820.168	613.436
393.205	17.466	819.877	612.789
394.219	17.496	819.794	612.780
395.234	17.527	818.995	612.241
396.248	17.510	818.340	611.637
397.263	17.464	818.089	611.228
398.278	17.628	817.234	611.125
399.292	17.533	817.052	610.596
400.307	17.570	816.671	610.389
401.321	17.552	816.381	610.051
402.336	17.631	815.639	609.725
403.350	17.650	815.295	609.485
404.365	17.762	814.461	609.206
405.380	17.677	814.392	608.797
406.394	17.634	814.259	608.490
407.409	17.792	813.249	608.244
408.423	17.801	812.798	607.886
409.438	17.852	812.648	607.901
410.453	17.860	812.224	607.559
411.467	17.919	811.505	607.178
412.482	17.857	810.773	606.357
413.496	17.886	810.610	606.284
414.511	17.923	810.217	606.068
415.526	17.947	809.792	605.782
416.540	17.888	809.700	605.448
417.555	17.991	808.984	605.224
418.569	17.968	808.336	604.607
419.584	17.908	808.044	604.122
420.599	18.079	807.664	604.388
421.613	115.809	1299.734	1492.211
422.628	100.149	1371.364	1492.270
