DTS Sentinel unit serial number:	SN413079Multiplexer serial number:	ORYXHardware model number:	OX4-SRSoftware version number:	ORYX F/W v4.00 Oryx Data Collector v3.7.2.0data status	okinstallation	princeton_trtdifferential loss correction	single-endedforward channel	channel 3reverse channel	N/Adate	2019/09/12time	08:06:11forward acquisition time	60.00reverse acquisition time	0.00gamma	496.2192k internal	0.2313k external	0.2313temperature offset calibration	1.0039default loss term (dB/km)	0.3790temperature slope calibration	1.0000multiplexer offset coefficient	1.0000multiplexer slope coefficient	1.0000fibre end	0.00T internal ref (°C)	33.16T ext. ref 1 (°C)	1.69T ext. ref 2 (°C)	29.64length (m)	temperature (°C)	Stokes	anti-Stokes-747.200	-60.537	0.184	0.079
-746.185	0.363	0.012	0.009
-745.171	47.374	-0.055	-0.052
-744.156	800.000	0.063	-0.258
-743.142	49.205	-0.079	0.075
-742.127	-95.532	-0.179	0.049
-741.112	-52.818	-0.117	-0.054
-740.098	-200.000	0.047	0.379
-739.083	309.403	-0.167	0.317
-738.069	11.662	-0.045	-0.035
-737.054	-200.000	-0.090	-0.550
-736.039	530.983	-0.097	0.232
-735.025	-39.293	-0.181	-0.096
-734.010	193.486	0.097	0.149
-732.996	30.570	-0.212	-0.183
-731.981	-200.000	0.007	-0.051
-730.966	59.180	-0.281	0.280
-729.952	-55.726	0.162	0.073
-728.937	-200.000	-0.017	-0.208
-727.923	340.626	-0.096	-0.190
-726.908	-121.686	-0.233	-0.039
-725.894	-200.000	-0.035	0.183
-724.879	500.283	0.126	-0.295
-723.864	3.937	0.393	-0.291
-722.850	65.261	0.008	0.008
-721.835	17.330	-0.231	-0.186
-720.821	21.567	0.127	0.105
-719.806	174.174	-0.185	-0.270
-718.791	268.354	-0.074	-0.132
-717.777	45.123	-0.159	-0.149
-716.762	-200.000	-0.020	-0.093
-715.748	-36.563	-0.112	0.061
-714.733	100.965	-0.076	-0.090
-713.718	731.440	0.053	-0.144
-712.704	-41.473	-0.288	-0.150
-711.689	71.100	-0.280	0.294
-710.675	-144.004	0.329	-0.031
-709.660	398.485	-0.109	0.231
-708.645	225.964	0.115	0.189
-707.631	170.997	0.022	-0.032
-706.616	217.064	0.144	-0.232
-705.602	-38.424	-0.144	-0.077
-704.587	-200.000	-0.071	-0.371
-703.572	-133.351	0.248	0.032
-702.558	-153.860	-0.478	-0.033
-701.543	-107.231	0.339	-0.076
-700.529	-21.563	-0.158	-0.098
-699.514	-200.000	-0.055	-0.630
-698.499	-92.062	0.518	-0.148
-697.485	31.302	-0.140	-0.121
-696.470	20.706	0.264	-0.216
-695.456	-200.000	-0.038	-0.301
-694.441	30.584	0.294	-0.254
-693.426	-8.860	0.209	-0.142
-692.412	-200.000	-0.007	-0.186
-691.397	800.000	-0.066	-0.289
-690.383	43.009	-0.032	0.030
-689.368	-200.000	-0.048	0.328
-688.354	-83.007	-0.063	-0.021
-687.339	-101.243	0.139	-0.034
-686.324	-155.282	0.275	0.018
-685.310	-51.304	-0.229	-0.108
-684.295	272.431	0.108	0.193
-683.281	84.264	0.104	-0.115
-682.266	197.093	-0.058	-0.089
-681.251	-59.119	0.086	0.037
-680.237	87.247	0.157	-0.176
-679.222	219.641	0.121	0.196
-678.208	86.383	-0.083	0.092
-677.193	116.944	-0.216	0.268
-676.178	290.680	-0.163	-0.299
-675.164	-49.721	0.235	-0.113
-674.149	309.378	0.190	-0.360
-673.135	155.866	0.277	0.386
-672.120	276.350	0.155	-0.279
-671.105	-96.369	0.333	0.089
-670.091	800.000	-0.062	-0.240
-669.076	151.294	-0.270	-0.372
-668.062	-52.258	-0.199	0.093
-667.047	283.734	0.051	-0.092
-666.032	-200.000	0.013	-0.066
-665.018	-200.000	-0.017	0.270
-664.003	-81.124	-0.144	0.048
-662.989	37.116	0.211	0.189
-661.974	-92.901	-0.040	0.011
-660.959	79.478	0.084	-0.092
-659.945	535.116	0.041	0.098
-658.930	-36.047	0.046	-0.025
-657.916	-49.905	-0.118	-0.057
-656.901	-72.887	0.288	-0.107
-655.886	-200.000	0.009	-0.060
-654.872	413.546	0.117	0.252
-653.857	-200.000	0.068	-0.480
-652.843	60.787	-0.205	-0.206
-651.828	-3.965	0.275	-0.193
-650.814	-29.368	-0.086	0.050
-649.799	-46.141	-0.278	0.138
-648.784	9.278	-0.151	-0.115
-647.770	-111.802	-0.064	0.013
-646.755	-41.529	0.325	0.169
-645.741	-200.000	-0.066	-0.313
-644.726	-108.720	-0.117	0.025
-643.711	110.930	-0.193	0.235
-642.697	323.511	-0.132	-0.254
-641.682	-99.731	0.221	0.056
-640.668	27.765	-0.123	0.104
-639.653	-106.963	-0.044	0.010
-638.638	-152.053	-0.041	0.003
-637.624	3.977	-0.016	-0.012
-636.609	-200.000	0.026	0.123
-635.595	-127.822	-0.205	0.030
-634.580	-200.000	0.023	0.277
-633.565	2.498	-0.180	0.132
-632.551	31.246	-0.356	-0.308
-631.536	71.862	0.203	-0.213
-630.522	-87.605	-0.088	0.027
-629.507	42.244	0.166	-0.152
-628.492	800.000	0.130	-0.461
-627.478	36.007	0.258	-0.229
-626.463	-43.762	-0.066	-0.033
-625.449	376.587	0.148	-0.306
-624.434	-198.765	-0.386	-0.002
-623.419	800.000	-0.017	0.065
-622.405	105.370	-0.241	0.288
-621.390	-135.159	-0.113	-0.014
-620.376	110.146	-0.018	-0.022
-619.361	102.459	-0.084	0.099
-618.346	-91.425	-0.444	0.128
-617.332	-107.029	0.429	-0.096
-616.317	-147.235	-0.011	0.001
-615.303	-17.873	-0.241	-0.152
-614.288	-31.094	-0.062	-0.035
-613.273	72.453	0.142	-0.149
-612.259	148.999	-0.176	-0.240
-611.244	800.000	-0.069	-0.195
-610.230	-200.000	-0.091	-0.408
-609.215	-200.000	0.073	0.348
-608.201	609.721	0.176	0.443
-607.186	-11.875	0.155	0.102
-606.171	-87.852	0.270	-0.082
-605.157	21.212	0.205	-0.168
-604.142	-4.082	0.172	0.120
-603.128	-83.466	0.159	-0.051
-602.113	-144.406	0.291	0.027
-601.098	-6.053	-0.098	-0.068
-600.084	25.092	-0.360	-0.301
-599.069	369.575	0.131	-0.268
-598.055	-200.000	0.006	-0.257
-597.040	75.058	0.124	0.132
-596.025	35.100	0.249	-0.220
-595.011	800.000	-0.071	-0.211
-593.996	800.000	-0.153	-0.453
-592.982	130.873	-0.162	0.210
-591.967	-163.662	-0.154	0.007
-590.952	499.851	-0.176	-0.410
-589.938	80.775	-0.138	-0.150
-588.923	800.000	0.044	0.126
-587.909	-25.499	0.260	-0.155
-586.894	-200.000	-0.058	-0.268
-585.879	-33.387	-0.115	-0.064
-584.865	-87.922	0.170	-0.052
-583.850	-85.348	-0.338	-0.106
-582.836	-126.467	0.528	0.079
-581.821	277.505	-0.076	-0.136
-580.806	304.142	-0.037	-0.070
-579.792	-200.000	0.010	0.074
-578.777	-185.811	0.077	0.001
-577.763	-200.000	0.056	-0.330
-576.748	441.679	0.069	-0.152
-575.733	800.000	-0.088	-0.279
-574.719	-94.867	-0.297	-0.081
-573.704	-59.478	0.424	-0.183
-572.690	-16.513	0.164	-0.105
-571.675	-46.287	0.220	0.109
-570.661	-78.374	-0.268	0.093
-569.646	-11.489	0.184	-0.122
-568.631	-32.589	0.016	-0.009
-567.617	-200.000	0.013	-0.068
-566.602	-200.000	-0.039	-0.337
-565.588	59.400	0.056	-0.056
-564.573	-72.678	0.111	0.041
-563.558	-86.752	-0.203	-0.063
-562.544	354.935	-0.040	0.079
-561.529	-200.000	0.084	-0.507
-560.515	-159.549	-0.119	0.007
-559.500	-90.327	-0.175	-0.051
-558.485	251.407	-0.268	0.459
-557.471	16.640	-0.213	-0.169
-556.456	-122.346	-0.245	-0.040
-555.442	350.014	0.090	-0.179
-554.427	-144.839	-0.006	0.001
-553.412	297.246	0.164	-0.302
-552.398	167.697	0.082	-0.118
-551.383	141.049	0.140	-0.186
-550.369	81.030	-0.172	-0.187
-549.354	800.000	-0.014	0.057
-548.339	-53.764	-0.081	-0.037
-547.325	-200.000	0.067	-0.421
-546.310	-119.178	0.335	-0.059
-545.296	149.025	-0.137	0.187
-544.281	195.053	0.095	-0.145
-543.266	14.628	0.155	-0.122
-542.252	-200.000	0.027	-0.258
-541.237	-17.349	-0.122	-0.078
-540.223	125.077	-0.020	0.025
-539.208	-39.237	-0.110	0.058
-538.193	49.024	0.080	0.076
-537.179	800.000	0.026	0.076
-536.164	110.598	-0.130	0.157
-535.150	-20.018	-0.205	0.127
-534.135	-200.000	0.034	-0.230
-533.121	488.914	-0.028	0.065
-532.106	-130.809	-0.178	-0.024
-531.091	-123.555	-0.199	0.032
-530.077	-55.335	0.100	-0.045
-529.062	-27.555	0.272	0.159
-528.048	525.452	-0.064	0.153
-527.033	150.754	-0.119	0.162
-526.018	52.547	0.207	-0.199
-525.004	800.000	-0.038	-0.145
-523.989	-32.851	0.228	-0.127
-522.975	768.100	-0.013	0.036
-521.960	-122.860	-0.293	-0.048
-520.945	800.000	0.021	0.064
-519.931	204.297	-0.065	0.101
-518.916	299.059	0.189	0.349
-517.902	-101.309	-0.258	-0.063
-516.887	-22.513	0.056	0.034
-515.872	169.310	-0.111	0.159
-514.858	178.727	0.139	-0.204
-513.843	59.480	0.272	0.269
-512.829	165.221	0.177	0.251
-511.814	-44.755	-0.323	-0.162
-510.799	-127.231	-0.259	0.038
-509.785	-55.108	0.353	0.160
-508.770	65.129	0.021	-0.021
-507.756	195.335	-0.162	-0.247
-506.741	-187.646	-0.141	-0.002
-505.726	64.927	0.138	-0.140
-504.712	456.619	0.039	-0.087
-503.697	-175.381	-0.303	-0.008
-502.683	373.235	-0.066	0.135
-501.668	-18.768	-0.154	0.096
-500.653	-164.213	0.338	0.016
-499.639	281.329	-0.058	-0.105
-498.624	-200.000	0.010	0.123
-497.610	191.177	-0.044	0.066
-496.595	-1.078	0.082	-0.059
-495.581	68.667	0.065	0.067
-494.566	229.787	-0.107	0.176
-493.551	-165.924	0.239	-0.010
-492.537	-56.642	-0.167	-0.074
-491.522	-98.131	0.053	0.014
-490.508	607.149	-0.030	0.075
-489.493	-43.743	-0.097	-0.049
-488.478	-140.517	-0.147	0.015
-487.464	-47.286	-0.128	0.062
-486.449	220.685	0.043	0.070
-485.435	-103.818	-0.248	0.058
-484.420	-200.000	-0.112	-0.001
-483.405	175.708	0.119	-0.174
-482.391	800.000	-0.067	0.285
-481.376	40.190	0.150	-0.136
-480.362	-117.547	0.316	0.057
-479.347	-52.593	0.069	0.032
-478.332	145.551	-0.185	-0.248
-477.318	800.000	-0.066	0.195
-476.303	-200.000	0.010	-0.433
-475.289	-200.000	0.002	-0.192
-474.274	-164.785	0.051	0.002
-473.259	-27.002	0.075	0.044
-472.245	98.479	0.067	0.078
-471.230	-200.000	-0.027	-0.168
-470.216	-107.743	-0.070	-0.015
-469.201	63.876	-0.177	0.178
-468.186	491.194	0.027	0.061
-467.172	-200.000	-0.023	-0.177
-466.157	-44.195	-0.102	-0.051
-465.143	800.000	0.009	-0.029
-464.128	235.149	-0.166	-0.275
-463.113	316.546	0.053	-0.101
-462.099	-56.569	0.144	-0.064
-461.084	-73.418	0.109	-0.040
-460.070	22.272	-0.170	0.140
-459.055	-47.960	-0.193	-0.094
-458.040	-200.000	0.029	0.176
-457.026	-76.696	-0.182	0.064
-456.011	800.000	0.039	-0.143
-454.997	61.022	0.282	0.281
-453.982	-96.344	-0.201	0.053
-452.968	-119.183	-0.258	0.045
-451.953	-30.097	-0.097	0.055
-450.938	361.257	0.059	0.119
-449.924	-111.259	0.136	0.028
-448.909	-158.444	-0.233	-0.014
-447.895	-118.853	0.199	0.035
-446.880	-200.000	0.022	0.118
-445.865	13.183	-0.176	-0.137
-444.851	84.244	0.157	0.172
-443.836	212.182	-0.149	0.236
-442.822	172.689	0.103	-0.149
-441.807	-200.000	0.002	-0.046
-440.792	-35.919	-0.186	0.101
-439.778	800.000	-0.032	-0.130
-438.763	-137.344	0.146	-0.017
-437.749	22.101	0.173	0.141
-436.734	17.356	0.070	-0.056
-435.719	3.519	-0.240	-0.175
-434.705	-200.000	0.014	0.106
-433.690	770.118	-0.020	-0.054
-432.676	-200.000	-0.005	-0.126
-431.661	-3.602	-0.379	-0.264
-430.646	22.950	0.115	-0.095
-429.632	206.827	-0.045	-0.071
-428.617	121.759	0.143	-0.178
-427.603	254.894	0.071	-0.122
-426.588	539.850	0.050	0.119
-425.573	800.000	0.154	0.534
-424.559	84.734	-0.207	0.227
-423.544	-200.000	-0.004	-0.306
-422.530	-126.998	-0.180	-0.026
-421.515	-165.511	0.164	0.007
-420.500	216.072	-0.136	-0.216
-419.486	-130.682	0.177	-0.024
-418.471	219.365	0.124	0.198
-417.457	-200.000	-0.015	0.262
-416.442	800.000	-0.048	0.150
-415.428	-2.492	0.240	-0.168
-414.413	-168.496	-0.220	0.008
-413.398	-106.033	-0.240	-0.054
-412.384	239.718	-0.066	0.109
-411.369	-179.246	0.303	0.007
-410.355	271.730	0.056	0.099
-409.340	800.000	-0.116	-0.329
-408.325	-200.000	-0.044	-0.448
-407.311	-151.061	0.377	-0.028
-406.296	346.752	-0.100	0.197
-405.282	-49.412	-0.245	0.117
-404.267	-79.730	-0.115	0.039
-403.252	-151.748	-0.120	-0.009
-402.238	7.718	0.316	-0.237
-401.223	-200.000	0.036	0.174
-400.209	-200.000	0.022	0.097
-399.194	53.016	0.305	-0.292
-398.179	-109.213	-0.110	-0.023
-397.165	422.348	-0.141	0.304
-396.150	-96.784	-0.094	-0.025
-395.136	280.088	-0.105	0.187
-394.121	800.000	-0.053	0.184
-393.106	62.954	0.284	0.284
-392.092	-95.406	0.185	0.050
-391.077	-45.504	0.089	-0.044
-390.063	-200.000	-0.026	-0.213
-389.048	109.202	0.154	-0.184
-388.033	679.108	0.029	-0.075
-387.019	-111.064	0.135	0.028
-386.004	43.440	-0.160	0.147
-384.990	-96.692	0.067	-0.018
-383.975	-200.000	0.018	0.256
-382.960	-200.000	-0.018	0.303
-381.946	14.678	0.133	0.104
-380.931	-92.184	0.069	0.020
-379.917	-117.867	0.424	-0.076
-378.902	-129.193	-0.334	0.047
-377.888	292.338	0.026	0.047
-376.873	-36.497	0.344	0.185
-375.858	-200.000	0.041	0.360
-374.844	-171.038	-0.164	-0.006
-373.829	310.021	0.113	0.211
-372.815	-200.000	0.040	0.309
-371.800	-30.656	0.041	-0.023
-370.785	-78.296	-0.179	0.061
-369.771	-103.298	0.468	0.110
-368.756	16.895	0.208	0.164
-367.742	-83.136	0.433	0.139
-366.727	171.940	-0.154	0.221
-365.712	366.087	-0.126	0.254
-364.698	800.000	0.084	0.273
-363.683	800.000	-0.049	0.156
-362.669	100.923	-0.167	-0.194
-361.654	366.548	0.012	-0.024
-360.639	-115.825	0.069	-0.013
-359.625	-48.686	0.114	0.055
-358.610	-26.550	-0.137	0.080
-357.596	-200.000	-0.000	-0.070
-356.581	800.000	-0.040	0.144
-355.566	199.676	0.075	-0.115
-354.552	-200.000	-0.060	-0.488
-353.537	-200.000	0.378	-0.002
-352.523	800.000	-0.045	-0.164
-351.508	-23.138	-0.011	0.007
-350.493	19.402	0.061	-0.049
-349.479	209.552	-0.169	-0.265
-348.464	-200.000	0.104	0.000
-347.450	-79.033	0.422	-0.143
-346.435	-43.420	0.055	0.028
-345.420	-200.000	0.047	-0.343
-344.406	32.296	-0.173	-0.149
-343.391	-40.580	-0.128	0.066
-342.377	-89.738	-0.094	0.027
-341.362	-167.926	-0.273	-0.011
-340.348	-200.000	-0.010	-0.318
-339.333	223.867	0.170	0.274
-338.318	-82.780	0.270	-0.087
-337.304	-144.308	0.246	-0.023
-336.289	1.275	-0.118	0.084
-335.275	104.908	0.056	-0.066
-334.260	-200.000	-0.027	-0.167
-333.245	-54.753	-0.378	-0.171
-332.231	-200.000	-0.010	0.217
-331.216	0.890	-0.121	0.086
-330.202	-35.859	0.041	0.022
-329.187	174.586	-0.157	-0.227
-328.172	800.000	0.096	-0.402
-327.158	75.685	-0.114	-0.120
-326.143	-148.872	-0.354	-0.029
-325.129	152.785	-0.150	0.204
-324.114	-200.000	-0.004	-0.152
-323.099	719.783	-0.135	0.358
-322.085	-200.000	0.022	0.231
-321.070	235.742	0.224	0.369
-320.056	-200.000	0.033	0.185
-319.041	-22.500	-0.106	-0.064
-318.026	263.244	-0.081	-0.140
-317.012	129.563	-0.140	0.178
-315.997	-139.355	0.127	0.014
-314.983	198.523	-0.037	0.056
-313.968	137.954	0.258	-0.337
-312.953	-60.591	0.343	-0.145
-311.939	119.213	-0.218	0.269
-310.924	800.000	-0.065	0.231
-309.910	29.329	-0.217	-0.184
-308.895	143.001	-0.183	0.243
-307.880	-200.000	0.021	0.095
-306.866	3.286	-0.106	-0.077
-305.851	-200.000	0.038	-0.180
-304.837	-200.000	-0.045	-0.295
-303.822	-61.346	0.271	-0.114
-302.807	246.946	0.060	-0.100
-301.793	85.194	-0.190	-0.208
-300.778	-46.827	0.395	0.193
-299.764	-54.566	0.381	0.172
-298.749	5.024	-0.153	-0.112
-297.735	-37.429	-0.234	0.124
-296.720	75.741	0.180	-0.190
-295.705	-108.009	0.061	-0.013
-294.691	-45.481	-0.023	0.011
-293.676	-147.982	0.149	0.012
-292.662	-200.000	-0.467	0.002
-291.647	383.024	0.049	0.101
-290.632	18.811	0.221	-0.177
-289.618	-2.401	0.124	0.086
-288.603	-37.869	-0.263	-0.139
-287.589	-37.424	-0.431	-0.229
-286.574	13.584	-0.156	-0.121
-285.559	800.000	0.114	0.382
-284.545	53.510	0.128	-0.122
-283.530	-104.695	0.269	0.062
-282.516	-50.596	-0.078	-0.037
-281.501	-97.521	-0.228	0.059
-280.486	-119.604	0.137	-0.024
-279.472	7.075	-0.286	0.212
-278.457	-200.000	-0.036	0.210
-277.443	-200.000	-0.057	-0.305
-276.428	-100.952	-0.042	0.010
-275.413	261.570	-0.032	0.056
-274.399	-162.533	-0.114	0.006
-273.384	274.691	-0.175	0.309
-272.370	403.665	-0.072	0.151
-271.355	23.648	0.067	-0.055
-270.340	-37.174	0.192	-0.102
-269.326	153.354	-0.070	0.095
-268.311	3.998	0.095	0.069
-267.297	-156.608	-0.184	0.011
-266.282	736.894	-0.045	-0.120
-265.267	-153.172	0.324	0.023
-264.253	-83.981	0.085	-0.027
-263.238	-200.000	0.009	-0.054
-262.224	123.122	-0.099	0.123
-261.209	-200.000	-0.067	0.347
-260.195	584.675	-0.036	0.087
-259.180	467.492	-0.105	0.233
-258.165	28.735	-0.064	-0.054
-257.151	786.500	0.045	-0.123
-256.136	-61.931	-0.136	0.057
-255.122	9.589	0.080	0.060
-254.107	-53.257	0.423	0.193
-253.092	42.356	0.306	-0.277
-252.078	232.931	0.320	-0.523
-251.063	-16.096	-0.070	0.044
-250.049	-200.000	-0.012	0.116
-249.034	-89.900	0.112	0.032
-248.019	-10.488	-0.108	-0.071
-247.005	778.144	-0.135	0.367
-245.990	272.647	-0.220	0.386
-244.976	487.172	0.071	0.161
-243.961	-79.967	-0.210	0.070
-242.946	20.368	-0.181	0.145
-241.932	-58.693	0.330	-0.142
-240.917	-33.499	0.183	0.101
-239.903	170.323	-0.083	-0.118
-238.888	25.166	0.037	-0.031
-237.873	-102.794	0.182	0.043
-236.859	-90.075	0.079	0.023
-235.844	-140.943	-0.441	-0.045
-234.830	193.531	0.148	-0.222
-233.815	220.809	0.148	-0.237
-232.800	-200.000	0.010	-0.093
-231.786	97.417	0.265	0.303
-230.771	88.086	0.219	0.242
-229.757	-61.647	0.193	-0.081
-228.742	-200.000	-0.013	-0.388
-227.727	800.000	0.072	-0.248
-226.713	-200.000	0.345	-0.001
-225.698	800.000	0.091	0.341
-224.684	11.701	-0.095	0.072
-223.669	-81.896	-0.397	0.129
-222.655	-200.000	-0.014	-0.200
-221.640	257.721	0.117	-0.199
-220.625	-70.848	0.267	-0.100
-219.611	325.919	-0.196	0.372
-218.596	-200.000	-0.063	0.385
-217.582	-81.506	0.061	-0.020
-216.567	-200.000	-0.039	-0.195
-215.552	-143.745	-0.071	0.007
-214.538	152.207	0.107	0.145
-213.523	425.764	0.050	0.106
-212.509	-83.153	-0.107	-0.034
-211.494	248.719	-0.006	0.010
-210.479	-13.660	0.054	0.034
-209.465	-18.552	0.031	0.019
-208.450	-200.000	0.012	0.303
-207.436	-70.587	0.144	0.054
-206.421	-21.987	-0.223	-0.134
-205.406	78.542	-0.151	-0.160
-204.392	-61.475	-0.100	-0.042
-203.377	-89.431	-0.188	-0.055
-202.363	-200.000	-0.001	0.200
-201.348	-200.000	-0.202	0.000
-200.333	-81.678	-0.102	0.033
-199.319	-104.912	-0.151	0.034
-198.304	-200.000	0.050	0.317
-197.290	-77.767	-0.706	0.242
-196.275	182.146	0.192	0.281
-195.260	-53.297	0.010	-0.005
-194.246	59.789	-0.142	0.139
-193.231	-132.621	0.073	0.009
-192.217	800.000	0.020	-0.063
-191.202	-200.000	-0.081	-0.361
-190.187	222.435	0.090	0.144
-189.173	-53.423	-0.038	-0.017
-188.158	69.883	-0.157	-0.161
-187.144	-63.136	0.217	0.089
-186.129	-200.000	-0.083	0.726
-185.114	-200.000	-0.002	0.267
-184.100	-200.000	0.038	0.225
-183.085	-122.681	-0.219	0.035
-182.071	23.904	0.017	-0.014
-181.056	800.000	0.118	0.383
-180.042	800.000	0.071	0.301
-179.027	-5.494	0.124	-0.084
-178.012	7.052	0.087	-0.064
-176.998	-200.000	-0.008	0.080
-175.983	-132.943	-0.086	0.011
-174.969	-102.774	0.029	-0.007
-173.954	368.492	-0.036	-0.072
-172.939	104.740	0.163	0.190
-171.925	800.000	-0.021	-0.062
-170.910	800.000	-0.085	-0.278
-169.896	-121.027	0.442	0.074
-168.881	-200.000	0.010	0.213
-167.866	-65.259	0.092	-0.037
-166.852	-17.815	0.405	0.252
-165.837	-50.369	-0.155	0.072
-164.823	-101.073	-0.079	-0.019
-163.808	152.316	-0.114	-0.154
-162.793	-42.297	-0.294	0.149
-161.779	-51.846	-0.147	-0.068
-160.764	-159.689	-0.279	0.015
-159.750	-183.004	0.264	0.005
-158.735	-34.970	0.422	0.228
-157.720	-13.413	0.328	0.211
-156.706	111.622	0.128	-0.154
-155.691	-47.799	0.133	-0.064
-154.677	-50.856	0.137	0.064
-153.662	-165.686	-0.234	-0.010
-152.647	234.638	-0.173	-0.282
-151.633	123.549	0.191	0.237
-150.618	-77.983	0.156	-0.053
-149.604	-129.098	0.444	0.061
-148.589	-200.000	-0.052	-0.297
-147.574	-200.000	-0.044	-0.316
-146.560	-68.720	-0.254	0.097
-145.545	150.321	-0.150	0.202
-144.531	-75.111	0.129	-0.046
-143.516	267.407	0.051	-0.088
-142.502	-200.000	-0.085	0.381
-141.487	-159.381	0.237	0.013
-140.472	-133.191	0.233	0.029
-139.458	-46.976	0.357	0.173
-138.443	-169.134	-0.221	0.008
-137.429	-200.000	0.047	0.260
-136.414	710.886	0.034	0.089
-135.399	-165.210	0.457	-0.020
-134.385	-112.641	0.171	0.034
-133.370	533.689	-0.124	0.290
-132.356	-200.000	-0.050	-0.295
-131.341	177.789	-0.165	0.238
-130.326	-152.375	0.297	0.021
-129.312	423.870	-0.069	-0.148
-128.297	-200.000	-0.043	0.188
-127.283	27.408	0.094	0.078
-126.268	-200.000	0.003	-0.037
-125.253	-200.000	-0.019	-0.220
-124.239	143.723	-0.263	0.347
-123.224	-200.000	0.048	0.287
-122.210	175.141	-0.349	-0.500
-121.195	9.956	-0.278	-0.209
-120.180	-27.078	-0.196	-0.113
-119.166	800.000	-0.082	0.329
-118.151	-200.000	-0.026	0.290
-117.137	-81.468	0.360	0.117
-116.122	76.092	0.148	0.155
-115.107	153.900	-0.162	0.220
-114.093	-60.329	-0.204	0.086
-113.078	564.675	-0.120	0.287
-112.064	-168.907	0.175	0.007
-111.049	-78.959	0.193	-0.065
-110.034	-69.631	0.460	-0.174
-109.020	-49.616	-0.385	0.181
-108.005	35.416	-0.107	0.093
-106.991	115.589	-0.224	0.271
-105.976	-81.271	0.216	0.071
-104.962	76.743	0.117	0.122
-103.947	-200.000	0.015	0.258
-102.932	-2.931	0.156	0.108
-101.918	-200.000	-0.061	-0.269
-100.903	700.424	0.102	0.267
-99.889	29.025	0.114	-0.096
-98.874	800.000	-0.082	0.225
-97.859	-200.000	-0.013	0.299
-96.845	-108.279	0.227	0.049
-95.830	-77.933	0.325	0.111
-94.816	-135.455	-0.051	0.006
-93.801	188.237	-0.088	0.130
-92.786	-200.000	-0.009	-0.236
-91.772	-200.000	0.117	-0.581
-90.757	-135.704	0.286	-0.033
-89.743	23.622	0.187	0.152
-88.728	604.238	0.062	-0.153
-87.713	1.983	0.167	-0.119
-86.699	11.537	0.271	0.205
-85.684	28.665	-0.353	0.296
-84.670	0.757	0.054	-0.038
-83.655	800.000	-0.051	-0.198
-82.640	92.811	0.211	-0.236
-81.626	51.810	0.126	-0.118
-80.611	265.217	-0.083	-0.144
-79.597	800.000	0.062	0.265
-78.582	603.508	-0.129	-0.317
-77.567	51.777	0.232	-0.218
-76.553	24.119	0.039	0.032
-75.538	800.000	-0.124	-0.396
-74.524	-155.977	0.008	0.001
-73.509	56.284	0.110	0.105
-72.494	61.980	-0.129	0.127
-71.480	-88.363	-0.181	-0.053
-70.465	-23.363	-0.057	-0.034
-69.451	538.176	0.127	0.298
-68.436	67.681	0.143	0.144
-67.422	-118.683	0.419	-0.073
-66.407	-62.398	-0.241	-0.099
-65.392	55.755	-0.259	-0.248
-64.378	-200.000	-0.039	0.215
-63.363	-65.262	-0.030	-0.012
-62.349	800.000	0.019	-0.072
-61.334	98.424	-1.020	-1.161
-60.319	50.911	0.264	0.247
-59.305	509.240	-0.596	-1.369
-58.290	475.233	0.535	1.193
-57.276	323.864	0.844	1.591
-56.261	-200.000	98.372	598.285
-55.246	533.320	1416.135	3311.392
-54.232	150.489	2610.039	3499.904
-53.217	110.988	2189.200	2602.361
-52.203	43.470	1723.658	1555.541
-51.188	36.262	1537.156	1337.444
-50.173	33.934	1510.229	1298.088
-49.159	54.474	1560.149	1483.907
-48.144	56.165	1578.584	1513.101
-47.130	36.545	1536.022	1338.204
-46.115	33.253	1521.388	1302.780
-45.100	33.350	1517.322	1299.915
-44.086	33.175	1515.864	1297.412
-43.071	33.261	1513.080	1295.564
-42.057	33.019	1512.687	1293.526
-41.042	33.165	1510.551	1292.645
-40.027	33.170	1509.337	1291.589
-39.013	33.245	1507.600	1290.558
-37.998	33.084	1506.939	1288.846
-36.984	33.106	1506.023	1288.160
-35.969	33.212	1504.032	1287.129
-34.954	33.283	1502.414	1286.179
-33.940	33.140	1501.739	1284.577
-32.925	33.205	1499.870	1283.365
-31.911	33.246	1498.924	1282.787
-30.896	33.172	1497.331	1280.871
-29.881	33.202	1496.296	1280.137
-28.867	33.247	1494.940	1279.226
-27.852	33.205	1493.138	1277.352
-26.838	33.125	1492.349	1276.088
-25.823	33.249	1490.323	1275.140
-24.809	33.205	1488.851	1273.533
-23.794	33.245	1487.310	1272.431
-22.779	33.176	1485.828	1270.651
-21.765	33.206	1485.483	1270.509
-20.750	33.214	1483.930	1269.182
-19.736	33.203	1483.180	1268.419
-18.721	33.159	1482.025	1267.088
-17.706	33.084	1481.057	1265.703
-16.692	33.122	1479.707	1264.756
-15.677	33.124	1478.710	1263.864
-14.663	33.042	1478.355	1262.962
-13.648	33.075	1477.533	1262.432
-12.633	33.186	1476.138	1261.929
-11.619	33.103	1475.227	1260.547
-10.604	33.047	1474.643	1259.623
-9.590	33.125	1473.354	1258.992
-8.575	33.097	1472.716	1258.210
-7.560	33.205	1471.606	1257.937
-6.546	33.101	1471.095	1256.757
-5.531	33.111	1469.754	1255.624
-4.517	33.101	1468.810	1254.707
-3.502	33.126	1467.984	1254.115
-2.487	33.084	1466.557	1252.563
-1.473	33.048	1465.673	1251.526
-0.458	33.099	1464.279	1250.623
0.556	33.253	1454.875	1240.653
1.571	30.659	1429.944	1202.542
2.586	27.442	1371.837	1133.584
3.600	25.857	1292.062	1058.272
4.615	24.475	1245.535	1012.243
5.629	20.836	1186.339	944.357
6.644	10.541	1098.743	822.590
7.659	3.009	1055.951	753.657
8.673	1.923	1050.360	744.301
9.688	1.695	1047.555	741.138
10.702	1.558	1045.574	739.002
11.717	1.585	1043.775	737.797
12.731	4.757	1047.716	755.945
13.746	14.566	1061.577	813.949
14.761	22.759	1072.353	862.348
15.775	24.756	1074.348	873.642
16.790	25.204	1073.900	875.385
17.804	25.005	1073.302	873.849
18.819	24.771	1072.457	871.946
19.834	24.985	1071.782	872.362
20.848	25.077	1071.780	872.729
21.863	25.116	1071.432	872.560
22.877	25.108	1071.035	872.119
23.892	25.087	1070.250	871.304
24.907	25.100	1069.123	870.371
25.921	25.049	1068.532	869.563
26.936	25.092	1068.242	869.458
27.950	25.105	1066.584	868.099
28.965	24.917	1065.858	866.518
29.980	24.977	1063.745	865.017
30.994	24.986	1062.218	863.741
32.009	25.141	1061.897	864.148
33.023	25.211	1061.761	864.297
34.038	24.896	1060.568	861.737
35.053	24.860	1059.566	860.671
36.067	25.015	1059.094	860.960
37.082	24.974	1058.238	859.991
38.096	25.064	1057.539	859.777
39.111	25.279	1056.734	860.077
40.126	25.281	1056.060	859.461
41.140	25.264	1054.776	858.258
42.155	24.952	1053.226	855.432
43.169	24.635	1052.307	853.095
44.184	24.657	1051.446	852.430
45.199	24.759	1050.280	851.895
46.213	24.657	1049.316	850.549
47.228	24.665	1048.427	849.792
48.242	24.812	1047.881	849.973
49.257	24.953	1047.409	850.185
50.271	25.006	1045.877	849.116
51.286	25.125	1045.464	849.270
52.301	25.120	1044.858	848.682
53.315	25.077	1044.394	848.026
54.330	25.085	1043.589	847.334
55.344	25.064	1042.592	846.352
56.359	25.040	1041.542	845.311
57.374	24.939	1041.408	844.648
58.388	24.733	1040.322	842.724
59.403	24.790	1039.287	842.079
60.417	24.745	1038.443	841.109
61.432	24.689	1037.483	839.994
62.447	24.589	1037.007	839.064
63.461	24.817	1036.327	839.511
64.476	24.760	1035.784	838.727
65.490	24.810	1034.805	838.097
66.505	24.745	1033.581	836.725
67.520	24.792	1032.822	836.257
68.534	24.811	1032.751	836.216
69.549	24.720	1031.266	834.514
70.563	24.307	1030.630	831.996
71.578	24.268	1029.832	831.098
72.593	24.447	1028.737	830.977
73.607	24.249	1027.579	829.047
74.622	24.216	1026.486	827.935
75.636	24.450	1025.915	828.491
76.651	24.619	1025.627	828.968
77.666	24.483	1024.488	827.343
78.680	24.362	1023.604	825.994
79.695	24.470	1023.418	826.271
80.709	24.518	1022.644	825.799
81.724	24.588	1021.977	825.507
82.739	24.689	1021.120	825.210
83.753	24.742	1020.060	824.525
84.768	24.855	1019.559	824.570
85.782	25.262	1019.294	826.155
86.797	25.609	1018.300	826.870
87.812	25.332	1017.932	825.227
88.826	25.231	1016.520	823.547
89.841	25.202	1016.114	823.009
90.855	25.302	1015.102	822.577
91.870	25.400	1014.429	822.407
92.884	25.234	1013.611	820.911
93.899	25.318	1012.150	820.039
94.914	25.090	1011.653	818.523
95.928	25.210	1010.932	818.414
96.943	25.266	1010.061	817.894
97.957	24.973	1008.883	815.534
98.972	24.806	1007.612	813.673
99.987	24.539	1007.108	811.979
101.001	24.661	1006.436	811.921
102.016	24.918	1006.229	812.847
103.030	25.153	1004.677	812.590
104.045	25.091	1003.680	811.428
105.060	24.840	1002.483	809.256
106.074	24.749	1001.216	807.748
107.089	24.680	1000.774	807.011
108.103	24.977	1000.440	808.011
109.118	25.199	999.460	808.146
110.133	24.866	998.401	805.719
111.147	24.775	997.330	804.377
112.162	24.781	996.008	803.263
113.176	24.465	994.876	800.864
114.191	24.636	994.379	801.158
115.206	24.759	993.728	801.113
116.220	24.467	992.346	798.625
117.235	24.237	991.236	796.633
118.249	24.279	991.288	796.792
119.264	24.499	990.233	796.852
120.279	24.344	989.263	795.314
121.293	24.446	988.322	794.940
122.308	24.404	988.019	794.436
123.322	24.373	987.376	793.713
124.337	24.559	985.521	792.979
125.352	24.356	984.325	791.044
126.366	23.917	982.815	787.819
127.381	23.599	981.649	785.405
128.395	24.070	981.673	787.441
129.410	24.755	981.266	790.069
130.424	24.880	980.863	790.230
131.439	24.947	979.423	789.293
132.454	25.007	978.521	788.760
133.468	24.900	977.802	787.639
134.483	24.786	977.121	786.520
135.497	24.987	976.235	786.620
136.512	25.307	975.511	787.373
137.527	25.132	975.194	786.281
138.541	25.131	974.188	785.396
139.556	25.121	973.660	784.857
140.570	25.199	972.814	784.443
141.585	25.335	971.618	784.005
142.600	25.377	971.361	783.910
143.614	25.102	970.505	781.954
144.629	25.311	969.902	782.307
145.643	25.567	969.212	782.795
146.658	25.306	968.315	780.867
147.673	25.296	966.696	779.450
148.687	25.262	965.601	778.350
149.702	24.971	964.907	776.460
150.716	24.976	963.578	775.342
151.731	24.926	962.900	774.513
152.746	25.018	962.044	774.153
153.760	25.141	961.582	774.246
154.775	25.348	960.715	774.372
155.789	25.349	959.967	773.702
156.804	25.312	959.241	772.891
157.819	25.248	958.420	771.887
158.833	25.292	957.118	770.959
159.848	25.462	956.529	771.146
160.862	25.296	956.570	770.398
161.877	25.397	954.765	769.311
162.892	25.327	953.788	768.153
163.906	25.363	953.224	767.785
164.921	25.241	952.428	766.555
165.935	25.315	950.682	765.399
166.950	25.399	949.980	765.125
167.964	25.361	949.293	764.341
168.979	25.421	948.310	763.738
169.994	25.232	947.295	762.047
171.008	25.209	945.874	760.742
172.023	25.176	945.684	760.379
173.037	25.518	944.693	760.963
174.052	25.357	943.709	759.423
175.067	25.132	942.842	757.710
176.081	25.051	941.871	756.520
177.096	25.006	941.372	755.862
178.110	25.117	940.345	755.437
179.125	24.973	939.526	754.107
180.140	24.623	938.273	751.564
181.154	24.852	937.450	751.798
182.169	24.876	937.263	751.685
183.183	25.031	937.185	752.206
184.198	25.400	936.497	753.135
185.213	25.297	935.687	751.985
186.227	25.194	935.094	751.010
187.242	25.281	934.733	751.018
188.256	25.306	934.189	750.617
189.271	25.358	933.316	750.066
190.286	25.525	932.457	750.005
191.300	25.338	931.580	748.455
192.315	24.779	930.396	745.110
193.329	24.005	928.294	740.146
194.344	23.610	927.550	737.845
195.359	24.268	927.886	740.782
196.373	25.101	928.153	744.389
197.388	25.303	928.406	745.367
198.402	25.187	927.584	744.157
199.417	25.197	926.992	743.659
200.432	25.338	926.195	743.539
201.446	25.176	925.367	742.136
202.461	24.851	924.645	740.146
203.475	24.799	924.624	739.849
204.490	24.311	922.850	736.352
205.504	23.367	920.310	730.371
206.519	23.697	920.621	731.911
207.534	24.789	920.870	736.545
208.548	24.765	920.354	735.966
209.563	25.281	920.240	737.934
210.577	25.234	919.411	737.011
211.592	24.880	918.456	734.725
212.607	25.410	918.631	736.977
213.621	25.401	918.418	736.702
214.636	25.546	917.345	736.371
215.650	25.391	916.821	735.251
216.665	25.397	916.152	734.674
217.680	25.212	915.858	733.616
218.694	25.531	915.338	734.441
219.709	25.109	914.373	731.878
220.723	24.775	913.292	729.585
221.738	24.944	912.862	729.867
222.753	25.217	912.483	730.609
223.767	25.026	911.970	729.360
224.782	25.187	911.199	729.333
225.796	25.464	910.554	729.875
226.811	25.443	910.192	729.438
227.826	25.093	908.995	726.994
228.840	24.307	907.452	722.511
229.855	24.176	907.062	721.605
230.869	24.516	906.220	722.249
231.884	24.181	905.439	720.206
232.899	24.110	904.996	719.507
233.913	24.933	905.290	723.001
234.928	25.274	904.381	723.586
235.942	25.126	903.604	722.301
236.957	25.129	903.320	722.025
237.972	24.797	902.324	719.830
238.986	24.643	901.830	718.750
240.001	24.858	900.950	718.849
241.015	24.833	900.257	718.133
242.030	24.895	900.159	718.240
243.045	25.032	899.324	718.059
244.059	25.234	898.651	718.266
245.074	25.408	898.281	718.605
246.088	25.350	897.452	717.647
247.103	24.964	896.391	715.192
248.117	24.893	896.374	714.831
249.132	25.459	896.095	716.806
250.147	25.893	896.024	718.417
251.161	25.953	895.737	718.361
252.176	26.240	895.094	718.924
253.190	26.102	894.328	717.698
254.205	26.065	894.063	717.274
255.220	26.397	893.398	717.996
256.234	26.414	892.678	717.420
257.249	26.350	892.069	716.613
258.263	26.112	891.176	714.889
259.278	26.060	890.708	714.247
260.293	26.083	890.496	714.104
261.307	26.247	889.683	714.035
262.322	26.118	889.472	713.295
263.336	25.998	888.303	711.820
264.351	25.614	886.816	709.051
265.366	24.569	884.768	703.239
266.380	24.007	884.360	700.640
267.395	25.028	884.350	704.588
268.409	25.750	884.842	707.760
269.424	25.516	884.243	706.296
270.439	25.829	883.666	707.000
271.453	26.007	882.768	706.918
272.468	25.917	882.511	706.297
273.482	26.000	881.985	706.140
274.497	26.150	881.582	706.340
275.512	26.081	880.579	705.205
276.526	25.495	879.055	701.635
277.541	25.625	879.063	702.088
278.555	25.861	878.764	702.707
279.570	25.709	877.732	701.228
280.585	25.534	877.289	700.132
281.599	25.636	876.972	700.212
282.614	25.663	876.646	699.996
283.628	25.400	875.266	697.808
284.643	24.885	874.513	695.149
285.657	25.352	874.613	696.981
286.672	25.283	873.894	696.075
287.687	24.806	872.788	693.285
288.701	25.138	872.696	694.440
289.716	25.653	872.269	696.030
290.730	25.220	871.202	693.445
291.745	25.208	870.441	692.730
292.760	24.994	869.647	691.211
293.774	24.836	869.203	690.188
294.789	25.840	869.748	694.432
295.803	26.443	869.872	696.794
296.818	26.234	869.234	695.416
297.833	26.523	868.739	696.070
298.847	26.244	867.734	694.131
299.862	25.864	866.826	691.884
300.876	26.057	866.400	692.224
301.891	26.498	865.315	692.986
302.906	26.468	865.267	692.771
303.920	26.128	864.120	690.490
304.935	25.962	863.493	689.294
305.949	26.230	863.677	690.403
306.964	26.525	862.555	690.573
307.979	26.282	861.940	689.094
308.993	26.214	861.701	688.579
310.008	26.283	861.970	688.999
311.022	26.515	861.461	689.413
312.037	26.365	860.555	688.056
313.052	26.116	859.962	686.576
314.066	25.934	859.297	685.292
315.081	25.441	857.581	681.993
316.095	24.641	856.364	677.929
317.110	25.147	856.657	680.022
318.125	25.958	857.013	683.321
319.139	25.593	855.861	680.960
320.154	24.493	854.317	675.511
321.168	23.953	853.130	672.470
322.183	24.689	853.261	675.296
323.197	25.737	853.293	679.216
324.212	25.953	853.143	679.855
325.227	26.063	853.304	680.338
326.241	26.184	852.579	680.155
327.256	26.100	852.195	679.472
328.270	26.045	851.234	678.436
329.285	25.874	851.160	677.676
330.300	25.782	849.927	676.290
331.314	25.476	848.936	674.293
332.329	25.601	848.531	674.381
333.343	26.067	848.429	675.985
334.358	26.368	847.746	676.507
335.373	26.338	847.497	676.137
336.387	26.283	847.332	675.739
337.402	26.487	847.014	676.187
338.416	26.797	846.166	676.611
339.431	26.705	845.780	675.898
340.446	26.826	844.753	675.468
341.460	27.092	844.788	676.428
342.475	27.018	843.896	675.379
343.489	26.850	842.964	673.949
344.504	26.746	842.799	673.372
345.519	26.924	842.691	673.887
346.533	27.297	842.010	674.665
347.548	27.259	841.654	674.179
348.562	27.204	841.243	673.586
349.577	27.053	841.147	672.891
350.592	26.948	840.192	671.677
351.606	26.917	839.991	671.342
352.621	27.131	839.090	671.355
353.635	26.950	838.650	670.274
354.650	26.834	838.249	669.465
355.665	26.517	837.419	667.576
356.679	25.439	835.842	662.288
357.694	25.357	835.139	661.370
358.708	25.917	835.158	663.390
359.723	25.943	834.361	662.794
360.738	26.200	834.261	663.598
361.752	26.786	833.546	665.122
362.767	26.798	833.895	665.386
363.781	27.061	833.459	665.942
364.796	27.468	833.141	667.122
365.810	27.406	833.382	667.027
366.825	27.435	833.096	666.848
367.840	27.582	832.326	666.709
368.854	27.356	831.656	665.288
369.869	26.836	830.708	662.569
370.883	26.699	830.084	661.515
371.898	26.777	829.533	661.301
372.913	26.765	828.932	660.721
373.927	26.712	828.534	660.152
374.942	26.931	827.406	659.992
375.956	26.924	827.352	659.863
376.971	27.175	826.735	660.226
377.986	27.237	826.265	660.017
379.000	27.429	825.764	660.255
380.015	27.383	825.465	659.790
381.029	27.284	824.653	658.724
382.044	27.167	824.132	657.827
383.059	27.494	823.226	658.227
384.073	27.427	822.726	657.527
385.088	27.350	822.533	657.036
386.102	27.568	821.774	657.157
387.117	27.255	821.219	655.527
388.132	27.087	820.577	654.351
389.146	26.895	819.963	653.114
390.161	26.395	818.807	650.338
391.175	26.572	818.643	650.786
392.190	26.956	818.450	651.956
393.205	27.144	817.987	652.201
394.219	25.965	816.843	647.003
395.234	24.465	814.117	639.419
396.248	23.600	813.287	635.615
397.263	24.703	814.285	640.292
398.278	26.485	815.400	647.495
399.292	26.894	815.168	648.717
400.307	26.848	814.523	647.979
401.321	26.725	814.315	647.321
402.336	26.735	813.902	646.969
403.350	26.976	813.754	647.654
404.365	27.407	813.821	649.186
405.380	27.814	813.624	650.423
406.394	28.067	813.454	651.131
407.409	28.138	812.954	650.927
408.423	28.070	812.470	650.238
409.438	28.091	811.725	649.658
410.453	28.019	811.539	649.197
411.467	28.202	810.840	649.231
412.482	27.996	810.716	648.342
413.496	27.960	809.807	647.431
414.511	28.229	809.099	647.759
415.526	28.209	809.182	647.697
416.540	28.038	808.907	646.816
417.555	28.197	808.289	646.825
418.569	27.834	807.496	644.851
419.584	27.721	807.049	644.041
420.599	27.943	806.552	644.368
421.613	108.190	1284.861	1451.902
422.628	93.362	1354.568	1452.043
