DTS Sentinel unit serial number:	SN413079Multiplexer serial number:	ORYXHardware model number:	OX4-SRSoftware version number:	ORYX F/W v4.00 Oryx Data Collector v3.7.2.0data status	okinstallation	princeton_trtdifferential loss correction	single-endedforward channel	channel 3reverse channel	N/Adate	2019/09/14time	15:20:35forward acquisition time	60.00reverse acquisition time	0.00gamma	496.2192k internal	0.2293k external	0.2293temperature offset calibration	1.0059default loss term (dB/km)	0.3790temperature slope calibration	1.0000multiplexer offset coefficient	1.0000multiplexer slope coefficient	1.0000fibre end	0.00T internal ref (°C)	39.06T ext. ref 1 (°C)	5.11T ext. ref 2 (°C)	34.04length (m)	temperature (°C)	Stokes	anti-Stokes-747.200	800.000	-0.040	0.155
-746.185	-200.000	-0.047	-0.352
-745.171	55.130	0.074	-0.073
-744.156	800.000	0.062	0.248
-743.142	7.594	-0.008	-0.006
-742.127	21.259	0.280	-0.232
-741.112	-32.277	0.138	0.079
-740.098	-151.548	-0.247	0.019
-739.083	-117.498	-0.209	-0.039
-738.069	565.638	-0.075	0.187
-737.054	294.255	0.106	-0.198
-736.039	-55.428	-0.152	-0.070
-735.025	800.000	-0.064	-0.223
-734.010	-200.000	0.018	0.238
-732.996	-88.806	-0.238	-0.072
-731.981	23.105	0.026	-0.022
-730.966	-147.376	-0.072	-0.006
-729.952	-4.900	-0.190	-0.134
-728.937	-0.189	-0.171	0.125
-727.923	255.790	0.099	0.174
-726.908	-51.839	-0.277	-0.132
-725.894	-148.979	-0.317	-0.026
-724.879	-93.940	0.044	-0.013
-723.864	-77.808	-0.218	-0.077
-722.850	-109.728	0.565	-0.121
-721.835	-128.705	0.235	-0.034
-720.821	445.363	-0.099	0.222
-719.806	-200.000	-0.004	0.094
-718.791	19.911	-0.415	-0.342
-717.777	-63.347	0.055	-0.023
-716.762	-93.797	0.313	0.088
-715.748	-200.000	0.008	0.091
-714.733	24.647	-0.255	-0.216
-713.718	39.063	-0.245	-0.224
-712.704	-1.599	0.114	-0.082
-711.689	800.000	-0.137	-0.411
-710.675	-57.286	-0.288	0.129
-709.660	77.455	-0.098	0.106
-708.645	-97.454	-0.089	-0.024
-707.631	-93.349	-0.303	0.086
-706.616	800.000	-0.064	-0.204
-705.602	-10.268	-0.280	-0.190
-704.587	560.675	-0.069	-0.169
-703.572	-200.000	0.030	0.460
-702.558	-108.014	0.132	0.029
-701.543	26.730	0.256	-0.219
-700.529	-70.850	-0.310	-0.119
-699.514	-106.588	-0.341	0.078
-698.499	-167.663	0.212	0.009
-697.485	442.539	-0.117	-0.261
-696.470	-200.000	0.030	0.170
-695.456	44.196	-0.224	-0.210
-694.441	-107.497	0.165	-0.037
-693.426	-121.647	-0.265	-0.045
-692.412	-99.608	-0.213	0.055
-691.397	800.000	0.054	0.179
-690.383	-94.708	0.118	-0.033
-689.368	-39.961	0.171	0.091
-688.354	800.000	0.066	-0.232
-687.339	137.118	0.089	-0.119
-686.324	-130.719	0.085	0.012
-685.310	-109.923	-0.291	-0.062
-684.295	-200.000	-0.009	-0.105
-683.281	-9.349	-0.179	-0.122
-682.266	-33.387	0.170	0.096
-681.251	196.422	0.080	0.124
-680.237	200.658	-0.074	0.116
-679.222	-110.414	0.265	-0.056
-678.208	-75.081	-0.292	-0.106
-677.193	-200.000	-0.094	0.428
-676.178	288.500	-0.119	-0.219
-675.164	112.803	0.064	-0.080
-674.149	-200.000	0.009	-0.059
-673.135	-60.828	-0.264	-0.114
-672.120	-29.232	0.044	-0.026
-671.105	-31.605	0.204	-0.117
-670.091	-55.557	0.108	-0.049
-669.076	35.442	-0.066	0.059
-668.062	-123.465	0.420	-0.068
-667.047	-200.000	-0.076	-0.361
-666.032	-200.000	-0.037	-0.171
-665.018	-200.000	0.011	-0.249
-664.003	-40.669	0.136	0.072
-662.989	800.000	-0.029	-0.086
-661.974	-167.227	-0.316	0.013
-660.959	-61.816	-0.328	0.140
-659.945	486.844	0.136	0.317
-658.930	121.746	0.195	0.248
-657.916	-105.754	-0.248	0.057
-656.901	-200.000	-0.020	0.169
-655.886	-200.000	0.010	-0.072
-654.872	50.697	-0.210	-0.202
-653.857	-22.845	0.207	-0.127
-652.843	11.388	0.059	0.046
-651.828	133.943	0.162	0.214
-650.814	-150.804	-0.026	-0.002
-649.799	5.723	0.096	-0.072
-648.784	44.514	0.149	-0.139
-647.770	800.000	-0.038	-0.113
-646.755	800.000	0.071	0.208
-645.741	3.264	0.155	0.115
-644.726	374.907	0.068	-0.142
-643.711	-78.785	0.128	-0.044
-642.697	156.572	-0.100	0.141
-641.682	320.939	0.078	-0.152
-640.668	-200.000	-0.036	0.350
-639.653	-200.000	-0.051	0.254
-638.638	800.000	0.103	-0.384
-637.624	48.042	-0.209	-0.199
-636.609	-161.885	0.098	0.005
-635.595	419.156	-0.110	-0.240
-634.580	-200.000	0.049	-0.319
-633.565	151.118	-0.258	-0.357
-632.551	34.511	-0.264	-0.235
-631.536	-93.792	-0.293	-0.082
-630.522	-46.297	0.373	-0.187
-629.507	21.847	0.017	0.014
-628.492	-62.028	-0.414	-0.176
-627.478	233.431	0.057	0.096
-626.463	-51.254	0.381	0.182
-625.449	-69.891	-0.204	-0.079
-624.434	-61.441	-0.178	-0.076
-623.419	800.000	0.089	-0.258
-622.405	-172.802	-0.197	0.006
-621.390	31.258	-0.193	-0.169
-620.376	194.340	0.260	0.402
-619.361	67.556	0.179	0.186
-618.346	-200.000	0.017	-0.115
-617.332	191.014	0.052	-0.080
-616.317	-58.958	-0.163	-0.072
-615.303	-41.451	-0.125	0.065
-614.288	-104.976	-0.222	0.052
-613.273	-104.804	0.083	0.019
-612.259	-200.000	-0.048	-0.274
-611.244	-48.065	0.131	0.065
-610.230	-45.200	-0.280	-0.142
-609.215	-72.861	-0.346	-0.130
-608.201	485.435	-0.024	-0.056
-607.186	-98.544	-0.102	-0.027
-606.171	-200.000	-0.020	0.174
-605.157	800.000	-0.084	-0.257
-604.142	75.492	0.154	0.165
-603.128	800.000	-0.137	-0.403
-602.113	-200.000	0.002	-0.443
-601.098	800.000	0.048	-0.162
-600.084	-73.164	0.268	0.100
-599.069	570.726	-0.068	-0.168
-598.055	46.649	0.226	-0.214
-597.040	227.402	-0.121	-0.200
-596.025	-109.165	-0.159	-0.034
-595.011	188.507	0.073	-0.112
-593.996	-58.714	0.247	-0.109
-592.982	-200.000	-0.030	-0.148
-591.967	-77.743	-0.289	-0.102
-590.952	221.593	-0.118	-0.193
-589.938	-123.960	-0.509	0.082
-588.923	-106.305	0.108	-0.025
-587.909	-31.264	-0.198	-0.114
-586.894	-40.034	0.127	-0.067
-585.879	-19.461	-0.137	-0.087
-584.865	-59.892	0.133	-0.058
-583.850	-200.000	-0.015	0.282
-582.836	166.738	0.119	-0.171
-581.821	-124.956	-0.138	0.022
-580.806	-200.000	-0.063	0.356
-579.792	-135.285	-0.220	0.027
-578.777	252.917	-0.181	-0.313
-577.763	-54.977	0.125	0.057
-576.748	-92.920	-0.211	-0.060
-575.733	-113.526	-0.330	-0.066
-574.719	800.000	-0.026	-0.083
-573.704	20.975	0.110	0.090
-572.690	-70.947	-0.161	-0.061
-571.675	800.000	0.078	-0.266
-570.661	435.947	-0.064	-0.141
-569.646	83.766	0.128	0.142
-568.631	508.236	-0.135	0.318
-567.617	87.393	0.079	-0.089
-566.602	218.161	-0.137	-0.222
-565.588	-136.310	0.189	-0.022
-564.573	-46.513	0.011	0.006
-563.558	37.568	0.055	-0.050
-562.544	-200.000	-0.024	0.183
-561.529	-67.531	-0.305	0.122
-560.515	-13.579	-0.180	0.118
-559.500	-200.000	0.037	-0.327
-558.485	-200.000	-0.019	0.094
-557.471	-200.000	0.004	0.153
-556.456	-178.727	0.212	-0.005
-555.442	99.487	-0.170	-0.199
-554.427	-200.000	-0.019	0.098
-553.412	800.000	-0.046	-0.191
-552.398	70.549	-0.088	-0.093
-551.383	228.337	-0.191	-0.315
-550.369	-199.558	0.205	-0.001
-549.354	-57.082	0.321	-0.144
-548.339	-128.161	0.099	-0.014
-547.325	-52.295	-0.535	-0.252
-546.310	72.896	-0.061	-0.065
-545.296	402.854	-0.135	-0.289
-544.281	-58.603	0.188	0.083
-543.266	-54.553	-0.322	0.148
-542.252	161.578	0.141	0.200
-541.237	68.894	0.129	0.135
-540.223	-200.000	-0.018	-0.090
-539.208	6.334	0.198	-0.149
-538.193	20.087	0.019	-0.016
-537.179	56.404	0.027	-0.027
-536.164	-44.903	-0.146	-0.074
-535.150	131.794	-0.034	-0.044
-534.135	800.000	0.096	0.382
-533.121	1.933	-0.197	0.144
-532.106	-40.440	0.166	-0.087
-531.091	-200.000	0.068	-0.353
-530.077	-127.585	0.272	-0.040
-529.062	800.000	0.074	0.252
-528.048	62.961	0.057	0.058
-527.033	55.540	0.282	-0.277
-526.018	-200.000	0.019	-0.239
-525.004	-4.417	0.318	0.223
-523.989	98.215	-0.186	-0.217
-522.975	-89.016	0.112	-0.034
-521.960	800.000	-0.099	0.301
-520.945	22.376	0.225	-0.186
-519.931	49.630	-0.033	-0.032
-518.916	141.261	0.116	-0.156
-517.902	-58.329	-0.125	-0.055
-516.887	132.821	-0.181	0.237
-515.872	62.965	-0.112	0.114
-514.858	-95.264	0.112	-0.031
-513.843	-171.998	0.132	-0.004
-512.829	155.066	0.063	-0.088
-511.814	126.251	-0.162	-0.208
-510.799	24.042	0.102	-0.085
-509.785	800.000	0.080	-0.266
-508.770	-162.435	-0.151	0.008
-507.756	222.938	-0.059	0.096
-506.741	-20.270	-0.181	0.113
-505.726	-106.942	0.202	0.045
-504.712	168.629	-0.075	-0.108
-503.697	119.916	-0.070	0.088
-502.683	67.825	-0.163	-0.169
-501.668	-73.589	0.112	-0.041
-500.653	800.000	-0.023	-0.101
-499.639	301.439	0.031	-0.057
-498.624	-70.445	-0.055	-0.021
-497.610	35.336	0.126	0.112
-496.595	231.605	-0.099	-0.165
-495.581	-200.000	0.077	-0.353
-494.566	-65.704	0.261	0.106
-493.551	72.511	-0.181	-0.191
-492.537	-200.000	0.003	0.218
-491.522	-6.077	-0.117	-0.081
-490.508	-158.465	-0.093	-0.005
-489.493	800.000	-0.069	-0.264
-488.478	-200.000	0.026	-0.115
-487.464	-14.549	-0.239	0.156
-486.449	-70.513	-0.098	0.037
-485.435	343.340	0.031	-0.062
-484.420	64.264	0.090	0.092
-483.405	-79.262	0.414	0.142
-482.391	-200.000	0.007	-0.433
-481.376	349.848	0.042	0.085
-480.362	-127.582	-0.043	0.006
-479.347	86.795	-0.147	-0.165
-478.332	-89.229	0.200	0.060
-477.318	800.000	-0.114	0.327
-476.303	-117.433	-0.108	-0.020
-475.289	1.812	-0.042	0.031
-474.274	238.974	-0.125	0.211
-473.259	-136.641	-0.064	-0.007
-472.245	-11.378	-0.060	-0.040
-471.230	53.095	0.154	0.149
-470.216	-95.863	-0.267	0.072
-469.201	800.000	-0.040	-0.131
-468.186	-76.705	-0.239	-0.085
-467.172	-200.000	-0.019	0.117
-466.157	146.266	0.261	0.354
-465.143	-200.000	-0.047	0.256
-464.128	666.454	0.175	0.457
-463.113	768.387	-0.168	0.463
-462.099	-122.866	-0.212	0.035
-461.084	-173.116	0.331	-0.010
-460.070	-181.631	-0.036	-0.001
-459.055	-200.000	-0.039	0.337
-458.040	-15.970	0.099	0.064
-457.026	96.267	-0.120	-0.139
-456.011	24.860	0.258	0.217
-454.997	750.859	0.058	0.157
-453.982	-200.000	-0.013	-0.295
-452.968	-33.841	-0.017	-0.010
-451.953	698.001	-0.103	0.273
-450.938	-6.923	-0.202	-0.139
-449.924	-200.000	0.027	-0.155
-448.909	-200.000	0.027	-0.344
-447.895	34.645	-0.177	0.157
-446.880	-134.077	0.157	-0.020
-445.865	-36.836	-0.317	-0.172
-444.851	-200.000	-0.058	-0.319
-443.836	800.000	0.047	0.133
-442.822	65.505	-0.056	-0.058
-441.807	84.701	-0.212	-0.234
-440.792	-96.734	-0.171	-0.045
-439.778	23.904	-0.128	0.107
-438.763	-52.455	-0.204	-0.095
-437.749	800.000	0.037	0.151
-436.734	93.169	-0.127	-0.145
-435.719	22.279	0.191	0.158
-434.705	-200.000	-0.004	-0.055
-433.690	-12.543	-0.074	-0.049
-432.676	800.000	-0.078	-0.256
-431.661	-157.971	0.167	0.010
-430.646	-200.000	0.001	-0.054
-429.632	-5.993	-0.218	0.151
-428.617	-200.000	0.010	-0.138
-427.603	-200.000	-0.033	0.301
-426.588	-184.752	0.035	0.001
-425.573	-93.036	0.257	-0.072
-424.559	-30.442	-0.033	-0.019
-423.544	800.000	-0.072	-0.276
-422.530	-160.573	0.221	-0.012
-421.515	-78.734	0.193	-0.067
-420.500	-200.000	-0.068	-0.427
-419.486	-11.668	-0.096	0.063
-418.471	77.337	0.263	0.283
-417.457	117.778	-0.159	0.198
-416.442	74.783	0.172	-0.183
-415.428	-200.000	0.003	-0.144
-414.413	800.000	0.086	0.353
-413.398	-200.000	-0.044	0.273
-412.384	208.366	-0.141	0.223
-411.369	295.427	-0.181	0.335
-410.355	-144.005	0.050	-0.005
-409.340	24.778	-0.099	-0.083
-408.325	-176.508	0.227	0.006
-407.311	-186.138	-0.224	0.003
-406.296	-198.208	0.182	-0.001
-405.282	-98.210	0.264	-0.068
-404.267	22.129	-0.131	0.108
-403.252	-16.815	-0.274	-0.175
-402.238	-37.813	-0.134	-0.072
-401.223	-129.147	0.201	0.028
-400.209	493.224	-0.137	0.318
-399.194	150.577	-0.044	-0.061
-398.179	-80.850	-0.206	0.069
-397.165	-97.676	0.233	0.061
-396.150	-98.878	-0.119	0.030
-395.136	162.270	0.070	-0.099
-394.121	56.269	0.153	0.150
-393.106	476.468	-0.103	0.236
-392.092	-200.000	-0.189	0.001
-391.077	673.012	0.078	0.204
-390.063	8.723	0.266	-0.202
-389.048	231.307	0.111	-0.184
-388.033	-200.000	-0.010	0.155
-387.019	-26.466	-0.169	-0.100
-386.004	800.000	-0.041	-0.152
-384.990	-200.000	0.045	0.218
-383.975	-88.105	-0.254	-0.077
-382.960	-200.000	0.000	0.198
-381.946	406.281	0.228	0.486
-380.931	-200.000	0.020	0.134
-379.917	-118.199	0.130	0.023
-378.902	800.000	-0.096	0.271
-377.888	-12.693	-0.363	0.239
-376.873	-138.589	-0.155	0.017
-375.858	-128.766	-0.150	0.021
-374.844	9.160	0.090	0.069
-373.829	-135.688	-0.226	-0.027
-372.815	-130.096	-0.495	0.068
-371.800	83.526	0.221	0.243
-370.785	308.410	-0.151	-0.285
-369.771	-100.386	-0.172	0.043
-368.756	18.043	0.310	-0.249
-367.742	-200.000	-0.013	0.129
-366.727	-200.000	0.022	-0.121
-365.712	-200.000	0.010	-0.225
-364.698	-200.000	-0.047	0.295
-363.683	144.611	-0.168	-0.227
-362.669	-146.507	-0.070	0.006
-361.654	-88.981	0.279	-0.083
-360.639	-162.573	0.264	0.013
-359.625	-58.608	-0.047	-0.021
-358.610	-140.052	-0.386	-0.041
-357.596	-130.030	-0.259	-0.036
-356.581	25.601	-0.151	0.126
-355.566	66.770	-0.020	0.021
-354.552	-30.722	0.162	0.092
-353.537	442.432	0.065	0.144
-352.523	35.744	-0.120	0.106
-351.508	-129.339	0.315	-0.044
-350.493	-142.786	0.292	-0.029
-349.479	623.237	0.070	0.177
-348.464	-142.061	-0.260	-0.026
-347.450	-44.420	-0.193	-0.098
-346.435	-139.638	-0.125	0.013
-345.420	-200.000	-0.029	0.127
-344.406	168.713	0.279	0.401
-343.391	229.040	-0.163	-0.268
-342.377	-200.000	0.015	0.206
-341.362	73.409	0.200	0.211
-340.348	542.734	-0.023	0.056
-339.333	359.117	-0.149	0.299
-338.318	243.385	0.065	0.110
-337.304	-169.509	-0.292	-0.011
-336.289	-200.000	-0.015	-0.182
-335.275	-200.000	-0.003	-0.219
-334.260	-53.303	-0.171	-0.079
-333.245	191.076	0.120	-0.182
-332.231	-114.489	-0.101	0.019
-331.216	-31.504	-0.125	-0.071
-330.202	800.000	0.049	0.212
-329.187	-184.900	-0.365	-0.006
-328.172	-49.396	0.385	-0.185
-327.158	-53.864	-0.153	0.070
-326.143	-112.876	0.254	-0.051
-325.129	-115.357	0.312	0.059
-324.114	-200.000	-0.047	-0.249
-323.099	41.213	0.103	-0.094
-322.085	800.000	0.074	-0.259
-321.070	-27.366	-0.092	-0.054
-320.056	-166.512	0.167	0.007
-319.041	-68.358	0.234	0.092
-318.026	72.299	-0.119	-0.125
-317.012	-126.047	-0.251	0.038
-315.997	-200.000	0.001	0.003
-314.983	143.017	0.163	-0.218
-313.968	-14.998	0.096	-0.062
-312.953	763.960	-0.097	0.265
-311.939	-200.000	-0.001	-0.120
-310.924	327.558	0.147	0.284
-309.910	210.941	-0.119	-0.189
-308.895	651.546	0.029	0.074
-307.880	-8.684	-0.075	-0.051
-306.866	332.798	-0.130	0.253
-305.851	1.621	-0.188	0.136
-304.837	428.254	0.075	0.163
-303.822	30.660	0.077	0.066
-302.807	364.178	0.073	0.148
-301.793	28.082	0.113	0.096
-300.778	800.000	0.042	-0.183
-299.764	38.749	0.112	0.100
-298.749	-200.000	-0.033	-0.181
-297.735	38.234	-0.167	-0.150
-296.720	-108.185	0.154	-0.034
-295.705	800.000	-0.055	-0.219
-294.691	7.987	0.133	-0.100
-293.676	40.143	0.091	0.082
-292.662	-110.045	0.375	0.079
-291.647	-200.000	0.007	0.066
-290.632	-86.737	0.111	-0.034
-289.618	-200.000	0.034	0.173
-288.603	800.000	-0.010	0.036
-287.589	800.000	0.038	0.142
-286.574	-146.746	0.269	-0.023
-285.559	-71.024	-0.110	0.042
-284.545	408.845	-0.121	-0.257
-283.530	800.000	0.015	-0.057
-282.516	-92.083	0.332	0.094
-281.501	-200.000	0.044	0.253
-280.486	800.000	-0.095	-0.291
-279.472	800.000	0.052	-0.222
-278.457	-53.118	0.105	-0.048
-277.443	-36.882	-0.097	-0.052
-276.428	-73.869	-0.016	-0.006
-275.413	171.930	-0.050	-0.072
-274.399	-110.870	0.356	0.074
-273.384	-115.524	-0.166	0.031
-272.370	36.737	0.073	0.064
-271.355	248.122	0.132	-0.225
-270.340	27.904	-0.169	0.143
-269.326	-200.000	-0.020	-0.294
-268.311	12.493	0.114	-0.089
-267.297	-79.078	0.085	0.029
-266.282	-76.083	0.353	-0.125
-265.267	23.452	0.065	0.053
-264.253	800.000	0.134	0.384
-263.238	-200.000	-0.011	-0.209
-262.224	-200.000	-0.017	-0.183
-261.209	66.607	-0.175	-0.178
-260.195	465.642	-0.078	-0.176
-259.180	-26.013	-0.291	0.172
-258.165	-133.635	-0.205	-0.026
-257.151	128.496	0.218	-0.279
-256.136	-111.070	-0.113	0.023
-255.122	-139.338	-0.261	0.028
-254.107	-200.000	0.005	0.174
-253.092	77.859	0.216	-0.231
-252.078	-74.864	-0.239	0.086
-251.063	-200.000	-0.051	0.254
-250.049	-76.277	-0.090	0.032
-249.034	143.385	0.116	-0.156
-248.019	-97.807	-0.358	-0.093
-247.005	-4.734	-0.258	-0.179
-245.990	107.212	0.019	0.023
-244.976	-142.506	0.351	0.035
-243.961	315.036	-0.028	-0.052
-242.946	-200.000	-0.004	-0.031
-241.932	-200.000	0.017	0.141
-240.917	800.000	0.041	-0.130
-239.903	-200.000	0.060	0.347
-238.888	-56.152	0.279	0.125
-237.873	-114.961	-0.532	-0.102
-236.859	-129.871	0.335	0.046
-235.844	174.302	-0.089	-0.130
-234.830	-200.000	0.014	0.099
-233.815	-28.245	0.237	0.137
-232.800	800.000	0.050	-0.162
-231.786	-116.465	0.419	-0.078
-230.771	800.000	0.069	-0.205
-229.757	116.476	0.059	0.073
-228.742	88.322	0.120	0.134
-227.727	60.876	-0.180	0.179
-226.713	241.206	-0.099	-0.165
-225.698	-43.968	-0.115	0.058
-224.684	198.749	-0.191	0.293
-223.669	-28.752	-0.122	-0.070
-222.655	670.338	-0.035	-0.091
-221.640	203.571	-0.071	-0.109
-220.625	800.000	0.089	0.276
-219.611	-27.072	-0.200	0.117
-218.596	227.827	-0.154	0.251
-217.582	800.000	0.143	0.511
-216.567	35.239	0.108	0.095
-215.552	-200.000	-0.008	0.240
-214.538	-72.259	0.283	-0.105
-213.523	-193.081	0.220	-0.002
-212.509	384.782	0.052	0.107
-211.494	344.756	0.037	-0.073
-210.479	-200.000	-0.002	0.199
-209.465	26.029	0.090	-0.075
-208.450	178.702	0.141	-0.206
-207.436	65.895	0.103	0.104
-206.421	800.000	0.057	-0.161
-205.406	-79.699	0.270	0.091
-204.392	-15.532	-0.250	0.160
-203.377	800.000	0.008	-0.033
-202.363	800.000	0.085	0.269
-201.348	-200.000	0.012	0.144
-200.333	-72.808	0.264	-0.098
-199.319	-104.106	0.146	0.034
-198.304	-200.000	0.014	0.112
-197.290	-43.762	0.195	0.098
-196.275	45.999	0.269	-0.250
-195.260	140.499	0.172	0.228
-194.246	44.898	-0.152	-0.140
-193.231	92.921	-0.261	0.295
-192.217	-200.000	0.046	0.237
-191.202	-151.572	-0.057	-0.004
-190.187	358.785	-0.144	0.288
-189.173	130.054	0.319	-0.409
-188.158	-32.027	0.432	0.242
-187.144	157.131	0.182	-0.253
-186.129	-200.000	0.011	-0.073
-185.114	-33.253	-0.126	-0.070
-184.100	-100.068	0.217	-0.054
-183.085	-175.665	0.455	0.012
-182.071	-44.568	0.059	0.029
-181.056	-6.869	-0.214	-0.146
-180.042	-30.730	-0.362	0.205
-179.027	-31.926	0.152	0.085
-178.012	44.535	-0.261	-0.240
-176.998	365.325	-0.087	0.175
-175.983	239.036	0.197	-0.327
-174.969	263.312	-0.183	0.319
-173.954	800.000	0.069	0.275
-172.939	89.591	0.227	0.254
-171.925	800.000	-0.077	0.234
-170.910	800.000	-0.060	0.168
-169.896	208.886	0.076	0.120
-168.881	16.591	0.277	0.219
-167.866	463.591	-0.063	0.141
-166.852	-200.000	0.004	-0.078
-165.837	96.388	-0.083	0.095
-164.823	-183.745	-0.076	0.001
-163.808	-200.000	0.019	0.128
-162.793	800.000	0.017	0.062
-161.779	-33.715	0.516	-0.285
-160.764	800.000	-0.088	-0.251
-159.750	173.058	0.053	0.077
-158.735	397.864	-0.111	-0.233
-157.720	-200.000	0.016	0.165
-156.706	-200.000	-0.015	0.073
-155.691	-200.000	-0.032	0.215
-154.677	378.342	-0.048	-0.098
-153.662	-182.172	0.204	-0.004
-152.647	32.289	0.359	0.310
-151.633	410.346	0.143	0.302
-150.618	9.695	0.088	-0.067
-149.604	-52.087	0.173	-0.080
-148.589	-143.860	-0.340	0.032
-147.574	283.187	0.122	0.219
-146.560	-200.000	0.068	0.394
-145.545	-43.774	-0.212	0.106
-144.531	-39.389	0.232	-0.122
-143.516	-130.995	0.279	0.037
-142.502	800.000	-0.044	0.153
-141.487	800.000	-0.020	-0.066
-140.472	58.096	0.194	-0.190
-139.458	257.060	-0.082	0.140
-138.443	583.309	-0.082	-0.201
-137.429	-74.005	0.155	-0.056
-136.414	-105.213	0.224	0.051
-135.399	-125.011	-0.251	0.039
-134.385	-94.008	-0.151	-0.041
-133.370	153.192	-0.205	0.281
-132.356	-136.866	-0.204	0.023
-131.341	800.000	0.029	0.095
-130.326	99.070	-0.216	-0.249
-129.312	-145.023	-0.426	0.039
-128.297	-148.386	0.286	0.023
-127.283	199.415	0.106	0.162
-126.268	-43.276	-0.168	-0.085
-125.253	46.304	-0.259	0.240
-124.239	-86.913	0.320	-0.098
-123.224	-200.000	0.044	0.199
-122.210	40.989	0.208	0.188
-121.195	58.047	0.192	-0.188
-120.180	-200.000	0.002	0.028
-119.166	544.450	0.159	0.378
-118.151	14.708	-0.213	0.166
-117.137	-44.916	-0.008	-0.004
-116.122	130.039	0.091	0.117
-115.107	76.652	0.143	-0.151
-114.093	-127.674	0.243	0.035
-113.078	-77.886	0.471	0.162
-112.064	102.844	0.374	-0.438
-111.049	-164.020	0.219	0.010
-110.034	14.127	-0.337	-0.262
-109.020	47.588	-0.216	0.201
-108.005	726.086	-0.114	0.304
-106.991	197.495	0.094	0.143
-105.976	800.000	0.032	-0.127
-104.962	-47.774	0.331	-0.160
-103.947	-85.525	-0.187	0.058
-102.932	-122.503	0.121	-0.020
-101.918	800.000	-0.098	-0.320
-100.903	275.578	-0.046	-0.081
-99.889	-122.583	0.085	-0.014
-98.874	800.000	-0.063	0.228
-97.859	684.893	0.035	0.092
-96.845	347.452	0.092	-0.181
-95.830	-30.806	-0.461	0.260
-94.816	-22.202	0.223	-0.135
-93.801	800.000	0.037	-0.136
-92.786	-171.946	0.189	0.006
-91.772	800.000	-0.021	-0.088
-90.757	-200.000	0.000	0.186
-89.743	26.855	-0.253	0.211
-88.728	-34.134	0.172	0.094
-87.713	-38.714	-0.215	0.113
-86.699	-54.663	0.146	0.066
-85.684	800.000	-0.015	-0.046
-84.670	-38.812	-0.181	0.095
-83.655	393.441	-0.257	-0.534
-82.640	-101.091	0.157	0.038
-81.626	315.293	-0.187	-0.351
-80.611	-200.000	-0.016	-0.181
-79.597	107.096	0.087	-0.103
-78.582	-200.000	-0.014	0.151
-77.567	-39.691	-0.444	0.232
-76.553	-163.976	0.411	0.019
-75.538	-100.414	-0.212	-0.052
-74.524	-86.127	0.378	-0.116
-73.509	800.000	-0.022	-0.079
-72.494	422.717	-0.037	0.078
-71.480	425.075	-0.117	-0.251
-70.465	-82.380	0.304	0.098
-69.451	-172.990	0.310	-0.010
-68.436	-51.257	0.090	0.042
-67.422	113.217	0.123	0.149
-66.407	-52.071	-0.277	0.128
-65.392	-21.250	-0.253	0.154
-64.378	153.711	0.171	-0.234
-63.363	211.542	-0.129	-0.202
-62.349	-200.000	0.070	0.368
-61.334	126.356	-0.635	-0.801
-60.319	-26.849	0.441	0.257
-59.305	-200.000	0.072	-0.806
-58.290	261.348	0.467	0.805
-57.276	800.000	0.526	1.477
-56.261	-200.000	81.786	496.355
-55.246	555.773	1359.656	3261.038
-54.232	184.243	2583.915	3810.752
-53.217	119.307	2254.888	2778.955
-52.203	48.823	1785.979	1668.810
-51.188	42.100	1591.317	1438.787
-50.173	39.650	1562.585	1395.442
-49.159	55.349	1603.368	1544.578
-48.144	60.018	1622.863	1596.738
-47.130	42.710	1584.567	1436.814
-46.115	39.428	1570.181	1400.421
-45.100	39.191	1566.883	1395.745
-44.086	39.183	1564.619	1393.613
-43.071	39.126	1562.436	1391.211
-42.057	39.056	1560.826	1389.225
-41.042	39.001	1559.422	1387.534
-40.027	39.050	1557.685	1386.280
-39.013	38.954	1556.465	1384.463
-37.998	38.982	1554.861	1383.175
-36.984	39.013	1553.936	1382.520
-35.969	39.076	1552.273	1381.427
-34.954	39.073	1551.110	1380.314
-33.940	38.948	1550.008	1378.401
-32.925	39.130	1547.990	1377.829
-31.911	39.124	1546.493	1376.399
-30.896	39.087	1545.550	1375.246
-29.881	39.114	1544.377	1374.341
-28.867	39.180	1542.359	1372.946
-27.852	39.123	1541.863	1372.054
-26.838	39.129	1539.672	1370.093
-25.823	39.211	1537.908	1369.042
-24.809	39.091	1536.464	1366.861
-23.794	39.051	1535.075	1365.298
-22.779	39.139	1533.285	1364.259
-21.765	39.088	1533.013	1363.614
-20.750	39.103	1531.460	1362.280
-19.736	39.104	1530.077	1361.004
-18.721	39.111	1529.004	1360.043
-17.706	39.132	1527.718	1358.987
-16.692	39.122	1526.771	1358.022
-15.677	38.976	1526.110	1356.377
-14.663	39.020	1524.872	1355.521
-13.648	39.059	1523.501	1354.517
-12.633	39.035	1522.753	1353.635
-11.619	38.967	1522.270	1352.687
-10.604	39.119	1520.688	1352.270
-9.590	38.961	1520.190	1350.690
-8.575	39.081	1518.903	1350.315
-7.560	39.078	1518.388	1349.784
-6.546	38.986	1517.199	1348.040
-5.531	38.999	1516.448	1347.406
-4.517	38.912	1515.633	1346.035
-3.502	39.039	1514.502	1345.845
-2.487	38.967	1513.235	1344.176
-1.473	39.002	1511.847	1343.128
-0.458	39.061	1510.633	1342.401
0.556	39.519	1500.967	1331.101
1.571	36.259	1472.682	1284.252
2.586	31.940	1406.312	1198.737
3.600	29.701	1319.291	1111.018
4.615	27.347	1269.406	1055.282
5.629	23.085	1210.534	982.625
6.644	13.653	1121.081	861.166
7.659	6.299	1076.380	789.955
8.673	5.101	1070.192	779.363
9.688	5.093	1067.660	777.408
10.702	5.151	1066.154	776.531
11.717	5.095	1064.628	775.075
12.731	7.592	1067.084	789.212
13.746	16.051	1079.846	840.955
14.761	21.462	1085.252	872.143
15.775	20.428	1083.446	865.467
16.790	19.186	1080.803	857.100
17.804	18.033	1078.845	849.743
18.819	17.018	1076.903	843.098
19.834	16.774	1075.072	840.379
20.848	16.450	1074.382	838.158
21.863	16.202	1073.445	836.127
22.877	15.888	1072.878	834.054
23.892	15.838	1071.789	832.885
24.907	15.670	1071.393	831.671
25.921	15.677	1070.405	830.866
26.936	15.793	1069.003	830.280
27.950	15.880	1068.142	829.963
28.965	15.826	1067.329	828.996
29.980	15.963	1065.979	828.546
30.994	16.054	1065.068	828.214
32.009	16.128	1063.868	827.567
33.023	16.007	1063.566	826.665
34.038	16.070	1062.595	826.150
35.053	15.979	1061.968	825.140
36.067	16.008	1060.703	824.226
37.082	15.889	1059.641	822.747
38.096	15.899	1058.979	822.207
39.111	16.005	1058.487	822.273
40.126	16.016	1057.522	821.501
41.140	15.775	1057.004	819.853
42.155	15.789	1055.156	818.417
43.169	15.661	1054.493	817.209
44.184	15.645	1053.208	816.061
45.199	15.502	1052.298	814.592
46.213	15.614	1051.144	814.166
47.228	15.697	1050.156	813.733
48.242	15.729	1049.379	813.214
49.257	15.912	1048.397	813.266
50.271	15.752	1047.234	811.518
51.286	15.861	1046.421	811.343
52.301	15.945	1045.336	810.832
53.315	15.883	1044.751	810.007
54.330	15.873	1043.851	809.194
55.344	15.762	1042.582	807.604
56.359	15.703	1041.974	806.777
57.374	15.733	1040.913	806.031
58.388	15.620	1040.389	805.009
59.403	15.663	1039.516	804.469
60.417	15.629	1038.852	803.723
61.432	15.605	1037.923	802.817
62.447	15.596	1036.930	801.937
63.461	15.505	1036.605	801.181
64.476	15.632	1034.827	800.337
65.490	15.452	1034.240	798.959
66.505	15.491	1033.684	798.641
67.520	15.488	1032.720	797.811
68.534	15.697	1031.656	797.912
69.549	15.602	1031.223	797.058
70.563	15.526	1030.537	796.097
71.578	15.469	1029.913	795.273
72.593	15.438	1028.973	794.329
73.607	15.369	1027.911	793.114
74.622	15.427	1026.831	792.482
75.636	15.277	1026.251	791.256
76.651	15.411	1025.483	791.225
77.666	15.430	1024.587	790.557
78.680	15.511	1023.712	790.191
79.695	15.559	1023.260	790.001
80.709	15.452	1023.239	789.411
81.724	15.589	1021.711	788.802
82.739	15.617	1021.030	788.342
83.753	15.747	1020.212	788.246
84.768	15.817	1019.510	787.964
85.782	15.920	1018.844	787.863
86.797	16.025	1018.468	787.993
87.812	16.050	1017.368	787.185
88.826	15.942	1016.302	785.788
89.841	15.884	1015.703	784.985
90.855	15.924	1014.663	784.298
91.870	15.891	1014.749	784.142
92.884	16.061	1013.428	783.841
93.899	16.088	1013.053	783.608
94.914	16.026	1012.246	782.626
95.928	15.980	1011.520	781.781
96.943	16.012	1010.748	781.265
97.957	16.074	1009.643	780.630
98.972	16.060	1008.628	779.713
99.987	15.840	1008.274	778.351
101.001	15.988	1007.626	778.465
102.016	15.953	1006.687	777.511
103.030	15.983	1005.705	776.824
104.045	16.055	1004.589	776.224
105.060	15.974	1003.592	775.010
106.074	15.848	1002.803	773.754
107.089	15.728	1001.848	772.398
108.103	15.642	1001.032	771.304
109.118	15.619	999.680	770.089
110.133	15.582	998.866	769.226
111.147	15.660	998.435	769.185
112.162	15.599	997.226	767.904
113.176	15.516	997.414	767.600
114.191	15.602	995.972	766.815
115.206	15.642	995.493	766.565
116.220	15.684	993.867	765.435
117.235	15.536	993.268	764.231
118.249	15.604	992.499	763.883
119.264	15.537	991.686	762.884
120.279	15.562	990.777	762.231
121.293	15.547	990.137	761.604
122.308	15.582	989.274	761.030
123.322	15.664	988.311	760.592
124.337	15.486	986.906	758.639
125.352	15.510	985.916	757.922
126.366	15.497	984.543	756.738
127.381	15.416	984.002	755.891
128.395	15.430	983.137	755.223
129.410	15.520	982.244	754.875
130.424	15.413	981.548	753.794
131.439	15.627	980.460	753.851
132.454	15.679	979.489	753.271
133.468	15.719	978.560	752.668
134.483	15.659	978.520	752.301
135.497	15.748	977.918	752.172
136.512	15.711	977.299	751.462
137.527	15.790	975.967	750.723
138.541	16.008	974.892	750.801
139.556	15.769	974.547	749.404
140.570	15.771	973.601	748.621
141.585	15.951	972.905	748.820
142.600	15.942	972.901	748.710
143.614	15.899	972.269	747.969
144.629	15.983	971.020	747.312
145.643	16.067	970.572	747.273
146.658	16.017	969.351	746.045
147.673	15.936	968.634	745.070
148.687	15.867	967.145	743.556
149.702	15.784	966.796	742.856
150.716	15.785	965.736	741.979
151.731	15.666	964.990	740.813
152.746	15.695	964.329	740.370
153.760	15.919	962.972	740.246
154.775	15.697	962.753	739.040
155.789	15.873	961.443	738.741
156.804	15.940	960.790	738.466
157.819	15.912	960.487	738.047
158.833	15.882	959.778	737.304
159.848	15.927	959.167	736.967
160.862	16.127	958.451	737.224
161.877	16.074	957.862	736.473
162.892	15.853	956.776	734.611
163.906	15.767	955.723	733.363
164.921	15.688	954.946	732.359
165.935	15.834	953.740	732.001
166.950	15.915	952.642	731.448
167.964	16.055	952.005	731.502
168.979	15.882	951.050	729.953
169.994	15.977	949.692	729.258
171.008	15.885	948.759	728.078
172.023	15.846	948.348	727.529
173.037	15.841	947.975	727.157
174.052	16.051	946.973	727.231
175.067	15.986	946.552	726.562
176.081	15.922	945.538	725.445
177.096	15.931	944.550	724.659
178.110	15.813	943.855	723.556
179.125	15.941	942.985	723.376
180.140	15.914	942.196	722.588
181.154	15.894	941.510	721.913
182.169	15.989	941.311	722.102
183.183	16.055	940.524	721.720
184.198	16.102	939.658	721.192
185.213	16.292	939.118	721.524
186.227	16.180	938.306	720.358
187.242	16.049	938.209	719.662
188.256	16.322	937.217	720.001
189.271	16.320	936.427	719.324
190.286	16.399	935.885	719.179
191.300	16.183	935.036	717.545
192.315	15.981	934.398	716.134
193.329	15.794	933.479	714.572
194.344	15.850	932.841	714.255
195.359	15.855	932.488	713.944
196.373	15.965	931.975	713.954
197.388	16.171	931.331	714.272
198.402	16.339	930.974	714.646
199.417	16.137	931.039	713.778
200.432	16.441	930.225	714.375
201.446	16.457	929.810	714.060
202.461	16.627	929.122	714.188
203.475	16.578	928.730	713.615
204.490	16.508	928.283	712.915
205.504	16.456	927.018	711.660
206.519	16.367	926.013	710.450
207.534	16.265	925.381	709.473
208.548	16.467	924.359	709.479
209.563	16.352	923.962	708.628
210.577	16.375	923.323	708.168
211.592	16.417	922.403	707.576
212.607	16.506	922.158	707.698
213.621	16.451	921.589	706.972
214.636	16.590	920.947	706.995
215.650	16.560	919.922	706.022
216.665	16.437	919.965	705.477
217.680	16.620	919.224	705.609
218.694	16.714	918.335	705.259
219.709	16.725	918.029	705.009
220.723	16.778	917.046	704.410
221.738	16.662	916.790	703.667
222.753	16.628	916.058	702.904
223.767	16.682	915.318	702.497
224.782	16.608	914.439	701.452
225.796	16.771	913.692	701.495
226.811	16.802	913.202	701.185
227.826	16.866	912.129	700.562
228.840	16.701	911.449	699.297
229.855	16.755	910.902	699.038
230.869	16.705	910.264	698.280
231.884	16.733	909.510	697.757
232.899	16.732	908.927	697.242
233.913	16.585	908.050	695.902
234.928	16.533	907.369	695.107
235.942	16.570	906.709	694.691
236.957	16.540	906.059	694.007
237.972	16.539	905.587	693.582
238.986	16.638	904.624	693.186
240.001	16.728	903.910	692.947
241.015	16.570	903.465	691.900
242.030	16.573	902.636	691.217
243.045	16.757	901.929	691.364
244.059	16.789	901.196	690.871
245.074	16.757	900.927	690.475
246.088	16.855	899.822	689.964
247.103	16.812	899.812	689.719
248.117	16.991	898.716	689.547
249.132	16.903	898.588	689.032
250.147	17.156	897.857	689.437
251.161	17.245	897.546	689.498
252.176	17.286	896.774	689.011
253.190	17.384	896.129	688.850
254.205	17.436	894.979	688.117
255.220	17.296	894.983	687.490
256.234	17.410	893.869	687.034
257.249	17.440	893.186	686.572
258.263	17.434	893.048	686.378
259.278	17.252	892.666	685.289
260.293	17.381	891.967	685.212
261.307	17.475	891.117	684.878
262.322	17.523	890.687	684.680
263.336	17.530	890.315	684.361
264.351	17.598	889.614	684.034
265.366	17.588	888.847	683.345
266.380	17.510	888.240	682.507
267.395	17.557	887.613	682.151
268.409	17.515	886.643	681.176
269.424	17.473	886.010	680.464
270.439	17.629	885.320	680.497
271.453	17.497	884.563	679.328
272.468	17.458	883.644	678.407
273.482	17.454	883.256	678.030
274.497	17.481	882.431	677.445
275.512	17.419	881.831	676.679
276.526	17.425	880.900	675.929
277.541	17.494	880.711	675.997
278.555	17.490	880.000	675.378
279.570	17.743	879.221	675.720
280.585	17.684	879.219	675.425
281.599	17.740	878.404	674.962
282.614	17.675	878.100	674.410
283.628	17.591	877.132	673.277
284.643	17.471	876.848	672.523
285.657	17.555	876.152	672.262
286.672	17.656	875.461	672.073
287.687	17.614	875.079	671.555
288.701	17.722	874.693	671.625
289.716	17.647	874.156	670.854
290.730	17.580	873.547	670.066
291.745	17.673	873.001	669.953
292.760	17.752	872.054	669.478
293.774	17.732	871.568	668.968
294.789	17.732	871.096	668.547
295.803	17.828	870.566	668.454
296.818	17.774	869.746	667.556
297.833	17.654	869.379	666.745
298.847	17.668	868.514	666.076
299.862	17.810	867.462	665.767
300.876	17.899	866.992	665.693
301.891	17.915	866.276	665.148
302.906	18.015	865.780	665.096
303.920	18.055	865.037	664.622
304.935	18.030	864.694	664.204
305.949	18.094	863.936	663.812
306.964	18.133	863.470	663.544
307.979	18.095	862.660	662.718
308.993	17.955	862.272	661.816
310.008	18.073	861.925	661.950
311.022	18.240	861.006	661.831
312.037	18.121	860.912	661.239
313.052	17.981	860.394	660.244
314.066	17.947	859.261	659.185
315.081	17.939	858.749	658.701
316.095	17.910	857.941	657.913
317.110	18.056	857.616	658.165
318.125	17.839	857.415	657.118
319.139	17.946	856.580	656.831
320.154	18.037	856.201	656.833
321.168	18.014	855.422	656.088
322.183	17.949	855.207	655.617
323.197	18.021	854.507	655.299
324.212	18.231	853.672	655.406
325.227	18.258	852.963	654.906
326.241	18.206	852.856	654.565
327.256	17.999	852.545	653.477
328.270	18.084	851.428	652.888
329.285	17.983	851.072	652.174
330.300	18.041	850.467	651.874
331.314	17.888	850.314	651.114
332.329	18.095	849.352	651.109
333.343	18.126	848.767	650.718
334.358	18.174	848.518	650.653
335.373	18.159	848.041	650.174
336.387	18.174	847.541	649.792
337.402	18.402	846.531	649.824
338.416	18.332	846.292	649.318
339.431	18.451	845.387	649.014
340.446	18.534	844.607	648.673
341.460	18.531	844.654	648.640
342.475	18.565	843.970	648.188
343.489	18.720	843.335	648.226
344.504	18.680	842.849	647.645
345.519	18.685	842.562	647.384
346.533	18.746	841.916	647.062
347.548	18.709	841.357	646.437
348.562	18.590	840.870	645.557
349.577	18.446	840.178	644.428
350.592	18.454	839.547	643.916
351.606	18.344	839.221	643.195
352.621	18.494	838.302	642.996
353.635	18.395	838.394	642.641
354.650	18.451	837.920	642.431
355.665	18.498	837.141	641.951
356.679	18.506	836.771	641.639
357.694	18.585	836.303	641.521
358.708	18.531	835.839	640.907
359.723	18.627	835.278	640.779
360.738	18.482	834.655	639.704
361.752	18.787	833.890	640.196
362.767	18.628	833.543	639.282
363.781	18.743	833.238	639.417
364.796	18.916	832.944	639.781
365.810	18.862	832.451	639.146
366.825	18.932	832.235	639.183
367.840	19.063	831.554	639.090
368.854	19.064	831.387	638.906
369.869	18.932	831.120	638.156
370.883	18.911	829.954	637.126
371.898	19.008	829.473	637.060
372.913	19.015	828.856	636.555
373.927	19.007	828.543	636.230
374.942	19.024	827.616	635.525
375.956	19.037	827.088	635.112
376.971	19.038	826.760	634.808
377.986	19.135	826.009	634.531
379.000	19.151	825.616	634.232
380.015	19.285	824.914	634.128
381.029	19.345	824.308	633.828
382.044	19.143	824.062	632.840
383.059	19.302	822.965	632.527
384.073	19.375	822.661	632.504
385.088	19.390	822.082	632.058
386.102	19.147	821.557	630.708
387.117	19.105	821.013	630.080
388.132	19.147	820.577	629.844
389.146	19.075	820.021	629.099
390.161	19.056	819.869	628.858
391.175	19.162	819.777	629.117
392.190	19.177	819.474	628.883
393.205	19.348	818.472	628.683
394.219	19.161	818.193	627.732
395.234	19.145	818.126	627.567
396.248	19.182	816.825	626.649
397.263	19.170	816.411	626.230
398.278	19.040	816.379	625.676
399.292	19.043	815.454	624.924
400.307	18.994	815.241	624.528
401.321	18.981	814.789	624.080
402.336	19.095	814.425	624.160
403.350	19.057	814.081	623.701
404.365	19.181	813.515	623.661
405.380	19.271	813.537	623.948
406.394	19.350	812.722	623.556
407.409	19.591	812.048	623.853
408.423	19.624	811.729	623.674
409.438	19.565	811.499	623.230
410.453	19.602	811.045	622.956
411.467	19.641	810.469	622.599
412.482	19.686	810.087	622.414
413.496	19.659	809.730	621.988
414.511	19.744	809.493	622.055
415.526	19.765	808.925	621.640
416.540	19.691	808.613	621.078
417.555	19.612	808.313	620.510
418.569	19.616	807.539	619.876
419.584	19.739	806.794	619.692
420.599	19.690	806.768	619.438
421.613	150.006	1362.948	1763.295
422.628	130.192	1443.997	1763.415
