DTS Sentinel unit serial number:	SN413079Multiplexer serial number:	ORYXHardware model number:	OX4-SRSoftware version number:	ORYX F/W v4.00 Oryx Data Collector v3.7.2.0data status	okinstallation	princeton_trtdifferential loss correction	single-endedforward channel	channel 3reverse channel	N/Adate	2019/09/15time	03:56:34forward acquisition time	60.00reverse acquisition time	0.00gamma	496.2192k internal	0.2323k external	0.2323temperature offset calibration	0.9968default loss term (dB/km)	0.3790temperature slope calibration	1.0000multiplexer offset coefficient	1.0000multiplexer slope coefficient	1.0000fibre end	0.00T internal ref (°C)	30.94T ext. ref 1 (°C)	4.60T ext. ref 2 (°C)	25.92length (m)	temperature (°C)	Stokes	anti-Stokes-747.200	800.000	0.046	-0.135
-746.185	37.159	-0.086	0.077
-745.171	-49.584	0.129	0.062
-744.156	-200.000	-0.222	-0.001
-743.142	-12.626	0.277	0.183
-742.127	-101.813	-0.196	-0.048
-741.112	-124.112	-0.033	0.005
-740.098	-200.000	0.002	-0.083
-739.083	190.992	0.228	-0.347
-738.069	-200.000	0.052	0.296
-737.054	-77.750	0.283	-0.099
-736.039	194.736	-0.123	-0.188
-735.025	2.941	0.127	0.093
-734.010	726.245	-0.052	-0.140
-732.996	-28.658	-0.265	-0.154
-731.981	-25.495	-0.262	-0.157
-730.966	-89.790	0.065	-0.019
-729.952	114.273	-0.061	-0.075
-728.937	800.000	0.072	-0.262
-727.923	243.968	-0.145	-0.246
-726.908	-82.505	-0.148	-0.048
-725.894	28.947	0.176	0.151
-724.879	103.176	-0.063	0.074
-723.864	800.000	-0.026	0.092
-722.850	524.532	-0.145	-0.344
-721.835	-75.917	-0.345	0.123
-720.821	800.000	0.065	0.240
-719.806	-134.916	-0.172	-0.021
-718.791	-13.177	-0.347	-0.228
-717.777	-51.467	0.449	0.212
-716.762	17.312	-0.303	0.243
-715.748	800.000	-0.076	-0.232
-714.733	87.029	-0.183	0.204
-713.718	20.606	-0.038	0.031
-712.704	-200.000	0.028	-0.144
-711.689	-98.910	0.288	-0.074
-710.675	-5.301	-0.051	-0.035
-709.660	-200.000	-0.030	0.240
-708.645	74.808	0.244	-0.259
-707.631	-142.957	0.298	-0.029
-706.616	76.023	0.230	-0.245
-705.602	-48.260	-0.151	-0.074
-704.587	-117.458	0.314	0.057
-703.572	800.000	0.026	0.112
-702.558	-44.827	0.050	-0.025
-701.543	-55.377	0.058	-0.026
-700.529	-34.960	0.146	0.080
-699.514	-200.000	0.214	0.000
-698.499	229.676	-0.092	-0.151
-697.485	-200.000	-0.041	-0.221
-696.470	-149.741	-0.475	0.038
-695.456	-200.000	-0.055	0.498
-694.441	-168.267	-0.273	0.011
-693.426	-3.164	0.080	-0.056
-692.412	94.414	-0.272	0.311
-691.397	30.657	0.202	-0.174
-690.383	651.377	-0.113	-0.291
-689.368	-151.018	0.232	-0.018
-688.354	38.904	-0.225	-0.202
-687.339	-54.770	0.260	-0.118
-686.324	-72.357	-0.205	-0.077
-685.310	-200.000	0.078	-0.518
-684.295	-200.000	-0.001	-0.156
-683.281	-61.722	-0.225	-0.095
-682.266	63.411	0.210	0.212
-681.251	-67.853	-0.445	-0.175
-680.237	-134.816	0.173	-0.021
-679.222	-200.000	-0.020	-0.193
-678.208	-15.103	-0.302	0.195
-677.193	-200.000	0.016	0.157
-676.178	-0.274	-0.331	-0.237
-675.164	-75.407	-0.298	-0.107
-674.149	-200.000	0.052	0.249
-673.135	148.488	-0.017	-0.023
-672.120	-50.674	-0.158	-0.075
-671.105	800.000	-0.047	0.180
-670.091	96.612	0.224	-0.259
-669.076	800.000	0.071	-0.281
-668.062	800.000	0.021	-0.086
-667.047	-13.020	-0.094	0.061
-666.032	-68.788	-0.235	0.091
-665.018	-8.343	0.160	-0.108
-664.003	25.795	0.141	0.118
-662.989	150.756	0.181	-0.248
-661.974	239.253	0.232	-0.389
-660.959	-139.768	-0.112	-0.012
-659.945	125.133	0.051	0.065
-658.930	-111.770	-0.110	-0.022
-657.916	-123.151	-0.337	-0.054
-656.901	-82.280	0.377	-0.124
-655.886	35.450	0.081	0.072
-654.872	-30.482	0.233	-0.133
-653.857	-28.251	-0.115	0.067
-652.843	260.021	-0.023	0.040
-651.828	41.310	0.203	-0.185
-650.814	282.245	0.164	-0.295
-649.799	23.394	-0.218	0.181
-648.784	603.995	-0.051	0.128
-647.770	-114.800	0.216	-0.042
-646.755	-200.000	0.017	-0.139
-645.741	800.000	0.059	0.240
-644.726	628.441	0.063	0.161
-643.711	40.885	0.090	0.082
-642.697	149.469	0.039	0.053
-641.682	18.929	-0.076	-0.061
-640.668	-200.000	-0.057	0.423
-639.653	-200.000	-0.004	0.058
-638.638	-130.120	-0.112	0.015
-637.624	800.000	-0.036	0.156
-636.609	123.458	-0.193	0.243
-635.595	-200.000	-0.025	-0.199
-634.580	211.035	-0.175	-0.277
-633.565	50.729	0.240	-0.228
-632.551	129.901	-0.122	0.157
-631.536	121.594	-0.059	0.074
-630.522	652.363	-0.066	0.170
-629.507	-29.073	-0.204	-0.118
-628.492	0.922	0.129	0.093
-627.478	588.797	-0.028	-0.070
-626.463	-200.000	0.029	-0.137
-625.449	175.841	0.098	-0.143
-624.434	34.988	-0.057	0.050
-623.419	-200.000	0.013	-0.216
-622.405	-200.000	-0.043	-0.317
-621.390	-200.000	0.034	0.185
-620.376	57.055	-0.239	0.235
-619.361	-70.702	-0.124	-0.047
-618.346	777.818	0.021	0.058
-617.332	-33.380	0.030	0.017
-616.317	800.000	-0.072	-0.266
-615.303	401.989	-0.058	-0.123
-614.288	-60.269	-0.159	-0.068
-613.273	-52.551	-0.220	0.102
-612.259	133.397	0.099	-0.129
-611.244	800.000	0.045	-0.190
-610.230	286.406	-0.123	-0.224
-609.215	-200.000	-0.014	-0.411
-608.201	-200.000	0.016	0.123
-607.186	17.525	-0.159	0.127
-606.171	-149.336	0.147	0.012
-605.157	-200.000	0.002	0.167
-604.142	-16.106	-0.267	-0.170
-603.128	28.022	0.163	0.138
-602.113	-65.726	0.057	-0.023
-601.098	-106.038	0.212	-0.048
-600.084	137.945	0.098	0.129
-599.069	-103.258	-0.337	-0.080
-598.055	181.518	0.116	-0.171
-597.040	800.000	-0.037	-0.113
-596.025	-156.983	0.028	-0.002
-595.011	-29.976	-0.076	-0.043
-593.996	104.630	0.089	-0.105
-592.982	31.986	0.160	-0.138
-591.967	-184.016	-0.181	-0.003
-590.952	609.182	-0.092	-0.232
-589.938	-91.053	0.029	-0.008
-588.923	-16.329	-0.205	-0.130
-587.909	5.694	-0.094	-0.070
-586.894	205.943	0.091	0.142
-585.879	-200.000	-0.002	-0.119
-584.865	-104.211	0.149	0.035
-583.850	11.037	0.086	-0.066
-582.836	66.038	-0.204	-0.208
-581.821	-116.286	0.097	0.018
-580.806	-200.000	-0.071	-0.399
-579.792	78.742	-0.109	-0.117
-578.777	155.607	0.113	0.156
-577.763	740.192	-0.039	0.105
-576.748	291.675	-0.037	0.068
-575.733	-200.000	-0.016	-0.326
-574.719	-93.606	-0.262	-0.073
-573.704	-28.254	-0.091	-0.053
-572.690	-41.925	-0.244	-0.126
-571.675	153.206	-0.067	0.092
-570.661	-115.444	-0.210	0.040
-569.646	-200.000	-0.072	0.538
-568.631	-163.291	0.089	0.004
-567.617	-200.000	-0.024	0.396
-566.602	800.000	-0.049	-0.204
-565.588	90.942	-0.098	-0.111
-564.573	-200.000	-0.003	-0.337
-563.558	678.256	0.050	0.130
-562.544	-101.932	-0.193	0.047
-561.529	53.190	-0.099	0.095
-560.515	-200.000	-0.037	0.219
-559.500	369.034	-0.020	0.040
-558.485	342.747	0.111	0.217
-557.471	-200.000	-0.028	-0.160
-556.456	66.253	-0.049	-0.050
-555.442	-93.291	-0.257	-0.072
-554.427	800.000	0.110	0.340
-553.412	-86.290	-0.250	-0.077
-552.398	-115.552	0.245	-0.046
-551.383	23.468	0.208	-0.172
-550.369	-200.000	-0.040	-0.354
-549.354	-46.356	-0.224	-0.111
-548.339	182.140	0.203	0.299
-547.325	-38.252	-0.084	-0.045
-546.310	-80.030	0.125	0.042
-545.296	398.909	0.133	-0.279
-544.281	-57.981	-0.077	-0.034
-543.266	229.826	-0.115	0.188
-542.252	27.861	0.074	-0.062
-541.237	-19.388	0.135	-0.084
-540.223	366.593	0.183	0.371
-539.208	444.266	-0.104	-0.228
-538.193	-39.785	-0.190	-0.099
-537.179	-18.858	0.060	0.037
-536.164	-200.000	-0.005	0.056
-535.150	178.802	0.009	-0.013
-534.135	-44.633	0.124	0.062
-533.121	-128.080	0.258	-0.037
-532.106	-25.845	0.200	0.118
-531.091	-98.744	0.088	-0.022
-530.077	-21.981	-0.204	0.124
-529.062	52.702	0.026	-0.025
-528.048	-110.606	-0.227	0.047
-527.033	82.921	-0.161	0.175
-526.018	382.867	-0.099	-0.205
-525.004	-200.000	-0.005	-0.199
-523.989	192.915	-0.084	0.127
-522.975	451.321	-0.046	0.102
-521.960	92.282	0.150	0.169
-520.945	195.482	0.094	0.143
-519.931	-200.000	0.000	0.095
-518.916	-67.380	0.099	0.039
-517.902	499.397	-0.061	-0.141
-516.887	-86.922	-0.236	0.072
-515.872	-102.832	0.361	0.086
-514.858	-52.731	-0.363	-0.168
-513.843	-165.369	0.109	-0.005
-512.829	164.395	-0.153	-0.216
-511.814	-122.928	0.139	0.022
-510.799	702.928	0.076	-0.200
-509.785	663.085	-0.163	0.421
-508.770	-200.000	-0.008	-0.181
-507.756	-200.000	0.061	0.271
-506.741	195.058	0.121	0.184
-505.726	34.968	-0.234	-0.205
-504.712	-70.725	0.219	0.083
-503.697	117.192	0.141	0.174
-502.683	-124.809	0.355	-0.055
-501.668	800.000	-0.062	-0.261
-500.653	116.288	-0.091	0.112
-499.639	800.000	0.116	0.448
-498.624	-91.510	-0.305	-0.087
-497.610	-200.000	-0.013	-0.071
-496.595	760.993	0.090	-0.245
-495.581	-27.442	0.056	0.033
-494.566	-200.000	0.030	-0.189
-493.551	-5.260	-0.134	-0.092
-492.537	-28.154	0.247	0.143
-491.522	56.801	-0.238	-0.232
-490.508	-18.021	0.313	0.196
-489.493	2.344	0.323	-0.234
-488.478	88.615	0.112	0.125
-487.464	-119.457	-0.122	0.021
-486.449	-99.054	-0.321	0.081
-485.435	800.000	0.044	0.148
-484.420	-147.965	-0.204	0.017
-483.405	-200.000	-0.094	-0.482
-482.391	-141.236	-0.227	-0.023
-481.376	107.181	0.067	0.080
-480.362	-51.556	-0.055	-0.026
-479.347	-148.909	-0.467	-0.038
-478.332	-200.000	0.043	0.194
-477.318	-30.438	-0.079	-0.045
-476.303	800.000	-0.060	-0.181
-475.289	800.000	0.067	0.288
-474.274	614.517	0.224	0.560
-473.259	103.531	-0.110	0.129
-472.245	800.000	-0.141	0.403
-471.230	353.833	0.105	-0.208
-470.216	506.900	-0.094	-0.217
-469.201	-136.860	-0.222	0.025
-468.186	-200.000	0.048	0.230
-467.172	-59.230	0.178	-0.077
-466.157	-113.924	-0.202	-0.039
-465.143	-86.359	0.348	-0.107
-464.128	-170.088	0.115	0.004
-463.113	-200.000	0.000	0.266
-462.099	800.000	0.069	-0.253
-461.084	53.942	0.035	-0.034
-460.070	409.929	0.066	-0.141
-459.055	27.186	0.246	-0.206
-458.040	-62.491	0.170	0.070
-457.026	-200.000	0.018	-0.088
-456.011	8.706	0.073	-0.055
-454.997	800.000	0.050	-0.185
-453.982	-200.000	0.040	-0.300
-452.968	-200.000	0.010	0.242
-451.953	800.000	-0.016	0.064
-450.938	-174.725	0.159	-0.004
-449.924	-105.488	-0.099	0.022
-448.909	72.122	0.060	0.063
-447.895	-91.171	0.163	0.047
-446.880	800.000	0.030	-0.085
-445.865	-88.585	0.105	-0.031
-444.851	334.458	0.147	0.285
-443.836	-107.885	-0.127	0.028
-442.822	-111.283	-0.191	-0.039
-441.807	-46.790	0.275	-0.134
-440.792	-100.500	0.277	0.068
-439.778	800.000	0.067	-0.260
-438.763	87.322	-0.046	0.051
-437.749	800.000	0.007	-0.025
-436.734	296.602	-0.135	0.247
-435.719	487.294	0.091	0.206
-434.705	252.447	0.189	0.321
-433.690	255.756	-0.177	0.303
-432.676	-200.000	0.007	-0.123
-431.661	-116.402	0.133	0.025
-430.646	-125.783	0.149	-0.022
-429.632	435.514	0.038	0.083
-428.617	187.740	0.152	0.226
-427.603	24.775	0.199	-0.164
-426.588	8.892	0.117	0.088
-425.573	800.000	0.054	-0.153
-424.559	-55.175	0.045	0.020
-423.544	-200.000	-0.006	-0.230
-422.530	-182.678	0.194	0.004
-421.515	125.853	0.026	0.033
-420.500	-74.169	0.209	0.075
-419.486	800.000	0.057	0.210
-418.471	800.000	0.032	-0.111
-417.457	657.785	0.143	-0.367
-416.442	111.539	-0.097	-0.117
-415.428	-82.238	-0.035	-0.012
-414.413	20.623	-0.168	-0.136
-413.398	287.274	0.123	0.221
-412.384	736.864	0.102	0.273
-411.369	71.013	0.316	-0.326
-410.355	101.287	0.113	-0.131
-409.340	-8.945	0.016	-0.011
-408.325	332.602	0.020	-0.039
-407.311	-67.129	0.233	-0.092
-406.296	-200.000	0.038	-0.293
-405.282	15.283	0.173	-0.135
-404.267	626.957	-0.069	0.174
-403.252	36.115	-0.357	0.313
-402.238	-42.165	0.280	-0.143
-401.223	39.064	-0.090	-0.080
-400.209	-114.689	0.029	-0.006
-399.194	-9.873	0.362	-0.240
-398.179	81.866	0.031	-0.034
-397.165	-74.528	-0.179	-0.064
-396.150	-81.358	0.036	0.012
-395.136	-153.180	-0.301	-0.021
-394.121	79.667	0.122	0.130
-393.106	-120.590	0.152	-0.026
-392.092	107.068	0.039	-0.046
-391.077	-200.000	0.015	-0.234
-390.063	800.000	0.045	-0.185
-389.048	649.962	0.108	0.275
-388.033	36.002	-0.053	-0.046
-387.019	-78.129	-0.470	0.161
-386.004	427.497	0.050	0.107
-384.990	477.983	-0.041	0.093
-383.975	19.758	-0.204	-0.163
-382.960	-47.375	0.105	-0.051
-381.946	-200.000	0.030	-0.267
-380.931	-200.000	0.037	-0.220
-379.917	92.598	-0.046	-0.051
-378.902	-0.285	0.188	-0.133
-377.888	-98.811	-0.255	0.065
-376.873	164.754	-0.105	0.147
-375.858	800.000	0.069	0.241
-374.844	-200.000	0.012	0.086
-373.829	-200.000	-0.016	-0.342
-372.815	-98.848	0.321	0.081
-371.800	-200.000	-0.045	-0.201
-370.785	800.000	0.052	0.159
-369.771	173.013	0.112	-0.161
-368.756	240.601	-0.086	0.143
-367.742	800.000	0.108	-0.310
-366.727	47.608	-0.032	-0.029
-365.712	624.565	0.008	-0.020
-364.698	800.000	-0.056	0.166
-363.683	0.668	0.097	0.069
-362.669	-111.223	-0.240	0.049
-361.654	-200.000	-0.002	-0.041
-360.639	103.599	-0.270	-0.315
-359.625	83.234	0.182	0.197
-358.610	95.433	-0.095	0.107
-357.596	278.114	-0.042	0.075
-356.581	-200.000	0.001	-0.422
-355.566	53.116	-0.192	0.183
-354.552	118.951	-0.199	0.244
-353.537	-62.165	-0.236	0.098
-352.523	-164.144	-0.176	0.008
-351.508	-200.000	-0.030	0.205
-350.493	-122.508	0.431	-0.070
-349.479	-1.461	0.029	-0.020
-348.464	-200.000	0.000	0.304
-347.450	75.138	-0.142	-0.148
-346.435	50.162	0.155	0.145
-345.420	800.000	0.099	0.345
-344.406	496.839	-0.127	-0.291
-343.391	-200.000	-0.002	-0.093
-342.377	178.128	0.156	0.226
-341.362	209.130	-0.134	0.208
-340.348	800.000	0.019	-0.078
-339.333	-200.000	0.037	-0.165
-338.318	291.427	-0.057	-0.102
-337.304	380.620	-0.138	0.281
-336.289	310.094	0.042	-0.078
-335.275	-200.000	-0.054	-0.299
-334.260	800.000	-0.064	-0.249
-333.245	-56.490	0.136	0.060
-332.231	-141.370	0.379	0.038
-331.216	-200.000	0.027	0.129
-330.202	800.000	-0.099	0.358
-329.187	-85.618	-0.279	-0.086
-328.172	-44.125	0.378	0.189
-327.158	-18.682	0.205	0.127
-326.143	800.000	0.051	-0.219
-325.129	-77.401	-0.189	0.065
-324.114	-200.000	0.015	-0.112
-323.099	-200.000	-0.024	-0.208
-322.085	-133.512	0.292	0.036
-321.070	337.815	0.122	0.235
-320.056	14.577	-0.122	-0.095
-319.041	167.341	0.097	-0.137
-318.026	258.761	-0.098	0.168
-317.012	-100.214	0.281	-0.069
-315.997	-87.643	0.119	-0.036
-314.983	-200.000	0.028	-0.146
-313.968	85.087	0.155	0.169
-312.953	-200.000	-0.006	-0.215
-311.939	-120.606	-0.377	-0.063
-310.924	-200.000	-0.003	0.229
-309.910	-200.000	-0.023	0.343
-308.895	136.917	-0.060	-0.078
-307.880	243.711	0.071	0.119
-306.866	440.711	0.130	0.281
-305.851	131.191	0.139	0.178
-304.837	233.376	-0.110	-0.179
-303.822	-129.660	-0.158	-0.022
-302.807	-77.787	0.037	0.013
-301.793	168.046	0.086	0.122
-300.778	-200.000	-0.021	-0.301
-299.764	42.552	0.108	-0.098
-298.749	-200.000	0.047	-0.269
-297.735	8.696	-0.263	-0.197
-296.720	-200.000	0.004	0.138
-295.705	211.335	0.124	0.193
-294.691	151.947	-0.129	-0.175
-293.676	-154.185	-0.079	-0.005
-292.662	-131.142	0.100	0.013
-291.647	-200.000	-0.007	-0.184
-290.632	134.909	-0.102	-0.131
-289.618	-150.192	-0.258	0.020
-288.603	-5.496	0.166	0.113
-287.589	-4.751	0.182	0.125
-286.574	-200.000	0.025	0.162
-285.559	25.263	0.065	0.053
-284.545	-9.219	-0.163	-0.108
-283.530	-140.832	0.259	0.026
-282.516	-200.000	-0.044	-0.238
-281.501	-101.286	-0.193	-0.047
-280.486	-170.715	-0.367	0.013
-279.472	305.799	-0.076	0.141
-278.457	800.000	0.012	0.047
-277.443	31.625	0.210	0.180
-276.428	500.784	-0.124	-0.284
-275.413	-59.886	-0.366	0.155
-274.399	117.536	0.152	0.185
-273.384	-172.204	-0.356	-0.011
-272.370	800.000	-0.080	0.222
-271.355	800.000	0.059	0.199
-270.340	-86.194	-0.204	0.062
-269.326	115.269	-0.056	0.068
-268.311	113.607	0.016	-0.019
-267.297	-200.000	-0.030	-0.133
-266.282	-148.850	-0.069	-0.006
-265.267	35.661	0.079	0.069
-264.253	269.171	0.103	0.179
-263.238	800.000	0.056	-0.232
-262.224	-72.840	-0.126	0.046
-261.209	-200.000	0.002	-0.130
-260.195	-200.000	0.011	0.242
-259.180	44.926	-0.242	-0.221
-258.165	-42.992	0.126	0.063
-257.151	800.000	-0.094	0.300
-256.136	34.854	-0.186	-0.161
-255.122	45.045	-0.147	-0.134
-254.107	365.334	-0.165	0.329
-253.092	800.000	-0.041	0.161
-252.078	-200.000	0.018	0.115
-251.063	-200.000	-0.022	0.213
-250.049	0.712	0.187	0.132
-249.034	-167.472	0.189	0.007
-248.019	146.810	-0.059	-0.079
-247.005	-113.683	-0.231	0.045
-245.990	-107.831	0.335	0.072
-244.976	-87.325	0.417	0.125
-243.961	-6.919	0.248	-0.167
-242.946	214.194	-0.076	0.119
-241.932	-56.325	0.208	0.092
-240.917	-200.000	-0.016	-0.301
-239.903	-195.149	-0.390	0.003
-238.888	-200.000	-0.009	-0.068
-237.873	-116.978	0.132	-0.024
-236.859	119.329	0.125	-0.154
-235.844	-43.492	0.171	-0.085
-234.830	-79.826	0.097	-0.032
-233.815	-200.000	-0.026	-0.139
-232.800	256.249	0.032	-0.054
-231.786	-66.921	-0.146	-0.057
-230.771	104.447	-0.149	-0.173
-229.757	800.000	-0.010	0.040
-228.742	-29.072	0.229	0.130
-227.727	5.537	-0.146	0.107
-226.713	-115.737	0.160	0.030
-225.698	-62.227	0.045	0.019
-224.684	-99.423	0.511	0.127
-223.669	239.442	0.097	0.159
-222.655	363.206	-0.125	-0.248
-221.640	-95.749	0.032	-0.008
-220.625	-24.555	-0.304	0.179
-219.611	-100.932	-0.314	-0.076
-218.596	-94.571	0.304	-0.082
-217.582	-21.766	-0.092	0.055
-216.567	58.325	-0.156	0.151
-215.552	-169.552	-0.085	0.003
-214.538	-82.940	0.037	-0.012
-213.523	239.299	-0.117	0.192
-212.509	-107.359	0.198	-0.043
-211.494	-14.406	-0.110	-0.070
-210.479	296.748	-0.125	-0.226
-209.465	-41.922	-0.186	0.094
-208.450	282.730	0.120	0.214
-207.436	-63.956	0.084	0.034
-206.421	-45.378	-0.224	-0.110
-205.406	-79.580	-0.182	-0.061
-204.392	-124.778	0.256	-0.039
-203.377	-85.789	0.020	-0.006
-202.363	-60.567	0.112	-0.047
-201.348	800.000	0.086	0.237
-200.333	480.109	-0.051	-0.114
-199.319	189.173	-0.083	0.123
-198.304	32.953	0.100	0.085
-197.290	-200.000	0.035	-0.293
-196.275	-52.926	-0.505	0.230
-195.260	79.923	0.066	-0.070
-194.246	-169.726	0.292	0.010
-193.231	-137.323	0.061	-0.007
-192.217	-117.527	0.122	0.022
-191.202	67.065	-0.166	-0.167
-190.187	800.000	-0.089	-0.322
-189.173	-70.571	0.464	-0.173
-188.158	-200.000	0.034	0.233
-187.144	-53.694	-0.333	-0.150
-186.129	-200.000	0.053	0.444
-185.114	343.865	0.187	-0.362
-184.100	281.798	-0.244	-0.431
-183.085	324.796	0.048	-0.090
-182.071	-200.000	-0.004	-0.292
-181.056	-146.287	-0.128	0.011
-180.042	-58.267	-0.428	0.184
-179.027	-200.000	-0.004	0.097
-178.012	77.163	0.218	0.229
-176.998	-114.571	0.207	0.039
-175.983	93.311	-0.046	-0.052
-174.969	-100.720	-0.085	-0.021
-173.954	2.790	-0.192	-0.138
-172.939	800.000	0.072	-0.227
-171.925	27.319	0.151	-0.126
-170.910	800.000	0.047	-0.152
-169.896	-88.353	-0.064	0.019
-168.881	-177.196	0.016	0.000
-167.866	800.000	-0.075	-0.262
-166.852	572.746	-0.066	0.160
-165.837	-9.242	0.263	-0.173
-164.823	39.644	-0.182	0.161
-163.808	-88.456	0.171	0.050
-162.793	60.759	-0.206	0.202
-161.779	-200.000	0.027	-0.211
-160.764	506.665	0.113	0.259
-159.750	-135.667	-0.265	0.031
-158.735	-172.115	-0.054	0.002
-157.720	304.648	0.124	0.227
-156.706	686.951	0.103	-0.265
-155.691	199.204	0.097	0.147
-154.677	-200.000	-0.058	0.331
-153.662	185.173	-0.031	0.045
-152.647	460.407	0.084	0.184
-151.633	-110.257	-0.072	0.015
-150.618	800.000	-0.061	0.188
-149.604	680.262	0.047	0.121
-148.589	66.467	0.202	0.203
-147.574	-2.850	-0.234	-0.161
-146.560	-200.000	0.083	-0.427
-145.545	16.690	-0.115	-0.090
-144.531	800.000	0.021	-0.073
-143.516	-87.876	0.209	0.062
-142.502	50.529	0.174	-0.162
-141.487	-200.000	0.012	0.137
-140.472	-37.260	-0.381	-0.201
-139.458	-131.028	0.121	-0.016
-138.443	84.191	0.386	-0.416
-137.429	15.754	0.222	-0.172
-136.414	-4.534	0.249	0.170
-135.399	320.860	0.187	0.351
-134.385	-137.542	-0.150	-0.017
-133.370	509.719	0.075	0.171
-132.356	800.000	0.083	-0.260
-131.341	1.705	0.160	-0.114
-130.326	-58.220	0.124	0.053
-129.312	149.887	0.057	-0.076
-128.297	-200.000	0.010	0.220
-127.283	56.624	0.112	0.107
-126.268	-81.446	-0.063	0.020
-125.253	-14.562	0.112	0.071
-124.239	800.000	0.026	-0.086
-123.224	70.550	0.177	0.181
-122.210	609.816	0.169	0.415
-121.195	-200.000	-0.048	-0.479
-120.180	-200.000	-0.034	0.339
-119.166	248.831	0.081	-0.135
-118.151	109.571	0.042	0.049
-117.137	-177.034	-0.285	0.007
-116.122	-15.536	0.220	-0.139
-115.107	-72.181	0.180	0.066
-114.093	-200.000	-0.037	0.232
-113.078	-145.167	0.188	-0.017
-112.064	-8.115	0.274	-0.182
-111.049	89.407	-0.253	0.277
-110.034	-10.458	-0.212	0.138
-109.020	-48.458	-0.094	-0.045
-108.005	-200.000	-0.001	-0.120
-106.991	38.492	-0.097	-0.085
-105.976	146.204	-0.065	0.086
-104.962	800.000	-0.062	0.191
-103.947	-52.083	-0.356	-0.163
-102.932	-71.333	0.184	-0.068
-101.918	-98.413	-0.264	0.067
-100.903	-43.887	-0.293	0.145
-99.889	173.017	-0.054	-0.077
-98.874	800.000	0.033	0.117
-97.859	-160.015	-0.169	-0.009
-96.845	-3.809	-0.229	0.157
-95.830	-44.027	-0.163	-0.081
-94.816	23.385	0.292	0.237
-93.801	-200.000	-0.020	0.181
-92.786	-28.189	0.153	0.087
-91.772	800.000	-0.036	0.127
-90.757	-128.033	-0.174	0.025
-89.743	-200.000	-0.037	-0.313
-88.728	152.874	0.080	-0.108
-87.713	2.162	-0.045	0.032
-86.699	39.866	0.234	0.207
-85.684	-74.294	-0.358	0.127
-84.670	-58.539	0.141	-0.060
-83.655	352.642	-0.073	0.142
-82.640	-132.599	-0.223	-0.028
-81.626	208.482	0.076	0.118
-80.611	-43.399	0.142	-0.071
-79.597	739.203	0.030	0.080
-78.582	800.000	-0.091	0.393
-77.567	-130.514	0.104	-0.014
-76.553	339.670	-0.068	0.130
-75.538	-200.000	0.017	0.201
-74.524	241.280	0.099	0.163
-73.509	-59.231	-0.157	-0.067
-72.494	74.789	0.056	-0.058
-71.480	405.778	-0.080	-0.167
-70.465	219.874	0.104	0.163
-69.451	-200.000	-0.024	0.129
-68.436	-184.891	0.223	0.003
-67.422	46.930	0.124	-0.113
-66.407	-200.000	-0.015	0.145
-65.392	-54.002	-0.053	-0.024
-64.378	3.280	0.356	0.255
-63.363	272.761	0.224	0.389
-62.349	-79.231	0.207	-0.069
-61.334	68.431	-0.843	-0.850
-60.319	613.821	0.276	0.679
-59.305	-200.000	-0.015	-1.138
-58.290	355.856	0.605	1.183
-57.276	800.000	0.464	1.364
-56.261	-200.000	101.636	595.161
-55.246	568.345	1416.873	3384.246
-54.232	191.152	2599.253	3845.130
-53.217	116.331	2162.793	2605.525
-52.203	41.665	1696.627	1510.838
-51.188	34.127	1506.360	1290.477
-50.173	31.765	1479.753	1251.871
-49.159	51.177	1532.188	1428.793
-48.144	52.677	1549.901	1455.468
-47.130	34.195	1507.923	1292.069
-46.115	31.222	1492.825	1259.072
-45.100	30.979	1489.633	1254.692
-44.086	30.990	1487.261	1252.718
-43.071	30.965	1485.431	1250.963
-42.057	30.903	1483.621	1248.974
-41.042	30.901	1482.402	1247.885
-40.027	30.879	1480.926	1246.440
-39.013	30.847	1480.127	1245.506
-37.998	30.993	1477.979	1244.621
-36.984	30.942	1476.604	1243.077
-35.969	30.968	1475.344	1242.143
-34.954	30.860	1474.473	1240.637
-33.940	30.905	1473.173	1239.794
-32.925	30.871	1472.169	1238.674
-31.911	31.076	1469.950	1238.118
-30.896	31.037	1468.961	1236.978
-29.881	31.025	1467.337	1235.484
-28.867	31.003	1466.296	1234.410
-27.852	30.930	1464.914	1232.713
-26.838	31.007	1463.345	1231.858
-25.823	30.985	1461.868	1230.418
-24.809	31.022	1460.605	1229.553
-23.794	30.936	1459.220	1227.768
-22.779	30.990	1458.133	1227.163
-21.765	30.959	1456.819	1225.806
-20.750	30.929	1455.929	1224.805
-19.736	30.969	1454.482	1223.806
-18.721	30.986	1453.620	1223.140
-17.706	30.948	1452.406	1221.826
-16.692	30.975	1451.001	1220.771
-15.677	30.918	1450.386	1219.831
-14.663	30.886	1449.059	1218.456
-13.648	30.880	1448.684	1218.054
-12.633	30.923	1447.367	1217.176
-11.619	30.907	1446.709	1216.470
-10.604	30.938	1445.618	1215.710
-9.590	30.987	1444.720	1215.226
-8.575	30.899	1444.071	1214.058
-7.560	30.874	1443.251	1213.159
-6.546	30.886	1442.586	1212.627
-5.531	30.841	1441.709	1211.548
-4.517	30.897	1440.300	1210.685
-3.502	30.949	1439.275	1210.114
-2.487	30.904	1438.404	1209.037
-1.473	30.804	1437.809	1207.842
-0.458	30.871	1436.230	1206.903
0.556	29.593	1426.353	1195.932
1.571	26.700	1401.685	1156.709
2.586	23.343	1343.768	1088.236
3.600	21.801	1262.594	1013.501
4.615	20.480	1217.539	969.875
5.629	17.758	1162.116	911.125
6.644	10.775	1080.252	812.075
7.659	5.425	1042.303	757.616
8.673	4.776	1037.158	750.681
9.688	4.651	1034.185	747.859
10.702	4.536	1032.779	746.226
11.717	4.448	1030.689	744.225
12.731	6.521	1032.092	755.116
13.746	13.218	1041.202	793.984
14.761	18.099	1047.156	821.978
15.775	18.353	1046.333	822.481
16.790	17.232	1044.699	815.746
17.804	16.279	1042.036	809.030
18.819	15.272	1040.582	803.006
19.834	14.951	1038.460	799.762
20.848	14.636	1038.037	797.861
21.863	14.396	1037.260	796.046
22.877	14.136	1036.671	794.286
23.892	14.109	1035.313	793.046
24.907	13.971	1034.573	791.751
25.921	14.015	1034.290	791.672
26.936	13.970	1034.092	791.239
27.950	14.034	1032.264	790.071
28.965	13.964	1031.587	789.150
29.980	14.051	1030.257	788.478
30.994	14.189	1029.076	788.157
32.009	14.301	1028.242	787.980
33.023	14.288	1027.766	787.484
34.038	14.234	1026.839	786.450
35.053	14.226	1025.793	785.538
36.067	14.262	1024.495	784.647
37.082	14.024	1024.167	783.203
38.096	14.085	1023.602	782.988
39.111	14.203	1022.638	782.738
40.126	14.267	1021.256	781.911
41.140	14.152	1020.849	780.989
42.155	13.866	1019.789	778.770
43.169	13.771	1018.617	777.362
44.184	13.902	1017.562	777.100
45.199	13.854	1016.067	775.665
46.213	13.855	1015.829	775.417
47.228	13.900	1014.424	774.487
48.242	14.077	1013.201	774.312
49.257	14.131	1012.575	774.015
50.271	13.994	1011.695	772.636
51.286	14.026	1010.857	772.076
52.301	14.094	1010.230	771.846
53.315	14.180	1009.280	771.447
54.330	14.087	1008.572	770.407
55.344	13.878	1007.771	768.760
56.359	14.087	1006.612	768.774
57.374	14.064	1005.607	767.835
58.388	13.907	1004.820	766.443
59.403	13.838	1004.074	765.485
60.417	13.805	1003.081	764.507
61.432	13.831	1002.406	764.046
62.447	13.764	1001.950	763.325
63.461	13.748	1001.046	762.493
64.476	13.911	999.693	762.146
65.490	13.813	999.054	761.140
66.505	13.880	998.116	760.663
67.520	13.753	997.838	759.802
68.534	13.710	996.889	758.816
69.549	13.949	996.306	759.399
70.563	13.858	995.038	757.949
71.578	13.743	994.832	757.200
72.593	13.771	993.878	756.535
73.607	13.705	992.877	755.407
74.622	13.579	991.966	754.072
75.636	13.609	991.002	753.412
76.651	13.659	990.335	753.062
77.666	13.641	990.058	752.703
78.680	13.671	989.010	751.977
79.695	13.695	988.561	751.679
80.709	13.787	987.844	751.482
81.724	13.809	987.065	750.923
82.739	13.876	986.697	750.878
83.753	13.938	985.887	750.476
84.768	14.107	985.002	750.500
85.782	14.187	984.128	750.128
86.797	14.282	983.179	749.765
87.812	14.299	982.548	749.295
88.826	14.152	982.074	748.205
89.841	14.027	981.299	746.988
90.855	14.088	980.449	746.549
91.870	14.235	979.730	746.594
92.884	14.188	979.103	745.838
93.899	14.180	978.107	744.980
94.914	14.313	977.199	744.817
95.928	14.230	977.196	744.378
96.943	14.242	975.862	743.351
97.957	14.275	975.214	742.937
98.972	14.214	974.571	742.111
99.987	14.158	974.038	741.390
101.001	14.120	973.368	740.643
102.016	14.067	972.331	739.555
103.030	14.123	971.563	739.153
104.045	14.234	970.351	738.657
105.060	14.201	969.343	737.681
106.074	14.153	968.089	736.445
107.089	14.080	967.561	735.655
108.103	13.966	966.291	734.123
109.118	13.759	965.845	732.802
110.133	13.816	964.710	732.130
111.147	13.894	963.927	731.814
112.162	13.872	963.014	730.957
113.176	13.904	962.409	730.578
114.191	13.969	961.258	729.923
115.206	13.984	960.875	729.632
116.220	13.984	960.042	728.939
117.235	14.047	959.027	728.379
118.249	13.998	958.044	727.350
119.264	13.874	957.905	726.640
120.279	13.797	956.773	725.379
121.293	14.065	955.520	725.536
122.308	13.876	955.023	724.268
123.322	13.854	954.014	723.347
124.337	13.951	953.422	723.253
125.352	13.801	951.918	721.398
126.366	13.799	951.169	720.756
127.381	13.744	950.152	719.683
128.395	13.808	948.829	718.895
129.410	13.920	948.150	718.803
130.424	13.799	947.867	718.001
131.439	13.872	946.744	717.404
132.454	14.018	945.461	716.994
133.468	14.022	945.305	716.831
134.483	14.066	944.565	716.398
135.497	13.998	943.871	715.514
136.512	14.047	942.861	714.895
137.527	13.851	942.658	713.837
138.541	13.872	941.751	713.175
139.556	13.957	941.032	712.933
140.570	13.989	939.811	712.082
141.585	14.109	939.039	711.950
142.600	14.174	938.765	711.957
143.614	14.215	937.923	711.429
144.629	14.283	937.036	710.986
145.643	14.146	936.744	710.117
146.658	14.213	935.641	709.500
147.673	14.133	934.748	708.422
148.687	14.040	933.554	707.060
149.702	14.116	932.665	706.645
150.716	13.898	931.853	705.042
151.731	13.936	930.956	704.463
152.746	14.161	929.967	704.603
153.760	14.212	929.659	704.524
154.775	14.031	928.974	703.179
155.789	14.123	928.608	703.225
156.804	14.247	927.587	702.915
157.819	14.295	926.793	702.453
158.833	14.124	926.135	701.174
159.848	14.271	925.533	701.273
160.862	14.370	924.732	701.023
161.877	14.266	923.915	699.905
162.892	14.201	923.126	698.970
163.906	14.080	922.257	697.741
164.921	14.202	921.144	697.349
165.935	14.103	920.334	696.262
166.950	14.068	919.310	695.279
167.964	14.177	918.661	695.180
168.979	14.139	917.639	694.188
169.994	14.198	916.659	693.632
171.008	14.172	916.053	693.002
172.023	14.141	915.058	692.058
173.037	14.281	914.317	692.022
174.052	14.334	913.788	691.779
175.067	14.356	912.768	691.037
176.081	14.397	912.208	690.721
177.096	14.157	911.481	689.116
178.110	14.129	910.802	688.426
179.125	14.166	909.692	687.677
180.140	14.308	908.962	687.653
181.154	14.300	908.305	687.063
182.169	14.335	907.969	686.889
183.183	14.376	907.601	686.722
184.198	14.480	906.922	686.573
185.213	14.530	905.992	686.017
186.227	14.434	905.650	685.299
187.242	14.435	905.213	684.912
188.256	14.548	904.282	684.613
189.271	14.608	903.408	684.138
190.286	14.645	902.562	683.585
191.300	14.648	901.808	682.969
192.315	14.276	900.953	680.739
193.329	14.076	900.925	679.841
194.344	14.177	899.990	679.486
195.359	14.265	899.783	679.631
196.373	14.413	898.749	679.391
197.388	14.433	898.437	679.177
198.402	14.578	897.709	679.155
199.417	14.621	897.944	679.449
200.432	14.749	896.973	679.176
201.446	14.661	896.681	678.535
202.461	14.765	896.582	678.825
203.475	14.820	896.149	678.659
204.490	14.901	895.157	678.176
205.504	14.716	894.514	676.879
206.519	14.649	893.349	675.665
207.534	14.690	892.542	675.164
208.548	14.641	892.309	674.729
209.563	14.630	891.883	674.303
210.577	14.724	890.539	673.604
211.592	14.690	889.918	672.940
212.607	14.846	889.554	673.233
213.621	14.904	889.008	672.994
214.636	14.871	887.935	671.991
215.650	14.866	887.626	671.678
216.665	14.957	887.107	671.589
217.680	15.041	886.718	671.573
218.694	14.903	886.059	670.459
219.709	14.947	885.759	670.350
220.723	14.893	885.400	669.804
221.738	14.966	884.438	669.309
222.753	14.965	883.581	668.598
223.767	14.879	882.951	667.720
224.782	14.981	882.029	667.369
225.796	14.989	881.363	666.837
226.811	15.048	880.812	666.594
227.826	15.012	880.494	666.155
228.840	14.962	879.498	665.141
229.855	15.023	878.714	664.734
230.869	15.134	877.792	664.416
231.884	15.097	877.030	663.632
232.899	14.906	876.659	662.539
233.913	14.907	876.397	662.287
234.928	14.974	875.552	661.854
235.942	14.935	874.798	661.070
236.957	15.026	873.772	660.595
237.972	14.988	873.246	659.990
238.986	14.879	872.736	659.117
240.001	15.039	872.000	659.133
241.015	14.956	871.863	658.645
242.030	15.001	871.072	658.163
243.045	15.037	870.220	657.606
244.059	14.954	869.999	657.055
245.074	15.062	869.300	656.892
246.088	15.137	868.846	656.785
247.103	15.112	868.340	656.244
248.117	15.160	867.508	655.746
249.132	15.348	866.554	655.704
250.147	15.387	866.395	655.678
251.161	15.484	865.828	655.567
252.176	15.426	865.529	655.059
253.190	15.443	864.784	654.500
254.205	15.371	864.491	653.941
255.220	15.626	863.195	653.896
256.234	15.713	862.542	653.681
257.249	15.723	861.763	653.073
258.263	15.691	861.613	652.774
259.278	15.653	861.097	652.179
260.293	15.769	860.235	651.919
261.307	15.768	859.672	651.431
262.322	15.731	859.087	650.787
263.336	15.821	858.749	650.820
264.351	15.651	858.566	649.967
265.366	15.850	857.840	650.128
266.380	15.812	857.109	649.370
267.395	15.960	856.020	649.059
268.409	15.766	855.405	647.789
269.424	15.780	854.671	647.228
270.439	15.806	854.073	646.818
271.453	15.767	853.137	645.901
272.468	15.764	852.422	645.294
273.482	15.766	852.026	644.943
274.497	15.674	851.543	644.167
275.512	15.632	851.215	643.701
276.526	15.826	850.639	643.952
277.541	15.896	849.853	643.568
278.555	15.875	849.052	642.823
279.570	15.866	848.723	642.482
280.585	16.006	848.351	642.680
281.599	15.985	847.670	642.026
282.614	15.950	846.911	641.261
283.628	15.932	846.375	640.730
284.643	15.882	846.075	640.258
285.657	15.945	845.161	639.749
286.672	15.887	845.072	639.402
287.687	15.889	844.417	638.857
288.701	15.957	844.002	638.745
289.716	16.004	843.124	638.202
290.730	16.010	842.668	637.824
291.745	16.014	842.375	637.560
292.760	16.001	841.459	636.764
293.774	16.213	840.565	636.830
294.789	16.136	840.770	636.640
295.803	16.166	839.678	635.866
296.818	15.904	839.286	634.528
297.833	16.053	838.408	634.370
298.847	16.109	837.836	634.091
299.862	16.113	837.250	633.605
300.876	16.186	836.535	633.282
301.891	16.158	835.473	632.318
302.906	16.247	835.120	632.329
303.920	16.310	834.348	631.923
304.935	16.437	833.825	631.945
305.949	16.490	833.291	631.684
306.964	16.387	832.804	630.873
307.979	16.250	832.257	629.891
308.993	16.363	831.596	629.759
310.008	16.330	831.247	629.316
311.022	16.420	830.589	629.096
312.037	16.577	829.722	628.967
313.052	16.428	829.343	628.071
314.066	16.331	829.266	627.597
315.081	16.274	828.473	626.729
316.095	16.281	827.905	626.269
317.110	16.249	827.232	625.588
318.125	16.284	826.668	625.235
319.139	16.256	826.316	624.810
320.154	16.240	826.163	624.581
321.168	16.227	825.476	623.955
322.183	16.283	824.733	623.547
323.197	16.338	824.420	623.458
324.212	16.499	823.646	623.410
325.227	16.488	822.957	622.793
326.241	16.367	822.914	622.259
327.256	16.221	822.514	621.365
328.270	16.433	821.365	621.222
329.285	16.389	821.049	620.766
330.300	16.450	820.631	620.621
331.314	16.460	820.028	620.146
332.329	16.476	819.083	619.433
333.343	16.543	818.786	619.399
334.358	16.555	818.137	618.898
335.373	16.620	817.852	618.866
336.387	16.422	817.738	618.002
337.402	16.534	817.048	617.834
338.416	16.668	816.276	617.683
339.431	16.709	815.717	617.355
340.446	16.679	815.119	616.740
341.460	16.799	814.628	616.749
342.475	16.865	814.048	616.496
343.489	16.978	813.413	616.372
344.504	16.867	813.353	615.867
345.519	16.980	812.553	615.618
346.533	17.010	811.918	615.192
347.548	17.022	811.580	614.924
348.562	17.027	810.958	614.418
349.577	16.873	810.539	613.488
350.592	16.706	810.131	612.519
351.606	16.743	809.925	612.445
352.621	16.738	809.010	611.680
353.635	16.698	808.634	611.199
354.650	16.765	808.349	611.168
355.665	16.800	808.017	610.992
356.679	16.950	807.427	611.031
357.694	16.870	806.991	610.358
358.708	16.974	806.289	610.150
359.723	16.941	805.978	609.739
360.738	16.962	805.325	609.268
361.752	16.977	804.884	608.932
362.767	16.975	804.536	608.609
363.781	16.996	804.032	608.249
364.796	17.086	803.866	608.393
365.810	17.230	803.352	608.465
366.825	17.236	802.879	608.075
367.840	17.346	802.325	607.996
368.854	17.275	802.140	607.547
369.869	17.214	801.689	606.933
370.883	17.227	800.973	606.386
371.898	17.218	800.616	606.028
372.913	17.276	799.948	605.675
373.927	17.402	799.379	605.641
374.942	17.327	798.629	604.752
375.956	17.237	798.231	604.077
376.971	17.352	797.522	603.897
377.986	17.413	797.020	603.679
379.000	17.504	796.607	603.634
380.015	17.575	796.037	603.400
381.029	17.493	795.533	602.675
382.044	17.504	794.914	602.192
383.059	17.585	793.991	601.726
384.073	17.486	794.124	601.425
385.088	17.591	793.259	601.086
386.102	17.383	792.608	599.805
387.117	17.375	792.508	599.649
388.132	17.149	791.992	598.409
389.146	17.298	791.580	598.569
390.161	17.337	791.245	598.401
391.175	17.488	790.696	598.464
392.190	17.413	790.456	597.964
393.205	17.606	789.668	597.992
394.219	17.476	789.233	597.154
395.234	17.571	788.650	596.995
396.248	17.580	787.669	596.228
397.263	17.617	787.657	596.298
398.278	17.431	787.595	595.547
399.292	17.342	786.859	594.627
400.307	17.360	786.452	594.329
401.321	17.565	786.009	594.657
402.336	17.453	785.781	594.042
403.350	17.483	785.153	593.621
404.365	17.604	784.654	593.613
405.380	17.658	784.287	593.468
406.394	17.662	783.825	593.080
407.409	17.708	783.711	593.101
408.423	17.860	783.144	593.148
409.438	17.954	782.709	593.093
410.453	17.961	782.375	592.811
411.467	17.900	781.790	592.104
412.482	17.982	781.439	592.071
413.496	18.076	780.613	591.720
414.511	18.075	780.752	591.769
415.526	17.999	780.135	590.983
416.540	18.013	780.048	590.913
417.555	17.931	779.498	590.163
418.569	17.945	778.946	589.739
419.584	17.998	778.611	589.618
420.599	18.037	778.346	589.499
421.613	157.081	1368.760	1797.985
422.628	135.536	1454.769	1798.073
