DTS Sentinel unit serial number:	SN413079Multiplexer serial number:	ORYXHardware model number:	OX4-SRSoftware version number:	ORYX F/W v4.00 Oryx Data Collector v3.7.2.0data status	okinstallation	princeton_trtdifferential loss correction	single-endedforward channel	channel 3reverse channel	N/Adate	2019/09/11time	23:50:11forward acquisition time	60.00reverse acquisition time	0.00gamma	496.2192k internal	0.2318k external	0.2318temperature offset calibration	1.0061default loss term (dB/km)	0.3790temperature slope calibration	1.0000multiplexer offset coefficient	1.0000multiplexer slope coefficient	1.0000fibre end	0.00T internal ref (°C)	33.89T ext. ref 1 (°C)	1.98T ext. ref 2 (°C)	27.58length (m)	temperature (°C)	Stokes	anti-Stokes-747.200	71.242	-0.288	0.303
-746.185	-85.220	0.429	0.136
-745.171	-3.644	-0.018	0.013
-744.156	471.050	-0.088	0.200
-743.142	800.000	-0.121	0.337
-742.127	800.000	-0.089	0.277
-741.112	170.598	0.249	0.362
-740.098	110.854	-0.090	0.109
-739.083	-200.000	0.037	0.312
-738.069	-22.645	0.158	0.097
-737.054	-200.000	-0.069	-0.395
-736.039	38.441	-0.144	0.130
-735.025	-68.659	0.262	0.103
-734.010	-200.000	0.015	0.109
-732.996	-200.000	-0.074	-0.382
-731.981	55.951	-0.141	-0.138
-730.966	304.098	-0.175	-0.328
-729.952	-200.000	0.010	-0.052
-728.937	-18.774	0.111	0.070
-727.923	-99.561	0.109	-0.028
-726.908	-23.953	-0.112	-0.068
-725.894	-200.000	0.018	0.127
-724.879	264.194	-0.112	0.196
-723.864	-82.624	-0.169	0.055
-722.850	-57.255	-0.280	0.125
-721.835	-107.599	-0.247	0.055
-720.821	-149.182	-0.423	-0.034
-719.806	259.106	-0.165	-0.288
-718.791	-114.838	0.295	-0.057
-717.777	177.350	-0.091	0.133
-716.762	352.782	0.112	0.225
-715.748	226.989	-0.147	-0.242
-714.733	-200.000	-0.009	0.117
-713.718	-113.246	-0.214	-0.043
-712.704	82.541	0.120	0.132
-711.689	-40.546	0.327	0.172
-710.675	-3.571	-0.088	0.062
-709.660	592.979	-0.131	0.328
-708.645	800.000	0.004	-0.013
-707.631	543.834	0.082	0.199
-706.616	410.772	-0.039	-0.085
-705.602	142.631	0.105	0.140
-704.587	61.831	0.376	-0.378
-703.572	-134.749	0.124	-0.015
-702.558	50.597	-0.141	0.135
-701.543	32.581	0.121	-0.106
-700.529	-200.000	0.003	0.081
-699.514	-98.049	0.207	-0.054
-698.499	34.832	-0.152	-0.134
-697.485	722.944	0.041	-0.110
-696.470	-41.065	0.234	-0.122
-695.456	-153.710	-0.461	-0.032
-694.441	487.204	0.056	0.130
-693.426	-200.000	-0.029	0.220
-692.412	-200.000	0.061	0.342
-691.397	800.000	0.072	0.202
-690.383	-30.651	0.260	-0.149
-689.368	119.181	-0.129	0.161
-688.354	373.698	0.113	-0.232
-687.339	96.354	-0.060	0.069
-686.324	337.818	0.175	-0.343
-685.310	-165.376	-0.063	-0.003
-684.295	-43.073	0.255	0.131
-683.281	244.131	-0.035	-0.059
-682.266	50.730	-0.218	0.209
-681.251	303.503	-0.066	-0.123
-680.237	-200.000	0.030	-0.238
-679.222	172.161	-0.100	0.146
-678.208	-200.000	0.011	0.179
-677.193	313.283	0.022	-0.041
-676.178	-53.948	-0.105	0.048
-675.164	-117.426	0.300	-0.055
-674.149	62.389	-0.188	-0.190
-673.135	-100.977	0.307	-0.076
-672.120	-97.452	0.158	0.041
-671.105	-160.878	-0.421	-0.022
-670.091	-56.927	-0.172	-0.077
-669.076	-200.000	0.058	-0.346
-668.062	-109.231	-0.444	-0.095
-667.047	328.209	-0.073	0.142
-666.032	-164.199	0.382	-0.018
-665.018	222.224	0.133	-0.216
-664.003	724.917	-0.093	0.250
-662.989	209.928	0.140	-0.222
-661.974	314.743	0.277	0.526
-660.959	241.212	0.080	0.135
-659.945	79.292	0.025	0.027
-658.930	-200.000	-0.030	-0.186
-657.916	-200.000	-0.022	-0.129
-656.901	800.000	-0.017	-0.065
-655.886	-10.799	-0.079	-0.053
-654.872	161.471	0.163	0.229
-653.857	412.125	0.049	0.105
-652.843	-98.849	-0.027	0.007
-651.828	91.741	-0.151	-0.172
-650.814	69.642	-0.029	0.030
-649.799	-200.000	0.015	-0.348
-648.784	-105.331	0.338	0.078
-647.770	-9.373	-0.185	-0.125
-646.755	541.668	0.033	-0.080
-645.741	-98.447	0.171	0.044
-644.726	-137.936	-0.055	-0.006
-643.711	10.555	-0.085	-0.065
-642.697	-100.305	0.204	-0.051
-641.682	800.000	0.059	0.235
-640.668	11.102	0.261	0.201
-639.653	103.916	-0.101	-0.120
-638.638	800.000	-0.071	0.220
-637.624	-54.018	-0.029	-0.013
-636.609	-38.506	0.013	0.007
-635.595	45.819	0.251	-0.234
-634.580	-153.937	-0.168	-0.012
-633.565	-28.247	0.140	0.081
-632.551	222.901	0.231	-0.376
-631.536	99.387	-0.221	0.257
-630.522	130.511	0.260	0.336
-629.507	-30.041	-0.192	-0.110
-628.492	-200.000	0.027	-0.287
-627.478	-44.175	-0.151	0.076
-626.463	794.061	-0.091	-0.253
-625.449	213.790	-0.099	-0.157
-624.434	-109.316	-0.092	-0.020
-623.419	163.419	0.135	-0.192
-622.405	226.314	-0.215	0.351
-621.390	-105.363	0.254	0.058
-620.376	-200.000	-0.026	0.195
-619.361	-200.000	-0.014	-0.151
-618.346	463.259	0.069	0.155
-617.332	-42.990	-0.400	0.204
-616.317	-3.737	-0.206	-0.144
-615.303	63.112	-0.102	-0.103
-614.288	-200.000	0.056	0.283
-613.273	55.271	0.312	-0.304
-612.259	194.930	0.031	0.047
-611.244	-85.484	0.285	-0.089
-610.230	198.450	0.106	-0.163
-609.215	105.026	-0.192	0.228
-608.201	-63.223	0.213	0.088
-607.186	220.728	-0.050	-0.081
-606.171	800.000	0.076	0.256
-605.157	-200.000	-0.007	0.178
-604.142	-200.000	-0.008	0.042
-603.128	-33.263	-0.119	0.066
-602.113	-104.405	0.227	0.053
-601.098	800.000	0.090	0.263
-600.084	-10.759	0.086	-0.057
-599.069	6.907	0.171	0.128
-598.055	-109.333	0.360	0.077
-597.040	-21.654	0.217	-0.133
-596.025	800.000	0.036	-0.139
-595.011	569.965	0.229	-0.560
-593.996	-149.576	-0.258	0.020
-592.982	-32.348	0.298	0.167
-591.967	174.712	0.079	0.115
-590.952	-200.000	-0.004	-0.031
-589.938	800.000	0.023	-0.099
-588.923	-200.000	-0.006	0.149
-587.909	-110.262	-0.256	-0.054
-586.894	-200.000	-0.015	0.073
-585.879	-200.000	-0.023	-0.244
-584.865	-139.786	-0.339	-0.036
-583.850	-194.951	-0.481	0.004
-582.836	32.846	0.317	0.276
-581.821	-46.726	-0.320	-0.158
-580.806	402.673	-0.102	-0.217
-579.792	800.000	-0.039	0.125
-578.777	-70.650	-0.205	-0.078
-577.763	800.000	0.090	-0.252
-576.748	-80.933	0.289	0.096
-575.733	62.230	-0.061	-0.061
-574.719	800.000	-0.071	-0.254
-573.704	-66.950	-0.160	0.063
-572.690	64.400	0.160	-0.162
-571.675	224.906	0.106	0.172
-570.661	-200.000	-0.052	0.323
-569.646	-200.000	0.022	-0.569
-568.631	-15.470	0.234	-0.150
-567.617	-81.305	-0.271	-0.090
-566.602	473.430	-0.073	-0.165
-565.588	-2.659	-0.220	0.155
-564.573	605.625	0.127	0.319
-563.558	-200.000	0.013	0.099
-562.544	-200.000	0.063	-0.356
-561.529	-200.000	0.037	-0.309
-560.515	-148.981	0.050	0.004
-559.500	-130.946	-0.152	0.020
-558.485	-58.997	0.235	-0.102
-557.471	800.000	0.106	-0.348
-556.456	-106.130	0.113	-0.026
-555.442	-4.128	0.062	-0.043
-554.427	37.658	0.254	0.226
-553.412	-106.886	0.117	-0.026
-552.398	731.355	-0.131	-0.351
-551.383	512.752	-0.013	-0.029
-550.369	-200.000	-0.009	0.069
-549.354	403.043	0.084	-0.178
-548.339	-200.000	0.004	-0.023
-547.325	800.000	-0.119	-0.376
-546.310	-70.228	0.151	0.058
-545.296	217.468	-0.076	-0.122
-544.281	-34.120	-0.255	-0.141
-543.266	51.930	0.083	0.079
-542.252	183.393	0.080	0.118
-541.237	254.009	-0.194	0.333
-540.223	800.000	0.078	0.322
-539.208	-27.210	-0.413	-0.242
-538.193	-145.392	-0.297	-0.027
-537.179	39.236	-0.224	0.201
-536.164	84.002	0.060	-0.066
-535.150	128.836	0.130	0.166
-534.135	-200.000	-0.063	0.471
-533.121	800.000	0.130	0.381
-532.106	49.779	0.116	-0.110
-531.091	800.000	-0.037	-0.154
-530.077	-200.000	-0.005	-0.084
-529.062	-32.360	-0.178	0.100
-528.048	-97.768	0.058	0.015
-527.033	-75.370	-0.143	0.051
-526.018	-70.598	-0.216	0.082
-525.004	86.083	-0.305	-0.337
-523.989	800.000	0.120	-0.482
-522.975	-174.820	-0.099	-0.003
-521.960	-146.111	-0.233	0.021
-520.945	-7.891	-0.226	-0.153
-519.931	313.829	-0.144	-0.271
-518.916	116.680	-0.199	0.245
-517.902	-180.073	-0.244	0.005
-516.887	-90.263	0.024	0.007
-515.872	7.199	-0.052	-0.039
-514.858	232.812	0.130	0.214
-513.843	-22.688	-0.117	-0.071
-512.829	265.495	-0.192	0.336
-511.814	231.950	0.066	0.109
-510.799	-200.000	-0.050	-0.258
-509.785	-200.000	0.034	-0.272
-508.770	-200.000	-0.041	-0.207
-507.756	-14.045	-0.345	-0.223
-506.741	-43.328	-0.117	-0.059
-505.726	800.000	0.023	-0.065
-504.712	20.217	-0.019	0.015
-503.697	125.670	-0.094	0.119
-502.683	15.183	-0.180	-0.141
-501.668	800.000	0.028	-0.105
-500.653	-200.000	-0.023	0.186
-499.639	-42.064	-0.103	0.053
-498.624	517.046	-0.073	-0.171
-497.610	-112.079	0.340	-0.069
-496.595	2.696	0.203	0.148
-495.581	5.191	0.072	0.053
-494.566	-16.399	-0.025	0.016
-493.551	-95.025	0.334	0.090
-492.537	-60.247	-0.133	-0.057
-491.522	-46.412	0.106	-0.052
-490.508	80.324	-0.033	0.036
-489.493	370.493	-0.106	-0.215
-488.478	-200.000	0.027	-0.149
-487.464	120.397	0.120	0.149
-486.449	5.757	0.236	0.175
-485.435	-173.122	0.150	0.005
-484.420	-200.000	0.016	0.109
-483.405	-112.628	0.052	0.010
-482.391	-126.218	-0.259	0.039
-481.376	-44.873	-0.085	0.042
-480.362	-33.082	-0.198	0.110
-479.347	-46.301	0.217	0.107
-478.332	-32.249	0.286	-0.160
-477.318	800.000	0.016	-0.066
-476.303	647.686	0.114	-0.291
-475.289	-23.276	0.451	0.271
-474.274	499.412	0.123	-0.283
-473.259	127.179	0.072	0.091
-472.245	800.000	-0.067	-0.261
-471.230	-200.000	0.000	0.146
-470.216	113.235	0.102	0.124
-469.201	800.000	-0.041	0.140
-468.186	5.648	0.229	0.170
-467.172	-64.820	0.257	-0.104
-466.157	-127.945	-0.062	-0.009
-465.143	-200.000	0.031	-0.156
-464.128	800.000	0.103	-0.289
-463.113	-169.528	0.118	-0.004
-462.099	-33.823	0.178	0.098
-461.084	68.477	-0.108	0.111
-460.070	-174.137	-0.081	-0.002
-459.055	-200.000	-0.007	-0.332
-458.040	-139.620	-0.157	-0.017
-457.026	14.393	0.103	-0.080
-456.011	-69.466	0.184	0.071
-454.997	-134.880	0.100	0.012
-453.982	-200.000	-0.018	0.150
-452.968	800.000	0.051	-0.210
-451.953	-93.152	0.102	-0.028
-450.938	157.398	-0.066	0.091
-449.924	128.160	0.033	-0.042
-448.909	-200.000	-0.025	0.236
-447.895	624.520	0.109	-0.275
-446.880	-200.000	0.006	0.059
-445.865	280.680	0.063	0.113
-444.851	-107.118	0.129	0.028
-443.836	-200.000	-0.384	-0.000
-442.822	800.000	0.047	0.144
-441.807	-54.498	0.220	0.100
-440.792	21.614	-0.095	0.077
-439.778	-64.834	0.302	0.122
-438.763	316.524	0.113	-0.213
-437.749	-185.664	-0.088	-0.001
-436.734	-113.621	-0.220	0.043
-435.719	-181.671	-0.515	0.010
-434.705	-162.648	0.112	-0.005
-433.690	246.876	-0.142	0.240
-432.676	-158.173	0.081	-0.005
-431.661	-101.058	-0.036	-0.009
-430.646	-10.268	-0.044	-0.029
-429.632	-200.000	-0.006	-0.118
-428.617	24.985	0.077	-0.064
-427.603	-97.803	0.260	0.067
-426.588	192.570	0.151	0.228
-425.573	276.296	-0.003	-0.005
-424.559	800.000	-0.052	0.227
-423.544	-27.027	0.269	0.157
-422.530	82.938	0.129	0.141
-421.515	800.000	0.049	-0.142
-420.500	176.799	-0.198	-0.287
-419.486	-11.334	-0.211	0.139
-418.471	332.799	-0.106	0.205
-417.457	-66.559	-0.154	-0.061
-416.442	-121.573	0.350	-0.058
-415.428	-173.290	0.210	0.006
-414.413	455.093	-0.050	-0.110
-413.398	50.937	-0.069	-0.065
-412.384	170.560	-0.116	-0.167
-411.369	800.000	-0.026	-0.099
-410.355	132.173	0.081	0.104
-409.340	-93.459	-0.099	-0.027
-408.325	-122.103	-0.124	-0.020
-407.311	45.530	0.142	0.131
-406.296	-200.000	-0.001	-0.220
-405.282	-66.802	0.241	0.095
-404.267	-121.020	-0.297	0.050
-403.252	620.590	0.074	-0.186
-402.238	264.401	0.105	0.183
-401.223	-200.000	-0.039	-0.189
-400.209	173.892	-0.225	0.324
-399.194	-64.108	0.228	0.093
-398.179	800.000	0.068	0.258
-397.165	24.587	0.202	0.167
-396.150	80.564	-0.094	0.101
-395.136	31.962	0.323	0.278
-394.121	-10.509	0.158	0.104
-393.106	-200.000	0.047	-0.360
-392.092	-13.251	-0.324	-0.210
-391.077	149.612	-0.182	-0.247
-390.063	-200.000	-0.005	-0.174
-389.048	-96.377	0.275	-0.073
-388.033	-116.938	-0.193	0.035
-387.019	86.697	0.069	-0.077
-386.004	44.548	0.378	-0.347
-384.990	-58.673	0.438	0.189
-383.975	169.298	-0.091	-0.130
-382.960	800.000	0.038	0.145
-381.946	-74.551	-0.406	0.146
-380.931	-200.000	0.025	-0.288
-379.917	-3.389	0.139	0.097
-378.902	-147.578	0.136	-0.011
-377.888	-25.746	-0.060	-0.036
-376.873	-47.701	0.062	-0.030
-375.858	67.167	-0.261	0.266
-374.844	786.620	0.099	-0.272
-373.829	-124.160	0.195	-0.031
-372.815	21.466	-0.232	0.188
-371.800	-48.180	0.033	-0.016
-370.785	800.000	0.061	0.241
-369.771	-71.664	-0.204	0.076
-368.756	47.239	0.105	0.097
-367.742	-200.000	0.009	0.054
-366.727	-32.574	-0.373	-0.207
-365.712	-76.080	-0.297	-0.105
-364.698	-200.000	0.026	-0.192
-363.683	-119.192	-0.176	0.031
-362.669	-200.000	-0.002	-0.282
-361.654	17.716	0.345	0.274
-360.639	197.874	-0.074	0.113
-359.625	-200.000	-0.005	-0.106
-358.610	84.527	0.172	-0.188
-357.596	-200.000	0.000	0.236
-356.581	-63.150	0.279	-0.115
-355.566	-200.000	0.042	0.249
-354.552	778.348	0.055	0.150
-353.537	-200.000	-0.021	-0.106
-352.523	6.242	-0.224	-0.166
-351.508	-200.000	0.037	0.168
-350.493	331.250	-0.219	0.421
-349.479	28.867	-0.109	-0.092
-348.464	435.806	0.061	-0.132
-347.450	-200.000	-0.040	0.257
-346.435	800.000	-0.020	0.079
-345.420	-38.556	0.253	-0.133
-344.406	24.627	0.131	0.108
-343.391	-194.714	0.096	0.001
-342.377	-200.000	0.044	-0.258
-341.362	265.484	-0.093	0.161
-340.348	-62.856	-0.434	-0.179
-339.333	-200.000	0.062	-0.368
-338.318	-150.513	0.200	-0.015
-337.304	-96.611	0.297	-0.078
-336.289	178.609	-0.223	-0.324
-335.275	-200.000	0.037	0.182
-334.260	-32.968	-0.107	0.059
-333.245	-166.212	-0.370	0.016
-332.231	-114.368	-0.087	0.017
-331.216	-124.479	0.182	0.028
-330.202	800.000	0.089	0.313
-329.187	-75.768	-0.239	-0.084
-328.172	-200.000	0.059	0.276
-327.158	800.000	-0.030	0.085
-326.143	355.470	0.078	0.155
-325.129	800.000	0.045	0.194
-324.114	210.582	0.030	0.047
-323.099	23.045	-0.189	-0.154
-322.085	-200.000	0.035	0.233
-321.070	-28.006	0.335	0.193
-320.056	-184.014	0.232	0.004
-319.041	305.352	-0.186	0.345
-318.026	800.000	0.011	-0.044
-317.012	685.119	0.150	0.390
-315.997	-200.000	-0.025	0.167
-314.983	800.000	0.065	0.213
-313.968	-22.523	-0.289	-0.174
-312.953	-119.511	-0.199	0.034
-311.939	10.211	-0.182	0.138
-310.924	244.467	-0.140	-0.233
-309.910	-161.899	-0.359	-0.018
-308.895	690.539	-0.040	-0.105
-307.880	229.656	-0.159	0.258
-306.866	-6.545	-0.126	0.085
-305.851	-17.496	-0.188	-0.118
-304.837	210.186	-0.036	-0.057
-303.822	-163.288	-0.258	-0.012
-302.807	368.781	-0.125	0.252
-301.793	-16.105	0.177	0.112
-300.778	137.730	-0.213	-0.277
-299.764	370.648	-0.071	-0.142
-298.749	452.721	0.127	0.279
-297.735	-173.308	-0.068	-0.002
-296.720	-200.000	-0.002	-0.077
-295.705	113.092	0.232	-0.279
-294.691	13.104	-0.217	-0.167
-293.676	-10.587	0.220	-0.145
-292.662	142.803	-0.130	-0.171
-291.647	28.384	-0.223	-0.187
-290.632	-83.396	0.466	-0.148
-289.618	-200.000	-0.006	0.159
-288.603	431.682	0.112	0.241
-287.589	94.529	-0.311	0.352
-286.574	-63.967	-0.218	0.088
-285.559	101.708	0.263	-0.305
-284.545	327.312	0.206	-0.393
-283.530	800.000	0.085	0.295
-282.516	-129.395	-0.046	0.006
-281.501	-200.000	-0.011	-0.162
-280.486	-171.141	-0.123	-0.004
-279.472	-180.193	0.354	-0.007
-278.457	513.823	-0.143	0.331
-277.443	-200.000	-0.022	0.099
-276.428	212.820	-0.288	-0.452
-275.413	-85.973	0.264	0.081
-274.399	-9.151	-0.291	-0.193
-273.384	-200.000	-0.009	0.140
-272.370	7.196	0.262	-0.194
-271.355	-43.333	-0.159	-0.080
-270.340	433.188	0.086	-0.186
-269.326	97.183	-0.058	-0.066
-268.311	-70.827	0.054	0.020
-267.297	-85.072	-0.046	-0.014
-266.282	-59.569	-0.256	-0.109
-265.267	-9.856	0.245	0.162
-264.253	-108.125	0.175	-0.038
-263.238	254.291	0.069	0.118
-262.224	728.123	0.135	0.357
-261.209	492.378	0.077	0.176
-260.195	43.994	0.137	-0.125
-259.180	655.078	-0.084	-0.214
-258.165	574.281	-0.064	-0.155
-257.151	185.580	0.040	-0.059
-256.136	17.748	-0.168	0.133
-255.122	800.000	-0.022	-0.078
-254.107	-71.624	-0.174	-0.065
-253.092	18.921	-0.040	0.031
-252.078	-86.090	0.358	0.110
-251.063	160.960	-0.076	0.106
-250.049	717.027	0.079	-0.208
-249.034	17.089	-0.125	0.098
-248.019	-162.712	-0.274	0.013
-247.005	500.862	-0.137	0.314
-245.990	-200.000	0.006	0.054
-244.976	-133.505	0.442	-0.055
-243.961	633.967	-0.154	-0.388
-242.946	-25.270	-0.274	-0.161
-241.932	401.850	0.070	0.145
-240.917	78.457	0.073	0.077
-239.903	-129.709	-0.077	-0.011
-238.888	455.258	-0.094	0.207
-237.873	800.000	-0.065	0.220
-236.859	-81.957	-0.353	-0.115
-235.844	800.000	-0.138	0.429
-234.830	106.986	0.168	0.198
-233.815	-71.272	-0.214	-0.080
-232.800	236.587	-0.027	0.045
-231.786	9.825	-0.077	0.058
-230.771	-44.506	-0.245	-0.121
-229.757	13.953	0.089	-0.069
-228.742	-72.701	-0.158	-0.058
-227.727	800.000	0.041	-0.126
-226.713	35.608	0.169	-0.147
-225.698	-122.503	-0.156	-0.025
-224.684	467.603	-0.117	-0.260
-223.669	220.553	-0.127	0.203
-222.655	515.389	-0.056	0.129
-221.640	19.601	-0.281	0.224
-220.625	800.000	-0.034	-0.134
-219.611	400.323	-0.118	-0.245
-218.596	-84.651	0.166	0.052
-217.582	197.828	-0.081	-0.123
-216.567	-144.433	0.105	0.010
-215.552	578.582	-0.094	0.229
-214.538	-29.376	0.391	0.222
-213.523	-200.000	0.009	0.157
-212.509	-200.000	-0.013	-0.188
-211.494	-40.632	0.395	-0.203
-210.479	800.000	0.036	0.136
-209.465	-104.560	-0.054	-0.012
-208.450	293.127	-0.042	0.075
-207.436	800.000	0.102	0.299
-206.421	-88.711	-0.067	-0.020
-205.406	800.000	-0.074	0.257
-204.392	-164.224	-0.344	-0.016
-203.377	-20.312	0.448	-0.273
-202.363	112.953	0.095	-0.114
-201.348	563.611	0.031	-0.075
-200.333	-176.188	-0.240	0.006
-199.319	-175.563	-0.160	0.004
-198.304	168.640	-0.113	0.160
-197.290	-74.198	-0.083	-0.030
-196.275	330.643	0.196	-0.373
-195.260	177.620	-0.132	0.191
-194.246	-49.923	0.164	0.077
-193.231	20.138	0.120	-0.096
-192.217	355.920	0.158	0.312
-191.202	-200.000	-0.077	0.427
-190.187	-58.391	-0.271	-0.117
-189.173	541.882	0.080	-0.188
-188.158	-106.713	-0.183	0.040
-187.144	617.031	-0.027	-0.068
-186.129	219.170	0.063	-0.100
-185.114	-112.323	-0.073	-0.015
-184.100	-200.000	0.004	0.135
-183.085	-200.000	0.014	0.117
-182.071	99.553	0.057	-0.066
-181.056	800.000	0.030	0.097
-180.042	-96.947	-0.197	0.051
-179.027	-177.374	-0.146	0.004
-178.012	-19.965	0.331	-0.202
-176.998	240.860	-0.039	-0.064
-175.983	408.845	-0.118	0.248
-174.969	-200.000	0.023	-0.159
-173.954	414.241	0.094	-0.199
-172.939	165.023	0.113	0.158
-171.925	-200.000	-0.055	0.273
-170.910	85.755	0.282	-0.307
-169.896	-167.829	-0.023	0.001
-168.881	396.506	0.115	0.238
-167.866	168.472	0.187	-0.263
-166.852	-45.328	-0.206	0.101
-165.837	16.332	0.128	-0.100
-164.823	-27.440	-0.140	-0.080
-163.808	-178.823	-0.119	0.003
-162.793	9.514	-0.407	-0.305
-161.779	-66.716	-0.157	-0.061
-160.764	-71.315	-0.149	-0.055
-159.750	270.731	0.158	0.276
-158.735	-53.717	0.123	0.055
-157.720	353.065	0.067	-0.131
-156.706	153.797	-0.136	-0.184
-155.691	65.727	0.316	0.316
-154.677	-117.680	0.331	0.059
-153.662	281.264	0.115	0.204
-152.647	-37.603	0.442	-0.233
-151.633	38.796	0.253	0.223
-150.618	34.426	0.144	0.125
-149.604	-200.000	-0.015	-0.306
-148.589	7.287	0.359	0.265
-147.574	-78.341	-0.223	0.076
-146.560	38.194	0.191	-0.168
-145.545	354.094	0.107	-0.210
-144.531	-47.654	-0.299	0.144
-143.516	-115.702	0.274	-0.051
-142.502	61.065	0.153	-0.150
-141.487	321.794	0.093	-0.176
-140.472	13.310	0.032	0.024
-139.458	101.529	-0.133	-0.153
-138.443	521.070	0.054	-0.125
-137.429	-30.519	0.086	0.048
-136.414	109.354	0.166	-0.197
-135.399	33.919	0.127	0.109
-134.385	-140.657	0.035	-0.004
-133.370	-168.633	-0.099	0.004
-132.356	398.206	-0.196	0.404
-131.341	-200.000	-0.049	0.268
-130.326	-19.512	0.135	0.083
-129.312	-56.429	-0.139	0.061
-128.297	-156.943	-0.176	-0.011
-127.283	-200.000	-0.021	0.120
-126.268	198.796	-0.190	0.287
-125.253	-200.000	-0.055	0.254
-124.239	-90.400	-0.287	0.082
-123.224	6.703	-0.158	-0.116
-122.210	-129.709	0.174	-0.024
-121.195	-200.000	0.008	-0.088
-120.180	-6.770	0.315	0.211
-119.166	-113.160	-0.262	0.051
-118.151	-200.000	0.013	-0.188
-117.137	-200.000	0.026	0.397
-116.122	232.533	-0.087	0.140
-115.107	-18.131	0.119	-0.074
-114.093	-116.639	-0.105	0.019
-113.078	-200.000	0.005	-0.224
-112.064	223.427	-0.143	0.228
-111.049	-3.084	-0.220	-0.151
-110.034	-125.032	-0.226	-0.034
-109.020	-97.322	0.134	-0.034
-108.005	-106.113	0.133	-0.030
-106.991	-200.000	-0.015	-0.213
-105.976	-55.734	0.357	0.157
-104.962	-88.358	0.355	-0.105
-103.947	-105.439	0.266	0.060
-102.932	-155.686	0.359	0.023
-101.918	-200.000	0.005	0.173
-100.903	800.000	0.061	-0.190
-99.889	-200.000	0.063	-0.338
-98.874	-60.363	-0.166	-0.070
-97.859	-200.000	0.003	0.270
-96.845	-18.942	0.154	-0.094
-95.830	309.882	-0.139	0.257
-94.816	-200.000	0.053	-0.255
-93.801	-200.000	0.010	-0.158
-92.786	34.868	0.158	-0.136
-91.772	-119.627	0.097	-0.017
-90.757	42.268	0.200	0.179
-89.743	-94.741	-0.050	-0.013
-88.728	750.113	0.072	0.190
-87.713	-200.000	-0.021	0.164
-86.699	800.000	0.067	-0.236
-85.684	55.670	-0.160	0.153
-84.670	800.000	0.056	-0.154
-83.655	-57.865	-0.279	-0.120
-82.640	526.228	-0.048	-0.112
-81.626	-200.000	-0.004	0.092
-80.611	-111.311	-0.319	0.064
-79.597	126.171	-0.106	0.133
-78.582	-200.000	-0.010	-0.113
-77.567	-38.589	-0.054	0.028
-76.553	37.792	0.209	-0.183
-75.538	462.259	-0.157	0.346
-74.524	-173.047	-0.357	0.011
-73.509	198.202	-0.071	-0.107
-72.494	345.656	0.049	0.096
-71.480	40.155	-0.400	0.355
-70.465	9.360	0.225	-0.168
-69.451	-200.000	-0.044	0.238
-68.436	64.869	0.105	-0.105
-67.422	762.116	-0.037	-0.100
-66.407	-200.000	0.050	-0.228
-65.392	505.371	-0.078	-0.178
-64.378	392.354	-0.085	0.174
-63.363	-167.081	-0.170	-0.007
-62.349	24.065	0.219	0.178
-61.334	35.818	-0.864	-0.749
-60.319	-200.000	0.153	0.704
-59.305	309.531	-0.527	-0.971
-58.290	100.865	0.672	0.770
-57.276	800.000	0.381	1.613
-56.261	-200.000	96.571	580.247
-55.246	543.745	1387.392	3262.591
-54.232	155.688	2577.936	3498.611
-53.217	111.132	2171.626	2577.065
-52.203	44.052	1711.329	1545.470
-51.188	37.049	1524.285	1328.737
-50.173	34.613	1497.422	1288.847
-49.159	54.096	1546.843	1465.465
-48.144	56.376	1565.136	1498.373
-47.130	37.287	1523.120	1329.136
-46.115	34.194	1507.593	1294.548
-45.100	33.964	1504.542	1290.314
-44.086	33.989	1502.711	1288.859
-43.071	33.932	1500.875	1286.846
-42.057	33.829	1499.208	1284.675
-41.042	33.980	1497.822	1284.451
-40.027	33.868	1496.363	1282.392
-39.013	33.853	1495.298	1281.328
-37.998	33.827	1493.657	1279.702
-36.984	33.788	1492.988	1278.812
-35.969	33.897	1491.063	1277.848
-34.954	33.940	1489.227	1276.510
-33.940	33.901	1488.110	1275.238
-32.925	33.908	1487.071	1274.346
-31.911	33.932	1485.873	1273.428
-30.896	34.000	1484.317	1272.500
-29.881	34.044	1482.743	1271.395
-28.867	34.016	1481.427	1270.030
-27.852	33.901	1480.552	1268.459
-26.838	33.881	1479.204	1267.123
-25.823	33.891	1477.481	1265.664
-24.809	33.920	1475.875	1264.431
-23.794	33.942	1473.981	1262.901
-22.779	33.977	1473.173	1262.391
-21.765	33.871	1472.225	1260.828
-20.750	33.874	1470.635	1259.433
-19.736	33.892	1469.562	1258.585
-18.721	33.907	1468.785	1257.972
-17.706	33.892	1468.034	1257.179
-16.692	33.992	1466.580	1256.544
-15.677	33.910	1465.698	1255.196
-14.663	33.836	1465.205	1254.234
-13.648	33.885	1463.642	1253.172
-12.633	33.825	1463.210	1252.358
-11.619	33.953	1461.721	1251.877
-10.604	33.851	1461.100	1250.623
-9.590	33.871	1460.419	1250.118
-8.575	33.917	1459.536	1249.620
-7.560	33.844	1459.120	1248.729
-6.546	33.777	1458.448	1247.668
-5.531	33.808	1457.154	1246.711
-4.517	33.866	1455.787	1245.877
-3.502	33.830	1455.238	1245.118
-2.487	33.873	1454.381	1244.621
-1.473	33.842	1453.199	1243.352
-0.458	33.909	1451.618	1242.387
0.556	34.280	1441.958	1230.878
1.571	31.210	1417.074	1189.999
2.586	27.795	1359.579	1120.692
3.600	26.383	1278.255	1045.404
4.615	25.101	1231.465	999.905
5.629	21.727	1174.440	935.534
6.644	11.588	1087.137	815.555
7.659	3.372	1043.964	743.578
8.673	2.245	1038.512	734.221
9.688	2.036	1034.947	730.632
10.702	1.870	1033.705	728.897
11.717	1.780	1032.021	727.216
12.731	5.666	1036.577	748.969
13.746	15.813	1050.731	808.083
14.761	23.355	1060.010	851.543
15.775	24.862	1061.816	860.168
16.790	25.197	1060.915	860.967
17.804	25.011	1060.207	859.426
18.819	24.842	1059.521	857.982
19.834	24.963	1058.981	858.049
20.848	24.957	1058.567	857.610
21.863	25.085	1058.281	857.913
22.877	25.087	1057.818	857.473
23.892	25.036	1057.281	856.718
24.907	24.866	1056.590	855.272
25.921	24.997	1055.766	855.151
26.936	25.041	1054.776	854.484
27.950	24.969	1053.372	852.930
28.965	25.017	1052.338	852.244
29.980	24.897	1050.639	850.222
30.994	24.800	1050.093	849.246
32.009	24.966	1049.419	849.415
33.023	25.079	1048.655	849.255
34.038	24.966	1047.751	847.913
35.053	24.858	1046.879	846.621
36.067	24.994	1046.283	846.707
37.082	24.979	1045.322	845.785
38.096	25.006	1044.607	845.259
39.111	25.200	1044.062	845.658
40.126	25.408	1042.828	845.561
41.140	25.163	1041.549	843.299
42.155	24.979	1040.041	841.137
43.169	24.546	1039.342	838.465
44.184	24.645	1038.188	837.925
45.199	24.697	1037.622	837.638
46.213	24.652	1036.249	836.245
47.228	24.713	1035.390	835.765
48.242	24.755	1034.677	835.309
49.257	24.805	1034.111	835.014
50.271	24.939	1033.806	835.320
51.286	25.070	1032.417	834.731
52.301	25.055	1031.915	834.183
53.315	25.178	1031.068	833.997
54.330	25.132	1030.424	833.187
55.344	24.961	1029.701	831.734
56.359	25.001	1028.877	831.183
57.374	25.101	1027.672	830.598
58.388	24.805	1027.148	828.729
59.403	24.792	1026.315	827.927
60.417	24.803	1025.870	827.545
61.432	24.634	1025.130	826.093
62.447	24.690	1024.344	825.642
63.461	24.747	1024.063	825.607
64.476	24.851	1023.154	825.281
65.490	24.844	1022.312	824.497
66.505	24.687	1021.221	822.823
67.520	24.603	1020.640	821.894
68.534	24.764	1019.345	821.517
69.549	24.820	1018.099	820.696
70.563	24.381	1017.621	818.228
71.578	24.321	1016.974	817.359
72.593	24.309	1015.997	816.447
73.607	24.211	1015.029	815.148
74.622	24.090	1014.206	813.865
75.636	24.457	1013.484	814.886
76.651	24.645	1012.476	814.861
77.666	24.617	1011.315	813.728
78.680	24.428	1010.754	812.344
79.695	24.455	1010.500	812.193
80.709	24.529	1009.921	811.989
81.724	24.627	1008.629	811.323
82.739	24.618	1007.942	810.660
83.753	24.617	1006.804	809.667
84.768	25.009	1006.826	811.390
85.782	25.166	1006.125	811.464
86.797	25.359	1005.394	811.676
87.812	25.366	1004.604	810.997
88.826	25.224	1003.694	809.550
89.841	25.293	1002.554	808.868
90.855	25.328	1001.948	808.468
91.870	25.255	1001.624	807.803
92.884	25.242	1000.505	806.773
93.899	25.114	999.734	805.504
94.914	24.972	998.627	803.904
95.928	25.182	997.888	804.178
96.943	25.291	996.697	803.636
97.957	25.038	995.741	801.662
98.972	24.692	994.883	799.357
99.987	24.485	993.687	797.400
101.001	24.558	993.383	797.410
102.016	24.998	992.617	798.686
103.030	24.850	992.230	797.646
104.045	24.871	991.201	796.840
105.060	24.769	989.666	795.082
106.074	24.570	988.588	793.263
107.089	24.600	987.807	792.700
108.103	24.892	987.872	793.978
109.118	25.151	986.482	793.937
110.133	24.845	984.968	791.296
111.147	24.702	984.074	789.873
112.162	24.656	982.972	788.718
113.176	24.442	982.179	787.068
114.191	24.659	981.483	787.397
115.206	24.693	980.821	786.946
116.220	24.342	979.345	784.147
117.235	24.192	978.739	782.936
118.249	24.356	978.338	783.264
119.264	24.335	977.419	782.367
120.279	24.421	976.064	781.593
121.293	24.334	975.624	780.788
122.308	24.444	974.684	780.448
123.322	24.508	974.075	780.169
124.337	24.449	972.951	778.942
125.352	24.360	971.806	777.571
126.366	23.863	970.130	773.998
127.381	23.642	968.513	771.679
128.395	24.112	968.941	773.993
129.410	24.857	968.245	776.606
130.424	24.825	967.926	776.139
131.439	24.946	966.989	775.846
132.454	24.868	966.129	774.750
133.468	24.838	965.388	773.958
134.483	24.760	964.616	772.930
135.497	24.894	963.560	772.596
136.512	25.072	963.303	773.087
137.527	25.215	962.679	773.135
138.541	25.092	961.819	771.846
139.556	25.110	961.187	771.349
140.570	25.158	959.970	770.512
141.585	25.355	958.703	770.273
142.600	25.136	959.043	769.535
143.614	25.122	957.930	768.515
144.629	25.282	957.142	768.498
145.643	25.518	956.522	768.944
146.658	25.342	955.424	767.240
147.673	25.110	954.085	765.110
148.687	25.121	953.063	764.268
149.702	24.993	951.885	762.712
150.716	24.897	950.968	761.501
151.731	24.848	950.531	760.873
152.746	24.909	949.858	760.527
153.760	25.094	949.168	760.694
154.775	25.356	948.605	761.287
155.789	25.552	947.055	760.802
156.804	25.503	946.211	759.849
157.819	25.249	945.242	757.932
158.833	25.303	944.650	757.620
159.848	25.406	944.275	757.687
160.862	25.389	943.891	757.239
161.877	25.385	942.860	756.327
162.892	25.292	941.842	755.052
163.906	25.381	940.958	754.650
164.921	25.325	940.198	753.739
165.935	25.273	938.884	752.403
166.950	25.305	937.638	751.472
167.964	25.378	936.858	751.085
168.979	25.308	935.731	749.822
169.994	25.194	934.891	748.606
171.008	25.191	933.638	747.527
172.023	25.125	933.711	747.244
173.037	25.285	932.723	747.052
174.052	25.188	931.404	745.528
175.067	24.952	930.616	743.850
176.081	25.053	929.770	743.526
177.096	25.078	929.217	743.122
178.110	25.304	927.695	742.773
179.125	24.844	927.355	740.533
180.140	24.695	926.195	738.927
181.154	24.793	925.197	738.468
182.169	24.729	924.797	737.821
183.183	24.965	924.698	738.651
184.198	25.193	924.559	739.412
185.213	25.309	923.758	739.185
186.227	25.059	923.120	737.579
187.242	25.188	922.774	737.769
188.256	25.256	921.838	737.234
189.271	25.397	920.777	736.899
190.286	25.442	919.915	736.328
191.300	25.312	919.285	735.229
192.315	24.677	918.330	731.798
193.329	24.018	916.136	727.294
194.344	23.624	915.296	724.955
195.359	24.194	915.695	727.533
196.373	25.019	916.163	731.210
197.388	25.248	915.629	731.654
198.402	25.228	914.903	730.925
199.417	25.123	914.736	730.300
200.432	25.251	913.903	730.092
201.446	25.001	913.306	728.533
202.461	24.758	912.452	726.802
203.475	24.909	911.919	726.924
204.490	24.482	910.070	723.656
205.504	23.260	908.231	717.184
206.519	23.815	908.051	719.225
207.534	24.737	908.554	723.291
208.548	24.830	908.031	723.187
209.563	25.112	908.317	724.492
210.577	25.171	907.196	723.769
211.592	24.814	906.375	721.611
212.607	25.264	906.462	723.430
213.621	25.373	905.892	723.353
214.636	25.254	905.264	722.308
215.650	25.488	904.658	722.702
216.665	25.514	903.677	721.956
217.680	25.418	903.433	721.312
218.694	25.570	902.993	721.507
219.709	25.068	902.154	718.762
220.723	24.803	900.897	716.635
221.738	25.044	900.674	717.360
222.753	25.239	899.784	717.366
223.767	25.212	899.192	716.723
224.782	25.116	898.830	715.990
225.796	25.307	898.518	716.439
226.811	25.496	897.824	716.575
227.826	25.119	896.302	713.798
228.840	24.245	894.827	709.083
229.855	24.191	894.530	708.572
230.869	24.571	893.697	709.356
231.884	24.271	892.671	707.289
232.899	24.344	892.521	707.398
233.913	24.949	892.738	709.905
234.928	25.136	892.236	710.186
235.942	25.112	891.424	709.380
236.957	25.025	891.214	708.805
237.972	24.830	890.002	707.012
238.986	24.625	889.143	705.456
240.001	24.829	888.933	706.034
241.015	24.953	887.985	705.707
242.030	24.893	887.365	704.915
243.045	25.174	886.971	705.645
244.059	25.160	886.520	705.167
245.074	25.329	886.324	705.614
246.088	25.329	885.267	704.710
247.103	24.904	884.434	702.317
248.117	24.778	884.426	701.756
249.132	25.491	884.020	704.163
250.147	25.881	883.760	705.421
251.161	26.004	882.888	705.143
252.176	26.132	882.798	705.512
253.190	26.201	882.055	705.125
254.205	26.185	881.567	704.611
255.220	26.245	881.525	704.748
256.234	26.320	880.565	704.211
257.249	26.093	880.035	702.839
258.263	26.189	879.201	702.487
259.278	26.070	878.470	701.375
260.293	26.125	878.190	701.305
261.307	26.239	877.589	701.203
262.322	26.002	877.244	699.946
263.336	25.996	876.146	698.986
264.351	25.448	874.907	695.814
265.366	24.372	873.048	690.113
266.380	23.986	871.829	687.600
267.395	24.644	872.887	690.916
268.409	25.600	872.963	694.609
269.424	25.639	871.943	693.885
270.439	25.674	871.755	693.809
271.453	25.788	871.238	693.779
272.468	25.880	870.231	693.269
273.482	25.999	870.187	693.629
274.497	26.347	869.454	694.322
275.512	25.887	868.680	691.875
276.526	25.360	867.357	688.739
277.541	25.555	866.737	688.932
278.555	25.937	866.583	690.215
279.570	25.745	865.663	688.685
280.585	25.655	865.059	687.800
281.599	25.692	864.630	687.538
282.614	25.763	864.347	687.523
283.628	25.400	863.018	685.022
284.643	25.136	861.815	683.002
285.657	25.425	862.116	684.279
286.672	25.270	861.615	683.231
287.687	24.735	860.452	680.214
288.701	25.026	860.577	681.362
289.716	25.420	860.162	682.469
290.730	25.232	859.002	680.775
291.745	25.077	858.621	679.826
292.760	24.933	857.523	678.349
293.774	24.886	856.687	677.449
294.789	25.900	857.527	681.894
295.803	26.425	857.518	683.811
296.818	26.377	856.895	683.073
297.833	26.537	856.592	683.375
298.847	26.156	855.659	681.132
299.862	25.859	854.689	679.182
300.876	26.150	854.009	679.675
301.891	26.409	853.768	680.401
302.906	26.431	853.363	680.099
303.920	26.162	851.909	677.870
304.935	25.984	851.459	676.786
305.949	26.139	851.812	677.586
306.964	26.368	850.844	677.616
307.979	26.238	849.879	676.301
308.993	25.979	849.847	675.246
310.008	26.504	849.166	676.609
311.022	26.559	849.147	676.737
312.037	26.384	848.747	675.706
313.052	26.130	847.923	674.043
314.066	26.012	846.875	672.711
315.081	25.194	845.712	668.678
316.095	24.592	844.459	665.386
317.110	25.175	844.341	667.406
318.125	25.880	845.182	670.633
319.139	25.512	844.137	668.378
320.154	24.402	842.123	662.604
321.168	24.028	841.480	660.652
322.183	24.631	841.274	662.670
323.197	25.702	841.576	666.820
324.212	26.029	841.364	667.803
325.227	26.034	840.949	667.434
326.241	26.115	840.712	667.485
327.256	26.131	839.962	666.892
328.270	26.139	839.055	666.141
329.285	25.913	838.627	664.909
330.300	25.944	837.643	664.183
331.314	25.727	837.135	662.924
332.329	25.699	836.533	662.282
333.343	26.204	836.096	663.737
334.358	26.323	835.920	663.977
335.373	26.275	835.385	663.314
336.387	26.274	835.223	663.123
337.402	26.564	834.761	663.761
338.416	26.614	834.423	663.616
339.431	26.707	833.536	663.194
340.446	26.863	833.056	663.324
341.460	26.923	833.137	663.549
342.475	26.938	831.841	662.512
343.489	26.630	831.470	661.036
344.504	26.613	830.822	660.398
345.519	26.869	830.448	660.977
346.533	27.071	830.460	661.664
347.548	27.101	829.883	661.256
348.562	27.177	829.543	661.200
349.577	27.118	828.694	660.254
350.592	27.021	828.219	659.463
351.606	27.162	827.634	659.448
352.621	27.172	826.952	658.886
353.635	26.983	826.716	657.952
354.650	26.939	826.007	657.171
355.665	26.563	824.864	654.844
356.679	25.595	823.329	650.071
357.694	25.268	823.345	648.843
358.708	26.034	823.572	651.735
359.723	25.992	822.719	650.849
360.738	26.235	822.207	651.262
361.752	26.589	822.302	652.556
362.767	26.770	821.562	652.565
363.781	26.992	821.623	653.354
364.796	27.456	821.449	654.828
365.810	27.447	821.145	654.494
366.825	27.483	820.661	654.179
367.840	27.425	820.299	653.625
368.854	27.325	819.590	652.644
369.869	26.959	818.783	650.631
370.883	26.608	818.007	648.702
371.898	26.889	817.605	649.330
372.913	26.925	816.806	648.766
373.927	26.861	815.806	647.688
374.942	26.916	815.664	647.714
375.956	26.905	815.566	647.540
376.971	27.077	814.633	647.352
377.986	27.140	814.502	647.416
379.000	27.374	813.876	647.695
380.015	27.405	813.422	647.385
381.029	27.195	812.371	645.747
382.044	27.278	812.137	645.799
383.059	27.292	811.868	645.575
384.073	27.290	811.276	645.042
385.088	27.577	810.862	645.671
386.102	27.428	810.047	644.438
387.117	27.256	809.575	643.399
388.132	27.103	808.915	642.275
389.146	26.994	808.196	641.265
390.161	26.538	807.159	638.773
391.175	26.505	807.002	638.478
392.190	26.933	807.490	640.318
393.205	27.154	806.504	640.256
394.219	26.174	804.634	635.271
395.234	24.563	802.333	627.741
396.248	23.735	801.563	624.174
397.263	24.625	802.520	627.994
398.278	26.496	803.754	635.482
399.292	26.794	804.084	636.732
400.307	26.817	802.932	635.844
401.321	26.557	802.492	634.528
402.336	26.698	802.230	634.761
403.350	26.934	802.037	635.376
404.365	27.396	801.871	636.807
405.380	27.738	801.792	637.884
406.394	28.042	801.589	638.729
407.409	28.294	801.185	639.230
408.423	28.074	800.809	638.104
409.438	28.107	800.015	637.529
410.453	27.893	800.293	636.948
411.467	28.118	799.478	637.030
412.482	28.183	798.752	636.620
413.496	28.129	798.002	635.778
414.511	28.180	797.965	635.869
415.526	27.996	797.838	635.074
416.540	28.050	797.191	634.690
417.555	27.990	796.297	633.711
418.569	27.709	795.730	632.230
419.584	27.849	794.583	631.748
420.599	27.689	795.063	631.520
421.613	109.879	1282.080	1450.696
422.628	94.631	1353.030	1450.785
