DTS Sentinel unit serial number:	SN413079Multiplexer serial number:	ORYXHardware model number:	OX4-SRSoftware version number:	ORYX F/W v4.00 Oryx Data Collector v3.7.2.0data status	okinstallation	princeton_trtdifferential loss correction	single-endedforward channel	channel 3reverse channel	N/Adate	2019/09/12time	18:09:04forward acquisition time	15.00reverse acquisition time	0.00gamma	496.2192k internal	0.2317k external	0.2317temperature offset calibration	1.0093default loss term (dB/km)	0.3790temperature slope calibration	1.0000multiplexer offset coefficient	1.0000multiplexer slope coefficient	1.0000fibre end	0.00T internal ref (°C)	33.62T ext. ref 1 (°C)	3.04T ext. ref 2 (°C)	28.18length (m)	temperature (°C)	Stokes	anti-Stokes-747.200	-165.065	0.338	-0.015
-746.185	-200.000	0.065	0.328
-745.171	-200.000	-0.007	-0.267
-744.156	155.797	0.345	-0.482
-743.142	-200.000	-0.055	-0.265
-742.127	21.748	-0.411	0.339
-741.112	10.705	0.299	0.231
-740.098	-128.177	0.923	0.134
-739.083	266.742	0.302	-0.535
-738.069	-25.482	0.702	-0.420
-737.054	-83.284	-0.405	-0.132
-736.039	12.433	0.668	-0.521
-735.025	36.003	-0.267	0.238
-734.010	387.987	0.141	-0.296
-732.996	-200.000	0.013	-0.085
-731.981	18.053	0.162	0.131
-730.966	-63.333	0.516	-0.215
-729.952	-176.461	0.520	-0.014
-728.937	-200.000	-0.122	-0.737
-727.923	188.168	0.413	-0.625
-726.908	-51.216	-0.317	-0.150
-725.894	800.000	0.160	-0.501
-724.879	18.332	0.664	0.536
-723.864	-158.153	-0.654	0.039
-722.850	90.941	-0.386	0.437
-721.835	-116.972	-0.536	0.099
-720.821	-102.070	0.539	0.131
-719.806	292.648	-0.307	-0.567
-718.791	-200.000	0.038	0.244
-717.777	-107.483	-0.596	0.132
-716.762	-200.000	0.020	0.117
-715.748	800.000	-0.215	-0.629
-714.733	-114.627	-0.101	0.020
-713.718	-43.921	-0.519	-0.264
-712.704	-99.338	-0.146	-0.037
-711.689	800.000	0.057	-0.168
-710.675	-64.167	-0.478	0.197
-709.660	-20.091	-0.367	0.229
-708.645	-120.062	-0.237	0.041
-707.631	-61.285	-0.462	-0.197
-706.616	6.042	-0.659	0.493
-705.602	-200.000	0.070	0.327
-704.587	-56.559	0.655	0.294
-703.572	-81.307	0.565	0.189
-702.558	-47.697	-0.388	0.190
-701.543	99.486	-0.306	0.358
-700.529	-181.320	-0.537	-0.011
-699.514	342.454	0.282	-0.558
-698.499	-82.644	-0.309	0.101
-697.485	-200.000	-0.043	-0.356
-696.470	-111.117	0.864	-0.179
-695.456	63.621	-0.665	-0.674
-694.441	99.756	-0.610	0.714
-693.426	-41.885	0.773	0.401
-692.412	63.362	-0.356	0.361
-691.397	37.220	0.230	0.206
-690.383	268.193	-0.279	0.495
-689.368	800.000	0.058	-0.226
-688.354	-35.781	-0.462	-0.253
-687.339	278.905	-0.474	0.854
-686.324	45.559	0.461	0.430
-685.310	115.348	0.240	0.296
-684.295	131.618	0.713	-0.926
-683.281	-52.297	0.691	-0.323
-682.266	144.642	-0.399	-0.538
-681.251	-16.860	-0.210	0.134
-680.237	-150.699	0.412	0.032
-679.222	-200.000	0.018	0.095
-678.208	533.154	0.256	-0.612
-677.193	-200.000	-0.068	-0.474
-676.178	-200.000	0.035	0.181
-675.164	800.000	-0.177	0.777
-674.149	109.069	0.436	0.526
-673.135	437.337	-0.100	0.221
-672.120	517.136	0.207	-0.488
-671.105	-200.000	0.021	-0.281
-670.091	-200.000	-0.004	0.240
-669.076	-83.334	-0.518	0.168
-668.062	-200.000	-0.033	0.246
-667.047	800.000	0.216	-0.769
-666.032	158.382	-0.583	0.817
-665.018	223.004	-0.167	-0.272
-664.003	168.016	0.366	-0.526
-662.989	327.032	0.239	-0.463
-661.974	97.931	-0.441	-0.512
-660.959	63.773	-0.598	0.607
-659.945	152.229	0.103	-0.142
-658.930	-152.068	-0.202	-0.015
-657.916	26.871	0.803	0.680
-656.901	800.000	0.157	0.448
-655.886	-13.069	0.821	0.539
-654.872	-154.109	-0.577	-0.039
-653.857	800.000	-0.175	-0.584
-652.843	200.585	-0.170	-0.263
-651.828	124.278	-0.069	0.088
-650.814	-32.293	-0.602	0.339
-649.799	-97.667	0.475	0.124
-648.784	-200.000	0.078	-0.821
-647.770	-200.000	-0.115	-0.808
-646.755	-200.000	0.038	-0.368
-645.741	74.746	-0.587	-0.624
-644.726	800.000	0.228	-0.666
-643.711	26.159	-0.703	-0.592
-642.697	108.125	0.261	-0.314
-641.682	343.705	0.133	0.263
-640.668	-200.000	-0.032	-0.750
-639.653	-131.105	-0.639	-0.086
-638.638	-173.274	0.427	0.013
-637.624	800.000	0.079	-0.237
-636.609	198.348	-0.081	-0.125
-635.595	-113.502	-0.366	0.072
-634.580	-129.131	0.465	-0.066
-633.565	-81.726	-0.237	-0.078
-632.551	-69.622	-0.213	-0.082
-631.536	-125.601	0.143	0.022
-630.522	-149.338	-0.508	-0.041
-629.507	-200.000	-0.087	-0.411
-628.492	-144.243	0.817	0.077
-627.478	469.778	-0.240	0.544
-626.463	269.267	0.128	0.226
-625.449	-69.760	-0.669	-0.258
-624.434	-12.537	-1.037	-0.682
-623.419	-149.629	0.424	0.034
-622.405	-200.000	-0.104	-0.588
-621.390	107.210	0.038	0.045
-620.376	-162.384	-0.256	-0.013
-619.361	513.054	-0.077	0.181
-618.346	-77.815	0.416	0.145
-617.332	800.000	-0.103	-0.364
-616.317	-139.059	0.651	-0.071
-615.303	-37.547	1.128	-0.606
-614.288	-122.826	0.665	-0.108
-613.273	-134.213	0.698	0.087
-612.259	-168.870	-0.541	-0.020
-611.244	213.850	0.224	0.357
-610.230	800.000	0.182	-0.765
-609.215	104.469	0.362	-0.430
-608.201	4.891	-0.574	0.425
-607.186	-200.000	-0.111	-0.000
-606.171	-82.971	-0.218	-0.071
-605.157	-166.363	-0.661	0.028
-604.142	-34.497	0.725	-0.400
-603.128	-7.599	-0.358	0.244
-602.113	-43.262	0.690	-0.352
-601.098	70.991	0.288	0.301
-600.084	-200.000	-0.109	-0.732
-599.069	-97.699	0.366	0.095
-598.055	-96.938	0.555	0.147
-597.040	-58.399	0.908	-0.397
-596.025	514.520	0.171	-0.402
-595.011	-200.000	0.144	-0.813
-593.996	-109.671	-0.786	0.167
-592.982	223.193	0.178	-0.289
-591.967	-1.592	0.602	-0.427
-590.952	800.000	-0.135	-0.479
-589.938	-200.000	-0.008	-0.504
-588.923	-200.000	-0.112	-0.892
-587.909	-200.000	-0.099	0.718
-586.894	-92.694	1.025	0.289
-585.879	-200.000	0.080	-0.364
-584.865	25.833	-0.431	0.362
-583.850	42.961	-0.649	-0.595
-582.836	145.786	-0.892	1.202
-581.821	-107.256	-0.743	0.165
-580.806	-200.000	0.015	-0.459
-579.792	482.390	-0.195	0.446
-578.777	-37.912	-0.222	-0.118
-577.763	-200.000	0.055	0.328
-576.748	224.548	-0.362	-0.589
-575.733	7.018	-0.450	-0.338
-574.719	603.291	0.176	0.441
-573.704	-145.846	0.214	-0.019
-572.690	184.724	-0.200	-0.297
-571.675	-31.032	-0.507	-0.288
-570.661	-60.486	0.517	0.221
-569.646	-82.521	-0.260	0.085
-568.631	2.739	0.315	-0.230
-567.617	-134.763	-1.016	0.124
-566.602	-200.000	-0.139	-1.011
-565.588	800.000	-0.128	-0.541
-564.573	-167.738	0.743	0.030
-563.558	-200.000	-0.147	0.647
-562.544	-2.489	0.099	0.070
-561.529	-158.557	-0.328	-0.019
-560.515	326.224	-0.510	0.982
-559.500	800.000	0.119	-0.373
-558.485	329.301	0.223	-0.430
-557.471	-118.316	0.604	0.108
-556.456	-200.000	-0.029	-0.437
-555.442	-118.109	0.802	0.144
-554.427	-200.000	-0.003	0.947
-553.412	-179.248	-1.159	-0.026
-552.398	-200.000	-0.088	0.989
-551.383	-8.319	0.376	0.254
-550.369	-200.000	-0.027	1.032
-549.354	13.063	-0.310	-0.241
-548.339	76.168	0.580	-0.617
-547.325	376.846	0.259	0.531
-546.310	-41.397	0.403	-0.209
-545.296	-200.000	-0.124	0.729
-544.281	-164.028	-0.669	0.031
-543.266	-198.397	-1.049	0.006
-542.252	-65.247	1.039	-0.420
-541.237	108.932	0.365	0.438
-540.223	397.656	0.171	-0.359
-539.208	-200.000	-0.066	-0.569
-538.193	27.630	-0.359	0.303
-537.179	103.154	-0.397	-0.468
-536.164	-163.189	0.452	-0.022
-535.150	-78.134	0.354	0.122
-534.135	-172.165	0.713	-0.023
-533.121	-111.906	-0.324	0.066
-532.106	-89.097	-0.378	0.112
-531.091	-200.000	-0.019	-0.226
-530.077	56.165	-0.304	0.297
-529.062	-46.966	0.409	-0.201
-528.048	296.518	0.687	1.266
-527.033	77.422	-0.714	0.763
-526.018	54.011	0.417	0.402
-525.004	330.923	-0.376	0.728
-523.989	-200.000	-0.146	0.935
-522.975	-200.000	0.039	-0.677
-521.960	-44.314	0.581	-0.292
-520.945	800.000	-0.114	0.460
-519.931	-26.297	-0.225	-0.133
-518.916	-146.468	-0.447	-0.039
-517.902	800.000	-0.180	0.539
-516.887	-46.036	-0.462	0.228
-515.872	-200.000	0.091	-0.511
-514.858	-140.673	0.419	0.043
-513.843	-200.000	-0.080	-0.540
-512.829	-200.000	0.061	-0.359
-511.814	-140.621	0.457	0.048
-510.799	-60.741	-1.326	-0.564
-509.785	-200.000	-0.030	-0.283
-508.770	-128.003	0.463	-0.067
-507.756	-134.557	-0.693	0.085
-506.741	-67.528	0.649	0.255
-505.726	-200.000	0.011	0.443
-504.712	800.000	0.127	-0.359
-503.697	69.623	-0.427	-0.441
-502.683	52.945	-0.760	-0.730
-501.668	-38.437	0.532	0.282
-500.653	-99.574	-0.608	0.153
-499.639	0.996	0.534	0.384
-498.624	800.000	-0.303	-0.878
-497.610	631.021	-0.096	-0.244
-496.595	144.424	-0.430	0.576
-495.581	-96.146	0.426	0.113
-494.566	306.822	-0.183	0.342
-493.551	-67.219	-0.680	-0.268
-492.537	-10.828	-0.410	0.272
-491.522	-200.000	0.013	0.463
-490.508	-101.180	-0.509	0.125
-489.493	-61.538	0.521	-0.219
-488.478	555.905	0.009	-0.022
-487.464	-41.753	0.384	0.197
-486.449	-104.471	0.166	-0.039
-485.435	-200.000	0.019	-0.143
-484.420	307.837	-0.078	-0.146
-483.405	-72.104	0.135	-0.050
-482.391	265.392	0.707	1.236
-481.376	800.000	-0.428	1.371
-480.362	-200.000	-0.046	1.065
-479.347	-21.256	-0.655	0.401
-478.332	-79.929	-0.314	0.106
-477.318	800.000	-0.123	0.361
-476.303	800.000	0.160	0.623
-475.289	87.360	0.386	0.427
-474.274	-200.000	-0.096	0.510
-473.259	35.976	0.581	0.512
-472.245	-8.847	-0.735	-0.493
-471.230	-98.191	0.834	-0.215
-470.216	-131.665	-0.428	-0.056
-469.201	800.000	0.223	0.913
-468.186	-46.999	-0.420	-0.206
-467.172	-126.959	-0.508	-0.075
-466.157	-60.437	0.442	0.188
-465.143	-200.000	0.155	0.744
-464.128	-56.609	0.165	-0.073
-463.113	-76.892	0.272	0.095
-462.099	6.970	0.409	-0.305
-461.084	-200.000	-0.040	0.766
-460.070	-60.234	0.785	-0.335
-459.055	-150.552	-0.437	0.033
-458.040	-200.000	-0.102	-0.732
-457.026	298.022	0.160	-0.294
-456.011	355.352	0.295	-0.587
-454.997	-16.899	-0.585	0.370
-453.982	117.878	0.558	0.688
-452.968	-119.363	-0.282	-0.049
-451.953	-60.100	-0.236	-0.101
-450.938	-200.000	0.158	1.206
-449.924	18.496	-0.544	-0.436
-448.909	177.087	0.447	-0.651
-447.895	800.000	0.060	0.214
-446.880	-14.861	0.670	0.430
-445.865	-124.217	-1.272	0.199
-444.851	-129.701	0.498	0.069
-443.836	359.703	0.097	0.195
-442.822	212.346	0.223	0.352
-441.807	-92.228	-0.231	-0.065
-440.792	96.161	0.272	-0.311
-439.778	-140.504	-0.599	0.062
-438.763	800.000	0.364	-1.012
-437.749	-169.517	1.235	-0.045
-436.734	186.083	0.238	0.354
-435.719	800.000	-0.033	0.114
-434.705	-132.987	0.762	0.097
-433.690	11.222	-0.079	-0.060
-432.676	571.272	-0.125	0.306
-431.661	-103.169	-0.781	-0.185
-430.646	422.340	-0.185	-0.397
-429.632	800.000	0.191	-0.617
-428.617	184.084	-0.251	0.372
-427.603	77.679	0.414	0.441
-426.588	-35.076	0.355	-0.193
-425.573	218.866	0.256	0.409
-424.559	63.874	0.535	0.538
-423.544	-45.354	0.447	0.222
-422.530	-200.000	0.091	-0.482
-421.515	466.959	-0.238	-0.534
-420.500	690.446	-0.242	-0.634
-419.486	65.979	-0.189	-0.192
-418.471	-200.000	-0.158	-0.850
-417.457	-26.135	0.837	0.492
-416.442	154.581	0.099	0.136
-415.428	-123.316	-0.394	0.063
-414.413	-0.716	0.214	0.152
-413.398	800.000	-0.279	-0.798
-412.384	-200.000	0.109	-0.564
-411.369	-200.000	0.189	-0.841
-410.355	-26.154	-0.562	-0.330
-409.340	-200.000	0.003	-0.578
-408.325	-3.246	-0.613	-0.427
-407.311	44.551	-0.338	0.310
-406.296	-50.858	0.162	-0.076
-405.282	186.318	0.460	-0.685
-404.267	22.145	-0.271	-0.221
-403.252	5.403	-0.725	0.534
-402.238	800.000	0.254	0.805
-401.223	-52.167	1.054	-0.489
-400.209	-46.515	-0.736	-0.361
-399.194	-102.297	1.204	-0.289
-398.179	-200.000	-0.026	0.202
-397.165	64.000	-0.183	0.184
-396.150	-14.162	0.330	-0.213
-395.136	-200.000	-0.132	-0.906
-394.121	-30.109	0.876	-0.498
-393.106	-103.135	-0.028	-0.007
-392.092	-114.088	0.858	-0.166
-391.077	167.819	0.374	0.531
-390.063	168.001	-0.246	-0.350
-389.048	-46.518	0.373	0.183
-388.033	211.313	-0.359	-0.565
-387.019	-81.625	0.862	0.283
-386.004	-144.419	-0.738	-0.068
-384.990	-200.000	-0.050	-0.803
-383.975	-101.513	-0.217	0.053
-382.960	174.615	-0.158	-0.228
-381.946	-27.380	0.659	0.383
-380.931	-56.980	-0.300	0.132
-379.917	142.314	0.044	-0.058
-378.902	800.000	-0.013	-0.055
-377.888	374.207	0.412	0.837
-376.873	-200.000	-0.029	-0.151
-375.858	-200.000	-0.030	-0.642
-374.844	90.058	0.237	-0.264
-373.829	-32.214	0.556	0.310
-372.815	493.968	0.229	-0.524
-371.800	-72.512	-0.748	-0.276
-370.785	-200.000	-0.062	0.369
-369.771	-200.000	-0.235	-1.126
-368.756	-79.184	-1.183	-0.400
-367.742	67.925	0.127	0.130
-366.727	-110.099	0.588	-0.123
-365.712	-200.000	0.134	0.962
-364.698	125.512	-0.289	0.364
-363.683	335.334	0.065	-0.125
-362.669	800.000	-0.154	-0.456
-361.654	251.633	-0.202	-0.343
-360.639	-200.000	0.057	0.569
-359.625	116.296	-0.024	0.029
-358.610	-76.040	0.058	0.021
-357.596	-200.000	-0.001	0.531
-356.581	206.000	0.465	-0.722
-355.566	800.000	0.053	0.223
-354.552	-72.804	0.852	0.313
-353.537	96.385	0.343	-0.392
-352.523	-72.682	-0.839	-0.309
-351.508	-200.000	0.085	0.606
-350.493	-48.559	0.733	0.352
-349.479	-44.661	0.199	-0.099
-348.464	-57.454	-0.450	-0.197
-347.450	-70.469	1.232	-0.465
-346.435	-200.000	0.091	-0.421
-345.420	83.368	0.210	-0.228
-344.406	97.726	0.198	-0.227
-343.391	-168.077	0.886	-0.034
-342.377	0.006	0.041	-0.029
-341.362	-125.001	-0.163	0.025
-340.348	800.000	0.252	0.777
-339.333	-200.000	-0.013	-0.216
-338.318	-151.347	0.363	0.027
-337.304	-15.471	0.278	-0.177
-336.289	-200.000	0.025	0.898
-335.275	-13.743	0.375	-0.242
-334.260	-51.121	-0.690	0.322
-333.245	-200.000	0.066	0.726
-332.231	199.585	0.316	0.483
-331.216	-116.105	0.307	0.057
-330.202	-75.311	-0.653	-0.232
-329.187	-54.523	-0.089	0.040
-328.172	-200.000	0.039	0.424
-327.158	270.089	0.071	-0.124
-326.143	-100.700	0.328	-0.080
-325.129	3.108	-0.752	0.545
-324.114	-54.022	-0.193	0.087
-323.099	-200.000	0.007	0.403
-322.085	280.422	0.191	-0.340
-321.070	58.443	-0.183	-0.179
-320.056	6.195	-0.491	-0.362
-319.041	-126.239	0.574	-0.086
-318.026	694.752	0.067	0.175
-317.012	471.001	0.019	-0.042
-315.997	-103.128	0.537	0.127
-314.983	120.512	-0.212	0.262
-313.968	289.150	-0.597	1.078
-312.953	-101.317	-1.716	0.417
-311.939	66.317	-0.729	0.737
-310.924	-40.678	1.113	-0.574
-309.910	-32.186	0.690	-0.384
-308.895	-200.000	-0.071	-0.877
-307.880	-85.948	0.558	-0.172
-306.866	800.000	-0.079	0.278
-305.851	-200.000	-0.070	-0.641
-304.837	0.235	-0.560	0.398
-303.822	800.000	0.046	0.192
-302.807	212.114	-0.371	-0.582
-301.793	-3.289	0.289	-0.201
-300.778	226.357	-0.517	-0.835
-299.764	188.858	0.137	-0.204
-298.749	-190.164	0.674	-0.007
-297.735	-200.000	0.014	-0.735
-296.720	-31.139	-0.227	-0.128
-295.705	87.528	0.233	-0.257
-294.691	-200.000	-0.044	0.353
-293.676	-124.842	0.271	0.042
-292.662	-131.018	-0.296	0.039
-291.647	-155.794	-0.539	0.034
-290.632	-113.196	0.466	-0.091
-289.618	241.816	0.262	0.436
-288.603	196.824	0.296	0.449
-287.589	-200.000	-0.031	0.340
-286.574	578.628	0.101	-0.245
-285.559	-148.338	-0.646	-0.053
-284.545	-200.000	-0.076	-0.343
-283.530	-132.702	0.073	0.009
-282.516	-58.355	0.359	-0.155
-281.501	-30.874	-0.291	0.164
-280.486	-51.197	0.269	-0.125
-279.472	17.826	-0.754	0.597
-278.457	381.850	0.139	0.285
-277.443	800.000	-0.064	0.272
-276.428	-200.000	-0.044	-0.230
-275.413	-200.000	-0.048	-0.321
-274.399	160.274	0.363	-0.503
-273.384	-107.339	0.669	0.146
-272.370	-200.000	-0.213	-0.930
-271.355	45.536	-0.746	0.684
-270.340	800.000	-0.177	0.500
-269.326	-200.000	0.100	-0.925
-268.311	-163.747	0.484	-0.023
-267.297	570.828	-0.110	0.265
-266.282	132.816	-0.506	-0.649
-265.267	12.771	0.412	-0.316
-264.253	-87.177	-0.498	0.151
-263.238	92.966	0.430	0.482
-262.224	650.154	-0.147	0.375
-261.209	-200.000	0.080	0.437
-260.195	-165.881	0.715	-0.030
-259.180	800.000	0.169	0.524
-258.165	-101.247	-0.332	-0.081
-257.151	54.620	0.437	0.418
-256.136	-34.257	0.452	-0.246
-255.122	800.000	-0.160	0.483
-254.107	-80.571	-1.013	-0.335
-253.092	48.506	0.496	-0.461
-252.078	-200.000	0.050	0.442
-251.063	800.000	0.290	1.203
-250.049	255.781	0.626	1.066
-249.034	-200.000	0.194	1.083
-248.019	-71.659	-1.133	0.420
-247.005	38.498	0.934	-0.827
-245.990	-45.811	-0.342	0.168
-244.976	126.676	-0.304	-0.383
-243.961	-50.612	-1.157	0.542
-242.946	800.000	0.202	0.725
-241.932	302.598	-0.636	1.169
-240.917	131.405	-0.178	0.227
-239.903	800.000	-0.097	-0.398
-238.888	-49.690	-0.313	-0.148
-237.873	344.198	0.404	-0.786
-236.859	323.292	-0.412	0.781
-235.844	-64.400	0.568	0.229
-234.830	-10.638	0.637	-0.419
-233.815	-81.370	-0.396	0.130
-232.800	-85.195	0.386	-0.120
-231.786	152.688	-0.408	-0.554
-230.771	208.532	-0.351	-0.545
-229.757	-2.194	-0.546	-0.380
-228.742	289.247	0.503	0.905
-227.727	800.000	-0.136	-0.497
-226.713	-78.174	-0.554	-0.189
-225.698	-123.986	-0.218	-0.034
-224.684	-11.343	-0.356	-0.233
-223.669	200.139	-0.220	0.335
-222.655	755.124	-0.065	-0.174
-221.640	44.733	0.329	0.300
-220.625	-200.000	-0.244	1.142
-219.611	-200.000	0.151	0.885
-218.596	11.979	-0.810	-0.618
-217.582	800.000	-0.125	-0.418
-216.567	536.905	-0.224	-0.527
-215.552	-125.984	-0.239	0.036
-214.538	-200.000	-0.004	0.284
-213.523	-200.000	-0.022	-0.352
-212.509	-68.404	-0.393	-0.151
-211.494	-7.182	-0.220	0.148
-210.479	-200.000	-0.162	-0.974
-209.465	609.010	-0.544	-1.346
-208.450	-138.168	0.722	-0.079
-207.436	134.232	-0.115	-0.148
-206.421	-59.523	-1.245	-0.530
-205.406	497.245	-0.072	-0.164
-204.392	800.000	-0.228	0.690
-203.377	-200.000	0.031	1.003
-202.363	-200.000	0.021	0.496
-201.348	-200.000	0.006	-0.698
-200.333	126.738	-0.493	0.619
-199.319	-46.228	-0.892	0.435
-198.304	509.457	-0.046	0.106
-197.290	195.140	-0.417	-0.628
-196.275	-115.866	1.282	0.237
-195.260	-42.391	-0.520	0.263
-194.246	225.395	-0.497	0.798
-193.231	-165.550	0.544	0.023
-192.217	-67.226	0.230	-0.090
-191.202	800.000	0.056	0.206
-190.187	-48.647	0.966	-0.460
-189.173	-200.000	-0.030	-0.808
-188.158	453.223	0.148	-0.325
-187.144	427.717	-0.518	1.107
-186.129	-79.291	0.557	-0.187
-185.114	800.000	-0.101	0.395
-184.100	-71.245	-0.752	0.279
-183.085	222.711	-0.143	0.228
-182.071	-161.649	1.013	0.051
-181.056	34.068	-0.765	0.660
-180.042	800.000	0.129	0.532
-179.027	-151.300	-0.897	0.066
-178.012	8.242	0.547	-0.407
-176.998	-200.000	0.039	-1.140
-175.983	-87.598	0.659	-0.197
-174.969	471.021	-0.232	0.516
-173.954	160.869	0.766	1.060
-172.939	278.877	-0.170	0.301
-171.925	-200.000	0.009	0.408
-170.910	14.037	-0.482	0.371
-169.896	457.505	-0.177	-0.390
-168.881	800.000	-0.172	-0.498
-167.866	131.621	0.098	-0.125
-166.852	122.264	0.191	0.236
-165.837	173.980	0.373	0.533
-164.823	-113.814	-0.665	-0.128
-163.808	-200.000	0.067	0.459
-162.793	269.708	-0.262	-0.455
-161.779	-86.736	-0.312	0.095
-160.764	-56.426	0.266	0.117
-159.750	800.000	-0.216	0.789
-158.735	95.393	0.583	-0.657
-157.720	374.685	-0.164	0.330
-156.706	800.000	-0.143	-0.524
-155.691	59.417	0.305	-0.297
-154.677	800.000	0.039	-0.155
-153.662	447.989	0.128	-0.280
-152.647	78.336	-0.273	0.289
-151.633	-200.000	-0.027	-0.131
-150.618	214.373	0.123	-0.193
-149.604	-33.321	0.491	0.269
-148.589	80.895	0.129	0.138
-147.574	-90.300	0.238	0.068
-146.560	-19.670	-0.802	0.491
-145.545	-200.000	-0.042	0.201
-144.531	800.000	0.077	0.293
-143.516	-7.971	1.196	-0.798
-142.502	-3.238	0.482	-0.332
-141.487	-200.000	0.092	-0.521
-140.472	-200.000	-0.038	-0.187
-139.458	800.000	-0.299	0.894
-138.443	800.000	-0.222	0.955
-137.429	-41.567	0.327	-0.166
-136.414	372.038	0.475	-0.953
-135.399	-71.066	-0.397	0.148
-134.385	-200.000	-0.084	-0.856
-133.370	326.813	0.284	-0.539
-132.356	-21.589	0.477	0.287
-131.341	800.000	-0.152	-0.596
-130.326	-174.533	-0.418	-0.012
-129.312	232.053	0.136	0.221
-128.297	195.627	0.134	-0.201
-127.283	-109.336	-0.581	0.122
-126.268	59.503	-0.413	-0.403
-125.253	-200.000	-0.102	0.619
-124.239	36.846	-0.433	0.378
-123.224	247.539	-0.406	-0.678
-122.210	-140.472	0.245	-0.025
-121.195	-115.862	0.061	0.011
-120.180	22.247	0.097	0.078
-119.166	-145.458	-0.198	-0.018
-118.151	-42.833	0.662	0.332
-117.137	93.542	-0.243	0.272
-116.122	109.804	-0.228	0.270
-115.107	-200.000	0.004	0.419
-114.093	30.780	0.656	-0.555
-113.078	-61.121	-0.174	0.073
-112.064	-200.000	0.011	0.270
-111.049	800.000	0.162	0.621
-110.034	-81.391	-0.725	-0.236
-109.020	-200.000	-0.004	-0.212
-108.005	-200.000	-0.041	-0.451
-106.991	-86.205	-0.383	-0.117
-105.976	117.027	0.026	-0.032
-104.962	12.891	0.107	0.082
-103.947	4.069	0.205	-0.148
-102.932	-200.000	0.015	0.119
-101.918	-159.472	-0.989	-0.054
-100.903	126.837	0.454	-0.568
-99.889	101.130	0.113	-0.130
-98.874	-52.237	-0.340	-0.156
-97.859	-162.608	-0.148	0.007
-96.845	-87.366	0.341	0.102
-95.830	800.000	-0.193	-0.612
-94.816	-200.000	-0.074	-0.537
-93.801	-200.000	-0.023	0.720
-92.786	800.000	-0.175	0.630
-91.772	-166.927	0.958	-0.039
-90.757	54.373	-0.241	-0.230
-89.743	-200.000	0.020	-0.578
-88.728	-140.522	-1.182	0.121
-87.713	-133.150	0.161	0.020
-86.699	245.716	0.276	0.459
-85.684	-137.946	0.541	-0.060
-84.670	-127.283	0.289	0.042
-83.655	-195.594	-0.924	-0.007
-82.640	410.107	0.212	-0.443
-81.626	800.000	-0.138	0.567
-80.611	-108.966	0.098	0.021
-79.597	241.981	0.476	-0.785
-78.582	-140.962	-0.789	0.080
-77.567	287.759	0.306	0.547
-76.553	146.694	0.253	0.335
-75.538	51.362	-0.362	0.339
-74.524	-107.645	-0.622	0.134
-73.509	800.000	-0.060	0.249
-72.494	0.073	0.486	0.342
-71.480	-43.729	-0.676	-0.336
-70.465	-200.000	-0.017	0.583
-69.451	-94.050	-0.530	0.143
-68.436	-200.000	-0.017	-0.289
-67.422	800.000	0.031	0.106
-66.407	-73.375	0.831	0.299
-65.392	-200.000	-0.065	-0.336
-64.378	-56.997	0.554	-0.241
-63.363	744.669	-0.143	0.380
-62.349	20.599	-0.602	0.480
-61.334	173.119	-0.628	-0.892
-60.319	-79.515	0.521	-0.174
-59.305	800.000	-0.144	-0.615
-58.290	800.000	-0.229	0.789
-57.276	-200.000	-0.055	1.270
-56.261	-200.000	96.184	577.891
-55.246	635.411	1378.113	3447.072
-54.232	197.479	2551.243	3838.707
-53.217	116.507	2153.514	2602.609
-52.203	43.988	1700.485	1535.850
-51.188	36.859	1515.023	1319.932
-50.173	34.378	1488.882	1280.467
-49.159	55.065	1540.387	1466.522
-48.144	56.101	1556.904	1489.254
-47.130	37.003	1515.840	1321.416
-46.115	33.849	1499.960	1286.204
-45.100	33.910	1497.150	1284.158
-44.086	33.746	1495.393	1281.494
-43.071	33.727	1494.781	1280.790
-42.057	33.710	1492.220	1278.432
-41.042	33.571	1489.945	1275.493
-40.027	33.724	1489.930	1276.459
-39.013	33.420	1489.198	1273.738
-37.998	33.857	1487.074	1274.804
-36.984	33.516	1486.650	1272.104
-35.969	33.714	1484.395	1271.447
-34.954	33.589	1483.853	1270.097
-33.940	33.566	1481.244	1267.658
-32.925	33.868	1480.290	1268.811
-31.911	33.658	1479.450	1266.635
-30.896	33.779	1477.607	1265.813
-29.881	33.707	1475.764	1263.708
-28.867	33.485	1475.468	1261.928
-27.852	33.507	1474.240	1260.974
-26.838	33.678	1471.040	1259.319
-25.823	33.561	1472.137	1259.429
-24.809	33.738	1468.417	1257.372
-23.794	33.845	1467.572	1257.308
-22.779	33.738	1466.770	1255.863
-21.765	33.759	1464.966	1254.404
-20.750	33.707	1463.409	1252.677
-19.736	33.723	1462.907	1252.309
-18.721	33.439	1462.936	1250.405
-17.706	33.737	1460.269	1250.042
-16.692	33.780	1460.356	1250.352
-15.677	33.622	1459.460	1248.494
-14.663	33.552	1457.809	1246.569
-13.648	33.646	1457.211	1246.630
-12.633	33.641	1456.407	1245.857
-11.619	33.500	1455.446	1244.062
-10.604	33.690	1454.561	1244.498
-9.590	33.491	1454.311	1242.934
-8.575	33.509	1453.325	1242.158
-7.560	33.401	1453.174	1241.269
-6.546	33.523	1451.926	1240.953
-5.531	33.550	1450.770	1240.094
-4.517	33.588	1449.502	1239.208
-3.502	33.674	1448.579	1238.935
-2.487	33.560	1448.376	1237.967
-1.473	33.557	1447.064	1236.773
-0.458	33.806	1444.576	1236.224
0.556	34.717	1434.793	1224.160
1.571	31.315	1410.514	1181.856
2.586	27.672	1349.729	1108.729
3.600	25.646	1269.266	1030.945
4.615	24.288	1223.667	986.310
5.629	20.398	1167.528	920.405
6.644	11.621	1081.199	809.003
7.659	4.329	1040.519	743.652
8.673	3.369	1034.652	734.814
9.688	3.153	1031.261	731.317
10.702	2.808	1029.414	728.305
11.717	2.832	1027.395	726.927
12.731	5.890	1031.946	744.609
13.746	15.128	1045.928	798.885
14.761	23.690	1053.786	845.782
15.775	26.215	1056.500	859.924
16.790	26.476	1057.023	861.521
17.804	26.343	1055.943	859.930
18.819	25.891	1055.687	857.493
19.834	26.251	1054.277	857.984
20.848	26.526	1054.773	859.619
21.863	26.685	1053.984	859.655
22.877	26.532	1053.297	858.289
23.892	26.366	1053.615	857.687
24.907	26.228	1052.054	855.685
25.921	26.219	1051.413	855.048
26.936	26.027	1050.901	853.645
27.950	26.150	1050.130	853.526
28.965	26.461	1048.045	853.224
29.980	26.462	1046.447	851.851
30.994	26.282	1047.177	851.524
32.009	25.991	1046.795	849.766
33.023	26.495	1045.274	850.826
34.038	26.186	1044.216	848.436
35.053	26.359	1043.487	848.581
36.067	26.153	1042.642	846.853
37.082	26.798	1040.426	847.999
38.096	26.313	1041.402	846.448
39.111	27.014	1039.286	847.928
40.126	26.752	1039.568	846.858
41.140	26.723	1038.579	845.843
42.155	26.097	1037.275	841.786
43.169	26.161	1035.236	840.355
44.184	26.018	1034.961	839.393
45.199	26.020	1034.166	838.683
46.213	26.270	1032.389	838.329
47.228	26.104	1031.941	837.120
48.242	26.435	1030.589	837.483
49.257	26.288	1031.371	837.363
50.271	26.443	1029.683	836.636
51.286	26.482	1029.828	836.858
52.301	26.484	1028.743	835.914
53.315	26.478	1028.616	835.708
54.330	26.633	1026.762	834.842
55.344	26.628	1025.808	833.970
56.359	26.379	1025.070	832.152
57.374	26.404	1025.035	832.162
58.388	26.136	1024.371	830.319
59.403	26.218	1023.035	829.539
60.417	26.106	1022.620	828.615
61.432	26.093	1021.402	827.491
62.447	26.155	1022.047	828.228
63.461	26.099	1020.943	827.003
64.476	26.232	1019.319	826.223
65.490	26.187	1019.029	825.708
66.505	26.036	1018.874	824.820
67.520	25.930	1017.234	822.936
68.534	26.202	1016.402	823.431
69.549	25.967	1015.980	821.943
70.563	25.821	1013.930	819.547
71.578	26.046	1013.660	820.281
72.593	25.769	1012.266	817.821
73.607	25.500	1012.354	816.598
74.622	25.395	1011.298	815.199
75.636	25.615	1011.016	815.896
76.651	25.916	1009.873	816.265
77.666	25.824	1008.711	814.837
78.680	25.729	1008.421	814.103
79.695	25.856	1007.479	813.844
80.709	26.067	1006.253	813.732
81.724	26.026	1005.598	812.947
82.739	26.165	1004.545	812.651
83.753	26.142	1004.400	812.354
84.768	26.145	1004.209	812.142
85.782	26.552	1003.339	813.197
86.797	26.776	1002.216	813.218
87.812	26.578	1001.640	811.792
88.826	26.686	1000.318	811.131
89.841	26.196	1000.293	808.845
90.855	26.528	999.598	809.698
91.870	27.072	997.726	810.539
92.884	26.596	997.815	808.414
93.899	26.629	996.556	807.470
94.914	26.409	995.224	805.341
95.928	26.657	995.075	806.253
96.943	26.687	994.757	806.057
97.957	26.298	993.190	802.986
98.972	26.097	991.768	800.874
99.987	25.929	990.727	799.218
101.001	26.221	990.224	800.037
102.016	26.406	989.961	800.570
103.030	26.622	988.152	799.992
104.045	26.532	987.931	799.347
105.060	26.440	987.868	798.816
106.074	25.735	986.357	794.415
107.089	26.162	985.382	795.442
108.103	26.289	985.606	796.110
109.118	26.477	983.794	795.405
110.133	26.381	982.204	793.625
111.147	26.042	981.932	791.847
112.162	25.914	981.234	790.654
113.176	25.805	980.515	789.528
114.191	26.035	979.224	789.426
115.206	26.210	977.916	789.067
116.220	25.709	976.952	786.029
117.235	25.342	976.731	784.180
118.249	25.736	975.888	785.151
119.264	25.926	974.425	784.735
120.279	25.513	974.064	782.574
121.293	25.635	973.903	782.910
122.308	25.827	973.329	783.214
123.322	25.786	971.257	781.300
124.337	25.445	971.640	780.058
125.352	25.739	969.532	779.567
126.366	25.326	967.775	776.300
127.381	24.750	967.207	773.287
128.395	25.187	967.295	775.179
129.410	26.064	966.177	777.999
130.424	26.313	965.675	778.596
131.439	26.379	964.478	777.846
132.454	26.166	963.413	776.002
133.468	26.085	963.554	775.702
134.483	26.237	962.887	775.749
135.497	26.456	961.385	775.408
136.512	26.503	960.474	774.807
137.527	26.181	961.034	773.812
138.541	26.181	959.305	772.351
139.556	26.715	957.797	773.345
140.570	26.568	957.453	772.372
141.585	26.358	958.386	772.161
142.600	26.757	957.212	772.847
143.614	26.612	955.314	770.628
144.629	26.691	954.324	770.101
145.643	26.783	954.999	770.965
146.658	27.052	952.749	770.223
147.673	26.323	952.074	766.519
148.687	26.365	951.027	765.786
149.702	26.142	950.408	764.274
150.716	26.173	949.401	763.529
151.731	26.052	948.247	762.021
152.746	26.295	947.310	762.229
153.760	26.472	946.934	762.606
154.775	26.611	945.802	762.210
155.789	26.359	945.882	761.145
156.804	26.675	944.301	761.136
157.819	26.609	943.662	760.276
158.833	26.530	942.742	759.137
159.848	26.796	941.630	759.285
160.862	26.933	941.441	759.642
161.877	26.711	940.089	757.556
162.892	26.701	939.907	757.301
163.906	26.809	938.357	756.433
164.921	26.487	939.006	755.545
165.935	26.508	936.816	753.805
166.950	26.759	935.762	753.935
167.964	26.500	935.886	752.890
168.979	26.430	933.605	750.696
169.994	26.629	932.586	750.637
171.008	26.583	931.835	749.775
172.023	26.528	931.809	749.458
173.037	27.037	930.305	750.286
174.052	26.739	928.976	747.919
175.067	26.296	928.423	745.582
176.081	26.512	927.778	745.887
177.096	26.462	926.519	744.605
178.110	26.437	926.306	744.263
179.125	26.147	925.801	742.600
180.140	25.895	924.899	740.773
181.154	26.019	924.225	740.676
182.169	26.159	923.674	740.747
183.183	26.384	923.157	741.188
184.198	26.882	922.294	742.470
185.213	26.618	921.705	740.848
186.227	26.469	921.358	739.895
187.242	26.742	920.035	739.881
188.256	26.771	919.250	739.304
189.271	26.762	920.295	740.043
190.286	27.009	918.191	739.289
191.300	26.600	916.698	736.358
192.315	26.153	915.911	733.847
193.329	25.306	914.237	729.000
194.344	24.958	913.798	727.173
195.359	25.292	914.265	728.839
196.373	26.033	915.041	732.403
197.388	26.827	913.611	734.409
198.402	26.400	913.804	732.770
199.417	26.150	914.290	732.082
200.432	26.710	912.229	732.629
201.446	26.465	911.020	730.608
202.461	26.283	911.086	729.859
203.475	25.830	911.656	728.422
204.490	25.854	908.995	726.327
205.504	24.795	907.237	720.595
206.519	24.923	907.118	720.952
207.534	26.173	906.706	725.585
208.548	26.143	906.741	725.429
209.563	26.757	906.546	727.674
210.577	26.764	905.540	726.830
211.592	26.146	904.547	723.496
212.607	26.499	905.406	725.532
213.621	26.670	904.541	725.461
214.636	26.801	903.917	725.419
215.650	27.034	902.949	725.509
216.665	26.701	902.911	724.084
217.680	26.562	901.794	722.570
218.694	26.937	901.491	723.759
219.709	26.642	900.814	721.976
220.723	26.150	900.302	719.541
221.738	25.926	900.107	718.431
222.753	26.524	898.685	719.612
223.767	26.532	897.474	718.609
224.782	26.722	897.088	718.990
225.796	26.556	897.025	718.216
226.811	26.748	896.909	718.821
227.826	26.130	896.555	716.025
228.840	25.669	894.083	712.164
229.855	25.533	892.602	710.384
230.869	25.786	892.298	711.077
231.884	25.641	892.258	710.411
232.899	25.471	891.487	709.061
233.913	26.063	892.455	712.105
234.928	26.648	890.904	713.108
235.942	26.152	890.750	710.970
236.957	26.561	889.618	711.613
237.972	26.112	888.599	708.971
238.986	25.826	888.228	707.490
240.001	26.148	888.140	708.621
241.015	26.307	887.144	708.386
242.030	26.172	887.247	707.878
243.045	26.388	886.084	707.733
244.059	26.779	884.570	707.987
245.074	26.511	885.319	707.478
246.088	26.749	883.318	706.742
247.103	26.601	882.670	705.586
248.117	26.335	883.073	704.806
249.132	26.888	883.875	707.542
250.147	26.775	884.175	707.280
251.161	27.224	882.907	707.952
252.176	27.511	882.560	708.726
253.190	27.554	881.841	708.255
254.205	27.420	881.144	707.113
255.220	27.784	880.119	707.637
256.234	27.613	880.413	707.148
257.249	27.765	879.014	706.550
258.263	27.077	879.647	704.332
259.278	27.153	877.931	703.189
260.293	27.546	876.641	703.612
261.307	27.030	877.476	702.225
262.322	27.360	876.915	702.989
263.336	27.660	874.898	702.463
264.351	27.074	874.572	699.886
265.366	25.773	872.956	693.524
266.380	25.345	872.454	691.413
267.395	26.281	871.828	694.455
268.409	27.275	872.082	698.416
269.424	27.222	871.547	697.724
270.439	27.398	869.997	697.093
271.453	27.114	870.697	696.506
272.468	27.143	870.185	696.145
273.482	27.366	869.556	696.433
274.497	27.324	869.151	695.885
275.512	27.451	868.029	695.411
276.526	26.789	866.778	691.821
277.541	27.242	865.698	692.626
278.555	27.317	865.990	693.083
279.570	27.082	865.385	691.642
280.585	27.387	863.939	691.584
281.599	27.058	864.756	690.925
282.614	27.285	863.901	691.043
283.628	26.403	863.155	687.037
284.643	26.128	862.323	685.272
285.657	26.443	862.595	686.622
286.672	26.349	861.784	685.561
287.687	25.969	860.977	683.416
288.701	26.697	860.591	685.806
289.716	26.975	860.235	686.515
290.730	26.608	859.491	684.471
291.745	26.423	858.516	682.935
292.760	26.182	857.293	680.996
293.774	26.331	857.174	681.401
294.789	27.591	856.915	685.879
295.803	27.714	857.020	686.366
296.818	27.859	857.028	686.860
297.833	27.919	855.947	686.157
298.847	27.616	855.047	684.237
299.862	27.332	853.689	682.025
300.876	27.495	854.257	683.028
301.891	27.761	853.048	682.997
302.906	27.644	853.443	682.816
303.920	27.734	851.691	681.690
304.935	27.423	852.207	680.880
305.949	27.694	851.268	681.080
306.964	27.909	851.526	682.032
307.979	27.596	849.486	679.172
308.993	27.028	850.089	677.472
310.008	27.587	850.194	679.582
311.022	27.930	848.199	679.203
312.037	27.726	848.386	678.534
313.052	27.837	847.284	678.006
314.066	27.340	847.294	676.108
315.081	26.837	846.138	673.258
316.095	25.787	844.843	668.273
317.110	26.406	844.659	670.366
318.125	27.218	844.867	673.480
319.139	27.019	843.385	671.505
320.154	26.021	841.637	666.368
321.168	25.446	840.800	663.523
322.183	25.894	842.289	666.296
323.197	26.736	841.507	668.728
324.212	27.059	841.428	669.796
325.227	27.390	840.803	670.458
326.241	27.513	841.015	671.020
327.256	27.209	840.812	669.682
328.270	27.291	839.554	668.922
329.285	27.020	839.511	667.832
330.300	26.839	838.611	666.392
331.314	26.592	838.116	665.033
332.329	26.938	836.793	665.190
333.343	27.276	836.804	666.380
334.358	27.774	835.694	667.257
335.373	27.927	835.442	667.558
336.387	27.682	834.685	665.997
337.402	27.965	834.322	666.684
338.416	27.951	834.882	667.019
339.431	28.233	833.872	667.184
340.446	28.022	832.712	665.429
341.460	28.317	833.468	667.046
342.475	28.114	832.886	665.784
343.489	28.044	831.414	664.294
344.504	27.710	832.073	663.545
345.519	28.113	830.981	664.080
346.533	28.210	830.999	664.388
347.548	28.623	829.729	664.811
348.562	28.599	829.687	664.632
349.577	28.608	828.434	663.602
350.592	28.179	829.019	662.459
351.606	28.248	827.423	661.375
352.621	28.285	826.743	660.904
353.635	28.302	826.904	661.035
354.650	28.019	826.748	659.833
355.665	27.837	825.392	658.035
356.679	27.011	823.145	653.216
357.694	26.827	822.397	651.902
358.708	27.253	823.235	654.041
359.723	27.411	822.319	653.823
360.738	27.363	822.567	653.791
361.752	28.041	821.902	655.637
362.767	27.944	821.971	655.287
363.781	27.867	822.792	655.606
364.796	28.467	821.804	656.911
365.810	29.049	819.969	657.465
366.825	29.017	820.264	657.531
367.840	28.737	820.241	656.453
368.854	28.710	819.293	655.539
369.869	28.244	818.602	653.267
370.883	27.991	818.944	652.578
371.898	28.191	817.348	651.961
372.913	28.131	817.466	651.784
373.927	28.203	816.464	651.184
374.942	28.171	815.771	650.459
375.956	28.228	815.185	650.137
376.971	28.439	814.601	650.363
377.986	28.406	814.980	650.490
379.000	28.505	813.656	649.726
380.015	28.834	813.289	650.540
381.029	28.776	812.741	649.841
382.044	28.605	812.438	648.934
383.059	28.446	812.360	648.254
384.073	28.489	811.294	647.496
385.088	28.796	810.694	648.045
386.102	28.905	809.404	647.339
387.117	28.602	809.542	646.326
388.132	28.556	809.462	646.042
389.146	28.260	808.120	643.873
390.161	27.625	806.983	640.681
391.175	27.641	807.244	640.889
392.190	28.344	807.572	643.561
393.205	29.062	806.220	644.944
394.219	27.608	804.700	638.580
395.234	25.405	802.738	629.260
396.248	25.388	801.198	627.940
397.263	26.034	802.638	631.273
398.278	28.004	803.401	638.709
399.292	28.261	804.283	640.253
400.307	27.678	804.263	638.141
401.321	27.879	802.671	637.523
402.336	27.993	802.834	637.995
403.350	28.195	801.819	637.837
404.365	28.750	802.363	640.146
405.380	28.871	802.777	640.843
406.394	29.618	801.614	642.457
407.409	29.592	801.552	642.260
408.423	29.627	800.207	641.246
409.438	29.342	800.149	640.153
410.453	28.941	801.050	639.424
411.467	29.457	799.709	640.087
412.482	29.623	799.356	640.325
413.496	29.658	797.891	639.215
414.511	29.470	798.771	639.210
415.526	29.573	797.077	638.157
416.540	29.562	796.421	637.537
417.555	29.379	797.033	637.339
418.569	29.381	796.254	636.664
419.584	29.028	795.817	635.043
420.599	29.216	794.907	634.908
421.613	159.391	1369.855	1792.788
422.628	138.153	1453.661	1792.883
