DTS Sentinel unit serial number:	SN413079Multiplexer serial number:	ORYXHardware model number:	OX4-SRSoftware version number:	ORYX F/W v4.00 Oryx Data Collector v3.7.2.0data status	okinstallation	princeton_trtdifferential loss correction	single-endedforward channel	channel 3reverse channel	N/Adate	2019/09/12time	20:05:04forward acquisition time	15.00reverse acquisition time	0.00gamma	496.2192k internal	0.2323k external	0.2323temperature offset calibration	1.0116default loss term (dB/km)	0.3790temperature slope calibration	1.0000multiplexer offset coefficient	1.0000multiplexer slope coefficient	1.0000fibre end	0.00T internal ref (°C)	31.69T ext. ref 1 (°C)	3.37T ext. ref 2 (°C)	26.23length (m)	temperature (°C)	Stokes	anti-Stokes-747.200	20.797	0.220	0.180
-746.185	-200.000	-0.096	-0.869
-745.171	-40.185	0.600	-0.315
-744.156	10.367	0.598	0.460
-743.142	800.000	0.187	0.675
-742.127	800.000	0.060	-0.241
-741.112	-149.208	-0.317	-0.026
-740.098	6.056	0.394	-0.294
-739.083	152.514	-0.337	-0.465
-738.069	-176.557	-0.640	0.017
-737.054	-47.481	0.290	-0.142
-736.039	-200.000	0.000	-0.909
-735.025	-144.162	0.364	0.034
-734.010	-36.974	-0.509	0.276
-732.996	375.260	-0.313	-0.643
-731.981	-59.308	-0.104	0.045
-730.966	800.000	0.176	0.606
-729.952	-200.000	-0.023	0.728
-728.937	-158.477	0.640	0.037
-727.923	596.403	-0.352	-0.880
-726.908	-19.743	0.100	-0.062
-725.894	-200.000	-0.010	0.055
-724.879	-149.500	-0.779	-0.062
-723.864	117.048	0.409	-0.506
-722.850	-30.287	-0.409	0.234
-721.835	-163.439	-0.871	0.042
-720.821	-200.000	-0.071	0.324
-719.806	-106.023	-0.252	0.057
-718.791	-43.800	-0.825	-0.419
-717.777	-67.038	-0.575	0.229
-716.762	-114.588	0.484	-0.094
-715.748	-180.107	0.264	-0.006
-714.733	297.312	-0.232	-0.429
-713.718	-200.000	0.106	0.756
-712.704	206.746	0.353	0.555
-711.689	-124.065	-0.467	0.074
-710.675	127.779	0.446	-0.572
-709.660	-9.158	-0.608	0.410
-708.645	-68.055	-0.449	-0.176
-707.631	800.000	-0.119	-0.455
-706.616	608.509	0.022	-0.055
-705.602	143.284	0.188	0.252
-704.587	-200.000	0.123	0.911
-703.572	-101.297	0.242	0.059
-702.558	800.000	0.167	-0.601
-701.543	-156.193	-0.874	-0.055
-700.529	-39.997	-0.375	0.197
-699.514	229.568	0.202	-0.333
-698.499	77.664	-0.622	-0.668
-697.485	800.000	0.025	-0.098
-696.470	-145.151	-0.584	0.053
-695.456	207.420	-0.207	-0.326
-694.441	-51.357	0.386	-0.182
-693.426	138.993	0.435	-0.576
-692.412	327.424	0.313	0.605
-691.397	58.283	0.369	-0.365
-690.383	23.061	-0.421	-0.348
-689.368	240.327	0.247	-0.415
-688.354	-200.000	0.012	0.156
-687.339	157.263	-0.220	0.307
-686.324	800.000	0.143	0.436
-685.310	5.483	0.086	-0.064
-684.295	-70.316	-0.900	-0.344
-683.281	-168.026	-0.777	-0.031
-682.266	-200.000	0.069	-0.543
-681.251	-125.425	-0.616	-0.095
-680.237	100.251	-0.422	-0.493
-679.222	206.903	-0.262	0.411
-678.208	702.393	0.176	-0.466
-677.193	109.498	-0.230	-0.278
-676.178	-53.322	-0.779	0.360
-675.164	800.000	-0.204	-0.830
-674.149	110.704	-0.118	0.143
-673.135	-141.377	0.812	-0.083
-672.120	235.694	-0.218	-0.363
-671.105	-113.506	-0.195	-0.038
-670.091	770.551	-0.295	0.810
-669.076	85.609	0.548	-0.607
-668.062	-200.000	-0.036	-0.422
-667.047	800.000	0.033	0.145
-666.032	-104.190	0.263	-0.062
-665.018	201.195	-0.293	0.454
-664.003	-41.962	0.755	-0.389
-662.989	117.342	0.288	-0.357
-661.974	-200.000	-0.018	0.321
-660.959	62.126	-0.212	0.213
-659.945	-23.389	0.810	-0.490
-658.930	-200.000	0.061	0.556
-657.916	202.893	0.167	-0.260
-656.901	800.000	-0.110	0.473
-655.886	453.766	-0.064	-0.142
-654.872	800.000	0.173	0.493
-653.857	-200.000	-0.017	-0.186
-652.843	-200.000	0.036	0.343
-651.828	-15.658	0.564	-0.362
-650.814	-200.000	0.043	0.195
-649.799	800.000	-0.185	-0.555
-648.784	-111.099	0.852	-0.176
-647.770	-200.000	-0.006	-0.295
-646.755	-150.357	0.344	0.027
-645.741	-159.562	-0.426	0.024
-644.726	-67.892	0.060	0.024
-643.711	-52.450	-0.519	-0.242
-642.697	236.938	-0.167	-0.279
-641.682	-73.491	0.123	-0.045
-640.668	111.576	-0.636	0.771
-639.653	5.240	0.438	0.324
-638.638	-200.000	-0.074	-0.462
-637.624	299.516	0.194	0.359
-636.609	-200.000	0.504	-0.002
-635.595	86.289	-0.174	0.193
-634.580	73.132	-0.434	-0.456
-633.565	800.000	0.092	0.320
-632.551	-53.073	0.700	0.324
-631.536	-82.254	0.201	-0.066
-630.522	66.944	-0.568	-0.582
-629.507	533.751	-0.227	-0.540
-628.492	-200.000	-0.048	-0.711
-627.478	-55.833	0.270	-0.121
-626.463	-104.797	1.276	0.295
-625.449	-200.000	0.159	1.007
-624.434	-96.430	0.441	-0.117
-623.419	153.968	0.321	0.442
-622.405	50.083	0.273	0.259
-621.390	225.176	0.128	-0.208
-620.376	-102.209	-1.084	0.262
-619.361	261.143	0.462	0.803
-618.346	800.000	-0.096	-0.409
-617.332	25.732	-0.454	-0.380
-616.317	107.285	-0.307	0.367
-615.303	517.019	-0.141	0.332
-614.288	52.071	-0.749	-0.717
-613.273	800.000	0.058	-0.176
-612.259	201.039	-0.256	-0.396
-611.244	95.750	-0.199	-0.229
-610.230	149.166	0.174	0.236
-609.215	177.781	0.361	0.528
-608.201	9.545	-0.347	-0.264
-607.186	-83.346	0.830	0.268
-606.171	34.624	0.295	-0.259
-605.157	85.097	-0.204	-0.225
-604.142	-71.505	-0.231	-0.087
-603.128	692.911	0.102	0.269
-602.113	800.000	-0.106	-0.380
-601.098	88.647	-0.406	0.453
-600.084	800.000	-0.243	0.703
-599.069	197.745	-0.179	-0.274
-598.055	-200.000	0.115	-0.741
-597.040	153.561	-0.324	0.445
-596.025	-96.505	0.807	0.214
-595.011	-87.516	-0.452	-0.137
-593.996	31.636	-0.636	0.549
-592.982	110.608	-0.179	0.216
-591.967	800.000	-0.176	0.679
-590.952	-121.302	-0.723	0.121
-589.938	523.309	-0.048	0.114
-588.923	-55.018	0.544	0.246
-587.909	-27.908	-0.396	0.230
-586.894	23.218	0.393	-0.324
-585.879	-200.000	-0.067	0.463
-584.865	-200.000	-0.010	-0.184
-583.850	-200.000	-1.684	-0.003
-582.836	168.449	0.281	-0.402
-581.821	31.124	-1.007	-0.867
-580.806	103.237	-0.526	0.619
-579.792	-49.451	-0.359	-0.172
-578.777	83.795	0.628	0.687
-577.763	-111.542	-0.314	-0.064
-576.748	452.729	0.109	-0.242
-575.733	88.320	-0.469	-0.522
-574.719	-200.000	-0.074	-0.395
-573.704	100.248	0.546	-0.635
-572.690	-200.000	0.039	-0.439
-571.675	-200.000	-0.054	0.298
-570.661	157.696	0.498	0.692
-569.646	407.000	-0.194	0.410
-568.631	-56.769	0.587	0.260
-567.617	-200.000	0.009	-0.058
-566.602	-0.698	-0.446	0.317
-565.588	-160.681	-0.450	0.024
-564.573	253.832	-0.402	0.690
-563.558	78.278	-0.263	0.281
-562.544	-200.000	-0.016	0.197
-561.529	195.173	-0.202	-0.307
-560.515	6.269	-0.277	0.206
-559.500	-200.000	-0.078	0.639
-558.485	-200.000	-0.022	-0.355
-557.471	-128.618	-0.523	0.074
-556.456	-103.781	-1.273	0.299
-555.442	-107.418	0.514	0.113
-554.427	306.199	0.129	0.240
-553.412	-155.388	0.325	0.021
-552.398	-46.550	-0.389	-0.191
-551.383	-200.000	-0.053	-0.312
-550.369	-161.731	-0.238	-0.012
-549.354	160.411	-0.501	0.701
-548.339	-115.058	0.699	0.133
-547.325	-181.472	-0.667	0.013
-546.310	-104.818	-0.414	0.095
-545.296	125.357	-0.494	0.624
-544.281	-109.688	0.879	-0.185
-543.266	-200.000	-0.006	-0.453
-542.252	-101.552	-0.334	-0.081
-541.237	569.917	-0.113	-0.276
-540.223	55.522	-0.239	0.232
-539.208	-91.684	0.342	-0.097
-538.193	-162.737	-0.268	-0.013
-537.179	-124.046	0.647	-0.102
-536.164	-200.000	0.034	0.456
-535.150	-200.000	-0.010	-0.348
-534.135	39.664	-0.239	-0.214
-533.121	20.891	0.395	-0.321
-532.106	-38.271	0.639	0.339
-531.091	147.403	-0.423	0.570
-530.077	0.343	0.471	0.336
-529.062	-167.933	0.824	-0.032
-528.048	-40.389	-0.453	-0.236
-527.033	-200.000	-0.005	-0.453
-526.018	-121.759	-0.738	-0.122
-525.004	-197.283	0.219	0.001
-523.989	158.977	0.271	0.377
-522.975	-97.069	0.248	0.065
-521.960	-116.034	0.586	-0.109
-520.945	-200.000	-0.178	-0.808
-519.931	-145.015	0.936	-0.085
-518.916	374.590	0.245	-0.499
-517.902	-107.520	-0.294	-0.064
-516.887	38.286	0.098	0.087
-515.872	-16.419	-0.606	-0.384
-514.858	-29.216	0.473	-0.271
-513.843	-200.000	0.044	-0.311
-512.829	-108.694	-0.634	-0.136
-511.814	7.771	-0.656	-0.492
-510.799	162.646	0.446	0.626
-509.785	116.412	0.277	-0.339
-508.770	-8.103	1.032	0.696
-507.756	-200.000	0.061	0.602
-506.741	62.309	0.228	-0.227
-505.726	800.000	0.319	1.050
-504.712	-65.801	0.415	-0.166
-503.697	109.428	-0.370	-0.443
-502.683	-31.574	-0.252	-0.141
-501.668	214.238	-0.332	-0.525
-500.653	268.912	0.410	-0.720
-499.639	-138.034	-0.359	-0.040
-498.624	-200.000	-0.022	0.105
-497.610	-200.000	0.121	-0.616
-496.595	47.820	0.250	0.234
-495.581	30.502	-0.133	-0.114
-494.566	33.022	0.411	-0.356
-493.551	-197.612	-0.493	-0.003
-492.537	325.769	-0.283	0.542
-491.522	800.000	0.154	-0.504
-490.508	209.109	-0.328	-0.513
-489.493	-130.487	-0.267	0.036
-488.478	101.455	0.660	0.769
-487.464	-39.403	-0.149	-0.078
-486.449	87.479	-0.432	0.478
-485.435	-75.143	0.464	0.166
-484.420	-200.000	0.069	0.366
-483.405	-124.581	0.764	-0.119
-482.391	-7.937	-0.807	-0.544
-481.376	-72.069	-0.965	-0.358
-480.362	681.907	0.206	0.536
-479.347	800.000	-0.045	-0.135
-478.332	151.413	-0.292	-0.397
-477.318	800.000	-0.038	0.139
-476.303	800.000	-0.190	-0.728
-475.289	-118.054	0.359	0.064
-474.274	-200.000	0.003	0.025
-473.259	343.972	0.072	-0.141
-472.245	-68.886	0.809	-0.312
-471.230	-51.603	-0.820	0.382
-470.216	61.342	-0.149	-0.148
-469.201	281.735	-0.454	-0.813
-468.186	-115.550	-0.471	-0.088
-467.172	800.000	-0.040	0.141
-466.157	20.239	0.177	-0.143
-465.143	-109.752	0.431	0.091
-464.128	128.616	-0.550	0.700
-463.113	-170.273	0.350	0.012
-462.099	-111.674	-0.703	0.142
-461.084	-20.940	-0.428	-0.262
-460.070	-40.411	-0.341	0.177
-459.055	43.076	0.240	0.219
-458.040	456.875	-0.042	0.093
-457.026	-66.343	-0.105	-0.042
-456.011	-57.919	-0.312	0.136
-454.997	22.136	-0.203	0.165
-453.982	321.451	0.294	-0.558
-452.968	-200.000	-0.035	0.254
-451.953	800.000	-0.180	-0.602
-450.938	-200.000	-0.067	0.636
-449.924	-114.806	0.298	0.057
-448.909	-96.952	-1.116	0.292
-447.895	-89.522	0.692	0.203
-446.880	59.036	0.275	-0.270
-445.865	111.447	0.553	0.666
-444.851	187.669	-0.144	0.214
-443.836	59.203	-0.310	0.304
-442.822	-81.538	-0.140	-0.046
-441.807	-200.000	0.003	0.753
-440.792	12.122	-0.737	-0.566
-439.778	457.131	0.249	0.552
-438.763	-171.213	0.355	-0.012
-437.749	800.000	0.114	0.493
-436.734	-153.877	0.610	0.042
-435.719	-200.000	-0.030	0.422
-434.705	169.103	-0.400	0.570
-433.690	82.949	-0.375	0.407
-432.676	242.958	-0.229	-0.382
-431.661	-200.000	0.044	-0.224
-430.646	88.507	-0.279	-0.310
-429.632	-200.000	0.082	-1.352
-428.617	291.452	-0.146	0.266
-427.603	71.276	-0.361	-0.374
-426.588	-69.519	0.252	0.096
-425.573	-12.725	0.289	0.188
-424.559	-106.014	0.502	-0.113
-423.544	-159.825	-0.295	0.016
-422.530	-200.000	0.071	-0.528
-421.515	-125.743	-0.578	-0.087
-420.500	800.000	-0.137	0.458
-419.486	-200.000	0.210	0.950
-418.471	-200.000	-0.109	0.476
-417.457	-200.000	-0.011	-0.102
-416.442	-37.418	-0.401	0.213
-415.428	300.467	0.044	-0.081
-414.413	-164.894	0.608	0.027
-413.398	549.287	-0.077	-0.185
-412.384	-200.000	0.224	-1.010
-411.369	91.724	0.048	-0.054
-410.355	23.651	-0.205	-0.169
-409.340	800.000	-0.098	-0.271
-408.325	387.056	0.297	0.613
-407.311	39.042	-0.233	0.208
-406.296	139.684	0.455	-0.597
-405.282	574.823	-0.145	0.352
-404.267	441.986	0.181	-0.395
-403.252	800.000	-0.125	-0.361
-402.238	-120.005	0.477	-0.082
-401.223	644.400	0.395	-1.004
-400.209	-200.000	0.021	0.461
-399.194	-200.000	-0.004	0.269
-398.179	-40.529	0.529	0.273
-397.165	55.745	0.190	0.183
-396.150	-87.045	-0.757	0.230
-395.136	-118.428	-0.607	0.107
-394.121	-78.156	-0.651	-0.223
-393.106	-70.862	-0.364	-0.137
-392.092	800.000	-0.413	-1.162
-391.077	-200.000	0.054	-0.630
-390.063	-118.504	0.648	0.114
-389.048	-200.000	-0.076	0.694
-388.033	-172.594	-0.221	-0.007
-387.019	-55.128	0.383	0.172
-386.004	5.866	0.253	-0.186
-384.990	800.000	-0.256	0.949
-383.975	-185.437	-0.378	0.006
-382.960	60.021	0.295	0.290
-381.946	800.000	0.166	-0.673
-380.931	539.984	0.413	-0.980
-379.917	-96.342	-0.965	-0.254
-378.902	185.776	0.174	-0.258
-377.888	111.876	-0.285	-0.343
-376.873	-55.291	-0.494	-0.221
-375.858	368.743	0.378	0.761
-374.844	800.000	0.168	-0.554
-373.829	2.240	0.704	-0.507
-372.815	-104.934	0.944	-0.216
-371.800	-23.738	-0.189	0.113
-370.785	52.565	0.188	-0.178
-369.771	-104.310	0.073	0.017
-368.756	23.800	-0.476	0.390
-367.742	-49.374	0.488	-0.232
-366.727	-200.000	-0.027	-0.515
-365.712	-76.214	0.519	-0.182
-364.698	-200.000	-0.130	-0.831
-363.683	105.699	0.572	-0.673
-362.669	-58.197	0.560	0.243
-361.654	-200.000	-0.157	0.780
-360.639	-134.686	-0.217	-0.026
-359.625	54.349	0.197	-0.189
-358.610	-200.000	0.181	-0.841
-357.596	367.048	-0.212	-0.425
-356.581	800.000	0.089	-0.328
-355.566	505.876	0.210	-0.485
-354.552	800.000	-0.327	-0.960
-353.537	277.762	-0.202	0.358
-352.523	-95.133	-0.753	0.202
-351.508	173.828	0.129	-0.185
-350.493	4.274	-0.399	0.291
-349.479	289.767	0.197	-0.356
-348.464	-200.000	-0.088	0.962
-347.450	-200.000	0.011	-0.345
-346.435	39.503	0.455	0.405
-345.420	566.260	0.244	0.588
-344.406	41.278	-0.302	-0.272
-343.391	2.982	-0.383	-0.277
-342.377	-37.297	0.710	0.377
-341.362	800.000	0.151	-0.519
-340.348	-36.739	0.809	-0.432
-339.333	43.000	0.166	-0.151
-338.318	800.000	-0.078	0.246
-337.304	800.000	-0.240	0.674
-336.289	800.000	0.130	-0.414
-335.275	622.811	-0.049	0.123
-334.260	-200.000	0.025	0.351
-333.245	-49.132	-0.528	0.251
-332.231	-10.883	0.209	-0.137
-331.216	-200.000	-0.031	-0.480
-330.202	199.177	-0.163	-0.249
-329.187	-200.000	-0.096	-0.434
-328.172	-200.000	0.031	0.539
-327.158	286.180	-0.410	0.735
-326.143	-112.844	0.307	-0.060
-325.129	-29.503	0.908	-0.516
-324.114	-200.000	-0.065	-0.585
-323.099	-82.208	-0.602	-0.195
-322.085	-200.000	0.085	-0.475
-321.070	289.808	0.373	-0.672
-320.056	345.978	-0.092	-0.180
-319.041	-111.072	1.221	0.249
-318.026	800.000	0.214	-0.598
-317.012	-200.000	-0.051	-0.279
-315.997	40.444	0.466	-0.417
-314.983	-200.000	-0.066	-0.539
-313.968	-200.000	0.129	-1.549
-312.953	-200.000	0.010	-0.975
-311.939	-200.000	-0.065	-0.559
-310.924	141.177	0.305	-0.400
-309.910	67.686	0.334	-0.339
-308.895	48.013	-0.400	0.372
-307.880	-200.000	-0.042	0.265
-306.866	22.520	-0.529	-0.430
-305.851	-14.140	-0.473	0.303
-304.837	82.321	-0.658	0.708
-303.822	3.195	0.201	0.145
-302.807	-200.000	0.136	0.832
-301.793	-200.000	0.005	-0.095
-300.778	-63.496	-0.292	0.119
-299.764	-103.873	-0.967	0.224
-298.749	651.624	0.145	0.370
-297.735	-89.299	0.392	0.115
-296.720	224.300	-0.096	-0.154
-295.705	-91.779	0.334	-0.094
-294.691	88.781	0.396	0.437
-293.676	-104.660	0.467	0.107
-292.662	-130.941	0.621	-0.082
-291.647	85.634	-0.240	0.261
-290.632	-200.000	-0.020	-0.379
-289.618	-66.621	-0.445	-0.175
-288.603	-175.525	0.302	-0.008
-287.589	-200.000	-0.007	0.315
-286.574	161.463	0.406	-0.563
-285.559	-100.347	-0.569	0.140
-284.545	-6.259	-0.333	-0.225
-283.530	11.741	0.700	0.533
-282.516	-109.165	0.874	-0.184
-281.501	-117.871	0.471	-0.084
-280.486	-200.000	-0.072	-0.682
-279.472	327.707	-0.156	-0.296
-278.457	-149.171	0.814	0.065
-277.443	-132.694	-1.079	-0.137
-276.428	-200.000	-0.020	0.486
-275.413	800.000	-0.292	0.967
-274.399	-9.523	0.642	0.424
-273.384	-62.633	0.712	0.293
-272.370	800.000	-0.208	0.820
-271.355	-200.000	-0.094	0.710
-270.340	-200.000	0.065	0.639
-269.326	800.000	0.038	-0.104
-268.311	130.725	0.218	0.277
-267.297	9.657	0.995	0.747
-266.282	397.292	-0.278	0.576
-265.267	800.000	-0.080	-0.338
-264.253	-119.104	0.407	-0.071
-263.238	800.000	-0.124	0.344
-262.224	800.000	0.213	-0.693
-261.209	255.901	0.208	0.353
-260.195	-173.366	-0.775	-0.023
-259.180	800.000	-0.097	0.362
-258.165	-188.171	0.407	-0.005
-257.151	-161.079	-0.499	-0.026
-256.136	357.585	-0.170	0.336
-255.122	180.380	0.285	-0.415
-254.107	-130.336	0.222	-0.030
-253.092	-33.797	-0.276	-0.151
-252.078	63.750	-0.306	0.304
-251.063	-200.000	0.210	1.019
-250.049	-81.869	-0.742	0.241
-249.034	193.237	0.371	0.555
-248.019	-200.000	0.045	0.885
-247.005	-119.474	0.356	-0.061
-245.990	-200.000	0.063	-0.726
-244.976	800.000	-0.149	-0.441
-243.961	-136.558	-0.950	0.109
-242.946	800.000	0.089	-0.243
-241.932	-200.000	-0.129	-0.881
-240.917	90.148	0.104	0.115
-239.903	355.474	0.253	0.499
-238.888	-82.826	-0.921	0.295
-237.873	249.278	0.250	0.420
-236.859	2.840	0.696	0.500
-235.844	800.000	-0.136	0.508
-234.830	-39.907	0.631	-0.326
-233.815	385.319	-0.324	-0.661
-232.800	-77.655	0.703	-0.241
-231.786	28.467	0.590	0.494
-230.771	-53.820	0.468	0.211
-229.757	260.276	0.152	0.260
-228.742	-67.972	-0.743	0.287
-227.727	253.790	0.465	0.786
-226.713	32.342	-0.458	-0.392
-225.698	-83.011	0.343	-0.109
-224.684	142.782	0.276	-0.363
-223.669	-9.165	-1.038	0.687
-222.655	-12.085	-0.400	0.259
-221.640	-200.000	-0.028	-0.309
-220.625	-200.000	0.041	0.234
-219.611	-83.438	1.125	-0.357
-218.596	-63.423	-0.176	-0.072
-217.582	-94.046	-0.722	0.196
-216.567	-5.048	-0.238	0.162
-215.552	44.925	-0.180	-0.164
-214.538	269.196	0.165	0.287
-213.523	133.140	0.282	0.361
-212.509	95.516	0.366	-0.412
-211.494	-32.521	-0.331	-0.182
-210.479	-123.087	-0.834	-0.132
-209.465	74.076	0.264	0.274
-208.450	-71.823	-0.134	-0.049
-207.436	-200.000	-0.022	-0.330
-206.421	12.139	-0.189	-0.144
-205.406	495.294	-0.193	-0.438
-204.392	800.000	-0.043	0.166
-203.377	227.969	-0.204	0.328
-202.363	19.381	0.379	0.301
-201.348	-26.973	-0.420	0.243
-200.333	31.304	-0.178	-0.151
-199.319	48.927	0.492	-0.457
-198.304	-100.024	0.605	-0.149
-197.290	338.028	-0.196	0.378
-196.275	-88.351	1.229	0.363
-195.260	386.332	0.179	-0.366
-194.246	444.605	-0.275	0.597
-193.231	-86.149	0.369	0.113
-192.217	800.000	0.222	0.616
-191.202	-177.696	0.396	-0.009
-190.187	-200.000	0.016	0.720
-189.173	-87.656	0.293	-0.087
-188.158	-200.000	-0.006	0.496
-187.144	-83.626	0.303	0.096
-186.129	-5.387	-0.308	0.209
-185.114	800.000	-0.288	1.092
-184.100	-200.000	-0.063	0.448
-183.085	800.000	0.082	0.352
-182.071	-140.224	0.206	-0.021
-181.056	-76.958	-0.260	0.090
-180.042	-200.000	0.042	-0.381
-179.027	800.000	0.181	-0.694
-178.012	-146.916	-0.433	-0.037
-176.998	-15.212	-0.213	-0.135
-175.983	296.237	-0.253	0.457
-174.969	-200.000	0.065	0.330
-173.954	15.621	0.440	-0.341
-172.939	414.761	-0.279	0.587
-171.925	554.229	0.154	-0.365
-170.910	-160.167	-0.471	0.025
-169.896	800.000	-0.119	-0.427
-168.881	235.674	0.507	-0.827
-167.866	508.017	-0.242	-0.554
-166.852	-125.722	0.111	-0.017
-165.837	-63.848	0.343	-0.139
-164.823	800.000	-0.238	-0.999
-163.808	11.696	0.535	0.406
-162.793	800.000	-0.212	-0.585
-161.779	-83.534	0.306	-0.097
-160.764	-147.090	0.816	0.069
-159.750	385.064	0.096	0.195
-158.735	-18.369	-0.291	0.180
-157.720	-64.481	-0.844	-0.339
-156.706	800.000	0.091	-0.298
-155.691	800.000	0.230	0.838
-154.677	-83.643	-1.031	0.325
-153.662	-200.000	0.069	0.586
-152.647	213.437	0.513	-0.801
-151.633	-200.000	-0.082	-0.572
-150.618	-99.049	1.062	0.266
-149.604	-5.558	0.893	-0.604
-148.589	27.044	-0.234	0.193
-147.574	188.164	-0.323	-0.476
-146.560	800.000	-0.068	-0.253
-145.545	-17.752	-0.326	0.202
-144.531	338.989	0.304	-0.585
-143.516	477.603	0.232	-0.517
-142.502	-97.059	-0.184	0.048
-141.487	354.833	0.320	0.627
-140.472	30.156	0.628	0.528
-139.458	-200.000	-0.160	1.102
-138.443	-200.000	-0.064	0.428
-137.429	-200.000	0.040	0.223
-136.414	-7.383	1.068	0.713
-135.399	487.007	-0.174	0.390
-134.385	117.676	-0.132	-0.161
-133.370	-53.565	-0.404	0.182
-132.356	354.656	0.513	1.006
-131.341	800.000	0.150	-0.566
-130.326	-200.000	0.020	-0.476
-129.312	800.000	0.149	0.528
-128.297	7.600	-0.346	-0.255
-127.283	-200.000	0.082	0.381
-126.268	-42.559	-0.191	0.096
-125.253	126.820	0.367	-0.458
-124.239	-130.584	-0.522	0.069
-123.224	-156.115	-0.532	-0.033
-122.210	30.959	-0.847	0.715
-121.195	346.691	0.168	0.326
-120.180	-200.000	0.053	0.627
-119.166	4.011	-0.308	0.222
-118.151	5.698	0.117	-0.085
-117.137	-102.940	-1.056	0.247
-116.122	126.520	-0.319	-0.398
-115.107	161.593	-0.197	-0.271
-114.093	-200.000	-0.048	-0.378
-113.078	27.936	-0.385	0.320
-112.064	-200.000	-0.081	-0.478
-111.049	-146.721	0.715	0.061
-110.034	418.728	0.126	0.266
-109.020	-66.676	0.602	0.235
-108.005	-108.603	0.834	-0.176
-106.991	14.230	0.268	0.206
-105.976	37.278	0.507	-0.443
-104.962	92.575	0.600	0.667
-103.947	22.986	0.348	0.281
-102.932	-200.000	-0.019	0.343
-101.918	49.967	-0.363	0.337
-100.903	800.000	0.099	0.340
-99.889	-91.738	0.091	0.025
-98.874	-200.000	-0.036	-0.359
-97.859	800.000	0.232	0.722
-96.845	-79.511	-0.658	-0.219
-95.830	102.222	-0.465	-0.534
-94.816	-124.846	0.089	0.014
-93.801	800.000	0.087	-0.363
-92.786	101.113	-0.241	0.276
-91.772	-200.000	0.125	1.818
-90.757	800.000	0.167	-0.545
-89.743	-200.000	0.070	-0.535
-88.728	61.463	-0.523	-0.512
-87.713	733.709	-0.170	-0.448
-86.699	221.121	0.448	0.708
-85.684	-108.307	-0.316	-0.067
-84.670	-141.168	-0.692	-0.070
-83.655	58.069	-0.527	-0.508
-82.640	82.357	0.843	0.900
-81.626	274.584	-0.287	0.500
-80.611	-41.697	0.221	-0.112
-79.597	340.860	-0.241	-0.463
-78.582	-125.623	0.578	0.086
-77.567	800.000	-0.172	0.584
-76.553	-19.457	0.649	-0.395
-75.538	126.013	-0.490	-0.609
-74.524	325.191	-0.335	0.629
-73.509	-51.205	-0.847	0.390
-72.494	147.915	0.123	-0.163
-71.480	225.941	0.253	0.403
-70.465	-153.034	0.424	0.029
-69.451	-200.000	-0.642	-0.000
-68.436	75.967	0.308	0.320
-67.422	159.762	0.052	0.072
-66.407	-200.000	0.003	-0.207
-65.392	15.589	-0.232	-0.179
-64.378	-62.361	0.323	0.132
-63.363	-65.840	0.452	0.178
-62.349	181.756	0.127	0.184
-61.334	-59.008	-1.108	-0.471
-60.319	-81.426	0.460	-0.149
-59.305	482.856	-0.627	-1.401
-58.290	-135.436	1.157	0.136
-57.276	800.000	0.583	1.835
-56.261	-200.000	98.585	602.068
-55.246	615.797	1376.775	3393.371
-54.232	200.633	2542.076	3841.552
-53.217	116.531	2140.723	2580.430
-52.203	42.570	1685.159	1507.309
-51.188	34.986	1500.597	1291.239
-50.173	32.566	1474.529	1252.687
-49.159	52.869	1528.662	1436.755
-48.144	53.616	1544.328	1456.483
-47.130	35.126	1503.217	1294.237
-46.115	31.863	1489.255	1260.274
-45.100	31.807	1485.162	1256.383
-44.086	31.684	1485.108	1255.466
-43.071	31.623	1481.078	1251.602
-42.057	31.554	1480.571	1250.660
-41.042	31.461	1479.538	1249.118
-40.027	31.559	1477.526	1248.022
-39.013	31.609	1475.971	1246.997
-37.998	31.490	1473.583	1244.139
-36.984	31.587	1472.235	1243.590
-35.969	31.744	1470.453	1243.081
-34.954	31.495	1471.440	1242.211
-33.940	31.420	1469.353	1239.906
-32.925	31.758	1467.845	1240.824
-31.911	31.838	1464.832	1238.752
-30.896	31.715	1464.976	1238.013
-29.881	31.684	1463.757	1236.730
-28.867	31.964	1461.361	1236.504
-27.852	31.834	1460.583	1234.939
-26.838	31.804	1459.186	1233.507
-25.823	31.669	1458.934	1232.358
-24.809	31.801	1456.574	1231.182
-23.794	31.678	1454.324	1228.425
-22.779	31.527	1454.886	1227.859
-21.765	31.787	1452.782	1227.740
-20.750	31.542	1452.255	1225.643
-19.736	31.852	1450.568	1226.197
-18.721	31.754	1449.562	1224.657
-17.706	31.940	1447.772	1224.312
-16.692	31.775	1447.612	1223.054
-15.677	31.920	1445.324	1222.013
-14.663	31.893	1444.951	1221.476
-13.648	31.570	1444.520	1218.955
-12.633	31.590	1443.367	1218.066
-11.619	31.759	1442.921	1218.741
-10.604	31.498	1441.724	1215.987
-9.590	31.651	1440.476	1215.880
-8.575	31.739	1440.291	1216.244
-7.560	31.679	1439.015	1214.731
-6.546	31.500	1438.979	1213.492
-5.531	31.540	1437.929	1212.815
-4.517	31.473	1436.252	1210.919
-3.502	31.608	1435.582	1211.180
-2.487	31.654	1434.252	1210.305
-1.473	31.739	1433.332	1210.031
-0.458	31.679	1431.703	1208.222
0.556	33.037	1422.993	1197.506
1.571	29.959	1396.082	1155.577
2.586	26.120	1339.114	1085.290
3.600	24.599	1259.522	1012.084
4.615	23.108	1214.151	967.392
5.629	20.256	1158.273	907.889
6.644	11.425	1074.663	799.213
7.659	4.821	1033.605	737.420
8.673	3.596	1029.188	728.426
9.688	3.345	1025.475	724.555
10.702	3.449	1023.029	723.248
11.717	3.090	1022.190	720.909
12.731	6.196	1025.406	737.702
13.746	15.098	1036.491	787.656
14.761	22.434	1045.515	829.119
15.775	24.118	1047.004	838.163
16.790	23.650	1046.764	835.693
17.804	23.383	1044.626	832.655
18.819	22.956	1043.962	830.050
19.834	22.999	1042.856	829.299
20.848	22.767	1042.856	828.136
21.863	23.077	1042.857	829.520
22.877	22.804	1042.919	828.212
23.892	23.006	1041.035	827.590
24.907	22.917	1040.058	826.325
25.921	22.913	1039.045	825.426
26.936	22.777	1038.923	824.622
27.950	22.329	1037.606	821.412
28.965	22.669	1036.515	822.062
29.980	22.595	1035.403	820.762
30.994	22.855	1034.035	820.815
32.009	22.514	1033.519	818.746
33.023	22.774	1032.008	818.685
34.038	22.894	1032.040	819.193
35.053	22.714	1031.386	817.765
36.067	22.697	1030.614	817.005
37.082	22.676	1029.133	815.659
38.096	22.368	1028.889	813.969
39.111	22.625	1029.091	815.246
40.126	22.849	1027.435	814.898
41.140	22.416	1026.427	812.031
42.155	22.542	1024.795	811.248
43.169	22.261	1023.469	808.831
44.184	22.360	1022.583	808.518
45.199	21.983	1021.264	805.669
46.213	22.116	1020.518	805.623
47.228	22.088	1020.183	805.160
48.242	22.574	1020.031	807.190
49.257	22.643	1019.937	807.365
50.271	22.686	1018.192	806.109
51.286	22.603	1018.047	805.543
52.301	23.144	1016.463	806.685
53.315	23.078	1016.128	806.044
54.330	23.050	1015.329	805.214
55.344	22.908	1013.913	803.375
56.359	22.658	1013.156	801.564
57.374	22.573	1012.336	800.460
58.388	22.216	1013.048	799.331
59.403	22.239	1012.261	798.743
60.417	22.525	1009.297	797.629
61.432	22.070	1009.542	795.692
62.447	22.332	1008.306	795.833
63.461	22.249	1007.976	795.124
64.476	21.995	1007.696	793.687
65.490	21.959	1006.481	792.496
66.505	21.838	1005.847	791.378
67.520	21.549	1005.909	790.053
68.534	22.116	1004.588	791.505
69.549	22.214	1003.226	790.801
70.563	21.932	1001.573	788.159
71.578	21.757	1001.645	787.362
72.593	21.653	1000.268	785.745
73.607	21.335	999.669	783.779
74.622	21.458	998.185	783.094
75.636	21.368	998.288	782.705
76.651	21.666	996.754	782.765
77.666	21.487	996.098	781.382
78.680	21.812	996.091	782.754
79.695	21.657	994.834	781.009
80.709	21.977	993.790	781.546
81.724	21.695	994.232	780.567
82.739	21.758	992.996	779.809
83.753	21.975	993.198	780.864
84.768	22.344	992.716	782.054
85.782	23.196	991.602	784.886
86.797	23.285	990.821	784.594
87.812	23.201	991.762	784.899
88.826	23.337	989.414	783.572
89.841	23.128	988.940	782.206
90.855	23.186	987.914	781.579
91.870	23.494	987.203	782.308
92.884	23.687	986.466	782.505
93.899	23.383	985.600	780.408
94.914	22.990	985.213	778.301
95.928	23.155	984.219	778.177
96.943	23.148	983.085	777.178
97.957	22.763	984.029	776.162
98.972	22.718	981.983	774.281
99.987	22.819	981.424	774.218
101.001	22.802	980.911	773.671
102.016	23.156	978.497	773.246
103.030	23.035	977.376	771.760
104.045	22.870	977.556	771.116
105.060	22.933	977.756	771.480
106.074	22.948	975.949	770.051
107.089	22.662	975.248	768.184
108.103	22.365	974.957	766.592
109.118	22.706	972.662	766.203
110.133	22.289	971.560	763.459
111.147	22.025	970.359	761.301
112.162	21.507	970.081	758.772
113.176	22.007	968.408	759.557
114.191	21.910	968.741	759.333
115.206	21.976	968.181	759.110
116.220	21.947	966.798	757.837
117.235	22.162	966.358	758.353
118.249	21.962	964.978	756.339
119.264	21.961	964.652	756.013
120.279	21.400	963.939	752.970
121.293	21.634	962.229	752.576
122.308	21.692	962.646	753.083
123.322	21.492	961.150	750.990
124.337	21.654	959.191	750.086
125.352	21.319	958.266	747.864
126.366	21.698	957.518	748.833
127.381	21.418	956.511	746.785
128.395	21.905	955.903	748.321
129.410	21.556	955.746	746.642
130.424	21.812	954.205	746.465
131.439	21.884	952.837	745.632
132.454	21.921	953.822	746.494
133.468	22.628	951.620	747.703
134.483	22.359	951.393	746.319
135.497	22.257	951.538	745.936
136.512	22.140	950.522	744.576
137.527	22.190	950.137	744.423
138.541	22.562	948.242	744.444
139.556	22.129	949.176	743.278
140.570	22.483	947.209	743.167
141.585	22.510	946.706	742.819
142.600	22.889	947.154	744.705
143.614	22.917	946.621	744.335
144.629	22.773	945.824	743.041
145.643	23.445	944.979	745.133
146.658	23.032	943.529	742.193
147.673	22.873	942.377	740.552
148.687	22.609	941.656	738.815
149.702	22.593	940.478	737.758
150.716	22.489	939.004	736.103
151.731	22.393	938.876	735.533
152.746	22.552	937.870	735.345
153.760	22.440	936.956	734.095
154.775	22.782	936.180	734.850
155.789	22.674	935.838	734.067
156.804	22.706	935.405	733.795
157.819	22.619	934.533	732.685
158.833	22.643	934.614	732.781
159.848	22.873	933.332	732.668
160.862	23.308	932.881	734.053
161.877	23.079	931.851	732.229
162.892	22.689	930.348	729.369
163.906	22.517	929.720	728.101
164.921	22.132	928.204	725.262
165.935	21.937	927.887	724.143
166.950	22.724	926.075	725.907
167.964	22.457	926.909	725.395
168.979	22.667	924.855	724.587
169.994	22.485	924.440	723.452
171.008	22.208	923.469	721.491
172.023	22.601	922.037	721.916
173.037	22.931	921.747	722.975
174.052	23.082	921.734	723.519
175.067	22.978	920.192	721.820
176.081	22.780	918.471	719.600
177.096	22.221	917.422	716.439
178.110	22.257	916.167	715.541
179.125	22.167	916.476	715.351
180.140	21.810	916.061	713.513
181.154	22.137	915.056	713.995
182.169	22.423	915.048	715.087
183.183	22.589	914.923	715.600
184.198	23.008	913.184	715.874
185.213	23.125	912.709	715.912
186.227	22.710	913.269	714.608
187.242	22.614	912.850	713.826
188.256	22.697	911.886	713.347
189.271	22.761	911.242	713.037
190.286	23.147	911.070	714.401
191.300	22.980	909.004	712.044
192.315	22.349	908.976	709.417
193.329	21.969	908.031	707.085
194.344	21.736	906.565	704.943
195.359	22.192	905.233	705.676
196.373	22.213	907.049	707.116
197.388	22.593	905.317	707.227
198.402	22.789	905.328	707.959
199.417	23.133	905.021	709.037
200.432	23.132	905.743	709.536
201.446	23.150	905.669	709.486
202.461	23.756	904.842	711.200
203.475	23.248	904.156	708.568
204.490	23.378	902.619	707.819
205.504	22.891	901.648	705.051
206.519	22.661	900.724	703.349
207.534	22.806	899.804	703.146
208.548	23.144	899.932	704.532
209.563	22.558	899.279	701.623
210.577	22.852	897.392	701.256
211.592	22.648	897.493	700.464
212.607	23.286	897.021	702.564
213.621	23.382	896.435	702.426
214.636	23.394	895.856	701.957
215.650	23.272	894.947	700.700
216.665	22.971	895.698	700.034
217.680	23.025	894.470	699.225
218.694	23.305	893.395	699.428
219.709	23.247	894.246	699.806
220.723	23.049	893.375	698.278
221.738	23.010	892.087	697.056
222.753	22.911	891.212	695.921
223.767	22.529	890.823	694.053
224.782	23.107	890.340	695.891
225.796	23.369	890.099	696.671
226.811	23.547	888.215	695.832
227.826	23.557	887.537	695.278
228.840	22.692	887.355	691.684
229.855	22.582	886.556	690.566
230.869	22.600	886.642	690.643
231.884	22.821	885.455	690.524
232.899	22.626	884.709	689.120
233.913	22.796	883.617	688.871
234.928	22.479	883.084	687.156
235.942	22.229	882.214	685.444
236.957	22.299	880.356	684.214
237.972	22.400	880.187	684.414
238.986	22.286	880.428	684.098
240.001	22.448	880.335	684.594
241.015	22.415	878.506	682.983
242.030	22.241	878.794	682.473
243.045	22.852	878.171	684.295
244.059	22.835	877.296	683.487
245.074	23.164	876.560	684.129
246.088	22.863	875.892	682.383
247.103	22.769	876.491	682.425
248.117	23.080	875.351	682.679
249.132	23.305	876.110	684.077
250.147	23.367	876.255	684.371
251.161	24.242	875.228	686.882
252.176	24.288	874.742	686.616
253.190	24.213	874.080	685.749
254.205	24.309	873.315	685.455
255.220	24.175	872.952	684.596
256.234	24.079	872.243	683.608
257.249	23.783	871.753	682.029
258.263	23.649	871.818	681.504
259.278	24.160	869.945	681.938
260.293	23.698	869.867	680.048
261.307	23.991	869.653	680.942
262.322	24.338	868.509	681.312
263.336	24.325	868.034	680.828
264.351	24.355	867.413	680.398
265.366	23.755	867.642	678.227
266.380	23.863	867.448	678.424
267.395	23.812	866.594	677.503
268.409	24.052	865.256	677.310
269.424	23.735	864.789	675.680
270.439	23.807	864.997	676.055
271.453	23.751	863.696	674.769
272.468	23.614	862.083	672.926
273.482	23.328	862.379	672.016
274.497	23.510	861.722	672.133
275.512	23.745	860.818	672.256
276.526	23.639	859.723	670.944
277.541	23.703	858.301	670.017
278.555	24.179	857.883	671.423
279.570	23.777	858.036	669.968
280.585	24.307	858.200	672.035
281.599	24.169	858.183	671.442
282.614	24.023	856.824	669.772
283.628	23.613	856.552	667.957
284.643	23.661	854.138	666.197
285.657	23.734	854.610	666.779
286.672	23.707	853.236	665.545
287.687	23.870	853.269	666.122
288.701	23.715	853.931	665.999
289.716	23.656	853.033	665.021
290.730	23.761	851.971	664.524
291.745	23.840	851.457	664.361
292.760	23.658	851.112	663.353
293.774	23.784	850.148	663.012
294.789	24.196	850.287	664.600
295.803	24.204	849.808	664.197
296.818	24.405	848.999	664.253
297.833	23.746	848.930	661.687
298.847	23.671	847.493	660.230
299.862	23.738	846.953	659.999
300.876	23.267	846.775	658.053
301.891	23.972	846.089	660.079
302.906	24.504	845.510	661.542
303.920	24.268	845.112	660.297
304.935	24.646	843.792	660.605
305.949	24.848	844.146	661.569
306.964	24.634	843.397	660.133
307.979	24.121	842.547	657.517
308.993	24.169	841.302	656.663
310.008	24.090	841.257	656.277
311.022	24.443	841.413	657.644
312.037	24.665	840.080	657.361
313.052	24.260	839.140	655.079
314.066	23.704	839.297	653.097
315.081	23.451	838.813	651.735
316.095	23.292	837.577	650.133
317.110	23.801	836.194	650.865
318.125	23.798	836.114	650.736
319.139	23.730	834.944	649.520
320.154	23.261	835.205	647.947
321.168	22.811	835.083	646.151
322.183	23.007	835.473	647.111
323.197	23.418	834.893	648.110
324.212	23.597	833.465	647.595
325.227	23.502	832.904	646.758
326.241	23.886	832.984	648.159
327.256	23.338	832.402	645.656
328.270	23.179	831.880	644.614
329.285	23.210	830.225	643.385
330.300	23.565	829.092	643.742
331.314	22.926	829.493	641.675
332.329	23.051	828.650	641.417
333.343	23.479	828.482	642.784
334.358	24.056	827.372	643.956
335.373	23.646	828.878	643.583
336.387	23.908	827.673	643.537
337.402	24.112	826.436	643.255
338.416	24.116	826.658	643.388
339.431	24.174	826.685	643.560
340.446	25.029	825.095	645.346
341.460	25.360	824.957	646.373
342.475	24.928	825.241	644.982
343.489	24.709	824.266	643.376
344.504	24.679	824.185	643.146
345.519	24.852	823.747	643.371
346.533	25.166	822.630	643.570
347.548	25.088	822.675	643.268
348.562	24.926	821.557	641.754
349.577	24.819	820.462	640.461
350.592	24.328	819.510	637.906
351.606	24.383	818.922	637.587
352.621	24.108	818.602	636.300
353.635	23.979	818.774	635.914
354.650	24.188	818.024	636.022
355.665	24.074	817.378	635.058
356.679	24.176	817.080	635.135
357.694	24.264	816.716	635.106
358.708	24.719	815.528	635.748
359.723	24.201	815.920	634.153
360.738	24.260	814.792	633.431
361.752	23.926	814.131	631.674
362.767	24.002	814.565	632.224
363.781	24.522	813.974	633.556
364.796	25.073	813.920	635.411
365.810	24.877	813.934	634.672
366.825	24.750	813.988	634.205
367.840	25.093	812.665	634.332
368.854	24.832	812.264	633.040
369.869	25.158	811.259	633.355
370.883	24.483	810.877	630.617
371.898	24.787	809.713	630.727
372.913	24.821	809.225	630.409
373.927	24.656	809.929	630.321
374.942	24.837	808.979	630.165
375.956	24.810	808.539	629.672
376.971	24.819	807.108	628.530
377.986	24.856	806.684	628.274
379.000	25.443	806.479	630.120
380.015	25.732	805.601	630.390
381.029	25.524	805.031	629.159
382.044	25.350	804.743	628.270
383.059	25.305	803.665	627.217
384.073	25.381	803.431	627.244
385.088	25.177	802.966	626.112
386.102	25.075	801.837	624.822
387.117	24.596	801.448	622.794
388.132	24.482	800.963	621.966
389.146	24.342	800.666	621.192
390.161	24.617	799.656	621.312
391.175	24.892	800.007	622.485
392.190	24.980	800.010	622.739
393.205	25.056	799.688	622.696
394.219	24.918	798.058	620.894
395.234	24.106	797.558	617.634
396.248	24.462	796.552	618.034
397.263	24.161	796.851	617.167
398.278	24.402	796.217	617.455
399.292	24.327	796.052	617.014
400.307	24.326	794.619	615.847
401.321	23.841	794.419	613.963
402.336	24.151	794.453	615.004
403.350	24.325	793.837	615.074
404.365	24.577	793.913	615.946
405.380	24.799	794.206	616.882
406.394	25.268	793.857	618.175
407.409	25.524	792.773	618.156
408.423	25.580	792.670	618.215
409.438	25.481	792.554	617.728
410.453	25.483	792.401	617.560
411.467	25.782	791.037	617.468
412.482	25.513	791.033	616.488
413.496	25.235	790.465	615.038
414.511	25.631	790.115	616.068
415.526	25.400	789.502	614.744
416.540	25.175	789.781	614.139
417.555	25.330	789.395	614.315
418.569	25.190	788.469	613.059
419.584	25.283	788.265	613.166
420.599	25.581	787.609	613.617
421.613	161.797	1369.781	1795.260
422.628	140.075	1454.584	1795.277
