DTS Sentinel unit serial number:	SN413079Multiplexer serial number:	ORYXHardware model number:	OX4-SRSoftware version number:	ORYX F/W v4.00 Oryx Data Collector v3.7.2.0data status	okinstallation	princeton_trtdifferential loss correction	single-endedforward channel	channel 3reverse channel	N/Adate	2019/09/12time	09:50:11forward acquisition time	60.00reverse acquisition time	0.00gamma	496.2192k internal	0.2300k external	0.2300temperature offset calibration	1.0035default loss term (dB/km)	0.3790temperature slope calibration	1.0000multiplexer offset coefficient	1.0000multiplexer slope coefficient	1.0000fibre end	0.00T internal ref (°C)	36.02T ext. ref 1 (°C)	1.85T ext. ref 2 (°C)	32.44length (m)	temperature (°C)	Stokes	anti-Stokes-747.200	6.704	0.251	-0.191
-746.185	318.984	-0.170	0.328
-745.171	230.434	0.149	0.248
-744.156	-200.000	0.033	0.267
-743.142	613.923	-0.152	0.389
-742.127	-200.000	0.022	0.195
-741.112	26.414	0.153	0.130
-740.098	-200.000	-0.079	0.402
-739.083	248.890	-0.079	0.136
-738.069	-12.023	0.078	-0.052
-737.054	-200.000	0.025	-0.247
-736.039	-200.000	0.018	-0.103
-735.025	94.470	0.233	0.270
-734.010	-113.329	-0.313	0.063
-732.996	14.651	-0.110	0.087
-731.981	44.193	0.127	-0.119
-730.966	506.402	0.066	-0.157
-729.952	345.271	-0.010	0.019
-728.937	-28.285	0.310	-0.182
-727.923	-134.972	-0.309	0.038
-726.908	-187.624	-0.223	-0.003
-725.894	199.705	-0.131	-0.204
-724.879	-70.699	-0.113	-0.044
-723.864	-107.052	-0.285	-0.064
-722.850	-47.137	0.044	-0.022
-721.835	44.442	0.274	0.256
-720.821	-139.795	0.344	0.037
-719.806	-200.000	-0.017	-0.249
-718.791	-68.948	0.306	-0.120
-717.777	-200.000	-0.011	0.064
-716.762	-200.000	-0.057	-0.281
-715.748	-112.180	0.110	0.023
-714.733	-34.378	0.206	-0.115
-713.718	218.193	-0.121	0.198
-712.704	8.765	0.158	-0.121
-711.689	-142.854	0.267	-0.026
-710.675	-98.267	-0.373	-0.098
-709.660	-62.157	-0.121	-0.051
-708.645	97.409	-0.132	-0.154
-707.631	-129.439	-0.179	0.025
-706.616	583.642	0.010	-0.025
-705.602	-200.000	0.002	0.109
-704.587	-200.000	0.039	0.424
-703.572	290.379	0.117	0.217
-702.558	111.527	0.150	0.185
-701.543	-87.581	0.341	0.105
-700.529	-200.000	-0.031	-0.192
-699.514	-139.980	0.035	0.004
-698.499	14.021	-0.282	0.224
-697.485	-39.384	-0.173	-0.092
-696.470	167.816	-0.128	0.185
-695.456	-200.000	0.014	-0.333
-694.441	-55.815	0.074	-0.033
-693.426	-166.448	0.347	-0.015
-692.412	52.615	0.143	0.139
-691.397	-114.628	-0.351	0.068
-690.383	497.177	-0.119	0.280
-689.368	207.389	0.070	-0.111
-688.354	-134.865	-0.345	0.043
-687.339	-40.960	0.154	0.081
-686.324	709.434	0.051	-0.138
-685.310	800.000	-0.063	-0.179
-684.295	70.830	0.138	-0.145
-683.281	200.639	0.064	0.100
-682.266	9.253	0.077	-0.059
-681.251	33.870	-0.189	-0.167
-680.237	359.766	-0.179	-0.364
-679.222	-83.454	-0.219	-0.071
-678.208	-48.063	0.025	0.012
-677.193	-68.302	0.214	0.085
-676.178	386.796	0.108	0.228
-675.164	-69.345	-0.050	0.019
-674.149	42.054	-0.175	-0.162
-673.135	-200.000	0.044	-0.356
-672.120	42.465	0.129	-0.119
-671.105	386.781	0.135	0.285
-670.091	-200.000	0.032	-0.276
-669.076	800.000	-0.050	-0.175
-668.062	-200.000	-0.036	0.253
-667.047	-200.000	0.027	-0.263
-666.032	781.363	-0.039	-0.109
-665.018	-80.347	0.187	-0.064
-664.003	247.036	0.064	-0.110
-662.989	-110.722	-0.271	-0.057
-661.974	667.640	0.166	0.437
-660.959	0.901	-0.186	0.135
-659.945	70.289	-0.117	-0.122
-658.930	736.910	-0.059	-0.160
-657.916	86.238	-0.063	-0.070
-656.901	-200.000	-0.040	0.330
-655.886	-45.156	-0.249	-0.126
-654.872	-113.471	0.212	-0.042
-653.857	-200.000	-0.023	0.155
-652.843	-104.355	0.184	0.043
-651.828	-9.949	-0.098	-0.066
-650.814	5.802	0.143	-0.107
-649.799	218.011	-0.176	0.285
-648.784	304.304	0.038	-0.071
-647.770	-105.649	0.160	-0.037
-646.755	-200.000	-0.028	0.179
-645.741	-200.000	0.025	-0.222
-644.726	-128.895	0.476	-0.068
-643.711	-27.524	0.472	-0.279
-642.697	-178.772	-0.216	-0.005
-641.682	22.262	-0.196	0.163
-640.668	-134.809	-0.169	0.021
-639.653	-32.561	0.220	0.124
-638.638	-104.493	-0.115	-0.027
-637.624	305.721	-0.094	0.178
-636.609	601.969	-0.031	-0.078
-635.595	800.000	0.033	0.097
-634.580	300.158	0.029	-0.055
-633.565	-200.000	-0.019	0.093
-632.551	-115.323	-0.165	-0.032
-631.536	36.911	0.126	0.113
-630.522	-200.000	-0.026	-0.240
-629.507	-70.018	-0.258	-0.100
-628.492	139.033	-0.108	0.144
-627.478	-75.157	-0.310	0.113
-626.463	-129.564	0.231	-0.032
-625.449	-100.754	0.441	-0.110
-624.434	95.202	-0.132	-0.153
-623.419	-16.429	-0.107	0.069
-622.405	60.385	0.117	-0.118
-621.390	-161.046	-0.286	-0.015
-620.376	-200.000	-0.061	-0.326
-619.361	800.000	0.093	-0.303
-618.346	800.000	0.072	0.233
-617.332	-106.121	-0.387	0.088
-616.317	-73.754	-0.413	0.153
-615.303	93.140	-0.065	-0.075
-614.288	11.622	0.125	-0.097
-613.273	-56.370	-0.198	-0.089
-612.259	18.025	-0.191	-0.155
-611.244	-11.089	-0.269	0.180
-610.230	296.725	-0.103	-0.192
-609.215	110.358	-0.210	0.256
-608.201	82.717	-0.142	-0.156
-607.186	800.000	0.087	-0.263
-606.171	12.763	-0.109	-0.085
-605.157	-13.665	0.097	0.064
-604.142	-65.490	-0.248	-0.101
-603.128	124.421	0.153	0.195
-602.113	78.327	-0.067	-0.073
-601.098	-107.079	-0.114	-0.025
-600.084	-200.000	0.036	0.330
-599.069	-200.000	0.007	-0.032
-598.055	-152.251	0.388	-0.028
-597.040	-200.000	0.002	-0.077
-596.025	133.899	0.149	-0.195
-595.011	462.072	-0.098	-0.222
-593.996	-200.000	-0.006	-0.289
-592.982	103.420	0.176	-0.210
-591.967	11.300	-0.305	0.237
-590.952	-68.073	0.173	0.068
-589.938	-3.372	0.125	-0.088
-588.923	275.013	0.029	-0.053
-587.909	-31.324	-0.306	0.175
-586.894	-200.000	0.021	0.328
-585.879	33.906	0.062	-0.055
-584.865	755.020	0.022	-0.059
-583.850	-9.221	-0.118	-0.080
-582.836	683.029	0.085	0.225
-581.821	800.000	-0.174	-0.731
-580.806	-50.257	0.060	-0.029
-579.792	450.898	-0.090	-0.202
-578.777	-34.196	-0.133	0.074
-577.763	-200.000	-0.021	-0.225
-576.748	69.411	-0.160	-0.167
-575.733	303.882	0.058	-0.109
-574.719	-147.404	0.237	0.020
-573.704	-149.156	-0.234	-0.019
-572.690	577.578	-0.020	-0.050
-571.675	-200.000	0.035	0.222
-570.661	-30.023	-0.187	0.108
-569.646	-75.700	-0.142	-0.051
-568.631	800.000	-0.142	-0.446
-567.617	-67.180	0.140	0.056
-566.602	800.000	0.077	0.225
-565.588	117.845	0.135	0.169
-564.573	10.502	-0.179	0.138
-563.558	800.000	-0.065	0.206
-562.544	800.000	-0.052	0.158
-561.529	-137.221	0.395	-0.046
-560.515	146.673	-0.034	-0.046
-559.500	316.289	0.121	0.232
-558.485	-12.357	0.386	0.255
-557.471	-39.009	-0.055	-0.029
-556.456	-131.116	-0.221	0.030
-555.442	-10.625	-0.187	-0.125
-554.427	88.532	-0.299	0.336
-553.412	-67.951	0.276	0.109
-552.398	-169.635	-0.231	-0.009
-551.383	-119.231	0.249	0.044
-550.369	800.000	-0.049	-0.149
-549.354	-137.777	-0.008	0.001
-548.339	800.000	0.095	0.365
-547.325	-115.568	0.303	-0.058
-546.310	0.839	0.171	0.124
-545.296	39.915	0.065	0.059
-544.281	-150.261	0.074	0.006
-543.266	800.000	-0.014	-0.053
-542.252	-146.367	-0.224	0.020
-541.237	-134.295	0.245	0.030
-540.223	-79.756	0.345	0.118
-539.208	-46.166	-0.142	-0.071
-538.193	60.567	-0.193	0.194
-537.179	25.355	-0.261	0.220
-536.164	-145.380	-0.054	-0.005
-535.150	-143.225	-0.238	-0.023
-534.135	800.000	0.088	0.358
-533.121	-62.236	-0.212	0.089
-532.106	800.000	-0.113	-0.481
-531.091	-79.762	0.263	0.090
-530.077	-88.687	0.113	0.034
-529.062	-200.000	-0.022	0.162
-528.048	-200.000	0.025	0.198
-527.033	-139.090	0.487	-0.053
-526.018	-25.163	-0.340	0.204
-525.004	-58.589	-0.319	-0.140
-523.989	69.045	0.183	0.190
-522.975	222.445	0.076	0.123
-521.960	-200.000	0.010	-0.081
-520.945	-200.000	0.016	-0.230
-519.931	-200.000	0.025	0.200
-518.916	477.357	-0.115	0.264
-517.902	105.914	-0.110	-0.132
-516.887	133.203	-0.093	0.121
-515.872	-147.990	-0.043	-0.004
-514.858	-183.063	-0.163	-0.003
-513.843	-99.568	0.026	-0.007
-512.829	117.463	0.016	-0.020
-511.814	69.652	0.148	0.154
-510.799	272.165	-0.117	-0.209
-509.785	31.288	-0.350	-0.304
-508.770	800.000	-0.024	-0.084
-507.756	234.024	-0.087	0.145
-506.741	800.000	-0.060	0.220
-505.726	-19.937	0.185	0.115
-504.712	460.953	-0.118	-0.266
-503.697	800.000	-0.046	-0.133
-502.683	-66.950	-0.250	0.100
-501.668	219.409	0.048	-0.078
-500.653	151.239	-0.086	0.118
-499.639	203.940	-0.141	-0.220
-498.624	17.600	0.182	0.146
-497.610	221.407	0.138	-0.224
-496.595	-67.048	-0.037	0.015
-495.581	35.490	-0.073	-0.064
-494.566	-193.883	-0.145	0.001
-493.551	226.697	-0.011	-0.018
-492.537	-200.000	0.005	0.030
-491.522	-49.482	0.258	-0.124
-490.508	51.222	-0.153	0.147
-489.493	800.000	-0.145	0.429
-488.478	197.629	-0.181	-0.280
-487.464	3.157	0.229	-0.168
-486.449	-39.698	0.178	0.094
-485.435	21.241	0.169	-0.139
-484.420	133.907	0.083	-0.109
-483.405	104.255	-0.071	0.084
-482.391	800.000	-0.067	0.291
-481.376	-200.000	-0.032	-0.323
-480.362	266.652	-0.109	-0.192
-479.347	46.298	0.132	-0.123
-478.332	148.641	0.177	0.242
-477.318	800.000	0.069	0.224
-476.303	15.390	0.168	-0.133
-475.289	471.137	0.107	0.242
-474.274	308.028	0.175	0.329
-473.259	-200.000	0.036	-0.273
-472.245	-85.134	-0.091	0.029
-471.230	-55.352	0.213	0.097
-470.216	-5.459	-0.075	0.052
-469.201	232.927	-0.135	-0.225
-468.186	-99.468	0.234	0.059
-467.172	-200.000	-0.024	0.170
-466.157	581.391	-0.118	0.292
-465.143	-10.282	0.279	0.187
-464.128	-156.166	0.224	-0.014
-463.113	-200.000	0.211	-0.001
-462.099	242.099	-0.026	-0.044
-461.084	172.447	-0.128	0.186
-460.070	-147.496	0.227	0.019
-459.055	-200.000	0.002	-0.091
-458.040	-37.607	0.198	0.107
-457.026	800.000	-0.074	-0.228
-456.011	224.723	0.111	-0.181
-454.997	32.535	0.299	0.261
-453.982	66.569	-0.222	0.227
-452.968	-77.358	-0.345	0.121
-451.953	-113.869	0.188	-0.037
-450.938	-200.000	-0.025	-0.224
-449.924	14.599	-0.131	-0.103
-448.909	86.732	-0.326	0.363
-447.895	127.076	-0.081	0.104
-446.880	-38.768	-0.044	-0.023
-445.865	-128.783	0.269	0.038
-444.851	-80.186	-0.479	-0.162
-443.836	-35.209	-0.121	0.066
-442.822	72.686	-0.162	-0.170
-441.807	-87.537	0.338	-0.103
-440.792	37.668	0.165	-0.148
-439.778	146.518	0.219	0.296
-438.763	64.948	0.203	0.207
-437.749	-65.403	0.290	0.118
-436.734	-70.616	0.187	0.071
-435.719	-100.453	-0.166	-0.042
-434.705	-146.599	0.244	0.021
-433.690	122.426	-0.182	0.229
-432.676	-70.869	-0.175	0.066
-431.661	-15.273	0.233	0.150
-430.646	-165.677	0.127	-0.006
-429.632	108.515	-0.170	-0.205
-428.617	800.000	-0.065	-0.229
-427.603	338.674	0.055	-0.108
-426.588	-200.000	0.077	0.354
-425.573	800.000	0.064	-0.187
-424.559	-111.995	0.069	-0.014
-423.544	40.247	-0.012	0.011
-422.530	-167.619	0.246	-0.010
-421.515	-200.000	-0.047	0.320
-420.500	800.000	0.012	0.041
-419.486	29.098	0.363	0.310
-418.471	-132.013	-0.262	0.034
-417.457	-200.000	0.017	0.141
-416.442	-81.052	0.229	0.076
-415.428	38.779	0.200	-0.180
-414.413	-200.000	-0.027	-0.197
-413.398	-0.810	0.257	-0.183
-412.384	-69.730	-0.057	-0.022
-411.369	-30.867	-0.368	0.210
-410.355	399.072	-0.180	-0.380
-409.340	-200.000	-0.003	-0.166
-408.325	213.156	-0.166	-0.264
-407.311	-200.000	-0.026	-0.213
-406.296	800.000	-0.064	-0.251
-405.282	-200.000	-0.092	-0.455
-404.267	206.842	0.078	-0.122
-403.252	106.202	-0.023	0.028
-402.238	232.940	-0.144	-0.239
-401.223	431.647	-0.015	-0.033
-400.209	-200.000	-0.051	0.239
-399.194	199.452	0.237	-0.365
-398.179	-200.000	-0.051	-0.407
-397.165	-146.104	0.101	0.009
-396.150	109.413	0.200	-0.241
-395.136	-200.000	0.088	-0.404
-394.121	-114.300	0.215	-0.042
-393.106	111.603	-0.192	0.233
-392.092	-42.810	0.224	0.115
-391.077	97.660	-0.151	0.175
-390.063	181.655	-0.087	0.128
-389.048	57.659	0.079	0.077
-388.033	21.585	-0.248	0.203
-387.019	800.000	0.065	0.216
-386.004	247.730	-0.050	0.085
-384.990	174.037	-0.206	0.300
-383.975	80.928	-0.085	-0.092
-382.960	328.711	-0.038	-0.073
-381.946	800.000	-0.022	-0.086
-380.931	100.147	-0.175	-0.204
-379.917	-200.000	0.034	0.244
-378.902	-100.284	-0.368	0.092
-377.888	42.382	-0.151	-0.138
-376.873	313.575	0.112	-0.212
-375.858	291.354	0.080	-0.147
-374.844	-200.000	0.000	-0.091
-373.829	800.000	0.109	0.335
-372.815	140.193	0.121	-0.160
-371.800	750.862	0.137	-0.370
-370.785	-95.074	0.273	0.074
-369.771	-71.136	-0.145	-0.055
-368.756	329.866	0.059	-0.114
-367.742	-200.000	-0.012	-0.165
-366.727	-44.488	0.041	0.021
-365.712	-144.453	-0.168	-0.016
-364.698	-166.846	-0.322	-0.013
-363.683	626.442	-0.172	0.437
-362.669	165.847	-0.047	0.067
-361.654	399.968	0.125	-0.263
-360.639	192.070	0.008	0.012
-359.625	13.342	0.228	-0.178
-358.610	679.837	-0.064	0.167
-357.596	800.000	-0.080	-0.276
-356.581	-200.000	0.021	-0.195
-355.566	-200.000	-0.023	0.128
-354.552	237.048	0.154	0.256
-353.537	-24.973	0.049	-0.029
-352.523	18.754	-0.022	0.018
-351.508	-41.223	-0.159	0.082
-350.493	-27.434	-0.159	0.093
-349.479	-64.979	-0.204	-0.083
-348.464	252.523	0.139	0.237
-347.450	-187.666	0.389	0.005
-346.435	99.976	0.131	-0.153
-345.420	96.902	-0.090	0.104
-344.406	-78.229	-0.041	0.014
-343.391	352.294	0.096	-0.190
-342.377	-6.772	0.148	0.101
-341.362	118.334	0.142	0.176
-340.348	-69.404	-0.107	-0.041
-339.333	23.505	-0.161	0.133
-338.318	-104.314	-0.317	0.074
-337.304	-34.376	-0.271	0.149
-336.289	-12.348	0.286	-0.188
-335.275	-10.560	0.161	0.107
-334.260	241.614	0.137	0.230
-333.245	612.773	-0.079	-0.199
-332.231	-200.000	0.051	0.317
-331.216	369.287	0.098	-0.199
-330.202	248.578	0.011	0.018
-329.187	-14.575	-0.078	-0.050
-328.172	103.058	-0.193	0.228
-327.158	-154.659	0.206	0.014
-326.143	197.994	0.217	0.333
-325.129	64.739	0.197	0.199
-324.114	800.000	0.061	0.172
-323.099	38.118	-0.149	-0.133
-322.085	-200.000	0.005	-0.276
-321.070	-200.000	-0.002	-0.036
-320.056	-200.000	-0.018	0.107
-319.041	-55.104	-0.475	-0.215
-318.026	-49.718	-0.189	-0.090
-317.012	-100.617	0.133	-0.033
-315.997	9.071	0.085	-0.064
-314.983	-95.112	-0.278	-0.075
-313.968	87.854	0.190	-0.211
-312.953	800.000	-0.024	0.069
-311.939	224.772	0.009	-0.015
-310.924	21.194	0.218	0.177
-309.910	-20.539	-0.056	-0.034
-308.895	-3.238	-0.062	-0.043
-307.880	-75.944	-0.134	-0.047
-306.866	286.443	0.040	-0.073
-305.851	131.876	-0.271	-0.350
-304.837	-121.333	0.271	0.045
-303.822	-200.000	-0.038	-0.207
-302.807	-10.138	-0.104	-0.069
-301.793	425.139	-0.144	0.312
-300.778	-67.090	0.297	-0.117
-299.764	-200.000	0.113	0.000
-298.749	-110.813	-0.276	-0.057
-297.735	687.014	0.056	0.146
-296.720	800.000	0.032	0.127
-295.705	-102.333	-0.168	0.040
-294.691	118.764	0.269	-0.334
-293.676	-200.000	0.025	-0.111
-292.662	-65.125	-0.310	0.125
-291.647	83.703	0.375	0.410
-290.632	-112.261	-0.050	-0.010
-289.618	-200.000	0.013	0.290
-288.603	108.921	0.404	0.484
-287.589	-103.497	0.137	0.032
-286.574	195.980	0.138	0.211
-285.559	58.991	-0.136	-0.134
-284.545	-200.000	0.034	-0.321
-283.530	-200.000	-0.026	0.191
-282.516	40.914	-0.156	0.141
-281.501	-68.064	-0.171	0.067
-280.486	-17.746	-0.040	-0.025
-279.472	-153.224	0.196	0.014
-278.457	-178.379	0.180	-0.004
-277.443	-55.184	-0.062	-0.028
-276.428	-49.799	-0.213	0.101
-275.413	110.380	-0.122	0.147
-274.399	-200.000	0.009	-0.257
-273.384	6.823	-0.129	-0.096
-272.370	-98.946	-0.180	-0.046
-271.355	187.945	-0.116	-0.174
-270.340	-177.427	0.346	-0.009
-269.326	-14.149	-0.349	-0.226
-268.311	800.000	0.147	-0.424
-267.297	-75.202	-0.107	0.038
-266.282	160.758	0.212	-0.296
-265.267	85.626	0.155	-0.171
-264.253	-19.381	0.172	0.107
-263.238	102.882	-0.198	-0.232
-262.224	555.145	-0.070	0.168
-261.209	800.000	0.055	-0.185
-260.195	-30.687	-0.051	0.029
-259.180	-40.734	-0.426	-0.221
-258.165	355.289	-0.062	0.123
-257.151	-96.647	0.348	0.092
-256.136	-200.000	0.007	-0.056
-255.122	85.685	-0.124	-0.137
-254.107	-120.364	0.222	-0.038
-253.092	99.486	-0.323	0.374
-252.078	-200.000	0.004	0.252
-251.063	-200.000	0.051	0.234
-250.049	-200.000	0.014	-0.102
-249.034	244.658	0.193	-0.325
-248.019	-80.027	-0.303	0.102
-247.005	91.141	-0.075	-0.084
-245.990	621.261	-0.074	0.187
-244.976	800.000	0.046	0.130
-243.961	-41.983	-0.277	-0.142
-242.946	30.278	-0.067	0.057
-241.932	-106.472	0.209	0.047
-240.917	-27.005	0.270	-0.158
-239.903	-195.945	0.068	-0.000
-238.888	-200.000	-0.046	-0.367
-237.873	800.000	0.064	-0.266
-236.859	-87.868	0.177	-0.053
-235.844	162.673	-0.101	-0.142
-234.830	-53.238	-0.277	-0.127
-233.815	31.194	0.172	-0.147
-232.800	112.421	0.109	0.132
-231.786	-200.000	0.002	-0.341
-230.771	800.000	0.019	0.075
-229.757	800.000	0.118	0.326
-228.742	377.057	0.149	0.305
-227.727	-161.239	0.602	0.031
-226.713	-56.055	-0.099	0.044
-225.698	-68.729	-0.261	0.101
-224.684	541.216	0.079	-0.188
-223.669	800.000	-0.066	-0.215
-222.655	654.309	-0.094	-0.242
-221.640	-142.238	-0.100	0.010
-220.625	171.089	0.102	-0.147
-219.611	74.718	-0.081	0.085
-218.596	728.385	-0.036	-0.097
-217.582	-14.617	0.206	0.132
-216.567	800.000	-0.136	0.585
-215.552	763.065	-0.066	0.178
-214.538	2.423	0.224	0.162
-213.523	235.186	0.033	-0.055
-212.509	43.591	-0.141	0.129
-211.494	-89.060	0.402	0.119
-210.479	-75.951	-0.344	-0.122
-209.465	-30.187	0.154	-0.087
-208.450	-28.872	-0.331	-0.190
-207.436	-200.000	-0.054	-0.302
-206.421	800.000	0.064	0.225
-205.406	141.388	-0.075	-0.099
-204.392	-117.540	0.382	-0.069
-203.377	-134.609	-0.114	0.014
-202.363	30.905	-0.263	0.225
-201.348	171.846	-0.166	0.238
-200.333	-98.889	0.430	0.109
-199.319	102.742	-0.164	0.191
-198.304	-200.000	-0.001	0.159
-197.290	-17.222	0.202	-0.127
-196.275	-116.981	-0.331	-0.060
-195.260	-200.000	0.041	0.286
-194.246	4.788	0.224	-0.164
-193.231	800.000	0.092	0.261
-192.217	-15.310	-0.140	-0.089
-191.202	-142.508	-0.113	-0.011
-190.187	9.555	0.056	0.042
-189.173	-153.354	-0.082	-0.006
-188.158	245.257	-0.146	-0.244
-187.144	800.000	0.044	0.129
-186.129	194.340	0.130	0.197
-185.114	-200.000	0.019	0.199
-184.100	-200.000	-0.053	-0.242
-183.085	-135.076	-0.184	-0.022
-182.071	-51.384	0.072	-0.034
-181.056	-200.000	-0.021	-0.255
-180.042	-121.677	0.457	0.075
-179.027	17.281	0.133	0.105
-178.012	429.265	0.038	0.082
-176.998	72.111	0.200	-0.208
-175.983	404.518	-0.052	-0.109
-174.969	800.000	-0.039	0.130
-173.954	7.913	0.103	-0.077
-172.939	-185.032	0.149	0.002
-171.925	516.659	-0.067	-0.155
-170.910	-64.249	-0.209	-0.085
-169.896	398.692	-0.156	-0.326
-168.881	-130.557	0.262	-0.035
-167.866	196.277	0.107	0.163
-166.852	-200.000	-0.030	-0.210
-165.837	800.000	-0.026	0.077
-164.823	-200.000	-0.034	-0.193
-163.808	-25.171	0.217	-0.128
-162.793	-130.486	0.167	0.023
-161.779	-160.978	0.334	-0.017
-160.764	31.558	-0.161	0.138
-159.750	121.063	-0.129	-0.160
-158.735	65.835	-0.154	0.156
-157.720	800.000	-0.022	-0.085
-156.706	-139.040	0.105	-0.011
-155.691	-34.463	0.219	0.120
-154.677	-141.843	-0.466	-0.047
-153.662	-200.000	0.018	0.250
-152.647	122.336	-0.078	0.097
-151.633	800.000	-0.076	0.224
-150.618	800.000	0.096	0.288
-149.604	-37.546	-0.195	0.103
-148.589	342.976	-0.184	-0.360
-147.574	491.424	0.073	0.166
-146.560	23.468	0.153	0.125
-145.545	-142.262	-0.189	0.019
-144.531	5.687	0.079	-0.059
-143.516	386.232	-0.095	-0.196
-142.502	-195.825	-0.089	-0.001
-141.487	-183.054	0.275	-0.005
-140.472	692.553	0.045	0.117
-139.458	800.000	-0.010	0.034
-138.443	65.525	0.271	0.273
-137.429	-40.859	-0.237	-0.122
-136.414	800.000	-0.054	-0.180
-135.399	213.287	-0.298	-0.469
-134.385	-200.000	-0.037	-0.168
-133.370	273.800	0.088	0.155
-132.356	800.000	0.039	-0.155
-131.341	-200.000	0.025	-0.113
-130.326	153.579	0.232	0.317
-129.312	416.553	-0.177	0.376
-128.297	-79.878	-0.084	0.028
-127.283	-200.000	0.038	-0.224
-126.268	81.589	0.085	-0.091
-125.253	-60.169	0.533	-0.226
-124.239	-146.784	-0.141	0.012
-123.224	-174.153	0.347	-0.010
-122.210	-200.000	0.010	-0.187
-121.195	-116.244	0.172	-0.032
-120.180	464.114	0.200	-0.444
-119.166	-109.635	0.076	-0.016
-118.151	58.787	0.136	-0.133
-117.137	-58.551	0.034	-0.015
-116.122	136.273	-0.138	-0.180
-115.107	-22.027	0.173	0.105
-114.093	800.000	-0.148	0.429
-113.078	238.438	0.097	-0.160
-112.064	71.636	0.210	-0.217
-111.049	25.029	-0.220	0.182
-110.034	77.778	-0.128	0.136
-109.020	478.352	-0.062	-0.140
-108.005	-7.672	0.065	0.043
-106.991	137.540	0.189	-0.246
-105.976	800.000	-0.057	-0.210
-104.962	-130.372	0.206	0.028
-103.947	22.444	-0.339	-0.275
-102.932	340.238	-0.100	0.195
-101.918	-30.387	-0.194	0.110
-100.903	-142.515	0.224	0.022
-99.889	126.704	-0.173	-0.218
-98.874	-200.000	-0.046	-0.301
-97.859	-200.000	-0.059	0.484
-96.845	3.654	-0.125	-0.091
-95.830	-98.478	0.175	0.045
-94.816	-135.134	0.458	0.055
-93.801	-84.065	-0.085	-0.027
-92.786	-124.687	-0.187	0.029
-91.772	225.337	0.095	0.153
-90.757	-91.164	-0.333	-0.095
-89.743	-200.000	-0.042	-0.243
-88.728	-57.950	-0.361	-0.157
-87.713	-142.705	-0.137	-0.013
-86.699	-66.332	-0.152	-0.060
-85.684	157.096	0.051	-0.070
-84.670	160.055	-0.178	0.247
-83.655	-157.416	-0.179	-0.011
-82.640	25.838	0.178	-0.147
-81.626	800.000	0.037	0.129
-80.611	-200.000	0.006	0.107
-79.597	64.391	-0.125	0.125
-78.582	-140.347	0.100	-0.010
-77.567	-200.000	0.078	0.362
-76.553	-20.779	0.300	0.183
-75.538	-200.000	0.036	-0.294
-74.524	-107.581	-0.306	-0.067
-73.509	-141.226	0.113	-0.011
-72.494	331.413	0.165	-0.316
-71.480	326.350	0.017	0.031
-70.465	-128.825	-0.294	-0.041
-69.451	128.253	-0.049	0.062
-68.436	-158.969	0.236	-0.013
-67.422	-65.892	-0.306	-0.121
-66.407	-115.616	0.230	-0.043
-65.392	571.860	-0.052	-0.125
-64.378	-200.000	-0.023	-0.124
-63.363	43.405	0.196	-0.178
-62.349	466.361	0.074	0.165
-61.334	33.674	-1.194	-1.031
-60.319	26.543	0.477	0.396
-59.305	773.297	-0.310	-0.841
-58.290	135.611	0.491	0.635
-57.276	453.388	0.563	1.238
-56.261	-200.000	90.195	518.417
-55.246	480.878	1388.188	3127.581
-54.232	147.795	2599.671	3479.453
-53.217	110.669	2221.852	2653.201
-52.203	45.880	1749.722	1606.869
-51.188	39.042	1556.693	1381.666
-50.173	36.530	1528.819	1339.489
-49.159	53.698	1577.010	1502.979
-48.144	57.509	1596.109	1547.973
-47.130	39.540	1553.228	1381.861
-46.115	36.239	1538.035	1345.318
-45.100	36.120	1534.762	1341.573
-44.086	36.072	1532.633	1339.325
-43.071	35.926	1530.928	1336.772
-42.057	35.895	1529.646	1335.384
-41.042	35.918	1527.889	1333.956
-40.027	36.009	1526.368	1333.207
-39.013	35.985	1524.790	1331.606
-37.998	35.981	1523.531	1330.425
-36.984	36.036	1522.219	1329.611
-35.969	35.967	1520.838	1327.876
-34.954	36.084	1519.370	1327.349
-33.940	36.069	1517.824	1325.837
-32.925	36.017	1516.908	1324.626
-31.911	36.043	1515.347	1323.394
-30.896	36.087	1514.131	1322.576
-29.881	36.152	1512.363	1321.429
-28.867	36.084	1511.304	1319.982
-27.852	36.086	1509.919	1318.736
-26.838	36.019	1508.501	1316.989
-25.823	36.061	1507.061	1315.964
-24.809	36.028	1505.128	1314.000
-23.794	36.028	1504.086	1313.038
-22.779	36.044	1502.769	1311.947
-21.765	36.070	1501.721	1311.155
-20.750	35.981	1500.592	1309.512
-19.736	36.078	1499.199	1308.901
-18.721	36.105	1497.852	1307.856
-17.706	35.955	1497.112	1306.140
-16.692	35.993	1495.931	1305.315
-15.677	36.001	1495.072	1304.572
-14.663	36.018	1494.190	1303.867
-13.648	35.968	1492.850	1302.306
-12.633	35.997	1492.057	1301.756
-11.619	35.986	1491.049	1300.750
-10.604	35.942	1490.479	1299.907
-9.590	35.946	1489.230	1298.792
-8.575	35.975	1488.491	1298.291
-7.560	36.005	1487.816	1297.856
-6.546	35.949	1487.222	1296.910
-5.531	36.037	1485.583	1296.020
-4.517	35.881	1484.973	1294.385
-3.502	35.918	1483.526	1293.323
-2.487	36.114	1482.460	1293.654
-1.473	35.955	1481.783	1291.945
-0.458	35.929	1479.965	1290.135
0.556	36.109	1470.919	1280.913
1.571	33.420	1444.407	1240.133
2.586	30.066	1383.310	1166.502
3.600	28.278	1300.091	1085.636
4.615	26.857	1252.127	1037.373
5.629	22.463	1193.263	964.510
6.644	11.490	1102.739	835.413
7.659	3.236	1058.268	760.982
8.673	2.196	1052.227	751.458
9.688	1.913	1049.126	747.790
10.702	1.660	1047.672	745.446
11.717	1.643	1046.033	744.133
12.731	5.006	1049.690	763.148
13.746	15.430	1064.922	825.685
14.761	23.671	1075.407	874.509
15.775	25.149	1076.581	882.667
16.790	25.248	1076.380	882.913
17.804	25.072	1075.652	881.372
18.819	24.974	1074.309	879.713
19.834	25.022	1073.954	879.578
20.848	25.051	1073.581	879.339
21.863	25.259	1073.285	880.039
22.877	25.234	1072.420	879.129
23.892	25.193	1072.175	878.646
24.907	25.069	1070.996	876.997
25.921	25.130	1070.640	876.926
26.936	25.162	1069.449	876.030
27.950	25.034	1068.752	874.755
28.965	25.117	1067.684	874.209
29.980	25.038	1065.987	872.355
30.994	24.846	1064.792	870.370
32.009	25.281	1063.572	871.407
33.023	25.196	1063.447	870.816
34.038	24.993	1062.614	869.073
35.053	25.028	1061.407	868.175
36.067	25.147	1061.052	868.387
37.082	25.127	1059.958	867.316
38.096	25.160	1059.587	867.097
39.111	25.367	1059.193	867.697
40.126	25.458	1057.999	867.084
41.140	25.421	1056.642	865.713
42.155	25.018	1055.376	862.659
43.169	24.791	1053.618	860.059
44.184	24.819	1052.660	859.332
45.199	24.676	1052.063	858.084
46.213	24.810	1050.551	857.415
47.228	24.763	1049.740	856.452
48.242	24.860	1049.566	856.700
49.257	25.000	1048.553	856.467
50.271	25.032	1047.904	856.014
51.286	25.256	1047.301	856.513
52.301	25.133	1046.755	855.404
53.315	25.279	1045.396	854.914
54.330	25.169	1045.468	854.373
55.344	25.110	1044.081	852.884
56.359	25.216	1043.338	852.705
57.374	25.074	1042.469	851.244
58.388	24.832	1041.815	849.489
59.403	24.809	1040.643	848.346
60.417	24.946	1040.219	848.578
61.432	24.847	1038.861	846.926
62.447	24.800	1038.736	846.527
63.461	24.847	1038.097	846.152
64.476	24.875	1037.014	845.329
65.490	24.859	1036.391	844.667
66.505	24.789	1035.357	843.421
67.520	24.933	1034.427	843.270
68.534	24.815	1034.187	842.441
69.549	24.733	1032.922	840.949
70.563	24.429	1031.789	838.528
71.578	24.357	1030.893	837.386
72.593	24.325	1030.007	836.441
73.607	24.277	1028.692	835.074
74.622	24.313	1028.073	834.666
75.636	24.339	1027.515	834.260
76.651	24.549	1026.812	834.598
77.666	24.515	1026.313	833.962
78.680	24.490	1024.798	832.537
79.695	24.544	1023.982	832.055
80.709	24.501	1023.845	831.668
81.724	24.689	1023.074	831.843
82.739	24.630	1022.471	831.007
83.753	24.659	1021.248	830.071
84.768	25.012	1020.707	831.200
85.782	25.273	1020.493	832.162
86.797	25.526	1019.315	832.298
87.812	25.466	1018.660	831.410
88.826	25.214	1017.580	829.290
89.841	25.322	1016.969	829.220
90.855	25.432	1016.210	829.034
91.870	25.327	1015.529	827.923
92.884	25.401	1014.909	827.684
93.899	25.350	1013.657	826.357
94.914	25.151	1012.606	824.509
95.928	25.331	1012.200	824.936
96.943	25.379	1011.370	824.404
97.957	25.061	1010.133	821.864
98.972	24.748	1009.147	819.555
99.987	24.662	1007.642	817.869
101.001	24.768	1007.272	817.982
102.016	25.049	1007.001	818.972
103.030	25.098	1005.746	818.104
104.045	25.076	1004.985	817.310
105.060	24.889	1003.792	815.419
106.074	24.681	1002.706	813.514
107.089	24.764	1001.686	812.995
108.103	25.047	1001.463	814.026
109.118	25.206	1000.685	814.044
110.133	24.868	999.868	811.773
111.147	24.876	998.353	810.509
112.162	24.758	997.357	809.097
113.176	24.431	996.612	806.943
114.191	24.746	995.781	807.618
115.206	24.788	995.123	807.206
116.220	24.544	993.887	805.032
117.235	24.351	992.692	803.121
118.249	24.502	992.199	803.333
119.264	24.456	991.760	802.698
120.279	24.466	990.988	802.045
121.293	24.372	990.034	800.784
122.308	24.325	989.675	800.212
123.322	24.462	988.526	799.824
124.337	24.406	987.436	798.619
125.352	24.375	986.734	797.843
126.366	24.067	984.589	794.666
127.381	23.644	983.470	791.804
128.395	24.071	983.380	793.564
129.410	24.790	983.028	796.413
130.424	24.963	982.013	796.290
131.439	24.976	981.049	795.494
132.454	25.006	980.063	794.757
133.468	25.032	979.190	794.095
134.483	24.968	978.236	792.969
135.497	24.934	977.930	792.499
136.512	25.046	977.377	792.477
137.527	25.249	976.664	792.728
138.541	25.272	975.581	791.877
139.556	25.377	974.696	791.551
140.570	25.189	973.995	790.083
141.585	25.289	973.585	790.125
142.600	25.207	973.035	789.246
143.614	25.156	972.036	788.143
144.629	25.335	971.017	788.033
145.643	25.495	970.649	788.365
146.658	25.463	969.499	787.220
147.673	25.230	968.046	784.952
148.687	25.225	966.917	783.946
149.702	25.073	966.212	782.642
150.716	24.941	964.949	780.972
151.731	24.854	963.930	779.699
152.746	25.060	963.268	779.991
153.760	25.242	962.878	780.398
154.775	25.301	962.361	780.167
155.789	25.374	961.563	779.768
156.804	25.276	960.519	778.430
157.819	25.346	959.094	777.507
158.833	25.286	958.821	776.956
159.848	25.516	957.724	776.996
160.862	25.489	956.933	776.169
161.877	25.362	956.091	774.868
162.892	25.207	955.514	773.665
163.906	25.255	954.601	773.064
164.921	25.456	953.134	772.672
165.935	25.398	952.235	771.624
166.950	25.389	951.495	770.918
167.964	25.398	950.657	770.208
168.979	25.348	949.726	769.174
169.994	25.138	948.750	767.416
171.008	25.092	947.177	765.878
172.023	25.318	946.801	766.471
173.037	25.383	946.463	766.406
174.052	25.308	944.939	764.784
175.067	25.118	943.800	762.990
176.081	24.910	943.688	761.945
177.096	25.106	942.462	761.721
178.110	25.108	941.771	761.105
179.125	24.970	940.606	759.509
180.140	24.643	940.062	757.615
181.154	24.759	938.614	756.875
182.169	24.750	938.347	756.554
183.183	24.990	938.209	757.389
184.198	25.210	937.749	757.883
185.213	25.305	937.231	757.795
186.227	25.125	936.631	756.485
187.242	25.309	936.334	756.955
188.256	25.319	935.620	756.351
189.271	25.342	934.513	755.487
190.286	25.426	933.871	755.254
191.300	25.326	932.863	753.954
192.315	24.840	931.450	750.706
193.329	23.941	929.766	745.514
194.344	23.621	928.638	743.205
195.359	24.090	929.026	745.415
196.373	24.932	929.461	749.222
197.388	25.094	929.671	750.003
198.402	25.308	928.691	750.042
199.417	25.037	928.370	748.582
200.432	25.243	927.831	748.941
201.446	25.081	926.817	747.382
202.461	24.892	925.798	745.707
203.475	24.957	925.716	745.846
204.490	24.514	924.380	742.862
205.504	23.358	922.182	736.226
206.519	23.693	921.814	737.261
207.534	24.636	922.062	741.306
208.548	24.762	921.803	741.557
209.563	25.145	921.553	742.876
210.577	25.257	920.573	742.484
211.592	24.852	919.997	740.277
212.607	25.324	920.153	742.290
213.621	25.727	918.810	742.805
214.636	25.411	918.542	741.217
215.650	25.472	918.052	741.008
216.665	25.372	917.613	740.179
217.680	25.372	917.539	740.053
218.694	25.359	917.105	739.582
219.709	25.223	915.558	737.712
220.723	24.765	914.610	734.999
221.738	24.964	914.620	735.761
222.753	25.280	913.503	736.092
223.767	25.191	912.883	735.166
224.782	25.168	912.278	734.516
225.796	25.448	912.001	735.376
226.811	25.524	911.377	735.118
227.826	25.199	910.002	732.617
228.840	24.330	908.516	727.811
229.855	24.170	908.254	726.882
230.869	24.435	907.688	727.446
231.884	24.081	906.611	725.080
232.899	24.149	906.717	725.374
233.913	25.002	906.514	728.620
234.928	25.167	905.955	728.776
235.942	25.011	905.557	727.758
236.957	25.106	904.500	727.231
237.972	24.823	903.382	725.119
238.986	24.777	902.989	724.556
240.001	24.848	902.138	724.094
241.015	24.872	901.571	723.673
242.030	25.066	901.114	724.025
243.045	25.043	900.670	723.510
244.059	25.156	900.435	723.714
245.074	25.349	899.552	723.719
246.088	25.201	899.528	723.038
247.103	24.912	898.073	720.644
248.117	24.920	897.452	720.111
249.132	25.347	897.867	722.100
250.147	25.899	897.383	723.865
251.161	25.799	896.964	723.060
252.176	26.090	896.427	723.731
253.190	26.075	895.950	723.221
254.205	26.060	895.407	722.660
255.220	26.268	895.327	723.365
256.234	26.318	894.113	722.521
257.249	26.223	893.504	721.583
258.263	26.153	892.570	720.487
259.278	26.000	892.617	719.848
260.293	26.111	892.196	719.889
261.307	26.165	891.956	719.847
262.322	26.050	890.963	718.522
263.336	26.019	890.094	717.637
264.351	25.606	888.835	714.916
265.366	24.595	886.600	709.046
266.380	24.029	885.677	706.002
267.395	24.866	886.227	709.698
268.409	25.552	886.778	712.796
269.424	25.572	886.059	712.233
270.439	25.740	885.813	712.637
271.453	25.915	884.875	712.512
272.468	25.785	884.232	711.419
273.482	26.025	883.926	712.054
274.497	26.214	883.691	712.550
275.512	26.061	882.500	710.925
276.526	25.450	881.009	707.257
277.541	25.517	881.000	707.451
278.555	26.005	880.407	708.830
279.570	25.935	879.594	707.837
280.585	25.610	879.334	706.289
281.599	25.585	878.670	705.594
282.614	25.819	877.852	705.794
283.628	25.381	876.944	703.286
284.643	24.839	876.432	700.693
285.657	25.542	875.879	702.937
286.672	25.233	875.339	701.236
287.687	24.811	874.487	698.842
288.701	25.178	874.272	700.041
289.716	25.623	873.900	701.418
290.730	25.291	872.517	698.952
291.745	25.033	872.200	697.633
292.760	25.013	871.153	696.656
293.774	24.808	870.956	695.639
294.789	25.698	871.768	699.686
295.803	26.436	871.664	702.407
296.818	26.533	870.841	702.059
297.833	26.587	870.194	701.685
298.847	26.276	869.115	699.548
299.862	25.855	868.158	697.090
300.876	26.042	868.190	697.774
301.891	26.374	867.761	698.652
302.906	26.467	866.786	698.166
303.920	26.009	866.124	695.802
304.935	26.012	864.960	694.818
305.949	26.246	865.324	695.952
306.964	26.411	864.729	696.047
307.979	26.205	863.946	694.563
308.993	26.211	863.383	694.071
310.008	26.390	863.235	694.577
311.022	26.649	862.873	695.220
312.037	26.465	861.703	693.512
313.052	26.193	861.688	692.395
314.066	25.900	861.010	690.664
315.081	25.410	859.052	687.160
316.095	24.674	857.749	683.244
317.110	25.238	858.186	685.686
318.125	26.091	858.406	689.063
319.139	25.709	857.345	686.694
320.154	24.483	855.329	680.349
321.168	24.095	854.322	678.011
322.183	24.579	854.857	680.217
323.197	25.628	855.030	684.287
324.212	25.852	855.193	685.207
325.227	26.095	854.823	685.776
326.241	26.244	854.382	685.929
327.256	26.146	853.700	684.947
328.270	25.978	853.079	683.752
329.285	25.938	852.199	682.835
330.300	25.724	851.153	681.127
331.314	25.600	850.231	679.858
332.329	25.667	849.714	679.638
333.343	26.091	849.647	681.124
334.358	26.361	849.165	681.696
335.373	26.353	848.881	681.379
336.387	26.359	848.137	680.742
337.402	26.551	848.201	681.457
338.416	26.713	847.530	681.466
339.431	26.731	847.070	681.106
340.446	26.826	846.296	680.781
341.460	27.060	846.134	681.466
342.475	26.869	845.583	680.245
343.489	26.679	844.766	678.817
344.504	26.614	844.138	678.011
345.519	26.833	844.197	678.815
346.533	27.197	843.563	679.608
347.548	27.177	843.310	679.268
348.562	27.115	842.951	678.687
349.577	27.129	842.250	678.116
350.592	27.005	841.688	677.141
351.606	27.073	841.155	676.904
352.621	27.013	840.633	676.202
353.635	27.028	839.949	675.647
354.650	26.895	839.543	674.767
355.665	26.559	838.924	672.959
356.679	25.487	836.968	667.354
357.694	25.260	836.629	666.181
358.708	25.945	836.179	668.306
359.723	25.909	835.810	667.816
360.738	26.168	835.755	668.676
361.752	26.718	835.180	670.190
362.767	26.845	834.810	670.303
363.781	26.891	835.166	670.698
364.796	27.388	834.698	672.099
365.810	27.395	834.506	671.911
366.825	27.554	833.929	671.975
367.840	27.415	833.985	671.448
368.854	27.229	832.927	669.850
369.869	26.757	832.098	667.388
370.883	26.802	831.325	666.875
371.898	26.822	830.574	666.286
372.913	26.921	830.007	666.136
373.927	26.831	829.501	665.339
374.942	26.877	828.890	664.961
375.956	26.957	828.611	664.969
376.971	27.078	827.981	664.847
377.986	27.251	827.173	664.775
379.000	27.469	827.022	665.390
380.015	27.470	826.571	664.971
381.029	27.223	825.906	663.478
382.044	27.176	825.290	662.751
383.059	27.486	824.681	663.334
384.073	27.416	824.277	662.696
385.088	27.280	823.752	661.720
386.102	27.564	822.782	661.913
387.117	27.263	822.334	660.404
388.132	27.034	822.229	659.428
389.146	27.016	821.317	658.572
390.161	26.456	820.197	655.587
391.175	26.493	819.872	655.402
392.190	27.160	819.971	657.840
393.205	27.150	819.474	657.346
394.219	26.103	817.612	652.014
395.234	24.416	815.423	644.129
396.248	23.630	814.529	640.529
397.263	24.614	815.492	644.784
398.278	26.595	816.674	652.810
399.292	27.083	816.482	654.358
400.307	26.637	815.967	652.282
401.321	26.534	815.717	651.654
402.336	26.635	815.255	651.589
403.350	26.958	815.004	652.491
404.365	27.351	815.008	653.850
405.380	27.827	814.571	655.151
406.394	28.035	814.516	655.795
407.409	28.163	814.332	656.046
408.423	28.096	813.702	655.240
409.438	27.861	813.328	654.041
410.453	27.846	813.234	653.853
411.467	28.139	812.253	654.056
412.482	28.146	811.523	653.435
413.496	27.957	811.052	652.322
414.511	28.137	811.273	653.087
415.526	28.000	810.943	652.274
416.540	28.085	810.430	652.107
417.555	28.181	809.435	651.588
418.569	27.832	808.531	649.561
419.584	27.801	807.955	648.932
420.599	27.678	808.001	648.474
421.613	103.517	1279.672	1431.456
422.628	89.178	1348.382	1431.567
