DTS Sentinel unit serial number:	SN413079Multiplexer serial number:	ORYXHardware model number:	OX4-SRSoftware version number:	ORYX F/W v4.00 Oryx Data Collector v3.7.2.0data status	okinstallation	princeton_trtdifferential loss correction	single-endedforward channel	channel 3reverse channel	N/Adate	2019/09/16time	17:32:35forward acquisition time	60.00reverse acquisition time	0.00gamma	496.2192k internal	0.2297k external	0.2297temperature offset calibration	0.9949default loss term (dB/km)	0.3790temperature slope calibration	1.0000multiplexer offset coefficient	1.0000multiplexer slope coefficient	1.0000fibre end	0.00T internal ref (°C)	38.42T ext. ref 1 (°C)	15.48T ext. ref 2 (°C)	32.43length (m)	temperature (°C)	Stokes	anti-Stokes-747.200	-73.844	-0.222	0.083
-746.185	-120.227	-0.272	0.047
-745.171	93.030	-0.056	-0.064
-744.156	-33.214	-0.263	0.149
-743.142	424.305	-0.091	0.200
-742.127	-38.712	-0.369	0.199
-741.112	-27.558	0.224	0.133
-740.098	293.338	-0.029	0.054
-739.083	353.824	0.061	-0.124
-738.069	158.947	0.113	0.160
-737.054	235.966	0.255	-0.431
-736.039	-101.132	-0.340	-0.085
-735.025	23.409	-0.126	-0.106
-734.010	102.586	-0.093	0.111
-732.996	-200.000	-0.051	-0.230
-731.981	-189.496	0.271	-0.003
-730.966	-51.896	0.087	0.041
-729.952	-19.593	-0.264	0.167
-728.937	148.162	-0.145	-0.199
-727.923	-200.000	-0.011	0.114
-726.908	-200.000	-0.009	-0.568
-725.894	-6.809	0.073	0.050
-724.879	12.334	-0.106	-0.084
-723.864	-80.790	-0.354	0.120
-722.850	551.557	0.012	0.029
-721.835	-46.667	-0.212	0.106
-720.821	154.675	0.044	0.062
-719.806	509.846	0.079	-0.187
-718.791	13.172	-0.226	-0.178
-717.777	114.693	0.125	-0.156
-716.762	179.679	0.040	-0.059
-715.748	-94.163	-0.137	0.038
-714.733	24.325	0.087	-0.074
-713.718	68.578	-0.123	0.129
-712.704	529.396	-0.007	-0.017
-711.689	117.776	-0.084	0.105
-710.675	-200.000	-0.046	0.289
-709.660	-200.000	-0.017	0.195
-708.645	-182.569	0.384	0.007
-707.631	185.539	0.047	-0.071
-706.616	-200.000	-0.000	0.138
-705.602	-7.970	-0.084	0.058
-704.587	-82.824	-0.576	-0.190
-703.572	60.332	0.044	-0.044
-702.558	-21.427	-0.282	0.175
-701.543	492.148	-0.054	-0.126
-700.529	-200.000	-0.025	0.213
-699.514	800.000	-0.087	0.299
-698.499	136.793	-0.248	-0.330
-697.485	180.626	-0.037	-0.055
-696.470	-199.001	-0.179	-0.001
-695.456	800.000	0.075	-0.326
-694.441	349.494	-0.057	-0.114
-693.426	-59.563	-0.287	-0.126
-692.412	-33.432	-0.229	0.129
-691.397	589.348	-0.075	-0.189
-690.383	800.000	0.043	0.183
-689.368	10.936	-0.280	-0.218
-688.354	-60.853	0.176	-0.076
-687.339	-163.487	-0.237	0.011
-686.324	-113.946	0.273	0.054
-685.310	200.036	0.163	-0.255
-684.295	-41.131	0.015	-0.008
-683.281	86.369	-0.054	0.060
-682.266	-200.000	0.021	0.293
-681.251	161.614	-0.214	0.305
-680.237	327.724	-0.178	0.348
-679.222	-200.000	0.017	0.124
-678.208	-96.677	-0.048	0.013
-677.193	-200.000	0.041	0.413
-676.178	-200.000	-0.036	-0.234
-675.164	127.275	-0.120	-0.155
-674.149	-94.547	-0.170	0.047
-673.135	-87.086	-0.229	-0.071
-672.120	-142.412	-0.153	-0.015
-671.105	-200.000	0.009	0.164
-670.091	-119.282	0.237	0.042
-669.076	800.000	0.071	0.225
-668.062	91.110	0.103	-0.117
-667.047	-93.951	-0.103	-0.029
-666.032	-21.984	-0.055	-0.034
-665.018	-182.060	0.196	0.004
-664.003	-43.792	-0.274	0.141
-662.989	48.927	-0.216	0.207
-661.974	-200.000	-0.002	0.118
-660.959	-41.952	0.185	0.097
-659.945	-22.953	-0.094	-0.058
-658.930	800.000	-0.111	-0.337
-657.916	-73.987	-0.116	-0.043
-656.901	-58.201	-0.366	0.162
-655.886	131.014	0.168	-0.220
-654.872	-38.790	-0.134	-0.072
-653.857	321.544	0.085	-0.164
-652.843	-15.477	-0.054	-0.035
-651.828	391.032	-0.160	-0.338
-650.814	-7.843	-0.114	-0.079
-649.799	62.421	-0.087	0.088
-648.784	-87.878	0.169	0.052
-647.770	34.472	-0.030	0.027
-646.755	-200.000	-0.026	-0.164
-645.741	-124.743	-0.163	0.026
-644.726	-150.922	0.198	0.015
-643.711	800.000	-0.042	0.119
-642.697	-159.036	0.146	-0.008
-641.682	800.000	-0.054	-0.154
-640.668	266.645	0.067	-0.119
-639.653	797.195	0.023	0.066
-638.638	645.238	0.081	0.210
-637.624	-200.000	-0.035	-0.312
-636.609	28.135	0.369	0.316
-635.595	-146.212	0.342	-0.031
-634.580	42.636	-0.147	-0.136
-633.565	60.661	-0.144	0.145
-632.551	-155.178	0.346	-0.023
-631.536	-46.228	-0.139	-0.070
-630.522	56.878	0.021	-0.021
-629.507	-200.000	-0.004	0.181
-628.492	-34.275	0.118	-0.066
-627.478	40.042	-0.206	-0.188
-626.463	-139.228	0.288	-0.032
-625.449	-37.959	-0.120	0.065
-624.434	-200.000	0.013	-0.085
-623.419	255.381	0.094	0.163
-622.405	-121.517	-0.361	-0.061
-621.390	-200.000	-0.067	0.341
-620.376	800.000	-0.087	-0.277
-619.361	-200.000	-0.016	-0.169
-618.346	-200.000	-0.236	-0.000
-617.332	24.025	0.293	-0.246
-616.317	5.386	-0.082	0.061
-615.303	-141.388	0.217	-0.022
-614.288	-29.617	-0.089	0.052
-613.273	800.000	-0.070	-0.216
-612.259	-144.297	-0.384	-0.036
-611.244	-141.757	-0.144	-0.015
-610.230	800.000	0.073	0.286
-609.215	-86.574	-0.267	0.083
-608.201	-43.341	0.123	0.063
-607.186	-200.000	0.072	-0.396
-606.171	188.047	0.053	0.081
-605.157	77.523	0.028	0.030
-604.142	52.457	-0.260	-0.252
-603.128	-32.313	0.234	-0.133
-602.113	98.990	0.098	-0.114
-601.098	-71.370	-0.195	-0.074
-600.084	-11.800	0.019	-0.013
-599.069	88.698	-0.040	0.045
-598.055	-200.000	0.042	-0.202
-597.040	-200.000	-0.001	-0.552
-596.025	800.000	-0.085	0.348
-595.011	-108.293	0.267	0.059
-593.996	8.776	-0.227	-0.173
-592.982	246.835	-0.028	-0.049
-591.967	126.238	-0.157	0.201
-590.952	58.815	0.118	0.118
-589.938	-91.336	-0.140	-0.041
-588.923	-76.419	-0.217	-0.078
-587.909	42.269	-0.060	-0.055
-586.894	-200.000	-0.016	-0.082
-585.879	-104.895	0.160	0.037
-584.865	-121.919	0.148	0.025
-583.850	-49.232	-0.208	0.101
-582.836	-23.107	0.223	0.136
-581.821	181.642	0.065	-0.096
-580.806	-137.075	-0.119	0.014
-579.792	123.645	0.121	-0.154
-578.777	-107.373	0.123	0.027
-577.763	484.922	-0.045	0.104
-576.748	215.450	-0.165	0.266
-575.733	316.045	-0.162	0.310
-574.719	133.271	-0.108	-0.142
-573.704	-200.000	-0.027	0.139
-572.690	120.531	-0.126	0.159
-571.675	123.866	0.087	0.111
-570.661	692.064	0.053	-0.141
-569.646	65.544	-0.178	0.183
-568.631	71.170	0.139	-0.146
-567.617	-200.000	-0.074	-0.363
-566.602	550.155	0.101	0.246
-565.588	248.644	0.068	-0.116
-564.573	-45.894	0.203	0.102
-563.558	800.000	-0.049	0.149
-562.544	800.000	0.062	0.207
-561.529	38.924	-0.105	0.095
-560.515	234.742	-0.134	-0.224
-559.500	51.330	-0.098	0.094
-558.485	-111.659	0.085	-0.017
-557.471	800.000	0.048	0.168
-556.456	42.785	0.163	0.150
-555.442	-156.969	-0.238	-0.015
-554.427	-200.000	-0.040	0.408
-553.412	109.564	-0.281	0.341
-552.398	346.926	-0.043	0.086
-551.383	90.921	-0.183	-0.208
-550.369	-200.000	-0.034	-0.257
-549.354	398.133	-0.117	0.249
-548.339	800.000	-0.099	-0.402
-547.325	340.027	-0.062	0.123
-546.310	534.095	-0.070	0.167
-545.296	-200.000	-0.027	-0.171
-544.281	-35.112	0.265	0.147
-543.266	-200.000	-0.046	0.000
-542.252	-147.526	-0.093	0.008
-541.237	160.204	-0.092	-0.129
-540.223	257.129	-0.159	-0.277
-539.208	253.949	-0.080	0.139
-538.193	-100.180	0.085	-0.021
-537.179	239.944	0.081	0.136
-536.164	143.183	0.213	-0.287
-535.150	-120.066	-0.293	-0.051
-534.135	166.148	0.158	-0.227
-533.121	185.936	-0.136	0.204
-532.106	-200.000	-0.066	-0.492
-531.091	800.000	0.086	-0.343
-530.077	-96.155	-0.247	-0.066
-529.062	221.196	0.198	0.323
-528.048	137.813	0.107	-0.141
-527.033	655.969	0.058	-0.151
-526.018	699.789	-0.082	-0.218
-525.004	-80.205	0.150	0.051
-523.989	-200.000	0.045	0.336
-522.975	-200.000	-0.010	0.239
-521.960	316.113	-0.114	0.218
-520.945	800.000	-0.022	-0.064
-519.931	89.717	0.160	0.181
-518.916	-200.000	0.046	-0.241
-517.902	-140.564	0.178	0.019
-516.887	187.574	-0.192	0.290
-515.872	-149.377	-0.060	-0.005
-514.858	23.527	-0.251	-0.209
-513.843	-100.060	0.273	-0.069
-512.829	-50.339	0.190	-0.091
-511.814	166.500	0.005	-0.007
-510.799	2.681	-0.090	-0.066
-509.785	-200.000	0.091	-0.432
-508.770	-134.621	-0.190	-0.023
-507.756	312.098	-0.093	-0.176
-506.741	800.000	-0.089	0.255
-505.726	57.763	-0.161	-0.159
-504.712	188.277	0.323	-0.489
-503.697	-74.799	-0.285	0.103
-502.683	129.803	-0.056	0.073
-501.668	800.000	-0.108	0.309
-500.653	-75.690	-0.180	0.065
-499.639	-168.666	-0.291	0.011
-498.624	-58.520	0.207	-0.091
-497.610	156.797	-0.141	-0.198
-496.595	275.304	0.061	-0.110
-495.581	-97.542	0.122	-0.032
-494.566	-144.207	-0.186	-0.018
-493.551	107.642	0.135	0.162
-492.537	800.000	-0.162	-0.544
-491.522	179.690	0.099	-0.146
-490.508	181.000	0.278	0.414
-489.493	-160.992	-0.083	-0.004
-488.478	2.600	-0.194	-0.142
-487.464	-175.918	0.327	0.009
-486.449	129.417	-0.090	-0.116
-485.435	131.237	-0.069	-0.090
-484.420	75.654	-0.106	0.113
-483.405	163.614	0.118	-0.168
-482.391	-20.323	0.094	-0.058
-481.376	165.923	0.105	0.150
-480.362	-32.661	0.450	0.253
-479.347	-62.788	-0.280	-0.117
-478.332	-200.000	0.044	-0.421
-477.318	297.996	-0.081	-0.151
-476.303	5.196	-0.237	0.177
-475.289	-200.000	0.006	-0.107
-474.274	-87.578	-0.128	0.039
-473.259	-24.373	0.180	-0.108
-472.245	-64.364	0.319	0.131
-471.230	800.000	-0.163	-0.455
-470.216	304.361	-0.162	-0.303
-469.201	-74.214	-0.157	0.057
-468.186	-66.918	-0.169	-0.067
-467.172	-200.000	-0.007	-0.299
-466.157	154.371	0.246	-0.340
-465.143	-121.076	-0.163	0.028
-464.128	-149.776	-0.213	-0.017
-463.113	800.000	-0.037	0.106
-462.099	-69.039	-0.143	-0.055
-461.084	330.050	-0.025	0.048
-460.070	-106.542	0.255	0.057
-459.055	-25.763	0.044	0.026
-458.040	-47.265	-0.094	0.046
-457.026	29.393	-0.167	-0.143
-456.011	-200.000	-0.056	-0.427
-454.997	-200.000	0.007	0.211
-453.982	-149.865	0.204	0.016
-452.968	800.000	0.022	-0.087
-451.953	800.000	-0.038	0.119
-450.938	-64.890	0.121	-0.050
-449.924	800.000	0.034	0.127
-448.909	-160.089	0.144	0.008
-447.895	800.000	0.066	-0.204
-446.880	465.020	-0.122	0.276
-445.865	442.470	0.159	0.352
-444.851	280.958	0.062	-0.112
-443.836	-80.335	0.136	-0.046
-442.822	-200.000	-0.011	-0.136
-441.807	528.550	0.086	-0.205
-440.792	-6.452	-0.061	-0.042
-439.778	2.642	-0.166	0.121
-438.763	128.900	0.119	-0.153
-437.749	800.000	0.067	0.188
-436.734	138.028	-0.253	0.334
-435.719	88.530	0.178	-0.200
-434.705	-161.920	0.121	-0.006
-433.690	138.251	-0.254	-0.336
-432.676	-95.858	-0.199	-0.054
-431.661	-200.000	0.043	0.328
-430.646	237.182	-0.190	0.318
-429.632	-113.054	0.108	-0.021
-428.617	-152.003	0.242	-0.018
-427.603	800.000	0.100	0.426
-426.588	-200.000	-0.031	-0.147
-425.573	160.103	-0.146	-0.205
-424.559	-181.116	-0.342	0.007
-423.544	800.000	0.078	-0.313
-422.530	378.047	-0.039	0.081
-421.515	22.865	0.183	0.151
-420.500	-122.993	-0.344	-0.056
-419.486	-119.531	-0.067	-0.012
-418.471	-200.000	0.011	-0.236
-417.457	284.043	0.139	-0.251
-416.442	20.459	0.227	-0.185
-415.428	-200.000	0.011	0.135
-414.413	64.647	0.108	0.110
-413.398	800.000	0.050	0.203
-412.384	800.000	-0.019	-0.083
-411.369	275.697	-0.015	-0.027
-410.355	135.922	0.129	-0.169
-409.340	88.491	0.202	0.226
-408.325	131.966	0.135	-0.175
-407.311	-140.896	-0.137	0.014
-406.296	321.319	0.058	-0.111
-405.282	304.245	-0.018	-0.033
-404.267	-200.000	0.006	0.072
-403.252	149.849	-0.098	0.134
-402.238	699.349	-0.087	-0.231
-401.223	48.399	0.149	0.140
-400.209	-200.000	-0.038	0.424
-399.194	35.671	0.198	0.175
-398.179	154.133	-0.107	0.148
-397.165	45.174	-0.115	-0.107
-396.150	-137.449	0.230	0.026
-395.136	-200.000	-0.013	0.103
-394.121	-103.710	-0.035	-0.008
-393.106	-132.465	-0.138	-0.018
-392.092	-94.861	0.201	0.055
-391.077	-95.031	0.104	0.028
-390.063	289.896	0.128	-0.235
-389.048	31.748	0.390	-0.338
-388.033	116.175	0.178	-0.219
-387.019	202.912	-0.168	-0.262
-386.004	-200.000	-0.029	-0.149
-384.990	-37.958	-0.175	0.094
-383.975	579.394	-0.119	0.295
-382.960	-84.510	0.150	0.048
-381.946	72.758	-0.136	-0.143
-380.931	494.884	0.040	0.092
-379.917	-63.751	0.065	0.027
-378.902	-200.000	0.002	0.241
-377.888	530.329	0.042	-0.101
-376.873	800.000	0.045	-0.144
-375.858	73.557	-0.256	0.269
-374.844	800.000	-0.132	0.388
-373.829	-94.039	0.539	-0.149
-372.815	-109.395	0.333	-0.071
-371.800	-197.548	-0.270	0.002
-370.785	800.000	-0.021	-0.083
-369.771	-200.000	-0.017	0.173
-368.756	719.222	-0.081	-0.216
-367.742	-118.999	-0.087	-0.015
-366.727	-73.360	-0.057	-0.021
-365.712	551.362	-0.078	0.188
-364.698	-200.000	0.014	-0.180
-363.683	-53.364	-0.360	-0.166
-362.669	595.278	-0.049	-0.121
-361.654	103.514	-0.084	-0.100
-360.639	267.047	0.118	0.207
-359.625	13.653	0.317	0.248
-358.610	-200.000	0.001	0.164
-357.596	283.941	-0.101	0.183
-356.581	-200.000	0.001	-0.097
-355.566	-200.000	-0.027	-0.354
-354.552	650.410	0.063	0.162
-353.537	-26.515	-0.093	-0.055
-352.523	-69.097	-0.105	-0.040
-351.508	800.000	-0.067	-0.195
-350.493	-200.000	-0.026	-0.151
-349.479	-183.703	-0.213	-0.004
-348.464	-30.553	0.166	-0.095
-347.450	48.197	0.079	-0.074
-346.435	190.283	0.057	0.085
-345.420	-200.000	-0.020	0.403
-344.406	-200.000	-0.006	-0.036
-343.391	-200.000	-0.015	0.107
-342.377	800.000	-0.101	-0.282
-341.362	-179.431	-0.029	0.001
-340.348	84.335	-0.308	-0.338
-339.333	-160.614	-0.057	-0.003
-338.318	70.029	-0.081	0.084
-337.304	101.399	0.342	0.400
-336.289	535.123	0.073	0.174
-335.275	350.127	0.095	-0.188
-334.260	196.594	0.071	0.108
-333.245	-109.877	-0.523	-0.110
-332.231	-120.925	-0.022	0.004
-331.216	-68.758	0.090	0.035
-330.202	203.252	-0.035	0.055
-329.187	-54.696	0.119	0.054
-328.172	800.000	-0.052	0.151
-327.158	-200.000	-0.026	0.280
-326.143	406.707	0.076	0.161
-325.129	-200.000	-0.051	0.288
-324.114	-63.642	-0.164	-0.068
-323.099	-200.000	0.001	-0.116
-322.085	-117.691	-0.285	-0.052
-321.070	-88.087	-0.450	0.136
-320.056	-200.000	-0.352	-0.000
-319.041	42.046	-0.026	0.024
-318.026	446.420	0.110	0.243
-317.012	-200.000	0.002	0.315
-315.997	22.027	-0.062	-0.051
-314.983	-142.897	-0.501	0.049
-313.968	-200.000	-0.004	-0.033
-312.953	-96.928	-0.115	0.030
-311.939	252.300	0.109	-0.186
-310.924	33.290	-0.178	0.155
-309.910	-73.378	-0.213	-0.078
-308.895	-200.000	-0.017	0.134
-307.880	669.560	0.046	-0.120
-306.866	90.163	0.252	0.283
-305.851	800.000	0.102	0.326
-304.837	92.710	-0.205	0.232
-303.822	402.731	0.183	0.385
-302.807	679.428	0.130	0.339
-301.793	259.513	0.099	-0.172
-300.778	-90.760	-0.205	-0.059
-299.764	43.974	0.210	-0.193
-298.749	-48.030	-0.137	0.066
-297.735	104.515	-0.151	0.179
-296.720	-133.335	-0.293	-0.037
-295.705	-80.309	0.444	0.149
-294.691	-38.832	0.426	-0.225
-293.676	743.451	0.050	0.134
-292.662	-63.180	0.268	-0.111
-291.647	-131.127	0.444	-0.059
-290.632	617.049	-0.080	-0.201
-289.618	-107.724	0.225	0.049
-288.603	-6.583	0.175	0.119
-287.589	-200.000	-0.032	-0.176
-286.574	231.220	0.042	-0.069
-285.559	-200.000	-0.029	0.173
-284.545	-200.000	0.003	-0.066
-283.530	-43.480	-0.127	-0.065
-282.516	-13.156	-0.161	0.105
-281.501	800.000	-0.051	0.161
-280.486	-159.081	0.027	0.002
-279.472	800.000	0.040	-0.151
-278.457	160.022	-0.094	-0.131
-277.443	209.392	0.086	-0.135
-276.428	265.424	-0.130	0.227
-275.413	-200.000	0.265	0.001
-274.399	138.592	-0.078	0.102
-273.384	-42.658	-0.063	0.032
-272.370	-200.000	0.003	-0.097
-271.355	168.791	0.071	-0.102
-270.340	213.689	-0.005	-0.008
-269.326	555.385	0.087	-0.210
-268.311	-102.360	0.069	0.017
-267.297	44.180	0.231	-0.213
-266.282	800.000	-0.082	0.233
-265.267	35.782	-0.060	0.052
-264.253	-85.988	0.175	0.054
-263.238	-200.000	0.021	-0.147
-262.224	-62.962	0.275	0.114
-261.209	128.409	0.164	0.209
-260.195	326.930	-0.092	-0.176
-259.180	213.901	-0.144	-0.228
-258.165	-200.000	0.031	0.377
-257.151	475.728	-0.088	0.198
-256.136	800.000	0.060	-0.215
-255.122	-113.088	-0.134	0.026
-254.107	-200.000	-0.013	0.067
-253.092	29.570	0.300	-0.255
-252.078	205.484	0.062	0.096
-251.063	236.479	0.079	-0.131
-250.049	-200.000	0.011	0.253
-249.034	-4.052	0.206	0.143
-248.019	128.962	0.232	-0.296
-247.005	-18.942	0.122	0.076
-245.990	-42.315	-0.077	0.039
-244.976	-81.293	-0.390	-0.129
-243.961	37.007	0.217	-0.192
-242.946	-200.000	-0.046	0.327
-241.932	199.334	-0.347	0.532
-240.917	259.199	-0.220	0.381
-239.903	376.890	0.050	0.101
-238.888	-19.560	0.092	-0.057
-237.873	-200.000	-0.046	-0.272
-236.859	745.190	-0.075	-0.202
-235.844	24.355	0.148	0.122
-234.830	140.489	-0.252	-0.333
-233.815	17.377	-0.052	0.041
-232.800	35.975	0.068	0.060
-231.786	751.704	-0.167	0.453
-230.771	63.045	0.100	-0.100
-229.757	-95.167	0.071	0.019
-228.742	-72.186	0.292	-0.108
-227.727	15.926	-0.158	-0.125
-226.713	181.869	-0.193	-0.285
-225.698	113.295	-0.122	0.148
-224.684	800.000	-0.081	0.268
-223.669	27.966	0.133	-0.112
-222.655	-32.990	-0.305	-0.169
-221.640	-53.806	0.182	0.083
-220.625	-93.421	0.474	-0.131
-219.611	-147.672	0.088	-0.007
-218.596	-30.779	0.265	0.150
-217.582	-42.898	-0.285	0.145
-216.567	-200.000	-0.037	0.190
-215.552	-49.102	-0.171	-0.082
-214.538	95.392	0.174	0.198
-213.523	-92.096	0.212	0.060
-212.509	-72.555	-0.196	-0.073
-211.494	132.452	0.092	-0.119
-210.479	495.327	-0.036	-0.083
-209.465	99.607	-0.178	-0.206
-208.450	204.672	0.250	0.388
-207.436	-200.000	-0.008	0.046
-206.421	20.366	-0.136	0.110
-205.406	-184.592	-0.089	-0.001
-204.392	-20.226	-0.321	0.198
-203.377	-90.049	-0.219	0.064
-202.363	-34.814	-0.225	-0.123
-201.348	-8.502	-0.194	0.131
-200.333	95.191	0.077	0.088
-199.319	-65.396	0.209	-0.084
-198.304	-200.000	-0.040	-0.227
-197.290	510.862	0.061	0.143
-196.275	160.291	-0.164	-0.229
-195.260	256.010	0.026	0.045
-194.246	111.213	0.150	-0.181
-193.231	-31.057	0.095	0.053
-192.217	-200.000	0.007	0.050
-191.202	-1.096	0.202	-0.143
-190.187	-157.028	-0.182	-0.011
-189.173	-145.169	0.158	-0.014
-188.158	800.000	-0.065	0.198
-187.144	-40.947	-0.239	0.124
-186.129	111.798	-0.141	-0.170
-185.114	-15.874	0.106	-0.068
-184.100	-59.133	-0.135	-0.058
-183.085	-200.000	0.012	-0.076
-182.071	105.956	-0.105	0.124
-181.056	79.649	-0.204	0.219
-180.042	-95.770	0.182	0.048
-179.027	-71.114	0.347	-0.130
-178.012	-200.000	0.059	-0.334
-176.998	647.027	0.107	0.274
-175.983	6.192	-0.423	0.313
-174.969	-24.521	0.301	-0.179
-173.954	254.306	0.095	-0.163
-172.939	445.230	0.106	0.233
-171.925	-149.388	0.147	0.012
-170.910	316.219	0.161	-0.304
-169.896	253.430	-0.081	-0.138
-168.881	-90.735	0.183	0.053
-167.866	168.200	0.090	0.128
-166.852	400.467	0.078	-0.163
-165.837	530.573	0.027	0.063
-164.823	-129.904	0.164	0.022
-163.808	295.523	0.073	0.134
-162.793	9.900	0.383	-0.290
-161.779	174.105	0.175	0.253
-160.764	800.000	0.133	0.428
-159.750	21.978	0.085	-0.069
-158.735	-52.952	0.447	-0.205
-157.720	31.279	-0.212	0.182
-156.706	59.173	-0.154	-0.152
-155.691	19.363	0.180	0.144
-154.677	800.000	-0.021	0.062
-153.662	-200.000	-0.032	-0.404
-152.647	219.829	-0.064	0.103
-151.633	-53.015	0.034	-0.016
-150.618	5.898	0.175	-0.129
-149.604	-117.718	-0.006	0.001
-148.589	800.000	0.087	-0.296
-147.574	800.000	-0.075	-0.279
-146.560	-174.976	0.310	0.009
-145.545	-117.332	-0.031	-0.006
-144.531	38.230	-0.233	-0.207
-143.516	-50.840	0.128	0.060
-142.502	-200.000	0.037	0.284
-141.487	427.819	-0.151	-0.324
-140.472	-186.298	-0.240	0.003
-139.458	-200.000	-0.055	0.243
-138.443	800.000	-0.079	-0.217
-137.429	447.074	0.146	-0.320
-136.414	-200.000	-0.023	-0.222
-135.399	468.850	0.077	-0.173
-134.385	-139.535	-0.195	-0.021
-133.370	-200.000	0.002	0.098
-132.356	-125.392	-0.309	0.047
-131.341	800.000	-0.044	-0.155
-130.326	-98.090	0.439	-0.113
-129.312	-200.000	0.025	0.172
-128.297	-97.149	0.240	0.063
-127.283	712.705	-0.053	-0.141
-126.268	72.789	-0.028	-0.030
-125.253	-200.000	0.014	0.217
-124.239	-54.706	-0.200	0.090
-123.224	324.479	-0.060	0.114
-122.210	800.000	0.068	0.199
-121.195	173.803	0.089	0.128
-120.180	111.719	0.076	-0.091
-119.166	-9.457	0.327	-0.218
-118.151	116.170	-0.081	-0.098
-117.137	208.107	-0.205	0.319
-116.122	-78.287	-0.248	0.085
-115.107	-68.719	-0.232	-0.089
-114.093	-64.198	-0.187	0.076
-113.078	208.912	-0.078	0.122
-112.064	-200.000	0.029	0.436
-111.049	237.072	0.087	-0.143
-110.034	800.000	-0.143	-0.441
-109.020	-200.000	0.047	-0.289
-108.005	-42.315	-0.228	-0.116
-106.991	10.348	0.151	0.114
-105.976	-200.000	-0.006	0.393
-104.962	-200.000	-0.031	0.326
-103.947	-84.799	0.022	0.007
-102.932	122.649	0.099	-0.123
-101.918	-19.066	-0.105	0.065
-100.903	-50.670	0.185	0.087
-99.889	-200.000	-0.002	0.087
-98.874	-200.000	0.005	-0.390
-97.859	-200.000	-0.011	-0.276
-96.845	-106.364	-0.206	-0.046
-95.830	-200.000	-0.081	0.381
-94.816	-103.974	0.202	0.047
-93.801	460.126	-0.179	-0.397
-92.786	253.171	-0.029	0.049
-91.772	-26.009	0.066	0.039
-90.757	43.484	-0.151	0.138
-89.743	-107.238	0.346	-0.076
-88.728	7.427	-0.219	-0.163
-87.713	-76.198	0.420	-0.148
-86.699	-101.627	0.304	-0.074
-85.684	55.133	0.146	-0.141
-84.670	-200.000	0.004	0.157
-83.655	-10.037	0.155	0.103
-82.640	204.145	-0.160	-0.247
-81.626	-126.565	0.042	-0.006
-80.611	-50.272	0.157	0.074
-79.597	-88.444	-0.167	-0.050
-78.582	800.000	-0.064	-0.225
-77.567	-200.000	0.059	-0.449
-76.553	800.000	-0.053	-0.190
-75.538	-166.127	-0.064	0.003
-74.524	-76.534	0.206	-0.072
-73.509	104.915	-0.034	-0.040
-72.494	499.733	-0.044	0.100
-71.480	-10.459	-0.261	-0.172
-70.465	-200.000	-0.022	0.191
-69.451	-55.156	-0.096	0.043
-68.436	800.000	-0.067	-0.202
-67.422	-24.595	0.254	-0.150
-66.407	800.000	0.040	-0.169
-65.392	-200.000	-0.025	0.184
-64.378	-66.284	0.171	0.068
-63.363	-104.533	-0.226	0.052
-62.349	-148.369	0.723	-0.059
-61.334	56.889	-0.795	-0.770
-60.319	223.665	0.408	0.655
-59.305	-200.000	-0.053	-0.797
-58.290	261.768	0.584	1.007
-57.276	800.000	0.650	1.809
-56.261	-200.000	85.819	520.148
-55.246	503.361	1358.983	3124.420
-54.232	149.722	2567.229	3458.673
-53.217	112.585	2227.776	2680.620
-52.203	48.168	1757.794	1634.220
-51.188	41.322	1563.815	1405.755
-50.173	38.906	1535.830	1363.778
-49.159	55.102	1580.785	1518.204
-48.144	59.457	1600.947	1568.245
-47.130	42.020	1558.764	1405.899
-46.115	38.708	1543.435	1368.932
-45.100	38.476	1540.610	1364.756
-44.086	38.459	1538.088	1362.347
-43.071	38.360	1536.044	1359.792
-42.057	38.399	1534.158	1358.341
-41.042	38.246	1533.573	1356.708
-40.027	38.348	1531.604	1355.619
-39.013	38.378	1529.904	1354.270
-37.998	38.330	1528.584	1352.713
-36.984	38.426	1526.862	1351.804
-35.969	38.380	1526.120	1350.774
-34.954	38.434	1524.168	1349.367
-33.940	38.332	1523.276	1347.815
-32.925	38.456	1521.522	1347.067
-31.911	38.462	1520.513	1346.158
-30.896	38.600	1518.627	1345.383
-29.881	38.476	1517.593	1343.562
-28.867	38.407	1516.096	1341.714
-27.852	38.479	1514.509	1340.746
-26.838	38.516	1512.913	1339.534
-25.823	38.506	1511.580	1338.234
-24.809	38.517	1509.663	1336.558
-23.794	38.575	1508.653	1336.005
-22.779	38.494	1507.346	1334.244
-21.765	38.475	1506.370	1333.195
-20.750	38.528	1504.659	1331.991
-19.736	38.455	1503.842	1330.721
-18.721	38.431	1502.567	1329.372
-17.706	38.445	1501.618	1328.579
-16.692	38.399	1500.273	1327.022
-15.677	38.421	1499.557	1326.485
-14.663	38.292	1498.224	1324.378
-13.648	38.376	1497.367	1324.141
-12.633	38.341	1496.346	1322.946
-11.619	38.368	1495.069	1321.948
-10.604	38.351	1494.515	1321.288
-9.590	38.396	1493.330	1320.492
-8.575	38.338	1492.890	1319.663
-7.560	38.389	1491.850	1319.033
-6.546	38.389	1491.214	1318.420
-5.531	38.426	1490.148	1317.672
-4.517	38.309	1489.477	1316.236
-3.502	38.421	1488.343	1315.936
-2.487	38.408	1486.765	1314.404
-1.473	38.452	1485.831	1313.822
-0.458	38.460	1484.524	1312.668
0.556	36.674	1474.918	1300.815
1.571	33.161	1447.100	1252.941
2.586	28.840	1382.408	1169.396
3.600	26.662	1297.011	1084.045
4.615	24.962	1248.928	1033.961
5.629	23.530	1196.213	982.308
6.644	19.951	1117.172	898.775
7.659	16.278	1078.261	848.954
8.673	15.653	1073.339	841.877
9.688	15.478	1069.781	838.134
10.702	15.310	1068.500	836.223
11.717	15.479	1066.923	835.757
12.731	16.985	1067.559	843.674
13.746	20.300	1070.951	862.788
14.761	20.675	1070.655	864.340
15.775	18.477	1066.478	850.000
16.790	17.134	1063.655	841.030
17.804	15.930	1061.632	833.399
18.819	14.963	1060.040	827.295
19.834	14.427	1058.338	823.248
20.848	14.088	1057.163	820.592
21.863	13.803	1056.420	818.533
22.877	13.607	1055.367	816.682
23.892	13.508	1054.726	815.623
24.907	13.254	1053.995	813.738
25.921	13.345	1052.907	813.272
26.936	13.264	1052.574	812.544
27.950	13.444	1050.930	812.086
28.965	13.216	1050.589	810.632
29.980	13.376	1049.006	810.125
30.994	13.456	1047.816	809.527
32.009	13.534	1046.871	809.105
33.023	13.542	1046.361	808.677
34.038	13.483	1045.312	807.508
35.053	13.497	1044.029	806.515
36.067	13.363	1043.460	805.351
37.082	13.320	1042.367	804.223
38.096	13.488	1041.387	804.214
39.111	13.516	1040.628	803.691
40.126	13.476	1039.804	802.794
41.140	13.388	1038.694	801.438
42.155	13.288	1037.896	800.269
43.169	13.326	1036.978	799.670
44.184	13.227	1035.865	798.267
45.199	13.089	1035.160	796.984
46.213	13.276	1033.605	796.619
47.228	13.275	1032.670	795.823
48.242	13.260	1032.043	795.198
49.257	13.337	1031.302	794.927
50.271	13.296	1030.012	793.663
51.286	13.356	1029.127	793.200
52.301	13.372	1028.360	792.613
53.315	13.429	1027.292	791.996
54.330	13.380	1026.771	791.289
55.344	13.337	1025.774	790.244
56.359	13.297	1025.134	789.492
57.374	13.304	1023.639	788.302
58.388	13.355	1022.686	787.743
59.403	13.252	1022.329	786.905
60.417	13.144	1021.685	785.828
61.432	13.194	1021.035	785.496
62.447	13.265	1019.805	784.817
63.461	13.144	1018.907	783.483
64.476	13.231	1018.160	783.251
65.490	13.285	1017.051	782.584
66.505	13.198	1016.160	781.421
67.520	13.167	1015.774	780.905
68.534	13.215	1014.998	780.469
69.549	13.157	1014.344	779.620
70.563	13.293	1013.380	779.450
71.578	13.088	1012.969	778.102
72.593	13.192	1011.804	777.629
73.607	13.125	1011.060	776.673
74.622	13.151	1010.510	776.303
75.636	13.211	1009.015	775.367
76.651	13.082	1008.282	774.131
77.666	13.052	1007.533	773.344
78.680	13.026	1006.932	772.697
79.695	13.146	1006.547	772.895
80.709	13.135	1005.844	772.232
81.724	13.235	1004.847	771.864
82.739	13.161	1003.975	770.783
83.753	13.188	1003.691	770.623
84.768	13.335	1002.419	770.261
85.782	13.393	1001.968	770.118
86.797	13.502	1000.863	769.707
87.812	13.442	1000.398	769.004
88.826	13.548	999.289	768.573
89.841	13.405	998.373	767.138
90.855	13.386	997.859	766.587
91.870	13.440	996.876	766.014
92.884	13.579	995.823	765.781
93.899	13.496	995.430	765.027
94.914	13.519	994.545	764.386
95.928	13.400	994.198	763.502
96.943	13.537	993.263	763.348
97.957	13.457	992.476	762.308
98.972	13.476	991.386	761.489
99.987	13.383	991.350	760.967
101.001	13.384	990.402	760.176
102.016	13.434	989.421	759.587
103.030	13.444	988.441	758.812
104.045	13.521	987.339	758.249
105.060	13.483	986.546	757.400
106.074	13.463	985.463	756.409
107.089	13.362	984.526	755.165
108.103	13.367	983.705	754.490
109.118	13.158	982.713	752.710
110.133	13.221	982.127	752.482
111.147	13.229	981.171	751.718
112.162	13.135	980.553	750.751
113.176	13.337	979.790	751.020
114.191	13.388	978.551	750.235
115.206	13.488	977.774	750.024
116.220	13.406	976.684	748.752
117.235	13.341	975.881	747.775
118.249	13.293	975.309	747.053
119.264	13.333	974.631	746.648
120.279	13.296	973.684	745.693
121.293	13.204	973.338	744.944
122.308	13.301	972.079	744.353
123.322	13.305	971.037	743.505
124.337	13.204	970.132	742.295
125.352	13.270	968.746	741.465
126.366	13.176	968.213	740.570
127.381	13.259	967.029	739.968
128.395	13.319	965.925	739.330
129.410	13.262	965.251	738.492
130.424	13.334	964.283	738.006
131.439	13.247	963.516	736.969
132.454	13.422	962.230	736.696
133.468	13.372	961.666	735.980
134.483	13.407	960.974	735.539
135.497	13.281	960.575	734.610
136.512	13.372	960.256	734.704
137.527	13.491	958.817	734.066
138.541	13.370	958.024	732.857
139.556	13.418	957.502	732.608
140.570	13.371	956.979	731.935
141.585	13.329	955.911	730.865
142.600	13.461	955.240	730.873
143.614	13.576	954.443	730.703
144.629	13.555	953.865	730.103
145.643	13.439	953.225	729.040
146.658	13.612	952.326	729.048
147.673	13.529	951.511	727.997
148.687	13.510	950.161	726.816
149.702	13.503	949.239	726.012
150.716	13.388	948.776	725.092
151.731	13.318	948.155	724.244
152.746	13.337	947.414	723.698
153.760	13.357	945.991	722.635
154.775	13.356	945.729	722.369
155.789	13.553	944.781	722.437
156.804	13.541	943.802	721.574
157.819	13.409	943.524	720.721
158.833	13.627	942.383	720.734
159.848	13.578	941.915	720.102
160.862	13.500	941.417	719.319
161.877	13.540	940.721	718.894
162.892	13.601	939.820	718.406
163.906	13.510	938.773	717.148
164.921	13.422	938.012	716.125
165.935	13.416	937.335	715.518
166.950	13.583	935.974	715.138
167.964	13.537	935.282	714.348
168.979	13.526	934.642	713.747
169.994	13.625	933.378	713.145
171.008	13.475	932.512	711.777
172.023	13.585	931.952	711.757
173.037	13.641	930.754	711.018
174.052	13.640	930.293	710.600
175.067	13.703	929.520	710.218
176.081	13.634	928.851	709.345
177.096	13.532	927.897	708.120
178.110	13.558	926.712	707.262
179.125	13.465	926.439	706.596
180.140	13.573	925.859	706.552
181.154	13.677	924.447	705.857
182.169	13.682	923.891	705.388
183.183	13.677	923.407	704.935
184.198	13.683	922.986	704.579
185.213	13.788	921.860	704.100
186.227	13.767	921.446	703.634
187.242	13.883	920.972	703.702
188.256	13.797	920.606	702.993
189.271	13.890	919.468	702.458
190.286	13.842	918.985	701.824
191.300	13.880	917.677	700.921
192.315	13.707	916.976	699.595
193.329	13.698	916.791	699.356
194.344	13.507	916.202	698.039
195.359	13.560	915.744	697.851
196.373	13.733	914.780	697.783
197.388	13.673	914.716	697.419
198.402	13.850	913.863	697.449
199.417	13.903	912.888	696.869
200.432	14.020	912.879	697.290
201.446	14.024	912.562	697.002
202.461	14.086	911.814	696.631
203.475	14.170	911.352	696.568
204.490	14.095	910.735	695.718
205.504	14.001	909.682	694.461
206.519	14.131	908.675	694.172
207.534	14.060	908.091	693.368
208.548	13.942	907.471	692.341
209.563	13.921	907.290	692.057
210.577	13.997	905.999	691.326
211.592	14.167	905.288	691.430
212.607	14.087	905.172	690.946
213.621	14.058	904.867	690.534
214.636	14.271	903.584	690.376
215.650	14.162	903.051	689.456
216.665	14.145	902.260	688.721
217.680	14.180	901.708	688.383
218.694	14.276	901.265	688.381
219.709	14.290	901.198	688.328
220.723	14.280	900.385	687.602
221.738	14.270	899.369	686.728
222.753	14.348	898.564	686.373
223.767	14.229	897.888	685.302
224.782	14.426	897.334	685.632
225.796	14.332	896.667	684.673
226.811	14.318	895.985	684.036
227.826	14.505	895.247	684.180
228.840	14.366	894.741	683.163
229.855	14.433	893.964	682.783
230.869	14.379	893.419	682.083
231.884	14.378	892.541	681.349
232.899	14.287	891.970	680.481
233.913	14.276	891.198	679.787
234.928	14.278	890.588	679.272
235.942	14.347	889.851	678.929
236.957	14.382	889.241	678.549
237.972	14.287	888.766	677.737
238.986	14.387	887.838	677.379
240.001	14.255	887.553	676.563
241.015	14.394	886.604	676.343
242.030	14.412	886.308	676.131
243.045	14.304	885.462	674.990
244.059	14.390	884.944	674.883
245.074	14.457	884.153	674.492
246.088	14.405	883.579	673.782
247.103	14.555	882.850	673.775
248.117	14.492	882.291	673.031
249.132	14.714	881.706	673.423
250.147	14.709	881.289	673.023
251.161	14.788	880.375	672.584
252.176	14.762	879.779	671.967
253.190	14.824	878.889	671.475
254.205	14.917	878.533	671.516
255.220	14.930	878.125	671.199
256.234	14.895	877.329	670.388
257.249	14.840	876.885	669.772
258.263	14.822	876.522	669.361
259.278	14.887	875.802	669.015
260.293	14.944	875.422	668.892
261.307	15.020	874.666	668.560
262.322	15.021	873.821	667.857
263.336	14.927	873.579	667.239
264.351	15.005	873.152	667.165
265.366	15.198	871.867	666.893
266.380	15.026	871.580	665.930
267.395	15.139	870.969	665.851
268.409	15.060	870.020	664.753
269.424	15.127	869.180	664.320
270.439	15.070	868.759	663.713
271.453	15.086	868.176	663.272
272.468	14.981	867.646	662.390
273.482	14.965	866.915	661.712
274.497	15.054	866.118	661.397
275.512	14.956	865.878	660.769
276.526	15.095	864.603	660.285
277.541	15.038	864.145	659.653
278.555	15.173	863.826	659.883
279.570	15.293	862.584	659.346
280.585	15.217	862.290	658.767
281.599	15.254	862.033	658.655
282.614	15.292	861.270	658.164
283.628	15.310	860.476	657.570
284.643	15.133	860.384	656.747
285.657	15.325	859.521	656.784
286.672	15.253	859.268	656.248
287.687	15.174	858.914	655.612
288.701	15.375	858.248	655.830
289.716	15.367	857.566	655.221
290.730	15.388	857.027	654.834
291.745	15.307	856.321	653.920
292.760	15.295	855.826	653.434
293.774	15.392	855.183	653.264
294.789	15.365	854.799	652.809
295.803	15.522	853.953	652.714
296.818	15.293	853.333	651.296
297.833	15.383	852.641	651.058
298.847	15.344	852.177	650.495
299.862	15.483	851.465	650.433
300.876	15.433	850.702	649.599
301.891	15.428	849.674	648.739
302.906	15.642	849.142	649.099
303.920	15.636	848.891	648.828
304.935	15.708	848.097	648.441
305.949	15.660	847.523	647.761
306.964	15.596	847.108	647.141
307.979	15.700	846.110	646.717
308.993	15.756	845.607	646.491
310.008	15.799	844.924	646.078
311.022	15.800	844.779	645.915
312.037	15.718	844.307	645.184
313.052	15.600	843.666	644.182
314.066	15.669	842.768	643.705
315.081	15.703	842.253	643.383
316.095	15.622	841.682	642.583
317.110	15.645	841.430	642.419
318.125	15.659	840.937	642.039
319.139	15.658	840.508	641.651
320.154	15.538	840.185	640.891
321.168	15.498	839.501	640.159
322.183	15.632	838.542	639.880
323.197	15.917	837.781	640.330
324.212	15.835	837.521	639.760
325.227	15.885	836.629	639.213
326.241	15.798	836.577	638.786
327.256	15.676	836.162	637.950
328.270	15.800	835.563	637.906
329.285	15.692	834.688	636.774
330.300	15.627	834.131	636.045
331.314	15.850	833.717	636.519
332.329	16.056	832.855	636.580
333.343	15.851	832.305	635.331
334.358	15.915	831.969	635.259
335.373	16.052	831.307	635.213
336.387	15.841	831.143	634.238
337.402	15.982	830.353	634.108
338.416	16.028	829.515	633.585
339.431	16.006	829.205	633.212
340.446	16.203	828.541	633.387
341.460	16.228	827.914	632.945
342.475	16.136	827.487	632.219
343.489	16.224	826.904	632.047
344.504	16.169	826.337	631.352
345.519	16.305	825.835	631.419
346.533	16.383	825.270	631.225
347.548	16.318	825.413	631.033
348.562	16.374	824.357	630.380
349.577	16.215	823.806	629.312
350.592	16.160	823.314	628.674
351.606	16.202	822.907	628.465
352.621	16.197	822.132	627.799
353.635	16.231	821.862	627.664
354.650	16.084	821.882	627.075
355.665	16.213	821.439	627.162
356.679	16.318	820.886	627.074
357.694	16.400	820.131	626.745
358.708	16.305	819.145	625.583
359.723	16.414	819.042	625.856
360.738	16.278	818.135	624.602
361.752	16.259	817.973	624.353
362.767	16.447	817.522	624.647
363.781	16.441	817.242	624.357
364.796	16.431	816.972	624.061
365.810	16.382	816.659	623.584
366.825	16.510	815.936	623.450
367.840	16.508	815.576	623.112
368.854	16.633	815.218	623.244
369.869	16.585	815.014	622.857
370.883	16.723	813.917	622.470
371.898	16.556	813.585	621.546
372.913	16.571	813.078	621.161
373.927	16.446	812.632	620.306
374.942	16.580	812.314	620.499
375.956	16.622	811.147	619.706
376.971	16.792	810.555	619.822
377.986	16.700	809.960	618.976
379.000	16.802	809.388	618.854
380.015	16.891	808.952	618.792
381.029	16.907	808.525	618.468
382.044	16.811	807.843	617.545
383.059	16.858	807.170	617.146
384.073	17.013	806.442	617.099
385.088	16.795	806.389	616.210
386.102	16.763	806.009	615.747
387.117	16.710	805.519	615.127
388.132	16.745	804.846	614.686
389.146	16.813	804.386	614.527
390.161	16.851	803.981	614.300
391.175	16.780	803.838	613.882
392.190	16.935	803.289	613.967
393.205	16.922	802.817	613.506
394.219	17.005	802.104	613.206
395.234	16.828	802.095	612.506
396.248	16.925	801.334	612.219
397.263	16.773	801.049	611.401
398.278	16.781	800.333	610.830
399.292	16.793	800.257	610.758
400.307	16.807	799.816	610.419
401.321	16.888	799.314	610.272
402.336	16.898	799.052	610.056
403.350	16.932	798.391	609.620
404.365	17.017	798.206	609.730
405.380	17.031	797.551	609.225
406.394	17.161	796.850	609.104
407.409	17.122	796.556	608.683
408.423	17.252	796.366	608.952
409.438	17.228	795.396	608.070
410.453	17.098	795.542	607.661
411.467	17.274	794.894	607.744
412.482	17.159	794.462	606.948
413.496	17.384	793.591	607.029
414.511	17.192	793.921	606.545
415.526	17.274	793.541	606.494
416.540	17.340	792.642	605.988
417.555	17.279	792.666	605.735
418.569	17.273	791.909	605.081
419.584	17.368	791.135	604.775
420.599	17.356	790.730	604.368
421.613	97.779	1274.523	1410.658
422.628	83.473	1345.031	1410.785
