DTS Sentinel unit serial number:	SN413079Multiplexer serial number:	ORYXHardware model number:	OX4-SRSoftware version number:	ORYX F/W v4.00 Oryx Data Collector v3.7.2.0data status	okinstallation	princeton_trtdifferential loss correction	single-endedforward channel	channel 3reverse channel	N/Adate	2019/09/19time	00:04:35forward acquisition time	60.00reverse acquisition time	0.00gamma	496.2192k internal	0.2346k external	0.2346temperature offset calibration	0.9989default loss term (dB/km)	0.3790temperature slope calibration	1.0000multiplexer offset coefficient	1.0000multiplexer slope coefficient	1.0000fibre end	0.00T internal ref (°C)	23.00T ext. ref 1 (°C)	0.76T ext. ref 2 (°C)	15.84length (m)	temperature (°C)	Stokes	anti-Stokes-747.200	-174.572	0.363	-0.010
-746.185	-200.000	-0.063	0.307
-745.171	-73.636	-0.097	-0.035
-744.156	-200.000	-0.011	0.181
-743.142	569.602	-0.214	0.521
-742.127	-10.955	-0.341	0.225
-741.112	40.617	-0.042	-0.038
-740.098	-126.152	0.177	0.026
-739.083	-105.864	0.357	0.081
-738.069	800.000	0.105	0.406
-737.054	171.722	-0.095	0.136
-736.039	96.757	0.188	-0.215
-735.025	368.088	-0.146	-0.294
-734.010	-144.715	0.107	0.010
-732.996	11.474	0.172	0.131
-731.981	-116.377	-0.125	-0.023
-730.966	331.078	-0.222	-0.427
-729.952	13.633	-0.272	0.211
-728.937	-114.722	-0.245	-0.047
-727.923	414.285	-0.098	-0.209
-726.908	372.594	-0.165	-0.335
-725.894	-200.000	-0.043	-0.188
-724.879	145.734	-0.080	-0.106
-723.864	163.293	0.133	-0.187
-722.850	-73.290	-0.241	0.088
-721.835	-200.000	0.063	-0.318
-720.821	-200.000	0.003	-0.520
-719.806	-42.507	-0.311	-0.158
-718.791	266.923	-0.091	0.159
-717.777	-64.309	0.209	-0.085
-716.762	-87.354	-0.041	-0.012
-715.748	-149.300	-0.276	0.022
-714.733	12.141	-0.130	-0.100
-713.718	20.043	0.169	0.136
-712.704	754.807	0.053	-0.142
-711.689	-200.000	-0.000	0.245
-710.675	145.670	-0.207	0.278
-709.660	-77.330	0.263	-0.091
-708.645	800.000	-0.113	0.443
-707.631	55.595	-0.179	0.173
-706.616	-200.000	0.012	-0.182
-705.602	-136.663	-0.088	-0.010
-704.587	-40.888	-0.310	-0.160
-703.572	24.077	0.287	-0.236
-702.558	150.761	0.049	0.066
-701.543	-200.000	0.015	0.104
-700.529	78.979	-0.229	0.245
-699.514	-70.465	-0.100	-0.038
-698.499	75.291	0.054	0.057
-697.485	32.159	0.266	0.229
-696.470	-125.830	0.173	0.026
-695.456	-200.000	-0.011	0.219
-694.441	800.000	-0.022	0.066
-693.426	3.451	-0.244	-0.178
-692.412	421.781	-0.109	0.234
-691.397	12.071	0.193	0.148
-690.383	618.377	-0.103	-0.258
-689.368	-200.000	-0.022	-0.320
-688.354	143.921	0.154	0.205
-687.339	-65.611	0.050	0.020
-686.324	-200.000	0.096	-0.548
-685.310	27.562	0.051	0.043
-684.295	564.131	0.105	0.254
-683.281	-200.000	0.026	-0.195
-682.266	518.173	-0.160	-0.374
-681.251	-200.000	-0.003	0.032
-680.237	-54.474	0.106	0.048
-679.222	97.785	-0.329	0.377
-678.208	-91.845	-0.249	-0.070
-677.193	-76.664	-0.157	0.055
-676.178	-178.593	-0.555	0.013
-675.164	-54.138	0.054	0.025
-674.149	79.394	-0.121	-0.130
-673.135	176.250	0.064	0.092
-672.120	617.517	0.005	0.014
-671.105	489.444	-0.060	-0.136
-670.091	305.737	-0.055	-0.102
-669.076	475.309	0.076	-0.172
-668.062	-70.890	-0.456	0.171
-667.047	78.881	0.210	0.224
-666.032	43.621	-0.175	0.160
-665.018	191.789	0.192	0.288
-664.003	-56.654	-0.341	0.151
-662.989	-200.000	0.003	-0.161
-661.974	-200.000	-0.013	0.084
-660.959	305.818	0.077	-0.142
-659.945	51.598	0.126	0.119
-658.930	800.000	-0.090	-0.370
-657.916	-200.000	-0.059	-0.260
-656.901	4.869	-0.232	-0.170
-655.886	-14.657	0.117	-0.075
-654.872	0.505	0.205	0.146
-653.857	190.847	-0.113	-0.169
-652.843	-32.328	-0.181	-0.101
-651.828	113.898	-0.153	-0.185
-650.814	-200.000	0.007	-0.159
-649.799	371.032	0.098	-0.198
-648.784	-87.360	-0.229	-0.069
-647.770	-38.461	0.252	-0.133
-646.755	142.108	-0.189	0.250
-645.741	184.270	0.187	0.275
-644.726	-96.759	0.438	0.115
-643.711	-121.644	0.016	-0.003
-642.697	47.039	-0.176	-0.163
-641.682	-34.193	-0.225	-0.123
-640.668	-200.000	0.035	-0.305
-639.653	800.000	0.040	-0.130
-638.638	557.762	0.102	0.245
-637.624	-83.418	0.204	-0.065
-636.609	-15.275	0.327	0.208
-635.595	-53.694	0.255	0.116
-634.580	-111.247	0.231	-0.047
-633.565	-146.079	-0.039	-0.003
-632.551	-200.000	0.024	0.217
-631.536	543.998	0.048	0.114
-630.522	-100.568	-0.137	0.034
-629.507	-23.878	-0.128	0.077
-628.492	196.413	-0.059	-0.090
-627.478	596.330	0.085	0.210
-626.463	-25.714	-0.390	-0.229
-625.449	800.000	0.055	0.231
-624.434	-74.665	0.499	0.179
-623.419	-126.096	0.180	0.027
-622.405	-15.005	-0.129	-0.082
-621.390	-148.838	-0.210	-0.017
-620.376	220.796	-0.077	0.123
-619.361	3.013	-0.087	0.063
-618.346	11.335	0.160	-0.122
-617.332	-142.011	-0.307	0.030
-616.317	166.887	0.091	-0.129
-615.303	434.113	-0.147	0.318
-614.288	237.798	-0.222	-0.366
-613.273	-87.948	-0.078	0.023
-612.259	-112.754	0.135	0.027
-611.244	-200.000	0.033	-0.287
-610.230	800.000	-0.046	0.181
-609.215	-200.000	-0.004	-0.063
-608.201	-70.394	0.371	0.140
-607.186	-107.346	0.409	-0.089
-606.171	134.073	0.114	-0.147
-605.157	-44.645	-0.142	-0.070
-604.142	628.705	-0.037	0.092
-603.128	-125.609	0.270	-0.041
-602.113	629.599	0.122	-0.306
-601.098	302.961	-0.068	0.124
-600.084	31.038	-0.049	0.042
-599.069	-200.000	-0.039	-0.192
-598.055	354.674	0.043	-0.084
-597.040	346.157	-0.044	0.086
-596.025	-106.285	0.354	-0.079
-595.011	114.196	-0.158	-0.191
-593.996	-4.594	0.175	0.120
-592.982	-14.139	0.014	0.009
-591.967	-131.926	-0.078	-0.010
-590.952	92.066	-0.285	-0.319
-589.938	60.191	-0.082	-0.081
-588.923	34.931	-0.106	-0.092
-587.909	-87.792	0.268	0.080
-586.894	-146.824	-0.327	0.028
-585.879	-62.018	-0.244	0.101
-584.865	410.301	-0.061	0.128
-583.850	415.378	0.032	-0.067
-582.836	-200.000	0.016	0.222
-581.821	-69.546	-0.127	-0.048
-580.806	483.413	0.130	-0.293
-579.792	800.000	0.055	-0.214
-578.777	-192.426	-0.334	-0.003
-577.763	146.724	-0.155	0.208
-576.748	77.369	0.100	-0.106
-575.733	800.000	-0.069	-0.282
-574.719	-59.325	0.160	0.068
-573.704	-200.000	0.093	0.424
-572.690	-86.319	-0.140	-0.043
-571.675	-91.618	-0.167	-0.047
-570.661	-156.123	-0.033	0.002
-569.646	800.000	0.051	0.208
-568.631	800.000	0.064	-0.219
-567.617	-147.371	-0.375	-0.032
-566.602	768.001	0.056	0.151
-565.588	528.186	-0.024	-0.057
-564.573	179.971	0.159	-0.232
-563.558	-200.000	-0.017	0.118
-562.544	-200.000	-0.005	-0.276
-561.529	-130.914	-0.255	-0.034
-560.515	800.000	0.084	0.265
-559.500	359.030	0.103	0.204
-558.485	651.657	0.072	0.184
-557.471	-11.838	-0.323	0.210
-556.456	-66.848	-0.230	-0.090
-555.442	668.145	-0.027	-0.069
-554.427	432.766	0.181	0.389
-553.412	43.827	-0.135	0.122
-552.398	-130.529	-0.185	0.025
-551.383	800.000	0.056	-0.167
-550.369	179.568	-0.089	0.129
-549.354	-200.000	-0.029	-0.284
-548.339	113.339	0.189	0.228
-547.325	-37.361	-0.078	0.041
-546.310	366.632	-0.152	-0.305
-545.296	800.000	-0.069	-0.218
-544.281	316.898	0.188	0.352
-543.266	800.000	-0.017	0.053
-542.252	-139.731	-0.138	-0.015
-541.237	418.194	-0.109	-0.231
-540.223	-200.000	-0.026	0.138
-539.208	28.665	-0.074	-0.063
-538.193	416.939	-0.144	0.304
-537.179	2.431	0.378	0.271
-536.164	-137.242	-0.177	-0.020
-535.150	-97.303	0.130	-0.034
-534.135	189.016	-0.169	0.252
-533.121	-200.000	0.004	0.162
-532.106	512.676	0.140	-0.324
-531.091	-129.791	-0.367	-0.050
-530.077	800.000	-0.191	-0.554
-529.062	175.907	-0.137	-0.198
-528.048	172.564	-0.055	-0.079
-527.033	111.688	0.208	-0.249
-526.018	-34.204	0.161	0.088
-525.004	-115.477	0.327	0.061
-523.989	-155.092	0.151	-0.010
-522.975	660.057	0.098	-0.250
-521.960	-140.141	0.100	0.010
-520.945	-185.978	-0.169	-0.002
-519.931	-200.000	0.002	-0.071
-518.916	-200.000	-0.020	0.192
-517.902	800.000	0.020	0.058
-516.887	-53.809	-0.228	0.103
-515.872	-200.000	0.045	0.230
-514.858	448.273	-0.147	-0.321
-513.843	-28.014	-0.194	-0.112
-512.829	-2.663	0.092	-0.064
-511.814	101.591	0.119	-0.137
-510.799	-41.983	-0.342	-0.173
-509.785	7.362	0.076	0.056
-508.770	419.684	-0.015	0.031
-507.756	35.445	-0.210	0.183
-506.741	-172.513	-0.334	-0.010
-505.726	800.000	0.051	-0.176
-504.712	657.165	0.091	-0.232
-503.697	83.009	0.085	0.091
-502.683	-65.323	0.078	0.031
-501.668	63.641	0.128	-0.127
-500.653	384.688	0.117	-0.238
-499.639	-117.565	-0.207	-0.037
-498.624	-147.788	0.248	0.021
-497.610	49.057	0.063	-0.059
-496.595	-65.038	-0.232	0.093
-495.581	-86.786	0.329	-0.099
-494.566	181.415	0.130	-0.190
-493.551	630.794	0.084	0.210
-492.537	-152.016	0.208	0.015
-491.522	-101.113	0.233	0.057
-490.508	800.000	0.014	0.053
-489.493	-200.000	-0.012	-0.121
-488.478	158.939	0.016	0.023
-487.464	-175.031	-0.097	0.003
-486.449	30.756	-0.115	0.097
-485.435	-81.600	0.199	-0.065
-484.420	-200.000	-0.002	-0.161
-483.405	-26.496	-0.400	0.232
-482.391	-45.692	0.315	0.154
-481.376	78.239	-0.118	0.125
-480.362	-200.000	-0.026	0.124
-479.347	-31.991	0.174	0.096
-478.332	419.740	0.119	0.252
-477.318	-48.220	0.125	-0.059
-476.303	-186.075	0.150	-0.002
-475.289	-91.881	-0.316	0.089
-474.274	-200.000	0.026	0.222
-473.259	800.000	0.016	-0.047
-472.245	-3.844	-0.187	0.129
-471.230	-93.111	-0.117	0.032
-470.216	74.101	0.139	-0.145
-469.201	100.701	-0.232	0.267
-468.186	-101.650	-0.140	-0.034
-467.172	-200.000	0.059	-0.338
-466.157	-200.000	-0.014	0.072
-465.143	14.608	-0.147	-0.113
-464.128	-81.067	-0.229	-0.075
-463.113	-200.000	-0.021	-0.263
-462.099	-178.513	-0.283	-0.006
-461.084	114.465	-0.037	-0.044
-460.070	-107.603	0.269	-0.058
-459.055	82.447	0.167	-0.179
-458.040	76.681	-0.123	-0.129
-457.026	600.625	0.044	-0.109
-456.011	-139.336	-0.199	0.021
-454.997	109.332	-0.143	0.169
-453.982	-200.000	0.014	-0.212
-452.968	174.368	-0.141	0.201
-451.953	364.942	-0.086	-0.172
-450.938	59.005	-0.321	0.312
-449.924	14.302	0.195	-0.150
-448.909	800.000	-0.115	0.317
-447.895	110.736	-0.207	0.247
-446.880	-47.090	0.431	0.208
-445.865	-200.000	-0.029	0.192
-444.851	-72.814	0.090	0.033
-443.836	800.000	-0.108	-0.347
-442.822	78.891	-0.077	-0.081
-441.807	-12.075	0.188	0.122
-440.792	-116.892	0.228	0.041
-439.778	-114.164	-0.175	0.033
-438.763	-66.203	0.503	0.198
-437.749	291.068	-0.158	0.284
-436.734	233.314	-0.033	-0.054
-435.719	9.630	0.099	0.074
-434.705	143.486	0.157	0.206
-433.690	800.000	-0.073	-0.215
-432.676	-158.458	-0.495	-0.028
-431.661	239.189	0.135	-0.222
-430.646	-200.000	0.037	0.268
-429.632	23.444	0.355	0.288
-428.617	-35.409	-0.393	-0.211
-427.603	-30.415	0.281	0.157
-426.588	-133.786	-0.245	0.030
-425.573	582.602	-0.038	-0.093
-424.559	18.380	-0.199	-0.157
-423.544	-119.828	0.148	-0.025
-422.530	407.003	-0.209	-0.435
-421.515	-200.000	-0.007	0.054
-420.500	125.249	0.189	-0.235
-419.486	-200.000	0.035	0.207
-418.471	-98.796	0.063	-0.016
-417.457	-178.047	0.154	0.004
-416.442	92.116	-0.066	-0.073
-415.428	311.031	0.051	-0.095
-414.413	-41.998	-0.273	0.138
-413.398	-20.504	0.131	0.080
-412.384	359.442	0.076	0.149
-411.369	-29.987	-0.216	0.122
-410.355	-69.656	0.220	0.083
-409.340	628.923	0.046	-0.115
-408.325	-146.621	0.164	-0.014
-407.311	800.000	-0.089	0.257
-406.296	800.000	0.108	-0.309
-405.282	800.000	-0.085	-0.242
-404.267	-108.569	0.399	0.085
-403.252	247.549	0.093	0.154
-402.238	120.514	-0.157	0.192
-401.223	-133.189	0.340	0.042
-400.209	12.119	0.139	0.105
-399.194	-41.497	0.085	-0.043
-398.179	103.542	0.101	-0.117
-397.165	-173.591	-0.124	-0.004
-396.150	-50.289	-0.238	-0.111
-395.136	129.384	-0.228	-0.287
-394.121	88.900	-0.068	-0.075
-393.106	2.144	-0.114	0.081
-392.092	-8.057	-0.242	-0.161
-391.077	51.474	0.074	0.069
-390.063	-200.000	0.016	0.200
-389.048	-200.000	0.014	-0.144
-388.033	27.913	0.197	-0.163
-387.019	-200.000	0.028	-0.165
-386.004	45.249	0.186	-0.169
-384.990	-200.000	0.070	-0.315
-383.975	-90.734	-0.188	0.054
-382.960	198.153	0.025	0.038
-381.946	-16.166	0.035	0.022
-380.931	373.683	-0.086	-0.173
-379.917	-200.000	-0.007	0.037
-378.902	-68.770	0.108	-0.041
-377.888	800.000	0.143	0.428
-376.873	-78.297	-0.315	-0.106
-375.858	800.000	-0.102	0.324
-374.844	-122.942	-0.094	-0.015
-373.829	-200.000	0.016	0.240
-372.815	659.483	0.003	-0.008
-371.800	-28.024	0.176	0.100
-370.785	351.886	-0.114	0.223
-369.771	-128.768	0.161	0.022
-368.756	-8.072	0.291	-0.193
-367.742	-104.341	0.189	0.043
-366.727	800.000	-0.066	0.240
-365.712	267.964	0.144	0.249
-364.698	-200.000	0.023	0.259
-363.683	-168.474	-0.118	0.004
-362.669	-137.209	-0.201	-0.022
-361.654	130.221	0.254	-0.320
-360.639	-200.000	0.013	-0.114
-359.625	-16.885	0.174	-0.108
-358.610	-197.896	0.285	0.002
-357.596	-149.251	0.130	-0.010
-356.581	-29.494	0.162	-0.091
-355.566	-125.917	-0.137	-0.020
-354.552	-1.387	-0.123	0.086
-353.537	800.000	-0.022	0.078
-352.523	-117.125	0.276	0.049
-351.508	234.461	0.120	-0.195
-350.493	-200.000	0.007	0.126
-349.479	457.584	-0.039	-0.086
-348.464	-200.000	0.023	0.320
-347.450	-200.000	-0.076	-0.353
-346.435	153.294	0.114	-0.153
-345.420	-182.395	-0.220	-0.004
-344.406	-21.317	-0.088	-0.053
-343.391	-196.483	-0.110	-0.001
-342.377	-109.129	-0.305	-0.064
-341.362	800.000	-0.026	-0.093
-340.348	24.582	0.140	-0.114
-339.333	-20.639	0.187	0.113
-338.318	-200.000	-0.006	0.162
-337.304	-200.000	0.085	0.376
-336.289	-46.290	-0.110	-0.053
-335.275	-96.769	0.283	0.073
-334.260	-31.332	-0.214	0.119
-333.245	-10.372	0.296	-0.193
-332.231	-157.892	0.323	-0.019
-331.216	335.422	-0.054	-0.102
-330.202	-200.000	0.051	-0.316
-329.187	32.993	-0.176	-0.150
-328.172	-200.000	-0.008	0.107
-327.158	171.128	-0.061	0.086
-326.143	-17.315	0.173	-0.107
-325.129	-200.000	-0.012	-0.162
-324.114	440.070	-0.159	-0.342
-323.099	800.000	0.074	-0.312
-322.085	52.889	-0.294	-0.276
-321.070	231.221	0.281	0.453
-320.056	-62.393	0.275	0.112
-319.041	367.266	0.157	-0.312
-318.026	-126.686	-0.336	0.049
-317.012	-96.454	0.179	0.047
-315.997	-161.749	0.418	0.021
-314.983	-80.756	-0.134	0.044
-313.968	261.846	-0.149	0.253
-312.953	-200.000	0.002	0.168
-311.939	-160.856	-0.375	0.019
-310.924	-23.471	0.162	0.096
-309.910	189.315	-0.186	0.274
-308.895	-46.287	-0.219	-0.106
-307.880	800.000	-0.040	0.157
-306.866	126.447	0.140	0.174
-305.851	-16.341	-0.225	0.140
-304.837	17.527	-0.269	0.210
-303.822	-17.478	0.283	0.175
-302.807	-63.253	0.138	0.056
-301.793	-143.343	0.305	-0.029
-300.778	24.109	-0.095	0.077
-299.764	50.246	-0.031	0.029
-298.749	5.283	0.146	-0.106
-297.735	800.000	-0.023	-0.074
-296.720	473.344	0.114	0.253
-295.705	120.003	-0.092	0.113
-294.691	-200.000	-0.024	0.463
-293.676	-200.000	-0.020	-0.111
-292.662	-59.323	0.155	0.066
-291.647	800.000	-0.115	0.480
-290.632	-127.939	-0.137	0.019
-289.618	-185.136	-0.287	-0.004
-288.603	800.000	0.046	0.134
-287.589	-7.457	0.173	-0.115
-286.574	800.000	-0.105	-0.348
-285.559	95.977	0.157	-0.176
-284.545	696.038	-0.129	-0.333
-283.530	-5.268	0.105	-0.071
-282.516	-12.544	-0.177	0.113
-281.501	-74.956	0.321	-0.113
-280.486	-22.587	-0.165	-0.098
-279.472	-66.521	0.284	0.111
-278.457	800.000	-0.072	0.278
-277.443	151.992	0.199	0.266
-276.428	54.703	0.242	0.229
-275.413	-200.000	-0.038	0.334
-274.399	-200.000	-0.061	0.302
-273.384	800.000	0.072	-0.209
-272.370	-200.000	0.052	-0.312
-271.355	-187.390	0.120	-0.002
-270.340	515.257	-0.074	0.170
-269.326	-76.426	-0.183	0.063
-268.311	456.465	-0.066	-0.144
-267.297	112.898	0.100	0.119
-266.282	800.000	-0.107	-0.328
-265.267	340.884	0.151	0.289
-264.253	-200.000	-0.018	0.302
-263.238	78.792	-0.088	-0.092
-262.224	-100.557	-0.284	-0.069
-261.209	232.010	0.079	0.127
-260.195	-200.000	0.012	-0.173
-259.180	4.517	-0.265	-0.191
-258.165	-37.731	-0.083	0.043
-257.151	800.000	0.083	-0.260
-256.136	800.000	-0.054	0.167
-255.122	101.880	-0.085	0.098
-254.107	800.000	-0.120	-0.343
-253.092	800.000	-0.091	0.257
-252.078	-23.148	-0.268	0.158
-251.063	-5.448	0.178	0.120
-250.049	-200.000	-0.034	-0.245
-249.034	-85.859	-0.333	-0.101
-248.019	140.224	-0.093	0.120
-247.005	-28.258	-0.094	-0.053
-245.990	-146.312	0.033	0.003
-244.976	-200.000	-0.330	0.001
-243.961	-48.095	0.227	0.108
-242.946	-200.000	0.010	0.370
-241.932	14.569	0.123	0.094
-240.917	-117.615	-0.095	-0.017
-239.903	-157.999	0.313	0.018
-238.888	767.257	-0.056	-0.150
-237.873	621.685	0.051	-0.126
-236.859	-200.000	0.033	-0.183
-235.844	12.195	0.143	-0.108
-234.830	32.746	-0.093	0.079
-233.815	800.000	-0.058	-0.222
-232.800	-108.897	-0.230	0.048
-231.786	-121.413	0.256	0.042
-230.771	-55.804	-0.084	0.037
-229.757	66.713	0.037	0.037
-228.742	-99.370	0.261	-0.064
-227.727	-129.039	0.103	0.014
-226.713	800.000	-0.073	-0.201
-225.698	490.872	0.077	-0.173
-224.684	-61.394	0.168	-0.069
-223.669	-51.530	-0.220	0.100
-222.655	-86.697	0.156	0.047
-221.640	-26.883	0.083	0.048
-220.625	-200.000	-0.040	-0.233
-219.611	-5.231	0.149	-0.100
-218.596	-149.271	-0.215	0.017
-217.582	-200.000	0.015	0.157
-216.567	283.118	0.245	0.431
-215.552	-38.140	-0.250	-0.130
-214.538	17.477	-0.165	-0.128
-213.523	-200.000	-0.058	-0.339
-212.509	-123.331	-0.343	0.054
-211.494	-56.259	-0.090	-0.039
-210.479	-126.661	-0.250	0.036
-209.465	71.543	0.099	0.101
-208.450	397.635	0.041	-0.084
-207.436	800.000	0.043	-0.154
-206.421	-200.000	0.016	-0.220
-205.406	113.560	-0.138	0.164
-204.392	-34.930	0.177	0.095
-203.377	203.308	0.267	-0.404
-202.363	-136.633	-0.247	0.028
-201.348	-150.433	-0.171	-0.013
-200.333	-20.359	0.090	-0.054
-199.319	-200.000	-0.036	-0.219
-198.304	216.027	-0.243	0.377
-197.290	-51.584	-0.141	-0.064
-196.275	19.339	0.187	-0.147
-195.260	-200.000	0.007	-0.070
-194.246	-52.311	0.084	0.038
-193.231	-161.843	-0.206	-0.010
-192.217	-9.694	0.219	-0.143
-191.202	800.000	-0.030	-0.128
-190.187	-165.268	-0.228	0.010
-189.173	-136.430	0.282	-0.032
-188.158	800.000	0.084	0.302
-187.144	-100.838	-0.187	0.045
-186.129	-57.586	-0.124	-0.053
-185.114	762.042	-0.168	0.445
-184.100	-200.000	-0.004	-0.260
-183.085	277.366	0.128	0.222
-182.071	-57.701	0.213	0.091
-181.056	-200.000	0.008	0.129
-180.042	-200.000	0.024	-0.119
-179.027	-73.478	-0.159	0.057
-178.012	83.577	0.101	-0.107
-176.998	46.914	0.133	0.121
-175.983	27.712	-0.142	-0.117
-174.969	-200.000	-0.000	-0.099
-173.954	800.000	0.059	0.172
-172.939	3.630	-0.290	-0.207
-171.925	-24.255	0.216	-0.126
-170.910	21.098	0.143	-0.113
-169.896	207.330	-0.163	0.249
-168.881	-200.000	-0.004	0.046
-167.866	-44.370	-0.092	-0.045
-166.852	-76.040	-0.106	0.036
-165.837	391.371	0.079	0.161
-164.823	-146.573	-0.085	-0.007
-163.808	-84.221	0.312	0.097
-162.793	-65.240	0.025	0.010
-161.779	-25.868	-0.168	0.097
-160.764	-139.304	0.069	-0.007
-159.750	543.001	-0.060	0.139
-158.735	-200.000	-0.010	-0.244
-157.720	-19.960	0.089	0.054
-156.706	800.000	-0.060	-0.219
-155.691	-200.000	0.111	-0.503
-154.677	-135.892	-0.187	-0.021
-153.662	-150.703	0.154	0.011
-152.647	48.606	0.314	-0.288
-151.633	547.059	-0.100	-0.233
-150.618	-200.000	-0.042	0.326
-149.604	56.746	-0.190	-0.180
-148.589	432.544	0.080	-0.171
-147.574	523.869	-0.096	-0.220
-146.560	425.288	0.123	0.259
-145.545	-65.898	0.185	0.072
-144.531	-138.783	0.297	0.032
-143.516	8.426	0.148	-0.108
-142.502	-200.000	-0.035	-0.182
-141.487	491.511	-0.127	0.284
-140.472	118.051	-0.256	-0.309
-139.458	67.211	-0.225	-0.224
-138.443	-147.055	-0.350	0.029
-137.429	-101.699	0.222	-0.052
-136.414	-134.475	-0.307	0.037
-135.399	75.099	0.164	-0.168
-134.385	37.978	0.058	-0.051
-133.370	233.795	-0.051	-0.082
-132.356	494.983	-0.078	-0.174
-131.341	800.000	0.057	-0.203
-130.326	45.179	-0.030	-0.027
-129.312	-105.131	0.202	0.045
-128.297	-200.000	0.009	-0.088
-127.283	-200.000	-0.193	-0.000
-126.268	-79.231	-0.104	0.034
-125.253	159.877	0.233	-0.316
-124.239	-150.187	-0.161	-0.012
-123.224	-151.409	-0.183	-0.013
-122.210	313.676	0.066	0.122
-121.195	102.154	0.160	0.182
-120.180	-79.732	0.074	-0.024
-119.166	37.650	-0.022	-0.019
-118.151	92.946	0.209	0.231
-117.137	59.368	-0.148	0.143
-116.122	-69.706	0.114	0.043
-115.107	4.730	-0.082	0.058
-114.093	800.000	0.021	-0.085
-113.078	-59.123	-0.025	0.010
-112.064	156.347	0.203	0.273
-111.049	391.810	-0.095	0.193
-110.034	-0.472	0.255	-0.176
-109.020	-3.808	-0.168	-0.114
-108.005	572.662	0.091	-0.216
-106.991	-200.000	0.033	-0.275
-105.976	800.000	0.077	0.301
-104.962	-200.000	0.033	0.227
-103.947	621.478	0.071	0.175
-102.932	800.000	0.065	0.256
-101.918	24.091	-0.034	0.028
-100.903	-200.000	0.012	-0.105
-99.889	131.316	-0.265	0.332
-98.874	-58.620	-0.073	-0.031
-97.859	-200.000	-0.049	0.214
-96.845	-134.660	0.153	0.018
-95.830	-37.566	0.237	-0.123
-94.816	-173.256	0.308	-0.009
-93.801	37.922	-0.058	-0.050
-92.786	22.172	-0.150	-0.119
-91.772	-38.195	0.032	-0.016
-90.757	-141.934	-0.393	-0.038
-89.743	51.944	0.173	-0.160
-88.728	-84.004	0.226	-0.070
-87.713	-165.804	-0.212	0.009
-86.699	-200.000	-0.001	0.102
-85.684	-200.000	-0.039	0.310
-84.670	-72.793	0.014	0.005
-83.655	-200.000	-0.020	-0.224
-82.640	-200.000	0.028	-0.198
-81.626	-55.869	-0.168	0.073
-80.611	-200.000	0.061	-0.379
-79.597	-64.087	0.103	0.041
-78.582	-200.000	0.013	0.064
-77.567	39.893	0.048	0.042
-76.553	800.000	0.079	0.282
-75.538	800.000	-0.032	-0.121
-74.524	628.990	0.199	0.491
-73.509	576.429	-0.080	-0.189
-72.494	120.757	-0.035	-0.043
-71.480	207.759	0.169	0.257
-70.465	-7.860	-0.140	-0.092
-69.451	-153.266	-0.305	-0.021
-68.436	542.342	-0.033	-0.076
-67.422	800.000	0.023	-0.089
-66.407	109.343	0.094	-0.109
-65.392	-121.209	0.169	0.028
-64.378	-115.525	0.057	-0.010
-63.363	-200.000	0.019	0.392
-62.349	-200.000	0.011	-0.140
-61.334	156.743	-0.990	-1.331
-60.319	7.848	0.744	0.542
-59.305	376.786	-0.677	-1.345
-58.290	800.000	0.411	1.629
-57.276	473.552	0.530	1.164
-56.261	-200.000	128.995	693.861
-55.246	405.650	1622.634	3331.078
-54.232	138.131	2774.273	3539.899
-53.217	95.332	2182.179	2420.215
-52.203	33.525	1694.930	1432.942
-51.188	26.113	1512.221	1228.206
-50.173	24.160	1488.490	1195.789
-49.159	48.930	1561.533	1426.226
-48.144	45.674	1573.493	1414.652
-47.130	26.169	1521.968	1236.310
-46.115	23.269	1505.345	1203.082
-45.100	23.061	1502.447	1199.312
-44.086	23.056	1500.385	1197.584
-43.071	23.089	1497.958	1195.820
-42.057	22.997	1497.037	1194.417
-41.042	22.987	1495.058	1192.724
-40.027	22.960	1493.872	1191.544
-39.013	22.942	1492.532	1190.312
-37.998	22.950	1491.351	1189.374
-36.984	22.964	1490.199	1188.499
-35.969	23.000	1488.626	1187.442
-34.954	23.013	1486.987	1186.177
-33.940	22.826	1486.418	1184.419
-32.925	23.003	1484.513	1184.038
-31.911	23.003	1483.568	1183.240
-30.896	22.997	1482.149	1182.023
-29.881	23.045	1480.905	1181.303
-28.867	23.063	1479.518	1180.271
-27.852	23.117	1478.329	1179.634
-26.838	23.154	1476.861	1178.660
-25.823	22.978	1475.714	1176.531
-24.809	23.050	1474.178	1175.735
-23.794	22.965	1472.625	1173.887
-22.779	22.915	1471.606	1172.693
-21.765	23.062	1470.206	1172.508
-20.750	23.104	1468.932	1171.721
-19.736	22.948	1468.146	1170.019
-18.721	23.023	1466.821	1169.411
-17.706	22.971	1465.451	1167.927
-16.692	23.035	1464.798	1167.784
-15.677	23.006	1463.682	1166.656
-14.663	23.025	1462.758	1166.001
-13.648	22.960	1461.354	1164.404
-12.633	22.976	1461.021	1164.203
-11.619	23.085	1460.037	1164.086
-10.604	22.926	1459.319	1162.421
-9.590	23.023	1458.401	1162.280
-8.575	23.012	1457.621	1161.546
-7.560	23.086	1456.302	1160.929
-6.546	23.005	1455.892	1160.025
-5.531	23.005	1454.886	1159.181
-4.517	22.992	1453.463	1157.918
-3.502	23.100	1452.534	1157.838
-2.487	23.079	1451.719	1157.004
-1.473	23.027	1451.031	1156.067
-0.458	22.996	1449.271	1154.421
0.556	21.863	1439.169	1142.021
1.571	18.342	1414.901	1100.081
2.586	14.568	1353.396	1028.932
3.600	12.986	1269.806	956.140
4.615	11.935	1226.342	917.445
5.629	10.462	1170.721	867.874
6.644	5.619	1090.921	784.438
7.659	1.344	1055.862	738.401
8.673	0.780	1051.030	732.230
9.688	0.741	1047.366	729.423
10.702	0.784	1045.844	728.504
11.717	0.745	1043.556	726.659
12.731	2.441	1044.104	735.127
13.746	8.233	1051.971	768.564
14.761	14.438	1060.495	804.770
15.775	17.250	1062.695	819.953
16.790	16.994	1062.009	818.118
17.804	16.025	1060.093	811.901
18.819	15.283	1057.556	806.323
19.834	14.679	1056.472	802.520
20.848	14.485	1055.813	801.018
21.863	14.241	1055.156	799.278
22.877	14.022	1054.081	797.341
23.892	13.836	1052.842	795.442
24.907	13.756	1052.494	794.724
25.921	13.739	1051.434	793.773
26.936	13.890	1050.681	793.853
27.950	13.696	1050.805	792.951
28.965	13.821	1049.512	792.504
29.980	13.941	1048.588	792.306
30.994	13.926	1047.920	791.662
32.009	13.864	1046.857	790.492
33.023	13.843	1046.171	789.807
34.038	13.971	1045.080	789.521
35.053	13.905	1044.457	788.667
36.067	13.749	1043.894	787.431
37.082	13.813	1042.920	786.932
38.096	13.752	1042.373	786.158
39.111	13.779	1041.804	785.788
40.126	13.901	1040.777	785.521
41.140	13.819	1039.664	784.223
42.155	13.789	1038.656	783.252
43.169	13.792	1037.525	782.342
44.184	13.992	1036.138	782.171
45.199	13.682	1035.693	780.305
46.213	13.836	1034.549	780.098
47.228	13.817	1033.860	779.421
48.242	13.765	1032.547	778.120
49.257	13.855	1032.039	778.090
50.271	13.946	1030.941	777.618
51.286	13.837	1030.122	776.423
52.301	13.909	1029.168	775.970
53.315	13.959	1028.367	775.530
54.330	13.866	1027.727	774.548
55.344	13.911	1026.482	773.749
56.359	13.826	1025.821	772.789
57.374	13.759	1025.259	771.983
58.388	13.835	1024.108	771.404
59.403	13.768	1023.803	770.794
60.417	13.692	1022.666	769.517
61.432	13.738	1022.108	769.243
62.447	13.732	1021.159	768.430
63.461	13.697	1020.707	767.861
64.476	13.676	1019.409	766.720
65.490	13.689	1018.700	766.176
66.505	13.782	1017.676	765.769
67.520	13.826	1016.681	765.157
68.534	13.838	1016.013	764.641
69.549	13.754	1015.453	763.765
70.563	13.794	1014.852	763.430
71.578	13.774	1014.088	762.694
72.593	13.695	1013.051	761.486
73.607	13.773	1011.971	760.962
74.622	13.700	1011.288	760.049
75.636	13.739	1009.839	759.072
76.651	13.599	1009.856	758.374
77.666	13.743	1008.560	757.993
78.680	13.694	1007.881	757.191
79.695	13.696	1007.692	756.992
80.709	13.712	1006.898	756.402
81.724	13.757	1006.564	756.287
82.739	13.691	1005.766	755.321
83.753	13.856	1004.591	755.125
84.768	13.807	1003.766	754.214
85.782	13.975	1002.874	754.239
86.797	13.945	1002.126	753.472
87.812	14.013	1001.366	753.143
88.826	13.925	1000.243	751.837
89.841	13.726	1000.385	750.973
90.855	13.885	999.097	750.659
91.870	13.927	998.313	750.195
92.884	13.923	997.717	749.662
93.899	14.045	996.435	749.181
94.914	14.088	996.047	749.019
95.928	14.010	995.356	748.079
96.943	14.070	994.331	747.511
97.957	14.047	993.750	746.908
98.972	13.900	993.391	745.910
99.987	13.893	992.468	745.121
101.001	14.004	991.754	745.017
102.016	13.890	990.935	743.826
103.030	13.990	989.744	743.313
104.045	14.006	988.878	742.666
105.060	13.871	987.828	741.210
106.074	13.959	987.287	741.131
107.089	14.046	986.024	740.506
108.103	14.005	984.933	739.439
109.118	13.884	984.524	738.528
110.133	13.846	984.027	737.919
111.147	13.843	982.899	736.997
112.162	13.822	982.296	736.386
113.176	13.888	981.811	736.250
114.191	13.751	980.521	734.611
115.206	13.872	979.379	734.227
116.220	13.895	978.685	733.741
117.235	13.816	978.346	733.073
118.249	13.918	976.973	732.427
119.264	13.911	975.907	731.534
120.279	13.820	975.158	730.506
121.293	13.926	974.210	730.198
122.308	13.899	973.709	729.640
123.322	13.877	972.782	728.782
124.337	13.994	971.679	728.408
125.352	13.798	970.676	726.730
126.366	13.902	969.421	726.183
127.381	13.883	968.067	725.021
128.395	13.837	967.487	724.321
129.410	13.891	966.414	723.691
130.424	13.849	965.786	722.972
131.439	13.913	964.741	722.404
132.454	13.927	964.330	722.094
133.468	13.906	963.449	721.282
134.483	13.832	963.089	720.626
135.497	13.889	962.190	720.135
136.512	13.952	961.291	719.671
137.527	13.873	960.691	718.818
138.541	13.958	959.703	718.385
139.556	14.077	958.598	718.005
140.570	13.958	958.251	717.170
141.585	13.971	957.720	716.765
142.600	13.969	956.951	716.115
143.614	14.041	956.369	715.926
144.629	14.071	955.124	715.061
145.643	14.115	954.633	714.820
146.658	14.063	954.237	714.234
147.673	14.182	952.722	713.551
148.687	14.022	952.133	712.360
149.702	13.978	951.825	711.878
150.716	14.023	950.755	711.208
151.731	14.052	949.767	710.531
152.746	13.988	949.452	709.957
153.760	14.075	948.245	709.361
154.775	14.099	947.318	708.708
155.789	14.205	946.692	708.630
156.804	14.136	946.028	707.776
157.819	14.254	945.614	707.904
158.833	14.208	944.316	706.674
159.848	14.308	943.742	706.609
160.862	14.271	942.938	705.785
161.877	14.162	942.726	705.105
162.892	14.062	942.042	704.107
163.906	14.127	941.081	703.600
164.921	14.073	940.215	702.664
165.935	14.294	939.052	702.664
166.950	14.156	938.125	701.328
167.964	14.302	937.222	701.206
168.979	14.116	936.363	699.717
169.994	14.224	935.701	699.614
171.008	14.252	934.570	698.823
172.023	14.244	933.958	698.273
173.037	14.336	933.003	697.881
174.052	14.406	931.931	697.311
175.067	14.460	931.643	697.260
176.081	14.359	930.555	695.959
177.096	14.230	930.342	695.200
178.110	14.262	929.289	694.488
179.125	14.301	928.765	694.196
180.140	14.436	927.519	693.765
181.154	14.388	927.100	693.189
182.169	14.326	926.871	692.699
183.183	14.466	926.046	692.604
184.198	14.264	925.650	691.409
185.213	14.366	924.385	690.825
186.227	14.413	923.887	690.586
187.242	14.457	923.255	690.234
188.256	14.497	922.721	689.941
189.271	14.568	921.611	689.342
190.286	14.486	921.008	688.493
191.300	14.396	920.423	687.623
192.315	14.357	919.554	686.753
193.329	14.402	918.803	686.317
194.344	14.318	918.388	685.601
195.359	14.557	917.751	686.046
196.373	14.493	917.016	685.173
197.388	14.596	916.647	685.259
198.402	14.705	916.025	685.182
199.417	14.669	915.374	684.485
200.432	14.692	915.045	684.274
201.446	14.702	915.024	684.239
202.461	14.666	914.260	683.459
203.475	14.757	913.777	683.411
204.490	14.815	913.032	683.029
205.504	14.951	912.010	682.761
206.519	14.772	911.421	681.526
207.534	14.785	910.282	680.671
208.548	14.765	909.985	680.305
209.563	14.823	909.406	680.048
210.577	14.798	908.268	679.034
211.592	14.808	907.808	678.674
212.607	14.789	907.470	678.281
213.621	14.846	906.904	678.031
214.636	14.883	906.115	677.531
215.650	14.874	905.227	676.768
216.665	14.893	904.986	676.608
217.680	14.879	904.824	676.368
218.694	14.984	904.062	676.165
219.709	14.970	903.711	675.785
220.723	15.026	902.730	675.219
221.738	14.922	902.317	674.431
222.753	15.039	901.251	674.043
223.767	15.000	900.648	673.378
224.782	15.070	899.833	672.990
225.796	15.228	898.770	672.769
226.811	15.044	898.252	671.583
227.826	15.053	897.559	671.044
228.840	14.958	897.428	670.505
229.855	15.078	896.170	669.986
230.869	15.154	895.793	669.947
231.884	15.058	895.223	669.077
232.899	15.034	894.530	668.405
233.913	15.077	893.777	667.956
234.928	15.048	893.376	667.479
235.942	14.971	892.523	666.478
236.957	15.088	891.843	666.378
237.972	15.099	891.060	665.777
238.986	15.143	890.761	665.668
240.001	15.094	889.787	664.687
241.015	15.103	889.222	664.245
242.030	14.972	889.005	663.503
243.045	15.265	887.685	663.620
244.059	15.226	887.174	663.024
245.074	15.301	886.777	662.965
246.088	15.259	886.103	662.235
247.103	15.343	885.273	661.888
248.117	15.231	884.830	661.059
249.132	15.389	884.232	661.174
250.147	15.407	883.832	660.890
251.161	15.439	883.366	660.609
252.176	15.483	882.323	659.941
253.190	15.427	881.628	659.143
254.205	15.463	880.909	658.691
255.220	15.618	880.370	658.837
256.234	15.626	879.707	658.312
257.249	15.620	879.482	658.062
258.263	15.660	878.545	657.458
259.278	15.603	878.332	657.018
260.293	15.703	877.395	656.651
261.307	15.763	877.049	656.568
262.322	15.699	876.287	655.691
263.336	15.608	875.829	654.934
264.351	15.779	875.038	654.950
265.366	15.917	874.510	655.033
266.380	15.935	873.782	654.501
267.395	15.802	873.444	653.672
268.409	15.775	872.847	653.064
269.424	15.755	871.806	652.149
270.439	15.727	871.197	651.528
271.453	15.779	870.238	650.955
272.468	15.813	869.882	650.762
273.482	15.741	869.315	650.003
274.497	15.899	868.416	649.884
275.512	15.818	867.889	649.118
276.526	15.835	867.306	648.689
277.541	15.857	866.745	648.299
278.555	15.846	865.971	647.617
279.570	15.921	865.636	647.598
280.585	15.950	864.871	647.082
281.599	15.931	864.365	646.573
282.614	15.924	863.690	645.983
283.628	15.870	863.144	645.312
284.643	16.057	862.491	645.482
285.657	16.052	861.998	645.036
286.672	16.179	860.977	644.700
287.687	16.037	861.078	644.176
288.701	16.083	860.439	643.819
289.716	16.189	859.672	643.593
290.730	16.253	859.091	643.344
291.745	16.013	858.863	642.201
292.760	16.086	857.836	641.654
293.774	16.110	857.518	641.450
294.789	16.199	857.033	641.367
295.803	16.125	856.296	640.479
296.818	16.193	856.039	640.488
297.833	16.215	855.068	639.788
298.847	16.242	854.129	639.131
299.862	16.247	853.902	638.925
300.876	16.267	852.784	638.109
301.891	16.305	852.213	637.768
302.906	16.403	851.703	637.698
303.920	16.244	851.028	636.538
304.935	16.412	850.147	636.456
305.949	16.353	849.869	635.969
306.964	16.454	849.404	635.946
307.979	16.338	848.505	634.779
308.993	16.468	848.090	634.900
310.008	16.647	847.564	635.122
311.022	16.572	846.979	634.348
312.037	16.555	846.726	634.038
313.052	16.455	846.293	633.283
314.066	16.566	845.157	632.793
315.081	16.561	844.866	632.497
316.095	16.493	844.245	631.725
317.110	16.580	843.999	631.811
318.125	16.473	842.925	630.551
319.139	16.627	842.413	630.686
320.154	16.467	842.351	629.988
321.168	16.559	841.577	629.695
322.183	16.556	841.033	629.219
323.197	16.489	840.755	628.709
324.212	16.585	840.324	628.689
325.227	16.681	839.355	628.264
326.241	16.552	839.118	627.550
327.256	16.518	838.350	626.796
328.270	16.555	838.046	626.651
329.285	16.588	837.488	626.300
330.300	16.747	836.569	626.143
331.314	16.682	836.485	625.787
332.329	16.564	835.325	624.427
333.343	16.770	834.836	624.764
334.358	16.788	834.454	624.492
335.373	16.755	833.699	623.749
336.387	16.837	833.020	623.487
337.402	16.784	832.940	623.179
338.416	16.718	832.401	622.476
339.431	16.908	831.551	622.485
340.446	16.889	830.991	621.939
341.460	16.887	830.893	621.805
342.475	16.890	829.980	621.075
343.489	17.050	829.557	621.291
344.504	16.938	829.043	620.441
345.519	17.029	828.268	620.138
346.533	17.027	827.998	619.873
347.548	17.053	827.363	619.438
348.562	17.065	826.870	619.059
349.577	17.015	826.003	618.171
350.592	17.033	825.807	618.036
351.606	17.068	825.320	617.743
352.621	16.883	825.161	616.897
353.635	16.975	824.641	616.790
354.650	17.040	824.206	616.644
355.665	17.036	823.753	616.237
356.679	17.086	823.316	616.038
357.694	17.092	822.604	615.471
358.708	17.147	822.061	615.211
359.723	17.166	821.647	614.917
360.738	17.232	821.220	614.781
361.752	17.101	820.669	613.840
362.767	17.164	820.629	613.985
363.781	17.221	819.948	613.623
364.796	17.213	819.258	613.025
365.810	17.253	819.113	613.009
366.825	17.468	818.203	613.047
367.840	17.324	818.476	612.679
368.854	17.408	817.475	612.176
369.869	17.323	817.174	611.592
370.883	17.298	817.046	611.352
371.898	17.326	816.023	610.635
372.913	17.556	815.280	610.847
373.927	17.514	814.398	609.981
374.942	17.523	814.243	609.845
375.956	17.383	813.715	608.895
376.971	17.552	812.920	608.851
377.986	17.522	812.252	608.189
379.000	17.586	812.056	608.216
380.015	17.654	811.446	607.948
381.029	17.604	811.143	607.490
382.044	17.683	810.621	607.326
383.059	17.720	809.878	606.848
384.073	17.636	809.607	606.293
385.088	17.652	808.922	605.781
386.102	17.648	808.160	605.144
387.117	17.641	807.725	604.737
388.132	17.571	807.451	604.232
389.146	17.492	807.220	603.727
390.161	17.592	806.537	603.516
391.175	17.690	806.556	603.824
392.190	17.575	806.148	603.058
393.205	17.663	805.497	602.828
394.219	17.763	805.077	602.816
395.234	17.844	804.414	602.552
396.248	17.838	803.534	601.817
397.263	17.757	803.288	601.295
398.278	17.757	802.885	600.940
399.292	17.723	802.550	600.516
400.307	17.741	802.233	600.288
401.321	17.787	801.842	600.105
402.336	17.739	801.518	599.642
403.350	17.835	801.137	599.637
404.365	17.845	800.336	599.024
405.380	17.717	800.180	598.402
406.394	17.911	799.563	598.569
407.409	17.920	799.173	598.257
408.423	17.994	798.431	597.905
409.438	18.045	798.059	597.753
410.453	18.099	797.641	597.576
411.467	18.070	797.342	597.197
412.482	18.075	796.739	596.712
413.496	18.167	796.119	596.515
414.511	18.114	795.834	596.064
415.526	18.239	795.551	596.232
416.540	18.139	795.408	595.725
417.555	18.251	794.692	595.527
418.569	18.154	794.467	594.966
419.584	18.200	793.773	594.555
420.599	18.185	793.373	594.150
421.613	116.234	1298.016	1492.538
422.628	100.151	1371.485	1492.636
