DTS Sentinel unit serial number:	SN413079Multiplexer serial number:	ORYXHardware model number:	OX4-SRSoftware version number:	ORYX F/W v4.00 Oryx Data Collector v3.7.2.0data status	okinstallation	princeton_trtdifferential loss correction	single-endedforward channel	channel 3reverse channel	N/Adate	2019/09/11time	21:14:10forward acquisition time	60.00reverse acquisition time	0.00gamma	496.2192k internal	0.2308k external	0.2308temperature offset calibration	1.0036default loss term (dB/km)	0.3790temperature slope calibration	1.0000multiplexer offset coefficient	1.0000multiplexer slope coefficient	1.0000fibre end	0.00T internal ref (°C)	36.37T ext. ref 1 (°C)	1.59T ext. ref 2 (°C)	30.65length (m)	temperature (°C)	Stokes	anti-Stokes-747.200	192.685	0.103	-0.158
-746.185	800.000	-0.057	0.177
-745.171	121.565	-0.217	0.275
-744.156	-160.867	-0.308	0.016
-743.142	217.515	0.142	-0.230
-742.127	-76.636	-0.507	0.181
-741.112	-101.303	0.388	0.096
-740.098	-38.568	-0.156	0.084
-739.083	81.561	0.315	-0.346
-738.069	73.828	-0.426	0.454
-737.054	-62.200	0.174	0.074
-736.039	485.137	-0.119	-0.275
-735.025	402.149	0.174	0.372
-734.010	428.571	-0.078	-0.171
-732.996	-200.000	0.015	0.075
-731.981	84.498	0.146	0.162
-730.966	-39.627	-0.154	-0.082
-729.952	-200.000	0.023	0.282
-728.937	68.967	-0.102	-0.107
-727.923	-143.493	-0.148	-0.014
-726.908	-200.000	-0.009	-0.136
-725.894	-200.000	0.083	-0.426
-724.879	-18.569	-0.349	-0.221
-723.864	471.439	-0.230	-0.526
-722.850	-93.455	0.175	-0.049
-721.835	514.398	-0.071	-0.169
-720.821	-200.000	-0.013	-0.113
-719.806	1.393	0.294	0.215
-718.791	800.000	-0.051	-0.156
-717.777	-128.586	-0.313	-0.045
-716.762	-200.000	0.006	0.244
-715.748	-135.136	0.118	-0.014
-714.733	98.257	0.119	0.139
-713.718	39.460	0.086	-0.078
-712.704	353.941	-0.142	-0.287
-711.689	-85.223	-0.293	-0.093
-710.675	8.501	-0.374	0.286
-709.660	-133.272	0.252	-0.032
-708.645	-200.000	0.023	-0.183
-707.631	12.640	-0.306	0.239
-706.616	-7.361	-0.128	-0.088
-705.602	249.339	0.213	-0.366
-704.587	800.000	-0.076	-0.330
-703.572	-97.992	-0.116	0.030
-702.558	-27.318	0.080	-0.047
-701.543	-93.664	0.268	-0.075
-700.529	-140.273	0.173	-0.018
-699.514	16.470	0.081	0.065
-698.499	-54.147	-0.241	-0.111
-697.485	223.669	-0.016	0.025
-696.470	-200.000	-0.028	0.462
-695.456	23.504	-0.306	0.255
-694.441	-78.977	0.304	0.105
-693.426	-32.294	0.202	0.115
-692.412	-46.648	0.116	0.058
-691.397	211.134	-0.231	0.368
-690.383	271.344	0.132	-0.235
-689.368	-200.000	0.031	-0.176
-688.354	-5.643	0.233	-0.162
-687.339	356.634	0.035	-0.071
-686.324	277.301	0.168	-0.304
-685.310	-78.172	0.192	0.067
-684.295	106.166	0.122	0.146
-683.281	20.859	-0.121	0.099
-682.266	295.790	0.093	-0.173
-681.251	-36.075	0.219	0.120
-680.237	-63.489	0.370	-0.154
-679.222	82.345	0.136	0.150
-678.208	-200.000	0.027	0.255
-677.193	11.265	-0.172	-0.133
-676.178	-53.854	-0.204	-0.094
-675.164	179.612	-0.096	0.142
-674.149	21.334	0.186	0.153
-673.135	657.158	0.068	-0.177
-672.120	86.625	-0.113	-0.126
-671.105	-200.000	0.013	-0.059
-670.091	-112.307	0.118	0.024
-669.076	-78.308	-0.431	0.150
-668.062	800.000	-0.149	0.420
-667.047	-0.294	0.162	-0.116
-666.032	-39.575	0.370	0.196
-665.018	70.953	-0.115	0.121
-664.003	20.604	-0.073	-0.060
-662.989	47.309	-0.086	-0.082
-661.974	-44.839	-0.245	0.124
-660.959	-200.000	-0.004	0.119
-659.945	-101.189	0.103	0.025
-658.930	162.406	-0.080	-0.114
-657.916	-107.247	0.070	-0.016
-656.901	-67.984	-0.095	-0.037
-655.886	61.632	-0.149	-0.150
-654.872	334.188	-0.125	-0.245
-653.857	-143.515	0.183	0.018
-652.843	-112.055	-0.193	-0.039
-651.828	6.551	-0.150	0.113
-650.814	-60.500	-0.236	0.101
-649.799	-53.456	-0.263	-0.122
-648.784	-200.000	0.007	0.074
-647.770	166.567	-0.309	0.443
-646.755	12.915	-0.074	-0.058
-645.741	-123.817	-0.096	0.015
-644.726	-200.000	0.116	0.000
-643.711	-200.000	0.051	0.234
-642.697	-15.894	0.140	-0.090
-641.682	-58.075	-0.149	0.066
-640.668	800.000	0.019	-0.066
-639.653	-200.000	0.024	0.230
-638.638	35.888	-0.182	0.162
-637.624	-6.087	-0.148	-0.102
-636.609	-200.000	0.016	-0.213
-635.595	-35.256	-0.093	0.051
-634.580	90.371	-0.234	0.265
-633.565	-200.000	-0.014	-0.145
-632.551	123.815	0.124	0.158
-631.536	-200.000	-0.099	-0.597
-630.522	-200.000	-0.047	-0.327
-629.507	-33.037	-0.159	0.089
-628.492	208.622	0.083	-0.131
-627.478	367.173	-0.020	0.041
-626.463	-24.690	-0.185	-0.111
-625.449	315.685	0.051	0.097
-624.434	-103.775	0.158	-0.037
-623.419	-154.009	0.154	0.011
-622.405	-128.531	-0.111	-0.016
-621.390	494.315	-0.060	0.140
-620.376	-200.000	-0.038	-0.316
-619.361	-109.272	-0.212	-0.045
-618.346	-200.000	0.051	0.319
-617.332	247.500	-0.176	-0.300
-616.317	-29.233	0.050	-0.029
-615.303	216.546	-0.119	-0.192
-614.288	-58.334	-0.245	0.108
-613.273	50.174	0.190	0.182
-612.259	111.624	-0.173	-0.211
-611.244	333.134	-0.122	-0.238
-610.230	-92.447	0.235	-0.067
-609.215	800.000	-0.037	0.159
-608.201	105.033	-0.084	-0.100
-607.186	387.390	0.177	-0.370
-606.171	-200.000	-0.052	0.259
-605.157	68.806	-0.096	0.100
-604.142	96.739	0.147	0.171
-603.128	800.000	0.062	0.212
-602.113	463.825	-0.089	-0.201
-601.098	57.522	-0.053	0.052
-600.084	-109.128	-0.154	0.033
-599.069	-200.000	0.007	-0.439
-598.055	800.000	-0.123	-0.343
-597.040	-40.941	-0.217	0.113
-596.025	-61.456	0.166	-0.071
-595.011	-197.530	0.385	0.002
-593.996	800.000	0.017	0.054
-592.982	800.000	-0.083	0.342
-591.967	800.000	0.067	0.275
-590.952	-75.583	0.339	-0.122
-589.938	-200.000	0.049	-0.260
-588.923	-12.052	-0.220	-0.146
-587.909	-120.084	-0.295	-0.051
-586.894	-95.336	0.109	-0.030
-585.879	351.666	-0.046	0.092
-584.865	800.000	0.039	-0.167
-583.850	248.924	-0.144	-0.247
-582.836	-164.682	-0.336	0.015
-581.821	-200.000	0.003	-0.042
-580.806	101.438	-0.134	-0.158
-579.792	181.750	0.118	0.176
-578.777	-200.000	-0.009	-0.051
-577.763	-54.378	-0.194	-0.089
-576.748	800.000	0.076	-0.215
-575.733	-145.674	-0.218	-0.020
-574.719	-200.000	0.058	-0.277
-573.704	165.291	0.111	0.158
-572.690	-200.000	0.004	-0.190
-571.675	-200.000	0.062	-0.278
-570.661	764.060	0.050	-0.138
-569.646	224.979	0.109	0.177
-568.631	360.310	0.135	0.272
-567.617	294.650	0.026	0.049
-566.602	-162.708	-0.377	-0.019
-565.588	-200.000	-0.012	0.077
-564.573	-29.724	-0.207	-0.119
-563.558	121.788	-0.132	-0.166
-562.544	207.380	0.088	-0.139
-561.529	58.366	0.225	-0.223
-560.515	-26.694	0.072	0.043
-559.500	86.702	-0.213	-0.238
-558.485	-100.609	-0.166	0.041
-557.471	-200.000	0.025	0.149
-556.456	-96.528	0.054	0.014
-555.442	-145.058	0.042	-0.004
-554.427	277.195	0.082	0.146
-553.412	77.040	0.032	-0.034
-552.398	175.057	-0.238	-0.347
-551.383	-200.000	0.012	0.076
-550.369	800.000	-0.077	0.232
-549.354	237.941	-0.089	0.148
-548.339	602.811	-0.064	0.160
-547.325	-106.677	-0.265	0.059
-546.310	800.000	0.093	0.312
-545.296	142.756	0.107	-0.144
-544.281	-200.000	0.007	0.123
-543.266	-57.499	0.204	-0.090
-542.252	-1.793	-0.142	0.101
-541.237	-86.952	-0.063	0.019
-540.223	524.145	0.080	0.190
-539.208	-90.402	-0.339	0.099
-538.193	83.712	0.127	-0.140
-537.179	83.404	0.107	0.117
-536.164	347.636	-0.076	0.152
-535.150	-133.345	0.044	0.006
-534.135	-135.895	-0.225	0.027
-533.121	468.687	-0.044	0.099
-532.106	666.322	0.058	-0.152
-531.091	-87.608	-0.350	-0.107
-530.077	-187.570	0.108	-0.001
-529.062	17.397	0.175	-0.140
-528.048	544.857	-0.116	-0.280
-527.033	800.000	0.012	-0.039
-526.018	48.709	-0.262	0.248
-525.004	-57.310	-0.209	0.092
-523.989	-185.209	-0.310	-0.005
-522.975	121.187	0.214	0.269
-521.960	-42.520	-0.098	0.050
-520.945	-3.333	-0.158	-0.111
-519.931	-200.000	-0.026	0.146
-518.916	-108.180	-0.135	-0.029
-517.902	800.000	0.057	-0.192
-516.887	128.111	0.116	0.149
-515.872	-200.000	0.028	-0.254
-514.858	25.601	-0.289	0.243
-513.843	40.457	-0.096	0.087
-512.829	401.322	0.072	-0.153
-511.814	18.900	-0.072	-0.058
-510.799	800.000	0.088	-0.271
-509.785	69.728	-0.170	0.177
-508.770	-200.000	-0.032	0.308
-507.756	-25.711	-0.315	0.187
-506.741	-57.068	0.026	-0.012
-505.726	-200.000	0.015	0.103
-504.712	-0.231	-0.174	0.124
-503.697	176.388	0.104	-0.153
-502.683	720.998	0.106	-0.284
-501.668	22.414	-0.274	0.225
-500.653	52.775	0.077	-0.074
-499.639	800.000	0.048	0.156
-498.624	129.736	0.050	0.064
-497.610	-197.255	0.435	-0.003
-496.595	-200.000	0.004	-0.044
-495.581	800.000	0.056	0.186
-494.566	3.344	0.132	0.097
-493.551	-39.109	0.260	-0.137
-492.537	800.000	0.025	0.083
-491.522	125.689	0.191	0.243
-490.508	186.014	-0.165	-0.247
-489.493	-53.617	0.318	-0.146
-488.478	718.524	0.078	-0.208
-487.464	77.806	-0.317	-0.339
-486.449	25.253	-0.045	0.038
-485.435	506.319	0.081	-0.190
-484.420	286.257	-0.177	0.321
-483.405	656.256	-0.093	-0.240
-482.391	-70.089	-0.199	-0.076
-481.376	338.901	-0.112	-0.219
-480.362	-27.248	0.054	0.032
-479.347	-126.836	0.363	-0.054
-478.332	349.262	0.104	-0.207
-477.318	271.570	-0.150	-0.266
-476.303	-129.024	0.184	-0.026
-475.289	48.932	-0.109	-0.103
-474.274	63.911	-0.179	-0.181
-473.259	-22.666	-0.089	0.054
-472.245	-200.000	0.025	-0.209
-471.230	310.746	0.075	-0.141
-470.216	-132.277	-0.268	-0.035
-469.201	350.517	-0.184	-0.366
-468.186	140.166	0.101	0.134
-467.172	-96.680	0.216	-0.057
-466.157	-153.164	0.139	0.010
-465.143	-200.000	-0.019	-0.175
-464.128	-50.302	0.152	0.072
-463.113	237.894	0.129	0.216
-462.099	89.647	0.092	0.104
-461.084	13.450	0.301	-0.235
-460.070	-200.000	0.031	0.188
-459.055	-200.000	-0.021	0.252
-458.040	159.720	0.030	0.042
-457.026	19.483	0.164	-0.133
-456.011	-200.000	-0.017	-0.134
-454.997	-200.000	-0.035	0.341
-453.982	36.790	-0.181	0.160
-452.968	800.000	0.126	0.392
-451.953	62.508	0.071	0.072
-450.938	-147.828	-0.023	-0.002
-449.924	-58.695	0.100	0.043
-448.909	-125.702	0.350	0.053
-447.895	-69.437	-0.301	-0.116
-446.880	-200.000	0.033	-0.171
-445.865	-200.000	-0.050	0.337
-444.851	-13.551	-0.079	-0.051
-443.836	-39.806	-0.158	0.083
-442.822	-117.926	-0.250	-0.045
-441.807	368.488	-0.075	-0.152
-440.792	-23.791	-0.155	0.093
-439.778	99.239	-0.276	-0.320
-438.763	-40.215	0.327	0.171
-437.749	235.799	-0.211	-0.350
-436.734	342.166	0.107	-0.210
-435.719	-200.000	-0.024	0.112
-434.705	-76.033	-0.253	-0.090
-433.690	19.083	-0.246	0.198
-432.676	9.190	-0.148	-0.112
-431.661	-57.745	-0.153	-0.067
-430.646	-47.228	0.073	0.036
-429.632	128.395	0.259	0.332
-428.617	60.891	0.070	0.070
-427.603	800.000	0.057	-0.179
-426.588	800.000	-0.030	0.126
-425.573	-130.635	-0.396	-0.053
-424.559	-53.253	-0.075	0.035
-423.544	13.794	0.055	-0.043
-422.530	59.568	-0.057	-0.057
-421.515	-125.147	-0.075	0.012
-420.500	-200.000	-0.007	0.107
-419.486	412.100	-0.139	-0.297
-418.471	76.328	-0.083	-0.088
-417.457	-157.729	0.058	0.003
-416.442	-103.408	-0.159	-0.038
-415.428	-137.254	0.184	-0.021
-414.413	-50.414	0.135	-0.064
-413.398	24.512	0.194	0.161
-412.384	23.583	0.210	0.173
-411.369	800.000	-0.120	0.495
-410.355	286.033	0.162	0.294
-409.340	455.657	-0.119	0.266
-408.325	-31.374	0.243	0.137
-407.311	168.249	-0.041	0.059
-406.296	-73.919	0.219	0.080
-405.282	800.000	0.099	0.285
-404.267	368.820	0.022	-0.044
-403.252	-173.556	0.164	0.005
-402.238	577.128	0.088	-0.216
-401.223	28.527	0.132	-0.112
-400.209	-92.222	-0.220	0.062
-399.194	159.274	0.017	-0.023
-398.179	-182.529	0.381	0.007
-397.165	-200.000	0.021	0.099
-396.150	-71.795	0.109	-0.041
-395.136	-138.689	-0.184	0.020
-394.121	206.696	-0.054	-0.085
-393.106	312.838	-0.086	0.163
-392.092	800.000	-0.104	0.341
-391.077	-135.387	0.164	-0.020
-390.063	-70.888	-0.073	-0.028
-389.048	353.677	-0.124	-0.246
-388.033	-30.243	-0.022	0.013
-387.019	-156.661	0.164	-0.010
-386.004	76.564	0.142	0.151
-384.990	-155.741	-0.315	0.020
-383.975	34.614	0.277	0.242
-382.960	-200.000	-0.050	-0.281
-381.946	800.000	0.078	0.262
-380.931	-200.000	0.013	0.272
-379.917	466.982	-0.152	0.340
-378.902	610.095	0.134	0.336
-377.888	800.000	0.039	0.170
-376.873	-200.000	0.007	0.039
-375.858	-200.000	0.014	-0.154
-374.844	516.442	-0.115	0.270
-373.829	-200.000	-0.007	-0.185
-372.815	45.276	0.352	-0.325
-371.800	176.211	-0.189	-0.275
-370.785	-200.000	0.025	-0.167
-369.771	21.954	0.171	0.140
-368.756	-139.910	0.234	0.025
-367.742	-164.918	0.191	-0.009
-366.727	800.000	-0.083	-0.238
-365.712	-10.183	0.183	0.122
-364.698	280.324	0.093	0.166
-363.683	53.022	-0.279	0.267
-362.669	800.000	0.075	-0.257
-361.654	800.000	-0.141	-0.530
-360.639	-50.258	0.262	-0.124
-359.625	571.513	0.052	-0.127
-358.610	136.212	0.110	-0.143
-357.596	-200.000	-0.015	0.132
-356.581	-120.448	0.328	-0.056
-355.566	800.000	-0.028	-0.114
-354.552	-92.745	0.181	0.051
-353.537	-12.512	-0.083	-0.054
-352.523	270.476	-0.154	0.271
-351.508	7.064	-0.152	0.114
-350.493	668.629	-0.076	-0.197
-349.479	-71.173	-0.379	-0.142
-348.464	-108.632	0.403	0.086
-347.450	484.529	-0.083	-0.190
-346.435	93.829	0.153	-0.173
-345.420	-96.651	-0.329	0.087
-344.406	-191.572	-0.078	0.001
-343.391	-179.332	0.116	0.003
-342.377	-100.574	-0.301	-0.074
-341.362	298.019	-0.103	0.190
-340.348	-15.975	-0.006	-0.004
-339.333	481.799	0.065	-0.147
-338.318	-127.536	0.151	0.022
-337.304	-65.985	-0.408	0.163
-336.289	-49.413	-0.171	-0.082
-335.275	27.631	-0.235	0.198
-334.260	-78.354	-0.457	0.157
-333.245	91.955	-0.243	-0.274
-332.231	-5.206	-0.203	-0.139
-331.216	101.699	0.056	0.066
-330.202	-81.793	0.294	0.096
-329.187	-9.513	0.081	-0.054
-328.172	800.000	-0.016	0.051
-327.158	-1.303	0.178	-0.126
-326.143	-200.000	0.052	-0.545
-325.129	602.818	0.122	0.303
-324.114	557.427	0.152	0.365
-323.099	-200.000	0.013	-0.230
-322.085	-76.579	0.185	-0.065
-321.070	-200.000	0.030	0.276
-320.056	-200.000	-0.027	-0.129
-319.041	43.710	0.144	-0.131
-318.026	512.841	-0.131	0.304
-317.012	800.000	-0.048	0.173
-315.997	-110.940	-0.125	-0.026
-314.983	-22.727	0.141	0.085
-313.968	350.938	0.095	0.187
-312.953	800.000	-0.050	0.173
-311.939	-200.000	-0.075	0.375
-310.924	9.229	-0.145	-0.109
-309.910	-130.700	-0.212	-0.028
-308.895	-200.000	-0.009	-0.043
-307.880	322.057	-0.159	0.302
-306.866	11.182	0.199	-0.152
-305.851	-180.744	-0.038	0.001
-304.837	-200.000	0.111	-0.000
-303.822	800.000	-0.024	-0.099
-302.807	-59.179	-0.087	-0.037
-301.793	222.538	-0.069	0.111
-300.778	376.335	0.118	0.241
-299.764	-200.000	-0.030	-0.217
-298.749	76.076	0.154	0.163
-297.735	240.782	0.036	0.060
-296.720	-10.215	-0.266	-0.176
-295.705	-97.780	-0.264	0.068
-294.691	800.000	-0.085	0.268
-293.676	-133.506	0.196	-0.025
-292.662	800.000	0.066	-0.201
-291.647	800.000	0.116	-0.363
-290.632	740.179	0.156	-0.419
-289.618	-118.805	0.264	-0.046
-288.603	320.728	0.160	0.304
-287.589	-48.215	0.288	0.139
-286.574	-82.750	-0.175	0.056
-285.559	-66.571	0.147	-0.058
-284.545	19.162	-0.166	0.133
-283.530	-60.628	0.031	0.013
-282.516	-200.000	-0.038	-0.372
-281.501	-131.279	0.261	-0.035
-280.486	-142.118	0.031	-0.003
-279.472	-130.787	0.202	0.027
-278.457	-200.000	-0.005	-0.501
-277.443	704.114	-0.125	0.330
-276.428	-93.971	0.162	0.045
-275.413	-73.975	0.176	-0.064
-274.399	6.416	-0.108	0.080
-273.384	94.411	0.088	0.099
-272.370	800.000	-0.029	0.099
-271.355	-113.196	-0.286	-0.056
-270.340	-82.099	0.244	0.080
-269.326	-200.000	0.057	0.424
-268.311	251.921	0.024	0.040
-267.297	-99.053	0.142	0.036
-266.282	-200.000	0.025	0.222
-265.267	-131.625	0.161	-0.021
-264.253	-200.000	-0.002	-0.368
-263.238	-27.089	-0.475	0.276
-262.224	-35.740	0.096	0.052
-261.209	800.000	0.106	-0.413
-260.195	-101.844	0.280	-0.068
-259.180	-112.547	0.188	0.037
-258.165	-200.000	0.013	0.248
-257.151	-132.210	0.271	-0.035
-256.136	800.000	-0.094	-0.275
-255.122	-105.745	-0.336	-0.076
-254.107	564.114	0.113	-0.272
-253.092	-143.256	-0.120	0.011
-252.078	375.227	-0.082	0.167
-251.063	-200.000	0.064	-0.289
-250.049	-200.000	0.007	0.272
-249.034	62.783	-0.094	-0.094
-248.019	10.186	0.174	0.132
-247.005	22.006	0.132	0.107
-245.990	-200.000	0.003	0.121
-244.976	-52.692	-0.054	-0.025
-243.961	301.834	-0.089	-0.164
-242.946	-23.148	-0.039	-0.024
-241.932	187.373	0.084	-0.125
-240.917	-200.000	-0.005	-0.486
-239.903	236.563	0.121	0.200
-238.888	-45.797	0.123	-0.061
-237.873	-80.691	0.127	-0.042
-236.859	247.638	-0.074	-0.124
-235.844	-200.000	0.064	0.414
-234.830	88.274	0.042	-0.047
-233.815	-124.069	-0.434	0.068
-232.800	18.399	0.137	0.109
-231.786	719.222	0.024	0.063
-230.771	-82.979	-0.143	-0.046
-229.757	71.563	-0.118	0.122
-228.742	-47.037	-0.269	-0.131
-227.727	440.964	0.047	0.103
-226.713	-148.833	0.151	0.012
-225.698	-200.000	-0.012	0.205
-224.684	-200.000	-0.034	0.323
-223.669	27.541	0.029	0.025
-222.655	130.715	-0.143	0.182
-221.640	81.553	-0.140	0.150
-220.625	-200.000	0.369	-0.001
-219.611	-58.766	-0.254	0.109
-218.596	-166.703	0.132	-0.005
-217.582	-198.812	0.088	0.000
-216.567	3.458	-0.194	-0.141
-215.552	474.059	-0.060	-0.135
-214.538	-155.709	-0.258	-0.016
-213.523	-171.291	0.219	0.007
-212.509	162.020	0.215	-0.300
-211.494	-15.121	0.091	0.058
-210.479	-22.060	-0.233	0.141
-209.465	69.993	0.118	-0.121
-208.450	389.309	-0.091	0.188
-207.436	82.980	0.174	0.189
-206.421	800.000	0.060	-0.172
-205.406	-77.468	-0.332	-0.115
-204.392	-24.077	0.141	-0.084
-203.377	24.792	0.027	-0.023
-202.363	-85.814	0.142	0.044
-201.348	-27.829	-0.039	0.023
-200.333	-132.078	0.207	0.027
-199.319	-16.389	-0.123	0.078
-198.304	281.699	0.048	-0.086
-197.290	-132.640	0.291	0.037
-196.275	-200.000	-0.024	-0.134
-195.260	800.000	0.106	0.384
-194.246	-200.000	0.015	0.375
-193.231	-150.397	0.161	0.012
-192.217	-93.150	0.090	0.025
-191.202	-75.890	0.543	-0.191
-190.187	-153.948	0.114	0.008
-189.173	-113.237	-0.437	0.086
-188.158	154.974	-0.111	0.152
-187.144	-103.734	0.230	-0.054
-186.129	-157.557	0.296	-0.018
-185.114	-86.283	-0.083	-0.025
-184.100	13.159	0.195	-0.150
-183.085	800.000	0.012	-0.038
-182.071	356.729	0.056	-0.111
-181.056	76.721	-0.195	-0.206
-180.042	-200.000	0.011	-0.180
-179.027	-114.448	0.204	-0.039
-178.012	3.157	0.225	0.163
-176.998	800.000	0.104	-0.341
-175.983	-200.000	-0.017	-0.232
-174.969	56.916	-0.129	0.125
-173.954	8.726	-0.061	-0.046
-172.939	113.701	-0.223	-0.269
-171.925	-200.000	-0.065	-0.347
-170.910	79.925	0.182	-0.195
-169.896	220.375	0.144	-0.229
-168.881	-112.298	0.235	0.047
-167.866	-200.000	0.037	0.474
-166.852	232.121	0.171	-0.279
-165.837	-105.456	0.117	0.026
-164.823	-149.671	0.293	-0.023
-163.808	-10.216	0.432	0.285
-162.793	67.990	-0.104	0.106
-161.779	-200.000	-0.041	0.548
-160.764	-200.000	0.002	-0.182
-159.750	-19.441	-0.435	-0.268
-158.735	-98.406	-0.053	-0.013
-157.720	-200.000	-0.006	0.197
-156.706	406.912	0.078	0.164
-155.691	-200.000	-0.017	0.082
-154.677	-53.219	0.203	-0.092
-153.662	-62.832	-0.180	-0.074
-152.647	6.256	0.058	0.043
-151.633	496.827	0.086	0.197
-150.618	-7.071	-0.151	0.102
-149.604	800.000	0.114	0.357
-148.589	-200.000	0.004	0.152
-147.574	-95.402	-0.107	-0.029
-146.560	-200.000	-0.000	-0.045
-145.545	-200.000	-0.039	0.197
-144.531	237.434	0.244	0.401
-143.516	-165.944	-0.123	0.005
-142.502	50.487	0.161	-0.151
-141.487	800.000	0.089	0.308
-140.472	-117.064	0.180	0.033
-139.458	-171.742	-0.265	0.009
-138.443	-200.000	-0.015	0.176
-137.429	-160.652	0.231	0.012
-136.414	116.626	0.138	-0.168
-135.399	800.000	0.064	-0.222
-134.385	779.867	-0.059	0.160
-133.370	-200.000	0.012	-0.162
-132.356	-200.000	0.022	0.175
-131.341	800.000	0.105	0.337
-130.326	-70.513	-0.304	0.114
-129.312	-112.482	-0.311	-0.062
-128.297	-200.000	0.100	-0.456
-127.283	-200.000	-0.009	-0.051
-126.268	-200.000	-0.080	0.526
-125.253	-127.684	-0.352	-0.051
-124.239	-200.000	-0.041	-0.213
-123.224	-200.000	0.079	-0.373
-122.210	135.036	0.056	-0.072
-121.195	-200.000	-0.060	-0.427
-120.180	372.481	0.081	-0.164
-119.166	503.140	-0.092	0.210
-118.151	800.000	0.019	-0.070
-117.137	-200.000	-0.001	-0.244
-116.122	-120.478	0.158	0.027
-115.107	-200.000	-0.042	0.388
-114.093	-110.345	0.367	-0.076
-113.078	782.107	-0.049	-0.133
-112.064	171.556	-0.255	0.363
-111.049	-152.878	0.300	-0.021
-110.034	15.299	-0.268	-0.208
-109.020	208.596	0.112	-0.173
-108.005	-10.419	-0.150	-0.099
-106.991	-189.580	0.223	0.003
-105.976	392.060	0.097	-0.200
-104.962	-151.469	-0.153	-0.011
-103.947	800.000	0.058	0.249
-102.932	-200.000	-0.033	-0.210
-101.918	-79.253	0.253	0.085
-100.903	11.428	0.252	-0.192
-99.889	-200.000	-0.027	0.151
-98.874	82.976	-0.103	-0.111
-97.859	-100.607	-0.321	0.079
-96.845	-200.000	0.047	0.000
-95.830	800.000	-0.057	-0.170
-94.816	-138.808	-0.403	-0.044
-93.801	423.791	0.181	0.385
-92.786	121.250	-0.127	0.156
-91.772	-51.151	-0.314	0.146
-90.757	-78.717	-0.225	0.076
-89.743	6.843	0.117	-0.086
-88.728	-172.582	0.476	0.015
-87.713	800.000	0.076	0.315
-86.699	256.309	0.192	0.327
-85.684	231.786	-0.130	-0.211
-84.670	160.708	-0.212	-0.293
-83.655	-120.802	0.199	-0.033
-82.640	800.000	0.024	0.096
-81.626	558.373	-0.040	0.095
-80.611	-179.443	0.520	0.011
-79.597	-116.170	0.289	0.053
-78.582	-101.041	0.110	-0.027
-77.567	-99.344	0.519	0.130
-76.553	-67.198	0.197	-0.077
-75.538	49.278	0.188	-0.175
-74.524	-108.134	-0.110	0.024
-73.509	20.557	-0.125	0.100
-72.494	800.000	-0.081	-0.313
-71.480	140.201	0.077	-0.100
-70.465	-105.071	0.280	0.063
-69.451	202.102	0.121	-0.185
-68.436	-77.147	-0.018	0.006
-67.422	-12.149	0.348	-0.225
-66.407	146.992	-0.236	0.314
-65.392	729.339	-0.105	-0.279
-64.378	-47.179	-0.380	0.183
-63.363	442.095	-0.029	0.063
-62.349	103.645	0.174	-0.203
-61.334	32.508	-1.009	-0.863
-60.319	290.153	0.253	0.454
-59.305	800.000	-0.305	-1.028
-58.290	800.000	0.305	1.005
-57.276	319.401	0.691	1.296
-56.261	-200.000	91.232	545.551
-55.246	536.626	1361.908	3198.708
-54.232	153.190	2572.609	3482.050
-53.217	115.997	2190.401	2652.509
-52.203	46.881	1728.562	1589.284
-51.188	39.508	1537.610	1362.905
-50.173	37.036	1509.887	1321.455
-49.159	55.712	1558.541	1493.708
-48.144	59.482	1578.312	1538.686
-47.130	39.966	1534.991	1363.527
-46.115	36.658	1519.165	1326.774
-45.100	36.497	1516.055	1322.901
-44.086	36.384	1514.326	1320.567
-43.071	36.353	1512.674	1318.867
-42.057	36.215	1511.147	1316.539
-41.042	36.356	1509.083	1315.650
-40.027	36.314	1508.098	1314.455
-39.013	36.407	1506.643	1313.762
-37.998	36.355	1505.253	1312.146
-36.984	36.346	1504.135	1311.061
-35.969	36.413	1502.294	1309.857
-34.954	36.354	1501.424	1308.644
-33.940	36.247	1500.089	1306.706
-32.925	36.356	1498.878	1306.336
-31.911	36.414	1497.518	1305.489
-30.896	36.437	1495.696	1304.007
-29.881	36.480	1494.502	1303.203
-28.867	36.473	1492.736	1301.564
-27.852	36.383	1491.826	1300.117
-26.838	36.441	1490.183	1299.018
-25.823	36.352	1489.196	1297.509
-24.809	36.363	1487.345	1295.918
-23.794	36.363	1485.678	1294.414
-22.779	36.389	1484.550	1293.557
-21.765	36.448	1483.115	1292.652
-20.750	36.411	1482.434	1291.755
-19.736	36.474	1480.690	1290.609
-18.721	36.444	1479.824	1289.601
-17.706	36.519	1478.422	1288.825
-16.692	36.292	1478.103	1286.984
-15.677	36.424	1476.547	1286.458
-14.663	36.313	1475.970	1285.165
-13.648	36.394	1474.757	1284.595
-12.633	36.260	1474.069	1283.054
-11.619	36.365	1472.726	1282.532
-10.604	36.274	1472.365	1281.564
-9.590	36.286	1471.654	1280.972
-8.575	36.367	1470.205	1280.201
-7.560	36.456	1469.729	1280.321
-6.546	36.379	1468.454	1278.653
-5.531	36.329	1467.773	1277.676
-4.517	36.268	1466.844	1276.415
-3.502	36.227	1465.809	1275.194
-2.487	36.368	1464.740	1275.144
-1.473	36.293	1464.093	1274.032
-0.458	36.338	1462.077	1272.524
0.556	36.142	1452.809	1260.590
1.571	33.148	1426.464	1218.363
2.586	29.417	1364.570	1142.347
3.600	27.597	1281.975	1062.513
4.615	26.099	1234.531	1014.683
5.629	21.892	1177.058	944.758
6.644	11.375	1088.454	820.906
7.659	3.059	1044.046	747.068
8.673	1.836	1038.657	737.233
9.688	1.661	1035.208	733.874
10.702	1.433	1034.263	732.045
11.717	1.411	1032.139	730.369
12.731	5.102	1036.756	751.370
13.746	15.407	1050.854	811.598
14.761	22.885	1060.623	855.435
15.775	24.343	1061.669	863.263
16.790	24.543	1060.928	863.553
17.804	24.398	1060.352	862.307
18.819	24.301	1059.074	860.722
19.834	24.341	1058.755	860.582
20.848	24.360	1058.666	860.522
21.863	24.425	1058.216	860.397
22.877	24.440	1057.573	859.868
23.892	24.507	1056.751	859.446
24.907	24.443	1055.784	858.275
25.921	24.410	1055.580	857.874
26.936	24.375	1054.665	856.889
27.950	24.354	1053.438	855.717
28.965	24.408	1052.314	854.982
29.980	24.154	1051.025	852.645
30.994	24.212	1049.651	851.734
32.009	24.385	1048.888	851.865
33.023	24.448	1048.490	851.768
34.038	24.338	1047.153	850.079
35.053	24.227	1046.579	849.010
36.067	24.470	1045.844	849.497
37.082	24.374	1045.053	848.324
38.096	24.455	1044.401	848.105
39.111	24.638	1043.887	848.479
40.126	24.743	1043.115	848.277
41.140	24.635	1041.557	846.420
42.155	24.288	1040.296	843.679
43.169	24.079	1039.074	841.626
44.184	24.027	1038.257	840.646
45.199	24.156	1036.970	840.139
46.213	23.927	1036.487	838.591
47.228	24.019	1035.252	837.953
48.242	24.059	1034.827	837.720
49.257	24.201	1033.884	837.552
50.271	24.251	1033.259	837.207
51.286	24.426	1032.419	837.271
52.301	24.523	1031.537	836.939
53.315	24.569	1031.054	836.687
54.330	24.531	1029.861	835.468
55.344	24.359	1029.633	834.404
56.359	24.453	1028.381	833.755
57.374	24.456	1027.847	833.263
58.388	24.356	1026.606	831.715
59.403	24.148	1026.359	830.473
60.417	24.249	1025.382	830.079
61.432	24.043	1024.621	828.432
62.447	23.962	1024.475	827.861
63.461	24.178	1023.315	827.854
64.476	24.269	1022.429	827.486
65.490	24.257	1021.465	826.577
66.505	24.174	1020.658	825.469
67.520	24.102	1019.986	824.516
68.534	24.176	1019.434	824.341
69.549	24.124	1018.537	823.304
70.563	23.761	1017.314	820.564
71.578	23.654	1016.535	819.370
72.593	23.681	1015.622	818.686
73.607	23.685	1013.999	817.322
74.622	23.566	1013.649	816.422
75.636	23.767	1013.239	816.945
76.651	24.019	1012.543	817.468
77.666	23.749	1011.851	815.599
78.680	23.657	1011.145	814.536
79.695	23.807	1010.272	814.445
80.709	24.049	1009.123	814.557
81.724	24.069	1008.398	813.991
82.739	23.907	1008.121	812.952
83.753	23.972	1007.534	812.708
84.768	24.282	1006.487	813.204
85.782	24.489	1006.201	813.845
86.797	24.730	1005.515	814.315
87.812	24.631	1004.492	812.962
88.826	24.561	1003.347	811.647
89.841	24.558	1002.661	811.009
90.855	24.570	1001.921	810.393
91.870	24.618	1001.442	810.149
92.884	24.589	1000.695	809.344
93.899	24.540	999.692	808.237
94.914	24.397	998.554	806.601
95.928	24.448	997.916	806.244
96.943	24.619	997.005	806.209
97.957	24.368	995.966	804.166
98.972	24.034	994.743	801.601
99.987	23.866	994.165	800.310
101.001	23.846	993.519	799.628
102.016	24.378	992.667	801.261
103.030	24.469	991.623	800.759
104.045	24.283	990.659	799.076
105.060	24.189	989.350	797.527
106.074	24.054	987.782	795.589
107.089	24.147	987.029	795.326
108.103	24.324	987.311	796.273
109.118	24.460	986.396	796.071
110.133	24.125	985.066	793.438
111.147	24.046	984.385	792.468
112.162	23.973	982.825	790.815
113.176	23.745	982.176	789.212
114.191	23.983	981.204	789.417
115.206	23.991	980.503	788.820
116.220	23.692	979.712	786.788
117.235	23.630	978.413	785.401
118.249	23.796	977.838	785.601
119.264	23.840	976.782	784.881
120.279	23.746	975.814	783.617
121.293	23.666	975.454	782.908
122.308	23.864	974.414	782.874
123.322	23.722	974.088	781.918
124.337	23.811	972.590	781.039
125.352	23.615	971.498	779.232
126.366	23.316	969.705	776.413
127.381	22.973	968.622	773.978
128.395	23.476	968.540	776.045
129.410	24.233	968.261	779.062
130.424	24.312	967.599	778.807
131.439	24.321	966.577	777.954
132.454	24.239	965.453	776.623
133.468	24.390	964.687	776.593
134.483	24.136	964.148	774.987
135.497	24.241	963.330	774.719
136.512	24.340	963.311	775.063
137.527	24.461	962.225	774.646
138.541	24.513	961.273	774.037
139.556	24.544	960.445	773.437
140.570	24.568	959.621	772.809
141.585	24.409	959.178	771.694
142.600	24.630	958.023	771.653
143.614	24.671	957.049	770.979
144.629	24.560	956.262	769.797
145.643	24.856	956.185	770.942
146.658	24.907	954.317	769.586
147.673	24.563	953.235	767.167
148.687	24.405	952.594	765.909
149.702	24.325	951.566	764.671
150.716	24.204	950.412	763.156
151.731	24.203	949.473	762.332
152.746	24.193	948.924	761.779
153.760	24.505	948.063	762.352
154.775	24.607	947.382	762.175
155.789	24.623	946.861	761.754
156.804	24.576	945.409	760.321
157.819	24.586	944.427	759.504
158.833	24.597	943.767	758.954
159.848	24.859	942.757	759.186
160.862	24.833	942.443	758.756
161.877	24.669	941.100	756.914
162.892	24.665	940.646	756.465
163.906	24.567	939.872	755.361
164.921	24.668	938.685	754.768
165.935	24.596	937.431	753.389
166.950	24.810	936.404	753.398
167.964	24.618	936.144	752.311
168.979	24.610	934.866	751.185
169.994	24.547	933.760	749.964
171.008	24.431	933.035	748.832
172.023	24.725	932.151	749.288
173.037	24.830	931.340	749.010
174.052	24.556	930.292	746.953
175.067	24.393	929.209	745.335
176.081	24.352	928.613	744.621
177.096	24.531	927.593	744.486
178.110	24.471	927.162	743.821
179.125	24.152	926.187	741.646
180.140	23.940	924.888	739.660
181.154	23.976	924.542	739.468
182.169	24.158	924.270	739.940
183.183	24.414	923.639	740.433
184.198	24.611	923.069	740.727
185.213	24.560	922.607	740.079
186.227	24.619	921.276	739.190
187.242	24.585	921.642	739.277
188.256	24.600	921.022	738.776
189.271	24.559	919.965	737.694
190.286	24.610	919.222	737.243
191.300	24.625	917.933	736.204
192.315	24.050	916.841	732.899
193.329	23.412	915.053	728.781
194.344	22.888	914.379	726.028
195.359	23.452	914.592	728.448
196.373	24.380	914.616	732.217
197.388	24.653	914.446	733.134
198.402	24.501	914.088	732.160
199.417	24.449	913.554	731.452
200.432	24.436	912.820	730.749
201.446	24.366	912.388	730.051
202.461	24.004	911.306	727.639
203.475	24.173	910.694	727.778
204.490	23.805	909.438	725.210
205.504	22.586	907.404	718.555
206.519	23.014	907.183	720.060
207.534	24.055	907.479	724.473
208.548	24.133	906.933	724.290
209.563	24.537	906.789	725.753
210.577	24.430	906.224	724.802
211.592	24.336	905.135	723.485
212.607	24.603	905.383	724.702
213.621	24.679	905.161	724.768
214.636	24.612	904.446	723.861
215.650	24.735	903.756	723.743
216.665	24.625	903.096	722.703
217.680	24.641	902.403	722.150
218.694	24.840	901.742	722.362
219.709	24.417	901.446	720.354
220.723	24.148	899.947	718.007
221.738	24.225	899.875	718.198
222.753	24.432	899.158	718.396
223.767	24.452	898.394	717.802
224.782	24.590	897.389	717.490
225.796	24.665	897.320	717.671
226.811	24.753	896.336	717.175
227.826	24.438	895.360	715.068
228.840	23.760	893.598	710.884
229.855	23.479	893.477	709.600
230.869	23.770	893.179	710.467
231.884	23.511	891.927	708.372
232.899	23.459	891.422	707.703
233.913	24.224	891.862	711.040
234.928	24.468	891.525	711.683
235.942	24.433	890.418	710.598
236.957	24.595	889.474	710.425
237.972	24.151	888.765	708.030
238.986	24.113	888.042	707.241
240.001	24.244	887.754	707.470
241.015	24.239	886.939	706.737
242.030	24.282	886.466	706.470
243.045	24.510	885.889	706.849
244.059	24.463	885.619	706.386
245.074	24.542	885.317	706.395
246.088	24.605	884.480	705.912
247.103	24.239	883.099	703.305
248.117	24.343	882.846	703.451
249.132	24.808	882.723	705.125
250.147	25.131	882.549	706.195
251.161	25.131	882.181	705.835
252.176	25.435	881.691	706.580
253.190	25.435	880.672	705.698
254.205	25.395	880.678	705.483
255.220	25.638	880.231	706.020
256.234	25.401	879.792	704.674
257.249	25.460	878.844	704.083
258.263	25.392	877.831	702.945
259.278	25.248	877.630	702.156
260.293	25.472	877.128	702.570
261.307	25.377	876.862	701.921
262.322	25.478	875.792	701.399
263.336	25.325	875.115	700.197
264.351	24.893	873.614	697.253
265.366	23.647	872.101	691.133
266.380	23.265	870.774	688.538
267.395	24.368	871.012	692.950
268.409	25.011	871.517	695.792
269.424	24.931	871.252	695.205
270.439	24.941	870.587	694.654
271.453	25.206	870.025	695.172
272.468	25.252	869.046	694.506
273.482	25.336	868.714	694.502
274.497	25.490	868.321	694.722
275.512	25.276	867.384	693.086
276.526	24.747	866.345	690.151
277.541	24.954	865.642	690.331
278.555	25.235	865.563	691.288
279.570	25.081	864.764	689.998
280.585	24.836	864.419	688.718
281.599	25.032	863.481	688.664
282.614	25.091	863.214	688.617
283.628	24.732	862.209	686.375
284.643	24.376	861.368	684.279
285.657	24.673	861.377	685.364
286.672	24.720	860.711	684.956
287.687	24.287	859.104	681.958
288.701	24.568	859.365	683.183
289.716	24.941	859.203	684.419
290.730	24.517	858.402	682.101
291.745	24.465	857.461	681.095
292.760	24.344	856.560	679.856
293.774	24.132	855.901	678.465
294.789	25.001	856.806	682.434
295.803	25.643	856.285	684.402
296.818	25.728	856.278	684.660
297.833	25.869	855.625	684.614
298.847	25.495	854.313	682.083
299.862	25.226	853.468	680.327
300.876	25.448	852.988	680.726
301.891	25.658	852.784	681.300
302.906	25.940	851.999	681.679
303.920	25.363	851.473	679.015
304.935	25.247	850.176	677.485
305.949	25.653	850.244	679.009
306.964	25.567	850.099	678.511
307.979	25.355	849.124	676.873
308.993	25.493	848.785	677.061
310.008	25.799	848.384	677.834
311.022	25.864	848.038	677.741
312.037	25.706	847.397	676.576
313.052	25.432	846.411	674.702
314.066	25.453	845.330	673.856
315.081	24.653	844.655	670.263
316.095	23.900	843.179	666.213
317.110	24.483	843.258	668.398
318.125	25.474	843.376	672.140
319.139	25.040	842.561	669.810
320.154	23.955	840.577	664.124
321.168	23.424	839.653	661.355
322.183	24.064	840.170	664.094
323.197	24.954	840.573	667.673
324.212	25.214	840.122	668.223
325.227	25.402	839.976	668.749
326.241	25.576	839.444	668.912
327.256	25.486	839.087	668.235
328.270	25.214	838.239	666.488
329.285	25.272	837.722	666.234
330.300	25.193	836.617	665.003
331.314	24.786	836.160	663.073
332.329	25.106	835.250	663.479
333.343	25.317	835.250	664.200
334.358	25.470	835.087	664.578
335.373	25.604	834.264	664.360
336.387	25.713	833.490	664.085
337.402	25.904	833.358	664.626
338.416	25.981	833.142	664.681
339.431	26.057	832.352	664.270
340.446	26.072	831.891	663.897
341.460	26.295	831.445	664.304
342.475	26.230	830.546	663.288
343.489	26.002	829.792	661.791
344.504	26.003	829.438	661.455
345.519	26.152	829.664	662.121
346.533	26.365	829.044	662.348
347.548	26.423	828.652	662.189
348.562	26.407	828.144	661.665
349.577	26.514	827.319	661.339
350.592	26.352	826.778	660.255
351.606	26.344	826.722	660.125
352.621	26.408	825.783	659.549
353.635	26.315	825.036	658.555
354.650	26.201	824.599	657.735
355.665	25.944	823.456	655.828
356.679	24.852	821.956	650.608
357.694	24.591	821.853	649.522
358.708	25.311	821.541	651.831
359.723	25.288	820.896	651.180
360.738	25.492	820.898	651.862
361.752	25.971	820.661	653.353
362.767	26.154	820.261	653.642
363.781	26.318	820.426	654.307
364.796	26.584	820.194	655.027
365.810	26.717	819.652	655.016
366.825	26.841	819.106	654.972
367.840	26.855	818.799	654.719
368.854	26.687	818.393	653.728
369.869	26.069	817.394	650.646
370.883	26.113	816.360	649.924
371.898	26.169	816.051	649.821
372.913	26.082	815.632	649.119
373.927	26.080	814.709	648.318
374.942	26.337	814.285	648.846
375.956	26.360	813.900	648.564
376.971	26.357	813.489	648.168
377.986	26.403	813.179	648.030
379.000	26.689	812.539	648.485
380.015	26.653	812.038	647.900
381.029	26.509	811.231	646.683
382.044	26.642	810.525	646.538
383.059	26.633	810.206	646.195
384.073	26.662	809.854	645.962
385.088	26.669	809.163	645.377
386.102	26.704	808.626	645.016
387.117	26.529	807.872	643.734
388.132	26.353	807.426	642.698
389.146	26.314	806.424	641.704
390.161	25.707	805.743	638.953
391.175	25.759	805.428	638.832
392.190	26.216	805.779	640.672
393.205	26.481	804.610	640.625
394.219	25.365	803.362	635.629
395.234	23.740	801.154	628.084
396.248	22.969	799.848	624.283
397.263	24.095	800.849	628.988
398.278	25.728	802.453	635.965
399.292	26.230	802.066	637.377
400.307	25.998	801.565	636.102
401.321	25.998	800.922	635.534
402.336	26.054	800.413	635.274
403.350	26.325	800.535	636.267
404.365	26.778	800.408	637.703
405.380	26.805	800.619	637.912
406.394	27.338	799.921	639.171
407.409	27.444	799.661	639.279
408.423	27.369	799.121	638.529
409.438	27.221	798.519	637.473
410.453	27.319	798.290	637.577
411.467	27.349	797.744	637.188
412.482	27.337	797.371	636.791
413.496	27.421	796.550	636.373
414.511	27.389	796.261	635.975
415.526	27.461	796.219	636.136
416.540	27.501	795.546	635.683
417.555	27.231	795.244	634.442
418.569	27.146	794.145	633.214
419.584	27.043	793.687	632.432
420.599	27.143	793.247	632.374
421.613	105.929	1276.040	1433.985
422.628	91.049	1346.378	1434.108
