DTS Sentinel unit serial number:	SN413079Multiplexer serial number:	ORYXHardware model number:	OX4-SRSoftware version number:	ORYX F/W v4.00 Oryx Data Collector v3.7.2.0data status	okinstallation	princeton_trtdifferential loss correction	single-endedforward channel	channel 3reverse channel	N/Adate	2019/09/15time	17:04:35forward acquisition time	60.00reverse acquisition time	0.00gamma	496.2192k internal	0.2286k external	0.2286temperature offset calibration	0.9923default loss term (dB/km)	0.3790temperature slope calibration	1.0000multiplexer offset coefficient	1.0000multiplexer slope coefficient	1.0000fibre end	0.00T internal ref (°C)	44.56T ext. ref 1 (°C)	5.89T ext. ref 2 (°C)	40.87length (m)	temperature (°C)	Stokes	anti-Stokes-747.200	-35.747	-0.194	0.108
-746.185	-33.592	-0.176	0.100
-745.171	121.856	-0.235	-0.301
-744.156	800.000	0.015	0.059
-743.142	70.523	0.109	0.115
-742.127	166.160	-0.144	0.210
-741.112	-200.000	-0.039	0.413
-740.098	138.399	0.227	0.305
-739.083	601.029	-0.082	-0.210
-738.069	-136.565	-0.204	0.024
-737.054	21.054	0.206	0.171
-736.039	593.198	-0.081	0.206
-735.025	206.512	0.093	0.148
-734.010	800.000	0.034	0.152
-732.996	-47.891	0.037	-0.018
-731.981	-81.408	-0.238	-0.080
-730.966	800.000	-0.045	-0.134
-729.952	-159.972	-0.140	-0.008
-728.937	-43.833	0.139	0.072
-727.923	800.000	0.068	-0.227
-726.908	800.000	0.022	-0.099
-725.894	-25.953	-0.333	0.201
-724.879	-200.000	0.051	-0.353
-723.864	-200.000	0.004	-0.079
-722.850	800.000	0.049	-0.188
-721.835	184.061	0.066	0.100
-720.821	-20.058	-0.287	-0.181
-719.806	522.063	0.031	0.075
-718.791	800.000	0.046	-0.195
-717.777	65.886	-0.193	-0.200
-716.762	13.090	0.186	-0.148
-715.748	-70.216	0.196	-0.076
-714.733	107.169	-0.358	-0.436
-713.718	800.000	-0.067	0.250
-712.704	-1.321	0.351	0.254
-711.689	121.077	-0.007	0.009
-710.675	233.678	-0.170	-0.286
-709.660	8.390	-0.245	0.189
-708.645	-200.000	0.013	0.150
-707.631	9.942	-0.123	0.096
-706.616	-66.432	0.218	0.089
-705.602	-200.000	0.021	-0.103
-704.587	-200.000	-0.002	-0.011
-703.572	595.341	0.061	0.153
-702.558	-200.000	0.001	0.275
-701.543	-200.000	-0.010	-0.220
-700.529	800.000	-0.061	-0.234
-699.514	-134.636	-0.242	-0.030
-698.499	-200.000	-0.001	0.178
-697.485	-63.292	0.209	-0.088
-696.470	15.250	-0.098	-0.079
-695.456	-88.174	0.117	0.036
-694.441	-200.000	0.065	-0.304
-693.426	123.871	-0.114	-0.146
-692.412	-156.229	-0.294	0.019
-691.397	767.715	-0.065	0.182
-690.383	-123.344	0.166	-0.027
-689.368	89.098	-0.143	0.163
-688.354	-162.454	-0.060	-0.003
-687.339	141.363	0.166	-0.224
-686.324	-200.000	0.050	0.227
-685.310	-200.000	-0.048	0.342
-684.295	-92.664	-0.292	-0.084
-683.281	-180.607	-0.051	0.001
-682.266	36.074	0.051	-0.046
-681.251	-200.000	0.034	0.163
-680.237	39.130	-0.157	-0.144
-679.222	123.197	0.161	0.206
-678.208	132.821	0.213	0.281
-677.193	738.236	0.030	-0.084
-676.178	54.443	-0.135	0.133
-675.164	-57.984	-0.102	0.046
-674.149	-88.240	-0.106	-0.032
-673.135	51.835	0.049	-0.047
-672.120	181.867	-0.103	0.155
-671.105	193.235	0.152	0.235
-670.091	60.192	-0.267	0.270
-669.076	201.714	-0.111	0.175
-668.062	315.976	0.049	0.095
-667.047	-117.430	-0.269	0.050
-666.032	38.499	-0.259	-0.236
-665.018	53.142	-0.177	0.174
-664.003	-106.936	-0.337	0.076
-662.989	800.000	-0.020	0.074
-661.974	800.000	0.051	-0.181
-660.959	-200.000	0.013	-0.201
-659.945	101.725	-0.131	0.156
-658.930	-200.000	-0.012	0.101
-657.916	140.193	-0.184	-0.249
-656.901	-74.566	-0.572	0.211
-655.886	322.418	-0.127	-0.248
-654.872	-200.000	-0.330	-0.001
-653.857	124.582	-0.110	-0.141
-652.843	41.389	0.177	-0.164
-651.828	-30.656	-0.378	-0.219
-650.814	467.952	0.048	0.110
-649.799	70.785	0.114	-0.120
-648.784	-21.442	-0.162	0.101
-647.770	-106.798	0.136	-0.031
-646.755	-93.346	-0.146	-0.041
-645.741	-52.412	0.082	0.039
-644.726	227.368	0.055	-0.092
-643.711	-200.000	0.004	0.023
-642.697	-200.000	-0.065	-0.414
-641.682	78.185	0.349	-0.381
-640.668	-134.496	0.129	-0.016
-639.653	-18.659	0.224	0.143
-638.638	-10.666	0.097	-0.066
-637.624	107.673	-0.182	-0.222
-636.609	-200.000	-0.002	-0.159
-635.595	800.000	0.094	-0.320
-634.580	-80.989	0.106	-0.036
-633.565	-76.408	-0.180	0.065
-632.551	-130.718	-0.279	-0.038
-631.536	-200.000	-0.012	-0.236
-630.522	-200.000	-0.008	-0.099
-629.507	32.510	-0.072	-0.063
-628.492	800.000	-0.092	0.359
-627.478	-21.952	-0.174	-0.108
-626.463	-3.031	0.123	0.088
-625.449	61.710	0.262	0.267
-624.434	-200.000	-0.028	-0.166
-623.419	-130.920	0.233	0.032
-622.405	205.585	0.218	0.346
-621.390	38.978	0.099	0.090
-620.376	-200.000	-0.017	0.322
-619.361	-45.394	-0.239	-0.121
-618.346	61.640	0.154	0.157
-617.332	-4.109	0.324	0.229
-616.317	-102.264	0.104	0.026
-615.303	-6.892	-0.200	0.139
-614.288	-97.460	-0.183	0.049
-613.273	-57.401	0.223	0.100
-612.259	92.500	0.121	0.140
-611.244	166.784	0.204	0.295
-610.230	62.566	0.136	-0.139
-609.215	-74.657	-0.328	-0.120
-608.201	2.567	-0.168	-0.125
-607.186	535.040	0.086	-0.208
-606.171	-200.000	-0.024	0.183
-605.157	-122.223	-0.062	0.010
-604.142	-114.782	0.156	0.030
-603.128	-200.000	-0.093	-0.477
-602.113	133.830	0.076	-0.101
-601.098	151.269	-0.099	0.138
-600.084	-200.000	-0.020	-0.088
-599.069	800.000	-0.095	-0.292
-598.055	-200.000	0.027	-0.259
-597.040	72.550	0.180	-0.192
-596.025	-200.000	0.024	0.142
-595.011	257.078	0.055	0.096
-593.996	9.003	0.052	-0.040
-592.982	-90.008	-0.308	-0.092
-591.967	800.000	-0.050	0.176
-590.952	800.000	-0.045	0.163
-589.938	-137.722	0.235	0.027
-588.923	-161.551	-0.268	0.014
-587.909	-114.672	-0.048	-0.009
-586.894	187.407	-0.177	0.270
-585.879	132.023	-0.090	0.118
-584.865	-15.836	0.156	-0.101
-583.850	-200.000	0.029	-0.205
-582.836	-173.249	0.422	-0.013
-581.821	-97.429	0.203	-0.054
-580.806	800.000	-0.027	0.116
-579.792	44.162	-0.169	-0.158
-578.777	3.938	-0.076	-0.057
-577.763	-20.752	-0.194	0.121
-576.748	-43.229	0.380	-0.196
-575.733	4.214	0.041	-0.031
-574.719	302.552	-0.054	0.101
-573.704	251.434	0.056	0.096
-572.690	189.221	0.063	0.096
-571.675	-172.377	-0.214	-0.007
-570.661	-200.000	-0.016	0.139
-569.646	-162.578	0.035	-0.002
-568.631	-200.000	-0.020	-0.222
-567.617	198.611	0.114	0.177
-566.602	-41.727	-0.345	-0.181
-565.588	-10.618	0.074	-0.050
-564.573	800.000	-0.102	0.316
-563.558	-109.150	0.152	-0.033
-562.544	-56.933	-0.148	-0.067
-561.529	-198.751	-0.308	-0.002
-560.515	-57.679	0.273	-0.122
-559.500	189.583	-0.109	-0.167
-558.485	431.466	-0.105	0.232
-557.471	322.110	0.105	-0.203
-556.456	-69.984	0.092	-0.036
-555.442	32.876	0.101	-0.089
-554.427	677.285	-0.119	0.316
-553.412	398.141	0.100	0.214
-552.398	-34.342	-0.185	0.104
-551.383	-173.181	-0.512	-0.016
-550.369	-74.930	-0.128	0.047
-549.354	-90.679	0.287	-0.084
-548.339	114.156	-0.252	-0.312
-547.325	-146.356	-0.238	0.021
-546.310	46.240	-0.049	0.046
-545.296	165.100	-0.089	0.128
-544.281	25.887	-0.081	-0.069
-543.266	-137.223	-0.071	0.008
-542.252	124.030	0.164	0.209
-541.237	-2.558	0.262	-0.187
-540.223	-200.000	0.021	-0.161
-539.208	-200.000	-0.004	-0.369
-538.193	-79.073	0.180	0.062
-537.179	687.428	-0.142	0.379
-536.164	-128.973	0.044	-0.006
-535.150	-67.919	-0.070	0.028
-534.135	-200.000	0.031	0.263
-533.121	-200.000	-0.001	0.006
-532.106	25.968	-0.219	0.186
-531.091	-146.302	-0.275	0.024
-530.077	77.447	0.091	-0.099
-529.062	-200.000	-0.004	-0.149
-528.048	-1.267	-0.136	-0.098
-527.033	667.767	-0.004	-0.011
-526.018	23.622	-0.350	-0.293
-525.004	-83.566	0.336	-0.109
-523.989	30.793	0.072	0.062
-522.975	316.276	-0.171	-0.329
-521.960	-55.458	0.150	-0.068
-520.945	-27.424	-0.138	-0.082
-519.931	550.826	0.069	0.169
-518.916	800.000	-0.048	0.185
-517.902	-164.604	-0.378	-0.017
-516.887	-189.638	-0.162	-0.002
-515.872	-43.831	0.151	0.077
-514.858	-116.894	-0.217	-0.040
-513.843	-144.940	-0.136	-0.013
-512.829	-16.456	-0.079	-0.051
-511.814	521.817	0.027	0.065
-510.799	26.023	-0.262	-0.222
-509.785	215.144	-0.046	0.073
-508.770	40.635	0.213	0.195
-507.756	800.000	0.033	-0.108
-506.741	-73.802	0.151	-0.056
-505.726	-133.274	0.263	-0.034
-504.712	800.000	-0.051	-0.225
-503.697	583.619	0.011	-0.028
-502.683	-95.029	0.202	0.055
-501.668	-85.787	-0.464	0.146
-500.653	243.401	-0.130	0.221
-499.639	34.195	0.181	-0.161
-498.624	-43.221	-0.239	-0.123
-497.610	-65.429	-0.217	-0.088
-496.595	304.068	0.184	-0.347
-495.581	-200.000	-0.041	0.208
-494.566	54.119	-0.134	0.131
-493.551	4.155	0.114	-0.085
-492.537	58.533	0.087	-0.087
-491.522	-86.456	0.549	-0.171
-490.508	67.530	0.067	0.069
-489.493	800.000	-0.064	-0.191
-488.478	-14.525	0.117	-0.077
-487.464	-94.371	0.210	0.058
-486.449	22.405	0.421	0.349
-485.435	-22.134	-0.129	-0.080
-484.420	37.028	0.129	0.116
-483.405	-15.204	-0.072	0.046
-482.391	-200.000	-0.011	-0.302
-481.376	187.290	-0.076	0.116
-480.362	-76.094	0.218	-0.078
-479.347	304.224	0.054	0.101
-478.332	91.775	-0.256	-0.293
-477.318	-200.000	0.021	-0.261
-476.303	93.098	-0.146	-0.167
-475.289	-174.515	-0.105	0.003
-474.274	421.258	-0.063	-0.137
-473.259	118.716	-0.164	-0.206
-472.245	-26.196	-0.157	0.093
-471.230	-200.000	0.024	0.129
-470.216	-200.000	-0.034	-0.238
-469.201	528.913	0.045	0.109
-468.186	126.124	0.084	-0.108
-467.172	159.999	-0.198	-0.279
-466.157	-8.317	-0.111	0.076
-465.143	800.000	-0.072	0.269
-464.128	-108.419	-0.105	-0.023
-463.113	-200.000	-0.008	0.061
-462.099	-200.000	0.033	0.380
-461.084	-101.514	0.256	-0.063
-460.070	-200.000	-0.001	0.180
-459.055	-119.212	-0.197	0.035
-458.040	250.198	-0.093	0.160
-457.026	149.194	0.116	-0.160
-456.011	-80.288	0.158	-0.054
-454.997	-100.812	-0.297	0.074
-453.982	123.439	-0.139	-0.177
-452.968	16.819	0.247	-0.198
-451.953	25.605	-0.193	0.163
-450.938	-200.000	0.011	-0.188
-449.924	-162.774	-0.185	-0.009
-448.909	-118.872	-0.158	-0.028
-447.895	5.625	0.210	-0.158
-446.880	-200.000	0.046	0.302
-445.865	95.276	0.155	0.179
-444.851	-129.804	-0.073	-0.010
-443.836	87.094	0.040	0.045
-442.822	-200.000	0.026	0.195
-441.807	23.605	0.241	0.201
-440.792	-136.542	0.361	0.042
-439.778	380.423	-0.071	0.147
-438.763	-164.702	0.339	-0.015
-437.749	-200.000	-0.004	-0.065
-436.734	-61.360	-0.048	-0.020
-435.719	-18.252	-0.083	-0.053
-434.705	79.421	-0.170	-0.185
-433.690	-21.789	0.145	-0.090
-432.676	800.000	-0.029	-0.096
-431.661	800.000	-0.122	0.498
-430.646	606.309	-0.055	0.140
-429.632	39.839	-0.129	0.117
-428.617	664.075	-0.090	0.236
-427.603	23.435	-0.069	0.057
-426.588	5.217	-0.249	0.186
-425.573	-45.767	-0.167	0.084
-424.559	-200.000	-0.014	0.255
-423.544	-200.000	0.026	-0.142
-422.530	800.000	0.031	0.101
-421.515	-74.110	0.231	-0.085
-420.500	35.607	-0.301	-0.268
-419.486	219.494	-0.088	-0.143
-418.471	60.521	0.079	0.079
-417.457	15.073	0.311	-0.247
-416.442	800.000	-0.054	-0.196
-415.428	447.352	-0.139	-0.309
-414.413	-200.000	0.024	0.220
-413.398	4.768	-0.198	0.147
-412.384	800.000	0.124	-0.420
-411.369	-64.220	0.117	0.048
-410.355	-200.000	0.000	-0.122
-409.340	-200.000	0.014	-0.109
-408.325	-36.354	0.081	-0.044
-407.311	-14.130	0.123	-0.081
-406.296	36.773	-0.059	-0.053
-405.282	141.910	-0.083	0.111
-404.267	138.215	-0.291	-0.386
-403.252	-200.000	0.006	0.072
-402.238	-200.000	0.077	-0.477
-401.223	793.880	0.076	0.210
-400.209	90.320	0.247	0.280
-399.194	-146.619	-0.266	-0.023
-398.179	800.000	-0.075	0.218
-397.165	163.916	0.231	-0.330
-396.150	-13.890	-0.214	0.140
-395.136	-35.427	-0.153	-0.084
-394.121	29.814	0.141	-0.122
-393.106	-108.162	-0.124	-0.027
-392.092	-200.000	-0.015	-0.225
-391.077	8.855	-0.109	0.083
-390.063	207.071	0.008	-0.013
-389.048	-130.701	0.205	-0.028
-388.033	51.586	0.285	0.275
-387.019	288.087	0.092	-0.169
-386.004	-2.349	0.239	0.170
-384.990	-130.956	-0.206	0.028
-383.975	-200.000	0.002	0.010
-382.960	-125.729	0.243	-0.037
-381.946	-200.000	-0.074	0.328
-380.931	-22.548	0.268	0.164
-379.917	21.011	0.120	-0.098
-378.902	669.263	0.118	-0.309
-377.888	447.149	-0.085	-0.190
-376.873	-173.665	-0.077	-0.002
-375.858	99.154	-0.291	-0.340
-374.844	247.204	-0.201	-0.343
-373.829	-121.368	-0.128	0.022
-372.815	-175.350	0.183	0.005
-371.800	578.722	0.025	0.063
-370.785	-200.000	0.010	-0.057
-369.771	800.000	0.129	0.468
-368.756	265.378	0.106	-0.188
-367.742	180.346	0.059	-0.087
-366.727	98.896	0.126	-0.147
-365.712	82.633	0.083	0.091
-364.698	-99.153	-0.144	-0.037
-363.683	-129.250	-0.146	0.021
-362.669	-9.807	0.356	-0.240
-361.654	312.549	0.092	0.174
-360.639	103.647	-0.078	0.093
-359.625	-200.000	0.008	0.036
-358.610	-147.880	0.305	0.026
-357.596	800.000	0.033	0.122
-356.581	522.302	0.057	0.136
-355.566	34.699	0.074	-0.065
-354.552	68.335	0.200	0.207
-353.537	19.188	0.182	-0.148
-352.523	7.948	-0.005	0.003
-351.508	-104.202	0.101	0.024
-350.493	-200.000	0.012	0.393
-349.479	800.000	-0.005	0.016
-348.464	800.000	-0.008	-0.032
-347.450	-99.940	-0.108	0.027
-346.435	-15.262	0.133	0.086
-345.420	-93.640	0.329	0.092
-344.406	-150.888	-0.234	-0.018
-343.391	-200.000	0.020	-0.147
-342.377	-108.284	0.228	0.050
-341.362	73.219	-0.101	-0.106
-340.348	187.382	0.105	-0.158
-339.333	-29.533	0.185	0.107
-338.318	-49.264	0.130	0.063
-337.304	-57.415	0.125	-0.055
-336.289	-0.374	0.146	-0.105
-335.275	-200.000	-0.006	0.207
-334.260	800.000	-0.056	-0.157
-333.245	800.000	0.070	-0.254
-332.231	-200.000	0.049	0.233
-331.216	591.113	0.102	0.254
-330.202	79.811	-0.085	0.092
-329.187	-57.550	0.085	-0.038
-328.172	-167.349	0.214	-0.009
-327.158	-107.535	-0.171	-0.038
-326.143	-66.183	0.285	0.115
-325.129	-41.470	0.241	0.125
-324.114	-117.284	-0.347	-0.064
-323.099	-136.640	-0.154	0.018
-322.085	-23.422	-0.127	0.077
-321.070	114.466	0.041	0.050
-320.056	143.489	0.150	0.202
-319.041	-138.936	-0.109	-0.012
-318.026	203.325	-0.086	-0.135
-317.012	-65.181	-0.346	-0.141
-315.997	-200.000	0.019	0.102
-314.983	443.780	-0.070	-0.156
-313.968	21.934	0.116	0.096
-312.953	123.547	0.341	0.431
-311.939	6.451	-0.003	0.002
-310.924	618.747	-0.064	0.162
-309.910	101.143	-0.150	0.176
-308.895	-55.703	-0.120	-0.054
-307.880	-137.022	0.250	-0.029
-306.866	-167.384	0.064	-0.003
-305.851	20.864	-0.024	-0.020
-304.837	-200.000	0.036	0.212
-303.822	25.151	-0.118	-0.099
-302.807	248.831	0.178	-0.304
-301.793	133.932	-0.226	0.295
-300.778	48.724	0.323	0.305
-299.764	-200.000	-0.021	-0.156
-298.749	-200.000	-0.025	-0.144
-297.735	-117.011	-0.179	-0.033
-296.720	8.887	-0.194	0.147
-295.705	493.555	-0.072	0.167
-294.691	257.680	0.012	0.021
-293.676	77.912	-0.107	-0.115
-292.662	-88.528	0.219	0.066
-291.647	800.000	-0.065	0.189
-290.632	-36.420	-0.367	0.199
-289.618	800.000	-0.040	-0.157
-288.603	39.357	0.128	-0.116
-287.589	-200.000	-0.059	-0.334
-286.574	359.446	0.077	-0.155
-285.559	35.549	0.185	-0.164
-284.545	-188.672	-0.316	-0.004
-283.530	582.862	0.026	0.063
-282.516	-200.000	0.079	0.395
-281.501	-33.351	0.259	0.144
-280.486	-200.000	0.044	0.219
-279.472	82.355	-0.059	-0.064
-278.457	-160.697	0.165	0.009
-277.443	-88.534	0.030	-0.009
-276.428	-200.000	-0.001	0.127
-275.413	-200.000	-0.000	0.092
-274.399	489.070	0.031	0.071
-273.384	186.698	-0.102	0.153
-272.370	-200.000	0.007	-0.072
-271.355	299.220	-0.223	0.413
-270.340	-77.420	-0.639	-0.224
-269.326	-74.077	-0.185	0.067
-268.311	-140.377	0.352	0.037
-267.297	-200.000	0.019	0.140
-266.282	800.000	0.037	-0.105
-265.267	619.305	0.031	0.078
-264.253	-40.713	0.205	-0.107
-263.238	-154.707	-0.293	0.020
-262.224	276.638	-0.099	-0.178
-261.209	-200.000	0.081	0.387
-260.195	664.828	-0.091	0.236
-259.180	-200.000	-0.011	0.062
-258.165	-21.580	-0.138	-0.085
-257.151	-60.750	0.182	-0.078
-256.136	-60.792	0.231	0.099
-255.122	-200.000	0.010	0.183
-254.107	-61.296	0.144	-0.061
-253.092	-94.011	0.313	0.086
-252.078	-74.513	-0.153	-0.056
-251.063	57.956	0.234	0.231
-250.049	215.532	-0.176	0.282
-249.034	800.000	-0.061	0.182
-248.019	113.499	0.131	0.161
-247.005	-107.839	0.148	0.033
-245.990	135.293	0.035	0.045
-244.976	576.115	0.043	0.105
-243.961	800.000	-0.048	0.172
-242.946	-70.813	0.212	0.081
-241.932	54.022	-0.217	0.210
-240.917	-59.425	0.210	0.091
-239.903	-67.251	0.247	0.098
-238.888	-200.000	-0.006	0.071
-237.873	800.000	-0.093	0.271
-236.859	-137.361	0.221	-0.025
-235.844	606.719	-0.083	-0.209
-234.830	800.000	-0.096	-0.368
-233.815	-168.829	-0.178	-0.007
-232.800	800.000	0.087	-0.322
-231.786	-121.500	0.279	0.047
-230.771	-56.452	-0.352	0.157
-229.757	-133.755	-0.203	-0.025
-228.742	153.307	0.139	-0.191
-227.727	800.000	0.111	-0.415
-226.713	-162.103	-0.174	0.009
-225.698	800.000	-0.045	0.153
-224.684	-200.000	0.042	0.345
-223.669	-84.283	0.199	-0.063
-222.655	800.000	0.012	0.045
-221.640	-74.606	-0.080	-0.029
-220.625	151.046	-0.140	-0.192
-219.611	78.076	-0.043	-0.047
-218.596	-116.953	-0.485	-0.089
-217.582	-85.749	0.244	0.076
-216.567	-152.623	-0.198	-0.014
-215.552	-96.333	0.042	0.011
-214.538	800.000	0.078	-0.246
-213.523	-139.464	-0.200	-0.022
-212.509	-26.465	-0.314	-0.185
-211.494	-200.000	-0.010	-0.305
-210.479	-120.478	-0.097	0.016
-209.465	-184.569	-0.269	-0.004
-208.450	-70.963	0.246	-0.093
-207.436	118.406	-0.146	-0.181
-206.421	-200.000	-0.008	0.226
-205.406	-10.000	0.313	-0.209
-204.392	800.000	-0.010	0.041
-203.377	-72.353	0.227	-0.084
-202.363	18.789	0.190	0.152
-201.348	30.192	0.188	-0.162
-200.333	-126.019	0.319	0.048
-199.319	800.000	-0.059	0.169
-198.304	-54.080	-0.343	0.157
-197.290	800.000	0.031	0.115
-196.275	55.875	-0.088	0.086
-195.260	-52.043	-0.198	-0.092
-194.246	-129.023	0.282	-0.040
-193.231	534.988	-0.061	-0.146
-192.217	800.000	-0.009	-0.032
-191.202	87.212	-0.100	-0.111
-190.187	530.919	0.083	-0.198
-189.173	-86.551	-0.144	0.044
-188.158	-97.004	-0.277	0.073
-187.144	-200.000	0.029	-0.224
-186.129	-117.460	0.285	-0.052
-185.114	-181.606	-0.377	-0.007
-184.100	-200.000	0.025	-0.232
-183.085	-14.114	0.094	0.061
-182.071	-81.617	0.178	-0.059
-181.056	800.000	-0.107	0.394
-180.042	-200.000	-0.001	-0.070
-179.027	-200.000	-0.011	-0.184
-178.012	56.618	0.096	0.093
-176.998	267.109	0.043	0.075
-175.983	-161.634	-0.211	0.011
-174.969	87.699	0.178	0.198
-173.954	-78.413	-0.301	-0.103
-172.939	772.147	-0.047	0.129
-171.925	-43.043	0.379	0.193
-170.910	800.000	0.098	-0.304
-169.896	-100.116	0.085	0.021
-168.881	188.322	0.148	0.222
-167.866	134.718	-0.201	0.262
-166.852	-154.755	-0.104	0.007
-165.837	-200.000	-0.021	-0.163
-164.823	102.391	0.125	-0.147
-163.808	-69.428	-0.204	0.078
-162.793	61.070	-0.202	-0.202
-161.779	-128.434	-0.406	0.058
-160.764	21.175	-0.162	0.132
-159.750	-164.521	-0.150	0.007
-158.735	5.129	0.132	-0.097
-157.720	-200.000	0.016	0.079
-156.706	-14.551	-0.096	-0.062
-155.691	-101.803	0.160	0.039
-154.677	190.584	0.105	0.158
-153.662	-200.000	0.006	-0.385
-152.647	454.910	-0.105	-0.233
-151.633	-5.665	-0.262	-0.180
-150.618	-200.000	0.011	-0.203
-149.604	-142.320	0.203	0.020
-148.589	21.330	-0.140	0.114
-147.574	-140.198	-0.303	-0.032
-146.560	26.230	0.079	0.066
-145.545	-117.837	-0.156	-0.028
-144.531	116.566	0.214	-0.264
-143.516	-101.525	-0.076	0.018
-142.502	73.411	0.142	-0.148
-141.487	306.280	-0.006	0.010
-140.472	800.000	0.147	-0.452
-139.458	800.000	0.051	-0.224
-138.443	-88.971	0.052	0.015
-137.429	77.369	0.126	0.134
-136.414	-65.476	0.317	-0.128
-135.399	-200.000	0.009	-0.141
-134.385	138.463	0.184	0.242
-133.370	-200.000	0.035	0.443
-132.356	800.000	-0.036	-0.144
-131.341	135.979	0.261	0.341
-130.326	-200.000	0.026	-0.380
-129.312	-200.000	0.035	0.172
-128.297	38.537	-0.386	0.344
-127.283	-200.000	0.004	0.121
-126.268	-200.000	-0.016	-0.146
-125.253	375.727	-0.099	-0.202
-124.239	-132.316	0.122	-0.016
-123.224	-73.238	-0.288	0.105
-122.210	161.875	0.127	0.178
-121.195	-50.955	0.246	-0.116
-120.180	-200.000	-0.030	-0.146
-119.166	800.000	-0.076	-0.285
-118.151	-131.401	0.189	-0.025
-117.137	-63.529	-0.029	0.012
-116.122	-121.663	-0.404	-0.067
-115.107	-65.063	0.117	-0.047
-114.093	101.309	0.171	-0.199
-113.078	800.000	-0.062	-0.198
-112.064	207.773	0.014	-0.022
-111.049	-53.950	-0.164	0.075
-110.034	800.000	0.092	0.363
-109.020	-70.387	0.226	0.086
-108.005	82.850	-0.153	0.167
-106.991	40.749	0.068	-0.061
-105.976	-148.616	0.277	-0.023
-104.962	-81.139	0.231	0.076
-103.947	86.722	0.139	-0.153
-102.932	-200.000	-0.004	0.104
-101.918	-200.000	0.004	0.102
-100.903	-155.802	0.395	0.025
-99.889	800.000	-0.035	-0.105
-98.874	-61.322	0.168	0.071
-97.859	283.357	-0.075	-0.135
-96.845	89.037	-0.153	-0.170
-95.830	203.590	0.153	0.236
-94.816	-62.532	-0.131	-0.054
-93.801	-53.290	0.213	0.098
-92.786	23.943	0.118	0.097
-91.772	-11.378	0.311	0.205
-90.757	-200.000	-0.066	0.475
-89.743	-122.239	0.261	0.043
-88.728	-87.381	-0.259	-0.079
-87.713	800.000	-0.127	-0.352
-86.699	-61.275	-0.212	0.089
-85.684	-159.602	-0.274	-0.015
-84.670	-68.906	-0.207	-0.080
-83.655	32.415	0.065	-0.057
-82.640	72.518	0.085	-0.088
-81.626	-6.182	0.293	0.200
-80.611	-100.732	0.075	-0.018
-79.597	800.000	0.086	0.306
-78.582	-200.000	-0.058	0.368
-77.567	269.473	0.104	0.183
-76.553	-200.000	-0.037	0.354
-75.538	-200.000	-0.008	0.099
-74.524	-200.000	-0.009	0.432
-73.509	-51.277	0.279	0.130
-72.494	39.393	0.103	0.093
-71.480	-200.000	-0.005	0.124
-70.465	-114.826	-0.190	-0.036
-69.451	-200.000	-0.021	-0.414
-68.436	800.000	-0.070	-0.274
-67.422	102.395	-0.187	-0.219
-66.407	-46.706	-0.141	0.069
-65.392	-92.131	-0.095	0.027
-64.378	-178.590	0.021	0.000
-63.363	-200.000	-0.030	-0.243
-62.349	-165.956	-0.200	-0.009
-61.334	81.706	-0.612	-0.661
-60.319	-78.679	0.340	0.116
-59.305	-200.000	-0.139	-0.721
-58.290	20.245	0.435	0.351
-57.276	800.000	0.560	1.645
-56.261	-200.000	70.138	516.306
-55.246	583.197	1260.094	3089.418
-54.232	139.129	2518.949	3308.383
-53.217	119.606	2265.898	2803.086
-52.203	56.153	1788.212	1734.079
-51.188	48.173	1579.422	1475.295
-50.173	45.333	1548.178	1426.277
-49.159	59.711	1580.574	1557.427
-48.144	67.502	1601.635	1632.855
-47.130	48.531	1566.248	1465.270
-46.115	44.796	1551.653	1425.490
-45.100	44.715	1548.010	1421.522
-44.086	44.594	1546.357	1419.108
-43.071	44.434	1544.807	1416.512
-42.057	44.497	1542.477	1414.759
-41.042	44.427	1540.842	1412.713
-40.027	44.592	1539.251	1412.343
-39.013	44.558	1537.637	1410.572
-37.998	44.538	1536.497	1409.335
-36.984	44.471	1535.882	1408.246
-35.969	44.564	1534.299	1407.383
-34.954	44.620	1532.901	1406.430
-33.940	44.604	1530.988	1404.510
-32.925	44.523	1529.481	1402.517
-31.911	44.736	1527.785	1402.369
-30.896	44.608	1527.002	1400.714
-29.881	44.649	1525.544	1399.606
-28.867	44.669	1523.691	1397.988
-27.852	44.673	1521.986	1396.397
-26.838	44.641	1520.785	1395.020
-25.823	44.618	1519.202	1393.352
-24.809	44.566	1517.416	1391.301
-23.794	44.599	1515.934	1390.113
-22.779	44.578	1514.906	1388.977
-21.765	44.591	1513.882	1388.070
-20.750	44.657	1512.602	1387.293
-19.736	44.629	1511.281	1385.832
-18.721	44.616	1510.661	1385.124
-17.706	44.592	1509.171	1383.533
-16.692	44.439	1508.298	1381.638
-15.677	44.487	1507.415	1381.101
-14.663	44.537	1506.135	1380.218
-13.648	44.536	1505.204	1379.303
-12.633	44.494	1503.899	1377.763
-11.619	44.539	1503.130	1377.309
-10.604	44.457	1502.647	1376.259
-9.590	44.497	1501.404	1375.337
-8.575	44.585	1500.676	1375.208
-7.560	44.510	1499.912	1373.945
-6.546	44.511	1498.669	1372.761
-5.531	44.481	1497.701	1371.619
-4.517	44.417	1496.887	1370.387
-3.502	44.435	1495.856	1369.508
-2.487	44.488	1494.718	1368.768
-1.473	44.543	1493.597	1368.060
-0.458	44.541	1491.980	1366.512
0.556	42.578	1483.491	1358.052
1.571	40.174	1455.742	1316.558
2.586	35.822	1390.559	1229.756
3.600	32.803	1305.317	1136.119
4.615	30.111	1255.697	1077.210
5.629	25.732	1197.848	1003.157
6.644	15.615	1107.470	874.981
7.659	7.427	1060.058	796.484
8.673	6.079	1054.025	785.152
9.688	5.950	1050.697	781.962
10.702	5.743	1049.186	779.739
11.717	5.798	1047.611	778.768
12.731	8.923	1051.557	797.193
13.746	16.828	1062.775	845.204
14.761	20.374	1066.068	865.451
15.775	18.355	1062.016	852.051
16.790	16.762	1059.562	842.093
17.804	15.436	1057.341	833.673
18.819	14.711	1055.157	828.283
19.834	14.239	1053.737	824.757
20.848	13.868	1052.471	821.855
21.863	13.674	1051.550	820.102
22.877	13.354	1051.049	818.058
23.892	13.203	1049.974	816.404
24.907	13.175	1049.613	815.912
25.921	13.050	1049.024	814.767
26.936	13.123	1048.000	814.256
27.950	13.175	1046.474	813.255
28.965	13.294	1045.419	812.948
29.980	13.322	1044.222	812.085
30.994	13.448	1043.096	811.756
32.009	13.339	1042.453	810.648
33.023	13.451	1041.834	810.644
34.038	13.346	1041.064	809.459
35.053	13.321	1040.001	808.437
36.067	13.303	1038.747	807.305
37.082	13.281	1037.842	806.424
38.096	13.300	1037.357	806.068
39.111	13.370	1036.730	805.850
40.126	13.337	1035.898	804.972
41.140	13.317	1034.887	804.015
42.155	13.199	1033.583	802.362
43.169	13.026	1032.854	800.882
44.184	13.059	1031.950	800.272
45.199	13.085	1030.258	799.014
46.213	13.056	1029.514	798.227
47.228	13.032	1028.588	797.321
48.242	13.098	1027.784	796.948
49.257	13.231	1026.561	796.570
50.271	13.193	1025.915	795.814
51.286	13.222	1024.833	795.043
52.301	13.160	1024.434	794.367
53.315	13.253	1023.278	793.847
54.330	13.220	1022.600	793.092
55.344	13.076	1021.973	791.842
56.359	13.038	1020.460	790.418
57.374	13.098	1019.898	790.201
58.388	13.130	1019.226	789.766
59.403	13.071	1018.157	788.585
60.417	13.014	1017.456	787.698
61.432	12.983	1017.085	787.195
62.447	13.010	1016.240	786.599
63.461	13.040	1015.024	785.731
64.476	13.014	1014.050	784.782
65.490	12.862	1013.299	783.414
66.505	12.951	1012.386	783.059
67.520	12.850	1011.778	782.039
68.534	12.951	1011.186	781.991
69.549	13.061	1010.258	781.728
70.563	13.066	1009.338	780.970
71.578	13.005	1008.479	779.945
72.593	12.906	1007.856	778.929
73.607	12.840	1007.176	778.021
74.622	12.772	1006.001	776.725
75.636	12.871	1005.281	776.568
76.651	12.854	1004.417	775.751
77.666	12.914	1003.581	775.321
78.680	12.858	1002.830	774.408
79.695	12.930	1002.575	774.480
80.709	12.875	1001.691	773.473
81.724	12.885	1000.959	772.885
82.739	13.120	1000.301	773.408
83.753	12.957	999.545	771.992
84.768	13.183	998.357	772.063
85.782	13.103	997.938	771.295
86.797	13.271	997.008	771.294
87.812	13.315	996.374	770.940
88.826	13.236	995.421	769.767
89.841	13.159	994.715	768.796
90.855	13.214	993.723	768.215
91.870	13.320	993.133	768.185
92.884	13.260	992.694	767.498
93.899	13.297	991.550	766.714
94.914	13.387	990.634	766.357
95.928	13.338	990.182	765.714
96.943	13.445	989.330	765.483
97.957	13.418	988.482	764.634
98.972	13.406	987.710	763.914
99.987	13.233	987.226	762.672
101.001	13.264	986.455	762.149
102.016	13.331	985.976	762.022
103.030	13.289	984.762	760.824
104.045	13.236	983.705	759.698
105.060	13.286	982.707	759.089
106.074	13.210	981.951	758.086
107.089	13.188	981.059	757.232
108.103	13.040	980.195	755.822
109.118	13.040	979.000	754.831
110.133	12.977	978.502	754.093
111.147	12.990	977.534	753.339
112.162	13.112	976.952	753.384
113.176	13.085	975.823	752.322
114.191	13.180	974.861	751.943
115.206	13.177	973.983	751.188
116.220	13.172	973.512	750.736
117.235	13.216	972.458	750.056
118.249	13.031	972.009	748.803
119.264	13.151	970.660	748.241
120.279	13.218	969.955	747.936
121.293	13.057	969.562	746.837
122.308	12.979	968.650	745.719
123.322	13.029	967.488	744.980
124.337	13.105	966.569	744.553
125.352	13.114	965.226	743.490
126.366	13.056	964.438	742.557
127.381	13.004	963.603	741.614
128.395	13.052	962.659	741.040
129.410	13.009	961.797	740.119
130.424	13.056	960.775	739.476
131.439	13.069	959.911	738.804
132.454	13.070	959.375	738.332
133.468	13.187	958.335	737.985
134.483	13.198	958.091	737.782
135.497	13.178	956.927	736.734
136.512	13.302	956.236	736.685
137.527	13.264	955.601	735.965
138.541	13.352	954.586	735.508
139.556	13.325	953.941	734.825
140.570	13.168	953.559	733.768
141.585	13.289	952.849	733.695
142.600	13.508	952.097	734.021
143.614	13.455	951.092	732.949
144.629	13.466	950.188	732.237
145.643	13.572	949.733	732.286
146.658	13.403	948.853	730.800
147.673	13.472	947.877	730.287
148.687	13.351	946.951	728.975
149.702	13.244	945.883	727.618
150.716	13.272	944.827	726.862
151.731	13.223	944.294	726.172
152.746	13.213	943.775	725.667
153.760	13.284	943.171	725.449
154.775	13.252	942.036	724.371
155.789	13.332	941.207	724.023
156.804	13.369	940.599	723.652
157.819	13.410	939.614	723.008
158.833	13.310	939.235	722.216
159.848	13.356	938.885	722.086
160.862	13.482	938.039	721.917
161.877	13.374	937.303	720.817
162.892	13.409	936.444	720.247
163.906	13.344	935.597	719.250
164.921	13.399	934.604	718.662
165.935	13.323	933.895	717.722
166.950	13.312	932.658	716.659
167.964	13.392	931.701	716.209
168.979	13.370	930.841	715.386
169.994	13.327	930.040	714.522
171.008	13.393	929.119	714.036
172.023	13.310	928.605	713.222
173.037	13.404	927.749	712.907
174.052	13.581	926.746	712.834
175.067	13.568	925.932	712.088
176.081	13.497	925.281	711.221
177.096	13.413	924.333	710.069
178.110	13.380	923.473	709.203
179.125	13.332	923.187	708.714
180.140	13.359	922.225	708.030
181.154	13.454	921.461	707.786
182.169	13.443	921.106	707.406
183.183	13.506	920.561	707.190
184.198	13.550	920.047	706.924
185.213	13.605	918.872	706.192
186.227	13.593	918.670	705.923
187.242	13.629	917.607	705.195
188.256	13.688	917.142	705.028
189.271	13.734	916.294	704.508
190.286	13.806	915.705	704.301
191.300	13.515	915.329	702.714
192.315	13.428	914.380	701.555
193.329	13.479	913.392	700.951
194.344	13.248	913.370	699.891
195.359	13.335	912.144	699.259
196.373	13.513	911.811	699.696
197.388	13.611	911.105	699.503
198.402	13.720	910.936	699.771
199.417	13.816	910.220	699.563
200.432	13.864	910.055	699.580
201.446	13.879	909.568	699.206
202.461	13.922	909.398	699.195
203.475	13.935	908.615	698.586
204.490	14.107	907.662	698.512
205.504	13.968	907.154	697.475
206.519	13.852	906.563	696.473
207.534	13.906	905.193	695.587
208.548	13.866	904.479	694.808
209.563	13.873	904.111	694.495
210.577	13.794	903.460	693.603
211.592	13.872	902.685	693.271
212.607	13.922	902.269	693.098
213.621	14.122	901.389	693.196
214.636	14.041	900.690	692.259
215.650	13.929	900.319	691.446
216.665	14.151	899.598	691.756
217.680	14.134	899.083	691.225
218.694	14.143	898.446	690.714
219.709	14.227	898.136	690.763
220.723	14.050	897.933	689.809
221.738	14.177	896.649	689.290
222.753	14.230	896.088	689.015
223.767	14.090	895.313	687.780
224.782	14.120	894.286	687.055
225.796	14.103	893.948	686.662
226.811	14.127	893.466	686.332
227.826	14.198	892.559	685.867
228.840	14.150	891.870	685.081
229.855	13.987	891.546	684.098
230.869	14.036	890.568	683.491
231.884	14.316	889.457	683.724
232.899	14.072	888.999	682.314
233.913	14.148	888.574	682.236
234.928	14.099	887.723	681.324
235.942	14.086	887.162	680.777
236.957	14.041	886.440	679.981
237.972	14.029	885.656	679.271
238.986	14.255	884.903	679.554
240.001	14.124	884.426	678.594
241.015	14.076	883.782	677.846
242.030	14.260	883.146	678.045
243.045	14.191	882.522	677.226
244.059	14.322	882.036	677.327
245.074	14.275	881.458	676.631
246.088	14.185	880.941	675.808
247.103	14.350	880.033	675.721
248.117	14.393	879.232	675.221
249.132	14.566	878.700	675.454
250.147	14.579	878.353	675.181
251.161	14.800	877.462	675.329
252.176	14.720	877.117	674.678
253.190	14.727	876.814	674.415
254.205	14.669	876.294	673.721
255.220	14.704	875.622	673.285
256.234	14.730	874.925	672.795
257.249	14.743	873.939	672.029
258.263	14.750	873.432	671.611
259.278	14.921	872.671	671.650
260.293	14.752	872.543	670.813
261.307	14.743	872.040	670.335
262.322	14.852	871.240	670.096
263.336	14.789	870.759	669.413
264.351	15.101	869.819	669.879
265.366	14.905	869.487	668.782
266.380	15.017	868.623	668.505
267.395	15.005	868.168	668.049
268.409	14.924	867.478	667.135
269.424	14.924	866.669	666.455
270.439	14.829	866.141	665.610
271.453	14.812	865.105	664.688
272.468	15.015	864.378	664.877
273.482	14.860	864.082	663.974
274.497	14.925	863.075	663.401
275.512	14.918	862.536	662.900
276.526	15.011	861.503	662.416
277.541	14.953	861.105	661.821
278.555	15.017	860.605	661.630
279.570	14.846	860.180	660.569
280.585	15.043	859.410	660.696
281.599	15.014	859.238	660.395
282.614	15.116	858.385	660.080
283.628	15.134	858.012	659.805
284.643	15.018	857.339	658.774
285.657	14.954	856.953	658.169
286.672	15.096	856.080	657.998
287.687	15.075	855.618	657.502
288.701	15.180	855.144	657.492
289.716	15.172	854.616	656.994
290.730	15.172	853.985	656.450
291.745	15.202	853.216	655.920
292.760	15.231	852.597	655.499
293.774	15.188	852.126	654.913
294.789	15.307	851.647	654.950
295.803	15.385	850.818	654.559
296.818	15.255	850.385	653.662
297.833	15.266	849.563	653.015
298.847	15.168	848.928	652.088
299.862	15.208	848.265	651.675
300.876	15.316	847.765	651.652
301.891	15.345	847.246	651.312
302.906	15.290	846.615	650.553
303.920	15.443	845.578	650.291
304.935	15.437	845.003	649.767
305.949	15.608	844.904	650.297
306.964	15.548	844.077	649.370
307.979	15.627	843.190	648.937
308.993	15.504	842.867	648.155
310.008	15.514	842.233	647.649
311.022	15.580	841.956	647.635
312.037	15.574	841.351	647.088
313.052	15.543	840.590	646.328
314.066	15.453	840.082	645.534
315.081	15.551	839.301	645.250
316.095	15.456	838.718	644.381
317.110	15.425	838.497	644.037
318.125	15.538	837.821	643.892
319.139	15.520	837.021	643.153
320.154	15.447	836.902	642.726
321.168	15.551	836.321	642.617
322.183	15.498	836.327	642.365
323.197	15.455	835.678	641.643
324.212	15.580	834.941	641.500
325.227	15.553	833.943	640.573
326.241	15.494	833.831	640.203
327.256	15.466	833.262	639.604
328.270	15.667	832.446	639.688
329.285	15.627	831.756	638.945
330.300	15.535	831.342	638.223
331.314	15.569	830.978	638.017
332.329	15.718	830.129	637.872
333.343	15.570	829.890	637.072
334.358	15.656	829.361	636.937
335.373	15.812	828.648	636.920
336.387	15.823	828.314	636.649
337.402	15.858	827.770	636.309
338.416	15.922	827.153	636.021
339.431	15.823	826.554	635.130
340.446	15.883	826.196	635.023
341.460	15.860	825.824	634.595
342.475	16.033	824.863	634.452
343.489	16.174	824.239	634.448
344.504	16.103	824.224	634.110
345.519	16.041	823.506	633.271
346.533	16.087	822.634	632.717
347.548	16.194	822.222	632.745
348.562	16.110	821.980	632.189
349.577	16.051	821.295	631.382
350.592	15.874	820.987	630.427
351.606	15.856	820.298	629.775
352.621	15.954	819.760	629.675
353.635	15.966	819.339	629.338
354.650	15.947	819.194	629.101
355.665	16.068	818.389	628.881
356.679	16.028	818.352	628.644
357.694	16.187	817.564	628.578
358.708	16.107	816.789	627.627
359.723	16.203	816.321	627.571
360.738	16.069	815.757	626.582
361.752	16.074	815.480	626.332
362.767	16.200	814.886	626.289
363.781	16.144	814.563	625.776
364.796	16.173	814.520	625.795
365.810	16.362	813.651	625.775
366.825	16.442	813.528	625.922
367.840	16.485	813.028	625.640
368.854	16.557	812.558	625.487
369.869	16.443	812.157	624.702
370.883	16.342	811.434	623.719
371.898	16.452	810.739	623.536
372.913	16.570	809.916	623.284
373.927	16.415	809.772	622.544
374.942	16.484	809.224	622.324
375.956	16.500	808.450	621.733
376.971	16.512	808.241	621.561
377.986	16.522	807.697	621.123
379.000	16.622	807.138	621.004
380.015	16.706	806.344	620.647
381.029	16.643	806.206	620.254
382.044	16.561	805.473	619.334
383.059	16.712	804.559	619.133
384.073	16.621	804.175	618.449
385.088	16.743	803.630	618.421
386.102	16.578	803.138	617.383
387.117	16.542	802.931	617.040
388.132	16.562	802.307	616.577
389.146	16.638	801.544	616.213
390.161	16.617	801.666	616.175
391.175	16.710	801.132	616.048
392.190	16.820	800.725	616.082
393.205	16.798	800.097	615.465
394.219	16.626	799.730	614.504
395.234	16.731	799.457	614.619
396.248	16.645	798.769	613.725
397.263	16.461	798.440	612.750
398.278	16.560	798.070	612.773
399.292	16.569	797.586	612.378
400.307	16.543	797.403	612.089
401.321	16.589	796.835	611.767
402.336	16.737	796.213	611.769
403.350	16.686	795.955	611.333
404.365	16.910	795.136	611.457
405.380	16.834	794.827	610.890
406.394	16.903	794.685	610.977
407.409	17.067	793.911	610.918
408.423	17.004	793.398	610.241
409.438	17.028	793.048	610.006
410.453	17.109	792.764	610.024
411.467	17.098	792.496	609.723
412.482	17.084	791.992	609.234
413.496	17.187	791.428	609.115
414.511	17.147	791.268	608.795
415.526	17.201	790.600	608.420
416.540	17.181	790.506	608.222
417.555	17.073	790.026	607.411
418.569	17.140	789.354	607.080
419.584	17.076	788.951	606.488
420.599	17.196	788.428	606.462
421.613	75.263	1232.402	1260.250
422.628	63.226	1297.128	1260.422
