DTS Sentinel unit serial number:	SN413079Multiplexer serial number:	ORYXHardware model number:	OX4-SRSoftware version number:	ORYX F/W v4.00 Oryx Data Collector v3.7.2.0data status	okinstallation	princeton_trtdifferential loss correction	single-endedforward channel	channel 3reverse channel	N/Adate	2019/09/18time	13:48:35forward acquisition time	60.00reverse acquisition time	0.00gamma	496.2192k internal	0.2310k external	0.2310temperature offset calibration	0.9972default loss term (dB/km)	0.3790temperature slope calibration	1.0000multiplexer offset coefficient	1.0000multiplexer slope coefficient	1.0000fibre end	0.00T internal ref (°C)	34.50T ext. ref 1 (°C)	0.64T ext. ref 2 (°C)	29.99length (m)	temperature (°C)	Stokes	anti-Stokes-747.200	-73.576	-0.147	-0.054
-746.185	299.281	-0.109	0.204
-745.171	112.450	-0.145	0.178
-744.156	800.000	-0.035	-0.139
-743.142	-200.000	-0.003	0.177
-742.127	1.706	-0.011	-0.008
-741.112	-131.397	0.172	-0.023
-740.098	800.000	-0.119	0.422
-739.083	2.310	0.181	-0.133
-738.069	-31.238	-0.077	0.044
-737.054	-200.000	-0.016	0.130
-736.039	76.349	-0.108	-0.116
-735.025	-8.520	0.431	-0.294
-734.010	81.525	0.019	0.021
-732.996	800.000	-0.048	-0.164
-731.981	-103.153	0.321	0.077
-730.966	-85.276	-0.277	0.088
-729.952	25.083	-0.314	-0.264
-728.937	-68.330	-0.205	-0.081
-727.923	800.000	-0.072	-0.266
-726.908	107.617	-0.218	-0.263
-725.894	182.520	0.100	-0.150
-724.879	170.328	-0.037	-0.054
-723.864	-143.042	0.397	0.039
-722.850	-200.000	0.014	-0.101
-721.835	-137.216	-0.078	-0.009
-720.821	-93.263	-0.102	0.029
-719.806	135.902	-0.269	-0.356
-718.791	296.092	-0.127	0.236
-717.777	-31.055	0.095	-0.054
-716.762	-46.254	0.222	0.111
-715.748	-200.000	-0.018	0.180
-714.733	-82.294	-0.311	-0.103
-713.718	-39.098	-0.017	0.009
-712.704	-125.494	0.369	-0.057
-711.689	-39.618	-0.207	0.110
-710.675	-56.565	-0.241	-0.108
-709.660	316.042	-0.103	0.197
-708.645	-71.697	0.228	0.086
-707.631	-200.000	0.030	-0.277
-706.616	-200.000	0.027	0.260
-705.602	800.000	-0.034	0.115
-704.587	-122.899	0.212	0.035
-703.572	716.566	0.148	-0.397
-702.558	-108.293	-0.145	0.032
-701.543	-128.080	-0.329	0.048
-700.529	-127.826	0.134	-0.020
-699.514	123.132	-0.299	-0.379
-698.499	-200.000	-0.045	-0.207
-697.485	-88.010	0.249	-0.076
-696.470	-5.868	0.119	0.082
-695.456	-56.680	-0.211	-0.095
-694.441	225.035	-0.100	-0.164
-693.426	197.813	-0.212	-0.327
-692.412	132.916	0.188	0.245
-691.397	66.890	0.039	0.040
-690.383	-162.651	0.082	0.004
-689.368	-37.972	-0.238	0.128
-688.354	319.287	-0.079	-0.151
-687.339	-200.000	-0.019	-0.145
-686.324	-137.152	0.161	-0.019
-685.310	800.000	-0.020	0.064
-684.295	13.520	0.152	0.120
-683.281	-90.341	-0.440	-0.129
-682.266	-94.605	-0.155	-0.043
-681.251	-200.000	0.033	-0.259
-680.237	-90.627	-0.157	0.046
-679.222	-130.983	-0.103	-0.014
-678.208	608.373	0.034	-0.086
-677.193	-34.305	-0.172	-0.096
-676.178	-113.754	0.335	-0.066
-675.164	-76.031	-0.452	-0.162
-674.149	80.859	0.081	0.088
-673.135	188.255	-0.117	-0.177
-672.120	800.000	-0.032	-0.111
-671.105	105.615	0.073	0.087
-670.091	96.565	-0.159	0.184
-669.076	-10.082	-0.166	0.112
-668.062	-200.000	-0.066	-0.298
-667.047	-200.000	0.046	0.534
-666.032	570.786	-0.112	0.276
-665.018	-200.000	-0.001	-0.035
-664.003	-200.000	-0.047	0.215
-662.989	-76.347	0.114	-0.040
-661.974	257.196	0.162	0.282
-660.959	163.064	-0.037	0.053
-659.945	35.342	-0.029	0.026
-658.930	-5.496	0.211	-0.147
-657.916	2.251	0.135	-0.099
-656.901	251.942	-0.172	-0.296
-655.886	68.971	0.136	0.141
-654.872	529.220	0.068	0.164
-653.857	361.363	0.041	0.082
-652.843	800.000	0.158	-0.485
-651.828	-200.000	-0.001	0.034
-650.814	52.566	-0.108	0.104
-649.799	131.693	-0.232	-0.301
-648.784	-200.000	-0.021	-0.178
-647.770	-57.173	0.171	-0.076
-646.755	21.126	-0.154	-0.126
-645.741	-200.000	0.025	0.284
-644.726	655.381	-0.087	-0.225
-643.711	103.158	0.102	-0.121
-642.697	53.103	-0.100	-0.097
-641.682	-63.624	-0.174	-0.072
-640.668	-125.038	-0.217	0.034
-639.653	-69.528	0.200	0.077
-638.638	17.953	0.071	0.057
-637.624	-200.000	0.011	-0.306
-636.609	-200.000	-0.016	-0.208
-635.595	31.496	0.051	0.044
-634.580	514.299	-0.064	0.152
-633.565	-200.000	0.005	-0.133
-632.551	-138.525	-0.137	-0.015
-631.536	-21.049	-0.050	-0.031
-630.522	145.885	0.132	0.179
-629.507	800.000	-0.063	0.229
-628.492	39.297	0.447	-0.405
-627.478	515.058	-0.104	0.246
-626.463	-102.616	0.237	-0.057
-625.449	-118.243	-0.332	-0.060
-624.434	174.356	0.103	-0.150
-623.419	138.306	-0.177	-0.235
-622.405	-163.907	0.291	0.014
-621.390	110.380	-0.179	-0.217
-620.376	-41.912	0.117	-0.061
-619.361	100.696	-0.161	-0.189
-618.346	99.901	0.126	0.148
-617.332	-3.809	0.190	0.134
-616.317	-152.921	0.087	-0.006
-615.303	-169.138	-0.228	0.009
-614.288	114.199	-0.071	-0.087
-613.273	26.755	0.162	0.137
-612.259	-200.000	-0.037	0.358
-611.244	-38.594	-0.275	0.147
-610.230	-114.327	-0.138	0.027
-609.215	800.000	0.043	-0.125
-608.201	800.000	0.039	-0.119
-607.186	53.469	-0.109	0.105
-606.171	-132.953	-0.204	0.026
-605.157	-200.000	-0.025	0.322
-604.142	-137.930	0.243	0.027
-603.128	-120.745	-0.254	-0.043
-602.113	37.997	-0.104	-0.093
-601.098	182.768	0.181	-0.270
-600.084	145.668	0.088	0.119
-599.069	97.893	0.085	-0.098
-598.055	-126.581	0.298	-0.045
-597.040	163.581	0.031	0.044
-596.025	48.663	-0.273	-0.258
-595.011	-200.000	0.005	-0.088
-593.996	37.238	-0.256	-0.229
-592.982	800.000	0.044	-0.122
-591.967	-200.000	-0.005	-0.180
-590.952	787.148	-0.066	0.184
-589.938	494.497	0.111	-0.257
-588.923	197.638	0.072	0.110
-587.909	-16.364	0.163	0.105
-586.894	-200.000	-0.058	0.000
-585.879	341.838	-0.142	0.279
-584.865	-13.554	-0.285	0.186
-583.850	-3.334	-0.226	0.159
-582.836	35.648	-0.162	-0.144
-581.821	186.639	0.032	-0.048
-580.806	-53.825	0.301	0.138
-579.792	-200.000	0.035	0.222
-578.777	-65.469	-0.156	0.063
-577.763	92.383	-0.089	-0.102
-576.748	153.828	-0.113	0.156
-575.733	52.922	-0.164	0.158
-574.719	123.320	-0.036	-0.045
-573.704	-57.194	-0.020	0.009
-572.690	150.289	0.104	0.142
-571.675	-71.677	0.203	-0.076
-570.661	-96.562	0.139	0.037
-569.646	9.945	-0.035	0.026
-568.631	-200.000	0.026	-0.318
-567.617	146.353	-0.181	-0.245
-566.602	-72.690	0.193	-0.072
-565.588	124.147	-0.093	-0.117
-564.573	-88.920	0.135	-0.040
-563.558	61.814	-0.259	0.260
-562.544	82.757	0.131	0.143
-561.529	-200.000	0.005	0.292
-560.515	-200.000	0.017	-0.289
-559.500	-46.447	0.253	0.125
-558.485	233.851	0.192	0.319
-557.471	22.370	0.134	0.110
-556.456	20.770	0.124	-0.101
-555.442	-66.703	0.047	0.019
-554.427	7.836	0.311	0.235
-553.412	483.413	-0.074	0.168
-552.398	-92.405	0.242	-0.069
-551.383	522.228	-0.013	0.030
-550.369	-200.000	-0.005	-0.177
-549.354	354.871	0.061	-0.123
-548.339	-133.743	0.110	-0.014
-547.325	-200.000	-0.020	-0.182
-546.310	-117.772	0.240	-0.043
-545.296	11.722	-0.185	-0.143
-544.281	2.372	-0.214	0.156
-543.266	208.384	-0.063	0.099
-542.252	-91.102	-0.300	0.087
-541.237	-5.916	0.234	0.161
-540.223	-4.351	0.111	-0.077
-539.208	34.947	-0.192	0.169
-538.193	-200.000	0.027	0.135
-537.179	-47.078	0.216	-0.106
-536.164	-5.273	-0.153	-0.106
-535.150	-157.751	0.542	0.032
-534.135	243.410	0.174	-0.294
-533.121	-58.819	0.264	-0.115
-532.106	-99.634	-0.446	-0.113
-531.091	82.268	0.204	-0.223
-530.077	800.000	0.067	-0.215
-529.062	-41.327	-0.210	-0.109
-528.048	-80.654	-0.135	-0.045
-527.033	-200.000	-0.022	-0.319
-526.018	148.766	0.101	0.137
-525.004	41.082	0.119	0.108
-523.989	-200.000	0.045	0.286
-522.975	-62.716	0.146	-0.061
-521.960	-67.655	0.150	0.059
-520.945	143.825	-0.036	-0.048
-519.931	-47.740	-0.153	-0.075
-518.916	79.979	0.260	0.281
-517.902	653.141	0.125	0.322
-516.887	303.765	0.168	0.313
-515.872	-71.241	-0.237	-0.089
-514.858	-49.426	0.108	0.052
-513.843	-38.071	-0.246	-0.132
-512.829	-65.455	-0.405	-0.164
-511.814	-200.000	-0.044	-0.197
-510.799	-200.000	0.008	0.156
-509.785	-200.000	-0.025	-0.155
-508.770	-200.000	-0.022	-0.157
-507.756	-200.000	0.003	-0.140
-506.741	123.700	-0.095	0.120
-505.726	12.416	-0.204	-0.158
-504.712	-200.000	-0.059	0.349
-503.697	380.137	-0.102	0.209
-502.683	297.730	-0.200	0.369
-501.668	93.443	-0.155	0.176
-500.653	-96.729	0.192	-0.051
-499.639	-96.628	-0.291	0.077
-498.624	33.711	0.068	-0.060
-497.610	-200.000	0.029	-0.170
-496.595	10.813	-0.269	-0.206
-495.581	-152.494	0.141	0.010
-494.566	270.694	0.087	-0.154
-493.551	172.589	-0.020	-0.028
-492.537	0.652	-0.147	0.106
-491.522	83.964	-0.103	-0.113
-490.508	-200.000	-0.024	0.322
-489.493	-97.391	0.101	0.027
-488.478	273.184	0.115	-0.204
-487.464	-136.536	-0.073	-0.009
-486.449	3.043	-0.102	0.074
-485.435	-63.463	0.167	0.069
-484.420	-134.619	0.353	0.043
-483.405	184.453	-0.210	-0.312
-482.391	17.603	-0.275	-0.219
-481.376	583.592	0.088	-0.218
-480.362	-200.000	0.008	0.064
-479.347	704.691	-0.020	-0.052
-478.332	26.638	0.113	0.095
-477.318	-200.000	-0.035	-0.228
-476.303	-67.986	-0.097	0.038
-475.289	-58.922	0.245	0.107
-474.274	-200.000	0.028	0.149
-473.259	-95.766	-0.200	0.054
-472.245	113.463	-0.254	0.310
-471.230	218.802	0.134	-0.215
-470.216	-186.900	0.028	-0.000
-469.201	116.198	-0.167	-0.205
-468.186	-71.795	-0.360	0.135
-467.172	-162.268	0.221	0.011
-466.157	-69.290	-0.113	-0.044
-465.143	-119.331	-0.088	-0.015
-464.128	84.637	0.147	0.161
-463.113	44.465	0.138	-0.127
-462.099	-85.031	-0.144	-0.045
-461.084	-75.337	0.467	-0.167
-460.070	-200.000	-0.004	0.066
-459.055	475.924	-0.201	-0.457
-458.040	97.523	-0.205	0.236
-457.026	-118.399	0.289	0.051
-456.011	295.174	-0.073	0.133
-454.997	-87.803	-0.214	-0.065
-453.982	401.587	0.078	0.165
-452.968	-84.441	0.269	0.085
-451.953	-142.812	-0.014	0.001
-450.938	800.000	-0.050	-0.209
-449.924	500.352	-0.114	-0.264
-448.909	-95.743	0.147	0.039
-447.895	257.407	-0.090	0.156
-446.880	177.423	0.173	-0.253
-445.865	-19.520	0.239	0.148
-444.851	-71.446	-0.101	-0.038
-443.836	773.619	-0.124	-0.341
-442.822	-31.253	-0.084	-0.048
-441.807	59.429	0.100	-0.099
-440.792	218.015	-0.050	-0.080
-439.778	-138.304	0.136	0.015
-438.763	800.000	0.032	-0.111
-437.749	-84.793	-0.305	-0.096
-436.734	-90.448	0.421	-0.122
-435.719	-117.023	0.104	0.019
-434.705	-200.000	0.037	-0.183
-433.690	1.632	0.083	0.060
-432.676	-100.947	0.059	-0.015
-431.661	26.145	0.274	0.229
-430.646	-200.000	-0.342	-0.001
-429.632	-40.327	-0.072	0.037
-428.617	-15.444	0.338	0.217
-427.603	-0.771	-0.319	-0.227
-426.588	800.000	-0.102	0.305
-425.573	-153.746	-0.057	0.004
-424.559	22.997	-0.106	-0.088
-423.544	112.917	0.176	0.213
-422.530	-100.639	-0.178	-0.044
-421.515	-105.428	-0.250	0.057
-420.500	800.000	0.040	0.163
-419.486	738.733	-0.045	-0.120
-418.471	303.837	0.103	0.192
-417.457	-200.000	0.000	-0.126
-416.442	-27.456	0.261	-0.152
-415.428	-40.765	0.469	-0.243
-414.413	800.000	-0.055	0.206
-413.398	10.005	-0.267	0.204
-412.384	-200.000	-0.033	0.216
-411.369	-93.767	-0.178	-0.049
-410.355	117.488	0.189	0.233
-409.340	-58.354	0.095	0.041
-408.325	83.520	0.169	-0.184
-407.311	800.000	0.057	-0.234
-406.296	800.000	-0.080	-0.331
-405.282	380.512	-0.053	-0.109
-404.267	-113.635	-0.456	-0.089
-403.252	676.365	0.057	-0.150
-402.238	78.745	0.172	-0.184
-401.223	580.607	0.087	-0.214
-400.209	800.000	-0.061	0.182
-399.194	-200.000	0.004	-0.214
-398.179	-200.000	0.046	0.276
-397.165	104.162	0.127	-0.150
-396.150	-200.000	-0.003	-0.223
-395.136	-48.344	-0.192	-0.093
-394.121	-140.120	0.269	-0.028
-393.106	230.829	-0.146	-0.239
-392.092	-18.407	0.103	0.064
-391.077	-102.885	-0.376	0.089
-390.063	464.630	-0.091	-0.203
-389.048	-12.163	0.107	-0.070
-388.033	-54.448	-0.202	-0.092
-387.019	312.062	0.072	0.136
-386.004	4.862	-0.273	-0.201
-384.990	-84.146	-0.063	-0.020
-383.975	52.848	0.411	0.394
-382.960	60.226	-0.236	0.233
-381.946	-90.269	-0.189	0.055
-380.931	-200.000	0.037	0.215
-379.917	-42.574	0.277	0.141
-378.902	-11.224	-0.331	-0.219
-377.888	523.346	-0.035	-0.082
-376.873	-90.215	-0.121	-0.035
-375.858	-200.000	-0.011	-0.141
-374.844	-16.260	0.097	0.062
-373.829	800.000	-0.125	-0.392
-372.815	-200.000	-0.005	-0.106
-371.800	-94.933	-0.130	0.035
-370.785	-96.513	0.336	0.089
-369.771	-33.037	-0.418	0.232
-368.756	93.408	0.147	0.167
-367.742	-200.000	0.050	-0.348
-366.727	166.708	0.026	-0.038
-365.712	-91.862	-0.331	0.094
-364.698	-200.000	0.305	-0.001
-363.683	-1.099	0.194	0.137
-362.669	463.411	0.153	-0.342
-361.654	226.073	-0.215	0.349
-360.639	-148.115	-0.309	0.026
-359.625	-200.000	0.007	-0.233
-358.610	-200.000	-0.032	-0.196
-357.596	-84.419	-0.264	0.083
-356.581	79.921	-0.211	0.227
-355.566	-200.000	-0.074	0.591
-354.552	-165.801	0.309	-0.013
-353.537	800.000	0.004	0.015
-352.523	-9.356	0.250	0.167
-351.508	-70.739	0.285	0.108
-350.493	-183.771	0.344	0.006
-349.479	16.224	0.072	0.057
-348.464	67.576	-0.017	0.017
-347.450	361.511	-0.084	0.168
-346.435	-200.000	-0.022	-0.098
-345.420	80.977	0.081	0.088
-344.406	-176.380	-0.122	0.003
-343.391	2.192	0.248	0.179
-342.377	210.571	0.186	-0.293
-341.362	166.254	0.079	-0.112
-340.348	-100.655	0.439	0.108
-339.333	19.683	-0.160	-0.129
-338.318	108.656	-0.149	0.178
-337.304	-200.000	0.040	0.279
-336.289	183.519	-0.149	-0.220
-335.275	780.983	-0.100	-0.274
-334.260	-22.229	0.341	0.207
-333.245	68.249	0.088	-0.091
-332.231	800.000	0.033	-0.124
-331.216	-200.000	0.033	0.270
-330.202	582.135	0.067	0.164
-329.187	372.199	-0.063	-0.127
-328.172	-137.030	-0.262	0.030
-327.158	-33.805	0.148	0.081
-326.143	182.120	0.142	-0.208
-325.129	-119.655	-0.144	-0.025
-324.114	-101.900	0.347	-0.084
-323.099	155.441	-0.087	-0.119
-322.085	-31.927	0.160	-0.090
-321.070	800.000	-0.065	0.284
-320.056	-200.000	0.035	-0.241
-319.041	-79.697	-0.218	0.073
-318.026	795.259	-0.114	-0.314
-317.012	-51.014	-0.207	0.097
-315.997	-65.039	-0.094	0.038
-314.983	442.425	-0.048	-0.105
-313.968	-200.000	-0.049	-0.248
-312.953	-1.752	0.188	0.132
-311.939	249.932	-0.194	0.328
-310.924	-69.666	0.139	-0.053
-309.910	0.247	-0.322	-0.230
-308.895	17.816	0.237	-0.188
-307.880	-147.125	-0.251	0.021
-306.866	-9.992	0.110	-0.073
-305.851	641.265	0.143	0.362
-304.837	-92.594	0.179	0.050
-303.822	-151.535	-0.065	0.005
-302.807	85.244	-0.129	-0.142
-301.793	-133.688	0.141	0.018
-300.778	-136.063	-0.240	0.028
-299.764	-180.635	0.324	-0.007
-298.749	-91.098	-0.178	-0.051
-297.735	-200.000	-0.002	-0.108
-296.720	800.000	0.113	-0.382
-295.705	800.000	-0.093	0.375
-294.691	-141.600	0.357	0.036
-293.676	-115.955	0.190	0.035
-292.662	-118.125	0.140	0.025
-291.647	800.000	0.028	0.090
-290.632	78.390	-0.050	-0.053
-289.618	152.964	0.232	0.317
-288.603	-91.906	0.177	-0.050
-287.589	481.790	0.203	-0.460
-286.574	-46.485	0.200	0.098
-285.559	800.000	-0.016	0.054
-284.545	-56.373	0.385	-0.170
-283.530	-200.000	-0.047	-0.283
-282.516	800.000	-0.056	0.179
-281.501	561.912	-0.075	-0.180
-280.486	800.000	-0.071	0.282
-279.472	88.249	-0.065	-0.072
-278.457	-154.896	-0.214	0.014
-277.443	-75.088	0.070	0.025
-276.428	-94.070	0.237	0.065
-275.413	51.473	0.106	0.100
-274.399	-73.776	-0.125	-0.045
-273.384	111.421	0.127	0.152
-272.370	18.147	-0.161	-0.128
-271.355	-74.816	0.101	-0.036
-270.340	-106.637	-0.194	0.043
-269.326	-25.219	-0.302	-0.178
-268.311	125.003	-0.087	0.109
-267.297	114.343	0.151	0.183
-266.282	683.747	-0.057	-0.147
-265.267	-200.000	-0.009	0.101
-264.253	800.000	0.156	0.497
-263.238	-60.939	-0.331	-0.139
-262.224	64.518	0.279	0.281
-261.209	-200.000	-0.003	0.143
-260.195	-200.000	-0.080	0.370
-259.180	800.000	-0.043	0.126
-258.165	-123.944	-0.114	0.018
-257.151	800.000	-0.037	-0.110
-256.136	40.661	0.080	0.072
-255.122	-200.000	-0.035	0.297
-254.107	32.634	0.153	0.132
-253.092	-200.000	-0.004	-0.025
-252.078	18.877	0.211	-0.168
-251.063	-200.000	-0.030	-0.190
-250.049	-200.000	-0.029	-0.129
-249.034	243.332	-0.124	0.208
-248.019	-32.227	0.291	0.162
-247.005	-200.000	0.017	0.242
-245.990	93.768	-0.254	-0.287
-244.976	-152.562	-0.283	-0.020
-243.961	-200.000	0.002	0.094
-242.946	220.686	-0.103	-0.164
-241.932	-119.025	-0.275	-0.048
-240.917	486.529	-0.109	-0.247
-239.903	327.298	0.154	-0.294
-238.888	-200.000	0.055	0.315
-237.873	-200.000	-0.011	0.055
-236.859	-40.779	0.386	0.199
-235.844	20.149	-0.079	-0.063
-234.830	800.000	0.037	-0.132
-233.815	-144.200	0.301	0.028
-232.800	199.282	-0.112	-0.170
-231.786	-200.000	0.102	-0.515
-230.771	-120.373	-0.272	0.046
-229.757	-92.712	-0.155	0.043
-228.742	396.718	-0.162	-0.336
-227.727	202.360	0.130	-0.200
-226.713	-57.906	-0.255	0.111
-225.698	-155.329	-0.284	-0.018
-224.684	-153.886	-0.228	0.016
-223.669	800.000	-0.053	-0.198
-222.655	-133.891	0.182	-0.023
-221.640	-200.000	-0.055	-0.321
-220.625	-35.947	-0.363	-0.195
-219.611	438.866	-0.104	-0.227
-218.596	800.000	0.053	-0.194
-217.582	-200.000	0.007	-0.143
-216.567	271.396	0.124	-0.218
-215.552	497.426	-0.039	-0.089
-214.538	-200.000	0.007	0.179
-213.523	-128.122	0.149	-0.021
-212.509	152.794	-0.192	0.260
-211.494	426.216	-0.083	0.179
-210.479	624.382	-0.133	0.332
-209.465	435.758	-0.115	0.248
-208.450	800.000	-0.055	0.208
-207.436	800.000	-0.049	0.184
-206.421	-7.066	0.048	0.033
-205.406	504.060	0.135	0.311
-204.392	795.868	0.088	-0.240
-203.377	-181.082	-0.109	0.002
-202.363	-83.075	-0.280	0.090
-201.348	-38.830	-0.277	0.145
-200.333	-18.639	0.294	0.182
-199.319	131.035	-0.140	-0.178
-198.304	800.000	0.054	-0.150
-197.290	-56.554	-0.263	-0.116
-196.275	322.015	0.109	0.207
-195.260	-69.113	-0.125	0.048
-194.246	128.854	0.112	0.142
-193.231	552.258	0.057	-0.137
-192.217	-56.254	0.109	0.048
-191.202	-148.625	0.168	0.014
-190.187	442.247	0.023	0.050
-189.173	-0.163	0.117	0.082
-188.158	104.916	-0.224	0.263
-187.144	224.092	0.084	0.134
-186.129	-124.598	0.289	-0.045
-185.114	-26.312	0.136	0.079
-184.100	32.626	0.208	-0.179
-183.085	-200.000	0.016	-0.271
-182.071	-31.175	-0.185	-0.104
-181.056	-121.937	0.087	-0.014
-180.042	-200.000	0.089	0.511
-179.027	-200.000	0.032	0.165
-178.012	-167.119	-0.380	0.015
-176.998	-16.325	0.167	0.106
-175.983	230.698	-0.148	-0.240
-174.969	-200.000	-0.019	-0.319
-173.954	-45.429	0.153	-0.075
-172.939	-200.000	-0.032	0.236
-171.925	423.709	0.111	-0.237
-170.910	800.000	0.104	0.375
-169.896	214.406	0.108	0.169
-168.881	768.307	-0.120	0.325
-167.866	442.448	-0.166	0.362
-166.852	-200.000	0.012	0.280
-165.837	-34.708	-0.101	-0.055
-164.823	349.998	0.140	0.275
-163.808	160.083	0.208	-0.288
-162.793	129.574	-0.013	0.017
-161.779	-200.000	-0.184	0.000
-160.764	-134.817	-0.054	-0.006
-159.750	800.000	0.075	-0.286
-158.735	43.603	-0.092	0.083
-157.720	-26.485	0.100	-0.058
-156.706	-200.000	-0.004	0.328
-155.691	-63.150	0.022	0.009
-154.677	-200.000	0.030	0.248
-153.662	-101.061	0.139	0.034
-152.647	-200.000	0.030	0.149
-151.633	-177.344	-0.149	-0.004
-150.618	-35.127	0.322	0.174
-149.604	28.871	0.022	-0.018
-148.589	-200.000	-0.040	0.000
-147.574	-28.935	0.036	-0.021
-146.560	486.334	-0.064	-0.144
-145.545	800.000	-0.038	-0.142
-144.531	81.209	0.225	0.241
-143.516	-200.000	-0.010	0.259
-142.502	-3.695	0.313	0.216
-141.487	315.968	-0.130	-0.243
-140.472	39.479	0.417	-0.371
-139.458	700.518	0.057	-0.148
-138.443	42.012	-0.172	-0.155
-137.429	203.830	-0.154	0.236
-136.414	-52.642	0.320	0.147
-135.399	600.378	0.092	0.227
-134.385	3.182	-0.135	-0.098
-133.370	49.174	0.178	0.166
-132.356	90.214	-0.156	-0.173
-131.341	157.474	-0.123	0.168
-130.326	-104.016	0.192	0.044
-129.312	-200.000	-0.037	-0.190
-128.297	-105.909	0.141	-0.032
-127.283	335.489	0.182	-0.349
-126.268	381.255	-0.114	0.232
-125.253	48.316	-0.144	-0.134
-124.239	800.000	-0.065	-0.227
-123.224	-200.000	-0.010	0.170
-122.210	800.000	-0.132	0.384
-121.195	-120.307	-0.047	0.008
-120.180	-144.295	0.263	0.024
-119.166	-174.360	0.190	-0.005
-118.151	-200.000	-0.012	0.132
-117.137	447.299	0.071	-0.155
-116.122	293.683	0.120	0.217
-115.107	-55.939	0.190	0.084
-114.093	-75.653	0.213	-0.075
-113.078	-200.000	-0.012	0.177
-112.064	266.673	-0.248	-0.430
-111.049	81.312	-0.056	-0.060
-110.034	64.109	-0.094	-0.094
-109.020	-200.000	-0.052	-0.357
-108.005	265.780	0.103	0.179
-106.991	128.100	-0.155	0.195
-105.976	-15.387	0.114	-0.072
-104.962	-159.431	0.036	0.002
-103.947	-97.251	0.239	0.062
-102.932	-85.486	0.135	0.041
-101.918	314.967	0.131	0.245
-100.903	252.469	-0.166	0.281
-99.889	-200.000	0.001	-0.201
-98.874	-127.433	0.269	0.039
-97.859	-172.117	0.161	0.005
-96.845	-163.960	-0.056	0.003
-95.830	-2.536	-0.236	-0.164
-94.816	-33.611	0.125	-0.068
-93.801	-122.275	0.261	0.042
-92.786	-200.000	-0.014	-0.175
-91.772	-121.450	-0.185	0.030
-90.757	800.000	0.067	-0.221
-89.743	-12.595	-0.296	-0.191
-88.728	113.683	0.085	-0.102
-87.713	-200.000	0.006	-0.211
-86.699	-53.765	0.281	-0.127
-85.684	-200.000	-0.006	0.225
-84.670	-171.060	0.161	0.005
-83.655	6.160	-0.087	0.064
-82.640	-57.392	-0.206	0.090
-81.626	464.068	-0.113	-0.249
-80.611	-200.000	-0.086	-0.429
-79.597	1.409	-0.134	0.095
-78.582	141.550	0.171	-0.224
-77.567	-43.084	0.190	0.095
-76.553	-20.743	0.085	0.051
-75.538	159.343	-0.195	-0.268
-74.524	-153.580	-0.469	-0.032
-73.509	-99.097	0.094	-0.024
-72.494	-200.000	-0.023	-0.194
-71.480	-200.000	0.050	0.296
-70.465	30.597	0.322	0.272
-69.451	800.000	0.080	0.246
-68.436	568.073	0.112	-0.268
-67.422	-72.797	0.094	0.034
-66.407	2.753	-0.121	0.087
-65.392	-90.717	-0.200	0.057
-64.378	57.241	-0.170	-0.164
-63.363	-50.582	-0.395	0.184
-62.349	-90.008	0.137	-0.039
-61.334	58.110	-1.016	-0.984
-60.319	136.519	0.166	0.214
-59.305	-200.000	-0.178	-1.189
-58.290	45.978	0.603	0.551
-57.276	800.000	0.469	1.366
-56.261	-200.000	95.921	548.052
-55.246	502.813	1421.107	3246.962
-54.232	144.715	2645.938	3494.696
-53.217	109.616	2242.956	2656.695
-52.203	44.816	1766.928	1606.873
-51.188	37.589	1575.220	1381.414
-50.173	35.114	1548.333	1340.480
-49.159	52.390	1597.612	1506.438
-48.144	55.247	1616.491	1544.526
-47.130	37.877	1572.583	1380.924
-46.115	34.888	1556.830	1346.035
-45.100	34.559	1554.074	1341.285
-44.086	34.576	1551.432	1339.075
-43.071	34.480	1549.957	1337.073
-42.057	34.437	1548.709	1335.641
-41.042	34.528	1546.663	1334.463
-40.027	34.454	1545.833	1333.175
-39.013	34.554	1543.633	1331.924
-37.998	34.528	1542.793	1330.964
-36.984	34.506	1541.347	1329.513
-35.969	34.558	1539.879	1328.553
-34.954	34.548	1538.644	1327.368
-33.940	34.505	1536.543	1325.203
-32.925	34.504	1536.012	1324.681
-31.911	34.545	1534.444	1323.561
-30.896	34.585	1533.012	1322.552
-29.881	34.556	1531.893	1321.333
-28.867	34.582	1530.307	1320.093
-27.852	34.557	1528.987	1318.731
-26.838	34.518	1527.757	1317.345
-25.823	34.512	1526.179	1315.895
-24.809	34.588	1524.101	1314.574
-23.794	34.519	1523.030	1313.123
-22.779	34.465	1522.223	1312.001
-21.765	34.476	1520.873	1310.861
-20.750	34.498	1519.576	1309.844
-19.736	34.590	1518.465	1309.466
-18.721	34.429	1517.464	1307.444
-17.706	34.522	1516.023	1306.791
-16.692	34.529	1514.945	1305.853
-15.677	34.497	1513.845	1304.636
-14.663	34.487	1513.063	1303.841
-13.648	34.483	1512.537	1303.311
-12.633	34.516	1511.240	1302.365
-11.619	34.333	1511.104	1300.947
-10.604	34.396	1509.775	1300.180
-9.590	34.480	1508.278	1299.416
-8.575	34.480	1507.565	1298.750
-7.560	34.453	1506.525	1297.618
-6.546	34.573	1505.568	1297.561
-5.531	34.375	1505.155	1295.807
-4.517	34.471	1503.690	1295.141
-3.502	34.471	1502.574	1294.129
-2.487	34.489	1501.871	1293.598
-1.473	34.454	1500.913	1292.482
-0.458	34.430	1499.755	1291.270
0.556	33.218	1490.281	1280.472
1.571	30.148	1463.077	1236.552
2.586	26.152	1398.236	1156.110
3.600	23.782	1311.328	1069.906
4.615	21.792	1262.789	1018.660
5.629	18.448	1205.507	953.787
6.644	9.634	1115.333	836.784
7.659	1.948	1071.860	765.624
8.673	0.775	1065.822	755.385
9.688	0.662	1062.788	752.608
10.702	0.595	1061.338	751.182
11.717	0.538	1059.892	749.804
12.731	3.253	1062.411	765.024
13.746	11.510	1074.381	814.929
14.761	17.372	1081.391	849.533
15.775	17.555	1080.519	849.686
16.790	16.829	1078.494	844.403
17.804	15.913	1076.457	838.177
18.819	14.957	1074.576	831.885
19.834	14.512	1073.350	828.650
20.848	14.117	1072.478	825.944
21.863	14.022	1071.003	824.264
22.877	13.743	1070.199	822.189
23.892	13.570	1069.121	820.432
24.907	13.403	1068.550	819.093
25.921	13.404	1067.859	818.497
26.936	13.388	1067.053	817.727
27.950	13.491	1066.513	817.752
28.965	13.469	1065.879	817.082
29.980	13.625	1064.760	816.921
30.994	13.495	1063.916	815.564
32.009	13.599	1062.922	815.240
33.023	13.641	1062.419	814.986
34.038	13.710	1061.960	814.903
35.053	13.732	1060.313	813.674
36.067	13.597	1059.697	812.467
37.082	13.558	1058.752	811.483
38.096	13.472	1058.093	810.481
39.111	13.578	1057.096	810.166
40.126	13.586	1056.143	809.405
41.140	13.533	1055.287	808.418
42.155	13.428	1054.228	807.022
43.169	13.439	1053.485	806.434
44.184	13.454	1051.984	805.286
45.199	13.415	1051.145	804.383
46.213	13.343	1050.130	803.188
47.228	13.523	1048.518	802.757
48.242	13.464	1047.811	801.860
49.257	13.495	1047.122	801.410
50.271	13.514	1045.856	800.462
51.286	13.470	1045.219	799.689
52.301	13.514	1044.488	799.273
53.315	13.550	1043.680	798.755
54.330	13.369	1043.258	797.492
55.344	13.529	1041.996	797.226
56.359	13.343	1041.182	795.638
57.374	13.479	1040.267	795.521
58.388	13.475	1039.434	794.796
59.403	13.400	1038.869	793.934
60.417	13.378	1038.139	793.202
61.432	13.378	1037.175	792.394
62.447	13.420	1036.833	792.266
63.461	13.250	1035.950	790.708
64.476	13.323	1034.607	789.960
65.490	13.284	1034.080	789.303
66.505	13.475	1033.177	789.454
67.520	13.361	1032.442	788.278
68.534	13.337	1031.406	787.305
69.549	13.417	1030.624	787.018
70.563	13.463	1030.348	786.956
71.578	13.309	1029.386	785.421
72.593	13.447	1028.319	785.191
73.607	13.308	1027.628	783.934
74.622	13.280	1026.966	783.228
75.636	13.319	1025.234	782.022
76.651	13.398	1024.696	781.915
77.666	13.219	1024.258	780.668
78.680	13.366	1023.219	780.500
79.695	13.397	1022.626	780.125
80.709	13.424	1021.902	779.630
81.724	13.451	1021.030	779.024
82.739	13.445	1020.399	778.442
83.753	13.493	1020.004	778.299
84.768	13.606	1019.082	778.060
85.782	13.511	1018.412	777.034
86.797	13.626	1017.549	776.843
87.812	13.506	1016.748	775.599
88.826	13.455	1015.989	774.715
89.841	13.592	1014.861	774.427
90.855	13.631	1014.230	774.057
91.870	13.492	1013.743	772.971
92.884	13.501	1012.761	772.194
93.899	13.649	1012.159	772.357
94.914	13.631	1011.323	771.568
95.928	13.630	1010.604	770.943
96.943	13.723	1009.624	770.564
97.957	13.586	1009.033	769.406
98.972	13.689	1008.221	769.198
99.987	13.529	1007.346	767.719
101.001	13.622	1006.775	767.647
102.016	13.507	1006.018	766.468
103.030	13.680	1004.711	766.204
104.045	13.594	1003.838	765.075
105.060	13.576	1002.733	764.082
106.074	13.552	1001.723	763.135
107.089	13.668	1000.893	762.967
108.103	13.458	1000.181	761.394
109.118	13.521	999.197	760.864
110.133	13.446	998.442	759.881
111.147	13.461	997.323	759.027
112.162	13.459	996.796	758.554
113.176	13.533	995.743	758.021
114.191	13.590	994.929	757.596
115.206	13.577	994.162	756.883
116.220	13.504	993.514	755.991
117.235	13.470	992.557	755.041
118.249	13.509	991.772	754.555
119.264	13.433	990.596	753.248
120.279	13.471	989.745	752.706
121.293	13.393	989.417	752.035
122.308	13.443	988.617	751.589
123.322	13.475	987.719	750.986
124.337	13.505	986.367	750.026
125.352	13.472	985.538	749.183
126.366	13.562	984.246	748.537
127.381	13.451	983.609	747.488
128.395	13.435	982.589	746.576
129.410	13.449	981.538	745.771
130.424	13.525	980.258	745.074
131.439	13.468	979.417	744.115
132.454	13.543	978.925	744.010
133.468	13.648	977.950	743.676
134.483	13.517	977.334	742.556
135.497	13.624	976.503	742.335
136.512	13.600	975.762	741.602
137.527	13.620	974.826	740.913
138.541	13.502	974.694	740.218
139.556	13.570	973.428	739.496
140.570	13.478	973.026	738.716
141.585	13.695	971.466	738.430
142.600	13.573	971.204	737.625
143.614	13.615	970.238	737.011
144.629	13.585	969.792	736.474
145.643	13.645	968.907	736.003
146.658	13.662	967.948	735.287
147.673	13.693	967.054	734.678
148.687	13.670	965.874	733.615
149.702	13.819	964.577	733.221
150.716	13.626	964.148	731.982
151.731	13.466	963.519	730.731
152.746	13.682	962.611	730.933
153.760	13.638	961.512	729.836
154.775	13.566	960.783	728.903
155.789	13.664	960.161	728.798
156.804	13.685	959.514	728.336
157.819	13.680	958.740	727.661
158.833	13.699	958.346	727.382
159.848	13.682	957.919	726.918
160.862	13.821	956.785	726.602
161.877	13.758	955.624	725.381
162.892	13.629	955.645	724.766
163.906	13.794	954.271	724.382
164.921	13.727	953.291	723.280
165.935	13.709	952.176	722.294
166.950	13.686	951.364	721.514
167.964	13.755	950.485	721.081
168.979	13.676	949.721	720.096
169.994	13.814	948.548	719.742
171.008	13.631	948.002	718.472
172.023	13.715	947.350	718.275
173.037	13.848	945.974	717.743
174.052	13.861	945.507	717.384
175.067	14.014	944.748	717.403
176.081	13.791	944.310	716.046
177.096	13.921	942.916	715.485
178.110	13.824	942.537	714.716
179.125	13.737	941.891	713.790
180.140	13.834	941.035	713.495
181.154	13.831	940.353	712.902
182.169	13.879	939.723	712.567
183.183	13.844	939.088	711.873
184.198	13.933	938.496	711.742
185.213	13.956	937.849	711.286
186.227	13.922	937.521	710.831
187.242	13.889	936.765	710.053
188.256	14.022	935.815	709.839
189.271	14.092	935.239	709.635
190.286	14.088	934.384	708.907
191.300	13.973	933.645	707.793
192.315	13.785	933.224	706.611
193.329	13.894	932.425	706.411
194.344	13.916	931.484	705.726
195.359	14.051	930.720	705.660
196.373	14.003	930.537	705.254
197.388	14.019	929.730	704.649
198.402	14.150	929.337	704.842
199.417	14.190	928.815	704.553
200.432	14.215	928.143	704.089
201.446	14.259	928.053	704.144
202.461	14.073	927.601	702.951
203.475	14.205	927.130	703.088
204.490	14.270	926.554	702.863
205.504	14.208	925.470	701.718
206.519	14.141	924.956	700.987
207.534	14.284	924.077	700.858
208.548	14.247	922.775	699.654
209.563	14.253	922.294	699.254
210.577	14.243	922.082	698.987
211.592	14.252	921.091	698.211
212.607	14.366	920.291	698.024
213.621	14.412	920.188	698.073
214.636	14.435	919.187	697.348
215.650	14.383	918.290	696.391
216.665	14.515	917.913	696.593
217.680	14.475	917.672	696.185
218.694	14.590	916.704	695.866
219.709	14.519	916.091	695.043
220.723	14.461	915.829	694.543
221.738	14.582	914.810	694.210
222.753	14.569	914.241	693.664
223.767	14.543	913.484	692.921
224.782	14.529	912.926	692.375
225.796	14.426	912.121	691.277
226.811	14.561	911.389	691.222
227.826	14.551	910.772	690.652
228.840	14.650	909.814	690.271
229.855	14.535	909.239	689.302
230.869	14.532	908.662	688.788
231.884	14.634	908.165	688.773
232.899	14.610	907.594	688.180
233.913	14.553	906.858	687.329
234.928	14.633	905.830	686.816
235.942	14.667	904.773	686.094
236.957	14.534	904.547	685.315
237.972	14.646	903.734	685.096
238.986	14.633	902.995	684.424
240.001	14.625	902.836	684.209
241.015	14.530	902.013	683.137
242.030	14.697	901.453	683.335
243.045	14.672	900.628	682.547
244.059	14.648	900.358	682.185
245.074	14.710	899.346	681.611
246.088	14.803	898.334	681.160
247.103	14.780	898.161	680.878
248.117	14.865	897.444	680.620
249.132	14.806	897.229	680.155
250.147	15.058	896.091	680.258
251.161	14.943	895.747	679.468
252.176	15.002	894.794	678.925
253.190	14.891	894.606	678.273
254.205	15.078	893.801	678.361
255.220	15.009	893.248	677.601
256.234	15.127	892.362	677.346
257.249	15.107	891.818	676.792
258.263	15.221	891.551	676.990
259.278	15.131	890.967	676.123
260.293	15.203	890.436	675.951
261.307	15.199	889.634	675.265
262.322	15.221	888.876	674.722
263.336	15.274	888.782	674.800
264.351	15.248	887.737	673.845
265.366	15.430	887.161	674.078
266.380	15.270	886.786	673.094
267.395	15.256	886.511	672.768
268.409	15.123	885.709	671.564
269.424	15.342	884.569	671.517
270.439	15.314	883.982	670.900
271.453	15.317	883.248	670.297
272.468	15.311	882.355	669.538
273.482	15.198	882.049	668.795
274.497	15.227	881.541	668.465
275.512	15.329	880.739	668.206
276.526	15.324	879.779	667.395
277.541	15.430	879.269	667.373
278.555	15.497	878.642	667.103
279.570	15.489	877.850	666.412
280.585	15.399	877.861	666.005
281.599	15.362	877.125	665.238
282.614	15.539	876.873	665.691
283.628	15.644	875.943	665.341
284.643	15.516	875.507	664.446
285.657	15.460	875.031	663.804
286.672	15.472	874.274	663.217
287.687	15.436	873.664	662.555
288.701	15.597	872.812	662.486
289.716	15.632	872.528	662.350
290.730	15.682	871.947	662.048
291.745	15.579	871.334	661.116
292.760	15.604	870.448	660.483
293.774	15.680	870.161	660.507
294.789	15.724	869.308	659.974
295.803	15.781	868.616	659.614
296.818	15.650	868.087	658.641
297.833	15.756	867.393	658.472
298.847	15.676	866.529	657.442
299.862	15.834	865.996	657.599
300.876	15.761	864.999	656.499
301.891	15.859	864.375	656.347
302.906	15.832	864.002	655.902
303.920	15.930	863.243	655.648
304.935	15.842	862.617	654.775
305.949	15.925	862.367	654.850
306.964	15.965	861.635	654.389
307.979	15.878	860.839	653.388
308.993	15.928	860.518	653.282
310.008	16.025	859.786	653.044
311.022	15.898	859.403	652.203
312.037	16.028	858.736	652.144
313.052	15.991	858.216	651.549
314.066	15.877	857.817	650.748
315.081	16.022	856.988	650.619
316.095	15.979	856.544	650.061
317.110	15.968	856.274	649.753
318.125	15.943	855.921	649.333
319.139	15.941	855.158	648.688
320.154	16.165	854.209	648.773
321.168	16.077	854.185	648.359
322.183	16.102	853.454	647.845
323.197	16.063	852.951	647.253
324.212	16.146	852.154	646.911
325.227	16.103	851.931	646.521
326.241	16.157	851.339	646.220
327.256	16.163	850.788	645.768
328.270	16.105	850.217	645.053
329.285	16.095	849.890	644.713
330.300	16.045	849.186	643.928
331.314	16.155	848.425	643.715
332.329	16.200	847.751	643.318
333.343	16.326	847.013	643.181
334.358	16.128	846.550	642.019
335.373	16.166	846.399	641.993
336.387	16.340	845.575	641.971
337.402	16.353	844.914	641.464
338.416	16.404	844.219	641.072
339.431	16.319	843.961	640.497
340.446	16.434	843.021	640.163
341.460	16.492	842.378	639.838
342.475	16.458	842.521	639.760
343.489	16.403	841.847	638.984
344.504	16.562	840.980	638.871
345.519	16.481	840.565	638.191
346.533	16.551	840.027	637.992
347.548	16.473	839.565	637.289
348.562	16.483	839.114	636.928
349.577	16.507	838.480	636.483
350.592	16.471	838.064	635.975
351.606	16.405	837.578	635.300
352.621	16.562	836.792	635.238
353.635	16.509	836.285	634.599
354.650	16.600	835.863	634.563
355.665	16.426	835.945	633.915
356.679	16.565	835.179	633.802
357.694	16.698	834.679	633.861
358.708	16.734	833.884	633.339
359.723	16.702	833.120	632.582
360.738	16.711	832.815	632.326
361.752	16.607	832.854	631.914
362.767	16.554	832.266	631.212
363.781	16.494	832.151	630.845
364.796	16.782	830.952	630.954
365.810	16.826	830.610	630.802
366.825	16.830	830.404	630.605
367.840	16.932	830.019	630.636
368.854	16.778	829.357	629.507
369.869	16.901	828.819	629.498
370.883	16.824	828.689	629.057
371.898	16.897	827.689	628.515
372.913	16.971	827.062	628.255
373.927	16.862	826.830	627.620
374.942	16.882	825.957	626.975
375.956	16.864	825.436	626.460
376.971	17.012	824.627	626.336
377.986	17.016	824.639	626.304
379.000	16.944	824.122	625.591
380.015	17.039	823.381	625.323
381.029	17.014	822.964	624.858
382.044	17.119	822.310	624.693
383.059	17.027	821.644	623.792
384.073	17.049	820.959	623.301
385.088	17.100	820.687	623.226
386.102	17.067	820.417	622.844
387.117	17.213	819.346	622.510
388.132	17.011	819.009	621.459
389.146	17.143	818.735	621.680
390.161	17.184	818.041	621.247
391.175	17.162	818.153	621.198
392.190	17.236	817.570	620.971
393.205	17.180	817.407	620.588
394.219	17.336	816.373	620.315
395.234	17.253	815.905	619.602
396.248	17.165	815.597	618.995
397.263	17.315	814.800	618.882
398.278	17.076	814.730	617.901
399.292	17.125	814.211	617.632
400.307	17.058	814.016	617.187
401.321	17.258	813.518	617.481
402.336	17.274	812.791	616.933
403.350	17.209	812.665	616.544
404.365	17.335	811.977	616.426
405.380	17.538	811.061	616.411
406.394	17.268	810.988	615.324
407.409	17.524	810.616	615.913
408.423	17.335	810.450	615.049
409.438	17.595	809.692	615.357
410.453	17.397	809.465	614.415
411.467	17.429	808.981	614.111
412.482	17.544	808.305	613.957
413.496	17.536	807.973	613.622
414.511	17.629	807.510	613.553
415.526	17.589	807.398	613.268
416.540	17.657	806.473	612.756
417.555	17.647	806.327	612.554
418.569	17.789	805.489	612.373
419.584	17.664	805.131	611.598
420.599	17.533	804.895	610.894
421.613	105.062	1284.138	1446.694
422.628	90.436	1353.946	1446.789
