DTS Sentinel unit serial number:	SN413079Multiplexer serial number:	ORYXHardware model number:	OX4-SRSoftware version number:	ORYX F/W v4.00 Oryx Data Collector v3.7.2.0data status	okinstallation	princeton_trtdifferential loss correction	single-endedforward channel	channel 3reverse channel	N/Adate	2019/09/19time	11:36:35forward acquisition time	60.00reverse acquisition time	0.00gamma	496.2192k internal	0.2342k external	0.2342temperature offset calibration	0.9988default loss term (dB/km)	0.3790temperature slope calibration	1.0000multiplexer offset coefficient	1.0000multiplexer slope coefficient	1.0000fibre end	0.00T internal ref (°C)	25.52T ext. ref 1 (°C)	0.80T ext. ref 2 (°C)	21.31length (m)	temperature (°C)	Stokes	anti-Stokes-747.200	-75.802	-0.269	0.096
-746.185	-200.000	0.051	0.273
-745.171	-0.094	-0.146	-0.104
-744.156	-54.202	-0.396	0.180
-743.142	-200.000	-0.002	-0.151
-742.127	-114.118	-0.323	0.063
-741.112	-189.915	0.224	0.003
-740.098	-200.000	0.010	0.302
-739.083	32.714	0.137	0.119
-738.069	35.126	-0.086	-0.076
-737.054	-77.932	0.094	0.032
-736.039	214.905	0.115	0.182
-735.025	103.054	0.199	-0.234
-734.010	794.023	0.027	-0.074
-732.996	-200.000	0.094	-0.699
-731.981	-83.469	-0.248	-0.079
-730.966	86.161	-0.345	0.381
-729.952	311.786	-0.168	-0.315
-728.937	-15.454	-0.152	-0.097
-727.923	-48.715	0.239	-0.115
-726.908	90.431	-0.180	-0.201
-725.894	-124.517	-0.308	0.048
-724.879	-71.810	0.256	0.096
-723.864	-144.471	-0.436	0.040
-722.850	-70.660	0.394	-0.149
-721.835	12.630	0.053	0.041
-720.821	-200.000	-0.049	-0.311
-719.806	32.138	0.158	0.137
-718.791	183.734	-0.128	-0.189
-717.777	-45.727	0.176	0.087
-716.762	-200.000	0.003	-0.027
-715.748	800.000	-0.069	-0.293
-714.733	-18.089	0.261	-0.164
-713.718	-58.210	0.056	-0.025
-712.704	800.000	0.056	-0.174
-711.689	44.091	-0.293	-0.269
-710.675	-72.946	0.141	0.052
-709.660	-200.000	0.025	0.268
-708.645	142.375	0.053	-0.071
-707.631	-43.714	0.112	-0.057
-706.616	800.000	0.039	-0.164
-705.602	46.856	-0.152	0.141
-704.587	80.096	-0.025	-0.027
-703.572	-47.698	0.102	0.049
-702.558	199.262	0.131	-0.201
-701.543	-176.574	0.181	-0.005
-700.529	-200.000	0.025	-0.483
-699.514	31.263	-0.062	-0.053
-698.499	7.040	0.289	-0.215
-697.485	41.341	-0.062	-0.056
-696.470	163.738	0.047	0.067
-695.456	-200.000	-0.023	0.140
-694.441	151.933	-0.067	0.091
-693.426	34.557	-0.169	-0.147
-692.412	10.506	0.088	0.067
-691.397	-100.374	0.138	-0.034
-690.383	-77.581	-0.058	0.020
-689.368	7.275	-0.189	-0.141
-688.354	-200.000	-0.019	0.125
-687.339	-200.000	0.015	0.212
-686.324	800.000	0.040	-0.130
-685.310	383.547	0.136	0.279
-684.295	-37.714	0.143	0.076
-683.281	-121.513	0.083	0.014
-682.266	193.853	-0.251	0.380
-681.251	145.438	-0.039	0.052
-680.237	-81.729	-0.134	-0.044
-679.222	38.471	-0.172	0.154
-678.208	-200.000	-0.129	-0.000
-677.193	191.077	0.201	0.302
-676.178	-200.000	0.015	0.165
-675.164	277.894	0.025	-0.045
-674.149	385.160	-0.160	-0.330
-673.135	800.000	-0.027	0.116
-672.120	54.071	-0.079	0.076
-671.105	-126.231	-0.099	0.015
-670.091	154.319	0.137	-0.187
-669.076	-128.389	-0.149	-0.021
-668.062	-124.497	0.116	0.018
-667.047	-200.000	0.038	-0.208
-666.032	40.364	0.157	-0.141
-665.018	-200.000	-0.015	-0.124
-664.003	62.353	0.272	-0.272
-662.989	-171.948	0.052	-0.002
-661.974	-24.740	-0.122	-0.072
-660.959	-139.100	-0.334	0.036
-659.945	199.594	-0.134	-0.205
-658.930	20.227	-0.158	-0.128
-657.916	-136.645	0.105	0.012
-656.901	-131.950	-0.301	0.039
-655.886	-165.013	-0.113	-0.005
-654.872	433.108	-0.104	-0.226
-653.857	137.651	0.313	-0.409
-652.843	-200.000	0.016	-0.082
-651.828	-110.310	0.063	-0.013
-650.814	-17.855	0.178	0.111
-649.799	45.149	0.152	0.140
-648.784	12.956	-0.107	-0.082
-647.770	-200.000	-0.002	-0.111
-646.755	-200.000	0.022	-0.147
-645.741	-140.276	0.162	0.017
-644.726	-98.558	0.178	0.045
-643.711	79.847	-0.136	-0.145
-642.697	800.000	0.154	0.500
-641.682	26.421	-0.098	-0.082
-640.668	800.000	-0.051	-0.184
-639.653	167.097	-0.192	-0.272
-638.638	-71.522	0.118	0.044
-637.624	-200.000	0.011	0.070
-636.609	-29.609	0.256	0.146
-635.595	58.109	-0.241	0.236
-634.580	800.000	0.080	0.326
-633.565	-69.771	0.307	-0.117
-632.551	-200.000	0.014	-0.076
-631.536	569.263	0.026	0.063
-630.522	186.633	-0.155	-0.230
-629.507	-63.777	0.067	-0.028
-628.492	507.858	-0.073	-0.169
-627.478	-200.000	-0.058	0.333
-626.463	-45.358	-0.061	0.030
-625.449	800.000	0.078	-0.334
-624.434	193.742	-0.336	-0.507
-623.419	166.039	0.229	-0.323
-622.405	135.458	0.093	-0.120
-621.390	-34.978	0.173	-0.094
-620.376	-1.230	0.147	0.104
-619.361	599.244	0.091	0.225
-618.346	522.798	0.057	0.134
-617.332	-200.000	0.027	-0.171
-616.317	101.630	0.229	0.266
-615.303	800.000	-0.246	-0.705
-614.288	-105.618	0.166	0.038
-613.273	800.000	0.083	-0.237
-612.259	-107.042	0.454	-0.100
-611.244	800.000	0.054	-0.186
-610.230	-27.458	-0.333	-0.193
-609.215	178.603	0.203	-0.295
-608.201	-35.549	0.026	0.014
-607.186	800.000	-0.018	0.069
-606.171	308.151	0.080	-0.149
-605.157	-200.000	-0.027	0.269
-604.142	-200.000	0.016	0.138
-603.128	-200.000	-0.032	0.155
-602.113	-200.000	-0.006	-0.053
-601.098	-200.000	-0.031	0.258
-600.084	-126.392	-0.244	-0.036
-599.069	-200.000	-0.053	0.244
-598.055	-166.173	0.051	-0.002
-597.040	462.151	0.042	-0.094
-596.025	101.615	-0.103	-0.120
-595.011	25.168	0.275	-0.228
-593.996	-168.093	0.190	0.007
-592.982	146.464	0.230	0.308
-591.967	2.974	-0.182	0.131
-590.952	-1.781	-0.080	0.056
-589.938	228.715	-0.176	-0.286
-588.923	-62.416	0.325	-0.135
-587.909	36.046	0.073	-0.064
-586.894	151.045	0.169	-0.229
-585.879	-41.110	0.182	0.094
-584.865	-126.933	-0.177	0.026
-583.850	-200.000	0.033	-0.208
-582.836	800.000	-0.086	-0.247
-581.821	800.000	0.079	-0.336
-580.806	23.847	0.168	0.138
-579.792	-200.000	0.013	0.269
-578.777	-196.716	-0.223	-0.001
-577.763	-119.075	0.165	0.029
-576.748	-200.000	0.038	-0.179
-575.733	139.005	-0.210	0.275
-574.719	-200.000	-0.017	-0.482
-573.704	44.384	0.169	0.154
-572.690	110.893	-0.070	0.084
-571.675	110.248	-0.160	0.192
-570.661	-128.022	-0.284	0.040
-569.646	-109.176	0.164	-0.035
-568.631	-65.174	-0.179	-0.072
-567.617	241.394	0.181	0.302
-566.602	241.282	-0.140	0.233
-565.588	-29.014	0.133	0.076
-564.573	56.247	0.062	0.060
-563.558	-45.182	-0.123	0.061
-562.544	-34.629	0.291	0.158
-561.529	-83.305	-0.172	0.055
-560.515	-200.000	0.063	-0.367
-559.500	28.626	0.195	0.164
-558.485	87.287	-0.215	0.237
-557.471	-200.000	0.037	-0.208
-556.456	35.395	0.150	-0.131
-555.442	-51.295	-0.295	-0.138
-554.427	17.505	-0.141	-0.111
-553.412	-49.076	0.368	-0.175
-552.398	800.000	0.015	-0.046
-551.383	-35.553	0.367	0.198
-550.369	173.969	-0.077	0.111
-549.354	85.909	0.210	-0.230
-548.339	800.000	0.107	0.375
-547.325	-60.382	0.228	-0.096
-546.310	60.817	-0.124	0.122
-545.296	-44.892	0.410	0.203
-544.281	-45.958	-0.262	-0.128
-543.266	-30.285	-0.102	-0.057
-542.252	44.843	-0.045	-0.041
-541.237	-108.370	0.283	0.061
-540.223	-150.889	0.262	0.020
-539.208	-28.532	-0.156	-0.089
-538.193	-28.720	0.052	0.030
-537.179	32.578	-0.269	0.231
-536.164	-200.000	-0.026	-0.161
-535.150	12.475	-0.162	-0.124
-534.135	49.088	0.141	0.131
-533.121	91.485	0.351	-0.392
-532.106	2.807	-0.227	-0.164
-531.091	204.538	-0.043	0.067
-530.077	-83.669	0.251	-0.080
-529.062	-200.000	-0.007	-0.090
-528.048	-74.413	-0.321	0.115
-527.033	37.977	0.162	-0.143
-526.018	-157.631	-0.330	-0.020
-525.004	44.983	-0.054	-0.049
-523.989	-200.000	-0.048	-0.231
-522.975	-200.000	-0.045	0.259
-521.960	51.651	-0.083	-0.078
-520.945	23.474	-0.118	-0.097
-519.931	-109.390	0.436	0.092
-518.916	800.000	-0.032	-0.118
-517.902	24.763	-0.093	-0.076
-516.887	-200.000	-0.018	0.347
-515.872	-2.843	-0.277	-0.192
-514.858	-141.900	-0.274	-0.027
-513.843	-200.000	0.012	-0.283
-512.829	-129.222	-0.199	-0.027
-511.814	-104.105	-0.270	-0.062
-510.799	18.717	-0.103	-0.081
-509.785	30.175	-0.137	-0.116
-508.770	-114.365	0.155	-0.030
-507.756	-41.460	0.205	0.105
-506.741	-200.000	-0.081	-0.391
-505.726	299.655	0.166	0.303
-504.712	-63.689	-0.222	0.090
-503.697	-200.000	0.040	0.203
-502.683	-65.537	0.189	-0.075
-501.668	-200.000	-0.017	-0.174
-500.653	-111.286	0.221	0.045
-499.639	-200.000	-0.018	0.418
-498.624	35.790	0.112	-0.097
-497.610	702.793	-0.095	0.247
-496.595	-200.000	0.008	0.206
-495.581	-9.970	-0.105	0.069
-494.566	-101.035	-0.189	0.046
-493.551	563.594	0.085	0.205
-492.537	25.512	-0.280	-0.231
-491.522	-72.066	-0.267	-0.098
-490.508	67.318	0.099	0.100
-489.493	-79.227	-0.030	-0.010
-488.478	439.142	-0.124	-0.269
-487.464	340.306	0.079	-0.153
-486.449	191.196	0.178	0.266
-485.435	-40.859	0.146	0.075
-484.420	-200.000	0.037	-0.329
-483.405	-57.536	-0.150	-0.065
-482.391	-26.372	0.116	-0.068
-481.376	800.000	-0.117	-0.337
-480.362	4.576	-0.023	-0.017
-479.347	267.896	-0.159	0.275
-478.332	-114.334	0.202	-0.039
-477.318	65.028	0.186	0.186
-476.303	-63.169	-0.217	0.089
-475.289	-200.000	-0.017	0.210
-474.274	67.742	0.146	0.148
-473.259	156.715	0.165	-0.226
-472.245	-200.000	-0.017	-0.107
-471.230	250.041	0.163	0.273
-470.216	-93.358	0.376	0.103
-469.201	-173.508	-0.065	0.002
-468.186	-57.054	0.081	-0.035
-467.172	-200.000	0.016	0.163
-466.157	316.431	0.096	0.181
-465.143	800.000	0.070	-0.290
-464.128	245.288	0.110	-0.184
-463.113	241.875	0.103	-0.171
-462.099	-78.120	0.258	-0.088
-461.084	-3.424	-0.076	0.052
-460.070	-200.000	-0.044	-0.233
-459.055	-200.000	0.013	0.176
-458.040	-8.327	0.151	0.101
-457.026	-146.069	0.356	0.031
-456.011	6.378	0.021	0.016
-454.997	-200.000	-0.048	0.421
-453.982	445.745	0.111	0.242
-452.968	-130.977	-0.079	-0.011
-451.953	147.788	0.136	-0.182
-450.938	-148.440	-0.108	-0.009
-449.924	-45.492	0.171	0.084
-448.909	-200.000	0.012	-0.320
-447.895	79.738	-0.068	0.072
-446.880	800.000	0.067	0.228
-445.865	-200.000	-0.027	0.273
-444.851	-84.327	-0.213	-0.067
-443.836	439.926	-0.158	0.341
-442.822	226.445	0.144	0.232
-441.807	58.442	-0.134	0.131
-440.792	-200.000	-0.014	-0.147
-439.778	-137.420	0.113	0.013
-438.763	70.881	-0.165	0.169
-437.749	40.092	0.008	-0.007
-436.734	-200.000	-0.001	-0.023
-435.719	-200.000	-0.036	-0.189
-434.705	-80.287	-0.192	-0.064
-433.690	-78.011	-0.200	0.068
-432.676	-73.829	-0.264	-0.095
-431.661	-116.823	-0.197	-0.036
-430.646	-200.000	-0.023	-0.267
-429.632	-15.573	0.240	0.152
-428.617	159.655	-0.251	0.346
-427.603	-200.000	0.053	0.260
-426.588	-46.077	0.127	-0.062
-425.573	-86.078	-0.262	-0.080
-424.559	231.081	0.123	-0.199
-423.544	341.374	0.046	-0.089
-422.530	698.943	-0.043	-0.112
-421.515	-86.558	-0.204	-0.062
-420.500	63.557	0.067	-0.066
-419.486	77.747	0.341	-0.359
-418.471	0.315	-0.125	0.088
-417.457	-200.000	-0.024	0.185
-416.442	312.770	-0.175	0.326
-415.428	-200.000	-0.062	-0.548
-414.413	172.537	-0.302	-0.430
-413.398	286.080	-0.075	0.133
-412.384	-37.783	-0.142	0.075
-411.369	-62.717	-0.325	0.133
-410.355	141.382	-0.106	0.139
-409.340	755.873	-0.073	-0.195
-408.325	494.093	-0.055	-0.125
-407.311	79.545	-0.166	0.176
-406.296	600.348	0.081	-0.200
-405.282	343.266	0.036	0.071
-404.267	262.501	-0.107	0.184
-403.252	800.000	-0.030	0.113
-402.238	69.118	-0.056	0.057
-401.223	53.805	-0.197	0.187
-400.209	-111.508	0.251	0.050
-399.194	303.674	-0.233	-0.427
-398.179	177.745	-0.112	0.162
-397.165	-200.000	-0.033	0.357
-396.150	-38.933	-0.184	-0.096
-395.136	170.081	0.214	0.303
-394.121	338.439	-0.091	0.175
-393.106	-132.684	-0.261	-0.033
-392.092	-25.753	0.312	-0.182
-391.077	-200.000	-0.056	0.243
-390.063	-200.000	-0.014	0.322
-389.048	352.875	0.182	0.357
-388.033	-67.058	-0.070	0.027
-387.019	-76.853	0.186	0.064
-386.004	800.000	0.027	0.085
-384.990	-17.905	-0.027	-0.017
-383.975	-200.000	0.048	0.367
-382.960	78.686	-0.018	-0.019
-381.946	305.310	0.093	0.171
-380.931	-91.386	0.099	0.028
-379.917	46.522	0.233	-0.214
-378.902	-26.863	-0.206	0.119
-377.888	-83.282	-0.195	-0.062
-376.873	-20.771	0.400	0.242
-375.858	355.171	0.076	-0.149
-374.844	800.000	0.028	0.099
-373.829	85.160	-0.080	-0.087
-372.815	-200.000	-0.043	-0.385
-371.800	129.163	0.233	0.294
-370.785	-146.841	-0.151	-0.013
-369.771	77.820	0.056	-0.059
-368.756	39.862	0.273	0.242
-367.742	-142.174	-0.242	-0.024
-366.727	-126.490	0.090	0.013
-365.712	-145.827	0.243	0.021
-364.698	165.203	-0.193	0.270
-363.683	717.395	0.101	-0.266
-362.669	-57.417	-0.194	-0.084
-361.654	-200.000	0.044	-0.210
-360.639	178.043	-0.083	-0.120
-359.625	-200.000	-0.029	0.372
-358.610	-200.000	0.004	-0.230
-357.596	800.000	-0.074	-0.206
-356.581	796.450	-0.010	-0.027
-355.566	-169.513	0.140	-0.005
-354.552	800.000	-0.034	-0.100
-353.537	207.897	-0.184	-0.284
-352.523	-65.213	-0.110	0.044
-351.508	70.796	0.241	0.247
-350.493	625.183	0.098	0.243
-349.479	-200.000	0.080	0.379
-348.464	-200.000	-0.004	-0.361
-347.450	-133.292	-0.260	0.032
-346.435	-200.000	0.012	-0.174
-345.420	800.000	0.039	0.117
-344.406	-200.000	0.020	0.210
-343.391	98.071	0.238	0.270
-342.377	-25.187	0.194	0.114
-341.362	-200.000	0.041	-0.225
-340.348	-200.000	0.028	-0.177
-339.333	-103.906	0.215	-0.050
-338.318	93.859	-0.144	0.161
-337.304	-182.139	-0.081	0.001
-336.289	-106.763	-0.197	-0.043
-335.275	331.896	-0.079	0.150
-334.260	-96.049	-0.118	0.031
-333.245	225.273	-0.196	-0.314
-332.231	71.388	-0.051	-0.052
-331.216	334.912	0.284	0.542
-330.202	477.009	-0.088	-0.197
-329.187	574.083	-0.131	0.315
-328.172	-200.000	-0.021	0.162
-327.158	70.625	0.209	-0.213
-326.143	-124.191	-0.304	-0.047
-325.129	14.795	0.245	0.188
-324.114	-105.010	0.066	0.015
-323.099	-105.953	-0.091	0.020
-322.085	-22.389	0.300	-0.179
-321.070	-4.792	-0.289	0.197
-320.056	-114.437	-0.175	-0.033
-319.041	114.405	0.233	-0.280
-318.026	336.051	0.048	-0.092
-317.012	-73.998	-0.175	-0.062
-315.997	5.830	0.065	-0.048
-314.983	-153.201	-0.226	0.016
-313.968	-89.474	-0.178	-0.052
-312.953	-200.000	-0.024	-0.173
-311.939	800.000	-0.087	-0.334
-310.924	16.629	0.337	-0.262
-309.910	-200.000	-0.035	-0.177
-308.895	800.000	0.096	-0.407
-307.880	142.182	0.102	-0.133
-306.866	-105.488	-0.316	-0.071
-305.851	353.641	0.088	-0.173
-304.837	-101.076	-0.133	-0.032
-303.822	-24.773	0.176	0.103
-302.807	0.658	0.252	0.178
-301.793	88.645	0.266	0.291
-300.778	-200.000	0.026	-0.164
-299.764	-200.000	0.019	0.112
-298.749	47.049	-0.148	-0.136
-297.735	260.761	0.126	0.215
-296.720	-200.000	-0.041	0.380
-295.705	800.000	-0.077	0.326
-294.691	-144.483	0.473	0.043
-293.676	323.755	0.079	-0.148
-292.662	591.528	0.067	0.163
-291.647	-188.447	-0.101	-0.001
-290.632	31.376	-0.112	0.095
-289.618	-130.817	-0.357	0.047
-288.603	128.379	0.137	0.172
-287.589	-94.165	-0.405	0.109
-286.574	-36.184	-0.186	0.099
-285.559	-200.000	-0.022	-0.192
-284.545	109.738	0.163	-0.192
-283.530	-10.274	-0.096	-0.062
-282.516	-16.757	-0.428	-0.266
-281.501	800.000	0.007	-0.023
-280.486	-18.176	-0.094	0.058
-279.472	572.834	-0.162	-0.389
-278.457	-69.957	0.222	0.083
-277.443	-96.795	-0.161	-0.042
-276.428	120.230	-0.169	0.206
-275.413	345.890	0.066	0.127
-274.399	-187.313	0.155	-0.002
-273.384	-114.078	-0.305	0.058
-272.370	461.823	-0.155	-0.339
-271.355	-58.982	-0.165	0.070
-270.340	14.131	0.238	0.182
-269.326	-16.031	0.023	-0.014
-268.311	497.922	0.017	0.038
-267.297	65.871	0.196	0.195
-266.282	401.867	-0.066	0.136
-265.267	800.000	-0.068	0.283
-264.253	-71.855	0.088	-0.032
-263.238	-0.682	0.053	0.037
-262.224	-136.852	-0.110	0.012
-261.209	272.655	-0.058	0.102
-260.195	539.256	-0.133	-0.311
-259.180	-90.438	-0.136	-0.039
-258.165	156.891	0.059	-0.081
-257.151	-35.566	-0.236	-0.126
-256.136	-19.770	-0.267	-0.162
-255.122	106.346	-0.149	-0.174
-254.107	-46.711	0.108	-0.052
-253.092	135.656	-0.126	-0.161
-252.078	450.226	-0.085	-0.185
-251.063	-64.737	-0.113	0.045
-250.049	-200.000	0.272	0.001
-249.034	106.484	0.071	0.083
-248.019	-150.121	0.194	-0.015
-247.005	-98.240	0.211	-0.053
-245.990	25.469	-0.109	-0.089
-244.976	-110.937	0.324	0.065
-243.961	-141.496	0.382	0.038
-242.946	-32.561	0.126	0.069
-241.932	-85.898	-0.191	0.058
-240.917	800.000	-0.061	0.201
-239.903	-10.258	-0.239	0.156
-238.888	-200.000	-0.004	-0.024
-237.873	40.318	0.272	0.240
-236.859	141.809	0.142	-0.185
-235.844	-142.248	0.151	-0.015
-234.830	-200.000	-0.050	0.282
-233.815	-200.000	-0.074	0.352
-232.800	-200.000	0.009	-0.090
-231.786	4.834	-0.226	-0.163
-230.771	-188.450	-0.104	0.001
-229.757	119.730	-0.145	0.177
-228.742	96.654	0.200	-0.225
-227.727	-200.000	-0.025	0.109
-226.713	33.179	-0.216	-0.184
-225.698	-200.000	0.004	-0.038
-224.684	-142.709	-0.134	0.013
-223.669	-30.549	-0.048	0.027
-222.655	133.647	-0.057	0.073
-221.640	-72.989	-0.149	-0.054
-220.625	17.416	-0.159	0.124
-219.611	246.939	0.096	-0.159
-218.596	144.619	-0.242	0.317
-217.582	27.007	0.228	-0.188
-216.567	133.397	0.074	0.094
-215.552	-40.819	0.231	0.117
-214.538	157.559	-0.127	0.172
-213.523	189.998	-0.176	0.259
-212.509	210.039	0.015	-0.024
-211.494	-200.000	-0.004	-0.250
-210.479	-61.688	0.072	0.030
-209.465	-72.613	-0.322	-0.117
-208.450	17.421	0.211	0.164
-207.436	-200.000	-0.002	0.224
-206.421	-163.575	-0.330	-0.015
-205.406	800.000	-0.056	0.196
-204.392	182.861	0.092	-0.133
-203.377	-111.184	-0.170	0.034
-202.363	-75.847	0.317	0.110
-201.348	-24.900	0.105	0.061
-200.333	-99.277	-0.142	0.035
-199.319	221.585	0.294	-0.464
-198.304	-11.955	-0.011	0.007
-197.290	415.896	0.016	0.034
-196.275	800.000	0.063	-0.181
-195.260	-68.625	0.327	-0.124
-194.246	800.000	0.034	0.111
-193.231	113.148	-0.349	-0.415
-192.217	-200.000	0.006	0.241
-191.202	142.863	-0.094	0.123
-190.187	119.704	-0.224	-0.272
-189.173	-120.149	0.179	-0.030
-188.158	-197.978	0.091	0.001
-187.144	800.000	-0.084	0.309
-186.129	-59.544	-0.222	0.094
-185.114	-200.000	-0.019	0.097
-184.100	474.721	-0.040	-0.087
-183.085	-31.209	-0.040	0.022
-182.071	-4.978	-0.150	-0.101
-181.056	-55.541	0.101	0.044
-180.042	601.752	-0.066	-0.161
-179.027	89.923	-0.210	-0.230
-178.012	-122.662	0.311	0.049
-176.998	800.000	0.022	-0.085
-175.983	-60.280	0.146	-0.061
-174.969	-60.679	-0.057	0.024
-173.954	-137.091	0.262	0.029
-172.939	-31.006	0.224	0.124
-171.925	-13.904	-0.085	-0.054
-170.910	-127.877	0.214	-0.030
-169.896	359.846	-0.035	0.068
-168.881	-200.000	0.172	-0.000
-167.866	-24.346	-0.244	0.142
-166.852	396.309	0.068	0.140
-165.837	800.000	0.107	-0.335
-164.823	147.828	0.186	-0.246
-163.808	800.000	-0.084	-0.258
-162.793	56.938	-0.282	0.269
-161.779	373.958	0.098	0.195
-160.764	64.103	-0.171	-0.168
-159.750	395.018	0.097	-0.198
-158.735	-109.120	0.280	-0.058
-157.720	-113.764	0.046	-0.009
-156.706	-56.254	0.007	0.003
-155.691	-0.197	-0.179	-0.125
-154.677	84.737	-0.243	0.260
-153.662	-200.000	-0.008	0.061
-152.647	-59.248	0.091	0.038
-151.633	-200.000	-0.020	-0.199
-150.618	-87.134	0.235	0.070
-149.604	-56.364	-0.353	-0.154
-148.589	161.397	-0.051	0.069
-147.574	-73.713	-0.101	-0.036
-146.560	371.069	-0.047	0.094
-145.545	51.564	0.204	0.190
-144.531	800.000	-0.095	0.268
-143.516	-198.935	0.150	-0.001
-142.502	23.419	-0.089	0.071
-141.487	-200.000	-0.005	0.281
-140.472	-161.264	-0.283	0.014
-139.458	-200.000	0.040	-0.382
-138.443	204.483	-0.092	-0.140
-137.429	646.337	0.071	-0.177
-136.414	82.097	0.159	0.169
-135.399	-200.000	-0.067	-0.376
-134.385	-131.992	-0.214	-0.027
-133.370	404.012	-0.033	-0.069
-132.356	-105.208	-0.215	0.048
-131.341	-73.319	-0.176	-0.063
-130.326	-200.000	-0.002	-0.038
-129.312	-200.000	-0.026	-0.120
-128.297	-200.000	0.037	-0.404
-127.283	-200.000	0.030	0.210
-126.268	533.015	0.108	-0.250
-125.253	-98.005	0.290	-0.073
-124.239	144.112	-0.110	-0.143
-123.224	-200.000	-0.010	-0.137
-122.210	246.936	0.043	0.071
-121.195	-69.175	0.567	0.213
-120.180	800.000	-0.092	-0.312
-119.166	-107.132	-0.346	0.075
-118.151	-72.238	-0.114	-0.041
-117.137	10.528	0.352	-0.263
-116.122	18.496	-0.073	-0.057
-115.107	-120.927	0.560	0.092
-114.093	395.345	-0.165	-0.336
-113.078	-200.000	0.024	-0.318
-112.064	800.000	0.085	-0.251
-111.049	131.249	-0.129	0.162
-110.034	111.476	0.088	0.104
-109.020	-89.958	0.107	-0.031
-108.005	191.331	0.101	0.149
-106.991	800.000	0.109	-0.413
-105.976	42.240	0.069	-0.061
-104.962	78.316	0.113	0.118
-103.947	126.140	0.051	-0.063
-102.932	800.000	-0.045	0.169
-101.918	65.556	0.195	-0.193
-100.903	-4.958	-0.289	0.195
-99.889	800.000	-0.073	-0.286
-98.874	61.314	0.127	0.123
-97.859	29.041	0.105	0.087
-96.845	349.453	0.162	0.312
-95.830	-97.349	0.127	0.032
-94.816	160.000	0.078	-0.107
-93.801	-200.000	0.024	0.207
-92.786	-200.000	-0.014	0.105
-91.772	66.929	-0.107	0.106
-90.757	212.801	0.019	0.029
-89.743	6.328	0.193	-0.140
-88.728	230.872	0.206	-0.329
-87.713	280.963	0.092	0.160
-86.699	540.981	-0.123	0.285
-85.684	-165.251	-0.372	-0.016
-84.670	-200.000	0.001	-0.017
-83.655	-200.000	-0.028	0.348
-82.640	251.991	-0.046	0.076
-81.626	-136.135	-0.038	-0.004
-80.611	-13.398	-0.041	-0.026
-79.597	-200.000	0.016	0.158
-78.582	-73.821	-0.210	0.075
-77.567	449.225	-0.035	0.076
-76.553	-51.933	-0.176	-0.080
-75.538	308.581	0.110	0.201
-74.524	-65.077	-0.179	-0.070
-73.509	-59.445	0.145	0.061
-72.494	504.642	0.023	-0.052
-71.480	76.010	-0.161	-0.166
-70.465	516.112	0.110	0.250
-69.451	603.258	0.158	0.384
-68.436	49.329	-0.270	-0.248
-67.422	-52.028	0.306	0.139
-66.407	228.642	0.108	-0.171
-65.392	139.070	0.060	-0.077
-64.378	704.198	0.020	0.051
-63.363	360.866	-0.064	-0.126
-62.349	-134.611	0.364	0.043
-61.334	64.624	-1.062	-1.045
-60.319	84.321	0.865	0.922
-59.305	476.836	-0.489	-1.078
-58.290	226.771	0.875	1.386
-57.276	486.464	0.757	1.684
-56.261	-200.000	118.503	616.099
-55.246	396.432	1566.994	3191.373
-54.232	139.831	2747.368	3530.470
-53.217	96.679	2211.371	2469.857
-52.203	36.251	1723.126	1480.821
-51.188	28.625	1537.094	1268.431
-50.173	26.518	1511.642	1233.041
-49.159	48.513	1575.517	1439.159
-48.144	47.169	1588.729	1441.806
-47.130	28.688	1542.898	1273.457
-46.115	25.767	1527.715	1240.777
-45.100	25.635	1523.735	1236.588
-44.086	25.578	1521.962	1234.708
-43.071	25.536	1520.512	1233.200
-42.057	25.559	1518.257	1231.478
-41.042	25.559	1516.999	1230.410
-40.027	25.538	1515.428	1228.944
-39.013	25.462	1514.139	1227.325
-37.998	25.562	1512.697	1226.796
-36.984	25.529	1512.011	1225.965
-35.969	25.548	1510.208	1224.579
-34.954	25.442	1509.085	1222.903
-33.940	25.525	1507.861	1222.426
-32.925	25.543	1505.816	1220.840
-31.911	25.576	1505.037	1220.385
-30.896	25.519	1503.729	1218.889
-29.881	25.601	1501.990	1217.988
-28.867	25.550	1500.733	1216.574
-27.852	25.570	1499.635	1215.770
-26.838	25.592	1498.297	1214.788
-25.823	25.635	1496.472	1213.549
-24.809	25.506	1494.857	1211.322
-23.794	25.561	1493.964	1210.920
-22.779	25.464	1492.633	1209.139
-21.765	25.577	1491.151	1208.650
-20.750	25.564	1490.228	1207.769
-19.736	25.605	1488.624	1206.694
-18.721	25.612	1488.242	1206.385
-17.706	25.508	1487.252	1204.840
-16.692	25.376	1486.296	1203.128
-15.677	25.541	1484.839	1203.008
-14.663	25.503	1484.397	1202.350
-13.648	25.494	1483.389	1201.425
-12.633	25.435	1482.882	1200.571
-11.619	25.391	1481.882	1199.419
-10.604	25.444	1480.582	1198.677
-9.590	25.449	1479.800	1198.025
-8.575	25.497	1478.878	1197.549
-7.560	25.606	1477.583	1197.179
-6.546	25.482	1476.741	1195.629
-5.531	25.492	1476.045	1195.083
-4.517	25.568	1474.221	1194.062
-3.502	25.455	1474.076	1193.147
-2.487	25.523	1472.969	1192.657
-1.473	25.412	1472.510	1191.499
-0.458	25.599	1470.204	1190.825
0.556	24.636	1461.104	1180.344
1.571	21.794	1436.589	1141.955
2.586	18.570	1373.196	1071.360
3.600	16.906	1288.057	995.089
4.615	15.702	1244.062	954.182
5.629	13.947	1186.702	900.602
6.644	7.151	1103.163	802.771
7.659	1.713	1064.790	748.113
8.673	0.886	1059.905	740.572
9.688	0.790	1056.495	737.653
10.702	0.705	1055.027	736.148
11.717	0.809	1053.134	735.270
12.731	2.946	1054.122	746.285
13.746	9.721	1063.341	785.853
14.761	15.469	1070.476	819.182
15.775	17.202	1072.682	829.265
16.790	17.084	1070.868	827.215
17.804	16.092	1069.158	820.993
18.819	15.198	1067.558	815.339
19.834	14.842	1065.594	812.037
20.848	14.581	1064.701	810.019
21.863	14.355	1063.491	807.930
22.877	13.986	1063.439	806.031
23.892	13.766	1062.680	804.319
24.907	13.617	1061.907	802.942
25.921	13.651	1060.949	802.310
26.936	13.778	1060.063	802.182
27.950	13.748	1059.435	801.491
28.965	13.771	1058.635	800.928
29.980	13.786	1057.970	800.424
30.994	13.830	1056.788	799.671
32.009	13.802	1056.283	799.085
33.023	13.992	1055.420	799.275
34.038	13.928	1054.623	798.290
35.053	13.794	1053.886	797.021
36.067	13.885	1052.545	796.372
37.082	13.905	1051.996	795.980
38.096	13.885	1051.164	795.185
39.111	13.875	1050.088	794.252
40.126	13.758	1049.996	793.553
41.140	13.889	1048.331	792.852
42.155	13.679	1047.379	791.059
43.169	13.760	1046.444	790.669
44.184	13.731	1045.520	789.765
45.199	13.752	1044.508	789.029
46.213	13.695	1043.871	788.206
47.228	13.771	1042.814	787.702
48.242	13.773	1041.668	786.774
49.257	13.756	1040.683	785.881
50.271	13.902	1039.650	785.722
51.286	13.824	1039.061	784.835
52.301	13.825	1038.250	784.159
53.315	13.893	1037.386	783.758
54.330	13.845	1036.725	782.965
55.344	13.816	1035.630	781.932
56.359	13.877	1034.636	781.398
57.374	13.773	1034.104	780.440
58.388	13.752	1033.291	779.659
59.403	13.753	1032.403	778.925
60.417	13.664	1031.899	778.055
61.432	13.688	1031.077	777.479
62.447	13.738	1030.015	776.847
63.461	13.745	1029.460	776.388
64.476	13.740	1028.297	775.422
65.490	13.709	1027.286	774.444
66.505	13.713	1026.491	773.798
67.520	13.734	1026.019	773.469
68.534	13.695	1025.048	772.488
69.549	13.700	1024.320	771.892
70.563	13.745	1023.536	771.446
71.578	13.729	1022.511	770.530
72.593	13.794	1021.856	770.268
73.607	13.658	1021.160	769.045
74.622	13.652	1020.094	768.148
75.636	13.641	1019.428	767.527
76.651	13.675	1017.942	766.498
77.666	13.601	1017.867	766.031
78.680	13.628	1016.772	765.262
79.695	13.650	1016.061	764.763
80.709	13.682	1015.629	764.516
81.724	13.724	1015.219	764.335
82.739	13.695	1013.998	763.216
83.753	13.881	1013.071	763.304
84.768	13.904	1011.963	762.508
85.782	13.810	1011.454	761.626
86.797	13.850	1010.758	761.218
87.812	13.814	1009.838	760.293
88.826	13.779	1009.193	759.579
89.841	13.760	1008.433	758.854
90.855	13.785	1007.323	758.065
91.870	13.873	1006.601	757.855
92.884	13.857	1006.044	757.295
93.899	13.950	1005.014	756.876
94.914	13.800	1004.455	755.705
95.928	14.023	1003.649	756.048
96.943	14.049	1003.242	755.790
97.957	14.081	1001.881	754.847
98.972	13.923	1001.340	753.654
99.987	13.908	1000.787	753.103
101.001	13.939	999.539	752.240
102.016	13.937	999.480	752.116
103.030	13.884	998.453	751.038
104.045	13.952	997.381	750.472
105.060	13.928	996.248	749.446
106.074	13.947	995.080	748.584
107.089	13.892	994.552	747.873
108.103	13.865	993.875	747.177
109.118	13.860	992.707	746.210
110.133	13.783	992.019	745.283
111.147	13.821	991.199	744.771
112.162	13.747	990.452	743.812
113.176	13.948	989.197	743.703
114.191	13.905	988.435	742.872
115.206	13.975	987.342	742.297
116.220	14.047	986.193	741.689
117.235	13.932	985.774	740.796
118.249	13.956	984.839	740.138
119.264	13.713	984.698	738.881
120.279	13.841	983.236	738.287
121.293	13.813	982.863	737.821
122.308	13.900	981.628	737.212
123.322	13.838	980.991	736.395
124.337	13.779	979.935	735.273
125.352	13.891	978.760	734.824
126.366	13.864	977.632	733.795
127.381	13.762	976.428	732.375
128.395	13.922	975.397	732.242
129.410	13.810	974.723	731.179
130.424	13.801	973.636	730.259
131.439	13.966	973.029	730.462
132.454	13.891	971.888	729.213
133.468	13.899	971.551	728.932
134.483	13.883	970.659	728.129
135.497	13.888	969.778	727.422
136.512	13.834	969.095	726.611
137.527	13.857	968.325	726.068
138.541	13.911	967.194	725.391
139.556	13.927	966.322	724.743
140.570	13.828	966.005	724.010
141.585	13.962	965.208	723.934
142.600	13.917	964.524	723.159
143.614	13.932	963.964	722.740
144.629	14.021	963.044	722.373
145.643	14.158	961.666	721.872
146.658	14.050	961.300	721.066
147.673	14.013	960.568	720.294
148.687	14.013	959.691	719.570
149.702	14.087	958.498	718.931
150.716	14.055	957.972	718.336
151.731	14.059	956.852	717.449
152.746	14.070	956.377	717.079
153.760	14.090	955.112	716.152
154.775	14.090	955.100	716.077
155.789	14.039	953.915	714.909
156.804	14.184	952.950	714.743
157.819	14.163	952.192	714.021
158.833	14.154	951.761	713.597
159.848	14.190	951.475	713.472
160.862	14.250	950.518	712.950
161.877	14.269	949.602	712.282
162.892	14.288	948.803	711.700
163.906	14.119	948.190	710.456
164.921	14.136	947.413	709.884
165.935	14.097	946.788	709.185
166.950	14.112	945.382	708.135
167.964	14.130	944.272	707.315
168.979	14.130	943.597	706.748
169.994	14.127	942.372	705.756
171.008	14.324	941.324	705.743
172.023	14.153	940.946	704.673
173.037	14.243	939.824	704.151
174.052	14.271	939.519	703.978
175.067	14.242	938.594	703.100
176.081	14.269	937.486	702.323
177.096	14.256	936.827	701.711
178.110	14.322	936.285	701.523
179.125	14.274	935.359	700.564
180.140	14.182	934.863	699.743
181.154	14.370	933.887	699.740
182.169	14.247	933.437	698.826
183.183	14.428	932.698	698.968
184.198	14.449	931.909	698.403
185.213	14.313	931.411	697.400
186.227	14.313	930.793	696.874
187.242	14.477	930.168	697.034
188.256	14.527	929.093	696.373
189.271	14.553	928.414	695.910
190.286	14.558	928.102	695.637
191.300	14.431	927.220	694.386
192.315	14.248	926.567	693.075
193.329	14.369	925.834	692.965
194.344	14.365	925.625	692.732
195.359	14.479	924.468	692.278
196.373	14.421	924.254	691.814
197.388	14.488	923.426	691.412
198.402	14.543	922.952	691.223
199.417	14.595	922.627	691.136
200.432	14.668	922.001	690.909
201.446	14.711	921.632	690.747
202.461	14.771	921.012	690.471
203.475	14.704	920.727	689.917
204.490	14.642	920.320	689.297
205.504	14.615	919.015	688.147
206.519	14.726	918.421	688.098
207.534	14.602	917.573	686.890
208.548	14.755	916.804	686.886
209.563	14.758	916.152	686.348
210.577	14.761	915.372	685.713
211.592	14.775	914.669	685.185
212.607	14.705	914.670	684.836
213.621	14.891	913.305	684.518
214.636	14.952	912.708	684.259
215.650	14.882	911.874	683.285
216.665	14.839	911.519	682.783
217.680	14.951	911.155	682.910
218.694	14.841	911.052	682.322
219.709	15.006	910.188	682.287
220.723	14.989	909.263	681.462
221.738	14.968	908.865	681.019
222.753	14.803	908.692	680.159
223.767	15.044	907.185	679.949
224.782	15.051	906.197	679.179
225.796	14.946	906.162	678.666
226.811	15.121	905.009	678.452
227.826	15.095	904.401	677.831
228.840	15.067	903.742	677.162
229.855	15.095	903.009	676.667
230.869	15.043	902.647	676.125
231.884	14.934	902.097	675.212
232.899	15.033	901.079	674.790
233.913	14.906	900.413	673.720
234.928	14.984	899.651	673.403
235.942	15.115	898.924	673.327
236.957	14.984	898.423	672.366
237.972	15.091	897.477	672.029
238.986	14.932	897.089	671.041
240.001	15.052	896.544	671.056
241.015	15.102	895.611	670.495
242.030	15.074	894.811	669.727
243.045	15.057	894.235	669.168
244.059	15.176	893.712	669.195
245.074	15.203	892.895	668.631
246.088	15.268	892.407	668.465
247.103	15.173	892.183	667.861
248.117	15.249	891.131	667.317
249.132	15.308	890.700	667.169
250.147	15.240	890.275	666.520
251.161	15.280	889.610	666.121
252.176	15.498	888.376	666.004
253.190	15.559	887.562	665.578
254.205	15.468	887.343	664.994
255.220	15.425	886.948	664.467
256.234	15.605	885.817	664.275
257.249	15.415	885.564	663.274
258.263	15.638	884.801	663.525
259.278	15.527	884.043	662.459
260.293	15.501	883.966	662.243
261.307	15.516	883.010	661.527
262.322	15.619	882.306	661.343
263.336	15.614	882.062	661.085
264.351	15.629	881.220	660.453
265.366	15.727	880.861	660.512
266.380	15.690	879.815	659.524
267.395	15.607	879.507	658.906
268.409	15.868	878.247	658.927
269.424	15.789	877.751	658.190
270.439	15.661	877.525	657.461
271.453	15.707	876.454	656.779
272.468	15.745	875.554	656.195
273.482	15.869	875.105	656.285
274.497	15.738	874.377	655.167
275.512	15.634	874.078	654.482
276.526	15.791	872.938	654.181
277.541	15.726	872.427	653.488
278.555	15.892	871.449	653.343
279.570	15.693	871.155	652.290
280.585	15.779	870.790	652.294
281.599	15.822	870.152	651.925
282.614	15.911	869.064	651.397
283.628	15.916	868.643	651.041
284.643	15.932	868.270	650.765
285.657	16.061	867.442	650.585
286.672	15.956	867.522	650.184
287.687	16.035	866.708	649.821
288.701	16.107	866.064	649.559
289.716	15.886	865.644	648.333
290.730	15.973	864.860	648.022
291.745	16.006	864.192	647.594
292.760	16.074	863.338	647.159
293.774	16.216	862.648	647.128
294.789	16.138	862.728	646.832
295.803	16.120	861.886	646.072
296.818	16.096	861.417	645.574
297.833	15.940	860.778	644.441
298.847	16.159	859.675	644.394
299.862	16.125	859.109	643.782
300.876	16.125	858.576	643.326
301.891	16.302	857.716	643.301
302.906	16.208	857.330	642.594
303.920	16.298	856.210	642.041
304.935	16.200	855.785	641.295
305.949	16.304	855.231	641.216
306.964	16.258	854.664	640.560
307.979	16.287	854.077	640.173
308.993	16.348	853.845	640.173
310.008	16.453	853.148	639.994
311.022	16.439	852.609	639.477
312.037	16.348	852.131	638.720
313.052	16.323	851.604	638.172
314.066	16.224	851.001	637.290
315.081	16.292	850.261	636.938
316.095	16.416	849.997	637.150
317.110	16.412	849.245	636.514
318.125	16.407	848.543	635.915
319.139	16.319	848.370	635.397
320.154	16.477	847.452	635.246
321.168	16.444	846.867	634.629
322.183	16.420	846.610	634.290
323.197	16.422	846.206	633.939
324.212	16.578	845.459	633.906
325.227	16.342	845.139	632.728
326.241	16.476	844.554	632.734
327.256	16.479	843.986	632.264
328.270	16.517	843.551	632.025
329.285	16.581	842.463	631.393
330.300	16.590	841.902	630.949
331.314	16.605	841.494	630.645
332.329	16.627	840.840	630.179
333.343	16.693	840.186	629.878
334.358	16.745	839.478	629.487
335.373	16.603	839.081	628.604
336.387	16.616	838.835	628.414
337.402	16.749	838.399	628.524
338.416	16.779	837.304	627.759
339.431	16.764	836.737	627.223
340.446	16.799	836.620	627.210
341.460	16.901	835.819	626.932
342.475	16.932	835.208	626.531
343.489	16.891	834.870	626.073
344.504	16.848	834.399	625.504
345.519	16.981	833.692	625.410
346.533	16.931	833.344	624.911
347.548	17.010	832.782	624.723
348.562	16.935	832.050	623.843
349.577	16.873	831.775	623.353
350.592	16.981	831.500	623.490
351.606	16.812	830.992	622.434
352.621	16.937	829.994	622.088
353.635	16.991	830.072	622.291
354.650	16.966	829.372	621.617
355.665	16.871	829.251	621.124
356.679	17.040	828.577	621.185
357.694	17.118	827.630	620.703
358.708	17.038	827.343	620.139
359.723	17.037	826.677	619.584
360.738	17.002	826.107	618.973
361.752	17.083	825.580	618.819
362.767	17.203	825.261	618.962
363.781	17.122	825.111	618.499
364.796	17.353	824.181	618.589
365.810	17.239	824.239	618.162
366.825	17.134	823.915	617.484
367.840	17.277	823.201	617.413
368.854	17.242	822.829	616.951
369.869	17.299	822.360	616.751
370.883	17.211	821.818	615.973
371.898	17.367	821.101	615.945
372.913	17.420	820.524	615.651
373.927	17.336	820.037	614.928
374.942	17.467	819.182	614.704
375.956	17.244	818.699	613.482
376.971	17.350	818.494	613.657
377.986	17.408	818.162	613.563
379.000	17.477	817.323	613.129
380.015	17.486	816.917	612.801
381.029	17.514	816.439	612.492
382.044	17.487	815.906	611.939
383.059	17.630	815.166	611.844
384.073	17.683	814.184	611.243
385.088	17.553	814.287	610.800
386.102	17.543	813.767	610.319
387.117	17.454	813.302	609.599
388.132	17.600	812.369	609.366
389.146	17.623	811.986	609.109
390.161	17.485	812.083	608.633
391.175	17.617	811.564	608.663
392.190	17.721	811.074	608.613
393.205	17.645	810.532	607.878
394.219	17.668	810.127	607.605
395.234	17.723	809.701	607.427
396.248	17.751	808.968	606.921
397.263	17.612	808.512	606.034
398.278	17.591	808.067	605.573
399.292	17.519	807.920	605.151
400.307	17.598	807.456	605.030
401.321	17.732	807.099	605.185
402.336	17.590	806.770	604.381
403.350	17.821	806.142	604.675
404.365	17.841	805.499	604.210
405.380	17.832	804.809	603.608
406.394	17.792	804.495	603.177
407.409	17.755	804.291	602.841
408.423	17.799	803.772	602.555
409.438	17.993	803.015	602.617
410.453	17.908	802.972	602.231
411.467	17.995	802.457	602.099
412.482	17.906	801.796	601.237
413.496	17.907	801.667	601.089
414.511	18.195	800.828	601.422
415.526	18.070	800.650	600.795
416.540	18.055	800.410	600.508
417.555	18.004	799.985	599.957
418.569	18.071	799.610	599.859
419.584	18.102	798.836	599.334
420.599	18.203	798.236	599.185
421.613	113.942	1296.606	1482.998
422.628	98.213	1369.174	1483.105
