DTS Sentinel unit serial number:	SN413079Multiplexer serial number:	ORYXHardware model number:	OX4-SRSoftware version number:	ORYX F/W v4.00 Oryx Data Collector v3.7.2.0data status	okinstallation	princeton_trtdifferential loss correction	single-endedforward channel	channel 3reverse channel	N/Adate	2019/09/16time	07:48:35forward acquisition time	60.00reverse acquisition time	0.00gamma	496.2192k internal	0.2330k external	0.2330temperature offset calibration	0.9954default loss term (dB/km)	0.3790temperature slope calibration	1.0000multiplexer offset coefficient	1.0000multiplexer slope coefficient	1.0000fibre end	0.00T internal ref (°C)	28.12T ext. ref 1 (°C)	11.72T ext. ref 2 (°C)	24.70length (m)	temperature (°C)	Stokes	anti-Stokes-747.200	-200.000	-0.031	0.264
-746.185	-84.593	-0.159	0.050
-745.171	436.039	-0.060	0.132
-744.156	800.000	-0.042	0.182
-743.142	0.608	0.163	0.117
-742.127	800.000	-0.048	0.145
-741.112	-82.613	-0.179	-0.058
-740.098	-200.000	0.042	-0.301
-739.083	-98.899	-0.332	-0.085
-738.069	388.457	-0.168	0.350
-737.054	127.603	-0.105	0.135
-736.039	-7.773	-0.318	0.216
-735.025	423.325	-0.110	0.238
-734.010	800.000	0.032	0.124
-732.996	-126.937	-0.298	-0.044
-731.981	-161.077	-0.263	-0.014
-730.966	201.974	-0.091	-0.141
-729.952	-117.018	-0.351	0.064
-728.937	-90.809	0.132	-0.038
-727.923	-112.317	-0.248	-0.050
-726.908	-200.000	-0.015	-0.142
-725.894	800.000	0.023	0.068
-724.879	99.790	0.154	-0.180
-723.864	-200.000	-0.011	-0.374
-722.850	-8.307	-0.204	-0.138
-721.835	-9.132	0.180	0.121
-720.821	-74.572	0.081	-0.029
-719.806	-122.464	-0.203	0.033
-718.791	-200.000	-0.030	-0.215
-717.777	-200.000	0.038	-0.420
-716.762	-200.000	0.046	-0.254
-715.748	-132.630	0.372	0.048
-714.733	48.399	0.056	-0.053
-713.718	755.346	-0.163	0.443
-712.704	-92.414	0.427	0.121
-711.689	203.518	-0.099	0.154
-710.675	317.372	-0.196	-0.373
-709.660	-11.211	0.041	-0.027
-708.645	-185.320	0.251	0.004
-707.631	27.457	-0.203	0.172
-706.616	-53.050	-0.192	0.089
-705.602	-30.844	0.055	0.031
-704.587	-94.868	0.239	-0.065
-703.572	-72.433	-0.122	-0.045
-702.558	-82.626	-0.602	0.196
-701.543	789.078	0.072	-0.198
-700.529	-23.663	-0.188	0.113
-699.514	229.842	-0.121	-0.198
-698.499	-200.000	0.026	0.470
-697.485	78.173	-0.289	0.309
-696.470	-7.239	-0.082	0.056
-695.456	-43.471	0.183	-0.093
-694.441	83.894	-0.149	0.163
-693.426	-88.427	0.145	-0.044
-692.412	-200.000	-0.019	0.543
-691.397	800.000	-0.033	0.091
-690.383	-165.625	-0.336	-0.015
-689.368	-85.316	-0.445	0.140
-688.354	800.000	0.013	-0.041
-687.339	53.145	-0.043	-0.041
-686.324	-200.000	0.001	-0.029
-685.310	-5.495	0.169	-0.117
-684.295	197.531	-0.197	-0.302
-683.281	188.330	-0.154	-0.231
-682.266	-200.000	0.020	-0.104
-681.251	671.995	0.111	-0.290
-680.237	427.377	0.045	-0.098
-679.222	171.921	-0.227	-0.328
-678.208	-139.679	0.186	0.020
-677.193	-142.711	-0.146	0.014
-676.178	-31.364	-0.277	-0.157
-675.164	-76.267	-0.270	0.095
-674.149	-174.568	0.087	-0.002
-673.135	800.000	-0.040	-0.137
-672.120	-98.471	0.032	0.008
-671.105	102.863	-0.057	-0.067
-670.091	800.000	-0.019	-0.078
-669.076	-16.436	0.106	0.067
-668.062	69.879	-0.213	-0.221
-667.047	-143.662	-0.441	-0.042
-666.032	26.384	-0.098	0.082
-665.018	800.000	-0.048	-0.166
-664.003	-200.000	-0.057	-0.303
-662.989	-200.000	0.031	0.142
-661.974	800.000	-0.069	-0.207
-660.959	-200.000	-0.027	-0.201
-659.945	183.629	0.191	-0.284
-658.930	163.313	-0.242	-0.341
-657.916	351.270	0.016	0.032
-656.901	-200.000	0.034	-0.242
-655.886	7.874	-0.155	0.117
-654.872	-104.516	0.146	-0.034
-653.857	324.506	0.134	-0.258
-652.843	-30.909	0.251	0.142
-651.828	-126.993	-0.188	-0.028
-650.814	-53.572	0.134	-0.061
-649.799	-200.000	0.032	-0.344
-648.784	-55.988	-0.164	-0.073
-647.770	800.000	0.052	0.156
-646.755	563.781	-0.051	-0.124
-645.741	-85.344	0.512	-0.160
-644.726	-76.907	-0.043	0.015
-643.711	-200.000	0.059	0.331
-642.697	800.000	-0.049	0.165
-641.682	236.521	-0.183	0.303
-640.668	800.000	0.048	0.149
-639.653	-88.750	-0.038	0.011
-638.638	-200.000	0.073	-0.483
-637.624	-7.972	0.113	0.077
-636.609	786.775	0.069	0.189
-635.595	-99.342	-0.205	0.052
-634.580	108.687	0.115	-0.138
-633.565	107.140	-0.187	-0.222
-632.551	14.212	0.197	-0.154
-631.536	-97.000	0.124	0.033
-630.522	-114.294	-0.472	-0.091
-629.507	800.000	-0.101	-0.318
-628.492	-113.789	0.243	0.047
-627.478	15.349	-0.348	0.274
-626.463	279.377	-0.149	-0.266
-625.449	455.637	-0.048	0.107
-624.434	800.000	0.037	-0.133
-623.419	-200.000	-0.004	-0.307
-622.405	-200.000	-0.000	0.089
-621.390	-109.799	-0.274	0.058
-620.376	-88.692	0.119	-0.035
-619.361	88.743	-0.344	0.384
-618.346	-59.164	-0.121	0.052
-617.332	-200.000	0.009	-0.219
-616.317	800.000	0.025	-0.106
-615.303	800.000	-0.053	-0.211
-614.288	208.342	0.021	0.033
-613.273	-116.673	0.321	-0.059
-612.259	-195.945	-0.282	0.002
-611.244	78.425	0.159	-0.170
-610.230	-6.680	-0.173	-0.118
-609.215	-200.000	0.010	0.317
-608.201	646.477	-0.055	0.141
-607.186	-97.768	0.155	0.040
-606.171	-200.000	-0.025	-0.167
-605.157	492.554	-0.065	0.149
-604.142	-182.225	-0.194	-0.004
-603.128	-146.345	-0.280	0.024
-602.113	41.914	0.071	0.064
-601.098	800.000	-0.026	-0.099
-600.084	-73.953	-0.224	-0.081
-599.069	-112.213	-0.474	0.095
-598.055	-200.000	0.041	0.225
-597.040	0.375	0.165	0.118
-596.025	98.615	-0.133	-0.154
-595.011	-138.611	-0.156	0.017
-593.996	199.130	0.220	-0.337
-592.982	-200.000	-0.072	0.330
-591.967	-200.000	0.049	-0.259
-590.952	-41.167	0.292	-0.151
-589.938	4.611	0.049	-0.036
-588.923	-200.000	-0.065	-0.524
-587.909	-93.782	0.168	-0.046
-586.894	134.829	0.039	0.050
-585.879	-79.884	-0.472	0.159
-584.865	-1.015	-0.116	-0.082
-583.850	-200.000	-0.001	0.031
-582.836	-86.690	-0.078	0.024
-581.821	-37.668	-0.069	0.037
-580.806	-200.000	0.015	-0.130
-579.792	90.932	-0.123	0.138
-578.777	382.826	-0.148	0.304
-577.763	51.693	0.036	0.035
-576.748	-109.102	-0.194	-0.041
-575.733	800.000	0.065	0.189
-574.719	9.809	-0.091	0.069
-573.704	-69.580	-0.335	-0.128
-572.690	-134.777	-0.260	0.032
-571.675	70.227	-0.117	0.121
-570.661	-140.900	0.258	0.027
-569.646	800.000	-0.031	0.104
-568.631	-95.329	0.210	-0.056
-567.617	-54.490	-0.322	-0.146
-566.602	-72.892	-0.120	0.044
-565.588	-95.759	-0.164	-0.044
-564.573	-200.000	0.024	-0.198
-563.558	616.964	-0.072	-0.182
-562.544	58.983	0.089	-0.087
-561.529	800.000	0.043	0.177
-560.515	-200.000	0.013	-0.276
-559.500	-142.531	0.188	-0.018
-558.485	226.791	0.116	0.187
-557.471	800.000	0.029	0.084
-556.456	-77.549	-0.265	-0.092
-555.442	800.000	-0.059	0.168
-554.427	-34.147	0.098	-0.054
-553.412	145.695	-0.054	-0.072
-552.398	-19.970	0.250	-0.154
-551.383	332.622	-0.122	-0.235
-550.369	-34.905	-0.211	0.115
-549.354	271.916	0.189	-0.333
-548.339	-125.908	-0.246	0.037
-547.325	800.000	0.107	0.320
-546.310	197.997	0.110	-0.168
-545.296	76.440	-0.116	-0.123
-544.281	-98.884	0.407	0.103
-543.266	117.412	-0.108	0.133
-542.252	-20.510	-0.173	-0.106
-541.237	133.824	0.127	0.164
-540.223	-200.000	0.062	0.339
-539.208	476.109	0.050	0.113
-538.193	-200.000	0.019	-0.217
-537.179	31.690	-0.113	0.097
-536.164	-200.000	-0.040	-0.502
-535.150	800.000	-0.051	0.161
-534.135	-107.811	0.144	-0.031
-533.121	-125.154	-0.310	-0.047
-532.106	-125.188	0.336	0.051
-531.091	583.699	0.029	-0.072
-530.077	106.623	0.288	0.341
-529.062	369.753	-0.119	0.240
-528.048	130.299	0.024	-0.031
-527.033	-173.202	0.279	-0.009
-526.018	-43.733	0.373	-0.187
-525.004	287.278	-0.038	-0.068
-523.989	-70.966	-0.232	-0.087
-522.975	529.793	-0.032	-0.076
-521.960	6.764	0.035	0.026
-520.945	-200.000	-0.022	-0.207
-519.931	79.478	0.061	-0.065
-518.916	24.510	0.160	-0.132
-517.902	26.510	-0.078	0.065
-516.887	-134.057	-0.356	0.044
-515.872	89.115	0.064	-0.071
-514.858	372.123	0.037	-0.076
-513.843	101.810	-0.200	-0.232
-512.829	800.000	-0.022	0.074
-511.814	345.663	0.047	0.092
-510.799	27.827	-0.096	0.081
-509.785	-101.953	0.409	-0.098
-508.770	-68.391	-0.154	-0.060
-507.756	800.000	0.033	-0.127
-506.741	-145.113	-0.109	-0.010
-505.726	134.455	0.079	0.103
-504.712	-85.193	0.131	0.041
-503.697	-89.020	-0.097	0.029
-502.683	-200.000	-0.015	-0.130
-501.668	694.970	0.092	0.242
-500.653	460.095	-0.046	-0.102
-499.639	-200.000	-0.006	-0.053
-498.624	333.455	0.123	-0.236
-497.610	-200.000	-0.053	-0.393
-496.595	19.441	0.125	-0.100
-495.581	-149.935	-0.128	0.010
-494.566	-99.656	0.407	0.102
-493.551	1.637	-0.311	-0.223
-492.537	570.871	0.070	-0.169
-491.522	175.219	-0.058	-0.084
-490.508	572.508	0.047	0.115
-489.493	13.089	-0.193	0.149
-488.478	-65.583	0.176	-0.070
-487.464	147.623	-0.114	0.153
-486.449	-21.296	-0.327	0.199
-485.435	-196.577	0.173	-0.001
-484.420	-200.000	0.073	0.364
-483.405	-200.000	-0.007	0.243
-482.391	-51.673	0.311	-0.145
-481.376	800.000	-0.005	-0.013
-480.362	128.646	-0.145	0.184
-479.347	-3.613	0.120	0.083
-478.332	-86.595	-0.113	-0.035
-477.318	800.000	0.109	-0.424
-476.303	148.644	0.184	-0.247
-475.289	-59.143	0.021	-0.009
-474.274	97.490	0.201	-0.231
-473.259	-198.627	-0.233	-0.001
-472.245	-14.298	-0.113	0.072
-471.230	9.515	0.144	-0.108
-470.216	-200.000	0.050	-0.265
-469.201	31.102	0.122	-0.104
-468.186	-66.739	0.059	-0.023
-467.172	800.000	-0.090	0.319
-466.157	24.820	0.274	0.226
-465.143	-114.747	0.197	0.038
-464.128	-200.000	0.012	-0.175
-463.113	-25.340	-0.107	0.063
-462.099	-71.678	-0.142	0.053
-461.084	-200.000	0.008	0.358
-460.070	-40.090	-0.206	0.107
-459.055	95.886	0.074	-0.084
-458.040	467.272	-0.092	-0.205
-457.026	-200.000	-0.103	0.477
-456.011	239.189	0.151	0.250
-454.997	17.916	-0.095	0.076
-453.982	-44.213	-0.055	0.027
-452.968	-37.952	-0.127	0.067
-451.953	7.658	0.151	0.113
-450.938	800.000	0.099	0.344
-449.924	569.785	0.124	0.301
-448.909	800.000	0.069	0.207
-447.895	-129.683	-0.192	-0.026
-446.880	-160.547	0.059	0.003
-445.865	-23.517	0.276	-0.165
-444.851	772.634	-0.117	-0.317
-443.836	-22.546	0.080	-0.048
-442.822	-78.762	-0.339	-0.115
-441.807	-50.152	-0.347	0.163
-440.792	-94.050	0.159	-0.043
-439.778	-96.873	-0.101	0.026
-438.763	218.617	-0.074	-0.118
-437.749	659.877	0.059	-0.152
-436.734	227.019	-0.126	0.204
-435.719	-54.072	-0.423	0.191
-434.705	146.390	-0.024	0.032
-433.690	164.511	0.124	-0.174
-432.676	300.421	0.043	-0.079
-431.661	4.303	-0.144	0.105
-430.646	-200.000	-0.076	-0.389
-429.632	-200.000	-0.059	-0.274
-428.617	-200.000	0.036	-0.191
-427.603	50.297	-0.179	0.168
-426.588	-87.968	0.439	0.131
-425.573	-71.401	-0.132	0.049
-424.559	800.000	0.115	-0.395
-423.544	-103.616	0.099	-0.023
-422.530	-70.905	0.304	0.114
-421.515	73.692	-0.181	-0.189
-420.500	800.000	0.073	-0.209
-419.486	-68.200	-0.024	0.009
-418.471	-52.593	-0.226	-0.104
-417.457	709.612	0.064	-0.168
-416.442	246.515	0.215	-0.360
-415.428	-6.975	-0.096	-0.065
-414.413	-140.754	-0.293	-0.030
-413.398	-73.781	-0.114	0.041
-412.384	-157.164	0.031	-0.002
-411.369	-75.989	-0.046	0.016
-410.355	523.109	-0.054	0.125
-409.340	800.000	-0.046	-0.195
-408.325	-135.773	0.239	0.028
-407.311	726.763	-0.052	-0.137
-406.296	-43.995	0.144	-0.072
-405.282	-36.717	0.096	-0.051
-404.267	-19.505	0.343	0.211
-403.252	522.218	0.102	0.238
-402.238	-107.634	-0.299	-0.065
-401.223	30.717	-0.144	0.122
-400.209	-200.000	0.014	0.211
-399.194	-130.145	0.177	0.024
-398.179	-200.000	0.001	-0.150
-397.165	368.002	-0.092	-0.185
-396.150	459.055	0.185	-0.408
-395.136	-200.000	0.035	-0.224
-394.121	-133.125	0.211	0.027
-393.106	-188.835	0.264	-0.003
-392.092	-200.000	0.043	0.460
-391.077	-200.000	0.026	0.149
-390.063	162.746	-0.202	0.281
-389.048	22.470	-0.129	-0.105
-388.033	-28.558	-0.200	-0.114
-387.019	-95.583	-0.400	-0.106
-386.004	39.906	-0.341	-0.304
-384.990	725.505	-0.108	0.286
-383.975	-138.242	-0.356	-0.039
-382.960	-83.406	0.166	0.053
-381.946	48.070	-0.132	-0.123
-380.931	-81.980	-0.250	-0.081
-379.917	-139.026	0.240	-0.026
-378.902	800.000	-0.083	0.318
-377.888	800.000	0.042	0.119
-376.873	-14.082	0.176	-0.113
-375.858	591.683	-0.030	0.073
-374.844	97.946	0.212	-0.243
-373.829	485.039	0.150	0.339
-372.815	20.063	0.305	0.244
-371.800	-200.000	-0.025	0.126
-370.785	122.230	-0.107	-0.132
-369.771	76.845	-0.115	0.121
-368.756	137.945	0.207	-0.269
-367.742	-42.394	0.166	-0.084
-366.727	187.529	-0.153	-0.227
-365.712	-38.735	0.094	-0.049
-364.698	-141.587	-0.330	0.033
-363.683	-194.949	0.276	0.002
-362.669	-200.000	0.016	-0.094
-361.654	-200.000	-0.019	-0.122
-360.639	724.388	-0.053	0.141
-359.625	84.817	-0.109	-0.119
-358.610	800.000	0.046	-0.191
-357.596	332.972	0.039	-0.074
-356.581	-111.214	-0.114	0.023
-355.566	-200.000	0.020	0.093
-354.552	-108.155	-0.190	0.041
-353.537	-133.355	0.528	-0.066
-352.523	-138.913	-0.213	0.023
-351.508	-73.661	0.133	0.048
-350.493	-0.130	0.228	-0.161
-349.479	100.941	-0.053	0.062
-348.464	-20.673	-0.093	0.057
-347.450	-141.080	-0.252	0.026
-346.435	20.261	-0.084	0.067
-345.420	-200.000	0.009	-0.041
-344.406	800.000	-0.029	0.093
-343.391	-200.000	-0.010	-0.047
-342.377	800.000	-0.072	0.267
-341.362	583.625	-0.076	0.185
-340.348	-58.044	0.230	0.099
-339.333	207.193	-0.057	0.088
-338.318	8.146	-0.312	0.232
-337.304	106.955	0.174	0.205
-336.289	800.000	0.026	0.103
-335.275	-31.516	-0.226	0.126
-334.260	365.264	0.111	0.221
-333.245	-200.000	0.039	-0.296
-332.231	0.770	0.016	0.011
-331.216	-194.012	0.293	0.002
-330.202	-33.165	0.049	-0.027
-329.187	-59.587	0.157	0.067
-328.172	301.802	0.030	-0.055
-327.158	190.093	-0.124	-0.184
-326.143	800.000	0.110	0.439
-325.129	-52.276	-0.539	-0.247
-324.114	-88.596	0.206	0.061
-323.099	51.945	-0.120	0.113
-322.085	75.313	0.146	0.153
-321.070	-119.413	-0.291	0.050
-320.056	-30.581	-0.151	-0.085
-319.041	-200.000	0.002	0.134
-318.026	117.393	-0.071	0.086
-317.012	22.707	-0.246	0.199
-315.997	-162.563	-0.141	0.007
-314.983	-105.644	0.557	-0.125
-313.968	63.574	0.305	0.303
-312.953	-64.531	0.137	0.055
-311.939	305.148	-0.122	-0.225
-310.924	271.623	0.149	-0.260
-309.910	-18.054	0.138	-0.086
-308.895	47.219	0.095	-0.087
-307.880	307.035	0.054	0.100
-306.866	122.029	-0.205	0.254
-305.851	-90.374	0.175	0.050
-304.837	454.294	-0.073	0.161
-303.822	800.000	-0.091	0.308
-302.807	-168.910	0.233	0.009
-301.793	257.888	-0.055	-0.094
-300.778	384.097	0.120	0.244
-299.764	-80.519	0.309	-0.102
-298.749	196.020	-0.029	-0.044
-297.735	217.941	-0.167	-0.264
-296.720	35.324	-0.247	-0.214
-295.705	46.669	0.078	0.072
-294.691	705.796	-0.117	-0.305
-293.676	800.000	0.057	-0.225
-292.662	232.896	-0.066	-0.107
-291.647	-200.000	-0.020	0.197
-290.632	468.531	-0.038	-0.085
-289.618	347.663	-0.155	0.301
-288.603	492.153	0.052	0.117
-287.589	-147.046	-0.384	0.033
-286.574	332.700	-0.119	0.228
-285.559	-118.716	0.222	0.039
-284.545	17.151	-0.280	0.220
-283.530	148.060	-0.209	0.279
-282.516	76.864	0.148	0.155
-281.501	-89.005	0.421	0.123
-280.486	-43.017	-0.322	-0.161
-279.472	261.451	0.153	-0.262
-278.457	-62.640	0.282	0.116
-277.443	-76.948	0.432	0.149
-276.428	42.495	0.035	-0.032
-275.413	-103.207	0.173	0.040
-274.399	-200.000	-0.032	-0.173
-273.384	139.010	-0.172	-0.224
-272.370	356.632	0.183	0.360
-271.355	-134.999	-0.278	-0.033
-270.340	-9.063	0.173	-0.114
-269.326	-65.391	0.312	-0.124
-268.311	10.960	-0.158	0.119
-267.297	800.000	-0.014	-0.039
-266.282	-181.794	0.260	0.005
-265.267	793.183	-0.104	0.282
-264.253	-126.642	0.034	-0.005
-263.238	579.703	-0.097	-0.236
-262.224	55.937	0.066	0.064
-261.209	105.722	0.418	0.488
-260.195	-200.000	-0.062	0.280
-259.180	-47.829	0.091	0.044
-258.165	-200.000	0.004	-0.166
-257.151	114.406	0.181	-0.218
-256.136	-20.758	-0.322	-0.195
-255.122	800.000	-0.077	0.312
-254.107	800.000	-0.091	-0.250
-253.092	-200.000	-0.013	-0.189
-252.078	488.608	-0.044	-0.099
-251.063	-176.772	0.133	0.003
-250.049	27.298	-0.221	-0.184
-249.034	21.315	0.300	-0.241
-248.019	-200.000	0.013	0.172
-247.005	169.273	0.128	-0.180
-245.990	96.113	-0.299	0.337
-244.976	-200.000	-0.025	0.131
-243.961	-46.131	-0.294	0.143
-242.946	-70.425	0.345	0.129
-241.932	-101.973	0.199	0.047
-240.917	369.986	-0.215	-0.429
-239.903	-200.000	0.044	0.255
-238.888	-132.893	0.288	-0.036
-237.873	-20.544	0.138	-0.084
-236.859	-79.752	-0.107	0.036
-235.844	668.437	0.132	0.336
-234.830	529.168	0.120	0.279
-233.815	-157.562	0.087	-0.005
-232.800	-106.810	0.273	-0.060
-231.786	30.181	-0.278	0.234
-230.771	108.720	-0.123	-0.145
-229.757	-81.963	0.136	-0.044
-228.742	520.323	0.110	0.254
-227.727	99.965	0.130	0.148
-226.713	468.051	0.140	-0.310
-225.698	-95.533	-0.209	0.055
-224.684	77.866	-0.072	-0.076
-223.669	264.911	-0.046	0.080
-222.655	403.632	-0.080	0.167
-221.640	1.783	0.292	-0.208
-220.625	-85.890	0.115	-0.035
-219.611	50.585	-0.314	-0.293
-218.596	-56.254	-0.325	0.143
-217.582	800.000	0.076	0.241
-216.567	76.976	-0.050	-0.052
-215.552	-72.017	0.154	-0.056
-214.538	-132.113	-0.086	0.011
-213.523	22.507	-0.101	-0.081
-212.509	-24.875	-0.160	-0.094
-211.494	-82.172	0.330	-0.106
-210.479	-67.246	-0.202	0.079
-209.465	342.003	-0.150	-0.289
-208.450	-200.000	0.039	-0.209
-207.436	-200.000	0.025	0.207
-206.421	-145.029	0.186	-0.017
-205.406	800.000	0.094	-0.318
-204.392	-200.000	-0.080	0.454
-203.377	27.610	0.102	-0.084
-202.363	37.227	0.218	-0.191
-201.348	-67.288	0.221	-0.086
-200.333	-31.873	0.364	-0.201
-199.319	704.730	-0.117	-0.303
-198.304	-200.000	0.023	-0.194
-197.290	-68.975	0.225	-0.086
-196.275	-177.239	0.118	0.003
-195.260	-98.891	0.103	0.026
-194.246	-63.054	0.347	0.141
-193.231	-111.112	0.230	-0.046
-192.217	151.687	0.154	0.207
-191.202	-163.571	0.114	-0.005
-190.187	-82.213	0.108	0.035
-189.173	-200.000	-0.005	0.161
-188.158	90.775	-0.224	-0.247
-187.144	-132.408	0.227	0.029
-186.129	759.565	-0.019	0.050
-185.114	-85.719	-0.171	0.052
-184.100	223.394	0.100	-0.159
-183.085	-67.066	0.179	-0.070
-182.071	-113.646	0.215	0.041
-181.056	-164.203	0.226	0.010
-180.042	83.959	-0.112	-0.121
-179.027	-158.284	-0.344	0.020
-178.012	-144.094	0.375	0.035
-176.998	64.111	-0.261	-0.259
-175.983	3.108	-0.170	0.122
-174.969	197.682	-0.081	-0.122
-173.954	-34.241	0.122	-0.066
-172.939	203.623	0.059	0.090
-171.925	800.000	0.092	0.283
-170.910	32.491	0.314	0.267
-169.896	-200.000	0.035	0.220
-168.881	-17.520	-0.192	0.119
-167.866	-32.760	-0.265	0.145
-166.852	-79.992	-0.217	-0.072
-165.837	-179.073	0.232	-0.005
-164.823	-200.000	0.027	-0.115
-163.808	-132.559	-0.239	0.030
-162.793	382.476	-0.006	0.012
-161.779	38.582	-0.109	-0.096
-160.764	-200.000	-0.031	0.336
-159.750	-123.992	-0.145	-0.022
-158.735	104.266	-0.070	-0.081
-157.720	800.000	0.020	0.064
-156.706	-96.068	-0.351	0.092
-155.691	-200.000	0.006	-0.199
-154.677	58.732	-0.102	0.098
-153.662	-8.988	0.103	0.068
-152.647	161.593	0.060	0.082
-151.633	-133.081	-0.368	0.046
-150.618	-200.000	-0.012	0.056
-149.604	98.977	-0.156	0.177
-148.589	-169.804	-0.587	0.021
-147.574	-98.146	-0.360	0.091
-146.560	81.133	0.229	-0.244
-145.545	678.798	-0.182	0.466
-144.531	-94.861	0.370	-0.099
-143.516	-111.866	0.316	0.063
-142.502	495.079	0.076	-0.171
-141.487	-200.000	0.007	0.137
-140.472	-19.820	0.150	0.091
-139.458	-73.683	0.231	0.083
-138.443	70.383	0.168	0.171
-137.429	181.442	-0.092	0.133
-136.414	674.961	-0.127	0.324
-135.399	-200.000	-0.002	0.141
-134.385	800.000	0.029	0.108
-133.370	156.223	0.245	0.332
-132.356	-41.228	0.189	-0.096
-131.341	-72.036	0.147	0.054
-130.326	800.000	0.093	0.361
-129.312	-99.245	-0.204	-0.051
-128.297	2.250	-0.007	0.005
-127.283	-65.820	0.458	-0.180
-126.268	254.599	0.137	0.230
-125.253	-21.330	-0.342	-0.205
-124.239	56.388	-0.082	0.079
-123.224	-200.000	0.005	0.032
-122.210	800.000	0.048	0.207
-121.195	-168.491	-0.266	0.010
-120.180	-29.988	0.060	-0.033
-119.166	10.759	-0.083	-0.062
-118.151	-106.865	-0.177	-0.039
-117.137	800.000	-0.077	-0.284
-116.122	532.666	0.150	-0.349
-115.107	208.158	0.086	-0.132
-114.093	19.701	0.188	-0.149
-113.078	60.753	0.237	0.231
-112.064	800.000	0.099	0.328
-111.049	-34.122	0.227	-0.122
-110.034	132.104	-0.241	0.305
-109.020	-200.000	0.003	0.167
-108.005	-156.331	-0.309	0.019
-106.991	-8.554	0.268	0.177
-105.976	-81.329	0.127	-0.041
-104.962	-200.000	-0.065	-0.304
-103.947	40.996	0.056	0.049
-102.932	-200.000	-0.011	0.173
-101.918	800.000	-0.071	-0.273
-100.903	-63.128	-0.277	0.112
-99.889	-55.451	0.080	-0.035
-98.874	-54.246	-0.125	0.056
-97.859	-22.724	0.344	0.204
-96.845	633.752	-0.018	0.045
-95.830	-143.397	-0.214	-0.020
-94.816	249.253	-0.158	0.264
-93.801	-41.555	0.043	-0.022
-92.786	407.750	0.043	0.089
-91.772	-145.238	-0.207	-0.018
-90.757	2.095	-0.063	0.044
-89.743	-200.000	0.064	0.323
-88.728	-200.000	-0.026	0.445
-87.713	116.879	-0.115	0.138
-86.699	66.138	0.326	-0.325
-85.684	-5.568	-0.253	0.170
-84.670	800.000	-0.108	0.418
-83.655	-22.801	-0.136	0.081
-82.640	242.387	0.021	-0.035
-81.626	106.115	0.064	0.074
-80.611	-148.831	0.092	-0.007
-79.597	358.095	0.133	0.261
-78.582	330.444	0.184	-0.347
-77.567	21.172	0.161	-0.128
-76.553	-40.001	-0.272	-0.139
-75.538	477.439	-0.134	-0.297
-74.524	-10.515	0.215	0.140
-73.509	-200.000	-0.033	0.329
-72.494	-200.000	-0.037	-0.283
-71.480	800.000	0.122	0.343
-70.465	-200.000	-0.005	-0.264
-69.451	800.000	-0.041	-0.155
-68.436	-200.000	0.035	0.358
-67.422	35.564	0.178	-0.153
-66.407	-84.209	-0.285	-0.089
-65.392	-147.558	0.321	-0.027
-64.378	177.467	0.099	0.142
-63.363	-0.386	-0.234	-0.163
-62.349	-200.000	0.060	-0.341
-61.334	117.173	-0.803	-0.968
-60.319	293.700	0.498	0.891
-59.305	103.230	-0.686	-0.788
-58.290	293.388	0.603	1.079
-57.276	631.563	0.590	1.463
-56.261	-200.000	110.575	602.063
-55.246	436.915	1513.162	3230.364
-54.232	144.301	2692.692	3522.044
-53.217	102.535	2188.122	2507.669
-52.203	38.484	1715.038	1498.152
-51.188	31.295	1531.340	1288.266
-50.173	28.965	1506.185	1251.230
-49.159	50.815	1563.284	1450.741
-48.144	50.500	1579.351	1463.409
-47.130	31.446	1535.794	1292.851
-46.115	28.365	1521.010	1259.222
-45.100	28.279	1517.257	1255.475
-44.086	28.250	1515.006	1253.365
-43.071	28.216	1513.370	1251.725
-42.057	28.192	1511.788	1250.206
-41.042	28.089	1510.632	1248.500
-40.027	28.184	1509.321	1248.013
-39.013	28.087	1507.573	1245.859
-37.998	28.113	1506.217	1244.863
-36.984	28.140	1505.391	1244.315
-35.969	28.119	1503.580	1242.628
-34.954	28.108	1502.145	1241.312
-33.940	28.042	1500.840	1239.741
-32.925	28.072	1499.676	1238.933
-31.911	28.142	1498.015	1237.986
-30.896	28.164	1496.545	1236.872
-29.881	28.149	1495.676	1236.003
-28.867	28.077	1494.618	1234.590
-27.852	28.121	1493.243	1233.705
-26.838	28.180	1491.625	1232.717
-25.823	28.203	1489.767	1231.286
-24.809	28.148	1488.539	1229.852
-23.794	28.114	1487.179	1228.453
-22.779	28.145	1486.032	1227.662
-21.765	28.195	1484.970	1227.075
-20.750	28.250	1484.002	1226.590
-19.736	28.162	1483.096	1225.205
-18.721	28.148	1481.555	1223.791
-17.706	28.189	1480.702	1223.313
-16.692	28.110	1479.785	1221.974
-15.677	28.107	1478.719	1221.028
-14.663	28.088	1477.676	1219.992
-13.648	28.013	1476.530	1218.498
-12.633	28.180	1475.308	1218.556
-11.619	28.193	1474.594	1218.005
-10.604	28.128	1473.764	1216.839
-9.590	28.008	1472.912	1215.286
-8.575	28.162	1471.959	1215.477
-7.560	28.215	1471.043	1215.023
-6.546	28.135	1470.151	1213.705
-5.531	28.082	1469.446	1212.726
-4.517	28.033	1468.376	1211.468
-3.502	28.045	1467.165	1210.501
-2.487	28.059	1466.397	1209.914
-1.473	28.148	1465.672	1209.854
-0.458	28.146	1464.335	1208.686
0.556	26.800	1455.023	1199.450
1.571	24.312	1430.966	1163.306
2.586	21.399	1371.519	1096.635
3.600	20.082	1288.406	1022.326
4.615	18.921	1243.084	979.662
5.629	18.134	1190.389	933.754
6.644	15.001	1113.226	857.126
7.659	12.184	1078.149	816.052
8.673	11.750	1073.097	810.010
9.688	11.730	1069.714	807.286
10.702	11.629	1068.245	805.607
11.717	11.751	1066.619	804.908
12.731	12.891	1066.421	810.296
13.746	15.992	1070.228	828.386
14.761	18.074	1072.148	840.043
15.775	17.997	1071.112	838.777
16.790	17.124	1069.081	832.830
17.804	15.989	1066.728	825.369
18.819	15.201	1064.575	819.774
19.834	14.598	1063.227	815.717
20.848	14.105	1062.782	812.896
21.863	13.974	1061.928	811.530
22.877	13.852	1060.758	809.968
23.892	13.573	1060.069	808.010
24.907	13.593	1058.809	807.077
25.921	13.504	1058.217	806.119
26.936	13.465	1057.812	805.551
27.950	13.455	1056.804	804.664
28.965	13.611	1055.378	804.264
29.980	13.551	1054.613	803.318
30.994	13.638	1053.189	802.583
32.009	13.757	1052.294	802.407
33.023	13.693	1051.501	801.420
34.038	13.843	1050.855	801.584
35.053	13.754	1049.291	799.889
36.067	13.531	1048.861	798.418
37.082	13.658	1048.007	798.309
38.096	13.618	1047.386	797.571
39.111	13.739	1046.361	797.304
40.126	13.726	1045.273	796.339
41.140	13.616	1044.336	795.027
42.155	13.580	1043.072	793.823
43.169	13.424	1042.201	792.343
44.184	13.559	1041.168	792.135
45.199	13.426	1040.254	790.733
46.213	13.402	1038.870	789.493
47.228	13.476	1037.945	789.076
48.242	13.524	1036.636	788.238
49.257	13.594	1035.808	787.875
50.271	13.529	1034.910	786.811
51.286	13.615	1034.164	786.585
52.301	13.551	1033.274	785.535
53.315	13.614	1032.302	785.022
54.330	13.620	1031.986	784.740
55.344	13.550	1030.782	783.424
56.359	13.399	1030.141	782.157
57.374	13.551	1029.096	782.010
58.388	13.431	1028.409	780.854
59.403	13.473	1027.324	780.158
60.417	13.421	1026.479	779.201
61.432	13.384	1026.258	778.793
62.447	13.497	1025.162	778.424
63.461	13.407	1024.386	777.340
64.476	13.440	1023.033	776.399
65.490	13.282	1022.851	775.454
66.505	13.376	1021.416	774.736
67.520	13.334	1020.903	774.080
68.534	13.378	1020.310	773.771
69.549	13.350	1019.374	772.860
70.563	13.363	1018.659	772.309
71.578	13.381	1017.922	771.768
72.593	13.380	1016.767	770.819
73.607	13.254	1016.178	769.719
74.622	13.295	1015.261	769.147
75.636	13.232	1014.373	768.111
76.651	13.320	1013.169	767.540
77.666	13.374	1012.771	767.420
78.680	13.310	1012.325	766.721
79.695	13.300	1011.248	765.791
80.709	13.387	1011.261	766.134
81.724	13.323	1010.229	764.991
82.739	13.513	1009.333	765.119
83.753	13.468	1008.692	764.362
84.768	13.578	1007.954	764.241
85.782	13.605	1007.142	763.684
86.797	13.611	1006.572	763.208
87.812	13.741	1005.002	762.549
88.826	13.674	1004.586	761.856
89.841	13.620	1003.654	760.838
90.855	13.589	1003.024	760.149
91.870	13.626	1002.359	759.748
92.884	13.631	1001.433	759.000
93.899	13.675	1000.898	758.728
94.914	13.727	999.870	758.120
95.928	13.862	998.995	758.005
96.943	13.757	998.802	757.313
97.957	13.660	998.099	756.272
98.972	13.742	996.547	755.404
99.987	13.622	996.105	754.456
101.001	13.813	995.183	754.558
102.016	13.783	994.130	753.556
103.030	13.782	992.958	752.598
104.045	13.631	992.518	751.513
105.060	13.748	991.670	751.335
106.074	13.618	990.733	749.969
107.089	13.434	989.498	748.137
108.103	13.497	988.683	747.738
109.118	13.501	987.849	747.058
110.133	13.538	986.758	746.334
111.147	13.538	985.846	745.581
112.162	13.457	985.144	744.618
113.176	13.447	984.655	744.137
114.191	13.537	983.468	743.577
115.206	13.585	982.602	743.074
116.220	13.425	982.244	742.019
117.235	13.457	981.219	741.324
118.249	13.527	980.232	740.827
119.264	13.575	979.004	740.045
120.279	13.480	978.541	739.204
121.293	13.586	977.558	738.869
122.308	13.499	976.754	737.811
123.322	13.419	976.155	736.937
124.337	13.491	974.604	736.019
125.352	13.359	974.135	735.015
126.366	13.437	972.617	734.149
127.381	13.352	972.045	733.277
128.395	13.511	970.983	733.113
129.410	13.505	969.672	732.033
130.424	13.553	968.798	731.521
131.439	13.538	968.040	730.818
132.454	13.539	967.520	730.362
133.468	13.621	966.546	729.924
134.483	13.599	966.274	729.559
135.497	13.582	965.306	728.690
136.512	13.498	964.612	727.733
137.527	13.512	963.777	727.100
138.541	13.577	963.244	726.917
139.556	13.463	962.477	725.775
140.570	13.505	961.909	725.466
141.585	13.640	960.586	724.993
142.600	13.735	960.285	725.118
143.614	13.754	959.128	724.264
144.629	13.785	958.578	723.922
145.643	13.708	958.015	723.092
146.658	13.815	956.818	722.594
147.673	13.805	956.062	721.913
148.687	13.598	955.523	720.543
149.702	13.606	954.646	719.853
150.716	13.597	953.714	719.048
151.731	13.525	952.901	718.061
152.746	13.653	951.964	717.845
153.760	13.651	951.528	717.442
154.775	13.637	950.613	716.626
155.789	13.693	949.989	716.339
156.804	13.746	948.809	715.613
157.819	13.756	948.537	715.388
158.833	13.961	947.459	715.395
159.848	13.882	946.857	714.537
160.862	13.860	946.605	714.190
161.877	13.807	945.535	713.088
162.892	13.832	944.767	712.554
163.906	13.802	943.445	711.366
164.921	13.596	943.016	710.095
165.935	13.544	942.399	709.346
166.950	13.600	941.197	708.619
167.964	13.811	940.128	708.650
168.979	13.720	939.061	707.396
169.994	13.719	938.218	706.693
171.008	13.905	937.194	706.655
172.023	13.723	936.631	705.392
173.037	13.892	935.732	705.370
174.052	13.952	934.879	704.920
175.067	13.911	934.421	704.337
176.081	13.796	933.685	703.232
177.096	13.773	932.744	702.364
178.110	13.752	931.892	701.571
179.125	13.816	930.883	701.020
180.140	13.899	930.163	700.766
181.154	13.868	929.542	700.107
182.169	13.961	928.721	699.819
183.183	13.989	928.173	699.462
184.198	14.011	927.584	699.048
185.213	14.150	926.839	699.009
186.227	14.179	926.134	698.538
187.242	13.933	926.555	697.762
188.256	14.162	925.347	697.748
189.271	14.141	924.692	697.106
190.286	14.111	923.822	696.262
191.300	13.974	922.991	695.001
192.315	14.030	922.003	694.429
193.329	13.953	921.289	693.509
194.344	13.925	920.619	692.825
195.359	13.998	920.484	692.967
196.373	14.007	919.489	692.196
197.388	14.093	919.251	692.313
198.402	14.226	918.547	692.273
199.417	14.202	918.424	692.021
200.432	14.205	917.705	691.432
201.446	14.235	917.893	691.635
202.461	14.316	917.197	691.386
203.475	14.173	916.800	690.433
204.490	14.375	915.603	690.308
205.504	14.280	914.773	689.227
206.519	14.250	913.883	688.370
207.534	14.214	913.274	687.702
208.548	14.300	912.490	687.407
209.563	14.336	911.905	687.053
210.577	14.430	910.918	686.638
211.592	14.326	910.714	685.993
212.607	14.245	910.311	685.294
213.621	14.470	909.449	685.512
214.636	14.382	908.744	684.560
215.650	14.397	908.094	684.068
216.665	14.450	907.406	683.709
217.680	14.544	906.519	683.362
218.694	14.521	906.441	683.152
219.709	14.628	905.355	682.710
220.723	14.525	905.020	681.977
221.738	14.547	904.211	681.395
222.753	14.523	903.382	680.614
223.767	14.530	903.123	680.386
224.782	14.647	901.954	679.923
225.796	14.617	901.316	679.257
226.811	14.662	900.930	679.092
227.826	14.644	900.028	678.278
228.840	14.548	899.567	677.478
229.855	14.458	898.802	676.477
230.869	14.579	898.042	676.336
231.884	14.530	897.743	675.854
232.899	14.574	896.728	675.209
233.913	14.499	896.376	674.581
234.928	14.621	895.214	674.138
235.942	14.647	894.334	673.523
236.957	14.492	893.890	672.501
237.972	14.602	893.156	672.332
238.986	14.582	892.582	671.763
240.001	14.681	892.149	671.774
241.015	14.580	891.250	670.633
242.030	14.666	890.657	670.470
243.045	14.695	889.956	670.000
244.059	14.745	889.599	669.873
245.074	14.779	888.906	669.428
246.088	14.803	888.264	668.984
247.103	14.837	887.609	668.567
248.117	14.799	887.111	667.981
249.132	14.942	886.383	667.943
250.147	14.987	885.675	667.529
251.161	15.207	885.125	667.933
252.176	15.025	884.360	666.574
253.190	15.164	883.581	666.481
254.205	15.140	883.204	666.041
255.220	15.069	882.915	665.480
256.234	15.205	881.835	665.149
257.249	15.172	881.178	664.462
258.263	15.213	880.622	664.148
259.278	15.117	880.301	663.465
260.293	15.132	879.707	663.021
261.307	15.180	879.513	663.004
262.322	15.330	878.527	662.796
263.336	15.273	877.784	661.953
264.351	15.327	877.364	661.787
265.366	15.294	877.105	661.406
266.380	15.494	876.084	661.366
267.395	15.409	875.255	660.344
268.409	15.314	874.757	659.538
269.424	15.405	873.807	659.121
270.439	15.418	873.392	658.802
271.453	15.387	872.698	658.098
272.468	15.333	871.771	657.126
273.482	15.455	870.990	656.958
274.497	15.364	870.471	656.155
275.512	15.451	869.760	655.901
276.526	15.446	868.583	654.933
277.541	15.381	868.572	654.613
278.555	15.451	867.949	654.361
279.570	15.374	867.731	653.837
280.585	15.457	867.178	653.687
281.599	15.674	866.420	653.900
282.614	15.365	866.149	652.436
283.628	15.487	865.162	652.108
284.643	15.456	864.558	651.476
285.657	15.569	863.807	651.292
286.672	15.447	863.640	650.634
287.687	15.504	863.142	650.422
288.701	15.437	862.648	649.733
289.716	15.569	861.760	649.516
290.730	15.557	861.645	649.327
291.745	15.714	860.828	649.262
292.760	15.635	859.807	648.126
293.774	15.701	859.113	647.804
294.789	15.698	858.752	647.459
295.803	15.756	857.844	646.941
296.818	15.654	857.383	646.147
297.833	15.622	856.904	645.605
298.847	15.761	855.602	645.098
299.862	15.650	855.581	644.602
300.876	15.721	854.476	643.982
301.891	15.858	854.013	644.101
302.906	15.960	853.129	643.769
303.920	15.824	852.752	642.906
304.935	15.910	852.063	642.658
305.949	15.960	851.437	642.319
306.964	15.977	850.867	641.899
307.979	16.052	850.209	641.631
308.993	16.021	849.851	641.185
310.008	16.117	849.009	640.857
311.022	16.137	848.268	640.316
312.037	15.995	848.317	639.761
313.052	16.079	847.844	639.663
314.066	15.968	847.056	638.591
315.081	16.094	846.298	638.443
316.095	15.854	845.950	637.214
317.110	15.956	845.332	637.078
318.125	15.970	844.881	636.734
319.139	15.930	844.031	635.886
320.154	15.890	844.029	635.679
321.168	15.908	843.611	635.374
322.183	15.830	843.293	634.786
323.197	15.890	842.393	634.279
324.212	15.956	841.967	634.149
325.227	15.999	840.894	633.445
326.241	16.047	840.509	633.281
327.256	16.054	840.118	632.957
328.270	16.023	839.562	632.366
329.285	16.054	839.044	632.034
330.300	16.102	838.541	631.779
331.314	15.989	838.029	630.917
332.329	16.112	837.009	630.553
333.343	16.182	836.272	630.201
334.358	16.288	835.721	630.125
335.373	16.075	835.664	629.234
336.387	16.231	834.787	629.099
337.402	16.196	834.134	628.419
338.416	16.297	833.971	628.620
339.431	16.379	833.342	628.395
340.446	16.372	832.753	627.867
341.460	16.288	832.188	627.073
342.475	16.378	831.655	626.952
343.489	16.493	830.967	626.804
344.504	16.531	830.308	626.393
345.519	16.395	830.176	625.734
346.533	16.506	829.765	625.779
347.548	16.666	829.033	625.764
348.562	16.521	828.601	624.846
349.577	16.580	827.836	624.429
350.592	16.384	827.361	623.296
351.606	16.467	826.826	623.141
352.621	16.470	826.368	622.752
353.635	16.409	826.337	622.449
354.650	16.485	825.767	622.245
355.665	16.441	825.738	622.006
356.679	16.470	825.010	621.510
357.694	16.714	824.068	621.642
358.708	16.709	823.651	621.254
359.723	16.588	823.138	620.369
360.738	16.671	822.564	620.185
361.752	16.692	821.928	619.727
362.767	16.684	821.460	619.292
363.781	16.655	821.162	618.903
364.796	16.684	821.087	618.898
365.810	16.668	820.535	618.368
366.825	16.890	819.998	618.719
367.840	16.950	819.913	618.820
368.854	16.832	819.262	617.843
369.869	16.969	818.698	617.863
370.883	16.821	818.257	616.936
371.898	16.864	817.598	616.542
372.913	17.053	816.927	616.668
373.927	16.978	816.419	615.958
374.942	16.914	815.322	614.843
375.956	17.003	814.925	614.812
376.971	17.014	814.688	614.621
377.986	17.059	813.718	613.996
379.000	16.980	813.288	613.331
380.015	17.086	812.750	613.256
381.029	17.067	812.531	612.966
382.044	17.148	811.948	612.764
383.059	17.125	811.313	612.148
384.073	17.174	810.872	611.938
385.088	17.078	810.541	611.288
386.102	17.081	809.891	610.754
387.117	17.109	808.965	610.105
388.132	17.154	808.878	610.146
389.146	17.023	808.467	609.309
390.161	17.175	807.820	609.315
391.175	17.175	807.281	608.854
392.190	17.257	807.176	609.016
393.205	17.158	806.866	608.371
394.219	17.325	806.062	608.308
395.234	17.228	805.296	607.330
396.248	17.117	805.307	606.889
397.263	17.185	804.760	606.665
398.278	17.206	803.875	606.020
399.292	17.102	803.726	605.481
400.307	17.146	803.527	605.436
401.321	17.160	803.093	605.107
402.336	17.078	802.718	604.477
403.350	17.099	802.164	604.083
404.365	17.196	801.726	604.044
405.380	17.217	801.571	603.947
406.394	17.380	801.219	604.207
407.409	17.424	800.533	603.792
408.423	17.399	800.113	603.336
409.438	17.413	799.615	602.955
410.453	17.485	799.113	602.778
411.467	17.736	798.359	603.044
412.482	17.604	798.112	602.339
413.496	17.617	797.680	602.004
414.511	17.620	797.156	601.566
415.526	17.628	797.039	601.453
416.540	17.501	796.801	600.772
417.555	17.503	796.130	600.219
418.569	17.660	795.823	600.487
419.584	17.747	795.227	600.292
420.599	17.724	794.809	599.843
421.613	110.582	1292.887	1474.285
422.628	95.077	1365.437	1474.369
