DTS Sentinel unit serial number:	SN413079Multiplexer serial number:	ORYXHardware model number:	OX4-SRSoftware version number:	ORYX F/W v4.00 Oryx Data Collector v3.7.2.0data status	okinstallation	princeton_trtdifferential loss correction	single-endedforward channel	channel 3reverse channel	N/Adate	2019/09/10time	16:50:10forward acquisition time	60.00reverse acquisition time	0.00gamma	496.2192k internal	0.2299k external	0.2299temperature offset calibration	0.9910default loss term (dB/km)	0.3790temperature slope calibration	1.0000multiplexer offset coefficient	1.0000multiplexer slope coefficient	1.0000fibre end	0.00T internal ref (°C)	37.62T ext. ref 1 (°C)	-0.31T ext. ref 2 (°C)	32.23length (m)	temperature (°C)	Stokes	anti-Stokes-747.200	-14.654	0.039	-0.026
-746.185	34.597	-0.167	0.148
-745.171	-200.000	-0.030	0.149
-744.156	800.000	0.072	-0.218
-743.142	20.938	0.065	-0.054
-742.127	-121.861	-0.291	0.049
-741.112	-83.067	0.170	-0.056
-740.098	-200.000	-0.023	0.188
-739.083	-50.942	0.146	0.070
-738.069	-74.468	-0.414	0.152
-737.054	-200.000	-0.024	0.186
-736.039	569.822	-0.093	0.230
-735.025	-93.870	0.259	0.073
-734.010	-84.037	-0.111	-0.036
-732.996	-193.039	-0.072	0.001
-731.981	-139.140	-0.307	0.034
-730.966	800.000	-0.029	-0.089
-729.952	46.415	-0.147	0.139
-728.937	42.659	-0.160	-0.149
-727.923	280.824	-0.068	-0.124
-726.908	-200.000	-0.049	-0.482
-725.894	-200.000	0.089	0.409
-724.879	-161.883	-0.401	-0.021
-723.864	-200.000	-0.003	0.373
-722.850	297.024	-0.148	-0.277
-721.835	800.000	-0.042	-0.120
-720.821	0.728	-0.144	-0.105
-719.806	-200.000	0.026	0.257
-718.791	-200.000	0.000	-0.292
-717.777	-20.092	-0.222	0.140
-716.762	36.385	-0.052	0.047
-715.748	800.000	-0.020	-0.074
-714.733	-85.776	0.253	-0.080
-713.718	89.210	-0.165	-0.187
-712.704	357.422	-0.076	0.155
-711.689	-143.277	0.097	-0.009
-710.675	-200.000	0.017	-0.419
-709.660	-31.163	-0.298	-0.171
-708.645	-200.000	0.026	0.431
-707.631	31.404	-0.095	0.083
-706.616	-4.094	-0.315	-0.222
-705.602	-51.633	-0.399	-0.190
-704.587	-88.426	0.270	-0.082
-703.572	-200.000	-0.082	-0.411
-702.558	167.703	0.103	-0.150
-701.543	686.925	0.152	0.404
-700.529	147.135	0.064	0.087
-699.514	800.000	-0.055	0.200
-698.499	336.898	0.109	0.215
-697.485	117.629	0.112	-0.140
-696.470	-87.893	-0.379	0.116
-695.456	-4.184	-0.184	-0.130
-694.441	-200.000	-0.027	-0.303
-693.426	734.442	-0.038	0.104
-692.412	800.000	0.035	-0.121
-691.397	182.378	-0.114	-0.172
-690.383	101.170	0.295	-0.349
-689.368	-200.000	-0.038	-0.173
-688.354	-131.566	0.256	-0.034
-687.339	108.538	-0.080	-0.097
-686.324	-36.488	-0.159	0.087
-685.310	19.677	-0.340	-0.279
-684.295	333.919	-0.171	0.337
-683.281	-24.203	0.196	0.119
-682.266	-200.000	-0.037	-0.252
-681.251	76.319	-0.171	-0.185
-680.237	180.264	-0.088	0.131
-679.222	-14.751	0.114	-0.074
-678.208	102.632	0.030	0.036
-677.193	15.724	-0.091	-0.073
-676.178	54.737	-0.027	-0.026
-675.164	34.285	0.228	-0.203
-674.149	31.245	-0.187	-0.163
-673.135	-78.753	-0.247	0.086
-672.120	-200.000	-0.007	-0.205
-671.105	658.028	0.117	0.306
-670.091	-64.059	-0.111	0.046
-669.076	-200.000	0.015	0.131
-668.062	68.078	0.127	0.133
-667.047	-40.394	0.455	-0.241
-666.032	430.110	-0.207	0.456
-665.018	800.000	-0.101	-0.303
-664.003	571.787	0.102	-0.253
-662.989	414.735	0.005	-0.011
-661.974	42.920	-0.178	-0.165
-660.959	-200.000	0.010	-0.171
-659.945	373.933	0.088	0.182
-658.930	-115.569	0.362	-0.069
-657.916	-108.761	-0.208	0.045
-656.901	304.992	0.229	0.433
-655.886	-200.000	0.008	-0.150
-654.872	261.156	-0.168	0.296
-653.857	-200.000	0.052	0.357
-652.843	-18.359	-0.126	0.080
-651.828	-82.493	0.172	0.057
-650.814	-200.000	-0.012	0.228
-649.799	458.865	-0.027	0.060
-648.784	-15.208	-0.164	0.107
-647.770	25.123	0.472	-0.398
-646.755	-131.263	-0.264	0.036
-645.741	-27.935	-0.284	-0.167
-644.726	91.639	-0.055	0.063
-643.711	-66.949	0.111	0.044
-642.697	18.596	0.108	-0.088
-641.682	66.611	0.187	0.193
-640.668	800.000	0.046	0.144
-639.653	-160.073	0.275	-0.015
-638.638	-27.119	0.217	-0.129
-637.624	122.667	0.027	0.034
-636.609	578.723	0.015	-0.038
-635.595	800.000	0.002	-0.005
-634.580	-90.202	0.271	0.080
-633.565	800.000	0.090	0.306
-632.551	3.681	0.057	-0.043
-631.536	8.763	0.073	-0.056
-630.522	-200.000	-0.043	-0.284
-629.507	75.244	0.351	-0.376
-628.492	115.646	-0.102	0.126
-627.478	69.953	0.237	0.248
-626.463	-21.897	-0.109	-0.067
-625.449	30.522	0.154	-0.134
-624.434	-200.000	0.025	0.145
-623.419	9.746	-0.047	-0.036
-622.405	62.635	0.067	-0.068
-621.390	-95.251	0.198	-0.054
-620.376	5.073	0.101	-0.075
-619.361	-200.000	0.012	0.257
-618.346	98.365	0.114	-0.134
-617.332	-200.000	0.060	-0.346
-616.317	-149.367	-0.028	0.002
-615.303	573.840	0.048	0.120
-614.288	550.435	0.092	0.224
-613.273	-110.203	-0.267	-0.057
-612.259	-110.652	0.159	-0.033
-611.244	-139.237	0.319	-0.035
-610.230	-113.421	-0.535	0.106
-609.215	-24.026	-0.168	-0.102
-608.201	-21.836	-0.410	0.253
-607.186	-200.000	0.010	-0.133
-606.171	-127.831	-0.309	0.045
-605.157	-109.375	0.076	0.016
-604.142	105.061	-0.181	0.216
-603.128	47.198	0.098	-0.092
-602.113	-91.489	-0.097	-0.028
-601.098	-200.000	-0.023	-0.586
-600.084	27.923	0.113	0.097
-599.069	130.822	-0.231	-0.300
-598.055	-60.526	-0.153	-0.066
-597.040	800.000	0.035	-0.110
-596.025	394.740	-0.108	-0.229
-595.011	800.000	-0.049	-0.165
-593.996	221.666	0.205	-0.334
-592.982	-44.158	-0.283	-0.144
-591.967	777.024	0.067	0.187
-590.952	-200.000	0.040	-0.200
-589.938	-175.727	0.141	-0.004
-588.923	-200.000	-0.005	0.107
-587.909	-143.681	0.425	0.041
-586.894	-4.706	-0.157	-0.110
-585.879	-28.639	-0.373	-0.218
-584.865	14.438	-0.179	0.142
-583.850	-200.000	-0.066	-0.324
-582.836	800.000	0.026	-0.096
-581.821	-200.000	-0.014	-0.100
-580.806	-88.708	-0.293	-0.088
-579.792	-72.269	-0.282	0.106
-578.777	-10.329	-0.102	0.069
-577.763	800.000	-0.079	0.301
-576.748	800.000	-0.096	0.306
-575.733	114.266	0.041	0.050
-574.719	-135.502	-0.136	0.016
-573.704	-162.317	-0.147	0.007
-572.690	238.875	0.093	-0.156
-571.675	800.000	0.031	-0.130
-570.661	-115.462	0.250	0.048
-569.646	-63.845	0.183	0.076
-568.631	710.943	-0.069	-0.185
-567.617	179.442	-0.130	-0.193
-566.602	-200.000	-0.015	-0.111
-565.588	76.687	-0.062	-0.066
-564.573	800.000	0.111	-0.311
-563.558	-102.406	-0.356	0.086
-562.544	287.721	-0.147	-0.270
-561.529	-67.439	-0.302	0.120
-560.515	-45.804	-0.040	-0.020
-559.500	-43.828	-0.114	-0.058
-558.485	-108.393	-0.213	-0.046
-557.471	-129.450	0.247	-0.035
-556.456	-42.105	0.073	0.038
-555.442	223.514	-0.073	0.119
-554.427	-87.819	-0.257	-0.078
-553.412	-25.349	0.073	0.044
-552.398	-77.872	0.117	-0.041
-551.383	-200.000	-0.009	-0.343
-550.369	583.473	0.083	0.206
-549.354	240.966	0.049	0.083
-548.339	-87.380	0.091	-0.028
-547.325	-46.949	-0.482	-0.238
-546.310	354.632	0.219	-0.441
-545.296	-71.347	0.451	-0.171
-544.281	-46.195	-0.115	-0.057
-543.266	321.075	0.067	0.129
-542.252	-200.000	-0.002	0.122
-541.237	-48.704	-0.229	-0.111
-540.223	109.653	-0.153	0.186
-539.208	18.752	0.217	0.175
-538.193	34.607	-0.223	-0.198
-537.179	-200.000	-0.013	-0.123
-536.164	-118.655	-0.218	-0.039
-535.150	-170.883	0.103	0.004
-534.135	18.894	0.073	-0.059
-533.121	-86.186	-0.423	-0.132
-532.106	-37.896	-0.220	-0.118
-531.091	-34.008	-0.180	-0.100
-530.077	364.750	0.046	-0.093
-529.062	-200.000	-0.041	0.202
-528.048	-68.418	-0.142	-0.056
-527.033	-200.000	-0.036	-0.286
-526.018	253.538	-0.049	0.084
-525.004	-44.362	0.099	0.050
-523.989	-134.212	-0.195	0.024
-522.975	11.790	0.317	0.246
-521.960	22.991	-0.304	-0.252
-520.945	160.691	0.238	-0.336
-519.931	-130.950	-0.081	-0.011
-518.916	800.000	0.118	0.496
-517.902	800.000	-0.045	0.171
-516.887	201.996	0.012	-0.019
-515.872	-175.336	0.243	-0.007
-514.858	-200.000	-0.050	0.237
-513.843	-86.468	-0.141	-0.044
-512.829	-61.777	-0.111	-0.047
-511.814	201.588	0.145	-0.226
-510.799	273.126	-0.143	0.256
-509.785	40.573	-0.227	-0.207
-508.770	-121.191	-0.032	0.005
-507.756	-200.000	-0.039	0.299
-506.741	-80.499	-0.095	-0.032
-505.726	-105.270	-0.288	-0.066
-504.712	-200.000	0.026	-0.200
-503.697	-92.525	0.238	-0.068
-502.683	-91.869	0.100	0.029
-501.668	-200.000	-0.043	0.274
-500.653	8.355	-0.177	0.135
-499.639	-107.291	-0.054	-0.012
-498.624	-83.963	-0.132	0.042
-497.610	651.575	-0.104	0.269
-496.595	-127.807	0.193	-0.028
-495.581	-200.000	0.035	-0.358
-494.566	21.342	0.163	0.134
-493.551	67.579	-0.078	-0.080
-492.537	800.000	-0.139	-0.575
-491.522	800.000	0.031	0.130
-490.508	-107.802	0.334	0.074
-489.493	-94.456	0.033	0.009
-488.478	4.943	-0.332	0.247
-487.464	-79.299	0.152	0.052
-486.449	-172.049	0.218	-0.007
-485.435	66.162	-0.180	-0.185
-484.420	448.557	0.130	0.288
-483.405	-200.000	-0.071	-0.318
-482.391	566.595	0.018	0.043
-481.376	-133.553	-0.330	0.042
-480.362	138.414	-0.128	0.169
-479.347	-143.382	0.237	-0.023
-478.332	-200.000	-0.026	0.170
-477.318	77.355	0.083	-0.089
-476.303	-200.000	0.027	-0.160
-475.289	254.775	0.171	0.296
-474.274	492.725	0.129	-0.298
-473.259	247.905	-0.095	0.162
-472.245	-159.687	0.077	0.004
-471.230	-7.289	0.375	-0.257
-470.216	-200.000	0.026	-0.231
-469.201	-200.000	0.066	0.314
-468.186	35.384	0.238	-0.211
-467.172	-71.305	0.135	-0.051
-466.157	403.151	-0.228	0.484
-465.143	-92.188	0.214	0.061
-464.128	800.000	-0.155	-0.504
-463.113	185.396	-0.117	0.175
-462.099	84.586	-0.112	-0.124
-461.084	49.907	0.195	-0.185
-460.070	329.533	-0.097	-0.188
-459.055	-53.178	-0.286	0.133
-458.040	-200.000	-0.040	0.374
-457.026	709.039	0.119	0.317
-456.011	52.241	0.079	-0.076
-454.997	551.656	0.061	0.147
-453.982	-137.198	0.213	-0.024
-452.968	-131.525	0.306	0.041
-451.953	-89.472	-0.274	-0.081
-450.938	-123.777	-0.379	-0.060
-449.924	-60.252	0.290	0.125
-448.909	800.000	-0.078	-0.237
-447.895	40.845	-0.215	-0.196
-446.880	-155.837	-0.269	0.017
-445.865	-172.731	-0.263	-0.008
-444.851	-58.848	-0.060	0.026
-443.836	22.614	0.082	-0.068
-442.822	-200.000	0.025	0.239
-441.807	-200.000	-0.076	0.368
-440.792	-27.418	0.135	-0.079
-439.778	-22.546	-0.089	-0.054
-438.763	687.775	-0.079	0.208
-437.749	-69.344	-0.194	0.075
-436.734	5.383	-0.111	0.082
-435.719	-117.642	0.021	0.004
-434.705	267.360	0.110	-0.194
-433.690	800.000	-0.075	-0.241
-432.676	-90.123	-0.219	0.064
-431.661	-97.586	-0.248	-0.065
-430.646	491.133	0.035	0.080
-429.632	-136.753	-0.226	-0.026
-428.617	218.522	0.090	-0.145
-427.603	-200.000	0.007	0.082
-426.588	-200.000	-0.009	0.071
-425.573	-200.000	-0.097	-0.476
-424.559	784.541	0.120	-0.331
-423.544	237.699	0.153	-0.255
-422.530	-200.000	0.014	-0.111
-421.515	-200.000	-0.001	0.092
-420.500	17.234	-0.160	-0.128
-419.486	-58.098	0.530	-0.233
-418.471	800.000	-0.032	0.102
-417.457	800.000	-0.091	0.285
-416.442	-36.389	0.277	0.151
-415.428	800.000	-0.044	-0.142
-414.413	9.647	0.149	0.114
-413.398	-125.731	0.347	0.053
-412.384	131.876	-0.260	0.337
-411.369	800.000	0.135	0.490
-410.355	19.474	0.252	0.204
-409.340	-93.229	-0.236	-0.066
-408.325	2.784	0.112	0.081
-407.311	-117.373	0.139	0.025
-406.296	-200.000	0.041	-0.239
-405.282	200.319	0.226	-0.349
-404.267	800.000	-0.117	0.357
-403.252	153.580	0.068	0.093
-402.238	72.138	0.192	-0.202
-401.223	85.824	0.122	-0.135
-400.209	-200.000	-0.018	0.107
-399.194	758.946	-0.055	0.150
-398.179	9.619	0.285	0.217
-397.165	289.893	-0.123	-0.225
-396.150	-200.000	-0.001	0.034
-395.136	136.925	0.208	0.274
-394.121	189.414	0.121	-0.183
-393.106	-3.389	0.130	-0.091
-392.092	-114.351	-0.167	-0.032
-391.077	613.045	-0.063	-0.158
-390.063	412.455	0.108	0.230
-389.048	-114.624	-0.202	0.039
-388.033	34.383	0.170	-0.149
-387.019	-155.343	-0.109	-0.007
-386.004	309.591	-0.173	-0.325
-384.990	-73.197	0.133	-0.049
-383.975	-136.794	-0.298	-0.034
-382.960	594.379	0.053	-0.132
-381.946	-200.000	0.009	-0.060
-380.931	157.786	0.018	0.026
-379.917	10.445	-0.199	0.153
-378.902	462.442	-0.075	-0.169
-377.888	248.286	-0.186	0.316
-376.873	613.885	-0.043	-0.108
-375.858	47.083	-0.151	0.141
-374.844	-110.156	-0.121	-0.025
-373.829	-93.692	0.287	0.080
-372.815	370.583	0.134	0.274
-371.800	145.914	0.285	0.384
-370.785	-200.000	0.024	-0.306
-369.771	-187.692	-0.128	0.002
-368.756	-191.182	0.186	0.002
-367.742	383.521	0.136	-0.281
-366.727	-200.000	0.022	-0.201
-365.712	-200.000	-0.004	-0.195
-364.698	50.254	-0.164	-0.156
-363.683	591.521	-0.088	0.219
-362.669	-107.968	0.237	0.052
-361.654	-84.051	0.108	-0.034
-360.639	-135.868	-0.058	-0.007
-359.625	55.306	-0.161	-0.157
-358.610	109.493	0.145	0.174
-357.596	83.768	0.091	0.100
-356.581	-113.972	0.118	0.023
-355.566	24.728	-0.168	-0.140
-354.552	-128.536	0.192	0.027
-353.537	262.072	-0.165	0.287
-352.523	-94.967	-0.179	0.049
-351.508	225.071	-0.225	0.366
-350.493	121.518	-0.123	-0.154
-349.479	439.270	0.118	-0.259
-348.464	6.619	0.118	-0.088
-347.450	-71.640	0.159	-0.060
-346.435	588.539	-0.021	-0.052
-345.420	-200.000	0.014	0.247
-344.406	-36.663	0.055	-0.030
-343.391	151.397	0.192	0.263
-342.377	-67.183	-0.072	-0.028
-341.362	800.000	0.073	-0.288
-340.348	141.213	-0.119	0.158
-339.333	-200.000	-0.032	-0.139
-338.318	176.062	0.068	0.099
-337.304	76.195	-0.079	0.084
-336.289	69.729	-0.145	0.150
-335.275	11.730	0.138	0.107
-334.260	-116.316	-0.195	-0.036
-333.245	-84.569	0.031	-0.010
-332.231	80.729	0.138	0.150
-331.216	-200.000	0.045	-0.442
-330.202	-48.939	-0.183	-0.088
-329.187	13.649	0.134	-0.104
-328.172	-154.139	-0.255	0.017
-327.158	-200.000	0.019	0.132
-326.143	-140.802	-0.179	0.019
-325.129	343.488	0.026	-0.050
-324.114	308.457	-0.074	0.138
-323.099	92.792	0.009	-0.011
-322.085	-65.528	0.109	-0.044
-321.070	410.908	-0.139	0.296
-320.056	-54.138	0.286	-0.131
-319.041	294.399	-0.093	-0.171
-318.026	-73.792	-0.039	-0.014
-317.012	-96.413	-0.270	-0.072
-315.997	59.649	-0.272	0.269
-314.983	15.493	-0.090	-0.071
-313.968	280.880	0.109	0.195
-312.953	-200.000	0.006	0.132
-311.939	-200.000	-0.005	0.203
-310.924	-200.000	0.029	0.195
-309.910	-68.265	0.380	0.148
-308.895	148.954	-0.122	0.165
-307.880	670.032	0.029	-0.076
-306.866	133.246	0.081	-0.105
-305.851	-18.263	0.078	0.049
-304.837	76.271	0.070	-0.075
-303.822	-71.021	0.391	0.148
-302.807	-95.718	-0.144	-0.039
-301.793	-108.986	0.132	-0.028
-300.778	229.596	0.060	0.098
-299.764	-200.000	-0.042	-0.213
-298.749	-35.761	0.041	-0.022
-297.735	-200.000	-0.107	0.472
-296.720	-41.098	0.453	-0.235
-295.705	-200.000	-0.008	-0.060
-294.691	90.105	-0.072	0.081
-293.676	108.189	-0.313	-0.375
-292.662	17.410	-0.274	-0.219
-291.647	800.000	0.081	-0.270
-290.632	-142.257	-0.399	0.040
-289.618	115.627	-0.003	-0.004
-288.603	72.858	0.179	0.188
-287.589	-19.017	0.069	-0.043
-286.574	140.859	-0.133	-0.176
-285.559	-131.211	0.248	0.033
-284.545	424.600	0.080	0.172
-283.530	71.122	-0.199	-0.207
-282.516	-176.436	0.169	-0.004
-281.501	-200.000	0.014	-0.083
-280.486	-200.000	0.067	-0.336
-279.472	78.930	0.084	0.090
-278.457	-133.997	0.152	0.019
-277.443	368.583	0.113	-0.229
-276.428	-183.937	0.382	0.006
-275.413	-64.716	-0.076	-0.031
-274.399	-92.155	-0.317	0.090
-273.384	-79.828	0.201	-0.068
-272.370	-200.000	-0.064	-0.322
-271.355	-57.069	0.425	-0.188
-270.340	-200.000	0.071	0.456
-269.326	-117.901	0.249	0.045
-268.311	109.624	0.134	-0.160
-267.297	-200.000	0.017	0.212
-266.282	-30.088	-0.204	0.116
-265.267	-169.773	-0.304	0.011
-264.253	119.719	-0.088	-0.109
-263.238	122.711	-0.116	0.145
-262.224	-55.773	-0.323	-0.145
-261.209	25.734	-0.305	0.254
-260.195	89.067	0.168	0.188
-259.180	400.082	0.088	0.185
-258.165	49.697	0.252	0.238
-257.151	-200.000	0.032	-0.231
-256.136	31.216	0.128	0.110
-255.122	490.510	0.130	-0.298
-254.107	-142.029	-0.179	0.018
-253.092	-200.000	0.036	0.213
-252.078	229.194	-0.114	0.187
-251.063	483.287	0.152	0.346
-250.049	-83.052	0.322	0.104
-249.034	52.567	-0.137	0.131
-248.019	372.709	0.249	0.506
-247.005	250.232	-0.140	0.237
-245.990	-110.544	0.051	-0.011
-244.976	447.512	0.075	-0.166
-243.961	-200.000	0.015	0.116
-242.946	-69.746	0.052	-0.020
-241.932	-101.853	0.057	0.014
-240.917	-136.039	0.440	-0.052
-239.903	104.083	0.116	0.136
-238.888	-41.989	-0.388	0.199
-237.873	216.952	-0.113	-0.180
-236.859	-18.667	-0.106	0.066
-235.844	-93.533	0.154	0.043
-234.830	-29.368	-0.171	0.098
-233.815	11.359	0.127	-0.097
-232.800	-144.653	-0.163	-0.015
-231.786	-199.543	0.417	-0.002
-230.771	-200.000	0.031	0.282
-229.757	367.272	0.065	-0.131
-228.742	68.911	-0.188	-0.193
-227.727	-114.818	-0.199	-0.038
-226.713	-11.322	-0.094	-0.062
-225.698	-104.202	0.035	-0.008
-224.684	-200.000	0.010	0.370
-223.669	-200.000	-0.006	-0.030
-222.655	-200.000	0.041	0.271
-221.640	-130.682	-0.318	-0.043
-220.625	73.131	0.197	-0.206
-219.611	800.000	0.033	-0.137
-218.596	617.680	0.043	-0.107
-217.582	-30.683	0.203	-0.115
-216.567	-47.450	0.237	0.115
-215.552	-200.000	-0.038	-0.350
-214.538	800.000	-0.102	-0.300
-213.523	358.133	0.112	-0.223
-212.509	-158.197	-0.327	-0.019
-211.494	-168.572	0.205	-0.008
-210.479	309.378	-0.110	0.205
-209.465	800.000	0.046	-0.172
-208.450	-74.868	0.159	-0.057
-207.436	-39.244	-0.114	0.060
-206.421	-60.702	-0.139	-0.059
-205.406	32.460	-0.183	0.158
-204.392	331.291	0.093	0.179
-203.377	800.000	0.073	0.205
-202.363	-200.000	0.015	0.096
-201.348	617.102	0.028	-0.070
-200.333	-200.000	0.038	-0.189
-199.319	-30.208	0.101	0.057
-198.304	337.532	-0.058	0.112
-197.290	126.857	0.061	-0.077
-196.275	539.244	0.135	0.320
-195.260	-126.306	-0.381	-0.057
-194.246	9.397	0.150	0.113
-193.231	295.604	0.074	0.136
-192.217	312.627	0.223	0.418
-191.202	-27.738	-0.505	0.292
-190.187	800.000	0.023	0.079
-189.173	-83.749	0.065	-0.021
-188.158	-14.493	0.043	0.028
-187.144	-200.000	-0.035	-0.157
-186.129	-19.981	0.274	-0.169
-185.114	-67.397	-0.281	0.110
-184.100	-165.752	0.272	0.012
-183.085	-77.823	-0.133	-0.046
-182.071	284.599	0.062	-0.112
-181.056	-128.888	0.354	-0.050
-180.042	781.268	-0.078	-0.213
-179.027	777.023	0.055	0.150
-178.012	342.460	0.039	-0.076
-176.998	-65.150	-0.270	0.108
-175.983	-52.516	0.153	0.071
-174.969	-129.038	0.236	0.033
-173.954	12.681	-0.177	0.137
-172.939	-200.000	0.006	-0.244
-171.925	-102.638	0.159	-0.038
-170.910	393.410	-0.124	0.257
-169.896	-72.403	-0.281	0.104
-168.881	-85.225	0.384	-0.120
-167.866	529.515	-0.293	-0.691
-166.852	-106.860	0.094	-0.021
-165.837	-155.934	-0.285	0.018
-164.823	-128.705	0.398	0.056
-163.808	121.623	0.043	0.054
-162.793	-200.000	-0.136	0.656
-161.779	-128.892	0.267	-0.037
-160.764	-49.555	-0.222	0.105
-159.750	-200.000	0.049	0.336
-158.735	-200.000	-0.092	0.420
-157.720	-200.000	0.010	-0.167
-156.706	-121.286	-0.190	-0.032
-155.691	-88.243	0.063	-0.019
-154.677	21.506	-0.272	0.221
-153.662	800.000	0.023	-0.091
-152.647	-27.815	-0.123	0.071
-151.633	-136.440	0.264	0.031
-150.618	-200.000	-0.005	-0.264
-149.604	-71.298	0.340	-0.127
-148.589	-129.765	-0.238	-0.033
-147.574	70.970	0.272	0.281
-146.560	439.369	-0.094	-0.205
-145.545	-20.000	0.096	0.059
-144.531	-135.471	0.215	-0.026
-143.516	46.293	0.059	-0.054
-142.502	-122.117	0.101	0.017
-141.487	714.064	-0.068	-0.179
-140.472	-19.425	-0.097	0.060
-139.458	-103.914	-0.322	0.075
-138.443	-25.006	0.164	-0.097
-137.429	110.120	0.105	0.126
-136.414	195.962	0.233	0.353
-135.399	430.533	0.183	-0.394
-134.385	-34.130	0.234	-0.128
-133.370	-200.000	-0.028	0.129
-132.356	-113.806	0.386	0.075
-131.341	-200.000	0.002	-0.286
-130.326	-7.313	-0.088	0.059
-129.312	-200.000	-0.024	0.166
-128.297	30.770	-0.172	0.146
-127.283	-20.501	0.211	0.129
-126.268	57.383	0.100	0.098
-125.253	101.408	-0.067	-0.078
-124.239	-121.340	-0.407	0.068
-123.224	-74.676	0.147	-0.053
-122.210	-134.239	0.118	0.014
-121.195	513.201	0.098	0.227
-120.180	24.770	-0.057	0.047
-119.166	61.166	-0.064	0.063
-118.151	405.089	-0.129	0.270
-117.137	-84.032	-0.206	-0.065
-116.122	-200.000	-0.001	0.243
-115.107	309.198	-0.060	0.112
-114.093	-20.622	0.037	0.022
-113.078	-152.027	0.458	-0.033
-112.064	108.161	-0.123	0.146
-111.049	-160.202	0.171	-0.009
-110.034	800.000	0.127	0.441
-109.020	161.496	0.077	0.108
-108.005	-153.003	0.134	-0.009
-106.991	-32.210	0.335	0.186
-105.976	188.190	0.147	-0.218
-104.962	-18.603	0.299	-0.186
-103.947	-200.000	0.008	0.048
-102.932	-56.932	-0.104	-0.046
-101.918	102.052	-0.097	-0.113
-100.903	7.266	0.267	0.198
-99.889	800.000	0.015	-0.043
-98.874	-166.981	0.168	-0.007
-97.859	343.728	-0.140	0.273
-96.845	1.919	0.148	0.106
-95.830	399.212	-0.042	-0.088
-94.816	179.356	-0.103	0.150
-93.801	-13.098	0.096	0.062
-92.786	-25.701	-0.165	0.097
-91.772	86.900	-0.218	-0.240
-90.757	800.000	-0.039	-0.163
-89.743	97.792	0.034	0.039
-88.728	7.889	-0.335	-0.250
-87.713	33.755	0.174	0.151
-86.699	231.104	0.125	0.204
-85.684	-90.330	-0.418	-0.121
-84.670	572.674	0.128	0.310
-83.655	800.000	-0.039	-0.141
-82.640	-200.000	0.024	-0.122
-81.626	24.000	0.164	0.134
-80.611	28.822	0.057	0.048
-79.597	697.938	-0.054	-0.140
-78.582	800.000	0.040	0.149
-77.567	-63.480	-0.283	-0.115
-76.553	255.286	0.094	0.161
-75.538	-36.397	-0.168	-0.090
-74.524	-200.000	-0.023	0.250
-73.509	-9.182	-0.026	-0.017
-72.494	-200.000	0.033	-0.420
-71.480	-200.000	-0.009	0.066
-70.465	-112.799	-0.244	-0.048
-69.451	69.937	0.061	0.063
-68.436	23.308	-0.090	0.073
-67.422	-85.055	0.660	0.205
-66.407	508.763	0.074	0.171
-65.392	-183.113	-0.518	0.009
-64.378	-200.000	-0.016	0.126
-63.363	-100.976	0.086	0.021
-62.349	-200.000	0.090	0.562
-61.334	-1.711	-0.778	-0.544
-60.319	381.628	0.118	0.241
-59.305	-200.000	-0.035	-0.920
-58.290	546.764	0.466	1.108
-57.276	241.649	0.693	1.150
-56.261	-200.000	85.964	507.207
-55.246	550.629	1376.849	3280.353
-54.232	179.739	2631.041	3827.412
-53.217	117.900	2275.332	2783.280
-52.203	47.377	1803.260	1668.400
-51.188	40.819	1607.990	1440.339
-50.173	38.146	1580.827	1396.863
-49.159	54.749	1624.132	1555.704
-48.144	58.698	1643.588	1602.883
-47.130	41.068	1603.398	1437.794
-46.115	37.874	1588.604	1401.560
-45.100	37.751	1584.953	1397.398
-44.086	37.614	1583.742	1395.290
-43.071	37.560	1581.295	1392.696
-42.057	37.626	1579.247	1391.306
-41.042	37.607	1577.901	1389.931
-40.027	37.603	1576.570	1388.676
-39.013	37.567	1575.140	1387.106
-37.998	37.492	1573.951	1385.469
-36.984	37.658	1572.276	1385.116
-35.969	37.698	1570.670	1383.931
-34.954	37.694	1569.656	1382.954
-33.940	37.650	1567.918	1381.057
-32.925	37.632	1567.035	1380.098
-31.911	37.628	1565.478	1378.642
-30.896	37.672	1563.642	1377.284
-29.881	37.634	1562.671	1376.109
-28.867	37.764	1560.987	1375.489
-27.852	37.627	1560.221	1373.792
-26.838	37.643	1558.373	1372.218
-25.823	37.631	1556.534	1370.461
-24.809	37.578	1554.973	1368.660
-23.794	37.665	1553.609	1368.018
-22.779	37.622	1552.414	1366.609
-21.765	37.766	1551.045	1366.359
-20.750	37.736	1549.589	1364.813
-19.736	37.656	1548.827	1363.530
-18.721	37.610	1547.647	1362.111
-17.706	37.676	1546.096	1361.156
-16.692	37.634	1545.367	1360.167
-15.677	37.658	1544.225	1359.273
-14.663	37.616	1542.665	1357.555
-13.648	37.629	1541.920	1356.934
-12.633	37.556	1541.059	1355.615
-11.619	37.632	1539.685	1354.878
-10.604	37.550	1539.477	1354.073
-9.590	37.603	1538.158	1353.229
-8.575	37.592	1537.838	1352.814
-7.560	37.595	1536.650	1351.740
-6.546	37.597	1535.807	1350.960
-5.531	37.544	1535.004	1349.828
-4.517	37.570	1533.634	1348.751
-3.502	37.510	1532.709	1347.467
-2.487	37.609	1531.229	1346.797
-1.473	37.634	1530.162	1345.983
-0.458	37.581	1528.848	1344.404
0.556	35.235	1519.190	1333.822
1.571	32.518	1491.331	1290.658
2.586	29.019	1426.397	1211.364
3.600	27.094	1340.275	1126.204
4.615	25.692	1292.758	1077.793
5.629	21.843	1234.409	1006.999
6.644	11.064	1140.996	873.188
7.659	1.546	1093.693	787.785
8.673	-0.054	1087.364	774.913
9.688	-0.291	1084.426	771.536
10.702	-0.413	1082.829	769.702
11.717	-0.462	1080.930	768.036
12.731	2.749	1084.985	787.344
13.746	12.300	1098.887	846.820
14.761	17.403	1104.466	877.427
15.775	15.591	1100.889	865.189
16.790	14.629	1098.557	858.331
17.804	14.206	1097.757	855.458
18.819	14.026	1096.665	853.607
19.834	13.923	1096.062	852.533
20.848	14.019	1094.885	852.037
21.863	13.826	1094.584	850.738
22.877	13.829	1094.008	850.226
23.892	13.780	1093.346	849.388
24.907	13.563	1092.812	847.786
25.921	13.716	1091.938	847.816
26.936	13.728	1091.132	847.176
27.950	13.720	1090.085	846.249
28.965	13.746	1088.905	845.392
29.980	13.709	1087.032	843.670
30.994	13.666	1085.492	842.184
32.009	13.726	1084.179	841.394
33.023	13.812	1083.801	841.463
34.038	13.589	1082.264	839.066
35.053	13.588	1081.650	838.510
36.067	13.817	1080.649	838.821
37.082	13.759	1079.806	837.796
38.096	13.894	1078.548	837.428
39.111	13.913	1077.857	836.911
40.126	13.985	1076.757	836.350
41.140	13.972	1075.032	834.871
42.155	13.831	1073.719	833.069
43.169	13.687	1073.588	832.169
44.184	13.735	1072.155	831.227
45.199	13.740	1070.555	829.938
46.213	13.582	1069.583	828.318
47.228	13.611	1068.865	827.834
48.242	13.623	1067.350	826.650
49.257	13.538	1066.477	825.474
50.271	13.576	1065.208	824.609
51.286	13.679	1064.295	824.344
52.301	13.566	1064.050	823.516
53.315	13.817	1062.410	823.424
54.330	13.679	1061.565	822.008
55.344	13.684	1060.367	821.032
56.359	13.710	1059.227	820.208
57.374	13.768	1058.349	819.741
58.388	13.663	1057.141	818.214
59.403	13.679	1056.620	817.820
60.417	13.636	1055.554	816.708
61.432	13.606	1054.682	815.814
62.447	13.645	1054.467	815.767
63.461	13.619	1053.350	814.702
64.476	13.740	1052.215	814.349
65.490	13.705	1051.813	813.791
66.505	13.743	1050.637	812.997
67.520	13.598	1050.013	811.734
68.534	13.669	1049.007	811.231
69.549	13.663	1048.238	810.534
70.563	13.511	1047.162	808.887
71.578	13.494	1046.516	808.233
72.593	13.557	1045.799	807.915
73.607	13.571	1044.730	807.090
74.622	13.606	1043.731	806.413
75.636	13.706	1042.662	806.002
76.651	13.753	1041.564	805.313
77.666	13.620	1041.051	804.197
78.680	13.518	1040.437	803.157
79.695	13.535	1039.556	802.487
80.709	13.625	1039.172	802.556
81.724	13.692	1038.443	802.249
82.739	13.579	1037.515	800.916
83.753	13.629	1036.323	800.163
84.768	13.712	1035.549	799.898
85.782	13.695	1034.856	799.209
86.797	13.693	1034.213	798.632
87.812	13.674	1032.743	797.336
88.826	13.649	1031.440	796.138
89.841	13.706	1030.364	795.511
90.855	13.724	1029.953	795.207
91.870	13.628	1029.002	793.943
92.884	13.612	1027.971	793.004
93.899	13.545	1027.569	792.302
94.914	13.619	1026.557	791.804
95.928	13.628	1025.709	791.122
96.943	13.778	1024.567	790.889
97.957	13.529	1023.912	789.127
98.972	13.535	1023.037	788.410
99.987	13.308	1022.085	786.529
101.001	13.355	1021.490	786.225
102.016	13.484	1020.611	786.090
103.030	13.503	1019.792	785.477
104.045	13.456	1018.263	784.012
105.060	13.355	1017.169	782.618
106.074	13.344	1015.980	781.582
107.089	13.366	1015.377	781.153
108.103	13.617	1014.925	781.922
109.118	13.807	1013.179	781.403
110.133	13.683	1012.258	780.040
111.147	13.703	1011.062	779.142
112.162	13.655	1010.390	778.332
113.176	13.552	1009.103	776.788
114.191	13.455	1008.510	775.810
115.206	13.582	1007.544	775.592
116.220	13.506	1006.576	774.424
117.235	13.523	1005.270	773.430
118.249	13.603	1004.192	772.906
119.264	13.478	1003.646	771.833
120.279	13.508	1002.734	771.202
121.293	13.406	1002.220	770.263
122.308	13.641	1001.263	770.551
123.322	13.448	1000.594	769.071
124.337	13.597	999.273	768.681
125.352	13.655	997.332	767.390
126.366	13.466	995.722	765.208
127.381	13.163	994.737	762.983
128.395	13.361	993.956	763.230
129.410	13.701	992.869	763.894
130.424	13.692	992.197	763.270
131.439	13.751	991.115	762.640
132.454	13.708	989.893	761.435
133.468	13.574	989.349	760.336
134.483	13.613	988.450	759.757
135.497	13.665	987.562	759.246
136.512	13.748	986.520	758.754
137.527	13.804	985.926	758.487
138.541	13.725	985.109	757.430
139.556	13.707	984.617	756.904
140.570	13.648	983.598	755.785
141.585	13.612	982.535	754.738
142.600	13.701	981.805	754.515
143.614	13.656	980.713	753.405
144.629	13.659	979.837	752.680
145.643	13.741	978.889	752.253
146.658	13.715	977.847	751.271
147.673	13.675	976.783	750.206
148.687	13.587	976.035	749.167
149.702	13.645	975.111	748.652
150.716	13.567	974.035	747.409
151.731	13.559	973.197	746.664
152.746	13.595	972.309	746.081
153.760	13.670	971.802	745.960
154.775	13.681	970.993	745.321
155.789	13.654	970.271	744.583
156.804	13.672	968.667	743.366
157.819	13.675	968.025	742.819
158.833	13.727	967.352	742.471
159.848	13.664	966.597	741.546
160.862	13.622	965.778	740.663
161.877	13.584	964.893	739.748
162.892	13.583	964.314	739.237
163.906	13.637	963.562	738.836
164.921	13.739	962.219	738.192
165.935	13.710	960.950	737.024
166.950	13.651	960.081	736.030
167.964	13.767	958.832	735.524
168.979	13.720	958.093	734.683
169.994	13.812	956.518	733.819
171.008	13.596	955.876	732.304
172.023	13.674	955.098	731.989
173.037	13.776	953.904	731.457
174.052	13.608	952.322	729.443
175.067	13.398	952.364	728.487
176.081	13.525	951.523	728.336
177.096	13.704	950.073	727.947
178.110	13.700	949.668	727.554
179.125	13.559	948.694	726.127
180.140	13.635	947.351	725.365
181.154	13.505	946.939	724.418
182.169	13.547	946.334	724.075
183.183	13.793	945.577	724.507
184.198	13.729	945.110	723.807
185.213	13.833	943.695	723.110
186.227	13.833	943.044	722.547
187.242	13.778	942.826	722.079
188.256	13.686	941.808	720.833
189.271	13.673	940.982	720.082
190.286	13.717	940.143	719.568
191.300	13.695	939.338	718.790
192.315	13.598	938.846	717.932
193.329	13.472	937.752	716.487
194.344	13.318	936.637	714.905
195.359	13.515	936.397	715.508
196.373	13.591	936.336	715.729
197.388	13.630	935.374	715.100
198.402	13.630	934.519	714.378
199.417	13.490	934.102	713.395
200.432	13.688	932.966	713.318
201.446	13.646	932.681	712.857
202.461	13.351	932.293	711.226
203.475	13.440	931.250	710.749
204.490	13.431	930.344	709.957
205.504	13.274	929.243	708.382
206.519	13.251	928.803	707.885
207.534	13.514	928.241	708.520
208.548	13.539	927.306	707.848
209.563	13.689	926.704	707.967
210.577	13.733	926.231	707.734
211.592	13.696	925.256	706.767
212.607	13.599	925.451	706.441
213.621	13.737	924.356	706.131
214.636	13.712	923.463	705.278
215.650	13.643	923.183	704.709
216.665	13.778	922.406	704.628
217.680	13.804	921.461	703.952
218.694	13.799	920.820	703.379
219.709	13.659	920.334	702.351
220.723	13.567	919.214	701.048
221.738	13.674	919.104	701.353
222.753	13.706	918.025	700.602
223.767	13.678	917.421	699.962
224.782	13.777	916.443	699.572
225.796	13.776	915.507	698.791
226.811	13.831	914.893	698.490
227.826	13.613	914.344	697.095
228.840	13.438	913.627	695.752
229.855	13.580	912.452	695.391
230.869	13.567	911.810	694.783
231.884	13.595	911.058	694.269
232.899	13.435	910.391	693.027
233.913	13.832	909.616	694.038
234.928	13.848	908.936	693.524
235.942	13.729	908.637	692.738
236.957	13.727	908.103	692.262
237.972	13.790	906.937	691.573
238.986	13.676	906.113	690.407
240.001	13.743	905.897	690.460
241.015	13.771	904.987	689.822
242.030	13.893	903.678	689.269
243.045	13.759	903.246	688.325
244.059	13.823	902.430	687.906
245.074	13.771	902.347	687.566
246.088	13.869	901.031	686.908
247.103	13.701	900.170	685.498
248.117	13.850	899.297	685.389
249.132	13.883	898.710	685.015
250.147	13.824	898.285	684.390
251.161	13.809	897.340	683.546
252.176	13.999	896.306	683.478
253.190	13.924	895.568	682.548
254.205	13.952	895.059	682.215
255.220	13.980	894.627	681.942
256.234	14.118	893.659	681.710
257.249	13.970	893.781	681.134
258.263	14.021	892.659	680.429
259.278	13.951	892.163	679.703
260.293	13.916	891.619	679.083
261.307	13.920	890.660	678.311
262.322	13.948	889.617	677.570
263.336	13.818	889.486	676.881
264.351	13.872	888.594	676.363
265.366	13.720	887.683	674.988
266.380	13.778	886.600	674.344
267.395	13.783	886.521	674.242
268.409	13.874	886.079	674.215
269.424	13.947	884.705	673.409
270.439	13.992	884.386	673.288
271.453	14.054	883.152	672.539
272.468	13.980	883.016	672.078
273.482	14.060	882.469	671.924
274.497	14.066	881.612	671.238
275.512	14.069	880.660	670.464
276.526	13.768	879.901	668.613
277.541	13.893	878.848	668.259
278.555	13.972	878.448	668.213
279.570	13.927	877.748	667.440
280.585	13.920	877.096	666.859
281.599	13.874	876.392	666.077
282.614	14.045	875.659	666.150
283.628	13.939	875.168	665.292
284.643	13.959	874.145	664.535
285.657	13.962	873.913	664.312
286.672	14.018	873.181	663.920
287.687	13.959	872.642	663.217
288.701	13.835	872.811	662.790
289.716	14.125	871.489	662.883
290.730	13.920	871.075	661.693
291.745	14.063	870.305	661.618
292.760	13.838	869.522	660.071
293.774	13.792	868.788	659.273
294.789	14.137	867.981	659.971
295.803	14.281	867.611	660.203
296.818	14.318	867.077	659.886
297.833	14.365	866.502	659.573
298.847	14.309	865.739	658.713
299.862	14.197	865.078	657.709
300.876	14.239	864.374	657.283
301.891	14.441	863.504	657.358
302.906	14.253	863.019	656.192
303.920	14.252	861.843	655.235
304.935	14.221	861.238	654.594
305.949	14.300	860.597	654.360
306.964	14.283	860.090	653.848
307.979	14.264	859.370	653.170
308.993	14.313	859.174	653.156
310.008	14.468	858.637	653.298
311.022	14.530	857.628	652.714
312.037	14.349	857.131	651.571
313.052	14.363	856.571	651.143
314.066	14.360	856.226	650.811
315.081	14.255	855.421	649.730
316.095	14.117	854.780	648.648
317.110	14.341	854.097	648.945
318.125	14.332	853.708	648.556
319.139	14.371	853.343	648.373
320.154	14.288	852.186	647.117
321.168	14.155	852.223	646.569
322.183	14.374	850.907	646.364
323.197	14.327	851.029	646.218
324.212	14.579	850.404	646.661
325.227	14.441	850.044	645.796
326.241	14.566	849.353	645.699
327.256	14.517	848.838	645.059
328.270	14.639	848.117	644.925
329.285	14.677	847.421	644.487
330.300	14.545	846.819	643.464
331.314	14.576	846.213	643.065
332.329	14.589	845.740	642.699
333.343	14.566	844.641	641.718
334.358	14.544	844.637	641.575
335.373	14.701	843.417	641.192
336.387	14.577	843.243	640.529
337.402	14.401	842.671	639.361
338.416	14.771	841.556	639.876
339.431	14.607	840.993	638.763
340.446	14.423	840.646	637.739
341.460	14.542	840.104	637.726
342.475	14.501	839.524	637.075
343.489	14.472	838.701	636.282
344.504	14.552	837.878	635.907
345.519	14.583	837.553	635.723
346.533	14.593	837.111	635.369
347.548	14.798	836.558	635.672
348.562	14.866	836.140	635.558
349.577	14.750	835.913	634.888
350.592	14.648	835.347	634.013
351.606	14.737	834.725	633.823
352.621	14.768	834.485	633.701
353.635	14.819	833.806	633.322
354.650	14.640	833.573	632.411
355.665	14.665	833.156	632.134
356.679	14.671	831.982	631.213
357.694	14.475	831.473	630.027
358.708	14.517	830.794	629.617
359.723	14.650	830.153	629.578
360.738	14.801	830.070	630.027
361.752	14.810	829.405	629.502
362.767	14.760	829.403	629.256
363.781	14.896	828.437	628.979
364.796	14.857	827.956	628.411
365.810	14.816	827.640	627.961
366.825	14.746	827.380	627.446
367.840	15.042	826.595	627.904
368.854	14.874	826.250	626.957
369.869	14.770	825.806	626.176
370.883	14.912	824.892	625.960
371.898	14.836	824.312	625.179
372.913	14.812	823.492	624.410
373.927	14.632	823.194	623.459
374.942	14.929	822.795	624.212
375.956	14.965	822.376	623.970
376.971	14.956	821.636	623.323
377.986	14.927	820.825	622.543
379.000	15.093	820.203	622.633
380.015	15.019	819.598	621.843
381.029	14.932	818.979	620.995
382.044	14.976	818.462	620.711
383.059	14.910	817.712	619.843
384.073	15.093	817.235	620.103
385.088	15.027	816.733	619.426
386.102	15.056	816.473	619.281
387.117	15.199	815.991	619.390
388.132	15.332	815.430	619.401
389.146	15.220	815.227	618.777
390.161	15.231	814.432	618.160
391.175	14.907	813.676	616.336
392.190	14.767	813.862	615.906
393.205	14.840	813.428	615.794
394.219	15.104	812.548	616.043
395.234	15.255	812.156	616.246
396.248	15.227	811.929	615.917
397.263	15.040	811.347	614.734
398.278	14.979	811.095	614.267
399.292	15.254	810.612	614.853
400.307	15.362	810.122	614.825
401.321	15.515	809.753	615.049
402.336	15.538	809.211	614.667
403.350	15.366	808.992	613.818
404.365	15.352	808.327	613.208
405.380	15.162	807.832	612.083
406.394	15.287	807.338	612.113
407.409	15.235	806.745	611.418
408.423	15.365	806.193	611.420
409.438	15.237	805.684	610.514
410.453	15.201	805.156	609.927
411.467	15.259	805.028	609.989
412.482	15.495	804.349	610.279
413.496	15.589	803.652	610.037
414.511	15.634	802.841	609.531
415.526	15.502	803.034	609.145
416.540	15.390	802.525	608.299
417.555	15.322	801.916	607.534
418.569	15.307	801.602	607.190
419.584	15.360	800.595	606.566
420.599	15.372	800.335	606.359
421.613	150.744	1356.659	1780.014
422.628	130.776	1437.724	1780.156
