DTS Sentinel unit serial number:	SN413079Multiplexer serial number:	ORYXHardware model number:	OX4-SRSoftware version number:	ORYX F/W v4.00 Oryx Data Collector v3.7.2.0data status	okinstallation	princeton_trtdifferential loss correction	single-endedforward channel	channel 3reverse channel	N/Adate	2019/09/19time	01:28:35forward acquisition time	60.00reverse acquisition time	0.00gamma	496.2192k internal	0.2348k external	0.2348temperature offset calibration	0.9988default loss term (dB/km)	0.3790temperature slope calibration	1.0000multiplexer offset coefficient	1.0000multiplexer slope coefficient	1.0000fibre end	0.00T internal ref (°C)	21.61T ext. ref 1 (°C)	0.71T ext. ref 2 (°C)	15.15length (m)	temperature (°C)	Stokes	anti-Stokes-747.200	74.169	0.096	-0.101
-746.185	181.858	-0.178	0.261
-745.171	88.401	0.248	0.275
-744.156	800.000	0.041	0.172
-743.142	-200.000	-0.022	-0.171
-742.127	-73.339	-0.454	0.166
-741.112	194.343	-0.155	0.235
-740.098	132.460	-0.089	0.115
-739.083	800.000	0.031	-0.127
-738.069	210.519	-0.130	0.203
-737.054	-200.000	-0.018	-0.218
-736.039	95.352	-0.198	-0.225
-735.025	-134.395	0.252	-0.031
-734.010	10.249	-0.101	0.077
-732.996	-109.188	-0.222	0.047
-731.981	-63.473	-0.380	0.156
-730.966	27.675	-0.144	0.121
-729.952	-49.586	-0.166	-0.079
-728.937	-156.730	-0.365	-0.022
-727.923	240.101	-0.242	-0.403
-726.908	259.697	0.105	0.180
-725.894	205.242	-0.160	-0.248
-724.879	149.731	-0.139	-0.188
-723.864	684.194	-0.071	0.185
-722.850	414.695	-0.063	0.133
-721.835	-159.546	0.155	-0.009
-720.821	-43.454	-0.210	-0.106
-719.806	-9.054	-0.251	-0.168
-718.791	-112.257	0.083	-0.017
-717.777	-72.059	0.090	-0.033
-716.762	44.784	0.164	-0.151
-715.748	800.000	-0.065	-0.181
-714.733	-200.000	-0.018	-0.152
-713.718	-0.531	0.106	0.075
-712.704	-200.000	0.059	0.421
-711.689	-167.260	-0.121	-0.005
-710.675	-200.000	-0.017	-0.175
-709.660	450.485	0.046	-0.102
-708.645	85.339	0.061	-0.066
-707.631	427.143	-0.104	0.224
-706.616	-200.000	0.006	0.382
-705.602	3.644	0.295	0.215
-704.587	-131.655	-0.276	-0.036
-703.572	161.141	-0.064	-0.089
-702.558	-200.000	-0.022	-0.103
-701.543	-200.000	-0.008	-0.101
-700.529	67.848	0.200	-0.204
-699.514	-58.106	0.190	0.083
-698.499	-59.843	0.140	-0.060
-697.485	800.000	0.044	0.170
-696.470	-2.843	-0.040	0.028
-695.456	147.589	0.111	0.149
-694.441	800.000	0.091	0.310
-693.426	562.752	0.126	-0.304
-692.412	-200.000	0.063	-0.302
-691.397	800.000	0.046	-0.157
-690.383	75.701	0.252	-0.266
-689.368	-133.154	-0.404	-0.051
-688.354	208.384	-0.156	-0.243
-687.339	-130.135	-0.336	0.046
-686.324	-92.205	-0.059	0.017
-685.310	-178.584	0.174	-0.004
-684.295	-125.978	-0.192	-0.029
-683.281	-200.000	-0.020	0.227
-682.266	-44.417	-0.208	-0.104
-681.251	-105.059	-0.072	0.016
-680.237	120.817	-0.075	-0.093
-679.222	385.156	0.067	0.138
-678.208	187.778	-0.104	0.155
-677.193	-200.000	-0.015	-0.258
-676.178	-78.098	0.183	-0.063
-675.164	69.276	-0.215	-0.220
-674.149	181.863	0.089	0.130
-673.135	800.000	0.107	-0.353
-672.120	-192.949	-0.453	-0.004
-671.105	-200.000	-0.007	0.213
-670.091	18.328	-0.166	0.132
-669.076	-33.456	-0.155	0.085
-668.062	-162.614	0.186	-0.009
-667.047	800.000	-0.102	-0.398
-666.032	345.733	-0.090	0.176
-665.018	123.557	0.313	-0.391
-664.003	-200.000	0.009	-0.089
-662.989	-17.133	0.100	0.063
-661.974	72.731	-0.263	0.273
-660.959	-33.664	-0.261	-0.143
-659.945	800.000	-0.027	0.106
-658.930	-157.749	0.228	-0.014
-657.916	-43.000	-0.236	0.119
-656.901	635.386	0.075	0.190
-655.886	800.000	0.063	-0.263
-654.872	234.866	0.158	-0.259
-653.857	-118.691	0.180	-0.032
-652.843	379.606	0.096	-0.196
-651.828	-200.000	0.011	0.135
-650.814	710.881	-0.051	-0.136
-649.799	97.615	-0.158	0.180
-648.784	28.258	0.053	-0.044
-647.770	-156.353	0.101	-0.006
-646.755	-126.926	-0.319	0.047
-645.741	83.328	-0.241	-0.262
-644.726	195.694	-0.053	0.080
-643.711	-27.929	0.205	-0.118
-642.697	398.909	0.072	0.151
-641.682	51.130	-0.048	0.045
-640.668	-200.000	0.014	0.344
-639.653	800.000	0.152	-0.427
-638.638	41.640	-0.081	-0.073
-637.624	-72.074	-0.418	0.154
-636.609	61.986	0.100	0.099
-635.595	-93.558	-0.090	0.025
-634.580	-102.172	-0.264	-0.063
-633.565	-200.000	-0.051	-0.325
-632.551	-115.570	-0.087	-0.016
-631.536	800.000	0.036	0.102
-630.522	-200.000	0.057	0.258
-629.507	173.010	0.174	-0.250
-628.492	-52.879	0.044	-0.020
-627.478	31.503	0.212	0.181
-626.463	61.013	-0.191	0.189
-625.449	166.712	0.105	0.148
-624.434	314.757	0.180	-0.338
-623.419	-200.000	-0.026	-0.139
-622.405	281.637	0.080	0.142
-621.390	-200.000	0.044	0.476
-620.376	-15.289	-0.264	-0.168
-619.361	194.135	-0.079	-0.118
-618.346	-200.000	0.048	-0.208
-617.332	37.381	-0.130	-0.115
-616.317	-19.355	0.173	0.107
-615.303	-43.710	-0.116	0.058
-614.288	40.273	0.250	0.223
-613.273	-90.813	-0.408	0.117
-612.259	800.000	-0.013	0.043
-611.244	-200.000	0.004	-0.233
-610.230	18.523	-0.186	-0.148
-609.215	-27.419	-0.186	0.107
-608.201	260.577	-0.044	0.076
-607.186	-54.490	0.039	0.018
-606.171	-200.000	-0.026	-0.319
-605.157	692.551	-0.057	-0.147
-604.142	-69.444	0.229	0.087
-603.128	73.709	-0.075	0.079
-602.113	113.648	-0.264	-0.319
-601.098	800.000	0.039	0.121
-600.084	-153.338	0.271	0.019
-599.069	49.688	0.135	-0.126
-598.055	202.251	0.190	-0.291
-597.040	-156.412	-0.233	-0.014
-596.025	-66.092	-0.411	-0.163
-595.011	-200.000	0.016	-0.242
-593.996	442.444	0.075	0.164
-592.982	223.130	0.132	-0.212
-591.967	-198.202	0.284	0.002
-590.952	363.738	0.118	-0.235
-589.938	-101.623	0.035	0.008
-588.923	215.947	0.082	-0.130
-587.909	129.958	-0.074	-0.094
-586.894	-142.799	-0.119	0.012
-585.879	85.311	-0.080	0.087
-584.865	-200.000	0.018	0.158
-583.850	56.419	-0.070	0.068
-582.836	-150.098	0.396	0.031
-581.821	270.683	-0.059	-0.104
-580.806	-114.738	0.134	0.025
-579.792	61.740	-0.177	-0.175
-578.777	800.000	-0.026	-0.089
-577.763	-144.588	-0.225	-0.021
-576.748	-159.842	-0.165	0.009
-575.733	-200.000	-0.002	-0.242
-574.719	-200.000	-0.023	0.162
-573.704	178.494	-0.167	0.243
-572.690	-200.000	-0.005	0.148
-571.675	-33.659	0.234	-0.128
-570.661	619.923	-0.150	-0.375
-569.646	-167.051	0.121	-0.005
-568.631	-156.339	-0.271	-0.017
-567.617	-4.279	-0.236	-0.162
-566.602	800.000	0.103	0.391
-565.588	-3.076	-0.076	0.052
-564.573	-109.865	-0.284	-0.059
-563.558	118.895	0.098	-0.120
-562.544	184.157	-0.222	-0.326
-561.529	-65.943	-0.072	0.029
-560.515	175.426	-0.146	0.210
-559.500	607.743	-0.069	0.170
-558.485	800.000	0.055	0.231
-557.471	217.900	-0.148	-0.235
-556.456	-59.698	-0.009	0.004
-555.442	40.159	0.160	0.143
-554.427	132.401	0.036	-0.046
-553.412	37.028	0.140	-0.123
-552.398	196.639	0.158	0.238
-551.383	-21.156	-0.195	0.118
-550.369	712.900	0.033	0.088
-549.354	236.878	0.186	0.306
-548.339	-31.663	-0.055	-0.031
-547.325	-200.000	-0.007	0.055
-546.310	-46.369	0.436	0.212
-545.296	-86.853	0.152	-0.046
-544.281	-200.000	0.047	0.308
-543.266	-108.117	0.128	0.027
-542.252	-37.186	0.403	0.214
-541.237	-200.000	-0.028	0.256
-540.223	-44.683	-0.228	0.113
-539.208	109.703	0.234	-0.278
-538.193	102.992	-0.195	0.227
-537.179	800.000	0.014	-0.046
-536.164	109.254	-0.161	-0.191
-535.150	93.248	0.112	-0.126
-534.135	-94.911	0.209	-0.056
-533.121	-14.036	-0.290	-0.185
-532.106	-103.521	0.422	-0.098
-531.091	-163.717	0.258	-0.012
-530.077	-51.133	0.279	0.130
-529.062	18.267	-0.078	0.062
-528.048	-65.827	0.225	-0.089
-527.033	-155.032	-0.192	-0.012
-526.018	509.867	0.097	0.223
-525.004	411.301	-0.116	-0.243
-523.989	-91.891	-0.129	0.036
-522.975	153.917	0.148	0.201
-521.960	800.000	-0.007	0.023
-520.945	-200.000	0.006	0.304
-519.931	318.970	0.125	0.235
-518.916	57.196	0.064	-0.062
-517.902	455.942	-0.072	-0.157
-516.887	117.612	0.026	-0.032
-515.872	800.000	-0.080	0.244
-514.858	-58.785	-0.009	0.004
-513.843	-200.000	-0.018	0.162
-512.829	500.613	-0.069	0.157
-511.814	-24.646	0.161	-0.095
-510.799	226.898	-0.267	-0.430
-509.785	-165.838	0.287	-0.012
-508.770	-61.837	0.166	-0.069
-507.756	519.511	-0.028	-0.066
-506.741	-18.019	0.195	-0.121
-505.726	-86.202	0.166	0.051
-504.712	467.839	-0.055	0.123
-503.697	66.698	-0.058	-0.059
-502.683	800.000	-0.065	-0.265
-501.668	332.166	-0.149	0.285
-500.653	70.663	0.139	0.142
-499.639	307.946	0.053	-0.097
-498.624	340.261	0.093	0.179
-497.610	9.208	0.274	-0.205
-496.595	49.095	0.085	0.079
-495.581	222.612	-0.074	-0.118
-494.566	357.993	-0.048	0.094
-493.551	-139.611	-0.074	0.008
-492.537	-43.638	-0.338	-0.168
-491.522	176.012	-0.206	-0.296
-490.508	-200.000	0.006	0.102
-489.493	15.553	-0.189	-0.147
-488.478	152.548	0.155	0.209
-487.464	350.206	-0.169	-0.331
-486.449	-90.501	0.128	0.037
-485.435	800.000	0.085	0.286
-484.420	88.307	0.110	0.120
-483.405	-200.000	0.030	-0.181
-482.391	-121.790	-0.320	0.052
-481.376	18.443	0.260	-0.205
-480.362	-54.656	0.134	0.060
-479.347	-142.525	-0.129	-0.013
-478.332	191.217	-0.092	0.137
-477.318	117.675	-0.096	-0.116
-476.303	800.000	0.041	0.150
-475.289	257.199	-0.197	0.334
-474.274	-200.000	0.079	0.442
-473.259	89.988	-0.217	-0.239
-472.245	185.143	0.198	-0.291
-471.230	-4.528	-0.221	-0.151
-470.216	9.351	-0.345	-0.258
-469.201	-9.426	-0.080	-0.053
-468.186	15.718	-0.189	-0.147
-467.172	-75.086	-0.371	0.131
-466.157	-172.388	0.217	-0.007
-465.143	-26.172	0.118	-0.069
-464.128	700.366	-0.085	0.222
-463.113	800.000	0.143	0.415
-462.099	95.558	-0.024	-0.027
-461.084	140.602	0.119	0.156
-460.070	800.000	0.113	0.369
-459.055	147.710	-0.236	0.314
-458.040	-200.000	-0.072	0.365
-457.026	-101.360	-0.149	0.036
-456.011	227.891	0.185	-0.297
-454.997	-44.177	-0.267	0.132
-453.982	-101.268	-0.121	0.029
-452.968	56.182	-0.069	0.067
-451.953	-200.000	0.059	-0.301
-450.938	2.136	-0.251	-0.179
-449.924	-94.981	-0.142	0.038
-448.909	-200.000	0.019	-0.219
-447.895	18.304	-0.104	0.082
-446.880	-131.611	0.145	0.019
-445.865	250.435	-0.111	-0.186
-444.851	-57.249	0.282	0.122
-443.836	-173.747	0.445	0.013
-442.822	-46.992	-0.249	0.120
-441.807	-68.619	-0.293	-0.112
-440.792	-50.089	0.124	-0.058
-439.778	800.000	-0.060	0.181
-438.763	-144.745	-0.263	-0.024
-437.749	42.383	-0.027	-0.024
-436.734	155.794	0.283	0.385
-435.719	-200.000	0.009	-0.160
-434.705	393.797	0.119	-0.244
-433.690	-33.157	0.114	-0.062
-432.676	78.867	0.134	-0.142
-431.661	83.718	-0.188	-0.203
-430.646	800.000	-0.078	-0.241
-429.632	-6.223	0.243	-0.164
-428.617	-36.264	0.255	-0.136
-427.603	-98.120	-0.134	-0.034
-426.588	800.000	0.062	0.224
-425.573	-115.528	0.327	0.061
-424.559	250.769	-0.052	0.087
-423.544	36.713	0.046	0.040
-422.530	-29.454	0.129	-0.073
-421.515	-200.000	0.043	0.257
-420.500	142.216	0.043	0.056
-419.486	170.412	-0.141	0.199
-418.471	-132.227	-0.070	-0.009
-417.457	-200.000	0.026	0.520
-416.442	40.785	0.417	-0.371
-415.428	54.749	-0.276	-0.262
-414.413	-17.201	-0.294	-0.183
-413.398	119.613	0.131	0.160
-412.384	-200.000	0.001	0.186
-411.369	-169.429	-0.259	0.009
-410.355	238.217	-0.093	-0.153
-409.340	-8.213	-0.110	0.073
-408.325	134.251	-0.116	-0.149
-407.311	340.245	-0.118	0.226
-406.296	157.679	-0.240	0.328
-405.282	-200.000	0.064	0.346
-404.267	-26.548	0.216	-0.125
-403.252	-200.000	0.026	0.180
-402.238	-60.076	-0.289	0.122
-401.223	-61.729	-0.332	-0.137
-400.209	37.773	-0.147	0.129
-399.194	-200.000	0.006	0.042
-398.179	215.995	0.122	0.191
-397.165	-123.998	0.267	0.041
-396.150	-146.962	-0.360	-0.031
-395.136	-111.731	0.475	0.095
-394.121	-102.467	0.132	0.031
-393.106	-200.000	0.039	0.225
-392.092	-89.244	-0.281	-0.082
-391.077	68.176	0.039	-0.040
-390.063	-110.531	-0.235	0.048
-389.048	84.852	0.048	0.051
-388.033	-200.000	-0.027	-0.274
-387.019	-49.718	-0.338	0.158
-386.004	800.000	-0.036	0.141
-384.990	800.000	0.029	0.084
-383.975	-200.000	0.049	0.428
-382.960	-3.747	0.132	0.091
-381.946	371.538	0.110	-0.220
-380.931	-131.808	0.211	-0.027
-379.917	800.000	-0.039	0.108
-378.902	299.114	0.148	0.269
-377.888	-86.995	0.118	0.035
-376.873	-200.000	0.037	0.175
-375.858	800.000	0.021	0.080
-374.844	-32.510	-0.109	0.060
-373.829	117.064	0.282	0.342
-372.815	22.398	-0.062	-0.050
-371.800	-134.651	0.269	-0.032
-370.785	800.000	0.037	0.152
-369.771	-200.000	-0.009	0.360
-368.756	800.000	0.108	-0.370
-367.742	-38.484	0.268	0.140
-366.727	-78.308	0.377	-0.128
-365.712	800.000	-0.116	-0.414
-364.698	3.911	0.121	0.087
-363.683	-200.000	0.001	-0.159
-362.669	-99.559	0.060	0.015
-361.654	-200.000	-0.002	-0.310
-360.639	-200.000	0.021	-0.259
-359.625	232.990	-0.099	0.160
-358.610	800.000	0.085	-0.240
-357.596	294.273	0.019	0.035
-356.581	-168.276	-0.105	-0.004
-355.566	-30.077	-0.101	-0.056
-354.552	405.397	0.099	0.205
-353.537	-156.431	0.446	0.027
-352.523	49.628	0.383	0.355
-351.508	381.709	0.041	0.082
-350.493	-10.868	0.276	-0.179
-349.479	-200.000	-0.032	-0.432
-348.464	-200.000	0.037	-0.267
-347.450	-58.000	0.106	-0.046
-346.435	334.762	-0.139	-0.265
-345.420	-91.889	-0.308	-0.086
-344.406	-90.467	-0.015	-0.004
-343.391	-200.000	0.021	0.117
-342.377	-20.599	0.267	0.161
-341.362	26.880	-0.094	-0.078
-340.348	-200.000	0.001	0.058
-339.333	69.549	0.128	0.129
-338.318	-57.460	0.308	-0.133
-337.304	-200.000	0.014	-0.184
-336.289	-72.738	-0.104	0.038
-335.275	83.380	0.254	0.272
-334.260	-54.178	-0.171	-0.077
-333.245	-17.082	0.126	0.078
-332.231	-200.000	-0.005	-0.231
-331.216	800.000	-0.063	0.235
-330.202	-41.071	-0.127	-0.064
-329.187	456.619	-0.064	-0.139
-328.172	10.779	0.250	-0.187
-327.158	-179.600	-0.372	0.008
-326.143	366.027	-0.146	0.290
-325.129	8.141	-0.187	-0.138
-324.114	111.884	-0.058	-0.069
-323.099	246.334	-0.122	-0.201
-322.085	375.500	0.111	0.222
-321.070	341.886	0.077	-0.148
-320.056	6.852	-0.419	-0.306
-319.041	440.147	0.211	-0.452
-318.026	-200.000	0.018	-0.182
-317.012	-45.589	0.232	0.113
-315.997	20.189	-0.163	-0.130
-314.983	-147.959	0.124	-0.010
-313.968	3.919	0.170	-0.122
-312.953	224.272	0.126	0.200
-311.939	-39.119	0.106	0.055
-310.924	-165.373	-0.264	0.011
-309.910	800.000	-0.056	0.193
-308.895	800.000	-0.028	0.100
-307.880	-133.170	-0.227	0.028
-306.866	-200.000	0.014	-0.189
-305.851	70.091	0.176	0.179
-304.837	-88.772	-0.319	0.093
-303.822	126.018	-0.110	0.137
-302.807	-124.579	0.194	-0.030
-301.793	658.362	0.095	-0.239
-300.778	-200.000	-0.010	0.120
-299.764	71.385	-0.258	-0.263
-298.749	17.424	0.034	-0.026
-297.735	57.839	0.047	0.045
-296.720	123.588	-0.256	0.315
-295.705	35.659	-0.132	0.114
-294.691	43.483	-0.394	0.354
-293.676	-7.197	0.047	0.031
-292.662	-145.290	0.188	-0.017
-291.647	-200.000	-0.020	-0.125
-290.632	154.420	0.126	-0.169
-289.618	318.385	-0.079	-0.147
-288.603	-81.279	0.222	-0.072
-287.589	-125.801	-0.149	0.022
-286.574	-133.723	-0.215	0.026
-285.559	-200.000	0.003	0.250
-284.545	-200.000	-0.015	-0.098
-283.530	800.000	0.052	0.173
-282.516	-95.425	-0.369	-0.097
-281.501	-52.182	-0.248	-0.113
-280.486	-88.291	-0.137	-0.040
-279.472	-200.000	-0.008	-0.077
-278.457	77.854	0.205	0.214
-277.443	-200.000	0.040	-0.240
-276.428	38.712	-0.234	0.205
-275.413	-174.333	0.267	-0.008
-274.399	204.334	-0.175	0.266
-273.384	-8.696	0.117	0.077
-272.370	-47.635	0.361	0.172
-271.355	-62.229	0.109	0.044
-270.340	-200.000	-0.017	-0.153
-269.326	800.000	-0.098	-0.362
-268.311	-41.329	-0.017	-0.009
-267.297	800.000	-0.047	0.179
-266.282	-200.000	-0.027	-0.333
-265.267	168.360	0.317	-0.442
-264.253	54.458	0.226	-0.214
-263.238	-42.087	-0.155	0.078
-262.224	255.744	-0.084	0.141
-261.209	-13.380	0.137	0.087
-260.195	-108.279	0.064	0.014
-259.180	-99.788	-0.072	-0.018
-258.165	-73.654	0.349	-0.125
-257.151	-68.490	-0.273	0.104
-256.136	-76.434	0.216	-0.074
-255.122	-200.000	-0.015	-0.159
-254.107	26.863	-0.200	-0.164
-253.092	0.225	0.061	0.043
-252.078	-200.000	-0.006	-0.242
-251.063	408.738	-0.062	-0.128
-250.049	192.895	0.090	0.133
-249.034	800.000	0.086	0.296
-248.019	246.288	0.176	-0.290
-247.005	95.731	-0.153	-0.172
-245.990	-200.000	-0.014	0.256
-244.976	800.000	-0.260	0.704
-243.961	-149.560	0.288	-0.022
-242.946	147.839	-0.145	-0.192
-241.932	54.006	0.241	-0.227
-240.917	-37.944	-0.296	-0.154
-239.903	57.106	-0.067	0.064
-238.888	3.458	0.228	-0.163
-237.873	-200.000	0.001	0.005
-236.859	-200.000	0.035	0.301
-235.844	-200.000	0.086	0.515
-234.830	-85.467	0.163	-0.050
-233.815	-55.741	-0.177	-0.077
-232.800	-55.602	-0.100	-0.044
-231.786	-200.000	0.010	0.108
-230.771	95.226	0.164	0.183
-229.757	52.786	-0.115	-0.107
-228.742	687.551	-0.073	-0.188
-227.727	152.184	0.128	-0.171
-226.713	800.000	-0.063	-0.199
-225.698	359.497	-0.080	0.157
-224.684	-157.251	0.150	-0.009
-223.669	-200.000	-0.023	0.160
-222.655	355.796	0.073	0.142
-221.640	-170.849	0.250	0.008
-220.625	-57.164	-0.212	0.091
-219.611	-155.662	0.091	0.006
-218.596	87.031	0.221	0.239
-217.582	-46.551	0.215	-0.103
-216.567	63.930	-0.163	0.160
-215.552	-127.070	-0.095	-0.014
-214.538	106.320	-0.190	0.220
-213.523	-200.000	0.003	-0.079
-212.509	-15.878	-0.144	0.090
-211.494	54.745	-0.234	-0.221
-210.479	-43.989	0.232	0.114
-209.465	800.000	-0.078	-0.319
-208.450	386.709	-0.181	-0.366
-207.436	164.017	0.096	-0.132
-206.421	18.469	0.138	0.108
-205.406	110.272	-0.126	0.148
-204.392	800.000	0.134	0.383
-203.377	-92.236	-0.163	-0.045
-202.363	544.959	-0.106	-0.247
-201.348	-200.000	0.036	0.470
-200.333	-200.000	0.041	-0.405
-199.319	57.622	0.071	0.068
-198.304	16.947	-0.126	0.097
-197.290	30.438	0.240	-0.201
-196.275	-200.000	0.036	-0.269
-195.260	-200.000	-0.031	-0.152
-194.246	188.802	-0.167	0.244
-193.231	-118.309	0.407	0.071
-192.217	-145.475	0.267	-0.023
-191.202	-61.159	0.179	-0.074
-190.187	574.682	0.015	0.035
-189.173	764.391	-0.038	-0.101
-188.158	-200.000	0.007	0.411
-187.144	64.110	-0.202	-0.199
-186.129	-14.249	-0.107	-0.068
-185.114	116.120	0.140	-0.168
-184.100	768.673	-0.089	-0.237
-183.085	-20.265	-0.049	0.029
-182.071	436.470	-0.078	-0.167
-181.056	-87.129	0.220	0.065
-180.042	-71.401	-0.218	-0.080
-179.027	97.819	0.244	0.275
-178.012	800.000	0.030	-0.108
-176.998	800.000	-0.136	0.393
-175.983	-200.000	-0.007	-0.225
-174.969	-200.000	0.030	-0.137
-173.954	800.000	0.100	-0.282
-172.939	-9.518	-0.108	0.071
-171.925	800.000	-0.058	-0.186
-170.910	88.321	-0.143	-0.155
-169.896	-59.633	0.321	-0.134
-168.881	176.844	0.060	0.086
-167.866	-200.000	0.029	-0.170
-166.852	29.802	-0.267	-0.222
-165.837	241.350	0.189	0.308
-164.823	80.619	0.077	0.081
-163.808	-94.670	-0.040	0.011
-162.793	34.483	0.105	-0.090
-161.779	4.199	-0.215	-0.154
-160.764	-71.428	-0.115	0.042
-159.750	92.830	-0.168	0.186
-158.735	800.000	-0.055	0.202
-157.720	-156.320	-0.141	-0.009
-156.706	-55.172	-0.072	-0.032
-155.691	115.056	0.129	0.154
-154.677	28.185	-0.245	-0.202
-153.662	221.542	-0.110	-0.173
-152.647	-54.389	0.081	0.036
-151.633	222.998	0.211	-0.332
-150.618	-87.533	-0.219	-0.065
-149.604	-200.000	-0.001	-0.210
-148.589	-146.953	-0.314	-0.026
-147.574	-28.871	0.103	0.058
-146.560	-68.891	-0.139	-0.052
-145.545	-93.033	0.405	0.110
-144.531	63.773	-0.124	-0.122
-143.516	-23.713	-0.117	-0.068
-142.502	-90.267	0.168	0.048
-141.487	288.068	0.080	-0.140
-140.472	40.284	-0.240	-0.211
-139.458	-21.213	0.198	-0.118
-138.443	304.016	-0.057	0.103
-137.429	-24.778	0.056	0.033
-136.414	199.334	0.234	0.350
-135.399	270.420	-0.118	-0.202
-134.385	192.973	-0.107	-0.158
-133.370	-11.271	-0.035	0.022
-132.356	140.075	-0.162	0.209
-131.341	-200.000	-0.003	0.476
-130.326	-200.000	-0.158	0.001
-129.312	48.804	-0.256	0.235
-128.297	-104.627	0.198	-0.045
-127.283	800.000	-0.067	0.270
-126.268	273.493	0.127	-0.220
-125.253	66.372	-0.057	0.056
-124.239	800.000	0.110	0.429
-123.224	55.276	0.072	-0.068
-122.210	120.010	-0.086	0.104
-121.195	152.036	0.143	-0.190
-120.180	800.000	0.054	0.215
-119.166	-5.286	0.088	0.059
-118.151	-144.900	0.434	-0.039
-117.137	-200.000	-0.069	0.350
-116.122	-200.000	0.040	-0.181
-115.107	-200.000	-0.040	-0.241
-114.093	-79.551	0.111	-0.036
-113.078	289.046	0.192	0.339
-112.064	-200.000	-0.046	-0.223
-111.049	-93.639	-0.205	0.055
-110.034	-82.296	0.533	-0.169
-109.020	-160.709	-0.072	0.004
-108.005	-200.000	0.030	0.250
-106.991	-200.000	0.062	0.302
-105.976	-165.720	-0.178	-0.007
-104.962	-1.723	0.277	-0.190
-103.947	-58.122	-0.188	-0.080
-102.932	-200.000	0.003	-0.155
-101.918	-93.652	-0.257	-0.069
-100.903	360.148	-0.054	-0.105
-99.889	257.710	-0.070	0.117
-98.874	-4.864	0.032	0.022
-97.859	51.320	0.079	0.073
-96.845	-11.840	-0.220	-0.141
-95.830	-147.885	-0.098	0.008
-94.816	-46.058	-0.234	-0.112
-93.801	166.289	0.027	0.037
-92.786	800.000	-0.044	-0.130
-91.772	15.009	-0.218	0.166
-90.757	31.791	0.224	0.188
-89.743	-21.327	-0.294	0.175
-88.728	-200.000	0.006	0.235
-87.713	68.053	-0.134	0.134
-86.699	15.453	0.116	0.089
-85.684	596.415	-0.072	0.174
-84.670	543.510	-0.110	-0.255
-83.655	201.243	-0.124	0.186
-82.640	-200.000	0.041	-0.183
-81.626	-68.184	-0.234	-0.089
-80.611	640.858	0.143	0.354
-79.597	17.486	0.222	0.171
-78.582	425.561	0.050	-0.106
-77.567	564.409	0.078	-0.184
-76.553	-55.895	-0.238	-0.103
-75.538	800.000	0.065	0.269
-74.524	89.885	0.125	-0.136
-73.509	-95.646	0.310	0.081
-72.494	104.539	-0.118	-0.135
-71.480	-123.205	0.117	-0.018
-70.465	-147.714	0.336	-0.027
-69.451	800.000	0.069	-0.281
-68.436	22.694	0.224	-0.179
-67.422	49.277	-0.103	-0.095
-66.407	-200.000	0.011	0.063
-65.392	201.923	0.261	0.391
-64.378	-200.000	0.054	0.331
-63.363	-85.470	-0.192	-0.058
-62.349	-69.244	-0.184	-0.069
-61.334	99.143	-1.194	-1.342
-60.319	111.441	0.826	0.970
-59.305	573.735	-0.559	-1.326
-58.290	800.000	0.498	1.361
-57.276	800.000	0.583	1.613
-56.261	-200.000	134.872	690.134
-55.246	349.748	1671.678	3212.193
-54.232	134.440	2804.278	3537.477
-53.217	89.608	2192.775	2379.612
-52.203	31.811	1706.481	1428.910
-51.188	24.584	1529.526	1231.094
-50.173	22.824	1507.264	1201.166
-49.159	47.531	1582.404	1434.866
-48.144	44.154	1592.263	1420.163
-47.130	24.694	1540.852	1240.773
-46.115	21.878	1525.039	1208.617
-45.100	21.675	1521.398	1204.292
-44.086	21.630	1519.844	1202.702
-43.071	21.569	1517.601	1200.459
-42.057	21.470	1516.292	1198.704
-41.042	21.533	1514.519	1197.685
-40.027	21.563	1513.424	1196.972
-39.013	21.639	1511.715	1196.097
-37.998	21.506	1510.622	1194.274
-36.984	21.520	1509.527	1193.460
-35.969	21.510	1508.389	1192.441
-34.954	21.572	1507.256	1191.923
-33.940	21.474	1505.964	1190.184
-32.925	21.522	1503.891	1188.824
-31.911	21.627	1502.443	1188.348
-30.896	21.658	1501.359	1187.654
-29.881	21.621	1499.883	1186.188
-28.867	21.668	1498.584	1185.428
-27.852	21.651	1496.833	1183.881
-26.838	21.705	1495.670	1183.283
-25.823	21.618	1494.402	1181.647
-24.809	21.720	1492.277	1180.602
-23.794	21.598	1491.518	1179.133
-22.779	21.740	1489.963	1178.815
-21.765	21.538	1489.541	1177.073
-20.750	21.730	1488.151	1177.220
-19.736	21.594	1487.400	1175.667
-18.721	21.592	1486.311	1174.747
-17.706	21.640	1484.775	1173.808
-16.692	21.579	1484.082	1172.804
-15.677	21.627	1483.190	1172.376
-14.663	21.583	1482.140	1171.205
-13.648	21.591	1481.325	1170.567
-12.633	21.647	1480.384	1170.149
-11.619	21.726	1479.356	1169.820
-10.604	21.649	1478.472	1168.560
-9.590	21.559	1477.666	1167.279
-8.575	21.696	1476.562	1167.268
-7.560	21.629	1475.738	1166.125
-6.546	21.558	1475.170	1165.157
-5.531	21.661	1473.936	1164.825
-4.517	21.460	1473.823	1163.347
-3.502	21.554	1472.486	1162.871
-2.487	21.549	1471.044	1161.652
-1.473	21.561	1470.021	1160.880
-0.458	21.681	1468.387	1160.339
0.556	20.592	1458.511	1148.410
1.571	17.284	1434.323	1107.739
2.586	13.729	1372.093	1037.388
3.600	12.130	1287.502	963.956
4.615	11.095	1243.972	925.400
5.629	9.825	1187.379	876.333
6.644	5.251	1106.871	793.641
7.659	1.261	1072.558	749.298
8.673	0.797	1067.470	743.400
9.688	0.730	1063.817	740.458
10.702	0.657	1062.229	738.932
11.717	0.656	1059.941	737.272
12.731	2.082	1060.125	744.289
13.746	7.702	1067.894	777.215
14.761	13.891	1076.030	813.474
15.775	17.087	1079.314	831.566
16.790	17.001	1078.307	830.296
17.804	16.082	1076.164	824.082
18.819	15.217	1074.216	818.296
19.834	14.779	1073.031	815.186
20.848	14.387	1072.365	812.693
21.863	14.179	1071.386	810.869
22.877	13.972	1070.629	809.215
23.892	13.776	1069.664	807.462
24.907	13.709	1068.246	805.991
25.921	13.814	1068.042	806.276
26.936	13.683	1067.791	805.382
27.950	13.822	1066.715	805.171
28.965	13.767	1066.340	804.549
29.980	13.682	1064.987	803.047
30.994	13.831	1063.459	802.546
32.009	13.837	1063.012	802.165
33.023	13.863	1062.860	802.105
34.038	14.022	1061.423	801.717
35.053	13.826	1060.858	800.275
36.067	13.855	1059.683	799.457
37.082	13.847	1058.980	798.815
38.096	13.836	1058.256	798.148
39.111	13.896	1057.163	797.540
40.126	14.006	1056.526	797.516
41.140	13.903	1055.548	796.214
42.155	13.845	1054.493	795.071
43.169	13.788	1053.763	794.177
44.184	13.800	1052.348	793.097
45.199	13.742	1051.617	792.198
46.213	13.784	1050.622	791.580
47.228	13.756	1049.314	790.393
48.242	13.788	1048.310	789.716
49.257	13.931	1047.236	789.520
50.271	13.780	1046.636	788.281
51.286	13.789	1045.814	787.632
52.301	13.764	1045.336	787.084
53.315	13.853	1044.533	786.834
54.330	13.748	1043.408	785.418
55.344	13.649	1042.827	784.445
56.359	13.793	1041.470	784.030
57.374	13.807	1040.683	783.439
58.388	13.685	1039.652	782.015
59.403	13.735	1038.749	781.503
60.417	13.567	1038.370	780.359
61.432	13.661	1037.172	779.830
62.447	13.746	1036.624	779.747
63.461	13.654	1035.855	778.669
64.476	13.712	1035.026	778.250
65.490	13.752	1033.357	777.114
66.505	13.702	1032.961	776.512
67.520	13.717	1032.384	776.078
68.534	13.655	1031.889	775.350
69.549	13.716	1030.718	774.684
70.563	13.712	1030.094	774.129
71.578	13.711	1029.453	773.573
72.593	13.705	1028.249	772.574
73.607	13.634	1027.420	771.551
74.622	13.512	1026.373	770.130
75.636	13.525	1025.723	769.636
76.651	13.722	1024.944	769.897
77.666	13.646	1024.180	768.903
78.680	13.668	1023.310	768.286
79.695	13.624	1022.827	767.650
80.709	13.690	1021.912	767.200
81.724	13.676	1021.130	766.480
82.739	13.761	1020.586	766.398
83.753	13.781	1019.931	765.927
84.768	13.822	1018.989	765.343
85.782	13.788	1018.068	764.429
86.797	13.926	1017.322	764.433
87.812	13.874	1016.209	763.292
88.826	13.709	1015.800	762.160
89.841	13.831	1014.804	761.905
90.855	13.880	1013.728	761.252
91.870	13.962	1013.190	761.157
92.884	13.946	1012.425	760.444
93.899	13.780	1012.168	759.421
94.914	14.038	1010.651	759.398
95.928	13.911	1010.260	758.457
96.943	14.098	1009.398	758.593
97.957	13.907	1008.829	757.229
98.972	13.885	1007.828	756.310
99.987	13.901	1007.095	755.766
101.001	13.883	1006.576	755.228
102.016	13.975	1005.421	754.713
103.030	14.077	1004.309	754.273
104.045	13.952	1003.608	753.113
105.060	13.936	1002.081	751.829
106.074	13.894	1001.791	751.353
107.089	13.929	1000.984	750.840
108.103	13.783	1000.062	749.425
109.118	13.754	999.372	748.710
110.133	13.726	998.503	747.864
111.147	13.804	997.506	747.403
112.162	13.890	996.486	746.961
113.176	13.893	995.880	746.455
114.191	13.890	994.794	745.560
115.206	13.798	994.179	744.622
116.220	14.002	993.073	744.642
117.235	13.756	992.718	743.205
118.249	13.795	991.689	742.544
119.264	13.795	990.667	741.712
120.279	13.916	989.632	741.415
121.293	13.880	988.632	740.438
122.308	13.861	988.443	740.145
123.322	13.780	987.750	739.201
124.337	13.892	986.263	738.523
125.352	13.877	985.222	737.610
126.366	13.926	983.819	736.713
127.381	13.816	983.357	735.810
128.395	13.942	982.109	735.370
129.410	13.857	980.982	734.085
130.424	13.933	980.103	733.698
131.439	13.792	979.119	732.275
132.454	13.848	978.380	731.908
133.468	13.867	977.922	731.584
134.483	13.706	977.428	730.440
135.497	13.841	976.280	730.108
136.512	13.930	975.515	729.864
137.527	13.924	974.759	729.206
138.541	13.797	974.565	728.439
139.556	13.886	973.543	728.002
140.570	13.931	972.271	727.184
141.585	13.979	972.022	727.146
142.600	13.962	971.660	726.734
143.614	13.947	970.624	725.830
144.629	14.078	969.637	725.599
145.643	14.054	969.040	724.982
146.658	14.062	968.196	724.324
147.673	14.000	967.490	723.462
148.687	14.027	966.438	722.728
149.702	13.987	965.386	721.701
150.716	13.961	964.835	721.115
151.731	14.062	963.909	720.796
152.746	13.901	963.479	719.712
153.760	14.102	962.434	719.740
154.775	14.114	961.269	718.856
155.789	14.258	960.794	719.060
156.804	14.061	960.094	717.621
157.819	14.060	958.987	716.725
158.833	14.143	958.541	716.689
159.848	14.211	958.585	716.948
160.862	14.195	957.174	715.760
161.877	14.203	956.777	715.435
162.892	14.192	955.370	714.275
163.906	14.144	954.703	713.507
164.921	14.058	954.065	712.597
165.935	14.101	953.454	712.260
166.950	14.191	952.333	711.745
167.964	14.129	951.366	710.694
168.979	14.210	950.320	710.197
169.994	14.214	949.232	709.340
171.008	14.270	948.223	708.760
172.023	14.243	947.734	708.216
173.037	14.201	947.412	707.735
174.052	14.237	946.246	706.953
175.067	14.194	945.559	706.196
176.081	14.262	944.652	705.745
177.096	14.243	943.656	704.858
178.110	14.239	942.912	704.224
179.125	14.333	942.271	704.078
180.140	14.203	941.494	702.888
181.154	14.340	940.413	702.594
182.169	14.361	939.964	702.288
183.183	14.375	939.682	702.074
184.198	14.328	938.733	701.104
185.213	14.391	937.955	700.725
186.227	14.440	937.619	700.619
187.242	14.414	937.199	700.134
188.256	14.481	936.263	699.654
189.271	14.596	935.026	699.149
190.286	14.558	934.929	698.853
191.300	14.442	933.640	697.345
192.315	14.390	933.121	696.676
193.329	14.415	932.271	696.085
194.344	14.436	931.675	695.669
195.359	14.388	931.303	695.126
196.373	14.538	930.552	695.132
197.388	14.428	930.129	694.296
198.402	14.523	929.725	694.325
199.417	14.697	928.878	694.357
200.432	14.705	928.064	693.721
201.446	14.664	928.029	693.462
202.461	14.689	927.567	693.160
203.475	14.764	926.955	692.951
204.490	14.746	926.117	692.188
205.504	14.654	925.508	691.292
206.519	14.698	924.769	690.863
207.534	14.692	923.960	690.172
208.548	14.620	923.141	689.203
209.563	14.729	922.791	689.327
210.577	14.693	922.006	688.533
211.592	14.792	920.970	688.107
212.607	14.659	921.225	687.686
213.621	14.814	920.054	687.391
214.636	14.887	919.451	687.179
215.650	14.835	918.717	686.354
216.665	14.939	918.152	686.300
217.680	14.900	917.678	685.725
218.694	14.830	917.019	684.884
219.709	14.924	916.234	684.622
220.723	15.038	915.666	684.604
221.738	15.028	914.871	683.909
222.753	15.052	914.226	683.463
223.767	15.052	913.458	682.829
224.782	14.883	912.892	681.658
225.796	14.952	912.319	681.450
226.811	15.083	911.264	681.135
227.826	15.115	910.642	680.741
228.840	15.012	910.116	679.867
229.855	15.026	909.398	679.328
230.869	15.128	908.354	678.903
231.884	14.870	908.379	677.813
232.899	15.038	907.025	677.422
233.913	15.131	906.319	677.213
234.928	14.936	906.203	676.279
235.942	15.027	905.525	676.081
236.957	15.108	904.676	675.713
237.972	15.039	904.022	674.888
238.986	15.051	903.368	674.388
240.001	15.006	903.066	673.922
241.015	15.157	901.985	673.661
242.030	15.149	901.302	673.058
243.045	15.331	900.685	673.269
244.059	15.115	900.111	671.916
245.074	15.271	899.549	672.062
246.088	15.243	898.683	671.242
247.103	15.319	898.175	671.108
248.117	15.387	897.057	670.486
249.132	15.388	897.165	670.512
250.147	15.350	896.475	669.782
251.161	15.328	895.806	669.136
252.176	15.402	894.766	668.598
253.190	15.561	893.909	668.530
254.205	15.542	893.326	667.960
255.220	15.502	892.951	667.460
256.234	15.457	892.660	667.003
257.249	15.630	891.797	666.988
258.263	15.436	891.576	665.994
259.278	15.559	890.658	665.735
260.293	15.667	889.996	665.609
261.307	15.649	889.799	665.334
262.322	15.658	888.821	664.578
263.336	15.725	888.138	664.275
264.351	15.609	887.874	663.559
265.366	15.833	887.118	663.817
266.380	15.881	886.097	663.186
267.395	15.791	885.564	662.372
268.409	15.676	885.177	661.572
269.424	15.762	884.235	661.149
270.439	15.702	883.952	660.644
271.453	15.794	882.864	660.133
272.468	15.609	881.989	658.695
273.482	15.726	881.474	658.710
274.497	15.875	880.911	658.812
275.512	15.801	880.200	657.932
276.526	15.765	879.468	657.188
277.541	15.880	878.425	656.798
278.555	15.751	878.290	656.139
279.570	15.873	877.139	655.696
280.585	15.925	876.906	655.663
281.599	16.079	876.016	655.542
282.614	15.930	875.863	654.786
283.628	16.007	875.261	654.578
284.643	15.902	874.442	653.499
285.657	15.959	874.542	653.739
286.672	16.071	873.391	653.257
287.687	16.126	872.726	652.913
288.701	15.977	872.423	652.053
289.716	15.969	871.756	651.463
290.730	16.093	871.293	651.539
291.745	16.094	870.578	650.952
292.760	16.084	869.740	650.230
293.774	16.080	869.358	649.869
294.789	16.197	868.446	649.581
295.803	16.225	868.121	649.389
296.818	16.139	867.672	648.666
297.833	16.084	866.995	647.888
298.847	16.089	866.337	647.358
299.862	16.117	865.600	646.858
300.876	16.215	864.723	646.524
301.891	16.125	864.006	645.584
302.906	16.366	863.069	645.750
303.920	16.367	862.306	645.123
304.935	16.278	861.982	644.486
305.949	16.448	861.454	644.683
306.964	16.355	860.524	643.576
307.979	16.562	860.259	644.110
308.993	16.378	859.755	642.975
310.008	16.542	859.280	643.185
311.022	16.503	858.662	642.518
312.037	16.496	858.140	642.043
313.052	16.345	857.586	640.999
314.066	16.503	857.059	641.146
315.081	16.445	856.436	640.405
316.095	16.354	856.080	639.736
317.110	16.474	855.016	639.338
318.125	16.389	854.820	638.816
319.139	16.425	853.977	638.264
320.154	16.477	853.521	638.063
321.168	16.580	853.081	638.066
322.183	16.448	852.546	637.111
323.197	16.508	852.586	637.311
324.212	16.498	851.724	636.575
325.227	16.494	851.161	636.083
326.241	16.513	850.563	635.650
327.256	16.536	850.176	635.393
328.270	16.680	849.407	635.301
329.285	16.655	848.818	634.709
330.300	16.538	848.412	633.911
331.314	16.571	847.676	633.429
332.329	16.526	847.260	632.893
333.343	16.650	846.555	632.773
334.358	16.553	846.292	632.161
335.373	16.662	845.488	631.910
336.387	16.757	844.814	631.704
337.402	16.819	844.280	631.481
338.416	16.743	843.675	630.689
339.431	16.779	843.353	630.527
340.446	16.780	842.628	629.934
341.460	16.883	842.124	629.882
342.475	16.854	841.574	629.309
343.489	16.841	841.178	628.906
344.504	17.072	840.104	628.905
345.519	17.022	839.804	628.440
346.533	17.138	839.258	628.406
347.548	17.094	838.963	627.966
348.562	17.007	838.165	626.991
349.577	17.001	837.915	626.728
350.592	17.068	836.945	626.193
351.606	17.007	836.707	625.732
352.621	17.069	836.257	625.571
353.635	16.997	835.932	625.006
354.650	16.931	835.709	624.542
355.665	17.025	834.966	624.279
356.679	17.090	834.712	624.272
357.694	17.132	833.868	623.738
358.708	17.112	833.295	623.181
359.723	17.049	833.055	622.716
360.738	17.211	832.329	622.714
361.752	17.191	831.942	622.295
362.767	17.219	831.576	622.068
363.781	17.208	830.881	621.451
364.796	17.208	830.674	621.242
365.810	17.267	830.183	621.037
366.825	17.256	829.929	620.750
367.840	17.403	829.605	620.992
368.854	17.286	829.156	620.172
369.869	17.321	828.589	619.819
370.883	17.332	828.153	619.480
371.898	17.327	827.418	618.857
372.913	17.377	827.077	618.731
373.927	17.424	826.111	618.125
374.942	17.420	825.374	617.503
375.956	17.528	824.665	617.308
376.971	17.572	824.278	617.124
377.986	17.408	824.021	616.282
379.000	17.498	823.528	616.187
380.015	17.432	823.463	615.845
381.029	17.592	822.366	615.546
382.044	17.386	822.228	614.643
383.059	17.513	821.109	614.211
384.073	17.647	820.588	614.252
385.088	17.702	820.137	614.055
386.102	17.683	819.255	613.273
387.117	17.672	818.809	612.845
388.132	17.567	818.315	612.044
389.146	17.566	818.200	611.902
390.161	17.635	818.017	611.958
391.175	17.706	817.169	611.525
392.190	17.823	816.761	611.585
393.205	17.613	816.784	610.793
394.219	17.612	816.288	610.366
395.234	17.733	815.414	610.092
396.248	17.709	814.979	609.627
397.263	17.795	814.464	609.495
398.278	17.494	814.498	608.391
399.292	17.731	813.276	608.269
400.307	17.770	812.867	608.050
401.321	17.804	812.419	607.782
402.336	17.905	812.085	607.836
403.350	17.624	812.244	606.901
404.365	17.781	811.642	606.958
405.380	17.861	810.937	606.660
406.394	17.875	810.526	606.350
407.409	17.933	809.782	605.943
408.423	17.778	809.728	605.299
409.438	17.906	809.194	605.303
410.453	17.894	808.841	604.941
411.467	17.945	808.276	604.646
412.482	18.104	807.535	604.599
413.496	18.075	807.234	604.218
414.511	18.190	807.156	604.514
415.526	18.046	806.340	603.342
416.540	18.228	805.777	603.507
417.555	18.140	805.481	602.923
418.569	18.041	805.412	602.470
419.584	17.974	804.957	601.837
420.599	18.103	804.365	601.797
421.613	115.698	1299.479	1490.863
422.628	99.947	1371.561	1490.897
