DTS Sentinel unit serial number:	SN413079Multiplexer serial number:	ORYXHardware model number:	OX4-SRSoftware version number:	ORYX F/W v4.00 Oryx Data Collector v3.7.2.0data status	okinstallation	princeton_trtdifferential loss correction	single-endedforward channel	channel 3reverse channel	N/Adate	2019/09/12time	08:46:10forward acquisition time	60.00reverse acquisition time	0.00gamma	496.2192k internal	0.2310k external	0.2310temperature offset calibration	1.0031default loss term (dB/km)	0.3790temperature slope calibration	1.0000multiplexer offset coefficient	1.0000multiplexer slope coefficient	1.0000fibre end	0.00T internal ref (°C)	33.94T ext. ref 1 (°C)	1.74T ext. ref 2 (°C)	30.39length (m)	temperature (°C)	Stokes	anti-Stokes-747.200	243.369	0.188	0.320
-746.185	134.394	0.168	0.221
-745.171	37.345	0.286	0.257
-744.156	800.000	-0.075	0.216
-743.142	13.025	0.128	-0.100
-742.127	775.418	0.103	0.285
-741.112	-200.000	-0.021	0.348
-740.098	43.269	-0.082	0.076
-739.083	-200.000	0.051	0.292
-738.069	26.930	0.160	0.136
-737.054	-200.000	0.010	0.197
-736.039	252.950	0.019	0.033
-735.025	246.453	0.046	-0.079
-734.010	-123.140	0.234	-0.038
-732.996	-107.977	-0.238	0.053
-731.981	-101.056	0.370	0.092
-730.966	52.150	-0.258	-0.250
-729.952	53.471	0.054	-0.053
-728.937	-200.000	0.076	0.439
-727.923	152.320	-0.097	0.134
-726.908	100.745	0.110	0.129
-725.894	441.410	-0.136	-0.303
-724.879	-104.241	-0.310	0.073
-723.864	34.303	-0.194	-0.172
-722.850	-44.625	-0.100	-0.051
-721.835	-108.163	-0.336	0.074
-720.821	276.810	-0.128	-0.230
-719.806	103.898	-0.084	-0.100
-718.791	705.345	0.180	-0.483
-717.777	-89.916	0.248	-0.073
-716.762	-200.000	0.032	0.396
-715.748	-29.237	-0.312	0.181
-714.733	136.460	-0.346	-0.458
-713.718	-70.424	0.295	0.113
-712.704	28.406	-0.117	-0.100
-711.689	-155.622	0.182	-0.012
-710.675	-119.975	0.155	0.027
-709.660	-126.097	0.250	0.038
-708.645	-200.000	-0.036	-0.164
-707.631	61.336	-0.168	-0.169
-706.616	211.919	0.130	0.207
-705.602	-200.000	-0.003	0.056
-704.587	-200.000	0.011	0.145
-703.572	14.190	0.122	-0.096
-702.558	-157.995	-0.206	-0.012
-701.543	-65.477	0.195	-0.079
-700.529	-200.000	-0.026	-0.181
-699.514	-33.827	0.223	0.125
-698.499	566.715	-0.104	0.255
-697.485	509.558	-0.094	0.221
-696.470	19.712	-0.101	-0.083
-695.456	-167.413	-0.291	0.012
-694.441	-114.032	-0.097	-0.019
-693.426	-62.582	0.116	-0.049
-692.412	24.944	-0.133	0.112
-691.397	-178.996	-0.391	-0.009
-690.383	-200.000	-0.025	-0.119
-689.368	-55.514	0.096	-0.044
-688.354	-200.000	-0.008	0.103
-687.339	161.966	-0.054	0.077
-686.324	-200.000	0.032	-0.255
-685.310	418.184	0.058	-0.127
-684.295	33.985	0.050	0.044
-683.281	-90.872	-0.143	-0.042
-682.266	258.407	0.159	-0.278
-681.251	-144.578	0.056	-0.005
-680.237	800.000	-0.075	-0.236
-679.222	447.172	-0.068	0.151
-678.208	-75.630	0.200	0.072
-677.193	35.096	-0.177	0.157
-676.178	-200.000	0.017	-0.215
-675.164	-111.896	0.144	-0.029
-674.149	-26.254	-0.190	-0.113
-673.135	92.499	-0.159	0.182
-672.120	-91.267	-0.228	0.066
-671.105	94.374	-0.055	0.063
-670.091	87.940	-0.176	-0.197
-669.076	800.000	-0.106	-0.396
-668.062	-141.575	0.367	-0.038
-667.047	22.091	-0.255	0.210
-666.032	-70.350	-0.170	-0.065
-665.018	-99.629	-0.020	0.005
-664.003	800.000	0.039	-0.120
-662.989	-200.000	0.005	-0.194
-661.974	6.759	-0.189	0.143
-660.959	149.588	-0.153	0.210
-659.945	720.568	0.035	-0.094
-658.930	6.161	-0.423	0.318
-657.916	-98.101	-0.321	0.083
-656.901	146.853	0.092	0.125
-655.886	-200.000	0.015	0.217
-654.872	-200.000	0.055	-0.388
-653.857	800.000	-0.074	-0.237
-652.843	-200.000	-0.010	-0.053
-651.828	58.732	-0.266	0.264
-650.814	16.531	0.379	-0.303
-649.799	54.525	0.158	0.154
-648.784	795.907	0.038	0.107
-647.770	-200.000	-0.023	0.104
-646.755	337.791	-0.098	0.194
-645.741	-200.000	-0.017	0.137
-644.726	-123.737	0.495	-0.079
-643.711	-33.853	-0.311	-0.173
-642.697	-28.866	-0.163	0.095
-641.682	-96.245	-0.207	0.056
-640.668	259.463	0.044	0.077
-639.653	587.157	0.088	-0.219
-638.638	120.973	-0.057	0.072
-637.624	-113.350	-0.059	-0.012
-636.609	242.062	0.042	0.071
-635.595	800.000	0.067	0.213
-634.580	-116.315	-0.166	-0.031
-633.565	77.084	0.083	0.089
-632.551	800.000	-0.035	0.108
-631.536	179.816	0.098	0.144
-630.522	-200.000	-0.063	0.288
-629.507	-112.577	0.180	-0.036
-628.492	84.431	0.158	0.175
-627.478	8.236	-0.267	-0.203
-626.463	-76.846	-0.405	-0.143
-625.449	-3.684	0.164	-0.115
-624.434	81.541	0.135	0.148
-623.419	800.000	0.016	0.049
-622.405	-200.000	0.011	0.218
-621.390	800.000	0.063	-0.238
-620.376	-200.000	0.028	-0.180
-619.361	-104.078	0.221	-0.052
-618.346	123.592	-0.066	0.084
-617.332	-161.113	-0.337	0.018
-616.317	22.516	-0.231	0.191
-615.303	-200.000	0.042	0.503
-614.288	127.575	-0.178	0.229
-613.273	-200.000	-0.011	0.138
-612.259	-55.602	0.317	0.143
-611.244	-34.360	-0.153	-0.085
-610.230	-60.808	-0.342	-0.146
-609.215	-6.054	0.163	-0.112
-608.201	-77.440	-0.323	0.113
-607.186	-200.000	-0.001	-0.246
-606.171	188.782	0.092	-0.139
-605.157	-143.129	-0.205	-0.020
-604.142	17.235	-0.178	-0.142
-603.128	60.828	-0.221	-0.222
-602.113	124.233	-0.243	-0.309
-601.098	166.470	-0.136	-0.194
-600.084	800.000	0.203	-0.596
-599.069	236.625	0.085	0.143
-598.055	800.000	-0.102	0.366
-597.040	292.469	0.059	-0.108
-596.025	81.813	-0.181	0.198
-595.011	202.350	-0.028	0.043
-593.996	-78.619	0.241	0.083
-592.982	123.509	0.116	0.147
-591.967	71.891	0.089	0.093
-590.952	-46.547	-0.266	0.132
-589.938	-23.282	-0.141	0.086
-588.923	-35.489	-0.261	0.143
-587.909	-64.891	0.090	-0.037
-586.894	416.583	0.150	-0.323
-585.879	149.826	-0.062	0.085
-584.865	593.532	-0.075	0.188
-583.850	518.882	-0.064	-0.150
-582.836	-200.000	0.007	-0.034
-581.821	-34.984	-0.153	-0.084
-580.806	-86.768	-0.029	-0.009
-579.792	800.000	-0.110	-0.369
-578.777	800.000	0.098	0.272
-577.763	800.000	-0.041	0.143
-576.748	348.984	-0.033	0.066
-575.733	-154.189	-0.187	-0.013
-574.719	207.758	-0.048	0.075
-573.704	-92.869	-0.105	-0.030
-572.690	-200.000	-0.002	-0.518
-571.675	-40.243	-0.150	0.079
-570.661	800.000	0.048	-0.204
-569.646	-146.535	-0.315	-0.028
-568.631	-27.455	0.200	0.117
-567.617	-46.990	-0.328	-0.161
-566.602	-200.000	-0.024	0.121
-565.588	-143.005	-0.314	0.031
-564.573	-200.000	-0.005	-0.275
-563.558	-39.291	0.115	-0.061
-562.544	-149.364	0.166	0.013
-561.529	-200.000	-0.067	0.378
-560.515	17.184	0.190	-0.152
-559.500	-44.228	0.207	0.105
-558.485	45.896	0.140	-0.131
-557.471	-4.867	-0.134	-0.093
-556.456	82.447	-0.235	0.257
-555.442	24.689	-0.172	0.143
-554.427	-71.424	0.152	0.057
-553.412	-69.036	-0.175	-0.068
-552.398	-200.000	0.008	0.074
-551.383	800.000	0.081	0.327
-550.369	-113.621	0.211	0.042
-549.354	-20.098	0.260	-0.161
-548.339	-146.457	0.113	-0.010
-547.325	-200.000	0.027	-0.275
-546.310	-69.327	0.049	0.019
-545.296	-121.163	0.369	-0.062
-544.281	208.102	-0.080	-0.126
-543.266	120.099	0.066	-0.082
-542.252	-92.533	0.167	-0.047
-541.237	800.000	-0.044	0.145
-540.223	-165.798	0.219	-0.009
-539.208	47.718	-0.054	-0.051
-538.193	800.000	0.074	0.225
-537.179	-164.706	-0.130	0.006
-536.164	-53.998	-0.496	-0.227
-535.150	-169.044	0.098	0.004
-534.135	-130.973	-0.116	0.016
-533.121	-96.502	-0.210	0.056
-532.106	-44.583	0.161	-0.081
-531.091	211.689	0.122	-0.194
-530.077	800.000	0.110	0.404
-529.062	-112.925	-0.350	-0.070
-528.048	367.979	0.026	0.052
-527.033	-105.957	-0.230	-0.052
-526.018	-140.782	0.228	-0.024
-525.004	-15.238	-0.072	0.047
-523.989	-24.073	-0.207	-0.124
-522.975	135.622	-0.209	0.274
-521.960	800.000	-0.101	-0.304
-520.945	-200.000	-0.003	0.078
-519.931	-200.000	0.015	0.125
-518.916	323.932	-0.042	-0.080
-517.902	-83.026	-0.332	0.108
-516.887	-38.953	0.201	-0.107
-515.872	-200.000	0.007	-0.554
-514.858	314.921	0.055	0.103
-513.843	-200.000	0.016	0.117
-512.829	800.000	0.079	-0.240
-511.814	-200.000	-0.053	0.242
-510.799	-3.947	-0.275	0.192
-509.785	60.192	-0.170	-0.169
-508.770	-46.984	-0.187	0.092
-507.756	-103.563	-0.292	0.069
-506.741	-200.000	0.031	-0.246
-505.726	557.174	0.051	-0.124
-504.712	-136.672	0.102	-0.012
-503.697	-23.601	-0.325	0.196
-502.683	-200.000	0.032	-0.446
-501.668	-52.511	0.169	-0.079
-500.653	396.370	-0.027	0.058
-499.639	644.457	0.058	-0.150
-498.624	49.644	-0.317	0.300
-497.610	4.701	-0.108	0.079
-496.595	-200.000	0.007	-0.152
-495.581	800.000	-0.070	-0.245
-494.566	-27.741	-0.058	-0.034
-493.551	-47.371	-0.311	-0.152
-492.537	-90.994	0.340	0.098
-491.522	-61.492	0.282	-0.119
-490.508	-27.448	0.262	-0.153
-489.493	-140.121	0.216	-0.023
-488.478	95.132	-0.032	-0.036
-487.464	-44.253	-0.174	0.088
-486.449	-181.173	0.157	-0.003
-485.435	-96.396	-0.081	0.022
-484.420	349.893	0.131	0.259
-483.405	186.800	0.229	0.343
-482.391	213.664	0.049	-0.077
-481.376	-200.000	0.034	0.180
-480.362	52.457	-0.179	-0.172
-479.347	45.206	0.094	0.087
-478.332	63.853	0.160	0.161
-477.318	-200.000	0.021	0.097
-476.303	643.432	0.091	0.234
-475.289	135.604	0.124	0.162
-474.274	-101.404	0.300	-0.073
-473.259	108.890	0.017	-0.020
-472.245	-136.249	0.122	0.014
-471.230	14.732	-0.117	-0.092
-470.216	-31.520	0.167	0.094
-469.201	800.000	-0.088	-0.305
-468.186	800.000	0.073	0.239
-467.172	102.902	0.040	0.047
-466.157	36.290	-0.124	-0.110
-465.143	-200.000	-0.014	-0.126
-464.128	800.000	-0.054	-0.187
-463.113	78.859	-0.197	0.212
-462.099	-111.105	-0.065	0.013
-461.084	-200.000	0.001	-0.149
-460.070	-126.766	-0.095	0.014
-459.055	-85.039	-0.116	-0.036
-458.040	-200.000	-0.033	0.387
-457.026	3.121	-0.132	0.096
-456.011	-200.000	-0.008	0.293
-454.997	-172.886	0.224	0.007
-453.982	-85.705	-0.136	-0.042
-452.968	-58.423	0.145	0.063
-451.953	-149.369	-0.072	0.006
-450.938	-184.958	-0.216	0.003
-449.924	17.643	0.292	-0.233
-448.909	337.779	-0.078	-0.153
-447.895	13.131	-0.071	0.055
-446.880	-177.481	0.181	0.004
-445.865	-91.371	0.200	-0.057
-444.851	218.009	-0.074	-0.119
-443.836	70.851	-0.151	-0.157
-442.822	96.799	-0.019	-0.022
-441.807	7.270	0.090	0.067
-440.792	-63.757	-0.009	0.004
-439.778	54.799	0.052	0.050
-438.763	-200.000	-0.026	0.127
-437.749	-101.594	-0.133	-0.033
-436.734	49.738	-0.072	-0.069
-435.719	-144.861	0.071	0.006
-434.705	365.720	-0.068	0.137
-433.690	-101.258	-0.117	-0.029
-432.676	133.726	0.237	-0.307
-431.661	800.000	-0.037	-0.126
-430.646	-200.000	0.041	0.247
-429.632	102.410	0.223	-0.261
-428.617	-18.784	0.258	-0.161
-427.603	-18.277	-0.286	-0.179
-426.588	-25.163	-0.169	-0.100
-425.573	-65.030	-0.164	-0.066
-424.559	112.877	-0.252	-0.306
-423.544	800.000	-0.035	-0.118
-422.530	-135.103	0.122	0.015
-421.515	-30.925	0.062	-0.035
-420.500	150.667	0.024	0.033
-419.486	381.733	-0.041	0.085
-418.471	-200.000	-0.037	-0.475
-417.457	800.000	-0.050	-0.185
-416.442	-156.024	0.170	-0.011
-415.428	58.546	-0.224	-0.221
-414.413	800.000	-0.080	0.266
-413.398	-67.944	0.144	-0.056
-412.384	-125.106	0.197	0.030
-411.369	-108.689	0.155	-0.033
-410.355	800.000	0.066	-0.223
-409.340	-141.731	0.335	-0.034
-408.325	-111.953	0.206	-0.042
-407.311	-38.974	0.223	-0.118
-406.296	-73.155	0.337	0.124
-405.282	-26.019	-0.224	-0.132
-404.267	236.500	0.194	-0.322
-403.252	7.929	-0.133	0.100
-402.238	101.529	-0.106	-0.124
-401.223	-71.668	0.358	0.134
-400.209	584.977	0.076	0.187
-399.194	68.144	0.126	0.129
-398.179	95.537	0.205	0.234
-397.165	-157.350	0.214	-0.013
-396.150	-200.000	0.055	0.299
-395.136	19.162	0.193	-0.155
-394.121	-54.045	0.141	-0.064
-393.106	140.597	0.177	0.234
-392.092	156.442	-0.232	0.321
-391.077	-78.631	0.075	-0.026
-390.063	165.296	-0.034	0.049
-389.048	-0.963	-0.170	-0.121
-388.033	93.886	0.078	-0.089
-387.019	-80.751	0.424	0.141
-386.004	-105.032	-0.178	0.041
-384.990	25.495	-0.202	0.168
-383.975	24.885	0.076	-0.063
-382.960	-96.775	-0.096	0.025
-381.946	-160.148	-0.322	0.018
-380.931	-200.000	0.436	-0.000
-379.917	-121.486	-0.305	-0.051
-378.902	54.479	-0.054	-0.052
-377.888	-200.000	-0.056	0.295
-376.873	-111.983	-0.472	0.095
-375.858	-120.539	0.211	0.036
-374.844	-114.968	0.154	0.029
-373.829	-106.661	0.166	0.037
-372.815	-200.000	-0.550	0.002
-371.800	-200.000	-0.007	-0.184
-370.785	800.000	-0.098	-0.304
-369.771	218.968	0.215	0.344
-368.756	-200.000	0.019	-0.216
-367.742	-94.663	0.109	0.030
-366.727	-19.476	-0.370	0.229
-365.712	2.926	-0.032	0.023
-364.698	71.394	0.138	0.143
-363.683	631.434	0.039	-0.099
-362.669	-48.395	0.266	-0.128
-361.654	-173.034	-0.168	-0.005
-360.639	-200.000	0.016	0.182
-359.625	145.727	-0.152	-0.203
-358.610	398.969	0.070	0.147
-357.596	800.000	0.118	-0.384
-356.581	-200.000	0.048	-0.285
-355.566	800.000	-0.086	-0.242
-354.552	187.614	0.063	0.095
-353.537	46.534	-0.364	0.338
-352.523	96.920	0.122	-0.140
-351.508	-105.121	-0.119	-0.027
-350.493	-166.609	0.385	0.016
-349.479	-101.208	0.394	0.096
-348.464	397.583	0.067	0.140
-347.450	-33.669	-0.091	0.050
-346.435	-73.854	0.112	-0.041
-345.420	-141.132	0.083	-0.008
-344.406	563.755	-0.076	-0.183
-343.391	95.231	0.209	-0.239
-342.377	-200.000	0.018	0.110
-341.362	-200.000	-0.021	0.246
-340.348	-200.000	-0.002	0.066
-339.333	188.582	0.090	-0.135
-338.318	73.978	-0.089	-0.093
-337.304	-200.000	-0.035	0.529
-336.289	-54.250	-0.152	0.069
-335.275	575.265	0.070	-0.171
-334.260	137.351	-0.183	0.239
-333.245	800.000	0.021	0.078
-332.231	-104.984	0.319	0.073
-331.216	-200.000	-0.060	-0.499
-330.202	15.550	0.199	-0.156
-329.187	-120.266	0.259	-0.044
-328.172	-200.000	0.018	-0.132
-327.158	380.313	-0.097	-0.199
-326.143	-65.643	0.197	-0.079
-325.129	-123.167	0.338	-0.054
-324.114	9.747	-0.031	-0.024
-323.099	800.000	0.017	-0.058
-322.085	66.757	0.213	0.216
-321.070	-200.000	-0.005	0.034
-320.056	319.325	-0.071	0.134
-319.041	-19.853	-0.045	0.028
-318.026	-134.474	-0.116	0.014
-317.012	64.775	-0.046	-0.047
-315.997	91.478	-0.246	0.276
-314.983	-200.000	0.005	0.022
-313.968	647.455	0.078	0.199
-312.953	-54.073	0.173	-0.079
-311.939	-200.000	-0.028	-0.256
-310.924	-20.349	0.149	0.091
-309.910	199.860	0.128	0.196
-308.895	-200.000	-0.067	0.414
-307.880	795.219	-0.089	-0.246
-306.866	-50.686	-0.327	-0.154
-305.851	19.831	-0.180	-0.145
-304.837	-85.470	0.243	0.076
-303.822	-200.000	-0.038	0.297
-302.807	-200.000	-0.019	0.299
-301.793	-140.782	0.240	0.025
-300.778	321.808	0.072	-0.137
-299.764	1.397	0.210	-0.151
-298.749	800.000	0.065	0.237
-297.735	38.395	-0.186	-0.166
-296.720	43.406	0.176	0.160
-295.705	-200.000	0.020	-0.195
-294.691	145.291	-0.037	-0.050
-293.676	78.464	-0.078	0.083
-292.662	23.872	-0.320	0.264
-291.647	-200.000	0.011	-0.138
-290.632	800.000	0.061	0.265
-289.618	237.495	-0.040	-0.066
-288.603	-72.633	-0.247	0.091
-287.589	-55.123	-0.224	0.101
-286.574	425.785	-0.006	0.013
-285.559	-200.000	0.004	0.061
-284.545	116.884	0.147	0.180
-283.530	316.674	0.172	0.324
-282.516	-200.000	-0.021	-0.250
-281.501	-50.944	-0.122	-0.057
-280.486	-82.153	-0.138	-0.045
-279.472	215.786	-0.104	-0.165
-278.457	208.486	0.112	-0.175
-277.443	489.775	-0.037	0.085
-276.428	-107.591	-0.273	0.059
-275.413	-142.868	-0.178	-0.017
-274.399	-147.046	-0.181	0.015
-273.384	637.097	-0.140	0.355
-272.370	-200.000	-0.028	0.142
-271.355	-104.080	-0.102	-0.024
-270.340	364.616	0.022	-0.045
-269.326	223.515	0.076	-0.123
-268.311	-147.337	-0.177	0.015
-267.297	64.197	0.280	-0.280
-266.282	74.084	0.184	-0.193
-265.267	216.207	-0.234	0.371
-264.253	-76.073	0.064	-0.023
-263.238	800.000	0.028	0.116
-262.224	-200.000	0.036	0.286
-261.209	800.000	0.070	-0.289
-260.195	-169.877	0.108	-0.004
-259.180	800.000	0.040	0.144
-258.165	-51.070	-0.094	0.044
-257.151	598.785	0.046	0.114
-256.136	-134.339	-0.537	0.066
-255.122	499.383	0.210	-0.483
-254.107	800.000	-0.038	0.128
-253.092	51.581	0.103	-0.097
-252.078	800.000	-0.018	0.056
-251.063	-200.000	-0.023	-0.129
-250.049	-116.936	-0.015	-0.003
-249.034	-55.474	0.220	-0.098
-248.019	89.059	0.060	-0.067
-247.005	-200.000	0.019	0.237
-245.990	-200.000	0.029	0.133
-244.976	-135.794	-0.252	-0.030
-243.961	-90.572	-0.066	0.019
-242.946	219.520	0.048	0.077
-241.932	82.552	0.165	-0.178
-240.917	-200.000	0.006	-0.031
-239.903	-200.000	0.029	-0.223
-238.888	-200.000	0.015	0.155
-237.873	-11.277	0.045	0.030
-236.859	15.911	0.164	0.129
-235.844	-115.227	0.189	-0.036
-234.830	-154.735	0.162	-0.011
-233.815	11.466	-0.364	0.278
-232.800	34.844	-0.091	0.079
-231.786	-155.739	-0.081	-0.005
-230.771	-24.738	0.243	-0.144
-229.757	-200.000	0.011	-0.106
-228.742	-200.000	0.024	-0.177
-227.727	122.260	0.153	-0.191
-226.713	-200.000	-0.080	-0.419
-225.698	-200.000	-0.019	0.140
-224.684	-200.000	0.047	0.249
-223.669	-110.972	0.159	-0.033
-222.655	267.694	0.148	0.258
-221.640	-154.897	0.165	-0.011
-220.625	1.989	-0.314	0.226
-219.611	51.654	0.070	-0.067
-218.596	-200.000	-0.009	-0.149
-217.582	70.944	-0.249	-0.256
-216.567	800.000	-0.057	0.171
-215.552	34.208	-0.176	-0.153
-214.538	97.160	0.270	0.308
-213.523	224.786	-0.167	-0.269
-212.509	-200.000	0.052	0.307
-211.494	-77.572	0.086	0.030
-210.479	54.856	0.136	-0.131
-209.465	-187.637	0.237	0.003
-208.450	-83.061	0.081	-0.026
-207.436	-40.750	-0.443	0.228
-206.421	-200.000	-0.005	-0.312
-205.406	-52.718	0.229	0.105
-204.392	-149.199	0.117	0.009
-203.377	213.461	-0.005	-0.007
-202.363	299.960	0.048	-0.089
-201.348	-169.033	0.100	0.004
-200.333	-88.997	0.089	-0.026
-199.319	800.000	-0.098	0.313
-198.304	59.196	0.179	-0.175
-197.290	-49.175	-0.079	0.038
-196.275	-35.023	-0.297	0.161
-195.260	332.393	0.110	-0.212
-194.246	800.000	-0.021	-0.071
-193.231	28.697	0.128	-0.108
-192.217	-200.000	-0.017	-0.281
-191.202	-200.000	-0.001	-0.065
-190.187	-116.482	-0.125	-0.023
-189.173	-182.318	0.184	-0.003
-188.158	110.062	-0.118	-0.140
-187.144	468.739	-0.069	0.155
-186.129	-166.942	0.476	0.019
-185.114	-66.837	-0.301	0.118
-184.100	784.076	0.039	0.106
-183.085	-200.000	0.003	-0.098
-182.071	200.071	-0.122	-0.186
-181.056	-200.000	0.023	0.155
-180.042	201.356	0.042	0.065
-179.027	-45.401	-0.077	-0.038
-178.012	-104.774	-0.075	-0.017
-176.998	-200.000	-0.005	-0.076
-175.983	800.000	-0.033	0.121
-174.969	-143.786	0.085	0.008
-173.954	-141.491	-0.110	0.011
-172.939	-159.419	0.243	-0.013
-171.925	-17.043	0.140	0.087
-170.910	-200.000	0.029	0.234
-169.896	-113.775	0.175	-0.034
-168.881	727.480	0.068	-0.180
-167.866	258.289	0.095	0.163
-166.852	800.000	0.034	0.120
-165.837	73.853	0.037	-0.039
-164.823	-74.083	0.121	0.044
-163.808	109.030	0.122	-0.145
-162.793	716.075	-0.152	0.400
-161.779	423.297	-0.072	0.153
-160.764	-46.006	0.088	-0.043
-159.750	-200.000	0.001	-0.100
-158.735	20.513	-0.214	-0.172
-157.720	49.630	-0.103	0.096
-156.706	552.592	-0.068	-0.162
-155.691	-200.000	0.016	-0.199
-154.677	-115.554	0.129	0.024
-153.662	149.752	-0.207	-0.278
-152.647	284.965	-0.086	-0.153
-151.633	-200.000	0.026	-0.170
-150.618	86.195	-0.050	-0.055
-149.604	-103.712	0.197	-0.046
-148.589	-90.660	-0.192	0.055
-147.574	-200.000	0.001	0.039
-146.560	-71.943	-0.107	-0.039
-145.545	800.000	-0.066	-0.261
-144.531	-200.000	0.052	-0.228
-143.516	-179.028	-0.112	0.002
-142.502	800.000	-0.108	-0.323
-141.487	611.042	0.025	0.062
-140.472	-24.374	0.291	-0.172
-139.458	-171.555	0.153	0.005
-138.443	-79.277	-0.201	-0.067
-137.429	-68.204	-0.300	0.116
-136.414	-69.859	0.315	0.119
-135.399	-111.599	-0.250	-0.050
-134.385	359.550	0.168	0.334
-133.370	800.000	0.045	0.193
-132.356	-86.423	-0.060	-0.018
-131.341	46.428	-0.170	0.157
-130.326	-200.000	0.004	-0.080
-129.312	-30.242	0.106	0.060
-128.297	-95.236	-0.253	-0.067
-127.283	175.549	-0.117	-0.169
-126.268	-102.868	0.144	-0.034
-125.253	-0.454	0.157	-0.111
-124.239	352.756	-0.009	-0.018
-123.224	-156.000	0.089	0.006
-122.210	-200.000	0.013	0.343
-121.195	117.943	-0.039	0.047
-120.180	800.000	-0.056	-0.161
-119.166	-72.485	-0.224	0.082
-118.151	-29.861	0.089	0.050
-117.137	800.000	-0.090	-0.257
-116.122	800.000	0.021	-0.072
-115.107	163.906	-0.190	0.265
-114.093	-151.100	0.050	0.004
-113.078	132.277	0.028	-0.036
-112.064	33.337	-0.085	0.073
-111.049	84.601	0.153	0.165
-110.034	-166.976	0.355	-0.014
-109.020	-200.000	-0.023	0.126
-108.005	-182.500	-0.146	-0.003
-106.991	-200.000	0.034	-0.168
-105.976	800.000	0.103	-0.408
-104.962	-74.409	-0.292	0.105
-103.947	35.100	-0.266	-0.231
-102.932	5.009	0.219	0.160
-101.918	105.308	-0.075	0.088
-100.903	24.564	-0.289	0.237
-99.889	-12.310	-0.134	-0.087
-98.874	105.082	-0.231	0.270
-97.859	-200.000	0.013	-0.083
-96.845	224.608	-0.145	0.232
-95.830	-119.424	-0.092	0.016
-94.816	393.094	0.040	0.082
-93.801	145.503	0.048	-0.064
-92.786	46.132	0.193	0.177
-91.772	800.000	-0.049	0.156
-90.757	120.549	0.253	0.312
-89.743	800.000	0.041	0.116
-88.728	506.719	0.128	-0.294
-87.713	-79.031	-0.051	-0.017
-86.699	-6.382	-0.148	0.100
-85.684	-92.342	0.378	0.105
-84.670	-161.093	0.032	-0.002
-83.655	64.366	-0.021	0.021
-82.640	84.487	-0.193	0.209
-81.626	-9.891	-0.163	-0.107
-80.611	800.000	-0.037	-0.116
-79.597	145.624	-0.217	-0.288
-78.582	170.952	0.125	0.178
-77.567	-102.827	-0.306	-0.072
-76.553	-200.000	0.006	-0.253
-75.538	-200.000	-0.006	0.257
-74.524	70.832	-0.134	-0.137
-73.509	99.179	0.157	0.179
-72.494	-45.282	-0.182	-0.089
-71.480	-49.152	0.218	0.103
-70.465	324.903	-0.018	0.034
-69.451	-118.447	0.273	0.048
-68.436	800.000	0.113	0.428
-67.422	800.000	-0.060	-0.253
-66.407	-12.678	0.132	0.085
-65.392	408.462	-0.067	0.141
-64.378	59.463	0.051	-0.050
-63.363	44.649	-0.046	0.042
-62.349	61.696	0.283	-0.279
-61.334	-12.527	-1.102	-0.711
-60.319	-47.701	0.309	0.148
-59.305	547.977	-0.457	-1.082
-58.290	353.955	0.616	1.209
-57.276	800.000	0.469	1.444
-56.261	-200.000	98.395	583.269
-55.246	535.255	1405.979	3296.555
-54.232	148.938	2615.135	3495.984
-53.217	112.281	2198.807	2628.369
-52.203	44.348	1731.327	1571.193
-51.188	37.081	1543.401	1350.242
-50.173	34.689	1515.879	1309.731
-49.159	53.968	1567.341	1489.095
-48.144	57.324	1586.366	1530.509
-47.130	37.459	1541.466	1350.959
-46.115	34.260	1525.322	1314.718
-45.100	33.987	1522.467	1310.323
-44.086	34.055	1520.705	1309.227
-43.071	33.956	1518.887	1306.927
-42.057	33.900	1517.257	1305.087
-41.042	34.005	1515.644	1304.369
-40.027	34.027	1514.300	1303.310
-39.013	33.950	1512.934	1301.560
-37.998	34.074	1511.131	1300.802
-36.984	33.959	1510.189	1299.151
-35.969	33.935	1508.975	1297.894
-34.954	33.895	1507.783	1296.542
-33.940	33.878	1506.121	1294.951
-32.925	33.945	1504.759	1294.179
-31.911	33.961	1503.830	1293.437
-30.896	34.006	1502.231	1292.321
-29.881	34.066	1500.925	1291.551
-28.867	34.021	1499.580	1290.042
-27.852	34.083	1498.324	1289.329
-26.838	34.000	1496.976	1287.553
-25.823	34.010	1495.142	1285.995
-24.809	33.940	1494.173	1284.633
-23.794	34.037	1492.048	1283.415
-22.779	34.004	1490.942	1282.185
-21.765	33.978	1489.838	1281.014
-20.750	34.081	1488.798	1280.761
-19.736	33.960	1487.563	1278.832
-18.721	33.969	1486.540	1277.959
-17.706	33.860	1485.620	1276.389
-16.692	33.817	1484.496	1275.084
-15.677	33.836	1483.864	1274.616
-14.663	33.954	1482.469	1274.164
-13.648	33.895	1481.560	1272.932
-12.633	33.930	1480.200	1271.949
-11.619	33.799	1479.923	1270.780
-10.604	33.834	1478.807	1270.010
-9.590	33.849	1477.575	1269.001
-8.575	33.918	1477.219	1269.107
-7.560	33.876	1476.549	1268.196
-6.546	33.830	1475.820	1267.214
-5.531	33.952	1474.497	1266.844
-4.517	33.916	1473.840	1265.988
-3.502	33.791	1473.010	1264.394
-2.487	33.831	1471.575	1263.374
-1.473	33.807	1470.737	1262.448
-0.458	33.842	1469.637	1261.687
0.556	33.961	1460.441	1252.633
1.571	31.459	1435.012	1214.489
2.586	28.235	1376.856	1145.037
3.600	26.807	1296.184	1069.434
4.615	25.187	1249.179	1021.346
5.629	20.923	1190.215	949.865
6.644	10.623	1101.173	826.518
7.659	2.995	1058.474	756.941
8.673	1.991	1052.914	747.979
9.688	1.805	1049.782	744.777
10.702	1.596	1047.881	742.345
11.717	1.558	1046.075	740.812
12.731	4.779	1049.596	758.964
13.746	14.812	1064.387	818.983
14.761	22.880	1075.484	867.238
15.775	24.756	1076.608	877.281
16.790	25.193	1076.228	879.033
17.804	25.056	1075.475	877.671
18.819	24.837	1074.949	876.090
19.834	25.018	1074.122	876.224
20.848	25.136	1073.643	876.331
21.863	25.275	1073.377	876.716
22.877	25.124	1073.212	875.767
23.892	25.136	1072.519	875.182
24.907	25.062	1071.464	873.885
25.921	25.005	1071.151	873.275
26.936	25.144	1070.265	873.153
27.950	25.040	1068.774	871.350
28.965	24.995	1067.913	870.355
29.980	24.918	1066.442	868.707
30.994	24.846	1065.204	867.270
32.009	25.156	1064.148	867.834
33.023	25.214	1063.742	867.705
34.038	24.988	1062.668	865.660
35.053	24.869	1061.960	864.437
36.067	25.156	1060.906	864.884
37.082	24.933	1060.780	863.629
38.096	25.104	1059.926	863.679
39.111	25.264	1059.251	863.825
40.126	25.399	1058.165	863.512
41.140	25.314	1056.798	861.911
42.155	25.016	1055.312	859.195
43.169	24.694	1054.532	856.943
44.184	24.560	1053.466	855.358
45.199	24.791	1052.009	855.205
46.213	24.644	1051.515	854.025
47.228	24.665	1050.756	853.431
48.242	24.788	1049.704	853.087
49.257	24.857	1049.214	852.946
50.271	25.013	1048.457	852.994
51.286	25.087	1048.018	852.916
52.301	25.148	1047.481	852.694
53.315	25.177	1046.586	852.026
54.330	25.055	1045.850	850.773
55.344	24.861	1045.017	849.101
56.359	25.034	1043.905	848.940
57.374	25.031	1043.611	848.614
58.388	24.803	1042.406	846.479
59.403	24.704	1041.480	845.185
60.417	24.903	1040.719	845.430
61.432	24.575	1040.220	843.401
62.447	24.703	1039.398	843.264
63.461	24.930	1038.064	843.179
64.476	24.961	1037.669	842.926
65.490	24.861	1036.885	841.746
66.505	24.755	1035.856	840.338
67.520	24.711	1035.293	839.602
68.534	24.867	1034.811	839.868
69.549	24.736	1033.495	838.112
70.563	24.382	1032.100	835.247
71.578	24.147	1031.812	833.842
72.593	24.232	1030.799	833.346
73.607	24.197	1029.688	832.211
74.622	24.140	1028.641	831.024
75.636	24.567	1027.822	832.282
76.651	24.592	1027.739	832.254
77.666	24.488	1026.779	830.920
78.680	24.447	1025.451	829.584
79.695	24.422	1024.811	828.877
80.709	24.488	1024.603	828.939
81.724	24.641	1023.536	828.713
82.739	24.657	1022.606	827.963
83.753	24.611	1021.895	827.100
84.768	24.918	1021.664	828.261
85.782	25.261	1020.853	829.115
86.797	25.386	1020.295	829.165
87.812	25.432	1019.160	828.383
88.826	25.264	1017.785	826.414
89.841	25.166	1017.532	825.685
90.855	25.244	1016.990	825.533
91.870	25.427	1015.992	825.492
92.884	25.290	1015.564	824.439
93.899	25.169	1014.880	823.256
94.914	25.168	1013.385	821.967
95.928	25.362	1012.478	822.046
96.943	25.250	1012.056	821.119
97.957	24.917	1011.016	818.679
98.972	24.795	1009.728	817.005
99.987	24.451	1009.088	814.847
101.001	24.705	1008.042	815.090
102.016	25.012	1007.609	816.066
103.030	25.161	1006.532	815.800
104.045	25.088	1005.693	814.716
105.060	24.839	1004.282	812.371
106.074	24.643	1003.272	810.592
107.089	24.653	1003.030	810.370
108.103	24.944	1002.417	811.120
109.118	25.039	1001.620	810.832
110.133	24.783	1000.377	808.599
111.147	24.698	999.422	807.373
112.162	24.612	998.012	805.775
113.176	24.367	997.163	803.911
114.191	24.510	996.732	804.140
115.206	24.731	995.601	804.147
116.220	24.254	994.721	801.222
117.235	24.214	993.489	799.981
118.249	24.503	992.811	800.661
119.264	24.528	991.859	799.934
120.279	24.361	991.460	798.791
121.293	24.331	990.295	797.652
122.308	24.376	989.975	797.521
123.322	24.398	989.205	796.928
124.337	24.361	988.114	795.815
125.352	24.361	986.619	794.540
126.366	23.986	984.773	791.315
127.381	23.563	983.825	788.606
128.395	24.180	983.593	791.092
129.410	24.781	983.316	793.464
130.424	25.041	982.462	793.857
131.439	25.079	981.191	792.926
132.454	24.900	980.735	791.698
133.468	24.963	979.844	791.188
134.483	24.821	979.167	789.941
135.497	24.824	978.589	789.422
136.512	25.170	977.913	790.331
137.527	25.197	977.077	789.703
138.541	25.272	976.058	789.138
139.556	25.276	975.503	788.637
140.570	25.264	974.817	787.960
141.585	25.244	973.847	787.019
142.600	25.212	973.578	786.590
143.614	25.235	972.089	785.421
144.629	25.397	971.818	785.841
145.643	25.467	971.365	785.710
146.658	25.351	969.700	783.788
147.673	25.226	968.615	782.295
148.687	25.121	967.587	780.942
149.702	25.191	966.265	780.109
150.716	24.977	965.580	778.559
151.731	24.878	964.567	777.242
152.746	24.982	963.956	777.129
153.760	25.122	963.768	777.520
154.775	25.223	962.716	777.039
155.789	25.362	961.796	776.828
156.804	25.311	960.773	775.714
157.819	25.336	959.828	774.990
158.833	25.327	959.257	774.419
159.848	25.469	958.463	774.323
160.862	25.433	957.786	773.555
161.877	25.298	956.494	771.860
162.892	25.155	955.780	770.600
163.906	25.330	954.996	770.651
164.921	25.299	954.257	769.856
165.935	25.099	953.038	767.947
166.950	25.396	951.889	768.221
167.964	25.290	951.319	767.243
168.979	25.318	950.004	766.233
169.994	25.097	948.910	764.341
171.008	25.104	947.823	763.427
172.023	25.114	947.483	763.130
173.037	25.373	946.703	763.535
174.052	25.369	945.472	762.457
175.067	25.036	944.609	760.281
176.081	25.073	943.438	759.427
177.096	25.095	943.134	759.209
178.110	25.052	942.488	758.438
179.125	24.798	941.334	756.371
180.140	24.743	940.042	755.033
181.154	24.664	939.883	754.505
182.169	24.762	939.110	754.233
183.183	24.963	938.536	754.552
184.198	25.343	938.493	756.050
185.213	25.269	937.380	754.777
186.227	25.162	937.326	754.215
187.242	25.279	936.608	754.062
188.256	25.309	936.104	753.716
189.271	25.394	935.355	753.404
190.286	25.451	934.649	753.007
191.300	25.361	933.779	751.860
192.315	24.635	932.463	747.699
193.329	23.953	930.619	743.307
194.344	23.505	929.495	740.473
195.359	24.232	929.767	743.657
196.373	25.014	930.130	747.146
197.388	25.384	929.683	748.263
198.402	25.059	929.556	746.740
199.417	25.169	928.570	746.339
200.432	25.217	928.368	746.312
201.446	25.103	927.745	745.271
202.461	24.831	927.167	743.607
203.475	24.931	926.393	743.337
204.490	24.421	924.726	739.819
205.504	23.393	922.562	733.772
206.519	23.711	922.851	735.250
207.534	24.607	922.876	738.914
208.548	24.918	921.709	739.198
209.563	25.167	922.398	740.711
210.577	25.205	921.604	740.166
211.592	24.918	920.511	738.039
212.607	25.144	920.789	739.132
213.621	25.535	920.083	740.106
214.636	25.483	919.328	739.222
215.650	25.443	918.634	738.434
216.665	25.286	918.273	737.435
217.680	25.408	917.741	737.442
218.694	25.479	917.729	737.658
219.709	25.279	916.008	735.392
220.723	24.758	915.373	732.683
221.738	25.052	914.648	733.242
222.753	25.137	914.489	733.397
223.767	25.094	913.989	732.754
224.782	25.272	913.286	732.853
225.796	25.420	912.557	732.807
226.811	25.609	911.660	732.789
227.826	25.154	910.731	730.128
228.840	24.449	909.056	725.852
229.855	24.169	909.007	724.613
230.869	24.494	908.538	725.495
231.884	24.209	907.184	723.193
232.899	24.332	906.798	723.320
233.913	25.001	907.159	726.257
234.928	25.085	906.868	726.299
235.942	25.065	906.118	725.554
236.957	25.090	905.331	724.960
237.972	24.799	904.323	722.914
238.986	24.799	903.410	722.119
240.001	24.911	903.099	722.259
241.015	24.966	902.237	721.728
242.030	25.050	901.695	721.568
243.045	25.029	901.459	721.232
244.059	25.060	900.719	720.701
245.074	25.345	900.133	721.313
246.088	25.248	899.836	720.621
247.103	25.029	898.406	718.534
248.117	25.005	898.020	718.066
249.132	25.679	897.891	720.601
250.147	25.882	897.914	721.365
251.161	25.927	897.664	721.281
252.176	26.134	896.939	721.465
253.190	26.041	896.465	720.645
254.205	25.991	896.415	720.342
255.220	26.333	895.585	720.977
256.234	26.243	894.732	719.867
257.249	26.171	894.252	719.132
258.263	26.019	893.518	717.872
259.278	25.932	893.061	717.094
260.293	26.055	892.452	717.031
261.307	26.228	891.967	717.264
262.322	25.964	891.739	715.973
263.336	25.865	890.923	714.858
264.351	25.526	888.932	711.856
265.366	24.544	887.319	706.618
266.380	23.932	886.395	703.403
267.395	24.905	887.058	707.713
268.409	25.732	886.695	710.627
269.424	25.615	886.243	709.740
270.439	25.867	885.400	709.997
271.453	25.897	885.306	709.977
272.468	25.962	884.381	709.428
273.482	26.083	884.411	709.862
274.497	26.135	883.710	709.441
275.512	25.904	882.948	707.862
276.526	25.470	881.250	704.737
277.541	25.679	880.626	704.994
278.555	25.967	880.782	706.183
279.570	25.645	880.392	704.549
280.585	25.514	879.785	703.488
281.599	25.786	878.872	703.759
282.614	25.860	878.477	703.668
283.628	25.413	877.341	700.954
284.643	24.936	876.528	698.382
285.657	25.373	876.636	700.108
286.672	25.377	875.497	699.155
287.687	24.921	874.770	696.736
288.701	25.190	874.380	697.410
289.716	25.716	874.243	699.285
290.730	25.270	873.012	696.506
291.745	25.081	872.690	695.456
292.760	24.920	871.774	694.040
293.774	24.905	870.839	693.176
294.789	25.732	871.782	697.068
295.803	26.390	871.894	699.643
296.818	26.424	871.477	699.378
297.833	26.580	870.765	699.348
298.847	26.140	869.942	696.927
299.862	25.813	868.853	694.733
300.876	26.065	868.232	695.146
301.891	26.530	868.185	696.837
302.906	26.393	867.940	696.049
303.920	26.111	866.124	693.448
304.935	26.038	865.571	692.664
305.949	26.334	865.786	693.911
306.964	26.471	864.987	693.734
307.979	26.199	863.954	691.805
308.993	26.091	863.938	691.315
310.008	26.301	863.923	692.046
311.022	26.525	863.226	692.283
312.037	26.464	862.408	691.334
313.052	26.098	862.072	689.605
314.066	25.999	860.913	688.241
315.081	25.407	859.569	684.848
316.095	24.689	858.285	681.030
317.110	25.121	858.811	683.034
318.125	26.115	858.489	686.500
319.139	25.595	857.870	683.968
320.154	24.467	855.654	677.859
321.168	23.974	854.755	675.218
322.183	24.742	855.095	678.342
323.197	25.534	855.753	681.808
324.212	25.947	855.550	683.152
325.227	26.027	855.047	682.991
326.241	26.163	854.469	682.985
327.256	26.187	854.000	682.638
328.270	25.976	853.353	681.264
329.285	25.919	852.488	680.300
330.300	25.716	851.909	679.011
331.314	25.588	850.889	677.655
332.329	25.530	850.672	677.205
333.343	26.044	850.336	678.811
334.358	26.245	849.790	679.071
335.373	26.322	849.102	678.750
336.387	26.312	848.865	678.462
337.402	26.564	848.677	679.198
338.416	26.745	848.158	679.401
339.431	26.779	847.393	678.855
340.446	26.700	847.338	678.457
341.460	27.064	846.896	679.405
342.475	26.941	846.385	678.473
343.489	26.704	845.532	676.845
344.504	26.589	844.971	675.906
345.519	27.003	844.350	676.893
346.533	27.220	844.267	677.578
347.548	27.129	843.835	676.832
348.562	27.071	843.373	676.186
349.577	27.022	842.915	675.577
350.592	27.127	842.122	675.272
351.606	27.202	841.238	674.782
352.621	27.096	840.915	674.066
353.635	26.974	840.436	673.173
354.650	26.934	839.878	672.518
355.665	26.643	838.916	670.611
356.679	25.565	837.213	665.206
357.694	25.482	836.455	664.236
358.708	26.010	836.816	666.414
359.723	25.898	836.402	665.613
360.738	26.199	835.971	666.323
361.752	26.640	836.104	667.997
362.767	26.735	835.602	667.884
363.781	26.935	835.517	668.496
364.796	27.203	835.352	669.292
365.810	27.427	834.600	669.454
366.825	27.404	834.684	669.377
367.840	27.393	834.311	668.978
368.854	27.475	833.275	668.388
369.869	26.884	832.935	665.887
370.883	26.712	832.139	664.562
371.898	26.822	831.331	664.262
372.913	26.734	830.516	663.229
373.927	26.692	830.187	662.755
374.942	26.949	829.607	663.172
375.956	27.035	828.749	662.743
376.971	27.038	828.274	662.314
377.986	27.209	828.293	662.894
379.000	27.333	827.863	662.944
380.015	27.522	827.031	662.905
381.029	27.383	826.271	661.734
382.044	27.365	825.872	661.291
383.059	27.307	825.351	660.602
384.073	27.421	824.676	660.419
385.088	27.402	824.197	659.907
386.102	27.527	823.657	659.868
387.117	27.236	823.170	658.367
388.132	27.014	822.777	657.191
389.146	26.949	821.822	656.135
390.161	26.471	820.788	653.526
391.175	26.424	820.868	653.362
392.190	26.917	820.711	654.958
393.205	26.967	820.675	655.051
394.219	26.005	818.419	649.731
395.234	24.432	815.669	641.837
396.248	23.469	815.051	637.832
397.263	24.688	815.882	642.811
398.278	26.551	817.289	650.565
399.292	27.021	817.192	652.120
400.307	26.660	816.302	650.057
401.321	26.696	815.787	649.719
402.336	26.730	815.420	649.491
403.350	26.888	815.815	650.314
404.365	27.374	815.808	651.991
405.380	27.754	815.212	652.816
406.394	28.100	814.916	653.759
407.409	28.195	814.616	653.801
408.423	28.104	814.149	653.042
409.438	28.039	813.911	652.565
410.453	27.962	813.268	651.714
411.467	28.135	813.121	652.157
412.482	28.107	812.077	651.162
413.496	27.949	811.946	650.437
414.511	28.152	811.596	650.820
415.526	28.071	811.240	650.189
416.540	27.967	811.014	649.583
417.555	27.972	810.241	648.924
418.569	27.965	808.873	647.746
419.584	27.767	808.879	646.991
420.599	27.740	808.440	646.486
421.613	107.134	1283.373	1447.958
422.628	92.469	1352.567	1448.081
