DTS Sentinel unit serial number:	SN413079Multiplexer serial number:	ORYXHardware model number:	OX4-SRSoftware version number:	ORYX F/W v4.00 Oryx Data Collector v3.7.2.0data status	okinstallation	princeton_trtdifferential loss correction	single-endedforward channel	channel 3reverse channel	N/Adate	2019/09/18time	03:20:34forward acquisition time	60.00reverse acquisition time	0.00gamma	496.2192k internal	0.2344k external	0.2344temperature offset calibration	0.9948default loss term (dB/km)	0.3790temperature slope calibration	1.0000multiplexer offset coefficient	1.0000multiplexer slope coefficient	1.0000fibre end	0.00T internal ref (°C)	22.75T ext. ref 1 (°C)	0.16T ext. ref 2 (°C)	16.91length (m)	temperature (°C)	Stokes	anti-Stokes-747.200	-89.747	-0.390	-0.114
-746.185	800.000	0.034	0.127
-745.171	623.567	0.073	0.183
-744.156	-35.294	0.112	0.061
-743.142	96.838	0.174	0.200
-742.127	18.135	-0.249	0.199
-741.112	284.626	-0.171	-0.308
-740.098	346.064	0.057	0.111
-739.083	20.227	-0.109	0.088
-738.069	-135.033	-0.121	-0.015
-737.054	325.042	0.060	-0.114
-736.039	-110.090	-0.303	-0.063
-735.025	800.000	-0.095	-0.377
-734.010	86.834	-0.103	0.114
-732.996	-169.483	-0.493	-0.018
-731.981	-128.835	-0.034	0.005
-730.966	-90.297	-0.382	-0.111
-729.952	-60.204	0.082	-0.035
-728.937	81.244	-0.148	0.159
-727.923	-32.802	-0.085	0.047
-726.908	95.008	-0.162	-0.185
-725.894	131.982	-0.192	-0.247
-724.879	152.784	0.223	-0.305
-723.864	-42.603	-0.160	-0.081
-722.850	21.128	0.196	-0.159
-721.835	800.000	0.080	-0.262
-720.821	785.518	0.028	-0.076
-719.806	-200.000	0.028	0.224
-718.791	-86.064	-0.182	-0.056
-717.777	-72.345	-0.420	0.155
-716.762	73.709	0.085	0.089
-715.748	190.332	-0.171	-0.257
-714.733	-200.000	-0.014	-0.187
-713.718	-140.172	-0.355	0.037
-712.704	-167.542	0.269	0.011
-711.689	-200.000	-0.008	-0.411
-710.675	-200.000	0.042	0.242
-709.660	-110.594	0.248	-0.051
-708.645	800.000	-0.035	0.102
-707.631	95.321	0.074	-0.084
-706.616	273.531	-0.123	0.217
-705.602	-114.208	0.436	0.084
-704.587	13.675	-0.067	-0.052
-703.572	130.147	0.152	0.195
-702.558	167.631	0.230	-0.327
-701.543	-145.630	0.037	0.003
-700.529	-28.329	-0.296	-0.170
-699.514	-71.769	-0.284	-0.106
-698.499	-9.182	-0.229	-0.153
-697.485	370.255	0.229	-0.463
-696.470	-11.327	-0.203	-0.134
-695.456	78.765	0.172	-0.184
-694.441	7.647	-0.126	0.094
-693.426	-200.000	-0.009	0.106
-692.412	-200.000	0.006	-0.331
-691.397	59.326	-0.134	-0.132
-690.383	-83.505	-0.305	0.097
-689.368	207.599	-0.030	0.047
-688.354	-87.202	-0.303	-0.092
-687.339	112.007	0.072	0.087
-686.324	788.660	-0.046	-0.127
-685.310	173.670	0.135	0.194
-684.295	800.000	0.070	-0.227
-683.281	25.918	-0.319	-0.266
-682.266	-56.279	-0.127	0.057
-681.251	-200.000	-0.005	0.038
-680.237	-86.211	0.341	0.105
-679.222	-69.855	-0.234	0.089
-678.208	-88.957	-0.292	-0.086
-677.193	-200.000	-0.043	-0.243
-676.178	800.000	-0.034	-0.140
-675.164	192.906	-0.072	0.108
-674.149	-10.245	-0.120	-0.080
-673.135	-200.000	0.000	0.210
-672.120	277.948	-0.044	-0.079
-671.105	-126.090	0.305	-0.046
-670.091	-131.387	-0.193	0.025
-669.076	-16.501	-0.311	-0.196
-668.062	136.892	0.151	-0.197
-667.047	-200.000	0.017	0.207
-666.032	-174.365	0.312	-0.009
-665.018	800.000	0.042	-0.174
-664.003	-71.931	-0.240	0.089
-662.989	464.442	-0.086	0.191
-661.974	211.493	-0.070	-0.109
-660.959	317.285	-0.131	-0.248
-659.945	81.175	0.147	-0.158
-658.930	125.916	-0.116	0.146
-657.916	4.710	-0.174	-0.127
-656.901	116.749	-0.138	-0.169
-655.886	48.810	0.063	-0.059
-654.872	206.862	0.167	-0.259
-653.857	-80.579	-0.351	0.116
-652.843	-200.000	0.013	0.158
-651.828	446.862	0.043	-0.094
-650.814	-38.918	0.387	-0.203
-649.799	-200.000	-0.008	0.050
-648.784	385.275	-0.072	-0.148
-647.770	-166.878	0.110	0.005
-646.755	-96.561	0.274	0.072
-645.741	-21.822	-0.283	-0.172
-644.726	-51.467	-0.184	-0.086
-643.711	-200.000	0.036	0.262
-642.697	-200.000	0.044	0.361
-641.682	-103.356	0.075	-0.018
-640.668	73.016	0.326	0.340
-639.653	-30.225	0.147	0.083
-638.638	-24.203	-0.413	-0.246
-637.624	-37.941	0.306	-0.162
-636.609	800.000	-0.052	0.223
-635.595	-200.000	-0.025	-0.136
-634.580	717.285	-0.076	0.200
-633.565	49.617	-0.197	0.185
-632.551	360.818	-0.023	-0.047
-631.536	108.355	0.058	0.069
-630.522	14.789	0.387	-0.302
-629.507	-200.000	0.026	-0.170
-628.492	227.615	-0.176	-0.286
-627.478	44.692	0.174	-0.159
-626.463	-40.439	-0.164	-0.085
-625.449	112.761	0.056	0.068
-624.434	-3.817	-0.066	-0.046
-623.419	-44.242	0.084	-0.042
-622.405	-200.000	0.007	0.239
-621.390	39.348	0.226	0.201
-620.376	-200.000	-0.002	0.030
-619.361	800.000	0.087	-0.257
-618.346	800.000	0.106	0.450
-617.332	-44.507	-0.370	0.184
-616.317	-200.000	0.038	0.172
-615.303	-142.397	-0.107	-0.010
-614.288	-95.691	-0.186	0.050
-613.273	-200.000	-0.013	-0.181
-612.259	58.292	0.134	-0.131
-611.244	114.826	0.173	-0.210
-610.230	-200.000	-0.087	0.388
-609.215	-200.000	-0.041	0.253
-608.201	130.662	-0.136	-0.174
-607.186	326.209	0.108	0.206
-606.171	-200.000	0.007	0.221
-605.157	-104.026	0.077	0.018
-604.142	-20.723	-0.141	0.086
-603.128	-200.000	0.023	0.152
-602.113	260.540	0.128	0.220
-601.098	-58.254	0.117	0.051
-600.084	-57.556	0.466	-0.203
-599.069	345.471	0.137	0.268
-598.055	17.951	-0.078	0.062
-597.040	499.673	-0.113	-0.259
-596.025	220.726	0.152	-0.243
-595.011	-25.433	0.143	0.084
-593.996	-200.000	-0.035	0.282
-592.982	-200.000	0.013	-0.190
-591.967	-166.065	0.219	0.009
-590.952	58.994	0.336	0.328
-589.938	736.216	-0.102	-0.272
-588.923	-200.000	0.005	-0.201
-587.909	410.442	0.111	-0.234
-586.894	-200.000	-0.013	0.150
-585.879	-114.120	-0.432	-0.083
-584.865	800.000	-0.035	0.147
-583.850	-110.600	-0.328	0.068
-582.836	-113.754	-0.204	-0.040
-581.821	-200.000	-0.043	-0.215
-580.806	7.936	-0.111	-0.082
-579.792	-76.135	-0.345	0.121
-578.777	16.551	-0.335	-0.264
-577.763	800.000	0.045	0.140
-576.748	-82.988	-0.062	0.020
-575.733	386.993	-0.039	-0.080
-574.719	497.355	0.231	0.529
-573.704	-200.000	0.030	0.352
-572.690	800.000	-0.066	-0.224
-571.675	-200.000	0.026	-0.174
-570.661	-179.773	0.302	-0.006
-569.646	8.577	0.113	-0.084
-568.631	284.263	0.039	-0.070
-567.617	-42.496	-0.168	0.085
-566.602	141.987	-0.146	-0.193
-565.588	79.948	-0.090	0.096
-564.573	607.770	0.050	-0.125
-563.558	-0.076	-0.358	0.254
-562.544	70.061	-0.226	0.232
-561.529	-36.805	-0.069	-0.037
-560.515	47.418	0.039	0.036
-559.500	-36.066	-0.129	0.069
-558.485	50.088	0.165	-0.155
-557.471	800.000	0.024	0.090
-556.456	-113.767	0.186	-0.036
-555.442	252.532	0.082	0.138
-554.427	510.945	-0.112	0.260
-553.412	314.810	-0.077	0.144
-552.398	-92.890	-0.172	-0.048
-551.383	529.945	-0.069	0.162
-550.369	800.000	0.041	0.119
-549.354	800.000	-0.028	-0.090
-548.339	162.720	0.155	0.216
-547.325	-64.636	-0.107	-0.043
-546.310	-150.007	0.520	0.040
-545.296	-92.898	-0.159	0.044
-544.281	-200.000	0.029	-0.174
-543.266	-188.539	-0.295	0.004
-542.252	-94.994	0.123	0.033
-541.237	800.000	0.042	0.180
-540.223	-200.000	0.019	-0.222
-539.208	-200.000	0.006	0.285
-538.193	-141.814	0.449	0.045
-537.179	-167.155	-0.138	0.006
-536.164	81.753	0.079	-0.085
-535.150	64.081	0.168	-0.167
-534.135	46.981	0.036	0.033
-533.121	-200.000	-0.011	-0.206
-532.106	-200.000	-0.022	-0.267
-531.091	800.000	0.010	-0.027
-530.077	-200.000	-0.035	-0.306
-529.062	-107.555	0.088	-0.019
-528.048	62.616	-0.237	0.236
-527.033	527.950	-0.132	0.308
-526.018	-78.267	-0.159	0.054
-525.004	268.242	0.115	-0.200
-523.989	-122.617	-0.161	-0.026
-522.975	-54.158	0.219	-0.099
-521.960	-162.417	0.198	-0.010
-520.945	800.000	-0.030	-0.111
-519.931	-177.388	-0.281	0.007
-518.916	65.985	0.201	0.202
-517.902	-138.773	0.283	-0.031
-516.887	262.143	-0.199	0.342
-515.872	-91.618	0.448	0.127
-514.858	-200.000	-0.037	-0.178
-513.843	-104.970	-0.250	0.057
-512.829	-164.998	0.240	0.011
-511.814	-33.807	-0.295	0.161
-510.799	147.568	0.122	0.163
-509.785	-103.529	-0.446	-0.104
-508.770	-38.354	-0.154	-0.081
-507.756	208.654	-0.095	-0.148
-506.741	800.000	-0.004	0.013
-505.726	800.000	0.049	-0.145
-504.712	-200.000	0.019	0.279
-503.697	-35.784	-0.350	-0.188
-502.683	450.080	0.083	0.181
-501.668	-79.967	-0.130	0.043
-500.653	223.462	0.143	-0.229
-499.639	-7.747	0.251	0.168
-498.624	113.591	-0.130	0.156
-497.610	-133.766	0.146	-0.018
-496.595	202.916	-0.113	0.172
-495.581	800.000	0.014	-0.062
-494.566	-97.765	-0.079	-0.020
-493.551	38.442	0.312	0.276
-492.537	-200.000	-0.069	-0.316
-491.522	175.310	-0.085	-0.122
-490.508	800.000	0.081	-0.254
-489.493	-200.000	-0.015	0.215
-488.478	-169.959	-0.115	0.004
-487.464	216.561	-0.104	0.163
-486.449	399.737	-0.152	-0.315
-485.435	-200.000	-0.041	0.264
-484.420	-33.839	-0.195	-0.107
-483.405	-125.646	0.376	0.056
-482.391	-88.017	0.285	0.085
-481.376	-176.136	0.231	-0.006
-480.362	-156.401	-0.179	0.011
-479.347	-132.592	0.181	0.023
-478.332	284.276	0.053	0.094
-477.318	-172.137	0.338	-0.011
-476.303	800.000	0.096	-0.299
-475.289	-200.000	-0.002	-0.103
-474.274	-137.598	-0.183	-0.020
-473.259	-87.208	0.079	-0.024
-472.245	135.151	0.096	0.124
-471.230	-200.000	-0.002	-0.041
-470.216	-200.000	-0.008	-0.089
-469.201	-200.000	0.035	-0.197
-468.186	800.000	0.047	0.166
-467.172	-79.528	0.237	0.079
-466.157	-14.989	0.180	0.114
-465.143	-92.779	0.276	-0.076
-464.128	-167.939	0.224	0.009
-463.113	363.838	-0.071	-0.141
-462.099	4.704	-0.119	-0.086
-461.084	-74.161	0.250	0.090
-460.070	800.000	0.029	0.091
-459.055	-133.293	-0.102	-0.013
-458.040	-109.913	0.391	-0.081
-457.026	191.957	0.191	-0.285
-456.011	-200.000	-0.005	0.032
-454.997	192.323	0.157	-0.234
-453.982	-200.000	-0.032	0.155
-452.968	-200.000	-0.033	-0.295
-451.953	-200.000	0.030	-0.147
-450.938	7.773	0.244	0.181
-449.924	215.690	0.139	0.219
-448.909	150.713	0.253	-0.341
-447.895	800.000	-0.013	-0.040
-446.880	97.462	0.066	0.075
-445.865	35.490	-0.136	-0.118
-444.851	24.977	0.113	-0.092
-443.836	-200.000	0.025	-0.179
-442.822	-37.407	-0.117	0.062
-441.807	-200.000	-0.012	-0.287
-440.792	-109.731	-0.209	0.044
-439.778	-156.218	-0.237	-0.015
-438.763	494.436	-0.019	0.042
-437.749	136.635	-0.302	-0.390
-436.734	-48.182	0.166	-0.079
-435.719	12.885	0.161	-0.123
-434.705	-148.650	0.003	0.000
-433.690	-200.000	0.003	0.016
-432.676	-200.000	-0.032	-0.278
-431.661	589.252	-0.081	-0.198
-430.646	-118.208	0.139	0.025
-429.632	-45.329	0.198	-0.097
-428.617	-200.000	-0.062	0.352
-427.603	235.929	-0.025	0.041
-426.588	-45.925	-0.350	-0.171
-425.573	-60.254	0.154	-0.065
-424.559	753.251	-0.085	0.227
-423.544	-200.000	0.027	0.256
-422.530	-76.174	0.180	0.063
-421.515	-200.000	0.025	-0.118
-420.500	-126.873	0.249	-0.036
-419.486	427.570	-0.142	-0.303
-418.471	294.585	-0.053	-0.095
-417.457	800.000	0.067	-0.250
-416.442	-135.606	-0.390	-0.046
-415.428	-70.226	-0.323	0.121
-414.413	-56.969	-0.088	-0.038
-413.398	-60.739	0.257	-0.108
-412.384	623.500	0.201	0.501
-411.369	-200.000	-0.008	0.268
-410.355	-39.240	0.175	-0.091
-409.340	594.649	0.135	0.329
-408.325	-117.640	0.442	0.079
-407.311	-92.387	-0.234	-0.065
-406.296	-9.129	0.206	0.136
-405.282	-200.000	0.014	0.228
-404.267	316.358	0.235	-0.439
-403.252	-134.870	-0.257	0.031
-402.238	-200.000	0.029	-0.440
-401.223	423.434	0.018	-0.037
-400.209	410.216	0.133	0.278
-399.194	-200.000	-0.014	-0.154
-398.179	-200.000	-0.004	0.064
-397.165	-200.000	0.002	-0.220
-396.150	51.809	0.180	-0.169
-395.136	74.382	-0.219	-0.227
-394.121	-86.665	-0.123	0.037
-393.106	-152.029	-0.189	-0.014
-392.092	359.736	-0.145	-0.286
-391.077	-200.000	-0.019	-0.105
-390.063	-200.000	0.010	-0.219
-389.048	-39.820	-0.127	-0.066
-388.033	-35.705	-0.008	0.004
-387.019	199.867	0.055	-0.084
-386.004	-160.981	0.090	0.005
-384.990	-200.000	-0.011	0.114
-383.975	146.051	0.101	-0.134
-382.960	-200.000	0.034	-0.202
-381.946	-4.030	-0.323	-0.221
-380.931	-20.812	-0.195	0.118
-379.917	-102.555	-0.326	0.077
-378.902	-74.878	0.299	-0.106
-377.888	88.548	0.274	0.301
-376.873	2.312	0.282	-0.201
-375.858	497.071	-0.140	0.317
-374.844	800.000	-0.045	0.179
-373.829	737.730	0.103	0.274
-372.815	-168.359	-0.338	0.013
-371.800	610.184	-0.174	-0.429
-370.785	17.165	0.262	-0.205
-369.771	-154.444	-0.153	0.010
-368.756	157.920	0.171	0.233
-367.742	-72.316	0.282	0.103
-366.727	-129.217	-0.418	0.057
-365.712	-23.317	0.167	0.099
-364.698	126.984	0.175	-0.218
-363.683	98.078	0.245	-0.278
-362.669	-200.000	-0.026	0.133
-361.654	113.574	-0.171	-0.205
-360.639	800.000	-0.032	-0.096
-359.625	-2.568	-0.334	-0.231
-358.610	289.820	0.091	0.163
-357.596	316.144	-0.042	-0.079
-356.581	-72.102	-0.096	-0.035
-355.566	291.496	-0.113	-0.203
-354.552	-12.032	-0.120	0.077
-353.537	110.005	0.100	-0.119
-352.523	-108.293	0.246	0.052
-351.508	-155.178	-0.158	0.010
-350.493	393.098	-0.078	0.159
-349.479	-61.439	-0.315	0.130
-348.464	-17.103	-0.043	-0.026
-347.450	74.032	-0.094	-0.097
-346.435	800.000	-0.127	0.347
-345.420	107.806	-0.124	0.146
-344.406	-101.825	-0.145	-0.034
-343.391	434.371	-0.109	0.234
-342.377	-192.683	0.188	-0.002
-341.362	-85.922	-0.282	-0.086
-340.348	-143.337	-0.353	0.033
-339.333	116.100	-0.163	-0.197
-338.318	-200.000	0.011	0.205
-337.304	800.000	-0.049	0.190
-336.289	80.287	0.093	0.098
-335.275	-200.000	0.079	0.350
-334.260	-200.000	-0.001	0.098
-333.245	198.792	0.103	0.155
-332.231	23.383	-0.208	0.169
-331.216	-126.895	-0.129	0.019
-330.202	-149.814	-0.070	0.005
-329.187	800.000	-0.038	0.161
-328.172	377.311	0.032	0.064
-327.158	-159.953	-0.123	-0.007
-326.143	-76.856	-0.275	-0.095
-325.129	-94.481	0.243	0.065
-324.114	-200.000	-0.019	-0.107
-323.099	781.216	0.123	0.331
-322.085	31.057	0.085	0.072
-321.070	800.000	-0.134	0.473
-320.056	713.577	-0.044	-0.115
-319.041	43.763	0.392	-0.353
-318.026	-67.003	-0.225	0.088
-317.012	-200.000	-0.022	0.140
-315.997	-200.000	0.089	0.391
-314.983	-200.000	-0.027	-0.253
-313.968	-28.441	-0.232	-0.132
-312.953	-37.075	0.356	0.188
-311.939	800.000	0.007	0.031
-310.924	-75.416	-0.191	-0.067
-309.910	-134.752	0.074	0.009
-308.895	253.289	-0.118	0.198
-307.880	800.000	0.044	-0.155
-306.866	-115.127	-0.269	-0.050
-305.851	278.345	-0.163	-0.285
-304.837	28.049	-0.116	-0.097
-303.822	-141.966	0.274	0.027
-302.807	-157.379	0.096	0.006
-301.793	45.183	0.088	0.080
-300.778	664.463	0.083	0.210
-299.764	-172.716	-0.253	-0.008
-298.749	55.266	-0.182	0.173
-297.735	-1.942	0.132	0.092
-296.720	-96.395	-0.144	0.037
-295.705	-118.519	-0.360	-0.063
-294.691	800.000	-0.014	0.048
-293.676	-52.114	-0.341	-0.155
-292.662	108.458	-0.059	0.069
-291.647	-9.225	-0.184	-0.121
-290.632	596.505	-0.121	-0.296
-289.618	44.452	0.347	0.313
-288.603	173.640	0.118	-0.168
-287.589	-200.000	-0.014	0.231
-286.574	164.939	0.046	-0.064
-285.559	5.452	-0.053	0.039
-284.545	37.826	0.247	0.215
-283.530	800.000	-0.097	-0.336
-282.516	800.000	-0.082	-0.274
-281.501	66.209	0.036	-0.036
-280.486	-169.959	-0.129	-0.005
-279.472	140.077	0.198	0.256
-278.457	358.020	0.157	0.308
-277.443	800.000	0.013	-0.036
-276.428	-200.000	0.027	0.191
-275.413	-83.166	-0.125	-0.039
-274.399	-109.318	0.387	0.081
-273.384	-200.000	-0.039	0.321
-272.370	-92.023	-0.122	0.034
-271.355	800.000	0.009	-0.031
-270.340	-200.000	0.046	0.313
-269.326	249.983	0.137	-0.228
-268.311	-61.383	0.072	-0.030
-267.297	800.000	0.072	0.216
-266.282	97.263	-0.170	0.192
-265.267	111.634	-0.197	0.233
-264.253	91.169	-0.241	-0.266
-263.238	288.313	-0.101	-0.180
-262.224	-80.705	0.080	-0.026
-261.209	169.808	0.201	-0.282
-260.195	-200.000	0.011	-0.222
-259.180	73.691	0.110	0.113
-258.165	53.205	-0.231	-0.217
-257.151	7.679	0.169	-0.124
-256.136	514.023	-0.169	-0.387
-255.122	148.617	0.091	0.120
-254.107	800.000	-0.147	0.430
-253.092	800.000	-0.050	0.197
-252.078	91.663	0.163	0.180
-251.063	-200.000	-0.008	-0.094
-250.049	-139.533	-0.416	0.044
-249.034	-91.665	0.292	-0.081
-248.019	-43.806	0.110	-0.055
-247.005	-200.000	0.042	0.262
-245.990	-106.360	-0.129	0.028
-244.976	75.098	0.106	0.109
-243.961	81.761	-0.222	-0.236
-242.946	54.935	0.270	0.256
-241.932	-200.000	0.015	0.094
-240.917	111.149	0.129	-0.153
-239.903	-97.953	-0.192	0.049
-238.888	28.673	0.148	-0.123
-237.873	-200.000	-0.330	0.001
-236.859	-101.593	0.382	-0.091
-235.844	297.471	-0.129	-0.233
-234.830	800.000	-0.033	-0.106
-233.815	379.897	0.165	-0.332
-232.800	-26.365	-0.109	-0.063
-231.786	346.704	-0.101	-0.196
-230.771	110.402	-0.342	-0.403
-229.757	-46.382	-0.472	0.228
-228.742	-101.289	0.317	0.076
-227.727	109.631	-0.094	-0.111
-226.713	266.238	-0.057	-0.098
-225.698	122.360	-0.132	0.162
-224.684	222.597	0.112	0.177
-223.669	205.501	0.143	0.218
-222.655	800.000	0.033	-0.114
-221.640	188.851	0.289	-0.424
-220.625	-99.063	0.068	0.017
-219.611	-49.402	-0.141	0.066
-218.596	-49.085	0.207	-0.097
-217.582	-14.716	0.174	-0.110
-216.567	-131.438	-0.487	-0.063
-215.552	-3.874	-0.172	-0.117
-214.538	100.032	0.051	-0.057
-213.523	-60.247	-0.325	-0.136
-212.509	-47.659	0.386	-0.184
-211.494	-41.583	-0.347	-0.175
-210.479	-97.894	0.109	0.028
-209.465	454.063	0.084	-0.183
-208.450	454.932	-0.054	-0.117
-207.436	707.323	0.073	0.189
-206.421	-78.063	0.187	0.063
-205.406	-200.000	-0.006	0.156
-204.392	-200.000	0.024	0.192
-203.377	331.752	-0.184	-0.347
-202.363	-200.000	0.024	0.219
-201.348	-84.864	0.307	0.095
-200.333	-133.779	0.544	0.066
-199.319	-131.582	-0.205	-0.026
-198.304	319.390	-0.239	-0.444
-197.290	394.413	0.096	0.195
-196.275	218.183	0.145	-0.227
-195.260	-105.682	-0.188	-0.042
-194.246	-8.507	0.359	-0.236
-193.231	104.972	-0.437	0.505
-192.217	12.019	-0.183	0.138
-191.202	-200.000	0.105	0.641
-190.187	-200.000	0.044	0.340
-189.173	-200.000	0.055	-0.235
-188.158	7.208	0.210	-0.154
-187.144	-200.000	0.018	0.124
-186.129	-200.000	0.009	0.060
-185.114	-67.775	0.364	0.140
-184.100	-92.063	0.168	0.046
-183.085	-3.244	-0.244	-0.166
-182.071	800.000	0.115	-0.458
-181.056	242.938	0.159	0.260
-180.042	800.000	-0.026	-0.105
-179.027	-76.507	0.070	-0.024
-178.012	800.000	0.019	-0.072
-176.998	166.879	0.076	-0.106
-175.983	-200.000	-0.010	-0.404
-174.969	171.982	-0.063	-0.088
-173.954	800.000	0.056	-0.175
-172.939	-200.000	-0.010	0.086
-171.925	-200.000	-0.036	0.408
-170.910	-16.005	-0.176	0.110
-169.896	-83.959	0.319	0.099
-168.881	494.748	-0.057	-0.129
-167.866	70.143	-0.221	-0.224
-166.852	-55.330	0.225	0.099
-165.837	-200.000	0.001	0.273
-164.823	-113.651	-0.080	0.015
-163.808	97.216	0.131	-0.147
-162.793	396.047	-0.117	-0.239
-161.779	-74.882	-0.266	-0.093
-160.764	800.000	-0.094	-0.335
-159.750	800.000	-0.016	-0.058
-158.735	-200.000	-0.019	0.314
-157.720	-18.572	0.152	0.093
-156.706	-28.036	-0.212	0.120
-155.691	-138.699	-0.148	0.016
-154.677	800.000	-0.035	0.119
-153.662	800.000	-0.023	-0.063
-152.647	596.684	-0.153	-0.370
-151.633	-135.919	0.303	0.035
-150.618	251.766	-0.044	0.074
-149.604	-200.000	0.002	0.285
-148.589	-152.969	-0.117	-0.008
-147.574	197.869	-0.187	0.279
-146.560	-12.365	0.276	0.177
-145.545	-69.963	0.085	-0.032
-144.531	-54.495	0.140	-0.062
-143.516	-129.994	-0.622	0.083
-142.502	-124.224	-0.067	-0.010
-141.487	57.380	0.129	-0.123
-140.472	164.361	0.114	0.157
-139.458	800.000	-0.042	0.120
-138.443	-15.541	-0.286	0.179
-137.429	-29.823	0.087	0.048
-136.414	-27.673	0.361	0.205
-135.399	214.474	0.121	0.188
-134.385	26.166	-0.195	-0.159
-133.370	-105.966	0.160	-0.035
-132.356	392.271	-0.101	-0.206
-131.341	259.268	-0.193	0.326
-130.326	-22.908	-0.216	-0.127
-129.312	127.658	0.158	-0.196
-128.297	-200.000	-0.035	-0.154
-127.283	-42.519	0.140	-0.070
-126.268	-175.232	0.035	0.001
-125.253	110.531	-0.226	0.265
-124.239	-130.203	-0.152	0.020
-123.224	0.523	0.195	-0.136
-122.210	563.211	-0.030	0.071
-121.195	2.032	0.242	0.171
-120.180	-200.000	-0.008	0.102
-119.166	-200.000	-0.048	0.406
-118.151	-200.000	-0.003	0.345
-117.137	-176.129	0.291	0.007
-116.122	-200.000	0.059	-0.311
-115.107	-117.166	0.126	0.022
-114.093	-121.458	-0.031	-0.005
-113.078	-178.370	-0.250	-0.006
-112.064	393.986	-0.040	0.082
-111.049	14.788	0.034	0.026
-110.034	52.180	0.170	0.158
-109.020	147.224	0.194	0.255
-108.005	17.648	0.112	0.087
-106.991	-52.468	0.243	0.110
-105.976	24.061	0.197	-0.159
-104.962	-200.000	-0.057	-0.263
-103.947	-49.909	0.156	-0.072
-102.932	501.783	0.071	0.161
-101.918	165.560	0.297	0.410
-100.903	-78.106	0.067	-0.023
-99.889	-181.934	0.133	-0.002
-98.874	-18.870	0.164	-0.100
-97.859	47.979	0.059	-0.054
-96.845	45.217	0.048	-0.043
-95.830	69.514	0.116	-0.117
-94.816	206.443	0.200	-0.304
-93.801	-189.444	0.399	-0.005
-92.786	554.662	0.152	0.357
-91.772	800.000	-0.131	0.414
-90.757	336.231	-0.009	-0.017
-89.743	434.051	0.073	0.155
-88.728	-172.449	-0.400	-0.012
-87.713	-28.291	-0.144	0.081
-86.699	-30.423	-0.246	-0.136
-85.684	-200.000	0.079	-0.356
-84.670	-200.000	-0.000	-0.121
-83.655	-43.039	-0.163	-0.081
-82.640	-83.994	-0.280	0.087
-81.626	-155.998	-0.214	0.013
-80.611	34.303	0.236	0.201
-79.597	-157.514	0.103	-0.006
-78.582	-120.686	-0.185	-0.030
-77.567	-11.088	0.037	0.024
-76.553	-134.298	-0.321	-0.038
-75.538	800.000	0.153	0.453
-74.524	-121.639	-0.313	0.050
-73.509	100.755	-0.064	-0.073
-72.494	-146.419	-0.358	0.030
-71.480	-200.000	-0.018	-0.121
-70.465	-200.000	-0.024	-0.130
-69.451	273.424	0.098	0.169
-68.436	70.293	0.242	-0.244
-67.422	-42.389	0.225	0.112
-66.407	5.120	0.080	-0.057
-65.392	200.749	0.019	-0.028
-64.378	800.000	-0.044	0.152
-63.363	-200.000	0.044	0.214
-62.349	256.183	0.069	0.115
-61.334	28.260	-1.077	-0.886
-60.319	191.650	0.538	0.791
-59.305	800.000	-0.335	-1.420
-58.290	375.494	0.872	1.733
-57.276	563.296	0.695	1.639
-56.261	-200.000	128.136	670.531
-55.246	404.739	1611.541	3308.636
-54.232	138.283	2768.165	3537.504
-53.217	94.568	2188.289	2422.830
-52.203	33.284	1701.764	1438.445
-51.188	25.785	1519.939	1233.563
-50.173	23.873	1496.112	1201.272
-49.159	48.346	1568.152	1429.807
-48.144	45.194	1580.784	1419.413
-47.130	25.835	1529.821	1241.726
-46.115	22.996	1512.812	1208.493
-45.100	22.907	1509.378	1205.097
-44.086	22.715	1508.026	1202.662
-43.071	22.808	1505.781	1201.457
-42.057	22.860	1503.636	1200.051
-41.042	22.766	1502.648	1198.574
-40.027	22.755	1500.820	1196.990
-39.013	22.649	1499.834	1195.438
-37.998	22.627	1498.944	1194.536
-36.984	22.718	1497.629	1194.053
-35.969	22.711	1495.707	1192.427
-34.954	22.678	1494.484	1191.186
-33.940	22.713	1493.258	1190.398
-32.925	22.711	1492.151	1189.454
-31.911	22.767	1490.548	1188.506
-30.896	22.749	1489.475	1187.478
-29.881	22.799	1488.282	1186.821
-28.867	22.793	1486.823	1185.568
-27.852	22.871	1484.670	1184.323
-26.838	22.801	1484.141	1183.388
-25.823	22.772	1482.815	1182.087
-24.809	22.777	1480.965	1180.602
-23.794	22.779	1479.309	1179.248
-22.779	22.803	1478.126	1178.419
-21.765	22.904	1476.646	1177.867
-20.750	22.789	1476.117	1176.633
-19.736	22.866	1474.924	1176.144
-18.721	22.697	1474.194	1174.390
-17.706	22.769	1472.644	1173.591
-16.692	22.764	1471.448	1172.553
-15.677	22.756	1471.118	1172.194
-14.663	22.816	1469.568	1171.308
-13.648	22.779	1469.008	1170.569
-12.633	22.734	1468.046	1169.459
-11.619	22.692	1467.719	1168.874
-10.604	22.736	1466.656	1168.272
-9.590	22.802	1465.428	1167.686
-8.575	22.682	1465.207	1166.672
-7.560	22.806	1464.038	1166.509
-6.546	22.725	1463.410	1165.431
-5.531	22.698	1462.493	1164.478
-4.517	22.710	1461.288	1163.551
-3.502	22.674	1459.847	1162.117
-2.487	22.775	1459.045	1162.097
-1.473	22.804	1457.888	1161.322
-0.458	22.868	1456.375	1160.492
0.556	21.069	1447.091	1149.009
1.571	18.103	1423.078	1110.599
2.586	14.858	1362.149	1042.749
3.600	13.461	1278.165	970.187
4.615	12.645	1234.699	932.490
5.629	10.971	1178.488	880.899
6.644	5.316	1097.238	791.518
7.659	0.890	1061.804	744.162
8.673	0.308	1055.867	737.090
9.688	0.110	1053.096	734.125
10.702	0.047	1051.830	732.868
11.717	0.165	1049.256	731.586
12.731	1.954	1050.162	740.847
13.746	8.144	1058.201	776.677
14.761	14.363	1066.402	813.065
15.775	16.561	1069.227	825.892
16.790	16.463	1067.729	824.181
17.804	15.332	1065.941	817.223
18.819	14.627	1063.885	812.143
19.834	14.072	1062.616	808.406
20.848	13.929	1061.361	806.683
21.863	13.704	1061.060	805.295
22.877	13.419	1060.151	803.147
23.892	13.250	1058.917	801.326
24.907	13.088	1058.090	799.843
25.921	12.916	1057.829	798.741
26.936	13.242	1056.630	799.342
27.950	13.263	1055.906	798.826
28.965	13.339	1054.948	798.395
29.980	13.327	1054.546	797.961
30.994	13.352	1053.216	797.009
32.009	13.419	1052.654	796.833
33.023	13.359	1052.255	796.171
34.038	13.443	1051.309	795.789
35.053	13.331	1050.737	794.748
36.067	13.281	1049.920	793.821
37.082	13.265	1048.933	792.927
38.096	13.277	1048.229	792.382
39.111	13.259	1047.351	791.564
40.126	13.450	1046.142	791.494
41.140	13.270	1045.440	790.028
42.155	13.279	1044.163	789.041
43.169	13.216	1043.222	787.958
44.184	13.037	1042.805	786.722
45.199	13.120	1041.523	786.077
46.213	13.217	1040.571	785.749
47.228	13.218	1039.642	784.983
48.242	13.185	1038.614	783.983
49.257	13.247	1037.747	783.554
50.271	13.254	1036.486	782.564
51.286	13.217	1035.943	781.911
52.301	13.346	1035.079	781.799
53.315	13.342	1034.086	780.963
54.330	13.233	1033.209	779.716
55.344	13.216	1032.701	779.183
56.359	13.227	1031.371	778.160
57.374	13.280	1030.754	777.876
58.388	13.236	1030.069	777.085
59.403	13.168	1028.713	775.673
60.417	13.148	1028.279	775.182
61.432	13.174	1027.147	774.382
62.447	13.145	1026.891	773.987
63.461	13.120	1026.334	773.382
64.476	13.078	1025.027	772.131
65.490	13.121	1023.966	771.466
66.505	12.943	1023.584	770.277
67.520	13.011	1022.686	769.851
68.534	13.115	1022.027	769.770
69.549	13.159	1021.152	769.250
70.563	13.167	1020.540	768.755
71.578	13.213	1019.638	768.223
72.593	13.039	1018.929	766.811
73.607	13.035	1017.952	765.992
74.622	13.139	1016.524	765.332
75.636	13.087	1016.287	764.845
76.651	13.151	1015.579	764.538
77.666	13.055	1014.608	763.299
78.680	13.158	1013.914	763.181
79.695	13.074	1013.273	762.247
80.709	13.139	1012.826	762.139
81.724	13.267	1011.539	761.698
82.739	13.154	1010.898	760.625
83.753	13.116	1010.469	760.061
84.768	13.333	1009.377	760.167
85.782	13.397	1008.758	759.927
86.797	13.377	1008.230	759.374
87.812	13.360	1007.103	758.379
88.826	13.362	1006.396	757.787
89.841	13.347	1005.729	757.148
90.855	13.251	1005.072	756.149
91.870	13.410	1003.917	755.940
92.884	13.278	1003.709	755.115
93.899	13.365	1002.916	754.849
94.914	13.399	1002.043	754.279
95.928	13.496	1000.888	753.784
96.943	13.513	1000.544	753.534
97.957	13.561	999.489	752.894
98.972	13.428	998.998	751.854
99.987	13.460	998.130	751.278
101.001	13.384	997.413	750.329
102.016	13.446	996.625	749.948
103.030	13.327	996.182	749.012
104.045	13.354	994.550	747.840
105.060	13.399	994.324	747.806
106.074	13.414	992.719	746.601
107.089	13.367	992.091	745.852
108.103	13.235	991.390	744.664
109.118	13.223	990.962	744.220
110.133	13.281	989.383	743.229
111.147	13.210	989.053	742.598
112.162	13.290	987.930	742.046
113.176	13.216	987.083	741.012
114.191	13.465	986.210	741.408
115.206	13.409	985.138	740.289
116.220	13.357	984.630	739.608
117.235	13.253	984.070	738.657
118.249	13.297	983.193	738.128
119.264	13.281	981.824	736.966
120.279	13.324	981.135	736.573
121.293	13.275	980.734	735.991
122.308	13.279	979.613	735.099
123.322	13.285	979.023	734.619
124.337	13.423	977.416	733.962
125.352	13.396	976.581	733.148
126.366	13.184	975.594	731.405
127.381	13.162	974.744	730.605
128.395	13.301	973.783	730.435
129.410	13.185	972.726	729.064
130.424	13.218	972.244	728.787
131.439	13.151	971.337	727.746
132.454	13.330	969.894	727.390
133.468	13.437	969.116	727.209
134.483	13.355	968.795	726.544
135.497	13.256	968.681	725.959
136.512	13.308	967.264	725.061
137.527	13.233	966.371	724.001
138.541	13.276	966.178	723.979
139.556	13.384	965.223	723.673
140.570	13.259	964.484	722.510
141.585	13.427	963.662	722.562
142.600	13.402	963.125	721.987
143.614	13.483	962.128	721.528
144.629	13.512	961.547	721.154
145.643	13.547	960.580	720.515
146.658	13.595	959.830	720.099
147.673	13.515	958.809	718.922
148.687	13.395	958.184	717.871
149.702	13.548	957.016	717.595
150.716	13.529	956.329	716.933
151.731	13.334	956.012	715.790
152.746	13.409	955.191	715.435
153.760	13.361	954.615	714.731
154.775	13.506	953.559	714.504
155.789	13.519	952.505	713.707
156.804	13.569	952.038	713.509
157.819	13.532	951.146	712.621
158.833	13.431	951.394	712.307
159.848	13.588	949.902	711.801
160.862	13.699	949.073	711.593
161.877	13.726	948.227	711.013
162.892	13.575	947.760	709.953
163.906	13.552	947.092	709.289
164.921	13.505	946.351	708.471
165.935	13.519	945.277	707.666
166.950	13.592	944.066	707.007
167.964	13.656	943.522	706.809
168.979	13.540	942.551	705.525
169.994	13.578	941.601	704.913
171.008	13.655	941.232	704.901
172.023	13.648	939.511	703.524
173.037	13.815	938.872	703.690
174.052	13.652	938.738	702.837
175.067	13.836	937.775	702.834
176.081	13.650	936.889	701.317
177.096	13.654	936.401	700.907
178.110	13.678	935.399	700.198
179.125	13.688	934.795	699.725
180.140	13.729	933.824	699.113
181.154	13.647	933.284	698.298
182.169	13.726	932.792	698.203
183.183	13.747	932.040	697.665
184.198	13.817	931.379	697.405
185.213	13.985	930.433	697.339
186.227	13.782	930.327	696.345
187.242	13.818	930.015	696.200
188.256	13.975	928.722	695.829
189.271	13.954	928.035	695.164
190.286	13.948	926.926	694.245
191.300	13.713	926.875	693.165
192.315	13.774	925.852	692.594
193.329	13.854	924.880	692.138
194.344	13.637	924.462	690.860
195.359	13.812	924.308	691.415
196.373	13.879	923.449	690.990
197.388	13.954	922.793	690.747
198.402	14.063	921.933	690.496
199.417	13.917	921.963	689.852
200.432	14.026	921.565	689.946
201.446	14.069	920.732	689.438
202.461	14.114	920.680	689.526
203.475	14.234	919.587	689.143
204.490	14.137	919.351	688.504
205.504	14.080	918.098	687.269
206.519	14.144	917.588	687.091
207.534	14.207	916.314	686.337
208.548	14.082	915.897	685.445
209.563	14.109	915.591	685.271
210.577	14.002	915.124	684.417
211.592	14.233	914.132	684.566
212.607	14.215	913.838	684.211
213.621	14.349	912.786	683.913
214.636	14.339	912.159	683.341
215.650	14.310	911.622	682.761
216.665	14.377	910.658	682.251
217.680	14.411	910.419	682.153
218.694	14.262	910.397	681.465
219.709	14.363	909.787	681.362
220.723	14.492	908.573	680.916
221.738	14.375	908.010	679.959
222.753	14.355	907.294	679.279
223.767	14.394	906.816	679.020
224.782	14.589	905.493	678.763
225.796	14.481	904.998	677.896
226.811	14.427	904.378	677.150
227.826	14.412	903.911	676.680
228.840	14.452	903.069	676.152
229.855	14.415	902.727	675.687
230.869	14.517	902.066	675.543
231.884	14.438	901.135	674.468
232.899	14.516	900.719	674.413
233.913	14.542	899.830	673.793
234.928	14.422	899.196	672.774
235.942	14.476	898.698	672.560
236.957	14.432	897.838	671.680
237.972	14.576	896.954	671.538
238.986	14.368	896.144	670.036
240.001	14.466	895.587	669.954
241.015	14.534	894.878	669.635
242.030	14.506	894.543	669.216
243.045	14.532	893.810	668.710
244.059	14.610	892.753	668.172
245.074	14.630	892.342	667.885
246.088	14.759	891.699	667.861
247.103	14.726	891.012	667.156
248.117	14.745	890.453	666.754
249.132	14.655	890.320	666.238
250.147	14.803	889.394	666.075
251.161	14.771	889.163	665.716
252.176	14.964	888.036	665.580
253.190	15.040	887.133	665.146
254.205	14.929	886.684	664.313
255.220	15.046	886.303	664.430
256.234	14.917	885.901	663.561
257.249	14.989	885.491	663.480
258.263	14.993	884.611	662.776
259.278	15.149	883.743	662.685
260.293	15.136	883.471	662.372
261.307	14.930	883.129	661.244
262.322	15.000	882.561	661.033
263.336	15.152	881.551	660.820
264.351	15.215	881.051	660.636
265.366	15.217	879.964	659.768
266.380	15.239	880.009	659.829
267.395	15.305	879.048	659.312
268.409	15.209	878.140	658.194
269.424	15.110	877.840	657.524
270.439	15.075	877.239	656.875
271.453	15.383	876.225	657.268
272.468	15.332	875.096	656.161
273.482	15.282	874.599	655.538
274.497	15.231	874.383	655.117
275.512	15.282	873.631	654.694
276.526	15.277	873.112	654.229
277.541	15.337	872.074	653.626
278.555	15.267	872.017	653.253
279.570	15.184	871.342	652.366
280.585	15.360	870.609	652.446
281.599	15.490	869.587	652.125
282.614	15.318	869.124	651.053
283.628	15.339	868.724	650.779
284.643	15.474	867.939	650.654
285.657	15.366	867.796	650.072
286.672	15.468	867.193	649.956
287.687	15.382	866.952	649.386
288.701	15.599	865.875	649.363
289.716	15.545	865.252	648.629
290.730	15.526	864.946	648.267
291.745	15.457	864.060	647.280
292.760	15.568	863.527	647.251
293.774	15.638	862.814	646.930
294.789	15.657	862.483	646.699
295.803	15.676	861.625	646.068
296.818	15.490	861.278	645.040
297.833	15.627	860.372	644.829
298.847	15.655	859.713	644.385
299.862	15.615	859.160	643.758
300.876	15.773	858.136	643.539
301.891	15.631	857.666	642.588
302.906	15.708	856.967	642.300
303.920	15.706	856.636	641.987
304.935	15.809	855.830	641.722
305.949	15.866	854.984	641.246
306.964	15.860	854.478	640.786
307.979	15.884	853.994	640.459
308.993	15.839	853.719	640.026
310.008	15.814	853.094	639.403
311.022	15.905	852.389	639.165
312.037	15.797	852.287	638.621
313.052	15.806	851.584	638.075
314.066	15.836	850.890	637.610
315.081	15.738	850.711	637.047
316.095	15.856	849.576	636.589
317.110	15.791	849.277	636.060
318.125	15.828	848.825	635.808
319.139	15.890	848.471	635.721
320.154	15.882	847.822	635.147
321.168	15.884	847.027	634.505
322.183	15.888	846.671	634.196
323.197	15.826	846.622	633.869
324.212	15.927	845.567	633.403
325.227	15.976	845.079	633.164
326.241	15.947	844.712	632.727
327.256	15.959	844.208	632.336
328.270	16.060	843.502	632.132
329.285	15.925	842.684	630.955
330.300	16.118	841.821	630.975
331.314	15.941	841.437	629.971
332.329	16.069	840.988	630.059
333.343	16.110	840.338	629.668
334.358	16.015	840.209	629.161
335.373	16.090	839.622	628.944
336.387	16.177	838.805	628.603
337.402	16.116	838.215	627.876
338.416	16.278	837.450	627.852
339.431	16.287	837.188	627.634
340.446	16.066	836.905	626.545
341.460	16.227	836.173	626.540
342.475	16.164	835.765	625.941
343.489	16.522	834.633	626.367
344.504	16.353	834.754	625.774
345.519	16.449	833.941	625.467
346.533	16.421	833.465	624.951
347.548	16.378	832.871	624.290
348.562	16.455	832.356	624.135
349.577	16.441	831.715	623.547
350.592	16.083	831.676	622.139
351.606	16.230	830.837	621.999
352.621	16.295	830.615	622.019
353.635	16.352	830.066	621.762
354.650	16.430	829.607	621.649
355.665	16.340	829.422	621.124
356.679	16.536	828.730	621.272
357.694	16.369	828.317	620.295
358.708	16.575	827.195	620.156
359.723	16.517	826.898	619.666
360.738	16.562	826.407	619.407
361.752	16.528	825.746	618.731
362.767	16.618	825.180	618.581
363.781	16.578	825.070	618.299
364.796	16.625	824.795	618.209
365.810	16.676	823.884	617.659
366.825	16.824	823.714	618.017
367.840	16.691	823.385	617.228
368.854	16.715	822.898	616.896
369.869	16.753	822.303	616.535
370.883	16.707	821.934	616.035
371.898	16.590	821.630	615.328
372.913	16.747	820.765	615.195
373.927	16.958	820.059	615.380
374.942	16.895	819.480	614.661
375.956	16.954	818.934	614.410
376.971	16.894	818.067	613.489
377.986	16.812	818.031	613.109
379.000	16.953	817.633	613.269
380.015	16.878	817.004	612.471
381.029	16.850	816.379	611.846
382.044	17.037	815.618	611.897
383.059	17.109	814.914	611.575
384.073	17.079	814.250	610.913
385.088	17.046	814.027	610.575
386.102	17.057	813.563	610.210
387.117	16.919	813.198	609.386
388.132	16.876	812.422	608.597
389.146	17.041	812.164	608.944
390.161	16.999	811.718	608.405
391.175	16.927	811.355	607.819
392.190	17.196	810.938	608.417
393.205	17.061	810.704	607.706
394.219	17.127	809.990	607.350
395.234	17.177	809.370	607.010
396.248	17.315	808.989	607.166
397.263	16.970	808.534	605.539
398.278	17.087	808.138	605.607
399.292	16.965	807.645	604.747
400.307	17.174	807.319	605.195
401.321	17.017	807.041	604.373
402.336	16.967	806.748	603.925
403.350	17.141	806.094	603.997
404.365	17.130	805.804	603.689
405.380	17.291	804.786	603.446
406.394	17.255	804.171	602.803
407.409	17.292	804.101	602.828
408.423	17.340	803.722	602.660
409.438	17.449	803.023	602.469
410.453	17.377	802.740	601.947
411.467	17.379	802.299	601.573
412.482	17.495	801.839	601.584
413.496	17.550	801.437	601.423
414.511	17.505	801.124	600.975
415.526	17.466	800.830	600.564
416.540	17.545	800.297	600.389
417.555	17.724	799.486	600.358
418.569	17.565	799.478	599.739
419.584	17.437	799.206	599.031
420.599	17.452	798.821	598.742
421.613	114.201	1297.969	1490.192
422.628	98.442	1370.654	1490.298
