DTS Sentinel unit serial number:	SN413079Multiplexer serial number:	ORYXHardware model number:	OX4-SRSoftware version number:	ORYX F/W v4.00 Oryx Data Collector v3.7.2.0data status	okinstallation	princeton_trtdifferential loss correction	single-endedforward channel	channel 3reverse channel	N/Adate	2019/09/17time	09:24:34forward acquisition time	60.00reverse acquisition time	0.00gamma	496.2192k internal	0.2326k external	0.2326temperature offset calibration	0.9936default loss term (dB/km)	0.3790temperature slope calibration	1.0000multiplexer offset coefficient	1.0000multiplexer slope coefficient	1.0000fibre end	0.00T internal ref (°C)	28.81T ext. ref 1 (°C)	0.14T ext. ref 2 (°C)	25.69length (m)	temperature (°C)	Stokes	anti-Stokes-747.200	261.957	-0.091	0.159
-746.185	-84.606	-0.015	0.005
-745.171	44.416	0.368	-0.341
-744.156	447.884	-0.092	0.205
-743.142	-200.000	0.033	-0.287
-742.127	42.455	-0.170	0.156
-741.112	-200.000	0.050	-0.333
-740.098	14.326	0.195	0.153
-739.083	-199.004	-0.154	0.001
-738.069	800.000	0.115	0.383
-737.054	-200.000	0.008	-0.217
-736.039	-89.992	-0.230	-0.068
-735.025	9.319	0.206	0.157
-734.010	119.939	0.067	-0.084
-732.996	-137.263	-0.367	0.042
-731.981	-23.521	-0.320	-0.194
-730.966	-200.000	0.008	0.101
-729.952	-19.781	-0.074	0.046
-728.937	344.273	-0.083	-0.165
-727.923	-200.000	-0.042	0.200
-726.908	23.233	-0.136	0.112
-725.894	-170.783	-0.471	0.016
-724.879	172.681	-0.019	0.028
-723.864	-135.969	0.151	-0.018
-722.850	643.507	0.078	-0.202
-721.835	-152.552	0.199	-0.014
-720.821	56.668	-0.190	-0.187
-719.806	-121.017	0.165	0.028
-718.791	135.820	-0.129	0.169
-717.777	6.211	0.144	0.107
-716.762	-156.402	-0.101	0.006
-715.748	232.493	-0.112	0.185
-714.733	-56.565	-0.253	0.113
-713.718	10.739	-0.149	0.114
-712.704	-200.000	0.059	-0.486
-711.689	800.000	0.083	-0.306
-710.675	124.649	0.093	-0.117
-709.660	189.772	-0.073	-0.111
-708.645	-200.000	-0.003	-0.299
-707.631	-54.610	-0.170	0.077
-706.616	277.089	-0.110	-0.197
-705.602	-30.179	-0.086	0.049
-704.587	97.930	-0.056	-0.065
-703.572	-200.000	0.024	-0.150
-702.558	-28.642	-0.145	-0.084
-701.543	-142.431	-0.284	-0.028
-700.529	-200.000	0.041	0.210
-699.514	800.000	0.040	-0.126
-698.499	246.114	-0.059	0.101
-697.485	-200.000	0.008	0.070
-696.470	-200.000	0.024	-0.324
-695.456	-50.102	0.142	-0.068
-694.441	34.626	-0.152	0.134
-693.426	92.658	-0.098	-0.111
-692.412	768.363	-0.082	0.225
-691.397	-143.982	-0.372	0.035
-690.383	-115.244	-0.252	-0.048
-689.368	-14.438	-0.190	0.123
-688.354	-115.704	0.356	-0.067
-687.339	-77.677	-0.187	-0.065
-686.324	-191.464	0.443	-0.004
-685.310	800.000	0.064	0.262
-684.295	-141.973	-0.164	0.016
-683.281	-149.704	0.304	0.024
-682.266	-88.020	-0.246	0.074
-681.251	-76.488	-0.094	0.033
-680.237	-2.358	-0.186	-0.131
-679.222	-122.470	-0.049	-0.008
-678.208	-200.000	-0.299	0.001
-677.193	-200.000	0.074	0.361
-676.178	-13.689	-0.358	-0.233
-675.164	-115.418	0.128	-0.024
-674.149	800.000	0.097	-0.297
-673.135	-195.264	-0.180	0.001
-672.120	-200.000	-0.006	-0.063
-671.105	-15.241	-0.141	-0.091
-670.091	528.731	-0.165	-0.392
-669.076	-89.366	-0.055	0.016
-668.062	-74.717	-0.077	0.028
-667.047	-200.000	0.009	0.119
-666.032	436.742	0.060	-0.131
-665.018	20.431	-0.405	0.329
-664.003	-200.000	-0.023	-0.185
-662.989	-153.899	-0.100	0.007
-661.974	-161.052	-0.253	0.013
-660.959	-53.239	0.296	0.137
-659.945	-125.941	0.334	0.051
-658.930	-108.852	0.134	-0.029
-657.916	-121.051	0.125	0.021
-656.901	-200.000	0.046	0.270
-655.886	-200.000	-0.028	-0.154
-654.872	198.308	0.127	-0.195
-653.857	-123.425	-0.174	0.028
-652.843	98.051	-0.127	0.147
-651.828	-107.652	0.350	0.077
-650.814	13.891	-0.154	-0.121
-649.799	-2.035	-0.189	-0.134
-648.784	-147.557	-0.311	-0.026
-647.770	-95.458	0.127	0.034
-646.755	-116.035	-0.331	0.062
-645.741	-200.000	0.003	0.136
-644.726	800.000	-0.066	-0.240
-643.711	3.826	-0.272	-0.200
-642.697	800.000	0.026	-0.094
-641.682	377.910	0.174	-0.357
-640.668	36.453	-0.100	0.089
-639.653	800.000	-0.085	0.244
-638.638	60.787	0.068	0.068
-637.624	-139.724	-0.167	-0.018
-636.609	-74.630	0.286	-0.103
-635.595	-98.464	0.234	0.060
-634.580	-200.000	0.008	-0.082
-633.565	16.342	0.074	0.059
-632.551	-80.717	-0.328	0.109
-631.536	194.887	-0.146	0.222
-630.522	-68.043	0.203	0.080
-629.507	8.078	0.187	0.141
-628.492	-149.784	-0.147	-0.012
-627.478	-92.502	-0.396	0.112
-626.463	-97.656	0.139	-0.036
-625.449	-200.000	-0.005	0.044
-624.434	27.669	0.061	-0.051
-623.419	385.652	-0.045	0.093
-622.405	-172.264	0.295	-0.009
-621.390	-119.074	-0.108	0.019
-620.376	9.118	-0.423	-0.321
-619.361	742.439	-0.118	-0.318
-618.346	157.127	-0.098	0.136
-617.332	514.743	0.082	-0.192
-616.317	-18.619	-0.204	-0.128
-615.303	582.334	-0.147	-0.361
-614.288	-200.000	-0.010	0.083
-613.273	44.468	0.289	0.266
-612.259	-82.212	0.113	0.037
-611.244	112.965	-0.076	0.092
-610.230	-52.829	0.085	-0.039
-609.215	-200.000	-0.015	0.138
-608.201	-39.468	0.315	-0.166
-607.186	-200.000	0.061	0.287
-606.171	33.453	-0.303	0.264
-605.157	-155.329	-0.549	-0.036
-604.142	-94.964	0.329	0.089
-603.128	-200.000	-0.051	-0.363
-602.113	-114.073	-0.215	0.042
-601.098	-74.654	0.171	0.062
-600.084	125.543	-0.055	-0.070
-599.069	-188.468	-0.252	-0.003
-598.055	800.000	-0.090	0.334
-597.040	800.000	0.073	0.234
-596.025	-26.559	0.048	0.028
-595.011	370.043	-0.086	-0.176
-593.996	-116.554	0.449	-0.083
-592.982	800.000	0.047	-0.208
-591.967	-200.000	-0.037	0.237
-590.952	292.906	0.047	-0.086
-589.938	-69.406	0.140	-0.054
-588.923	-68.848	-0.219	0.085
-587.909	243.941	0.101	-0.171
-586.894	-77.522	-0.114	-0.040
-585.879	165.913	-0.155	0.220
-584.865	-25.962	0.267	0.158
-583.850	-50.287	0.171	-0.081
-582.836	229.692	0.291	0.476
-581.821	7.014	-0.377	0.282
-580.806	244.666	0.121	-0.205
-579.792	58.394	0.150	-0.148
-578.777	-9.459	-0.207	-0.139
-577.763	17.576	-0.107	0.085
-576.748	800.000	0.032	0.095
-575.733	655.427	-0.113	-0.290
-574.719	62.191	-0.139	0.139
-573.704	800.000	0.075	0.231
-572.690	104.387	-0.488	-0.576
-571.675	93.458	0.132	-0.149
-570.661	-200.000	-0.037	0.185
-569.646	-89.398	0.304	-0.090
-568.631	253.761	0.074	0.127
-567.617	-200.000	-0.006	0.147
-566.602	-156.520	0.291	-0.018
-565.588	-17.607	-0.195	0.123
-564.573	-200.000	-0.014	-0.108
-563.558	117.669	0.397	-0.489
-562.544	-58.700	-0.103	0.045
-561.529	-200.000	0.016	0.294
-560.515	800.000	-0.018	-0.078
-559.500	800.000	-0.061	-0.238
-558.485	-181.786	-0.064	-0.001
-557.471	800.000	-0.073	0.304
-556.456	-200.000	-0.002	-0.210
-555.442	-33.352	0.120	0.066
-554.427	151.972	0.051	-0.070
-553.412	-15.588	-0.209	-0.133
-552.398	-200.000	-0.022	-0.190
-551.383	-179.040	-0.344	0.008
-550.369	65.778	-0.058	0.059
-549.354	-200.000	0.010	-0.063
-548.339	800.000	-0.057	-0.228
-547.325	800.000	-0.016	-0.055
-546.310	1.571	0.248	0.179
-545.296	-200.000	0.005	-0.198
-544.281	800.000	-0.039	0.128
-543.266	-113.015	-0.116	-0.023
-542.252	349.234	-0.186	-0.367
-541.237	80.331	0.194	-0.209
-540.223	-45.277	-0.269	0.134
-539.208	117.353	0.158	-0.194
-538.193	-57.733	0.121	0.053
-537.179	-61.270	0.113	0.048
-536.164	332.727	0.052	-0.100
-535.150	-86.073	-0.159	0.049
-534.135	-27.963	0.126	-0.073
-533.121	4.795	0.051	0.038
-532.106	69.538	-0.193	-0.199
-531.091	-35.495	0.169	0.092
-530.077	-28.675	-0.195	0.112
-529.062	-141.338	0.317	-0.032
-528.048	104.870	-0.120	0.141
-527.033	104.035	-0.229	-0.270
-526.018	-98.839	0.335	0.085
-525.004	-200.000	0.029	-0.152
-523.989	-180.500	0.127	0.003
-522.975	-79.243	0.186	0.063
-521.960	-96.618	0.134	0.035
-520.945	704.718	0.083	0.218
-519.931	-120.261	-0.182	0.031
-518.916	-73.902	-0.159	0.058
-517.902	253.164	0.081	0.139
-516.887	31.845	-0.117	0.101
-515.872	-154.052	-0.298	-0.020
-514.858	800.000	0.034	-0.128
-513.843	617.243	-0.115	0.289
-512.829	135.753	-0.164	0.214
-511.814	-72.922	0.475	0.174
-510.799	800.000	-0.050	-0.184
-509.785	320.783	0.052	0.098
-508.770	262.866	-0.033	-0.057
-507.756	-167.941	0.187	-0.007
-506.741	-36.855	0.376	0.201
-505.726	-200.000	0.009	0.132
-504.712	361.143	0.050	-0.099
-503.697	-16.292	0.392	-0.249
-502.683	-5.741	0.223	0.153
-501.668	672.464	0.106	-0.274
-500.653	-38.364	0.220	-0.116
-499.639	-200.000	0.040	0.224
-498.624	256.315	0.172	-0.294
-497.610	-127.071	0.268	-0.039
-496.595	87.375	-0.108	0.119
-495.581	353.494	0.138	0.274
-494.566	416.119	-0.094	-0.201
-493.551	-200.000	0.001	0.170
-492.537	800.000	0.070	0.209
-491.522	-99.424	-0.090	0.023
-490.508	800.000	0.085	-0.248
-489.493	66.871	-0.170	-0.173
-488.478	-96.316	-0.091	0.024
-487.464	-75.599	-0.268	0.095
-486.449	-184.633	-0.084	0.001
-485.435	-200.000	-0.046	0.204
-484.420	658.167	-0.082	-0.211
-483.405	-200.000	-0.017	-0.086
-482.391	-60.506	-0.245	0.104
-481.376	380.676	0.057	-0.117
-480.362	-200.000	0.010	-0.251
-479.347	-108.212	-0.061	-0.013
-478.332	46.389	0.080	-0.074
-477.318	-200.000	-0.003	0.170
-476.303	-200.000	0.028	0.214
-475.289	-109.761	-0.153	-0.032
-474.274	199.779	-0.120	-0.184
-473.259	57.766	-0.110	-0.108
-472.245	138.400	0.144	-0.189
-471.230	-120.871	0.051	-0.009
-470.216	14.014	-0.051	0.040
-469.201	-200.000	-0.009	-0.178
-468.186	-200.000	0.016	-0.344
-467.172	311.793	-0.051	-0.095
-466.157	800.000	0.096	-0.311
-465.143	305.045	0.069	-0.128
-464.128	22.929	0.188	-0.154
-463.113	-13.188	0.286	-0.186
-462.099	800.000	0.072	0.312
-461.084	178.784	-0.116	0.168
-460.070	-200.000	-0.012	-0.529
-459.055	-115.852	-0.427	0.080
-458.040	-36.800	-0.295	-0.158
-457.026	-62.935	-0.334	-0.138
-456.011	-200.000	-0.058	-0.256
-454.997	96.684	-0.035	-0.040
-453.982	180.772	-0.217	-0.318
-452.968	-200.000	0.024	-0.251
-451.953	-130.083	-0.225	0.031
-450.938	194.685	0.038	0.058
-449.924	800.000	0.138	0.406
-448.909	-200.000	0.075	-0.365
-447.895	234.114	0.091	0.150
-446.880	25.807	0.046	-0.038
-445.865	-200.000	0.048	0.428
-444.851	-133.469	-0.185	-0.023
-443.836	225.872	0.107	-0.172
-442.822	8.840	0.054	-0.041
-441.807	317.385	0.087	-0.163
-440.792	-71.619	-0.147	0.055
-439.778	-200.000	0.005	0.107
-438.763	-148.573	-0.342	-0.028
-437.749	-34.259	0.201	-0.110
-436.734	243.612	-0.070	0.117
-435.719	-2.073	0.106	0.074
-434.705	-69.357	0.269	0.103
-433.690	-1.626	-0.062	0.044
-432.676	191.022	0.087	-0.131
-431.661	-78.598	-0.192	-0.066
-430.646	68.686	-0.024	0.025
-429.632	-89.463	0.357	-0.105
-428.617	-120.386	-0.266	0.045
-427.603	-200.000	-0.028	-0.328
-426.588	186.735	0.211	-0.313
-425.573	265.230	0.065	0.112
-424.559	142.440	0.072	0.095
-423.544	401.891	0.056	-0.117
-422.530	-11.967	-0.207	0.135
-421.515	47.151	-0.048	0.045
-420.500	-155.526	-0.086	-0.006
-419.486	-146.913	-0.130	-0.011
-418.471	800.000	-0.007	-0.020
-417.457	-105.847	0.106	0.024
-416.442	-103.310	0.334	-0.078
-415.428	-200.000	0.034	-0.242
-414.413	-112.078	0.202	0.040
-413.398	-13.842	0.115	0.074
-412.384	-185.471	0.192	0.003
-411.369	76.335	0.196	0.207
-410.355	-41.337	0.255	0.131
-409.340	71.314	0.028	0.028
-408.325	113.924	0.109	-0.132
-407.311	292.603	-0.058	0.105
-406.296	182.368	0.184	-0.270
-405.282	34.250	0.221	0.192
-404.267	240.164	0.141	-0.233
-403.252	-200.000	-0.032	-0.171
-402.238	800.000	-0.052	0.174
-401.223	-15.538	0.050	-0.032
-400.209	-200.000	0.020	0.212
-399.194	-65.943	0.041	0.016
-398.179	-66.432	-0.125	0.049
-397.165	309.089	-0.189	-0.351
-396.150	-46.257	-0.095	0.047
-395.136	230.478	-0.042	0.069
-394.121	-160.257	0.187	0.010
-393.106	-74.057	0.086	-0.031
-392.092	-107.524	-0.343	-0.075
-391.077	-113.183	-0.428	0.084
-390.063	-111.388	-0.141	0.029
-389.048	800.000	0.112	0.328
-388.033	187.939	0.282	0.419
-387.019	-39.211	-0.186	0.097
-386.004	800.000	-0.024	0.082
-384.990	15.296	-0.187	-0.146
-383.975	800.000	-0.046	0.131
-382.960	7.048	-0.271	0.201
-381.946	-200.000	0.006	0.108
-380.931	-95.548	-0.205	0.055
-379.917	-143.839	0.238	0.022
-378.902	-37.864	-0.401	0.212
-377.888	-48.457	0.223	-0.107
-376.873	-195.465	0.381	-0.003
-375.858	-179.724	0.326	-0.007
-374.844	-200.000	-0.001	0.108
-373.829	46.805	0.162	0.149
-372.815	340.347	0.165	0.320
-371.800	-200.000	0.056	0.264
-370.785	800.000	-0.045	0.162
-369.771	180.852	-0.020	0.029
-368.756	-200.000	-0.047	-0.257
-367.742	-17.932	-0.105	-0.065
-366.727	800.000	0.092	-0.313
-365.712	800.000	-0.049	0.206
-364.698	139.323	0.038	0.049
-363.683	5.761	-0.303	0.223
-362.669	708.557	-0.054	0.143
-361.654	234.684	-0.121	-0.198
-360.639	800.000	-0.067	-0.224
-359.625	-200.000	0.262	-0.001
-358.610	-46.865	-0.147	-0.072
-357.596	-104.556	0.251	-0.058
-356.581	-21.278	0.293	0.178
-355.566	189.660	-0.119	-0.177
-354.552	143.170	0.154	-0.203
-353.537	-64.422	0.118	0.048
-352.523	-200.000	0.073	0.404
-351.508	-40.693	-0.107	0.055
-350.493	-101.971	0.186	0.045
-349.479	-76.036	-0.519	0.182
-348.464	-9.866	-0.166	0.109
-347.450	-200.000	-0.038	0.301
-346.435	34.501	0.242	0.210
-345.420	-200.000	0.014	-0.156
-344.406	800.000	-0.035	-0.152
-343.391	-155.992	0.317	0.020
-342.377	150.016	0.120	-0.162
-341.362	-200.000	0.057	0.275
-340.348	-200.000	-0.007	0.052
-339.333	-1.880	-0.150	-0.105
-338.318	112.864	-0.280	0.336
-337.304	-14.423	0.132	0.084
-336.289	56.343	-0.068	-0.065
-335.275	-31.408	0.153	0.085
-334.260	-200.000	0.060	0.287
-333.245	81.925	-0.104	0.112
-332.231	-34.840	0.297	0.161
-331.216	-200.000	0.051	-0.263
-330.202	335.604	0.090	0.174
-329.187	-43.889	-0.330	-0.165
-328.172	-84.602	0.312	0.098
-327.158	-61.951	0.309	0.128
-326.143	-32.134	0.216	-0.120
-325.129	81.224	0.214	0.230
-324.114	800.000	0.121	0.454
-323.099	-200.000	0.014	-0.131
-322.085	409.835	-0.094	-0.198
-321.070	-67.360	-0.060	-0.023
-320.056	714.839	-0.137	0.360
-319.041	-200.000	-0.037	-0.182
-318.026	28.982	0.232	0.195
-317.012	198.323	-0.115	-0.175
-315.997	87.968	-0.076	0.084
-314.983	800.000	-0.044	0.131
-313.968	223.295	0.120	0.192
-312.953	-200.000	0.073	-0.431
-311.939	-200.000	0.007	0.036
-310.924	-66.812	-0.213	0.084
-309.910	-14.898	-0.109	-0.069
-308.895	-54.896	-0.256	-0.115
-307.880	-200.000	-0.075	-0.390
-306.866	-116.850	-0.036	0.007
-305.851	-200.000	-0.040	0.188
-304.837	-25.179	-0.095	0.056
-303.822	577.011	0.085	0.206
-302.807	-127.098	-0.535	-0.078
-301.793	-40.089	0.057	-0.029
-300.778	-174.394	-0.199	-0.006
-299.764	-74.935	0.224	-0.080
-298.749	-200.000	0.021	-0.200
-297.735	36.838	0.098	0.086
-296.720	441.901	0.227	-0.492
-295.705	-31.457	-0.093	-0.052
-294.691	-52.367	-0.251	0.115
-293.676	774.828	-0.107	-0.290
-292.662	11.834	0.019	0.015
-291.647	-109.105	0.290	-0.061
-290.632	-97.769	-0.391	-0.100
-289.618	341.917	0.040	0.078
-288.603	17.779	-0.069	-0.055
-287.589	-155.486	-0.065	0.004
-286.574	-78.651	-0.105	0.036
-285.559	-200.000	-0.048	-0.373
-284.545	-153.703	-0.210	0.014
-283.530	61.902	0.071	-0.070
-282.516	42.847	-0.088	-0.079
-281.501	73.127	0.379	-0.393
-280.486	-200.000	-0.052	0.273
-279.472	-200.000	0.019	0.237
-278.457	399.048	0.095	0.198
-277.443	76.972	-0.160	-0.168
-276.428	-200.000	0.014	-0.088
-275.413	-33.261	-0.131	0.072
-274.399	7.715	0.150	-0.111
-273.384	-200.000	0.035	0.366
-272.370	-57.111	0.494	0.216
-271.355	211.834	-0.171	-0.266
-270.340	-200.000	-0.011	0.305
-269.326	291.860	0.167	-0.301
-268.311	159.278	-0.097	-0.134
-267.297	363.352	0.154	-0.306
-266.282	-31.085	-0.294	0.164
-265.267	-24.622	0.072	-0.043
-264.253	-200.000	-0.014	-0.142
-263.238	516.808	-0.057	0.132
-262.224	-59.860	-0.249	0.105
-261.209	-27.600	-0.158	-0.091
-260.195	-200.000	-0.050	-0.460
-259.180	118.129	0.117	0.142
-258.165	-200.000	0.049	0.261
-257.151	-115.407	-0.351	-0.066
-256.136	-200.000	0.008	0.127
-255.122	92.056	-0.203	0.226
-254.107	239.581	0.111	-0.182
-253.092	-130.838	-0.226	0.030
-252.078	-28.213	0.163	0.093
-251.063	-22.794	-0.324	-0.193
-250.049	-42.860	-0.135	-0.068
-249.034	62.554	0.115	0.114
-248.019	-151.664	-0.407	-0.030
-247.005	-95.828	-0.494	-0.130
-245.990	-91.999	0.130	-0.036
-244.976	-80.199	-0.300	-0.099
-243.961	800.000	-0.063	0.234
-242.946	-112.278	0.430	0.085
-241.932	-7.993	-0.186	0.124
-240.917	-200.000	0.071	0.388
-239.903	22.191	0.270	0.218
-238.888	-113.812	-0.156	-0.030
-237.873	26.177	0.070	-0.058
-236.859	800.000	0.073	-0.238
-235.844	-19.234	-0.288	-0.177
-234.830	-123.118	-0.401	-0.064
-233.815	-200.000	-0.032	-0.224
-232.800	345.276	0.141	-0.273
-231.786	800.000	0.064	-0.180
-230.771	130.086	-0.123	0.156
-229.757	77.472	-0.095	-0.100
-228.742	-19.816	-0.232	0.142
-227.727	-187.022	-0.112	-0.002
-226.713	-200.000	0.028	0.305
-225.698	-200.000	0.020	-0.298
-224.684	-200.000	0.014	-0.184
-223.669	133.821	0.023	0.029
-222.655	26.666	-0.156	-0.129
-221.640	287.138	-0.044	0.078
-220.625	376.377	-0.105	-0.212
-219.611	192.082	-0.154	-0.229
-218.596	437.907	-0.105	-0.225
-217.582	207.016	0.264	0.407
-216.567	-16.207	-0.159	-0.099
-215.552	-200.000	0.082	-0.385
-214.538	-200.000	0.027	0.178
-213.523	88.758	0.321	0.353
-212.509	-15.665	0.293	-0.185
-211.494	800.000	-0.053	0.213
-210.479	48.509	-0.088	-0.081
-209.465	-18.902	0.448	-0.275
-208.450	-21.553	0.292	-0.176
-207.436	721.217	0.084	-0.220
-206.421	95.106	-0.230	0.259
-205.406	53.512	-0.173	0.164
-204.392	-200.000	-0.007	0.121
-203.377	-12.389	-0.085	0.055
-202.363	522.376	-0.079	-0.182
-201.348	120.558	0.117	-0.144
-200.333	-175.432	-0.093	-0.002
-199.319	-200.000	-0.010	-0.220
-198.304	-27.821	0.419	-0.240
-197.290	231.749	0.073	-0.119
-196.275	-4.902	-0.421	0.286
-195.260	283.303	0.073	-0.129
-194.246	120.952	-0.192	-0.236
-193.231	800.000	0.047	-0.144
-192.217	-200.000	0.002	-0.014
-191.202	30.037	0.337	-0.284
-190.187	2.822	0.130	0.093
-189.173	-47.453	-0.282	0.135
-188.158	59.701	0.254	0.247
-187.144	-150.236	-0.129	-0.010
-186.129	27.882	-0.277	0.231
-185.114	25.533	0.220	-0.181
-184.100	800.000	0.035	0.106
-183.085	484.824	0.099	-0.222
-182.071	46.378	0.159	-0.145
-181.056	-88.257	0.194	-0.057
-180.042	-200.000	-0.019	-0.096
-179.027	273.931	-0.077	-0.134
-178.012	-200.000	0.011	-0.124
-176.998	515.021	0.065	-0.149
-175.983	-0.084	-0.031	0.022
-174.969	800.000	0.141	0.465
-173.954	43.486	0.133	-0.120
-172.939	-170.253	0.249	-0.009
-171.925	-170.670	0.139	-0.005
-170.910	-132.228	0.462	0.059
-169.896	-200.000	-0.015	0.251
-168.881	44.073	0.166	0.150
-167.866	800.000	-0.062	0.185
-166.852	-139.246	0.158	-0.017
-165.837	-200.000	0.038	0.392
-164.823	45.974	0.156	0.143
-163.808	-200.000	-0.054	0.317
-162.793	185.158	-0.122	0.178
-161.779	-200.000	0.043	0.218
-160.764	-200.000	-0.046	0.418
-159.750	-189.960	0.118	-0.001
-158.735	-200.000	-0.013	-0.069
-157.720	-82.742	-0.309	0.098
-156.706	800.000	0.116	0.364
-155.691	-75.282	-0.176	-0.062
-154.677	454.147	-0.045	0.098
-153.662	366.152	-0.147	0.293
-152.647	76.106	0.272	0.283
-151.633	-45.553	0.085	0.041
-150.618	-200.000	0.052	0.317
-149.604	-200.000	-0.025	0.179
-148.589	343.456	-0.102	-0.198
-147.574	-125.841	0.254	0.038
-146.560	800.000	0.091	-0.283
-145.545	-200.000	0.007	0.069
-144.531	-45.654	-0.016	0.008
-143.516	-22.510	-0.222	0.133
-142.502	-23.514	-0.215	0.127
-141.487	-38.761	0.273	0.142
-140.472	66.972	0.318	-0.319
-139.458	-200.000	-0.029	-0.139
-138.443	-200.000	0.018	0.139
-137.429	-200.000	-0.004	-0.078
-136.414	198.269	0.185	0.278
-135.399	-130.922	-0.376	0.050
-134.385	382.579	0.069	-0.139
-133.370	-51.244	-0.190	0.088
-132.356	685.395	-0.045	-0.116
-131.341	284.246	-0.100	-0.177
-130.326	-112.061	0.092	0.018
-129.312	340.897	0.154	-0.297
-128.297	217.293	-0.113	0.177
-127.283	-200.000	-0.004	-0.085
-126.268	8.177	-0.315	-0.233
-125.253	-200.000	0.017	0.099
-124.239	-14.188	0.156	0.099
-123.224	-137.837	-0.155	0.017
-122.210	-200.000	-0.031	0.253
-121.195	167.754	0.166	0.232
-120.180	800.000	0.101	0.311
-119.166	-169.183	-0.086	0.003
-118.151	99.762	0.247	0.281
-117.137	800.000	0.026	-0.072
-116.122	-200.000	-0.011	-0.066
-115.107	-23.704	0.246	0.145
-114.093	-200.000	0.017	0.137
-113.078	30.700	0.143	-0.120
-112.064	-30.184	0.178	0.100
-111.049	-2.805	-0.100	-0.069
-110.034	226.879	0.127	0.202
-109.020	-200.000	-0.002	0.349
-108.005	-200.000	0.017	0.158
-106.991	-90.260	0.107	-0.031
-105.976	-132.092	-0.204	0.026
-104.962	414.108	-0.184	0.385
-103.947	100.421	0.141	0.161
-102.932	379.384	-0.050	-0.100
-101.918	-200.000	0.018	0.182
-100.903	-200.000	-0.063	-0.299
-99.889	-178.559	0.142	0.003
-98.874	-200.000	-0.040	-0.416
-97.859	-108.273	0.049	0.010
-96.845	-200.000	-0.069	-0.539
-95.830	800.000	0.061	0.204
-94.816	-200.000	0.048	-0.221
-93.801	5.093	-0.130	-0.094
-92.786	-200.000	-0.020	0.401
-91.772	-200.000	0.009	0.103
-90.757	-119.435	0.098	-0.017
-89.743	-200.000	-0.105	-0.522
-88.728	84.867	0.077	-0.082
-87.713	1.927	-0.156	0.110
-86.699	146.447	-0.109	-0.144
-85.684	5.078	0.089	0.065
-84.670	-200.000	-0.014	0.194
-83.655	62.413	0.171	0.168
-82.640	-15.522	0.193	0.121
-81.626	-22.773	-0.201	-0.119
-80.611	800.000	0.029	0.122
-79.597	-44.999	0.181	-0.088
-78.582	310.388	-0.123	-0.226
-77.567	211.990	0.165	0.256
-76.553	254.160	0.079	-0.133
-75.538	-200.000	-0.005	-0.373
-74.524	14.063	0.132	-0.101
-73.509	-200.000	-0.029	0.341
-72.494	309.197	-0.005	-0.008
-71.480	56.008	-0.207	0.198
-70.465	-200.000	-0.017	0.251
-69.451	-145.884	0.384	0.033
-68.436	-187.912	0.037	0.000
-67.422	-121.041	0.120	0.020
-66.407	-137.634	-0.158	-0.017
-65.392	-200.000	0.039	0.495
-64.378	-111.587	0.308	0.061
-63.363	483.177	0.137	-0.305
-62.349	-200.000	0.051	0.287
-61.334	-72.749	-1.177	-0.426
-60.319	-200.000	0.058	0.551
-59.305	-200.000	-0.009	-1.371
-58.290	102.486	0.918	1.054
-57.276	800.000	0.560	1.744
-56.261	-200.000	107.509	579.749
-55.246	434.831	1492.173	3184.736
-54.232	145.155	2679.608	3519.780
-53.217	103.128	2189.901	2519.473
-52.203	38.879	1717.873	1506.361
-51.188	31.851	1532.452	1295.371
-50.173	29.589	1506.397	1257.914
-49.159	49.956	1562.741	1446.943
-48.144	50.034	1578.458	1461.984
-47.130	32.103	1534.641	1298.755
-46.115	29.147	1520.026	1266.054
-45.100	28.867	1516.661	1261.279
-44.086	28.954	1514.418	1259.961
-43.071	28.784	1512.719	1257.334
-42.057	28.820	1511.002	1256.101
-41.042	28.843	1509.464	1254.928
-40.027	28.770	1507.963	1253.136
-39.013	28.838	1506.464	1252.300
-37.998	28.766	1505.184	1250.700
-36.984	28.720	1504.385	1249.674
-35.969	28.820	1502.735	1248.934
-34.954	28.731	1501.465	1247.222
-33.940	28.762	1499.989	1246.155
-32.925	28.860	1498.127	1245.222
-31.911	28.822	1497.421	1244.332
-30.896	28.807	1496.079	1243.068
-29.881	28.934	1494.937	1242.927
-28.867	28.762	1493.976	1240.917
-27.852	28.752	1492.247	1239.362
-26.838	28.879	1490.913	1239.059
-25.823	28.916	1489.576	1238.152
-24.809	28.889	1487.727	1236.381
-23.794	28.859	1486.596	1235.190
-22.779	28.878	1484.693	1233.686
-21.765	28.871	1483.987	1233.005
-20.750	28.788	1483.169	1231.721
-19.736	28.929	1481.520	1231.244
-18.721	28.805	1481.014	1229.945
-17.706	28.799	1479.698	1228.767
-16.692	28.776	1478.231	1227.348
-15.677	28.899	1477.238	1227.292
-14.663	28.837	1476.588	1226.293
-13.648	28.748	1475.338	1224.611
-12.633	28.838	1474.512	1224.479
-11.619	28.845	1473.433	1223.575
-10.604	28.792	1472.505	1222.403
-9.590	28.801	1471.662	1221.719
-8.575	28.789	1470.751	1220.831
-7.560	28.795	1470.032	1220.229
-6.546	28.727	1469.089	1218.943
-5.531	28.817	1468.350	1218.883
-4.517	28.712	1467.389	1217.342
-3.502	28.766	1466.099	1216.575
-2.487	28.835	1464.748	1215.866
-1.473	28.756	1463.656	1214.389
-0.458	28.819	1462.893	1214.125
0.556	27.003	1453.605	1203.985
1.571	24.464	1428.239	1166.304
2.586	21.423	1366.134	1096.451
3.600	20.073	1283.431	1022.030
4.615	18.852	1238.230	978.993
5.629	16.259	1181.334	919.811
6.644	8.057	1095.327	811.172
7.659	1.294	1055.348	748.242
8.673	0.353	1049.449	739.379
9.688	0.154	1046.234	736.077
10.702	-0.019	1045.009	734.302
11.717	0.063	1042.772	733.067
12.731	2.498	1045.447	746.766
13.746	10.466	1056.382	793.652
14.761	16.541	1063.314	828.642
15.775	17.179	1063.423	831.777
16.790	16.448	1061.435	826.577
17.804	15.377	1059.226	819.555
18.819	14.360	1057.710	813.346
19.834	13.977	1056.330	810.347
20.848	13.762	1054.812	808.065
21.863	13.573	1053.911	806.379
22.877	13.332	1053.563	804.870
23.892	13.143	1052.524	803.088
24.907	13.054	1051.613	801.887
25.921	12.922	1051.228	800.880
26.936	13.110	1050.063	800.838
27.950	13.022	1049.888	800.206
28.965	13.124	1049.090	800.019
29.980	13.141	1047.803	799.049
30.994	13.213	1047.131	798.813
32.009	13.319	1046.250	798.582
33.023	13.273	1046.078	798.160
34.038	13.353	1044.643	797.382
35.053	13.283	1043.694	796.251
36.067	13.374	1042.815	795.943
37.082	13.141	1042.002	794.134
38.096	13.204	1041.958	794.331
39.111	13.210	1040.858	793.453
40.126	13.255	1040.140	793.050
41.140	13.266	1038.622	791.876
42.155	13.176	1037.697	790.672
43.169	13.084	1037.174	789.764
44.184	13.120	1036.078	789.028
45.199	13.099	1034.735	787.839
46.213	12.897	1034.172	786.375
47.228	13.077	1032.930	786.217
48.242	13.213	1031.775	785.918
49.257	13.092	1031.626	785.159
50.271	13.220	1030.088	784.526
51.286	13.145	1029.079	783.334
52.301	13.175	1028.419	782.901
53.315	13.311	1027.524	782.794
54.330	13.083	1026.848	781.135
55.344	13.167	1026.009	780.826
56.359	13.058	1025.146	779.583
57.374	13.139	1024.068	779.075
58.388	12.978	1023.770	778.022
59.403	13.114	1022.821	777.870
60.417	13.073	1021.674	776.736
61.432	13.003	1021.078	775.886
62.447	12.906	1020.473	774.901
63.461	12.893	1019.624	774.127
64.476	13.022	1018.511	773.821
65.490	12.861	1017.746	772.416
66.505	13.060	1016.407	772.264
67.520	13.043	1015.714	771.588
68.534	12.903	1015.292	770.543
69.549	12.968	1014.479	770.162
70.563	13.069	1013.598	769.896
71.578	12.914	1013.399	768.956
72.593	12.945	1011.970	767.948
73.607	12.904	1010.962	766.922
74.622	12.858	1010.536	766.320
75.636	12.860	1009.723	765.644
76.651	12.837	1008.756	764.738
77.666	12.751	1008.370	763.975
78.680	12.838	1007.378	763.563
79.695	12.940	1006.522	763.315
80.709	12.991	1006.297	763.314
81.724	13.049	1004.918	762.469
82.739	12.961	1004.606	761.759
83.753	12.957	1004.129	761.309
84.768	12.996	1003.191	760.714
85.782	13.073	1002.122	760.188
86.797	13.166	1001.805	760.311
87.812	13.093	1001.006	759.298
88.826	13.157	999.528	758.406
89.841	13.190	998.859	757.983
90.855	13.117	998.179	757.065
91.870	13.113	997.784	756.681
92.884	13.208	996.798	756.299
93.899	13.195	996.314	755.806
94.914	13.236	995.321	755.173
95.928	13.253	994.453	754.524
96.943	13.272	994.355	754.473
97.957	13.297	992.905	753.420
98.972	13.161	992.400	752.349
99.987	13.184	991.443	751.663
101.001	13.217	990.993	751.402
102.016	13.325	989.887	750.989
103.030	13.231	988.735	749.624
104.045	13.241	987.503	748.665
105.060	13.258	987.091	748.364
106.074	13.138	985.777	746.761
107.089	13.108	985.234	746.145
108.103	13.006	984.948	745.403
109.118	13.031	983.662	744.478
110.133	13.081	982.587	743.824
111.147	13.032	982.118	743.180
112.162	13.099	981.040	742.603
113.176	13.141	979.903	741.865
114.191	13.090	979.414	741.197
115.206	13.051	978.661	740.388
116.220	13.233	977.690	740.405
117.235	13.159	976.775	739.316
118.249	13.095	976.172	738.506
119.264	13.121	975.030	737.695
120.279	13.052	974.348	736.804
121.293	13.032	973.614	736.095
122.308	13.112	972.374	735.448
123.322	13.118	971.780	734.962
124.337	13.142	970.442	733.993
125.352	13.037	969.303	732.599
126.366	13.030	968.637	732.001
127.381	13.096	967.410	731.302
128.395	12.964	966.775	730.170
129.410	13.123	965.542	729.877
130.424	13.096	964.788	729.125
131.439	13.128	964.093	728.675
132.454	13.172	962.927	727.923
133.468	13.196	962.472	727.620
134.483	13.117	961.348	726.359
135.497	13.223	960.975	726.481
136.512	13.097	960.056	725.166
137.527	13.175	959.424	724.966
138.541	13.244	958.324	724.376
139.556	13.083	958.121	723.451
140.570	13.199	956.932	722.999
141.585	13.190	956.254	722.379
142.600	13.261	955.689	722.202
143.614	13.182	954.764	721.095
144.629	13.248	954.367	721.020
145.643	13.422	953.066	720.727
146.658	13.298	952.592	719.766
147.673	13.280	951.448	718.762
148.687	13.292	950.907	718.338
149.702	13.352	949.635	717.577
150.716	13.169	949.058	716.283
151.731	13.043	948.504	715.254
152.746	13.225	947.109	714.926
153.760	13.325	946.306	714.692
154.775	13.168	946.187	713.858
155.789	13.300	945.233	713.648
156.804	13.332	944.644	713.275
157.819	13.207	943.679	711.946
158.833	13.358	943.290	712.239
159.848	13.317	942.714	711.566
160.862	13.399	942.124	711.411
161.877	13.396	940.972	710.462
162.892	13.407	940.108	709.798
163.906	13.286	939.891	709.050
164.921	13.273	938.789	708.099
165.935	13.347	937.704	707.535
166.950	13.242	936.982	706.478
167.964	13.589	935.497	706.777
168.979	13.376	934.914	705.368
169.994	13.383	934.092	704.716
171.008	13.402	933.250	704.096
172.023	13.300	932.342	702.916
173.037	13.414	931.966	703.056
174.052	13.572	930.958	702.904
175.067	13.456	930.402	701.931
176.081	13.479	929.509	701.291
177.096	13.391	929.210	700.632
178.110	13.332	928.013	699.417
179.125	13.387	927.150	698.938
180.140	13.485	926.430	698.745
181.154	13.568	925.338	698.212
182.169	13.603	924.975	698.023
183.183	13.539	924.300	697.181
184.198	13.563	923.621	696.711
185.213	13.627	923.034	696.474
186.227	13.815	922.391	696.717
187.242	13.612	922.044	695.540
188.256	13.693	921.232	695.206
189.271	13.742	920.275	694.629
190.286	13.766	919.651	694.194
191.300	13.778	918.727	693.488
192.315	13.500	918.359	691.985
193.329	13.501	917.566	691.332
194.344	13.433	916.732	690.360
195.359	13.396	916.555	690.011
196.373	13.530	915.836	689.964
197.388	13.643	915.181	689.879
198.402	13.830	914.580	690.145
199.417	13.660	914.345	689.200
200.432	13.848	913.852	689.549
201.446	13.875	913.564	689.381
202.461	14.005	912.862	689.331
203.475	13.908	912.474	688.575
204.490	13.851	912.350	688.182
205.504	13.843	910.784	686.907
206.519	13.869	910.314	686.601
207.534	13.780	909.576	685.617
208.548	13.819	908.384	684.819
209.563	13.869	907.557	684.340
210.577	13.854	907.097	683.870
211.592	13.948	906.520	683.762
212.607	13.914	906.135	683.270
213.621	13.966	905.519	682.960
214.636	14.088	904.806	682.861
215.650	14.050	904.118	682.126
216.665	14.124	903.140	681.633
217.680	14.041	902.731	680.921
218.694	14.137	902.258	680.898
219.709	14.008	902.267	680.317
220.723	14.105	901.297	679.922
221.738	14.088	900.544	679.223
222.753	14.035	899.804	678.391
223.767	14.225	898.934	678.450
224.782	14.266	897.902	677.775
225.796	14.149	897.639	677.042
226.811	14.312	896.480	676.771
227.826	14.215	896.110	676.037
228.840	14.251	895.379	675.572
229.855	14.179	894.858	674.827
230.869	14.167	894.067	674.121
231.884	14.204	893.775	673.994
232.899	14.127	893.429	673.361
233.913	14.153	892.201	672.482
234.928	14.062	891.400	671.451
235.942	14.182	890.847	671.457
236.957	14.306	889.707	671.037
237.972	14.219	889.310	670.329
238.986	14.072	889.042	669.476
240.001	14.329	888.226	669.835
241.015	14.193	887.451	668.645
242.030	14.375	886.547	668.635
243.045	14.327	886.037	667.998
244.059	14.271	885.775	667.518
245.074	14.268	885.211	667.023
246.088	14.287	884.388	666.420
247.103	14.342	883.439	665.864
248.117	14.354	883.275	665.732
249.132	14.457	882.744	665.683
250.147	14.582	882.053	665.604
251.161	14.632	881.323	665.193
252.176	14.564	880.785	664.456
253.190	14.674	879.617	663.951
254.205	14.619	879.697	663.738
255.220	14.732	878.950	663.562
256.234	14.685	878.117	662.690
257.249	14.743	877.461	662.367
258.263	14.824	876.952	662.242
259.278	14.773	876.597	661.713
260.293	14.705	876.023	660.955
261.307	14.834	875.265	660.833
262.322	14.892	874.913	660.737
263.336	14.865	874.169	660.013
264.351	14.833	873.715	659.484
265.366	14.864	873.081	659.068
266.380	14.941	872.220	658.664
267.395	14.953	871.053	657.772
268.409	14.869	870.616	657.054
269.424	14.989	870.044	657.036
270.439	14.966	869.341	656.356
271.453	14.844	868.702	655.336
272.468	14.934	867.985	655.092
273.482	14.770	867.402	653.950
274.497	14.869	867.152	654.091
275.512	14.992	866.155	653.765
276.526	14.976	865.093	652.840
277.541	14.964	864.613	652.374
278.555	15.080	863.906	652.235
279.570	15.118	863.327	651.886
280.585	15.096	863.150	651.610
281.599	14.982	862.764	650.819
282.614	15.042	862.314	650.654
283.628	15.213	861.172	650.400
284.643	15.013	860.913	649.371
285.657	15.043	860.716	649.281
286.672	15.064	859.900	648.689
287.687	15.108	859.388	648.415
288.701	15.144	858.882	648.114
289.716	15.077	858.557	647.552
290.730	15.088	857.958	647.087
291.745	15.121	857.257	646.630
292.760	15.263	856.173	646.300
293.774	15.210	855.582	645.594
294.789	15.207	855.359	645.356
295.803	15.331	854.832	645.381
296.818	15.212	853.966	644.210
297.833	15.227	853.447	643.821
298.847	15.329	852.523	643.456
299.862	15.198	852.141	642.611
300.876	15.304	851.274	642.304
301.891	15.394	851.009	642.393
302.906	15.370	850.252	641.671
303.920	15.470	849.322	641.298
304.935	15.442	849.028	640.909
305.949	15.621	848.244	640.945
306.964	15.569	847.621	640.221
307.979	15.729	846.631	640.025
308.993	15.455	846.686	638.964
310.008	15.482	846.222	638.662
311.022	15.500	845.634	638.229
312.037	15.531	845.033	637.836
313.052	15.535	844.668	637.520
314.066	15.466	843.932	636.647
315.081	15.398	843.243	635.812
316.095	15.509	842.531	635.640
317.110	15.432	842.236	635.070
318.125	15.353	841.761	634.358
319.139	15.619	840.854	634.621
320.154	15.527	840.542	633.985
321.168	15.552	839.841	633.492
322.183	15.538	839.563	633.174
323.197	15.613	838.768	632.803
324.212	15.646	838.291	632.510
325.227	15.709	837.716	632.258
326.241	15.540	837.291	631.245
327.256	15.595	836.652	630.914
328.270	15.609	836.491	630.791
329.285	15.606	835.518	629.990
330.300	15.694	835.094	629.943
331.314	15.759	834.503	629.685
332.329	15.706	833.705	628.829
333.343	15.727	833.070	628.373
334.358	15.665	833.103	628.110
335.373	15.801	832.146	627.840
336.387	15.885	831.454	627.575
337.402	15.696	831.593	626.922
338.416	15.862	830.571	626.712
339.431	15.962	829.822	626.462
340.446	15.948	829.646	626.225
341.460	15.990	828.834	625.713
342.475	16.105	827.848	625.337
343.489	15.984	827.615	624.657
344.504	16.098	827.396	624.858
345.519	16.133	826.615	624.346
346.533	16.135	826.141	623.940
347.548	16.175	825.506	623.551
348.562	16.153	825.031	623.057
349.577	15.976	824.837	622.201
350.592	16.035	823.711	621.514
351.606	15.936	823.602	621.012
352.621	15.973	823.397	620.939
353.635	16.103	822.481	620.672
354.650	16.057	822.535	620.488
355.665	16.152	821.646	620.114
356.679	16.204	821.202	619.913
357.694	16.199	821.164	619.813
358.708	16.223	820.274	619.172
359.723	16.211	819.559	618.536
360.738	16.232	819.044	618.168
361.752	16.195	818.764	617.768
362.767	16.112	818.177	616.964
363.781	16.247	818.119	617.363
364.796	16.346	817.457	617.168
365.810	16.310	817.136	616.739
366.825	16.421	816.846	616.873
367.840	16.510	816.258	616.696
368.854	16.282	816.032	615.640
369.869	16.359	815.400	615.391
370.883	16.449	814.800	615.209
371.898	16.438	814.113	614.598
372.913	16.494	813.359	614.177
373.927	16.642	812.609	614.094
374.942	16.502	812.190	613.215
375.956	16.542	811.629	612.883
376.971	16.518	811.386	612.556
377.986	16.670	810.713	612.547
379.000	16.561	810.327	611.804
380.015	16.621	809.618	611.432
381.029	16.716	809.288	611.471
382.044	16.666	808.395	610.564
383.059	16.805	808.164	610.836
384.073	16.620	807.714	609.775
385.088	16.605	806.865	609.025
386.102	16.586	806.471	608.606
387.117	16.555	805.956	608.054
388.132	16.673	805.177	607.834
389.146	16.685	804.873	607.594
390.161	16.763	804.625	607.634
391.175	16.752	804.163	607.190
392.190	16.757	803.798	606.881
393.205	16.627	803.429	606.081
394.219	16.734	803.093	606.159
395.234	16.664	802.749	605.594
396.248	16.601	802.028	604.770
397.263	16.720	801.459	604.714
398.278	16.794	801.031	604.601
399.292	16.807	800.230	603.988
400.307	16.729	799.843	603.367
401.321	16.672	799.514	602.862
402.336	16.824	799.052	603.002
403.350	16.806	798.792	602.687
404.365	16.910	798.629	602.880
405.380	17.114	797.755	602.893
406.394	16.999	797.213	602.023
407.409	16.837	797.241	601.415
408.423	17.106	796.373	601.659
409.438	17.055	795.908	601.073
410.453	17.022	795.633	600.695
411.467	17.085	795.206	600.542
412.482	17.102	794.554	600.058
413.496	17.101	794.500	599.961
414.511	17.230	793.901	599.910
415.526	17.211	793.577	599.546
416.540	17.207	792.982	599.031
417.555	17.167	792.808	598.705
418.569	17.097	792.487	598.163
419.584	17.194	791.743	597.888
420.599	17.200	791.236	597.473
421.613	109.414	1291.262	1471.965
422.628	93.935	1364.075	1472.070
