DTS Sentinel unit serial number:	SN413079Multiplexer serial number:	ORYXHardware model number:	OX4-SRSoftware version number:	ORYX F/W v4.00 Oryx Data Collector v3.7.2.0data status	okinstallation	princeton_trtdifferential loss correction	single-endedforward channel	channel 3reverse channel	N/Adate	2019/09/13time	20:56:34forward acquisition time	60.00reverse acquisition time	0.00gamma	496.2192k internal	0.2333k external	0.2333temperature offset calibration	1.0050default loss term (dB/km)	0.3790temperature slope calibration	1.0000multiplexer offset coefficient	1.0000multiplexer slope coefficient	1.0000fibre end	0.00T internal ref (°C)	28.69T ext. ref 1 (°C)	3.04T ext. ref 2 (°C)	23.40length (m)	temperature (°C)	Stokes	anti-Stokes-747.200	-200.000	-0.006	0.124
-746.185	-200.000	-0.011	-0.099
-745.171	80.455	0.097	-0.105
-744.156	-200.000	-0.026	0.285
-743.142	-148.613	-0.165	0.014
-742.127	-200.000	0.006	0.284
-741.112	-33.933	-0.261	-0.145
-740.098	62.978	0.048	-0.048
-739.083	-138.794	-0.125	-0.014
-738.069	35.616	0.083	0.074
-737.054	-98.235	-0.110	-0.028
-736.039	-200.000	-0.001	-0.316
-735.025	-122.098	0.156	-0.026
-734.010	-13.802	0.257	0.167
-732.996	357.658	-0.117	-0.235
-731.981	800.000	-0.029	-0.100
-730.966	-31.993	-0.011	0.006
-729.952	-37.436	0.169	-0.090
-728.937	-107.387	-0.199	-0.044
-727.923	-48.406	0.098	-0.047
-726.908	-157.418	-0.328	-0.020
-725.894	-51.990	-0.043	0.020
-724.879	86.666	0.260	0.288
-723.864	69.526	-0.096	-0.100
-722.850	-200.000	-0.013	-0.221
-721.835	391.062	0.110	0.229
-720.821	110.067	-0.158	-0.191
-719.806	58.124	0.293	-0.288
-718.791	11.786	-0.357	-0.275
-717.777	-117.036	-0.211	0.039
-716.762	9.224	0.253	0.192
-715.748	104.987	-0.231	-0.274
-714.733	-200.000	-0.055	0.243
-713.718	-87.144	-0.292	-0.089
-712.704	-83.408	-0.162	-0.052
-711.689	167.198	0.091	0.130
-710.675	-148.767	-0.191	-0.016
-709.660	-200.000	-0.013	-0.120
-708.645	115.904	0.077	-0.094
-707.631	-200.000	0.050	-0.440
-706.616	73.474	-0.096	-0.101
-705.602	800.000	0.056	-0.239
-704.587	4.860	-0.060	-0.044
-703.572	-59.845	-0.267	-0.115
-702.558	86.928	-0.078	-0.086
-701.543	113.819	-0.096	0.117
-700.529	603.461	0.083	-0.206
-699.514	47.472	0.219	0.205
-698.499	58.441	-0.171	0.168
-697.485	-170.837	0.280	0.010
-696.470	139.346	0.232	-0.306
-695.456	106.287	-0.154	-0.183
-694.441	76.704	-0.286	-0.305
-693.426	-43.432	0.209	-0.106
-692.412	-69.594	-0.218	-0.084
-691.397	-200.000	0.000	0.346
-690.383	800.000	0.067	0.226
-689.368	-200.000	0.045	0.270
-688.354	27.537	-0.035	-0.030
-687.339	-123.329	-0.222	-0.036
-686.324	-180.583	0.185	-0.004
-685.310	-88.388	0.222	-0.067
-684.295	257.918	-0.102	0.175
-683.281	-40.272	0.163	0.085
-682.266	-92.691	-0.353	-0.099
-681.251	39.243	0.139	0.125
-680.237	-108.718	-0.323	-0.069
-679.222	-200.000	0.073	-0.337
-678.208	-200.000	-0.028	-0.163
-677.193	-57.616	-0.189	0.083
-676.178	800.000	-0.088	0.268
-675.164	-3.843	0.074	-0.052
-674.149	34.772	-0.439	-0.385
-673.135	800.000	-0.034	-0.114
-672.120	10.866	0.253	0.194
-671.105	-62.299	-0.171	-0.072
-670.091	-133.636	0.245	0.031
-669.076	-25.233	0.290	-0.172
-668.062	-122.881	-0.125	-0.020
-667.047	-133.558	0.169	-0.021
-666.032	110.634	0.104	-0.125
-665.018	24.357	-0.100	0.083
-664.003	759.991	-0.074	0.202
-662.989	-200.000	0.003	0.049
-661.974	-80.910	-0.185	-0.062
-660.959	-116.674	-0.073	-0.013
-659.945	81.913	0.117	0.127
-658.930	800.000	0.060	-0.224
-657.916	0.179	-0.046	-0.033
-656.901	332.911	-0.053	-0.103
-655.886	-160.454	-0.103	0.006
-654.872	-147.090	-0.296	0.025
-653.857	-200.000	-0.016	-0.239
-652.843	-87.704	0.389	-0.118
-651.828	196.544	-0.027	-0.041
-650.814	238.380	-0.063	0.105
-649.799	800.000	0.066	-0.190
-648.784	-28.148	0.145	0.084
-647.770	177.648	0.158	0.230
-646.755	171.765	-0.032	0.047
-645.741	-44.435	-0.209	0.105
-644.726	-200.000	0.063	-0.318
-643.711	-48.750	0.182	-0.088
-642.697	-104.478	-0.219	-0.051
-641.682	-107.412	0.112	-0.025
-640.668	326.128	-0.116	0.222
-639.653	-102.267	-0.179	-0.043
-638.638	233.933	0.172	-0.283
-637.624	-200.000	-0.045	-0.308
-636.609	103.786	-0.131	-0.154
-635.595	-140.265	0.323	0.034
-634.580	-18.549	-0.253	0.158
-633.565	-34.522	0.242	0.133
-632.551	-74.650	-0.125	0.045
-631.536	524.061	0.143	0.337
-630.522	-13.411	-0.140	0.091
-629.507	-200.000	0.109	0.000
-628.492	11.704	0.166	0.127
-627.478	108.521	-0.153	0.183
-626.463	-200.000	-0.018	-0.128
-625.449	-124.110	-0.318	-0.050
-624.434	-38.926	0.162	0.085
-623.419	800.000	-0.013	0.041
-622.405	-200.000	-0.064	0.332
-621.390	-76.687	-0.201	0.071
-620.376	800.000	-0.038	0.121
-619.361	-23.130	-0.326	0.196
-618.346	93.317	-0.110	0.124
-617.332	-200.000	-0.019	0.137
-616.317	-46.253	0.171	-0.084
-615.303	239.746	0.032	0.054
-614.288	-131.178	0.160	0.021
-613.273	150.790	-0.069	0.095
-612.259	-103.355	0.523	0.123
-611.244	169.614	-0.125	-0.179
-610.230	-117.882	-0.116	-0.021
-609.215	271.225	-0.088	-0.155
-608.201	-200.000	0.012	-0.244
-607.186	339.332	0.175	0.341
-606.171	-46.109	-0.390	-0.192
-605.157	222.255	0.081	-0.130
-604.142	800.000	0.134	-0.412
-603.128	-26.353	-0.414	-0.243
-602.113	97.648	-0.019	-0.022
-601.098	800.000	-0.028	-0.099
-600.084	-40.477	-0.176	0.092
-599.069	663.108	0.045	0.117
-598.055	-83.227	-0.241	-0.077
-597.040	-125.825	0.135	-0.020
-596.025	161.174	-0.222	-0.310
-595.011	-200.000	0.023	0.152
-593.996	-80.601	0.403	0.134
-592.982	73.372	-0.397	0.415
-591.967	-149.052	-0.140	0.011
-590.952	-30.259	-0.270	-0.153
-589.938	-167.828	-0.170	0.007
-588.923	231.574	-0.061	-0.101
-587.909	517.873	0.085	-0.199
-586.894	-61.387	0.134	-0.056
-585.879	88.898	-0.111	0.123
-584.865	-2.810	0.333	0.232
-583.850	-200.000	-0.010	0.199
-582.836	68.568	0.168	-0.172
-581.821	153.205	-0.165	-0.226
-580.806	800.000	0.106	-0.363
-579.792	47.568	-0.111	0.104
-578.777	-200.000	-0.009	0.228
-577.763	800.000	-0.053	0.221
-576.748	800.000	0.116	-0.398
-575.733	602.756	0.120	0.299
-574.719	68.656	-0.137	-0.141
-573.704	-63.846	-0.174	-0.071
-572.690	-164.130	0.349	-0.016
-571.675	135.485	0.085	-0.111
-570.661	-200.000	-0.212	-0.001
-569.646	98.650	-0.195	0.224
-568.631	-68.269	-0.216	-0.084
-567.617	-200.000	-0.035	-0.231
-566.602	455.349	-0.007	-0.015
-565.588	450.521	0.051	-0.113
-564.573	800.000	-0.078	0.236
-563.558	427.687	0.064	0.137
-562.544	-200.000	0.078	0.399
-561.529	-38.588	0.217	0.114
-560.515	-12.691	-0.297	-0.193
-559.500	210.958	0.112	0.175
-558.485	605.370	0.020	0.050
-557.471	299.205	-0.162	-0.298
-556.456	-198.411	-0.252	-0.001
-555.442	-60.731	0.269	0.114
-554.427	-144.487	0.023	0.002
-553.412	-200.000	-0.020	-0.215
-552.398	-151.459	-0.176	-0.013
-551.383	174.272	-0.062	0.089
-550.369	-200.000	0.056	0.307
-549.354	800.000	-0.047	-0.167
-548.339	277.851	-0.146	0.260
-547.325	-200.000	-0.026	0.117
-546.310	-13.557	-0.268	0.173
-545.296	-45.192	-0.305	0.151
-544.281	96.845	-0.192	0.219
-543.266	-154.816	0.135	0.009
-542.252	757.932	-0.138	-0.374
-541.237	71.148	-0.257	0.266
-540.223	-85.518	0.097	0.030
-539.208	191.777	-0.200	0.301
-538.193	2.941	0.275	0.199
-537.179	115.056	0.100	-0.122
-536.164	-141.588	-0.169	-0.017
-535.150	-80.398	-0.103	-0.034
-534.135	414.570	-0.084	-0.179
-533.121	71.164	-0.089	-0.092
-532.106	-115.966	-0.129	-0.024
-531.091	-143.681	-0.246	-0.023
-530.077	20.330	0.245	-0.198
-529.062	9.462	0.250	0.189
-528.048	-200.000	0.008	-0.277
-527.033	73.225	-0.179	0.187
-526.018	371.597	0.049	-0.100
-525.004	-200.000	0.020	-0.258
-523.989	-99.589	-0.130	0.033
-522.975	800.000	-0.015	-0.059
-521.960	272.833	0.064	-0.112
-520.945	-200.000	-0.019	0.104
-519.931	-125.245	-0.217	-0.033
-518.916	188.843	-0.062	0.093
-517.902	-77.421	0.146	-0.051
-516.887	607.591	0.070	-0.173
-515.872	-63.074	-0.300	-0.123
-514.858	148.754	-0.124	-0.167
-513.843	380.268	0.093	0.191
-512.829	-134.257	0.116	0.014
-511.814	-134.732	-0.128	-0.016
-510.799	-200.000	0.019	-0.101
-509.785	24.450	-0.325	-0.268
-508.770	-9.262	0.222	0.148
-507.756	-83.518	-0.197	-0.063
-506.741	-149.663	-0.051	0.004
-505.726	93.236	0.135	0.153
-504.712	-156.204	0.693	0.043
-503.697	-200.000	0.021	0.167
-502.683	800.000	0.071	-0.210
-501.668	379.768	0.064	-0.131
-500.653	-36.849	0.353	0.189
-499.639	-68.015	-0.087	-0.034
-498.624	575.919	-0.087	-0.211
-497.610	800.000	0.047	-0.204
-496.595	210.113	-0.144	0.225
-495.581	-76.429	0.326	-0.114
-494.566	-20.807	-0.088	0.054
-493.551	106.861	-0.087	-0.103
-492.537	-57.497	-0.163	0.071
-491.522	55.293	0.067	-0.065
-490.508	-200.000	-0.078	-0.535
-489.493	-151.565	0.554	0.041
-488.478	50.058	-0.102	-0.096
-487.464	71.001	-0.221	-0.228
-486.449	-200.000	-0.030	-0.168
-485.435	3.763	0.155	-0.112
-484.420	-25.158	0.417	-0.246
-483.405	-23.827	-0.206	-0.123
-482.391	800.000	0.040	-0.153
-481.376	8.722	-0.264	0.198
-480.362	272.720	-0.070	-0.123
-479.347	-200.000	-0.020	0.264
-478.332	412.081	0.059	0.126
-477.318	-145.425	0.139	-0.012
-476.303	141.684	-0.039	0.051
-475.289	-200.000	-0.017	0.305
-474.274	800.000	-0.084	0.322
-473.259	272.927	0.208	0.365
-472.245	-70.064	0.202	0.077
-471.230	410.326	-0.063	-0.133
-470.216	21.728	0.201	0.163
-469.201	800.000	0.014	-0.058
-468.186	800.000	-0.077	-0.220
-467.172	800.000	0.086	-0.259
-466.157	251.070	0.141	-0.239
-465.143	12.329	0.146	-0.112
-464.128	-155.583	-0.104	-0.007
-463.113	186.302	-0.142	-0.211
-462.099	-33.935	-0.200	-0.110
-461.084	-155.891	-0.137	0.009
-460.070	-170.198	-0.202	-0.007
-459.055	-200.000	-0.008	-0.253
-458.040	-64.925	0.233	0.094
-457.026	-164.888	0.381	0.017
-456.011	10.008	0.308	0.233
-454.997	-200.000	-0.025	0.224
-453.982	-71.196	0.136	0.051
-452.968	-62.660	0.185	0.076
-451.953	800.000	-0.118	0.431
-450.938	800.000	0.181	-0.561
-449.924	26.312	0.155	-0.129
-448.909	472.254	-0.082	-0.184
-447.895	-4.749	-0.121	0.083
-446.880	-74.463	-0.115	0.041
-445.865	-45.144	-0.204	0.101
-444.851	316.562	0.148	0.279
-443.836	-107.837	0.328	0.071
-442.822	-46.585	0.209	0.102
-441.807	-101.470	0.259	0.063
-440.792	-200.000	0.050	0.270
-439.778	97.530	0.149	0.170
-438.763	26.196	-0.195	-0.162
-437.749	36.806	-0.326	-0.286
-436.734	-107.118	-0.125	-0.027
-435.719	120.791	0.105	0.129
-434.705	188.919	0.289	-0.430
-433.690	504.098	0.064	-0.148
-432.676	672.275	-0.070	-0.181
-431.661	-11.470	-0.132	0.086
-430.646	-200.000	0.017	-0.121
-429.632	99.026	-0.159	-0.182
-428.617	373.489	-0.095	0.191
-427.603	800.000	-0.050	0.139
-426.588	-85.115	-0.256	-0.080
-425.573	-38.079	-0.022	0.011
-424.559	80.272	0.111	-0.118
-423.544	-200.000	-0.050	-0.260
-422.530	-30.707	0.141	0.079
-421.515	325.237	-0.052	-0.099
-420.500	-200.000	-0.004	0.062
-419.486	-200.000	-0.008	0.166
-418.471	-200.000	0.032	-0.158
-417.457	138.537	0.128	0.167
-416.442	1.587	0.147	-0.105
-415.428	468.644	0.033	0.073
-414.413	515.861	0.020	-0.047
-413.398	-200.000	0.005	-0.086
-412.384	568.307	-0.101	-0.245
-411.369	-139.821	-0.104	0.011
-410.355	113.335	0.207	0.250
-409.340	630.015	-0.051	-0.129
-408.325	-200.000	0.002	-0.352
-407.311	-166.922	-0.353	-0.014
-406.296	91.988	0.268	0.299
-405.282	-21.797	-0.127	-0.077
-404.267	169.562	0.185	-0.262
-403.252	6.419	-0.009	-0.007
-402.238	-149.108	-0.094	0.007
-401.223	-200.000	0.011	0.184
-400.209	-99.008	0.172	-0.043
-399.194	-66.456	0.619	0.244
-398.179	800.000	-0.048	0.173
-397.165	-25.567	-0.064	-0.037
-396.150	-118.915	-0.505	0.088
-395.136	-27.244	0.231	0.133
-394.121	-19.161	-0.244	0.150
-393.106	587.982	0.069	0.169
-392.092	-200.000	-0.025	-0.123
-391.077	-126.842	-0.115	0.017
-390.063	-22.208	0.151	0.091
-389.048	-200.000	-0.003	0.181
-388.033	-93.295	0.248	-0.068
-387.019	-34.393	0.439	-0.239
-386.004	-11.748	0.166	-0.108
-384.990	-200.000	-0.056	-0.245
-383.975	-48.724	-0.081	-0.039
-382.960	-126.906	-0.057	0.008
-381.946	-81.669	0.211	0.069
-380.931	30.140	0.127	0.107
-379.917	-26.516	0.146	-0.085
-378.902	391.775	0.056	0.116
-377.888	-108.877	-0.276	-0.058
-376.873	57.171	0.224	-0.217
-375.858	-156.577	0.242	0.015
-374.844	-135.652	-0.267	0.031
-373.829	46.125	0.209	-0.192
-372.815	281.370	-0.148	0.264
-371.800	800.000	0.010	-0.029
-370.785	557.031	-0.100	-0.238
-369.771	24.819	-0.212	0.174
-368.756	-200.000	-0.016	0.150
-367.742	327.698	0.122	-0.232
-366.727	-200.000	0.027	0.279
-365.712	-200.000	-0.058	0.254
-364.698	-200.000	0.031	-0.268
-363.683	395.735	0.101	-0.208
-362.669	800.000	0.084	-0.289
-361.654	204.616	0.134	-0.207
-360.639	-103.451	0.172	0.040
-359.625	-172.340	-0.200	-0.006
-358.610	-200.000	-0.031	-0.232
-357.596	-43.459	-0.171	-0.086
-356.581	800.000	0.049	-0.142
-355.566	90.750	-0.239	-0.265
-354.552	-200.000	-0.054	-0.380
-353.537	-127.141	0.200	-0.029
-352.523	-67.464	0.243	-0.095
-351.508	189.681	0.069	0.103
-350.493	-197.883	0.197	-0.001
-349.479	374.771	-0.073	-0.147
-348.464	46.743	-0.150	0.138
-347.450	144.271	-0.094	0.125
-346.435	50.284	-0.159	0.149
-345.420	-70.802	0.193	-0.072
-344.406	-54.378	0.203	0.091
-343.391	-32.711	-0.196	0.108
-342.377	-12.106	-0.136	-0.088
-341.362	-72.314	-0.234	0.086
-340.348	606.851	0.084	0.209
-339.333	-48.465	-0.085	0.041
-338.318	-128.138	-0.128	0.018
-337.304	800.000	0.102	0.301
-336.289	136.892	0.141	-0.183
-335.275	800.000	-0.088	0.298
-334.260	225.223	-0.125	0.200
-333.245	-153.542	-0.120	0.008
-332.231	-200.000	0.011	0.143
-331.216	286.751	0.092	0.164
-330.202	-8.195	-0.137	-0.091
-329.187	41.146	-0.234	0.209
-328.172	-200.000	0.004	-0.177
-327.158	296.536	-0.077	-0.140
-326.143	-200.000	0.056	0.438
-325.129	-135.830	-0.359	-0.042
-324.114	800.000	-0.051	-0.199
-323.099	111.748	-0.125	-0.150
-322.085	41.084	0.220	-0.196
-321.070	-171.593	-0.133	0.004
-320.056	-25.067	0.174	-0.102
-319.041	299.151	-0.199	-0.363
-318.026	3.415	-0.074	-0.054
-317.012	184.769	-0.130	0.191
-315.997	1.486	-0.153	0.109
-314.983	-200.000	0.041	0.252
-313.968	354.956	-0.034	-0.067
-312.953	-22.186	-0.094	0.056
-311.939	-200.000	-0.003	-0.122
-310.924	167.340	0.058	-0.082
-309.910	-38.532	0.034	0.018
-308.895	-81.849	0.127	0.041
-307.880	311.665	-0.195	0.361
-306.866	-200.000	-0.007	0.101
-305.851	-125.183	0.061	-0.009
-304.837	-200.000	0.009	0.159
-303.822	230.222	0.032	-0.052
-302.807	-200.000	0.063	-0.313
-301.793	-87.609	0.172	-0.051
-300.778	-200.000	-0.052	0.242
-299.764	-44.233	-0.143	-0.071
-298.749	-71.486	-0.151	-0.056
-297.735	358.693	-0.101	0.200
-296.720	-103.827	0.230	-0.053
-295.705	11.180	-0.164	-0.124
-294.691	103.914	-0.095	-0.110
-293.676	800.000	-0.052	-0.207
-292.662	-22.050	0.074	0.045
-291.647	205.663	-0.089	-0.137
-290.632	-15.063	-0.259	0.164
-289.618	-139.410	0.018	-0.002
-288.603	-200.000	-0.032	0.216
-287.589	212.528	-0.163	-0.254
-286.574	-137.270	0.225	0.025
-285.559	594.232	0.145	0.355
-284.545	-68.588	0.206	0.079
-283.530	-65.782	-0.471	-0.186
-282.516	-112.802	-0.163	-0.032
-281.501	-200.000	-0.021	-0.170
-280.486	-147.456	-0.270	0.023
-279.472	-149.451	-0.129	0.010
-278.457	800.000	0.064	-0.178
-277.443	-3.917	-0.132	-0.090
-276.428	-200.000	-0.032	-0.240
-275.413	-200.000	-0.027	0.173
-274.399	-200.000	0.041	0.308
-273.384	800.000	0.046	0.186
-272.370	-118.792	0.167	-0.029
-271.355	686.265	0.080	0.207
-270.340	-17.717	0.067	-0.042
-269.326	800.000	-0.065	-0.189
-268.311	-140.776	-0.093	-0.009
-267.297	800.000	-0.072	-0.201
-266.282	-85.017	0.290	0.090
-265.267	-73.250	-0.241	-0.087
-264.253	-17.529	-0.190	-0.118
-263.238	-122.611	0.237	0.038
-262.224	328.285	0.045	0.084
-261.209	-21.283	-0.240	-0.144
-260.195	800.000	0.059	-0.221
-259.180	166.857	0.124	0.174
-258.165	600.551	0.184	0.450
-257.151	-200.000	0.043	0.279
-256.136	358.115	0.104	-0.204
-255.122	-98.304	-0.171	0.043
-254.107	-200.000	0.014	0.498
-253.092	-200.000	-0.020	0.168
-252.078	51.067	0.268	-0.251
-251.063	-153.493	0.169	-0.012
-250.049	7.704	0.292	0.216
-249.034	58.366	0.118	-0.114
-248.019	-200.000	-0.011	0.099
-247.005	-98.606	0.331	0.083
-245.990	-99.663	-0.168	-0.042
-244.976	217.351	0.242	0.381
-243.961	658.556	-0.049	-0.125
-242.946	-164.486	0.241	0.011
-241.932	23.580	0.257	0.208
-240.917	233.318	0.114	0.185
-239.903	800.000	-0.033	-0.109
-238.888	800.000	-0.072	-0.299
-237.873	-200.000	0.014	0.079
-236.859	-52.937	-0.148	0.067
-235.844	800.000	-0.053	0.228
-234.830	-200.000	0.016	-0.339
-233.815	-200.000	-0.048	-0.313
-232.800	611.671	0.078	0.191
-231.786	-177.438	-0.118	0.003
-230.771	342.286	0.017	0.033
-229.757	-79.395	0.117	0.039
-228.742	42.050	-0.296	-0.265
-227.727	-64.978	-0.227	0.091
-226.713	-135.589	0.466	-0.055
-225.698	104.596	-0.149	-0.172
-224.684	-30.353	0.262	-0.147
-223.669	-155.371	0.206	-0.013
-222.655	-200.000	-0.385	-0.001
-221.640	800.000	-0.045	0.174
-220.625	800.000	0.064	0.183
-219.611	-135.987	-0.138	-0.016
-218.596	800.000	-0.071	-0.244
-217.582	76.812	0.126	0.132
-216.567	97.869	0.103	0.117
-215.552	800.000	-0.009	-0.033
-214.538	-69.812	0.307	0.116
-213.523	128.026	0.101	-0.127
-212.509	563.151	0.107	-0.255
-211.494	-200.000	-0.190	0.000
-210.479	125.060	-0.223	-0.277
-209.465	-200.000	-0.017	0.218
-208.450	-200.000	0.047	0.203
-207.436	-83.076	-0.020	-0.006
-206.421	800.000	0.031	0.097
-205.406	-28.922	0.363	0.205
-204.392	-155.708	-0.339	0.021
-203.377	-113.432	0.111	0.021
-202.363	-171.493	0.040	-0.001
-201.348	6.776	-0.257	-0.188
-200.333	581.811	-0.056	0.136
-199.319	374.857	-0.080	0.161
-198.304	714.360	-0.094	-0.246
-197.290	800.000	0.059	-0.177
-196.275	-200.000	-0.005	-0.147
-195.260	800.000	-0.015	0.046
-194.246	-200.000	0.004	0.248
-193.231	19.297	0.330	-0.261
-192.217	-87.819	-0.215	-0.064
-191.202	716.745	-0.121	0.317
-190.187	17.362	-0.255	0.199
-189.173	-126.728	-0.068	-0.010
-188.158	-111.113	0.366	0.074
-187.144	-126.037	-0.352	-0.052
-186.129	-101.971	0.214	-0.051
-185.114	201.299	0.101	0.153
-184.100	-64.814	-0.430	-0.171
-183.085	63.493	0.078	-0.077
-182.071	-67.236	-0.353	0.137
-181.056	-45.338	-0.163	0.080
-180.042	11.658	0.163	0.123
-179.027	-43.648	-0.130	0.065
-178.012	421.667	-0.040	0.084
-176.998	-200.000	0.029	-0.154
-175.983	511.978	0.041	-0.094
-174.969	-109.259	-0.255	0.053
-173.954	33.377	-0.069	0.059
-172.939	-29.267	0.383	-0.216
-171.925	194.720	-0.093	-0.139
-170.910	400.361	0.102	-0.210
-169.896	-200.000	-0.003	-0.185
-168.881	55.849	0.232	-0.221
-167.866	-31.610	0.293	0.162
-166.852	-28.870	0.198	0.112
-165.837	304.888	-0.228	0.416
-164.823	181.231	0.145	0.209
-163.808	-198.380	0.082	0.000
-162.793	-200.000	0.038	0.165
-161.779	-87.597	-0.144	-0.043
-160.764	-108.808	0.348	0.073
-159.750	45.099	0.127	-0.115
-158.735	-170.039	0.221	0.008
-157.720	-200.000	-0.051	0.334
-156.706	800.000	-0.059	-0.231
-155.691	-109.663	0.224	-0.046
-154.677	50.122	0.062	0.057
-153.662	140.833	0.096	-0.125
-152.647	-200.000	0.019	0.348
-151.633	401.336	0.064	-0.133
-150.618	292.246	0.212	0.380
-149.604	631.605	0.148	0.368
-148.589	206.273	0.028	-0.043
-147.574	96.438	0.263	-0.295
-146.560	800.000	0.077	0.245
-145.545	-25.208	0.257	-0.149
-144.531	800.000	0.168	0.520
-143.516	1.936	-0.060	0.042
-142.502	-79.069	0.184	-0.061
-141.487	-10.522	-0.271	0.176
-140.472	149.917	-0.351	0.467
-139.458	-94.274	0.127	-0.034
-138.443	-115.970	-0.185	0.034
-137.429	-52.417	0.188	0.085
-136.414	-11.611	-0.242	0.156
-135.399	-142.010	0.094	-0.009
-134.385	-200.000	-0.004	-0.023
-133.370	-65.026	0.255	0.101
-132.356	-127.198	0.104	-0.015
-131.341	14.163	0.175	0.133
-130.326	90.029	-0.176	-0.193
-129.312	-183.552	-0.131	-0.002
-128.297	-200.000	-0.024	0.121
-127.283	680.870	0.119	-0.303
-126.268	359.868	-0.047	-0.093
-125.253	800.000	0.149	0.434
-124.239	1.283	-0.163	0.115
-123.224	-25.719	0.206	-0.119
-122.210	-65.926	-0.037	-0.014
-121.195	-65.180	-0.197	0.078
-120.180	-144.792	-0.297	0.027
-119.166	-200.000	0.008	0.043
-118.151	-156.978	0.157	-0.009
-117.137	-117.353	0.206	-0.037
-116.122	362.017	-0.073	-0.143
-115.107	171.912	0.094	0.132
-114.093	129.330	0.136	0.170
-113.078	167.267	0.007	-0.010
-112.064	89.453	-0.104	0.113
-111.049	-200.000	-0.013	0.083
-110.034	148.738	-0.090	0.119
-109.020	-156.568	0.185	-0.011
-108.005	-104.289	-0.075	-0.017
-106.991	-80.165	0.237	-0.078
-105.976	33.705	-0.218	0.186
-104.962	380.654	-0.044	0.089
-103.947	-26.301	-0.098	-0.056
-102.932	-133.460	0.308	-0.038
-101.918	49.888	-0.153	0.141
-100.903	-47.147	-0.208	0.099
-99.889	7.412	0.208	0.153
-98.874	-171.607	0.352	-0.011
-97.859	-67.717	-0.142	0.055
-96.845	260.808	-0.147	0.249
-95.830	-4.816	-0.331	0.224
-94.816	-200.000	0.008	0.354
-93.801	800.000	0.041	-0.122
-92.786	-83.520	-0.163	-0.051
-91.772	-200.000	0.016	-0.084
-90.757	66.171	0.056	-0.056
-89.743	29.227	0.304	-0.253
-88.728	164.251	0.124	0.172
-87.713	20.679	0.146	0.116
-86.699	-200.000	-0.019	0.172
-85.684	-172.393	-0.220	0.007
-84.670	109.926	0.215	0.253
-83.655	-58.707	-0.088	0.038
-82.640	775.415	0.103	0.275
-81.626	-9.446	-0.166	0.109
-80.611	-117.276	-0.228	-0.041
-79.597	-66.205	-0.294	0.115
-78.582	-200.000	0.013	0.127
-77.567	800.000	0.057	0.174
-76.553	-24.120	0.064	0.037
-75.538	-6.423	0.185	0.123
-74.524	55.077	0.127	0.120
-73.509	157.608	-0.222	-0.301
-72.494	-96.670	0.428	-0.110
-71.480	-70.790	-0.079	-0.029
-70.465	698.821	-0.035	-0.089
-69.451	-200.000	0.037	0.190
-68.436	-122.002	-0.134	0.022
-67.422	-200.000	0.061	0.299
-66.407	-181.299	0.407	0.008
-65.392	-89.631	0.319	-0.092
-64.378	129.212	0.292	-0.366
-63.363	-200.000	-0.016	-0.106
-62.349	-18.990	-0.082	0.050
-61.334	38.250	-0.846	-0.737
-60.319	62.639	0.480	0.470
-59.305	377.343	-0.591	-1.182
-58.290	374.594	0.561	1.120
-57.276	287.375	0.653	1.155
-56.261	-200.000	112.439	658.461
-55.246	541.686	1519.253	3544.454
-54.232	177.850	2692.209	3842.807
-53.217	112.245	2171.439	2569.973
-52.203	39.305	1700.347	1489.930
-51.188	31.975	1518.402	1280.644
-50.173	29.534	1493.404	1243.102
-49.159	52.492	1551.560	1449.688
-48.144	52.364	1567.353	1463.511
-47.130	31.991	1523.372	1284.744
-46.115	28.959	1508.526	1251.574
-45.100	28.779	1504.585	1247.032
-44.086	28.661	1503.158	1245.002
-43.071	28.707	1500.746	1243.264
-42.057	28.740	1499.052	1242.037
-41.042	28.720	1497.588	1240.641
-40.027	28.630	1496.163	1238.805
-39.013	28.665	1494.542	1237.649
-37.998	28.552	1493.502	1235.975
-36.984	28.691	1492.414	1235.963
-35.969	28.629	1491.426	1234.678
-34.954	28.689	1489.731	1233.628
-33.940	28.778	1488.323	1233.014
-32.925	28.751	1486.774	1231.497
-31.911	28.662	1485.920	1230.146
-30.896	28.734	1484.304	1229.239
-29.881	28.712	1483.252	1228.175
-28.867	28.714	1482.134	1227.213
-27.852	28.710	1480.690	1225.944
-26.838	28.719	1479.255	1224.763
-25.823	28.665	1477.942	1223.270
-24.809	28.753	1476.237	1222.392
-23.794	28.710	1475.141	1221.156
-22.779	28.744	1473.522	1219.991
-21.765	28.683	1473.135	1219.220
-20.750	28.817	1471.511	1218.712
-19.736	28.688	1470.896	1217.301
-18.721	28.574	1469.824	1215.606
-17.706	28.648	1468.642	1215.070
-16.692	28.742	1466.762	1214.088
-15.677	28.630	1466.447	1213.040
-14.663	28.674	1464.977	1212.069
-13.648	28.719	1464.000	1211.508
-12.633	28.745	1462.987	1210.797
-11.619	28.673	1462.629	1209.973
-10.604	28.632	1461.762	1208.943
-9.590	28.644	1460.880	1208.241
-8.575	28.769	1459.586	1207.945
-7.560	28.717	1458.609	1206.750
-6.546	28.656	1457.883	1205.700
-5.531	28.711	1456.639	1204.979
-4.517	28.598	1456.112	1203.755
-3.502	28.676	1455.352	1203.595
-2.487	28.616	1454.076	1202.097
-1.473	28.683	1453.115	1201.689
-0.458	28.564	1452.395	1200.271
0.556	28.793	1441.891	1188.956
1.571	25.542	1415.856	1146.686
2.586	21.823	1353.882	1073.674
3.600	20.011	1270.309	996.886
4.615	18.860	1225.183	954.995
5.629	16.087	1169.547	896.818
6.644	9.191	1087.861	799.877
7.659	3.883	1049.899	746.335
8.673	3.094	1045.095	739.067
9.688	3.014	1041.799	736.286
10.702	2.989	1040.065	734.874
11.717	3.053	1038.181	733.784
12.731	4.979	1039.285	743.696
13.746	11.922	1049.371	784.191
14.761	18.295	1057.939	821.193
15.775	19.773	1058.525	828.663
16.790	19.252	1057.511	825.301
17.804	18.187	1055.556	818.611
18.819	17.401	1053.351	813.070
19.834	17.065	1051.635	810.071
20.848	16.934	1050.913	808.819
21.863	16.841	1050.495	807.985
22.877	16.504	1050.062	805.971
23.892	16.318	1048.678	803.952
24.907	16.239	1048.238	803.171
25.921	16.254	1047.461	802.575
26.936	16.401	1046.483	802.452
27.950	16.258	1045.662	801.075
28.965	16.218	1044.696	800.073
29.980	16.485	1043.332	800.220
30.994	16.395	1042.841	799.349
32.009	16.645	1041.643	799.542
33.023	16.683	1040.859	799.048
34.038	16.590	1040.193	798.025
35.053	16.545	1039.372	797.114
36.067	16.545	1037.747	795.796
37.082	16.318	1037.810	794.707
38.096	16.605	1036.543	795.014
39.111	16.518	1036.274	794.331
40.126	16.508	1035.209	793.396
41.140	16.478	1033.786	792.096
42.155	16.273	1032.858	790.354
43.169	16.103	1031.849	788.719
44.184	16.164	1030.270	787.724
45.199	16.076	1029.518	786.671
46.213	15.995	1028.538	785.472
47.228	16.175	1027.899	785.753
48.242	16.353	1026.835	785.700
49.257	16.466	1026.096	785.588
50.271	16.389	1025.105	784.406
51.286	16.412	1024.214	783.761
52.301	16.631	1023.118	783.866
53.315	16.450	1022.800	782.714
54.330	16.446	1021.730	781.810
55.344	16.220	1021.158	780.258
56.359	16.220	1020.115	779.393
57.374	16.081	1019.561	778.256
58.388	16.181	1018.017	777.468
59.403	16.053	1017.507	776.424
60.417	15.925	1016.885	775.289
61.432	16.010	1015.925	774.881
62.447	16.132	1014.595	774.360
63.461	15.938	1014.112	773.032
64.476	15.808	1013.662	772.023
65.490	15.842	1012.628	771.321
66.505	15.805	1011.544	770.258
67.520	15.806	1011.195	769.932
68.534	16.022	1009.356	769.449
69.549	16.058	1008.860	769.164
70.563	15.874	1008.609	768.066
71.578	15.945	1007.498	767.476
72.593	15.770	1006.904	766.161
73.607	15.733	1005.848	765.122
74.622	15.850	1004.828	764.806
75.636	15.814	1004.067	763.999
76.651	15.830	1002.961	763.159
77.666	15.785	1002.613	762.623
78.680	15.827	1001.465	761.876
79.695	15.905	1001.019	761.820
80.709	15.929	1000.805	761.699
81.724	16.010	1000.053	761.426
82.739	16.132	999.356	761.379
83.753	16.079	998.721	760.588
84.768	16.162	998.020	760.360
85.782	16.391	997.326	760.797
86.797	16.596	996.901	761.329
87.812	16.620	995.928	760.623
88.826	16.413	995.226	759.093
89.841	16.435	993.959	758.157
90.855	16.648	992.727	758.104
91.870	16.595	992.270	757.452
92.884	16.702	991.933	757.605
93.899	16.587	991.481	756.678
94.914	16.502	990.667	755.610
95.928	16.703	989.844	755.812
96.943	16.632	988.877	754.690
97.957	16.577	988.283	753.925
98.972	16.492	987.474	752.866
99.987	16.547	986.898	752.603
101.001	16.487	986.430	751.911
102.016	16.547	985.624	751.497
103.030	16.598	984.007	750.424
104.045	16.569	982.975	749.446
105.060	16.504	982.274	748.554
106.074	16.348	981.660	747.331
107.089	16.378	980.024	746.152
108.103	15.982	979.451	743.902
109.118	15.890	978.777	742.916
110.133	15.961	977.561	742.243
111.147	15.917	976.624	741.268
112.162	15.886	975.776	740.425
113.176	15.928	974.846	739.839
114.191	15.905	974.486	739.398
115.206	16.158	973.255	739.510
116.220	16.099	972.540	738.642
117.235	16.091	971.615	737.840
118.249	16.172	970.411	737.212
119.264	16.085	969.782	736.288
120.279	15.983	968.809	735.040
121.293	15.900	968.310	734.237
122.308	15.947	967.718	733.927
123.322	15.924	966.401	732.761
124.337	15.769	965.555	731.381
125.352	15.744	964.425	730.353
126.366	15.808	963.442	729.823
127.381	15.808	962.546	729.077
128.395	15.800	961.098	727.883
129.410	15.882	960.526	727.740
130.424	15.789	959.852	726.764
131.439	15.978	958.537	726.519
132.454	15.938	958.151	725.989
133.468	16.075	957.374	725.924
134.483	16.117	956.957	725.728
135.497	16.122	955.966	724.933
136.512	16.092	955.190	724.150
137.527	16.160	954.614	723.944
138.541	16.057	954.012	722.980
139.556	16.094	953.497	722.682
140.570	16.076	952.679	721.921
141.585	16.318	951.447	721.958
142.600	16.513	951.161	722.511
143.614	16.506	950.397	721.836
144.629	16.669	949.254	721.601
145.643	16.530	949.204	720.908
146.658	16.481	948.337	719.976
147.673	16.544	947.015	719.178
148.687	16.151	946.372	716.955
149.702	16.172	945.301	716.169
150.716	16.194	944.226	715.385
151.731	16.045	943.379	714.047
152.746	16.048	942.967	713.687
153.760	16.194	942.078	713.569
154.775	16.164	941.635	713.042
155.789	16.386	940.420	712.997
156.804	16.432	939.866	712.708
157.819	16.546	938.668	712.217
158.833	16.527	938.538	711.975
159.848	16.574	937.863	711.596
160.862	16.675	937.326	711.552
161.877	16.581	936.657	710.586
162.892	16.224	935.639	708.250
163.906	16.200	934.501	707.227
164.921	16.207	933.523	706.452
165.935	16.249	932.549	705.829
166.950	16.285	931.765	705.324
167.964	16.451	930.746	705.181
168.979	16.377	930.042	704.279
169.994	16.347	928.982	703.290
171.008	16.124	928.089	701.621
172.023	16.262	927.686	701.830
173.037	16.283	926.951	701.298
174.052	16.686	925.596	701.882
175.067	16.579	925.023	700.945
176.081	16.495	924.279	699.969
177.096	16.099	923.390	697.596
178.110	16.250	922.456	697.453
179.125	16.316	921.423	696.883
180.140	16.362	920.857	696.583
181.154	16.368	920.542	696.307
182.169	16.422	920.185	696.200
183.183	16.547	919.495	696.127
184.198	16.679	918.828	696.107
185.213	16.615	918.002	695.154
186.227	16.636	917.405	694.727
187.242	16.704	916.918	694.577
188.256	16.711	916.395	694.148
189.271	16.749	915.605	693.642
190.286	16.857	914.977	693.548
191.300	16.635	914.220	692.006
192.315	16.261	913.318	689.734
193.329	16.151	912.116	688.317
194.344	16.195	911.667	688.094
195.359	16.270	910.988	687.828
196.373	16.440	910.827	688.340
197.388	16.392	910.515	687.847
198.402	16.823	909.594	688.843
199.417	16.881	909.421	688.883
200.432	17.010	908.781	688.863
201.446	16.901	909.220	688.692
202.461	16.970	908.950	688.707
203.475	17.189	907.773	688.642
204.490	17.150	906.786	687.674
205.504	16.901	906.006	686.013
206.519	16.815	905.037	684.872
207.534	16.689	904.358	683.791
208.548	16.727	903.820	683.474
209.563	16.743	903.262	683.058
210.577	16.697	902.408	682.166
211.592	16.764	901.802	681.918
212.607	16.883	901.517	682.120
213.621	16.953	901.015	681.961
214.636	16.988	900.206	681.431
215.650	17.094	899.337	681.139
216.665	17.070	898.980	680.709
217.680	17.131	898.554	680.573
218.694	17.246	897.743	680.358
219.709	17.167	897.523	679.814
220.723	17.111	897.015	679.147
221.738	16.966	896.409	678.047
222.753	17.123	895.331	677.800
223.767	17.068	894.877	677.174
224.782	17.208	893.812	676.868
225.796	17.318	893.287	676.849
226.811	17.302	892.705	676.282
227.826	17.288	892.015	675.646
228.840	17.138	891.250	674.411
229.855	17.160	890.088	673.560
230.869	17.064	889.659	672.795
231.884	16.956	889.563	672.235
232.899	17.187	888.211	672.068
233.913	16.865	887.806	670.426
234.928	16.959	887.016	670.144
235.942	16.903	886.325	669.342
236.957	16.817	885.476	668.300
237.972	16.936	884.967	668.325
238.986	17.017	884.369	668.135
240.001	16.866	883.793	667.045
241.015	17.074	882.727	666.999
242.030	17.005	882.375	666.404
243.045	17.108	881.737	666.266
244.059	17.149	881.497	666.186
245.074	17.189	880.743	665.714
246.088	17.166	880.003	665.008
247.103	17.407	878.977	665.114
248.117	17.378	879.054	665.001
249.132	17.547	878.509	665.192
250.147	17.644	878.142	665.232
251.161	17.890	877.648	665.757
252.176	17.756	877.004	664.691
253.190	17.902	876.145	664.549
254.205	18.006	875.885	664.697
255.220	17.905	875.260	663.773
256.234	17.851	874.384	662.839
257.249	17.970	873.470	662.550
258.263	17.826	873.421	661.893
259.278	17.815	873.030	661.497
260.293	17.887	872.198	661.086
261.307	18.085	871.412	661.198
262.322	18.038	871.471	661.004
263.336	18.141	870.569	660.656
264.351	18.113	870.034	660.083
265.366	18.185	869.006	659.524
266.380	18.231	868.776	659.468
267.395	18.050	868.395	658.425
268.409	18.013	867.161	657.286
269.424	17.953	866.847	656.763
270.439	17.877	866.162	655.893
271.453	17.930	865.281	655.371
272.468	17.977	864.295	654.746
273.482	17.995	863.547	654.191
274.497	17.879	863.354	653.543
275.512	17.901	862.125	652.638
276.526	17.902	861.733	652.289
277.541	17.794	861.036	651.291
278.555	17.981	860.399	651.462
279.570	18.157	859.733	651.573
280.585	18.217	859.129	651.286
281.599	18.220	859.214	651.302
282.614	18.134	858.557	650.422
283.628	18.067	857.769	649.510
284.643	18.107	857.105	649.104
285.657	18.066	856.933	648.758
286.672	18.047	856.130	648.022
287.687	18.179	855.530	648.010
288.701	18.179	855.267	647.756
289.716	18.121	854.570	646.949
290.730	18.109	854.566	646.845
291.745	18.138	853.608	646.170
292.760	18.173	852.504	645.410
293.774	18.273	851.660	645.091
294.789	18.356	851.808	645.457
295.803	18.407	850.978	644.965
296.818	18.068	850.495	643.265
297.833	18.115	849.766	642.834
298.847	18.187	849.058	642.513
299.862	18.249	848.480	642.250
300.876	18.142	847.544	641.086
301.891	18.318	847.156	641.395
302.906	18.310	847.000	641.189
303.920	18.464	846.029	640.972
304.935	18.622	845.718	641.270
305.949	18.760	844.694	640.952
306.964	18.553	844.629	640.075
307.979	18.510	843.572	639.057
308.993	18.362	843.503	638.397
310.008	18.711	842.807	639.111
311.022	18.487	842.538	638.017
312.037	18.567	841.735	637.653
313.052	18.467	841.411	636.976
314.066	18.426	840.515	636.092
315.081	18.168	839.680	634.446
316.095	18.415	839.069	634.845
317.110	18.182	838.766	633.695
318.125	18.381	837.786	633.637
319.139	18.389	837.528	633.413
320.154	18.442	836.856	633.043
321.168	18.303	836.601	632.284
322.183	18.308	836.320	632.032
323.197	18.341	835.938	631.810
324.212	18.568	835.151	631.996
325.227	18.455	834.552	631.069
326.241	18.366	834.322	630.511
327.256	18.400	833.508	629.968
328.270	18.370	833.176	629.549
329.285	18.411	832.188	628.897
330.300	18.404	831.491	628.290
331.314	18.248	831.590	627.736
332.329	18.438	830.675	627.688
333.343	18.684	829.428	627.590
334.358	18.722	829.248	627.536
335.373	18.615	828.837	626.779
336.387	18.679	828.341	626.582
337.402	18.628	827.966	626.056
338.416	18.840	826.917	625.980
339.431	18.926	826.831	626.173
340.446	18.889	826.362	625.627
341.460	18.964	826.042	625.603
342.475	18.959	825.371	625.020
343.489	19.182	824.979	625.478
344.504	19.189	824.209	624.864
345.519	19.114	823.729	624.175
346.533	19.400	823.205	624.758
347.548	19.216	822.808	623.736
348.562	19.093	821.869	622.523
349.577	18.812	821.658	621.294
350.592	18.756	821.377	620.824
351.606	18.809	820.577	620.354
352.621	18.869	819.752	619.891
353.635	18.706	819.989	619.430
354.650	18.887	819.355	619.548
355.665	18.896	818.773	619.083
356.679	18.869	818.199	618.499
357.694	19.026	818.251	619.048
358.708	19.099	817.066	618.360
359.723	19.216	816.280	618.131
360.738	19.201	815.991	617.804
361.752	18.971	815.879	616.837
362.767	19.049	815.357	616.670
363.781	19.182	815.057	616.864
364.796	19.346	814.861	617.249
365.810	19.373	814.476	616.997
366.825	19.551	813.729	617.013
367.840	19.450	814.162	616.926
368.854	19.357	813.474	616.019
369.869	19.311	812.838	615.318
370.883	19.304	812.111	614.686
371.898	19.231	811.484	613.899
372.913	19.390	810.957	614.012
373.927	19.551	810.308	614.038
374.942	19.451	809.666	613.142
375.956	19.441	809.003	612.551
376.971	19.614	808.211	612.512
377.986	19.461	808.355	612.022
379.000	19.635	807.711	612.099
380.015	19.818	807.029	612.174
381.029	19.621	806.500	611.023
382.044	19.741	805.727	610.806
383.059	19.646	805.521	610.260
384.073	19.803	804.778	610.200
385.088	19.823	804.191	609.768
386.102	19.504	803.570	608.121
387.117	19.407	802.815	607.155
388.132	19.401	802.476	606.824
389.146	19.469	802.068	606.702
390.161	19.478	801.863	606.521
391.175	19.649	801.574	606.850
392.190	19.690	801.222	606.675
393.205	19.494	800.981	605.751
394.219	19.582	799.929	605.211
395.234	19.513	799.514	604.600
396.248	19.393	799.350	604.005
397.263	19.343	798.560	603.179
398.278	19.384	797.772	602.674
399.292	19.348	797.328	602.158
400.307	19.369	797.098	602.004
401.321	19.316	796.751	601.503
402.336	19.414	796.271	601.429
403.350	19.446	796.221	601.451
404.365	19.630	795.468	601.470
405.380	19.659	795.568	601.593
406.394	19.648	795.231	601.247
407.409	19.930	794.358	601.514
408.423	19.929	794.098	601.260
409.438	20.021	793.398	600.994
410.453	20.053	793.265	600.951
411.467	20.081	792.891	600.715
412.482	20.060	792.258	600.109
413.496	20.242	791.628	600.206
414.511	20.191	791.456	599.848
415.526	20.155	791.227	599.498
416.540	20.164	790.960	599.271
417.555	20.083	790.294	598.435
418.569	20.086	789.753	597.983
419.584	20.178	789.226	597.849
420.599	20.059	788.966	597.188
421.613	160.495	1371.730	1796.010
422.628	138.905	1456.673	1796.079
