DTS Sentinel unit serial number:	SN413079Multiplexer serial number:	ORYXHardware model number:	OX4-SRSoftware version number:	ORYX F/W v4.00 Oryx Data Collector v3.7.2.0data status	okinstallation	princeton_trtdifferential loss correction	single-endedforward channel	channel 3reverse channel	N/Adate	2019/09/13time	15:24:34forward acquisition time	60.00reverse acquisition time	0.00gamma	496.2192k internal	0.2304k external	0.2304temperature offset calibration	1.0144default loss term (dB/km)	0.3790temperature slope calibration	1.0000multiplexer offset coefficient	1.0000multiplexer slope coefficient	1.0000fibre end	0.00T internal ref (°C)	35.28T ext. ref 1 (°C)	4.73T ext. ref 2 (°C)	29.34length (m)	temperature (°C)	Stokes	anti-Stokes-747.200	13.117	-0.058	0.046
-746.185	213.385	0.151	0.244
-745.171	-66.196	0.379	0.154
-744.156	-150.714	-0.069	0.005
-743.142	800.000	-0.055	-0.179
-742.127	587.259	-0.069	0.174
-741.112	722.689	0.097	0.264
-740.098	800.000	0.062	0.193
-739.083	292.585	0.021	0.039
-738.069	-200.000	-0.084	0.433
-737.054	-200.000	0.015	0.177
-736.039	-104.613	-0.281	0.066
-735.025	-200.000	0.071	-0.321
-734.010	-88.797	-0.542	-0.164
-732.996	-200.000	-0.010	-0.168
-731.981	800.000	-0.127	-0.545
-730.966	36.085	-0.277	0.248
-729.952	800.000	-0.093	-0.327
-728.937	681.651	-0.228	-0.605
-727.923	800.000	0.055	-0.186
-726.908	-74.004	-0.270	-0.100
-725.894	-47.398	-0.214	-0.106
-724.879	121.901	0.071	0.090
-723.864	598.186	-0.038	0.096
-722.850	-200.000	0.004	0.093
-721.835	-152.774	-0.398	0.029
-720.821	202.780	-0.104	0.163
-719.806	800.000	0.118	0.358
-718.791	-200.000	0.002	-0.152
-717.777	-96.986	-0.162	-0.043
-716.762	-114.815	-0.357	-0.069
-715.748	-40.542	-0.089	0.047
-714.733	28.757	0.377	0.325
-713.718	-89.466	-0.282	0.084
-712.704	-154.068	0.351	-0.024
-711.689	760.739	-0.057	-0.157
-710.675	-93.727	-0.316	0.089
-709.660	-92.714	0.339	0.097
-708.645	299.459	0.198	0.371
-707.631	-123.599	-0.130	-0.021
-706.616	800.000	-0.066	-0.207
-705.602	-116.215	-0.134	0.025
-704.587	-115.746	-0.210	0.040
-703.572	-2.421	-0.085	0.061
-702.558	800.000	-0.070	0.283
-701.543	-159.623	-0.119	0.007
-700.529	800.000	-0.079	-0.233
-699.514	-109.461	0.155	-0.033
-698.499	289.723	0.236	-0.435
-697.485	-122.709	0.024	0.004
-696.470	222.822	-0.194	0.317
-695.456	-200.000	-0.077	-0.386
-694.441	123.322	-0.142	0.181
-693.426	-200.000	0.007	-0.095
-692.412	-200.000	-0.033	-0.178
-691.397	-200.000	0.069	-0.544
-690.383	323.069	-0.084	-0.162
-689.368	639.103	0.077	0.199
-688.354	-182.154	-0.309	0.006
-687.339	225.454	0.151	-0.248
-686.324	232.167	-0.044	0.073
-685.310	-200.000	-0.009	0.140
-684.295	3.879	-0.160	-0.119
-683.281	800.000	-0.139	-0.454
-682.266	800.000	0.044	0.186
-681.251	-200.000	-0.005	-0.363
-680.237	486.619	-0.082	-0.190
-679.222	63.358	0.435	0.443
-678.208	-200.000	-0.017	0.145
-677.193	-4.223	-0.080	0.056
-676.178	-82.453	0.147	0.049
-675.164	-200.000	-0.016	-0.115
-674.149	-120.576	0.353	-0.061
-673.135	-18.090	0.108	-0.069
-672.120	-63.855	-0.346	-0.144
-671.105	69.465	-0.086	0.090
-670.091	235.422	0.143	-0.240
-669.076	-200.000	-0.002	0.238
-668.062	143.288	-0.063	0.085
-667.047	672.876	0.007	-0.019
-666.032	-34.567	-0.170	-0.094
-665.018	800.000	0.063	0.256
-664.003	441.558	-0.093	-0.206
-662.989	-200.000	-0.008	0.328
-661.974	0.034	0.148	0.107
-660.959	27.734	0.070	0.059
-659.945	-94.354	-0.090	0.025
-658.930	132.777	0.031	-0.041
-657.916	-160.690	-0.406	0.022
-656.901	139.479	-0.088	-0.117
-655.886	-200.000	0.018	-0.085
-654.872	-146.680	0.076	0.007
-653.857	179.505	-0.097	0.145
-652.843	-106.066	0.129	0.029
-651.828	26.695	-0.109	0.092
-650.814	-144.755	-0.239	0.022
-649.799	800.000	0.074	0.210
-648.784	-200.000	0.006	-0.133
-647.770	-104.184	-0.112	-0.026
-646.755	91.071	-0.202	0.229
-645.741	-54.818	-0.126	0.058
-644.726	-200.000	-0.085	0.450
-643.711	284.685	-0.156	-0.285
-642.697	-200.000	0.023	0.199
-641.682	-88.824	-0.378	0.114
-640.668	-53.351	0.089	0.041
-639.653	-49.162	0.391	0.190
-638.638	-200.000	0.011	-0.070
-637.624	-165.986	0.062	-0.003
-636.609	-200.000	0.022	0.172
-635.595	46.118	-0.285	-0.268
-634.580	-64.713	-0.418	-0.172
-633.565	-200.000	0.040	-0.316
-632.551	-115.945	0.327	-0.062
-631.536	-168.478	-0.370	0.014
-630.522	-200.000	-0.025	-0.149
-629.507	-104.804	0.072	-0.017
-628.492	-200.000	-0.030	0.166
-627.478	380.780	-0.096	-0.200
-626.463	-62.981	-0.403	-0.169
-625.449	15.040	-0.265	0.211
-624.434	148.051	-0.346	0.473
-623.419	288.274	-0.126	0.230
-622.405	120.104	-0.096	-0.121
-621.390	318.832	0.078	0.150
-620.376	158.376	-0.184	-0.258
-619.361	99.879	0.159	0.186
-618.346	-146.289	-0.269	0.024
-617.332	-200.000	0.068	-0.309
-616.317	-190.774	-0.042	0.000
-615.303	-88.834	-0.445	-0.134
-614.288	180.377	0.275	-0.409
-613.273	337.844	0.058	-0.115
-612.259	-200.000	0.007	-0.098
-611.244	-48.499	0.197	0.096
-610.230	-25.870	-0.140	-0.083
-609.215	800.000	-0.028	0.087
-608.201	509.101	-0.052	0.123
-607.186	450.315	0.049	-0.109
-606.171	-200.000	0.007	0.237
-605.157	-200.000	0.043	-0.274
-604.142	208.578	-0.142	-0.225
-603.128	-150.370	0.156	-0.012
-602.113	-149.597	-0.308	0.025
-601.098	-6.593	0.345	0.238
-600.084	154.793	-0.190	-0.264
-599.069	93.108	0.075	0.086
-598.055	-9.334	0.289	0.195
-597.040	800.000	0.079	0.230
-596.025	-1.876	0.179	-0.128
-595.011	-200.000	0.072	-0.556
-593.996	-171.733	-0.085	0.003
-592.982	-43.971	0.190	-0.097
-591.967	-9.831	0.182	0.122
-590.952	800.000	0.025	-0.075
-589.938	-67.898	0.215	-0.085
-588.923	-8.528	-0.213	-0.145
-587.909	-95.707	0.227	0.061
-586.894	-49.920	0.188	-0.090
-585.879	-138.013	0.275	0.031
-584.865	246.929	0.094	-0.161
-583.850	-200.000	0.001	0.145
-582.836	67.231	-0.184	-0.190
-581.821	-200.000	0.038	-0.169
-580.806	-77.101	0.146	0.052
-579.792	-123.611	0.438	0.070
-578.777	54.026	0.139	-0.136
-577.763	-200.000	-0.006	-0.038
-576.748	-75.372	-0.115	0.041
-575.733	-200.000	0.012	0.070
-574.719	-200.000	0.001	-0.149
-573.704	25.153	0.132	-0.111
-572.690	-200.000	-0.001	0.144
-571.675	800.000	0.080	0.225
-570.661	-200.000	0.010	-0.163
-569.646	9.453	-0.161	0.123
-568.631	-200.000	-0.050	-0.269
-567.617	246.928	0.085	-0.144
-566.602	86.215	-0.083	-0.092
-565.588	504.238	-0.067	-0.157
-564.573	-80.057	-0.175	0.059
-563.558	19.020	-0.226	-0.183
-562.544	110.129	0.170	0.206
-561.529	-138.380	-0.362	0.040
-560.515	800.000	0.103	0.364
-559.500	102.380	-0.173	-0.205
-558.485	-120.847	-0.118	-0.020
-557.471	-93.063	0.109	0.031
-556.456	119.989	-0.136	0.170
-555.442	-64.601	-0.172	-0.071
-554.427	-94.253	0.232	0.064
-553.412	800.000	-0.065	0.236
-552.398	-93.739	0.343	-0.096
-551.383	43.742	0.358	0.331
-550.369	-136.119	-0.392	0.046
-549.354	-114.052	-0.040	-0.008
-548.339	-119.750	0.203	-0.035
-547.325	-114.528	-0.254	0.049
-546.310	262.443	-0.072	-0.126
-545.296	-79.129	0.126	-0.043
-544.281	-134.816	0.075	-0.009
-543.266	800.000	0.082	-0.256
-542.252	571.704	0.176	-0.434
-541.237	-200.000	0.033	0.371
-540.223	-120.765	0.183	-0.031
-539.208	-105.367	-0.186	-0.043
-538.193	72.272	-0.259	0.272
-537.179	-25.038	0.223	0.133
-536.164	397.381	-0.213	-0.449
-535.150	27.709	-0.038	0.033
-534.135	-152.990	-0.225	0.016
-533.121	800.000	-0.061	0.264
-532.106	64.695	0.256	0.260
-531.091	132.856	0.098	0.128
-530.077	-137.156	-0.058	-0.007
-529.062	-111.191	0.228	-0.047
-528.048	-200.000	0.026	0.192
-527.033	-200.000	0.016	0.121
-526.018	523.150	-0.084	0.199
-525.004	-55.538	0.190	-0.086
-523.989	800.000	-0.065	-0.253
-522.975	-200.000	-0.027	-0.144
-521.960	800.000	-0.073	-0.320
-520.945	-117.128	-0.282	0.052
-519.931	365.961	-0.194	0.394
-518.916	28.346	0.237	-0.202
-517.902	-50.191	0.299	-0.143
-516.887	17.021	0.077	-0.062
-515.872	-174.680	0.227	0.006
-514.858	-200.000	0.024	-0.149
-513.843	475.184	0.166	0.379
-512.829	11.100	-0.079	0.061
-511.814	436.098	-0.077	-0.170
-510.799	-56.778	-0.305	0.136
-509.785	-107.819	0.308	-0.068
-508.770	800.000	-0.083	-0.253
-507.756	52.985	-0.199	-0.192
-506.741	288.301	-0.057	-0.104
-505.726	-64.754	0.117	0.048
-504.712	103.872	0.118	-0.140
-503.697	-109.546	-0.203	0.043
-502.683	-181.812	-0.207	0.004
-501.668	-59.113	0.168	-0.073
-500.653	90.452	0.298	-0.336
-499.639	527.063	-0.147	0.349
-498.624	800.000	-0.071	0.254
-497.610	-62.591	0.216	-0.090
-496.595	-124.968	-0.256	-0.040
-495.581	156.988	-0.043	0.060
-494.566	-171.560	-0.049	0.002
-493.551	-102.473	-0.191	-0.046
-492.537	-200.000	0.004	-0.108
-491.522	-99.687	-0.041	0.010
-490.508	800.000	0.099	-0.305
-489.493	-63.453	0.050	-0.021
-488.478	-35.299	-0.020	-0.011
-487.464	7.243	0.122	0.092
-486.449	453.971	-0.081	0.181
-485.435	52.773	-0.125	-0.120
-484.420	-16.204	0.260	-0.167
-483.405	25.365	0.140	-0.117
-482.391	-171.616	0.276	0.009
-481.376	800.000	0.044	-0.159
-480.362	-10.169	0.177	0.118
-479.347	-200.000	-0.014	-0.148
-478.332	-183.485	0.076	-0.001
-477.318	-82.899	-0.032	-0.010
-476.303	800.000	0.029	0.090
-475.289	-48.101	-0.215	-0.104
-474.274	-77.264	-0.061	0.022
-473.259	17.904	0.226	-0.181
-472.245	-200.000	0.032	-0.380
-471.230	86.202	0.141	-0.157
-470.216	122.856	0.098	0.123
-469.201	94.115	0.118	-0.134
-468.186	171.112	-0.055	0.079
-467.172	-40.718	0.026	0.013
-466.157	-55.078	-0.249	0.113
-465.143	800.000	-0.045	-0.138
-464.128	114.609	-0.076	-0.093
-463.113	173.673	0.191	-0.278
-462.099	-65.645	0.388	-0.156
-461.084	226.339	0.187	0.305
-460.070	195.748	-0.126	0.193
-459.055	-14.839	-0.194	0.125
-458.040	-134.324	0.249	0.031
-457.026	289.020	-0.101	0.184
-456.011	-200.000	-0.025	-0.115
-454.997	-115.989	-0.190	0.036
-453.982	-108.624	-0.229	0.050
-452.968	-67.959	0.099	-0.039
-451.953	-36.022	-0.093	-0.051
-450.938	164.389	-0.196	0.279
-449.924	85.265	0.292	0.323
-448.909	-74.202	-0.053	-0.019
-447.895	412.471	-0.090	-0.191
-446.880	800.000	0.012	-0.049
-445.865	19.484	-0.278	-0.225
-444.851	309.241	-0.037	-0.069
-443.836	800.000	0.009	0.028
-442.822	800.000	-0.019	-0.058
-441.807	-106.039	-0.070	-0.016
-440.792	-137.763	0.105	-0.012
-439.778	-200.000	0.038	-0.264
-438.763	87.804	-0.232	-0.258
-437.749	-18.215	0.029	-0.018
-436.734	299.316	0.143	0.265
-435.719	-134.677	-0.438	-0.054
-434.705	-103.352	-0.101	0.024
-433.690	-75.412	0.255	-0.091
-432.676	-69.389	0.309	-0.119
-431.661	-187.829	-0.249	0.003
-430.646	-104.177	0.289	0.068
-429.632	800.000	-0.050	0.214
-428.617	800.000	-0.057	-0.181
-427.603	93.709	0.070	-0.080
-426.588	136.045	0.198	-0.259
-425.573	-30.024	0.147	-0.084
-424.559	-166.602	-0.352	-0.015
-423.544	-11.274	0.197	-0.131
-422.530	-200.000	0.017	-0.166
-421.515	-151.253	-0.389	-0.029
-420.500	193.952	-0.124	-0.189
-419.486	-116.556	-0.098	0.018
-418.471	56.841	0.243	0.238
-417.457	-123.944	0.037	-0.006
-416.442	-96.438	0.142	-0.038
-415.428	532.429	0.050	0.118
-414.413	288.058	0.152	0.276
-413.398	64.755	-0.173	0.175
-412.384	-174.724	0.087	0.002
-411.369	-2.309	-0.055	0.039
-410.355	8.504	-0.205	-0.155
-409.340	161.340	-0.136	-0.190
-408.325	-200.000	-0.005	-0.240
-407.311	-194.464	0.240	-0.002
-406.296	-200.000	-0.012	0.463
-405.282	-200.000	0.003	-0.130
-404.267	-200.000	-0.018	0.142
-403.252	-17.617	-0.092	0.058
-402.238	-28.662	0.390	0.225
-401.223	-54.575	0.234	0.106
-400.209	-61.655	-0.408	0.172
-399.194	-78.192	-0.403	0.139
-398.179	800.000	-0.108	-0.381
-397.165	-200.000	0.026	-0.139
-396.150	74.380	-0.037	0.039
-395.136	174.814	0.089	-0.129
-394.121	-200.000	-0.028	0.141
-393.106	-200.000	-0.018	0.176
-392.092	-134.022	-0.029	-0.004
-391.077	800.000	0.109	-0.331
-390.063	98.189	0.085	-0.098
-389.048	-200.000	-0.013	-0.102
-388.033	-53.056	-0.188	0.087
-387.019	264.132	-0.085	-0.149
-386.004	618.072	-0.059	-0.150
-384.990	-4.352	0.110	-0.076
-383.975	137.793	-0.168	0.220
-382.960	-28.928	-0.148	0.086
-381.946	55.003	0.210	0.204
-380.931	221.125	0.278	0.448
-379.917	-159.687	-0.132	-0.007
-378.902	-116.902	0.109	0.020
-377.888	-200.000	0.093	0.506
-376.873	15.085	-0.122	0.096
-375.858	58.749	0.150	0.148
-374.844	-200.000	-0.125	0.000
-373.829	-184.510	-0.339	-0.006
-372.815	81.665	-0.082	-0.089
-371.800	-200.000	-0.150	0.000
-370.785	-44.131	0.263	-0.132
-369.771	236.305	-0.097	0.161
-368.756	68.020	0.189	0.194
-367.742	-88.004	0.241	0.072
-366.727	-200.000	-0.054	0.264
-365.712	197.357	-0.025	0.039
-364.698	643.740	0.103	-0.263
-363.683	800.000	-0.046	-0.134
-362.669	172.997	0.253	0.366
-361.654	800.000	-0.045	-0.156
-360.639	4.231	-0.118	-0.086
-359.625	-51.627	0.162	0.076
-358.610	386.908	0.071	0.148
-357.596	316.819	0.114	-0.216
-356.581	-200.000	-0.034	0.195
-355.566	800.000	-0.072	-0.253
-354.552	-11.689	0.027	-0.018
-353.537	-137.515	-0.189	-0.021
-352.523	-112.616	0.385	0.077
-351.508	-174.390	-0.181	-0.005
-350.493	800.000	0.131	0.370
-349.479	-15.430	-0.411	0.263
-348.464	-114.580	0.065	0.012
-347.450	44.368	0.026	-0.024
-346.435	8.606	-0.178	-0.134
-345.420	-60.011	0.341	0.146
-344.406	-96.161	0.346	0.092
-343.391	-98.467	0.105	0.027
-342.377	-200.000	0.001	0.117
-341.362	-200.000	-0.013	0.278
-340.348	344.366	0.059	0.115
-339.333	-174.787	0.117	-0.003
-338.318	-78.813	0.147	-0.050
-337.304	52.241	-0.174	0.166
-336.289	318.949	-0.121	-0.230
-335.275	-1.714	0.234	0.165
-334.260	-200.000	-0.019	-0.321
-333.245	-52.082	0.278	-0.129
-332.231	800.000	-0.098	-0.417
-331.216	-200.000	-0.001	0.327
-330.202	-200.000	-0.031	0.158
-329.187	360.144	0.146	0.293
-328.172	9.917	-0.246	-0.187
-327.158	-183.398	0.257	-0.004
-326.143	279.015	0.058	-0.104
-325.129	-46.303	-0.043	0.021
-324.114	197.392	-0.168	0.257
-323.099	-1.413	-0.142	-0.100
-322.085	121.904	0.094	-0.117
-321.070	232.742	-0.124	0.204
-320.056	127.770	0.103	0.131
-319.041	-100.742	-0.067	0.017
-318.026	230.822	0.113	-0.185
-317.012	125.359	-0.138	-0.174
-315.997	-108.675	-0.037	-0.008
-314.983	-153.265	0.169	0.012
-313.968	-36.059	0.115	-0.062
-312.953	-117.047	-0.479	-0.088
-311.939	-33.584	-0.110	-0.061
-310.924	405.299	0.146	0.308
-309.910	76.439	0.197	0.209
-308.895	-62.233	-0.416	0.173
-307.880	94.551	-0.283	0.322
-306.866	-138.361	0.251	0.028
-305.851	-200.000	0.019	0.152
-304.837	331.161	0.117	-0.225
-303.822	8.091	0.331	0.248
-302.807	65.511	-0.175	-0.178
-301.793	465.210	0.224	-0.501
-300.778	59.792	0.093	-0.092
-299.764	-171.236	-0.185	0.006
-298.749	-127.159	0.273	0.040
-297.735	92.433	-0.086	0.097
-296.720	-200.000	-0.010	-0.170
-295.705	-64.517	-0.218	-0.089
-294.691	213.878	0.100	-0.159
-293.676	-70.423	0.092	-0.035
-292.662	-105.219	-0.182	0.042
-291.647	-41.504	0.090	-0.047
-290.632	-33.191	0.092	-0.051
-289.618	-56.665	-0.099	0.044
-288.603	-103.685	0.150	-0.035
-287.589	800.000	-0.023	-0.096
-286.574	800.000	-0.028	-0.105
-285.559	-135.166	-0.288	-0.035
-284.545	-164.388	-0.377	-0.017
-283.530	-200.000	-0.059	0.366
-282.516	-53.245	-0.057	-0.026
-281.501	-200.000	0.020	0.301
-280.486	7.723	0.054	0.040
-279.472	-62.196	0.165	0.069
-278.457	121.481	0.087	-0.108
-277.443	-200.000	0.009	0.311
-276.428	-200.000	0.038	-0.263
-275.413	800.000	-0.045	-0.166
-274.399	800.000	-0.015	-0.052
-273.384	-146.910	0.066	0.006
-272.370	-152.755	0.087	0.006
-271.355	382.965	0.087	-0.178
-270.340	118.572	0.228	-0.281
-269.326	-200.000	0.011	0.163
-268.311	800.000	-0.027	-0.094
-267.297	-200.000	0.001	-0.170
-266.282	-92.800	-0.148	0.041
-265.267	37.481	0.125	0.111
-264.253	615.171	0.043	-0.107
-263.238	190.311	0.032	-0.048
-262.224	-126.264	0.163	-0.024
-261.209	148.354	0.244	0.329
-260.195	-200.000	0.053	0.259
-259.180	609.633	0.105	-0.263
-258.165	-112.324	0.077	-0.015
-257.151	64.614	-0.087	-0.088
-256.136	-169.930	-0.229	-0.008
-255.122	7.336	-0.115	0.086
-254.107	-66.021	-0.209	0.083
-253.092	46.766	0.052	0.048
-252.078	1.949	-0.023	-0.016
-251.063	126.776	-0.115	-0.145
-250.049	-7.759	0.174	-0.118
-249.034	-96.377	-0.061	-0.016
-248.019	-50.272	-0.102	-0.048
-247.005	-99.741	0.196	0.049
-245.990	-35.877	-0.174	0.094
-244.976	-200.000	0.046	0.227
-243.961	12.615	0.105	0.081
-242.946	14.904	-0.314	0.245
-241.932	-200.000	-0.059	0.271
-240.917	-200.000	0.052	-0.257
-239.903	-112.186	-0.319	0.064
-238.888	-81.169	-0.038	0.013
-237.873	506.474	0.043	0.100
-236.859	-137.016	0.241	-0.028
-235.844	174.276	-0.185	-0.267
-234.830	262.682	0.029	-0.049
-233.815	113.312	-0.104	-0.126
-232.800	800.000	-0.023	0.078
-231.786	364.748	0.073	-0.147
-230.771	-133.480	-0.108	0.013
-229.757	-76.681	0.091	0.032
-228.742	-39.747	-0.251	-0.131
-227.727	-200.000	0.060	0.442
-226.713	-60.087	-0.228	-0.097
-225.698	86.392	-0.181	-0.199
-224.684	-200.000	-0.006	-0.061
-223.669	-83.844	-0.469	-0.149
-222.655	-199.100	0.082	-0.000
-221.640	-105.654	-0.421	0.095
-220.625	137.954	0.139	-0.182
-219.611	6.988	0.102	-0.076
-218.596	-200.000	-0.017	-0.384
-217.582	38.357	-0.163	0.144
-216.567	-6.555	0.248	-0.168
-215.552	-96.953	0.182	0.048
-214.538	32.868	0.268	0.232
-213.523	4.035	0.115	-0.084
-212.509	800.000	-0.029	0.110
-211.494	-104.448	-0.172	0.040
-210.479	800.000	0.055	-0.242
-209.465	2.849	0.080	0.058
-208.450	-200.000	-0.048	0.415
-207.436	-200.000	0.018	-0.251
-206.421	-200.000	-0.002	0.218
-205.406	800.000	0.034	0.146
-204.392	-5.651	0.076	0.052
-203.377	-61.551	-0.051	-0.022
-202.363	-74.395	-0.237	-0.085
-201.348	800.000	0.050	-0.203
-200.333	184.156	-0.067	0.099
-199.319	-200.000	0.017	0.197
-198.304	24.852	0.125	-0.104
-197.290	-200.000	-0.012	0.107
-196.275	-95.361	-0.054	-0.015
-195.260	-200.000	0.072	-0.344
-194.246	-47.139	0.186	-0.090
-193.231	-200.000	0.047	0.297
-192.217	-200.000	0.352	-0.001
-191.202	572.965	-0.042	0.102
-190.187	-55.079	-0.194	-0.087
-189.173	-109.656	0.051	0.011
-188.158	-85.145	-0.034	-0.011
-187.144	800.000	0.037	0.107
-186.129	-25.756	-0.101	0.059
-185.114	-200.000	-0.049	-0.248
-184.100	-78.738	-0.226	-0.077
-183.085	-41.130	0.097	-0.050
-182.071	-9.293	-0.306	-0.204
-181.056	-108.621	0.249	0.053
-180.042	45.757	-0.192	0.177
-179.027	15.250	0.252	-0.197
-178.012	106.271	0.222	-0.262
-176.998	42.076	0.176	-0.159
-175.983	800.000	-0.027	-0.075
-174.969	-15.425	-0.276	0.176
-173.954	593.707	-0.055	-0.135
-172.939	59.177	0.076	0.075
-171.925	-16.087	0.292	0.185
-170.910	-200.000	0.045	0.211
-169.896	7.316	-0.081	0.060
-168.881	-200.000	-0.011	0.304
-167.866	301.723	-0.046	0.084
-166.852	-85.167	0.221	-0.069
-165.837	800.000	0.085	0.339
-164.823	800.000	0.063	0.246
-163.808	295.710	0.051	-0.092
-162.793	588.280	0.090	0.221
-161.779	-116.050	0.199	0.037
-160.764	-135.377	-0.204	0.024
-159.750	-200.000	0.010	-0.332
-158.735	-50.720	0.135	0.063
-157.720	-200.000	0.019	0.296
-156.706	107.444	0.232	0.274
-155.691	-164.574	-0.325	-0.015
-154.677	-200.000	-0.001	-0.077
-153.662	90.714	-0.115	-0.129
-152.647	-25.944	-0.175	-0.102
-151.633	-68.969	-0.142	0.054
-150.618	-51.519	0.066	-0.031
-149.604	461.785	-0.038	-0.083
-148.589	-83.346	-0.483	-0.154
-147.574	-24.641	0.128	-0.075
-146.560	-28.575	0.115	0.066
-145.545	41.160	0.192	-0.173
-144.531	52.428	0.200	-0.190
-143.516	-68.181	0.405	-0.157
-142.502	62.734	0.101	-0.100
-141.487	207.306	-0.258	0.400
-140.472	-67.566	-0.166	-0.065
-139.458	-200.000	-0.016	0.179
-138.443	-22.718	-0.289	0.174
-137.429	-91.266	0.396	-0.113
-136.414	205.913	-0.244	0.377
-135.399	-71.750	0.162	0.060
-134.385	-200.000	-0.038	-0.520
-133.370	-57.682	0.100	-0.044
-132.356	-79.874	0.301	0.101
-131.341	-128.021	-0.147	-0.021
-130.326	264.601	-0.163	-0.283
-129.312	-103.525	0.141	-0.033
-128.297	234.061	0.080	0.131
-127.283	-79.788	-0.134	-0.045
-126.268	260.505	0.113	0.195
-125.253	-200.000	-0.009	-0.277
-124.239	-147.967	0.060	-0.005
-123.224	-200.000	0.008	-0.277
-122.210	207.141	-0.121	-0.187
-121.195	-200.000	-0.072	-0.581
-120.180	-200.000	-0.004	-0.034
-119.166	-55.035	-0.273	0.122
-118.151	-200.000	0.010	-0.074
-117.137	2.174	0.304	0.218
-116.122	-200.000	-0.019	-0.133
-115.107	31.942	-0.178	0.152
-114.093	20.863	0.114	0.092
-113.078	800.000	-0.037	-0.135
-112.064	-160.821	-0.321	0.017
-111.049	-97.492	-0.339	-0.087
-110.034	168.968	-0.085	0.120
-109.020	-34.217	-0.332	-0.181
-108.005	158.905	0.142	-0.196
-106.991	-21.226	0.258	0.156
-105.976	-7.388	-0.429	0.288
-104.962	-89.249	0.527	-0.154
-103.947	-200.000	-0.069	0.331
-102.932	-200.000	0.030	-0.185
-101.918	541.276	-0.153	-0.361
-100.903	-3.578	0.160	0.110
-99.889	-109.805	-0.293	-0.061
-98.874	334.328	-0.213	-0.410
-97.859	6.081	0.392	0.288
-96.845	-35.501	-0.221	-0.119
-95.830	-200.000	0.011	0.121
-94.816	-136.924	0.167	0.019
-93.801	-200.000	0.029	0.147
-92.786	284.858	-0.160	0.286
-91.772	615.107	0.114	-0.283
-90.757	-119.785	-0.159	-0.027
-89.743	-66.397	0.224	0.088
-88.728	-200.000	-0.017	0.074
-87.713	-112.553	-0.454	-0.090
-86.699	-120.145	-0.269	0.046
-85.684	583.156	0.165	-0.401
-84.670	-94.407	0.269	-0.073
-83.655	85.066	0.266	0.290
-82.640	-67.499	-0.074	-0.029
-81.626	-125.836	-0.094	0.014
-80.611	-80.359	0.131	0.043
-79.597	488.114	-0.143	-0.324
-78.582	-200.000	0.043	-0.472
-77.567	89.782	-0.088	0.098
-76.553	69.752	-0.194	-0.198
-75.538	-114.574	0.082	0.016
-74.524	-21.474	0.120	-0.073
-73.509	169.175	0.140	0.199
-72.494	302.994	0.125	-0.230
-71.480	-200.000	0.032	-0.299
-70.465	-97.959	0.107	-0.027
-69.451	-89.172	-0.133	0.039
-68.436	39.830	0.198	-0.177
-67.422	121.274	0.082	0.101
-66.407	210.856	-0.099	-0.154
-65.392	800.000	-0.011	-0.043
-64.378	800.000	-0.031	-0.087
-63.363	604.844	-0.087	-0.216
-62.349	-82.636	0.110	0.035
-61.334	81.948	-0.796	-0.855
-60.319	-83.895	0.321	0.101
-59.305	-200.000	-0.123	-0.859
-58.290	198.684	0.638	0.968
-57.276	493.553	0.735	1.670
-56.261	-200.000	95.917	572.726
-55.246	650.271	1384.409	3512.311
-54.232	186.211	2602.697	3836.816
-53.217	122.401	2207.323	2733.472
-52.203	45.967	1740.492	1595.912
-51.188	38.356	1550.479	1368.627
-50.173	35.945	1523.046	1327.757
-49.159	54.650	1573.218	1503.006
-48.144	58.437	1592.032	1547.445
-47.130	38.862	1547.162	1369.013
-46.115	35.506	1532.245	1332.517
-45.100	35.418	1527.966	1328.132
-44.086	35.342	1526.418	1326.212
-43.071	35.265	1524.587	1324.036
-42.057	35.207	1523.062	1322.256
-41.042	35.242	1521.482	1321.074
-40.027	35.293	1519.777	1319.896
-39.013	35.249	1518.328	1318.281
-37.998	35.279	1517.267	1317.511
-36.984	35.186	1516.310	1315.993
-35.969	35.307	1515.184	1315.795
-34.954	35.275	1513.568	1314.118
-33.940	35.205	1512.280	1312.469
-32.925	35.290	1510.780	1311.692
-31.911	35.383	1509.270	1310.965
-30.896	35.347	1508.223	1309.760
-29.881	35.346	1507.138	1308.762
-28.867	35.388	1505.055	1307.188
-27.852	35.301	1503.520	1305.205
-26.838	35.272	1502.546	1304.112
-25.823	35.346	1500.395	1302.694
-24.809	35.468	1498.588	1301.901
-23.794	35.387	1497.557	1300.411
-22.779	35.343	1496.459	1299.106
-21.765	35.274	1495.823	1298.033
-20.750	35.476	1494.036	1297.794
-19.736	35.255	1493.423	1295.718
-18.721	35.281	1492.358	1294.922
-17.706	35.225	1491.318	1293.585
-16.692	35.361	1489.536	1292.906
-15.677	35.297	1488.617	1291.630
-14.663	35.300	1487.862	1290.942
-13.648	35.155	1487.304	1289.433
-12.633	35.236	1485.758	1288.584
-11.619	35.146	1485.322	1287.547
-10.604	35.155	1484.367	1286.730
-9.590	35.136	1483.576	1285.869
-8.575	35.240	1482.699	1285.750
-7.560	35.281	1482.215	1285.559
-6.546	35.267	1480.722	1284.120
-5.531	35.348	1479.400	1283.464
-4.517	35.260	1478.593	1282.120
-3.502	35.232	1477.779	1281.181
-2.487	35.295	1476.530	1280.465
-1.473	35.255	1475.684	1279.413
-0.458	35.174	1474.388	1277.702
0.556	37.198	1464.527	1266.179
1.571	33.359	1436.379	1217.114
2.586	28.831	1371.891	1134.490
3.600	26.528	1287.500	1051.250
4.615	24.245	1239.891	999.502
5.629	20.693	1183.004	934.518
6.644	12.450	1098.260	826.232
7.659	5.914	1056.540	763.082
8.673	4.935	1050.810	754.141
9.688	4.657	1048.155	750.826
10.702	4.427	1046.186	748.239
11.717	4.892	1044.252	749.029
12.731	7.779	1047.995	765.560
13.746	16.147	1059.206	814.234
14.761	21.725	1066.147	846.524
15.775	22.044	1065.810	847.721
16.790	21.300	1063.900	842.541
17.804	20.328	1061.747	836.082
18.819	19.373	1059.868	829.937
19.834	18.988	1059.201	827.487
20.848	19.002	1057.583	826.217
21.863	18.807	1057.194	824.903
22.877	18.494	1056.610	822.875
23.892	18.322	1055.437	821.065
24.907	18.339	1054.835	820.602
25.921	18.295	1053.776	819.498
26.936	18.219	1053.346	818.725
27.950	18.199	1052.265	817.719
28.965	18.264	1051.079	817.032
29.980	18.344	1050.183	816.645
30.994	18.456	1048.934	816.137
32.009	18.644	1048.313	816.477
33.023	18.570	1047.700	815.575
34.038	18.564	1046.762	814.744
35.053	18.437	1046.234	813.656
36.067	18.328	1044.825	811.972
37.082	18.220	1044.464	811.108
38.096	18.414	1043.213	810.983
39.111	18.431	1042.982	810.814
40.126	18.553	1041.852	810.438
41.140	18.349	1040.835	808.613
42.155	18.135	1039.427	806.437
43.169	18.004	1038.417	804.967
44.184	17.974	1037.266	803.862
45.199	17.911	1036.296	802.742
46.213	17.899	1035.305	801.847
47.228	17.989	1034.396	801.497
48.242	18.276	1033.469	802.052
49.257	18.429	1032.973	802.313
50.271	18.353	1032.022	801.147
51.286	18.426	1030.772	800.447
52.301	18.520	1030.193	800.362
53.315	18.476	1029.527	799.570
54.330	18.259	1028.590	797.759
55.344	18.158	1027.744	796.562
56.359	18.115	1026.621	795.421
57.374	18.156	1025.665	794.801
58.388	18.121	1024.574	793.724
59.403	17.992	1023.956	792.577
60.417	17.856	1023.149	791.252
61.432	17.896	1022.595	790.940
62.447	17.857	1022.115	790.316
63.461	17.904	1020.373	789.115
64.476	17.762	1019.908	788.030
65.490	17.797	1018.467	787.009
66.505	17.900	1017.689	786.812
67.520	17.845	1017.339	786.220
68.534	17.784	1017.042	785.642
69.549	17.811	1015.907	784.818
70.563	17.808	1014.732	783.830
71.578	17.738	1014.598	783.334
72.593	17.601	1013.222	781.571
73.607	17.499	1012.816	780.724
74.622	17.487	1012.085	780.036
75.636	17.617	1010.522	779.355
76.651	17.733	1009.545	779.063
77.666	17.772	1009.141	778.860
78.680	17.660	1008.777	778.000
79.695	17.767	1007.934	777.769
80.709	17.760	1007.391	777.250
81.724	17.914	1006.614	777.284
82.739	17.990	1006.044	777.121
83.753	18.031	1005.436	776.769
84.768	18.155	1004.408	776.467
85.782	18.580	1003.556	777.668
86.797	18.689	1003.381	777.955
87.812	18.589	1002.346	776.631
88.826	18.408	1001.536	775.120
89.841	18.344	1000.829	774.213
90.855	18.395	999.305	773.195
91.870	18.522	998.788	773.299
92.884	18.576	998.059	772.912
93.899	18.656	997.496	772.767
94.914	18.553	997.127	771.946
95.928	18.613	996.398	771.586
96.943	18.761	995.311	771.342
97.957	18.470	994.623	769.432
98.972	18.456	993.746	768.626
99.987	18.446	992.578	767.609
101.001	18.385	992.651	767.324
102.016	18.493	991.402	766.773
103.030	18.393	990.750	765.756
104.045	18.606	989.261	765.484
105.060	18.398	988.853	764.174
106.074	18.431	987.688	763.353
107.089	18.223	986.636	761.547
108.103	17.957	985.741	759.605
109.118	17.952	984.733	758.741
110.133	17.802	984.062	757.490
111.147	17.793	983.077	756.625
112.162	17.873	981.664	755.824
113.176	17.829	981.443	755.392
114.191	17.869	980.712	754.938
115.206	17.987	979.852	754.734
116.220	18.055	979.233	754.487
117.235	17.868	978.257	752.847
118.249	17.978	977.217	752.463
119.264	17.976	976.400	751.760
120.279	17.899	975.751	750.854
121.293	17.868	974.828	749.941
122.308	17.802	974.272	749.158
123.322	17.815	972.878	748.077
124.337	17.697	971.954	746.784
125.352	17.620	971.118	745.738
126.366	17.551	970.154	744.631
127.381	17.609	969.226	744.103
128.395	17.644	967.966	743.225
129.410	17.681	967.058	742.621
130.424	17.671	966.697	742.238
131.439	17.896	965.312	742.086
132.454	17.809	965.169	741.532
133.468	17.798	964.473	740.881
134.483	18.138	963.289	741.383
135.497	18.055	962.707	740.509
136.512	18.003	962.021	739.689
137.527	18.035	961.471	739.341
138.541	18.001	960.399	738.306
139.556	18.105	959.826	738.247
140.570	18.034	959.289	737.463
141.585	18.220	958.171	737.340
142.600	18.341	958.060	737.711
143.614	18.518	956.958	737.559
144.629	18.596	956.087	737.157
145.643	18.564	955.428	736.448
146.658	18.623	954.668	736.047
147.673	18.440	953.807	734.533
148.687	18.288	953.180	733.337
149.702	18.087	951.853	731.389
150.716	18.005	951.084	730.382
151.731	18.190	949.844	730.156
152.746	18.065	949.196	729.061
153.760	18.142	948.693	728.939
154.775	18.144	948.010	728.359
155.789	18.202	947.321	728.012
156.804	18.304	946.671	727.881
157.819	18.302	945.668	727.038
158.833	18.384	945.413	727.125
159.848	18.447	945.007	727.017
160.862	18.695	944.176	727.364
161.877	18.539	943.517	726.131
162.892	18.356	941.898	724.044
163.906	18.061	941.449	722.391
164.921	18.066	940.652	721.734
165.935	18.140	939.074	720.773
166.950	18.193	938.159	720.229
167.964	18.204	937.430	719.653
168.979	18.214	936.377	718.822
169.994	18.324	934.810	718.017
171.008	18.143	934.263	716.775
172.023	18.249	933.598	716.648
173.037	18.392	933.142	716.832
174.052	18.377	932.607	716.295
175.067	18.541	931.900	716.371
176.081	18.372	931.005	714.914
177.096	17.997	930.227	712.690
178.110	18.048	929.179	712.036
179.125	18.115	928.614	711.821
180.140	18.125	927.475	710.925
181.154	18.185	926.698	710.519
182.169	18.420	926.397	711.200
183.183	18.463	925.978	710.993
184.198	18.556	925.430	710.896
185.213	18.483	924.672	709.947
186.227	18.536	924.038	709.618
187.242	18.521	924.102	709.540
188.256	18.671	923.278	709.467
189.271	18.700	922.598	709.000
190.286	18.789	921.679	708.598
191.300	18.694	920.281	707.071
192.315	18.299	919.359	704.672
193.329	18.105	918.416	703.089
194.344	18.023	918.241	702.556
195.359	18.159	917.899	702.793
196.373	18.487	916.896	703.309
197.388	18.512	916.754	703.239
198.402	18.526	916.858	703.315
199.417	18.684	915.936	703.191
200.432	18.862	915.775	703.733
201.446	18.946	915.304	703.653
202.461	18.969	915.133	703.556
203.475	19.044	914.621	703.407
204.490	19.070	913.635	702.693
205.504	18.932	912.317	701.051
206.519	18.754	911.581	699.700
207.534	18.642	910.700	698.505
208.548	18.645	910.257	698.117
209.563	18.701	909.669	697.830
210.577	18.661	909.013	697.106
211.592	18.596	908.247	696.193
212.607	18.894	907.968	697.125
213.621	18.956	907.416	696.892
214.636	18.900	906.772	696.109
215.650	18.949	906.093	695.725
216.665	18.938	905.468	695.138
217.680	18.999	905.002	694.963
218.694	19.151	904.367	695.028
219.709	19.283	903.904	695.142
220.723	19.106	903.347	693.939
221.738	19.027	902.638	693.017
222.753	19.152	901.440	692.538
223.767	18.969	901.022	691.419
224.782	19.028	900.512	691.203
225.796	19.065	900.017	690.914
226.811	19.322	898.962	691.071
227.826	19.171	898.174	689.799
228.840	19.023	897.300	688.476
229.855	19.061	896.718	688.118
230.869	18.947	896.538	687.466
231.884	18.940	895.741	686.766
232.899	18.882	894.830	685.776
233.913	18.773	894.284	684.861
234.928	18.933	893.397	684.758
235.942	18.786	892.597	683.500
236.957	18.787	891.781	682.819
237.972	18.757	891.285	682.259
238.986	18.764	890.817	681.869
240.001	18.805	890.046	681.379
241.015	18.868	889.211	680.928
242.030	18.760	888.991	680.275
243.045	18.924	888.487	680.478
244.059	19.080	887.679	680.414
245.074	19.059	887.189	679.895
246.088	19.289	886.233	680.010
247.103	19.109	886.263	679.264
248.117	19.103	885.824	678.841
249.132	19.421	885.288	679.625
250.147	19.613	884.488	679.707
251.161	19.764	884.430	680.195
252.176	19.814	883.390	679.533
253.190	19.872	882.623	679.110
254.205	19.916	882.737	679.310
255.220	20.085	881.760	679.160
256.234	20.037	881.137	678.431
257.249	19.889	880.444	677.258
258.263	20.007	880.024	677.340
259.278	19.856	879.551	676.323
260.293	19.819	879.036	675.725
261.307	19.967	878.411	675.760
262.322	19.934	878.030	675.279
263.336	19.996	877.592	675.126
264.351	20.135	876.756	674.962
265.366	20.216	875.811	674.490
266.380	20.166	875.400	673.919
267.395	20.135	874.639	673.153
268.409	19.878	874.092	671.676
269.424	20.047	872.808	671.284
270.439	19.962	872.335	670.533
271.453	19.856	871.401	669.346
272.468	19.816	870.649	668.555
273.482	19.663	870.542	667.822
274.497	19.677	869.990	667.393
275.512	19.812	868.942	667.052
276.526	19.723	868.291	666.149
277.541	19.767	867.978	666.020
278.555	19.665	867.431	665.150
279.570	19.967	866.874	665.822
280.585	20.183	866.386	666.219
281.599	20.371	865.599	666.278
282.614	20.063	864.867	664.472
283.628	20.019	864.264	663.782
284.643	20.006	863.919	663.410
285.657	19.928	863.193	662.497
286.672	19.920	862.877	662.164
287.687	19.985	862.295	661.907
288.701	19.994	861.913	661.588
289.716	20.019	861.188	661.071
290.730	20.164	860.543	661.068
291.745	20.078	860.190	660.413
292.760	20.085	859.706	660.007
293.774	20.078	859.412	659.699
294.789	20.314	858.471	659.813
295.803	20.213	858.035	659.036
296.818	20.165	857.069	658.054
297.833	20.046	856.515	657.119
298.847	20.058	855.480	656.314
299.862	19.955	854.966	655.471
300.876	20.137	854.449	655.705
301.891	20.073	853.736	654.858
302.906	20.353	852.967	655.265
303.920	20.593	852.408	655.685
304.935	20.608	852.036	655.398
305.949	20.620	851.886	655.267
306.964	20.554	850.867	654.179
307.979	20.358	850.094	652.791
308.993	20.475	849.656	652.833
310.008	20.497	849.382	652.649
311.022	20.463	849.025	652.188
312.037	20.457	848.482	651.692
313.052	20.390	847.876	650.918
314.066	20.224	846.973	649.545
315.081	20.125	846.470	648.731
316.095	20.158	845.787	648.273
317.110	20.142	845.437	647.889
318.125	20.209	844.694	647.512
319.139	20.285	843.989	647.196
320.154	20.213	843.492	646.493
321.168	20.227	842.894	646.027
322.183	20.200	842.393	645.486
323.197	20.433	841.976	645.975
324.212	20.473	841.248	645.509
325.227	20.308	841.319	644.892
326.241	20.201	840.836	644.070
327.256	20.280	839.581	643.342
328.270	20.279	839.050	642.877
329.285	20.181	838.662	642.158
330.300	20.385	837.915	642.286
331.314	20.212	837.626	641.368
332.329	20.249	837.038	640.997
333.343	20.421	836.693	641.311
334.358	20.617	835.880	641.353
335.373	20.585	835.541	640.919
336.387	20.608	834.976	640.515
337.402	20.565	834.396	639.855
338.416	20.609	834.097	639.730
339.431	20.667	833.590	639.498
340.446	20.934	833.016	639.981
341.460	20.868	832.572	639.341
342.475	20.894	831.993	638.934
343.489	21.075	831.431	639.109
344.504	21.094	830.854	638.681
345.519	21.261	830.321	638.823
346.533	21.209	829.852	638.215
347.548	21.222	829.276	637.764
348.562	20.960	828.882	636.449
349.577	20.838	828.221	635.439
350.592	20.812	827.303	634.585
351.606	20.713	826.786	633.771
352.621	20.560	826.548	632.975
353.635	20.645	826.059	632.856
354.650	20.677	825.752	632.679
355.665	20.846	825.197	632.814
356.679	20.806	824.705	632.233
357.694	20.907	824.562	632.434
358.708	20.945	823.972	632.063
359.723	20.798	823.401	631.037
360.738	20.971	822.840	631.180
361.752	20.941	822.044	630.403
362.767	20.985	821.948	630.434
363.781	21.136	821.337	630.454
364.796	21.233	820.932	630.437
365.810	21.322	821.054	630.797
366.825	21.512	820.180	630.754
367.840	21.420	820.212	630.394
368.854	21.432	819.406	629.759
369.869	21.538	818.834	629.644
370.883	21.284	818.274	628.246
371.898	21.255	817.563	627.541
372.913	21.326	816.972	627.284
373.927	21.427	816.546	627.266
374.942	21.451	815.842	626.754
375.956	21.226	815.419	625.568
376.971	21.542	814.777	626.151
377.986	21.460	814.740	625.776
379.000	21.482	814.294	625.455
380.015	21.781	813.252	625.667
381.029	21.631	812.603	624.578
382.044	21.625	812.227	624.212
383.059	21.603	811.582	623.584
384.073	21.547	811.260	623.082
385.088	21.643	810.716	622.950
386.102	21.517	809.769	621.718
387.117	21.480	808.938	620.894
388.132	21.469	808.423	620.406
389.146	21.243	808.329	619.476
390.161	21.430	808.011	619.842
391.175	21.494	807.590	619.689
392.190	21.524	807.735	619.851
393.205	21.599	806.614	619.203
394.219	21.222	806.526	617.748
395.234	21.401	805.791	617.762
396.248	21.409	805.244	617.317
397.263	21.314	804.332	616.227
398.278	21.185	804.179	615.602
399.292	21.223	803.530	615.185
400.307	21.221	803.352	614.987
401.321	21.142	803.205	614.540
402.336	21.301	802.552	614.548
403.350	21.281	802.266	614.201
404.365	21.344	801.793	614.008
405.380	21.486	801.545	614.262
406.394	21.650	801.101	614.443
407.409	21.746	800.746	614.451
408.423	21.961	800.143	614.689
409.438	21.967	799.687	614.304
410.453	21.910	799.229	613.699
411.467	21.947	798.955	613.565
412.482	21.945	798.629	613.254
413.496	21.894	798.313	612.778
414.511	22.213	797.460	613.181
415.526	22.151	797.649	613.054
416.540	21.867	797.503	611.899
417.555	22.051	796.433	611.666
418.569	22.047	796.140	611.370
419.584	22.069	795.381	610.812
420.599	21.925	795.163	610.090
421.613	158.847	1368.588	1789.179
422.628	137.702	1452.154	1789.291
