DTS Sentinel unit serial number:	SN413079Multiplexer serial number:	ORYXHardware model number:	OX4-SRSoftware version number:	ORYX F/W v4.00 Oryx Data Collector v3.7.2.0data status	okinstallation	princeton_trtdifferential loss correction	single-endedforward channel	channel 3reverse channel	N/Adate	2019/09/15time	07:44:35forward acquisition time	60.00reverse acquisition time	0.00gamma	496.2192k internal	0.2324k external	0.2324temperature offset calibration	0.9985default loss term (dB/km)	0.3790temperature slope calibration	1.0000multiplexer offset coefficient	1.0000multiplexer slope coefficient	1.0000fibre end	0.00T internal ref (°C)	30.62T ext. ref 1 (°C)	4.97T ext. ref 2 (°C)	25.75length (m)	temperature (°C)	Stokes	anti-Stokes-747.200	-200.000	0.036	-0.189
-746.185	-200.000	0.011	0.402
-745.171	631.104	-0.085	0.218
-744.156	136.383	-0.135	-0.178
-743.142	134.473	-0.159	0.208
-742.127	504.009	0.190	0.444
-741.112	709.499	-0.109	0.290
-740.098	65.807	-0.337	0.345
-739.083	246.988	-0.076	0.130
-738.069	800.000	0.115	0.384
-737.054	-200.000	0.010	0.179
-736.039	-200.000	0.184	-0.000
-735.025	125.730	-0.155	0.197
-734.010	1.645	0.071	-0.051
-732.996	415.952	-0.035	-0.075
-731.981	-200.000	-0.032	-0.389
-730.966	265.374	-0.078	0.137
-729.952	-148.555	-0.259	0.021
-728.937	-120.365	0.111	0.019
-727.923	36.792	0.096	-0.086
-726.908	14.928	-0.179	0.141
-725.894	-200.000	-0.020	0.203
-724.879	800.000	-0.059	-0.210
-723.864	-2.350	-0.169	0.119
-722.850	-200.000	-0.008	-0.064
-721.835	98.731	0.213	-0.248
-720.821	-48.738	0.121	-0.059
-719.806	-200.000	0.007	0.206
-718.791	-15.035	-0.257	0.166
-717.777	-135.585	0.060	-0.007
-716.762	12.837	-0.222	-0.173
-715.748	28.222	0.235	-0.200
-714.733	327.201	-0.078	0.151
-713.718	-200.000	0.004	0.085
-712.704	114.794	0.389	-0.478
-711.689	3.194	0.242	0.177
-710.675	-62.280	0.192	-0.081
-709.660	800.000	-0.053	-0.166
-708.645	60.922	0.186	0.186
-707.631	100.799	0.149	0.175
-706.616	109.747	-0.137	0.166
-705.602	800.000	0.028	0.085
-704.587	584.381	-0.038	-0.095
-703.572	-200.000	0.045	0.248
-702.558	-200.000	0.013	0.063
-701.543	-56.113	-0.209	-0.094
-700.529	-66.814	0.061	0.024
-699.514	-5.049	0.064	-0.044
-698.499	414.568	0.039	0.083
-697.485	-60.276	0.229	-0.098
-696.470	5.172	-0.146	-0.109
-695.456	134.171	-0.255	0.333
-694.441	-200.000	-0.007	0.144
-693.426	97.747	0.156	0.181
-692.412	-49.149	0.129	0.062
-691.397	800.000	0.064	0.257
-690.383	-200.000	0.034	-0.296
-689.368	800.000	-0.079	-0.220
-688.354	-111.014	-0.647	0.134
-687.339	-169.744	0.478	-0.017
-686.324	9.619	-0.103	0.079
-685.310	42.178	-0.017	0.016
-684.295	262.039	-0.080	0.139
-683.281	-75.442	-0.121	0.043
-682.266	-78.271	0.092	-0.032
-681.251	800.000	-0.061	0.190
-680.237	-80.415	0.196	0.066
-679.222	557.967	0.087	-0.212
-678.208	39.525	-0.267	0.241
-677.193	-200.000	-0.046	-0.273
-676.178	44.258	-0.111	0.103
-675.164	-85.218	0.341	-0.107
-674.149	-2.401	-0.321	-0.226
-673.135	-48.295	0.310	-0.151
-672.120	40.144	0.209	0.189
-671.105	372.082	-0.110	-0.226
-670.091	-22.352	0.070	0.043
-669.076	26.799	-0.095	-0.080
-668.062	62.798	-0.173	-0.174
-667.047	800.000	-0.059	0.199
-666.032	235.540	0.052	-0.087
-665.018	-131.772	0.227	0.030
-664.003	-200.000	-0.026	-0.146
-662.989	699.288	0.065	-0.173
-661.974	-200.000	-0.011	0.072
-660.959	-149.406	0.126	0.010
-659.945	-135.046	-0.125	-0.015
-658.930	-200.000	-0.012	-0.096
-657.916	800.000	0.032	-0.134
-656.901	800.000	0.057	-0.179
-655.886	140.392	-0.222	-0.294
-654.872	-79.818	-0.334	-0.113
-653.857	-76.424	0.119	0.042
-652.843	776.637	0.026	0.071
-651.828	82.088	0.166	0.181
-650.814	-200.000	0.002	0.144
-649.799	111.578	0.070	0.085
-648.784	1.056	-0.026	0.019
-647.770	40.803	-0.147	-0.133
-646.755	800.000	0.074	0.316
-645.741	-200.000	0.003	0.188
-644.726	-87.548	-0.107	-0.032
-643.711	-200.000	-0.028	-0.153
-642.697	177.862	0.278	0.408
-641.682	-55.264	-0.312	0.141
-640.668	800.000	0.071	0.250
-639.653	-138.043	-0.310	-0.035
-638.638	-200.000	-0.001	0.061
-637.624	-6.985	-0.273	0.187
-636.609	48.344	0.201	-0.190
-635.595	-77.902	-0.124	0.043
-634.580	-200.000	-0.022	-0.361
-633.565	800.000	-0.027	-0.110
-632.551	-7.637	0.232	0.158
-631.536	-169.226	0.072	0.003
-630.522	800.000	0.016	-0.067
-629.507	-200.000	0.005	-0.069
-628.492	3.603	-0.433	0.317
-627.478	313.363	0.237	-0.447
-626.463	-200.000	-0.028	-0.155
-625.449	-200.000	-0.022	-0.196
-624.434	308.828	-0.135	0.254
-623.419	-129.999	0.271	-0.037
-622.405	-43.795	0.163	-0.082
-621.390	409.392	-0.116	0.247
-620.376	5.384	0.170	-0.126
-619.361	793.723	0.116	-0.321
-618.346	-200.000	0.000	-0.170
-617.332	-105.541	-0.412	0.094
-616.317	-182.438	-0.439	0.008
-615.303	32.163	0.197	0.171
-614.288	-154.818	-0.328	-0.022
-613.273	-200.000	0.009	0.179
-612.259	656.374	-0.112	-0.289
-611.244	-200.000	0.083	0.505
-610.230	-84.001	0.046	-0.015
-609.215	109.875	-0.037	-0.044
-608.201	-128.245	0.222	-0.032
-607.186	87.629	0.110	-0.123
-606.171	90.496	0.066	0.075
-605.157	28.384	-0.166	-0.140
-604.142	108.340	0.150	0.180
-603.128	52.137	0.161	-0.154
-602.113	-200.000	-0.032	-0.329
-601.098	72.129	0.020	0.021
-600.084	-36.454	0.236	-0.128
-599.069	800.000	-0.055	-0.178
-598.055	110.840	0.123	0.149
-597.040	60.409	0.065	-0.065
-596.025	-107.046	0.019	0.004
-595.011	235.267	0.145	-0.240
-593.996	-68.462	-0.227	-0.089
-592.982	-11.323	-0.128	0.085
-591.967	345.547	-0.164	0.323
-590.952	800.000	0.030	0.126
-589.938	-96.377	-0.165	0.044
-588.923	-85.291	0.300	-0.094
-587.909	-98.142	-0.128	-0.033
-586.894	406.019	-0.147	0.311
-585.879	800.000	0.095	-0.339
-584.865	-102.780	0.040	0.009
-583.850	-200.000	-0.010	-0.103
-582.836	-65.640	0.271	0.109
-581.821	39.434	0.220	0.198
-580.806	3.633	0.370	0.271
-579.792	-107.945	-0.267	-0.058
-578.777	-54.599	-0.292	0.133
-577.763	800.000	0.034	0.124
-576.748	-200.000	-0.022	-0.222
-575.733	-35.092	-0.325	-0.177
-574.719	800.000	0.093	-0.341
-573.704	11.890	-0.205	-0.158
-572.690	498.138	-0.060	0.138
-571.675	51.472	0.201	-0.191
-570.661	-85.060	0.230	-0.072
-569.646	-101.470	-0.382	-0.093
-568.631	92.076	-0.095	-0.108
-567.617	-200.000	-0.004	-0.229
-566.602	-129.141	-0.202	-0.028
-565.588	516.069	0.002	0.005
-564.573	428.393	-0.127	-0.276
-563.558	-8.197	-0.115	0.078
-562.544	-171.623	0.076	0.003
-561.529	800.000	-0.040	0.134
-560.515	173.074	-0.089	-0.129
-559.500	-18.084	0.147	0.092
-558.485	-171.500	0.236	-0.008
-557.471	-89.100	-0.236	-0.070
-556.456	89.160	-0.257	-0.286
-555.442	-89.964	0.094	-0.028
-554.427	-38.762	0.182	-0.096
-553.412	80.990	-0.309	0.334
-552.398	568.541	0.058	0.142
-551.383	-176.819	-0.157	0.004
-550.369	-125.636	-0.209	-0.032
-549.354	-135.142	-0.212	-0.026
-548.339	191.103	-0.161	-0.242
-547.325	-79.328	0.162	0.055
-546.310	800.000	-0.079	-0.247
-545.296	167.150	-0.146	0.207
-544.281	259.853	-0.139	0.240
-543.266	4.130	-0.084	0.061
-542.252	736.897	0.108	-0.290
-541.237	-200.000	0.011	-0.117
-540.223	-95.782	-0.368	-0.098
-539.208	35.184	-0.243	-0.213
-538.193	-66.849	-0.160	-0.063
-537.179	86.286	0.210	-0.231
-536.164	-200.000	-0.002	-0.115
-535.150	48.482	-0.016	-0.015
-534.135	-58.830	-0.138	0.060
-533.121	-50.593	0.008	-0.004
-532.106	-28.922	0.135	0.078
-531.091	800.000	0.085	0.236
-530.077	-200.000	0.046	0.265
-529.062	68.082	-0.069	-0.071
-528.048	-64.988	-0.134	0.054
-527.033	-200.000	-0.024	-0.140
-526.018	155.488	-0.093	0.128
-525.004	-127.667	0.298	0.043
-523.989	161.050	0.101	-0.141
-522.975	60.595	0.073	-0.072
-521.960	-200.000	0.020	-0.244
-520.945	-200.000	0.022	-0.209
-519.931	-10.999	-0.216	-0.143
-518.916	26.533	-0.026	0.022
-517.902	-68.507	-0.101	-0.039
-516.887	-47.239	-0.079	-0.039
-515.872	-43.138	-0.085	0.043
-514.858	-200.000	0.013	0.129
-513.843	299.579	-0.153	0.282
-512.829	-168.926	-0.226	-0.008
-511.814	38.415	0.324	0.288
-510.799	-44.667	0.323	-0.161
-509.785	257.834	-0.059	0.102
-508.770	69.686	0.104	0.108
-507.756	-192.206	-0.155	0.001
-506.741	351.781	0.120	-0.237
-505.726	-200.000	0.015	-0.370
-504.712	436.013	-0.064	0.140
-503.697	-50.935	-0.064	-0.030
-502.683	141.409	-0.129	-0.171
-501.668	523.017	0.012	-0.027
-500.653	2.009	0.256	-0.185
-499.639	160.546	-0.130	0.181
-498.624	-68.567	0.349	0.135
-497.610	-96.857	-0.205	0.054
-496.595	169.613	0.132	-0.188
-495.581	64.082	-0.155	-0.156
-494.566	113.670	0.113	-0.137
-493.551	195.173	0.231	-0.351
-492.537	-200.000	-0.038	-0.254
-491.522	-80.368	0.100	0.033
-490.508	-200.000	-0.012	-0.269
-489.493	-107.625	-0.399	0.087
-488.478	-127.722	-0.398	0.058
-487.464	14.892	0.058	-0.046
-486.449	572.809	0.039	0.095
-485.435	-148.285	-0.171	0.014
-484.420	-200.000	-0.018	-0.163
-483.405	-78.622	0.133	-0.046
-482.391	800.000	0.069	-0.267
-481.376	7.895	0.023	-0.017
-480.362	-200.000	0.075	-0.355
-479.347	-69.532	0.196	-0.075
-478.332	113.863	-0.222	-0.269
-477.318	763.442	0.139	0.378
-476.303	800.000	-0.035	-0.150
-475.289	-200.000	0.040	-0.268
-474.274	491.819	-0.170	0.390
-473.259	800.000	0.064	0.229
-472.245	79.531	0.190	0.203
-471.230	800.000	0.050	-0.161
-470.216	125.305	-0.230	0.290
-469.201	-154.035	0.035	-0.002
-468.186	800.000	0.055	0.182
-467.172	-57.683	-0.463	-0.202
-466.157	-200.000	0.084	-0.477
-465.143	-90.440	0.300	0.087
-464.128	-200.000	0.025	0.117
-463.113	-200.000	0.032	-0.478
-462.099	7.304	-0.375	0.279
-461.084	119.696	-0.188	-0.232
-460.070	75.975	-0.184	0.194
-459.055	29.785	0.185	-0.157
-458.040	618.790	-0.054	0.135
-457.026	62.352	-0.091	0.090
-456.011	16.987	0.176	-0.139
-454.997	-88.666	0.265	0.079
-453.982	-117.784	-0.079	0.014
-452.968	-57.606	0.174	0.076
-451.953	800.000	-0.041	0.150
-450.938	-28.768	0.254	-0.146
-449.924	800.000	0.027	0.087
-448.909	306.706	0.077	0.143
-447.895	-88.194	0.159	-0.048
-446.880	-153.403	0.376	0.026
-445.865	-170.441	-0.229	0.008
-444.851	-128.979	0.113	-0.016
-443.836	24.788	-0.098	-0.081
-442.822	73.206	0.059	0.061
-441.807	24.021	-0.146	0.120
-440.792	119.222	0.194	0.239
-439.778	-82.733	-0.172	0.055
-438.763	140.113	-0.166	0.219
-437.749	11.345	0.116	-0.089
-436.734	-129.391	0.072	-0.010
-435.719	-34.695	0.030	0.016
-434.705	-200.000	0.007	-0.142
-433.690	94.480	0.092	-0.105
-432.676	-200.000	-0.039	-0.431
-431.661	-175.188	0.145	0.004
-430.646	364.836	0.086	0.172
-429.632	187.987	0.086	0.128
-428.617	788.142	-0.081	0.221
-427.603	338.365	-0.083	0.162
-426.588	74.426	0.109	-0.114
-425.573	-200.000	0.013	-0.195
-424.559	-39.537	-0.087	0.045
-423.544	800.000	0.023	-0.071
-422.530	-53.849	-0.189	-0.086
-421.515	-200.000	0.026	-0.151
-420.500	-200.000	-0.012	-0.320
-419.486	-121.902	-0.443	0.073
-418.471	-33.514	-0.234	0.129
-417.457	396.424	-0.084	-0.174
-416.442	-80.461	0.167	0.055
-415.428	29.804	0.158	0.134
-414.413	162.608	0.201	0.281
-413.398	-119.903	0.334	0.057
-412.384	388.150	0.061	0.125
-411.369	-200.000	0.016	0.498
-410.355	-200.000	0.048	0.444
-409.340	-52.710	-0.291	-0.134
-408.325	80.663	-0.151	0.162
-407.311	-154.487	-0.234	-0.016
-406.296	-55.059	0.013	0.006
-405.282	42.036	0.217	0.196
-404.267	389.453	0.063	0.130
-403.252	-187.762	-0.285	-0.004
-402.238	-75.219	-0.256	-0.091
-401.223	-37.353	-0.030	0.016
-400.209	26.017	-0.192	-0.160
-399.194	800.000	0.094	0.309
-398.179	167.903	-0.141	0.199
-397.165	-150.042	-0.118	0.009
-396.150	22.532	-0.166	-0.135
-395.136	627.391	0.102	0.257
-394.121	-200.000	0.356	0.000
-393.106	-200.000	0.007	-0.072
-392.092	800.000	0.059	0.187
-391.077	-82.837	0.194	-0.062
-390.063	265.893	-0.170	0.296
-389.048	-175.558	0.270	-0.007
-388.033	160.048	0.139	0.193
-387.019	-49.182	0.320	0.152
-386.004	118.667	-0.131	-0.161
-384.990	54.755	-0.189	-0.181
-383.975	-100.569	-0.139	0.034
-382.960	81.496	-0.069	-0.074
-381.946	-117.578	0.298	0.054
-380.931	-122.305	0.194	-0.032
-379.917	11.203	-0.313	0.238
-378.902	-200.000	-0.029	-0.261
-377.888	49.165	-0.233	0.218
-376.873	-115.478	-0.223	-0.042
-375.858	32.092	-0.209	-0.179
-374.844	-163.240	-0.503	0.024
-373.829	-200.000	-0.021	0.204
-372.815	140.489	-0.105	-0.138
-371.800	-5.066	-0.144	0.099
-370.785	800.000	-0.058	0.175
-369.771	90.633	0.103	-0.114
-368.756	372.377	-0.076	0.153
-367.742	-70.448	0.307	-0.116
-366.727	-70.398	0.192	0.072
-365.712	-200.000	0.004	0.100
-364.698	30.334	0.215	0.183
-363.683	-145.500	-0.272	-0.024
-362.669	-107.172	0.156	-0.034
-361.654	-144.558	0.166	-0.015
-360.639	-152.086	0.100	0.007
-359.625	-115.761	-0.182	-0.034
-358.610	-200.000	-0.051	0.320
-357.596	800.000	-0.158	0.460
-356.581	-200.000	0.003	-0.045
-355.566	8.722	-0.138	-0.103
-354.552	-96.646	0.047	-0.012
-353.537	-153.728	0.167	0.011
-352.523	36.587	-0.173	-0.152
-351.508	-200.000	0.046	-0.341
-350.493	-2.146	0.103	0.072
-349.479	-27.951	0.043	-0.025
-348.464	-200.000	-0.004	-0.175
-347.450	11.042	0.131	-0.099
-346.435	-78.375	-0.130	-0.044
-345.420	80.776	0.093	-0.100
-344.406	-46.364	-0.025	0.012
-343.391	-182.626	-0.139	0.003
-342.377	53.077	-0.091	0.086
-341.362	47.623	-0.185	-0.171
-340.348	-200.000	0.011	-0.086
-339.333	-114.264	0.326	-0.062
-338.318	263.474	0.197	-0.341
-337.304	81.529	0.241	0.259
-336.289	-129.544	0.127	-0.018
-335.275	-200.000	0.020	0.220
-334.260	84.834	-0.027	0.030
-333.245	119.580	0.117	-0.144
-332.231	-200.000	0.017	0.224
-331.216	469.179	0.082	0.183
-330.202	161.228	-0.207	-0.288
-329.187	-102.474	0.331	-0.079
-328.172	-139.826	-0.306	-0.032
-327.158	-122.809	0.027	-0.004
-326.143	-108.026	0.415	-0.089
-325.129	-73.972	-0.174	0.063
-324.114	236.117	0.175	0.288
-323.099	-200.000	-0.059	-0.268
-322.085	262.083	0.089	0.154
-321.070	-200.000	0.017	-0.372
-320.056	-45.357	-0.293	-0.144
-319.041	-183.066	-0.269	-0.005
-318.026	344.281	0.165	0.322
-317.012	377.256	-0.183	-0.371
-315.997	800.000	0.011	0.046
-314.983	108.624	0.073	-0.086
-313.968	-167.629	-0.109	-0.004
-312.953	296.158	0.062	-0.113
-311.939	-200.000	-0.029	-0.163
-310.924	24.618	-0.204	-0.167
-309.910	435.938	0.154	-0.332
-308.895	92.197	-0.334	-0.374
-307.880	141.860	-0.077	0.101
-306.866	120.100	0.097	0.119
-305.851	49.347	0.061	0.057
-304.837	120.258	-0.176	0.217
-303.822	-66.053	-0.123	-0.049
-302.807	424.009	-0.071	-0.151
-301.793	440.482	0.064	-0.138
-300.778	-24.511	0.205	-0.121
-299.764	-13.242	-0.229	-0.147
-298.749	-78.853	-0.187	0.063
-297.735	-200.000	0.025	0.148
-296.720	-200.000	-0.031	0.142
-295.705	634.213	0.127	0.319
-294.691	800.000	0.125	-0.407
-293.676	-68.160	0.052	0.020
-292.662	-200.000	-0.006	0.329
-291.647	12.902	0.123	-0.094
-290.632	7.007	-0.187	-0.138
-289.618	707.858	-0.060	0.158
-288.603	91.413	-0.023	0.026
-287.589	-200.000	0.005	-0.270
-286.574	800.000	-0.036	-0.145
-285.559	-149.643	0.211	-0.016
-284.545	-200.000	-0.034	0.280
-283.530	-62.174	0.231	-0.096
-282.516	-23.518	-0.375	-0.223
-281.501	-133.306	0.109	0.014
-280.486	-109.859	0.208	-0.043
-279.472	62.587	-0.057	-0.056
-278.457	58.595	0.077	0.075
-277.443	-200.000	-0.027	-0.261
-276.428	-149.454	0.221	0.017
-275.413	121.974	-0.144	-0.178
-274.399	-36.246	0.114	-0.061
-273.384	41.105	0.187	-0.168
-272.370	-115.056	-0.303	-0.057
-271.355	-92.116	0.206	-0.058
-270.340	-200.000	0.015	0.145
-269.326	399.144	0.081	0.168
-268.311	568.034	-0.083	-0.200
-267.297	-139.236	0.224	0.024
-266.282	-86.265	0.222	-0.068
-265.267	-200.000	-0.002	-0.090
-264.253	-126.444	0.231	0.034
-263.238	800.000	0.040	0.133
-262.224	800.000	-0.067	-0.198
-261.209	385.702	-0.115	-0.234
-260.195	800.000	0.107	-0.334
-259.180	-64.547	0.136	-0.055
-258.165	-171.762	0.424	0.014
-257.151	800.000	0.131	0.366
-256.136	49.217	-0.135	-0.126
-255.122	-62.494	-0.307	-0.126
-254.107	-200.000	-0.016	0.164
-253.092	-200.000	-0.013	0.116
-252.078	-128.108	0.346	0.049
-251.063	33.883	0.105	0.090
-250.049	-58.241	-0.313	-0.135
-249.034	-45.878	0.293	0.143
-248.019	-59.604	-0.057	0.024
-247.005	-65.505	0.331	0.132
-245.990	269.604	-0.083	-0.144
-244.976	-31.365	0.230	-0.128
-243.961	101.559	0.125	0.144
-242.946	730.719	-0.045	-0.118
-241.932	213.571	-0.022	-0.034
-240.917	212.965	0.149	0.233
-239.903	-200.000	0.033	0.369
-238.888	800.000	0.059	-0.182
-237.873	-105.436	0.203	0.046
-236.859	-200.000	-0.008	0.112
-235.844	-76.186	0.123	-0.043
-234.830	-94.295	0.107	-0.029
-233.815	-33.689	-0.176	0.096
-232.800	-141.621	0.191	-0.019
-231.786	800.000	-0.050	0.147
-230.771	-101.158	-0.179	0.043
-229.757	86.931	0.266	-0.291
-228.742	-200.000	-0.035	0.156
-227.727	-190.805	0.142	-0.001
-226.713	25.048	0.217	0.178
-225.698	-137.973	-0.187	-0.021
-224.684	-98.632	0.051	0.013
-223.669	800.000	-0.074	-0.213
-222.655	48.063	0.179	-0.166
-221.640	19.812	0.378	0.301
-220.625	-89.757	-0.359	0.104
-219.611	-103.362	0.059	0.014
-218.596	796.998	0.118	0.322
-217.582	27.815	0.081	0.067
-216.567	-154.560	0.070	-0.005
-215.552	-93.074	-0.276	-0.076
-214.538	190.561	-0.119	-0.178
-213.523	-121.763	-0.277	-0.045
-212.509	95.614	-0.062	-0.070
-211.494	-94.865	0.218	0.058
-210.479	52.484	-0.402	-0.379
-209.465	366.974	0.146	0.292
-208.450	-10.975	-0.039	-0.025
-207.436	800.000	-0.017	-0.056
-206.421	706.207	-0.104	0.272
-205.406	-200.000	0.026	0.210
-204.392	566.035	0.129	-0.309
-203.377	788.436	0.034	0.091
-202.363	800.000	0.057	0.228
-201.348	131.574	0.233	-0.296
-200.333	270.973	0.130	-0.225
-199.319	-200.000	0.006	0.036
-198.304	503.995	-0.125	0.286
-197.290	-109.745	-0.305	0.063
-196.275	70.847	0.177	0.181
-195.260	686.498	0.134	0.345
-194.246	-200.000	-0.010	-0.304
-193.231	-78.193	0.570	-0.194
-192.217	-32.991	-0.125	-0.069
-191.202	144.914	-0.297	-0.392
-190.187	-16.136	0.451	0.283
-189.173	-50.321	0.156	0.073
-188.158	164.604	0.230	0.320
-187.144	55.489	-0.172	-0.165
-186.129	224.006	0.113	-0.180
-185.114	-94.372	-0.249	-0.067
-184.100	19.155	-0.067	-0.053
-183.085	286.095	-0.112	0.199
-182.071	-200.000	-0.005	-0.154
-181.056	153.413	-0.023	-0.031
-180.042	23.588	0.182	0.148
-179.027	-200.000	0.051	0.258
-178.012	21.878	-0.081	-0.065
-176.998	342.153	0.129	0.249
-175.983	-171.821	0.097	-0.003
-174.969	-32.697	0.188	0.103
-173.954	-53.633	-0.487	0.220
-172.939	-200.000	0.048	0.377
-171.925	396.125	0.128	0.264
-170.910	-200.000	0.002	-0.240
-169.896	219.239	0.068	-0.108
-168.881	229.344	-0.074	0.119
-167.866	-160.024	-0.312	-0.017
-166.852	-15.826	0.356	0.224
-165.837	-92.356	0.152	-0.042
-164.823	-152.190	-0.023	-0.002
-163.808	-122.182	0.189	0.031
-162.793	105.886	-0.064	0.074
-161.779	-48.431	-0.177	-0.084
-160.764	181.499	0.033	0.048
-159.750	-106.396	-0.282	0.062
-158.735	-200.000	0.032	0.206
-157.720	-75.380	-0.276	0.097
-156.706	-200.000	0.074	0.445
-155.691	247.365	0.158	0.262
-154.677	-200.000	-0.042	0.216
-153.662	-200.000	0.003	-0.197
-152.647	-200.000	-0.023	0.189
-151.633	189.622	-0.096	0.142
-150.618	-97.204	-0.148	-0.038
-149.604	-200.000	-0.068	0.394
-148.589	39.559	0.328	-0.290
-147.574	213.978	-0.034	0.053
-146.560	-110.281	0.214	-0.044
-145.545	37.621	0.103	0.090
-144.531	-50.652	0.315	-0.146
-143.516	-81.883	0.269	-0.087
-142.502	-18.091	-0.272	0.168
-141.487	-22.213	0.282	-0.169
-140.472	-17.852	0.113	0.070
-139.458	-200.000	0.038	0.195
-138.443	-200.000	0.013	-0.113
-137.429	-81.459	0.195	-0.063
-136.414	-76.074	-0.199	-0.069
-135.399	800.000	0.045	-0.139
-134.385	-116.351	0.074	0.013
-133.370	-83.303	0.398	0.126
-132.356	-5.466	0.152	0.103
-131.341	78.315	-0.057	0.060
-130.326	535.121	-0.073	-0.171
-129.312	-117.411	-0.185	-0.033
-128.297	-98.445	-0.321	0.081
-127.283	-48.876	-0.204	0.096
-126.268	-63.820	-0.322	0.130
-125.253	-200.000	-0.023	0.206
-124.239	800.000	-0.082	0.331
-123.224	225.731	0.224	-0.358
-122.210	70.290	-0.208	0.211
-121.195	-105.844	0.166	-0.037
-120.180	11.739	0.513	0.388
-119.166	-200.000	-0.009	-0.110
-118.151	-200.000	0.252	0.001
-117.137	-200.000	-0.020	0.264
-116.122	-167.607	-0.113	0.004
-115.107	-200.000	-0.037	0.246
-114.093	46.230	0.083	-0.076
-113.078	800.000	-0.089	0.253
-112.064	9.246	-0.135	-0.101
-111.049	-99.540	-0.245	-0.061
-110.034	173.677	-0.202	0.288
-109.020	-84.484	-0.341	-0.106
-108.005	-200.000	-0.041	-0.249
-106.991	-200.000	0.178	-0.001
-105.976	-93.062	-0.091	0.025
-104.962	12.621	0.160	0.122
-103.947	588.412	0.072	-0.174
-102.932	191.986	0.132	0.197
-101.918	-175.438	-0.193	-0.005
-100.903	800.000	0.093	0.311
-99.889	38.584	0.266	-0.233
-98.874	109.886	-0.185	0.218
-97.859	-200.000	-0.006	0.308
-96.845	-157.753	-0.233	0.014
-95.830	590.096	0.070	0.169
-94.816	105.915	0.151	0.176
-93.801	-23.696	-0.224	0.132
-92.786	-24.703	-0.439	0.257
-91.772	-18.653	-0.135	0.083
-90.757	86.337	-0.196	-0.213
-89.743	578.054	-0.026	0.062
-88.728	-200.000	-0.009	-0.168
-87.713	-14.142	0.066	0.042
-86.699	-7.211	0.121	0.081
-85.684	-22.766	0.144	0.085
-84.670	-45.747	-0.118	0.057
-83.655	-124.931	0.173	0.026
-82.640	155.256	0.153	-0.207
-81.626	172.157	0.135	-0.191
-80.611	800.000	0.068	0.221
-79.597	-153.683	0.182	0.012
-78.582	520.521	0.087	-0.201
-77.567	-200.000	0.028	0.258
-76.553	-81.637	-0.157	0.051
-75.538	-83.780	0.157	0.049
-74.524	162.663	-0.161	-0.222
-73.509	-106.435	0.269	-0.059
-72.494	-93.509	0.103	0.028
-71.480	-200.000	-0.015	-0.106
-70.465	62.098	-0.287	0.281
-69.451	800.000	0.051	0.160
-68.436	-142.493	0.144	0.014
-67.422	-200.000	-0.011	0.452
-66.407	364.925	-0.023	-0.045
-65.392	-200.000	0.035	-0.194
-64.378	-54.613	0.048	-0.022
-63.363	-15.278	-0.123	0.077
-62.349	-200.000	-0.036	0.286
-61.334	6.167	-1.365	-0.995
-60.319	335.579	0.448	0.854
-59.305	464.541	-0.399	-0.877
-58.290	401.073	0.595	1.227
-57.276	183.868	0.835	1.214
-56.261	-200.000	102.655	595.136
-55.246	554.600	1434.296	3390.730
-54.232	187.128	2622.564	3841.554
-53.217	115.814	2169.784	2608.179
-52.203	41.306	1698.775	1509.255
-51.188	33.848	1507.306	1288.730
-50.173	31.353	1480.674	1249.254
-49.159	51.937	1533.889	1434.761
-48.144	53.054	1551.238	1458.539
-47.130	34.111	1508.247	1291.111
-46.115	30.926	1493.509	1257.002
-45.100	30.659	1490.235	1252.398
-44.086	30.746	1487.905	1250.979
-43.071	30.629	1485.866	1248.429
-42.057	30.620	1484.421	1247.102
-41.042	30.634	1482.904	1245.871
-40.027	30.512	1481.874	1244.140
-39.013	30.663	1480.155	1243.660
-37.998	30.564	1479.131	1242.088
-36.984	30.605	1477.571	1241.003
-35.969	30.689	1476.076	1240.257
-34.954	30.653	1474.229	1238.416
-33.940	30.582	1473.319	1237.131
-32.925	30.591	1472.072	1236.091
-31.911	30.772	1470.539	1235.961
-30.896	30.705	1469.184	1234.330
-29.881	30.854	1468.093	1234.348
-28.867	30.713	1466.784	1232.264
-27.852	30.620	1465.674	1230.666
-26.838	30.687	1464.337	1229.939
-25.823	30.746	1462.820	1229.005
-24.809	30.688	1461.101	1227.129
-23.794	30.599	1459.604	1225.242
-22.779	30.664	1458.343	1224.560
-21.765	30.619	1457.853	1223.804
-20.750	30.556	1456.593	1222.281
-19.736	30.600	1455.435	1221.554
-18.721	30.620	1454.195	1220.595
-17.706	30.589	1453.315	1219.606
-16.692	30.577	1452.141	1218.492
-15.677	30.541	1451.388	1217.576
-14.663	30.607	1449.609	1216.465
-13.648	30.567	1449.181	1215.800
-12.633	30.644	1448.173	1215.404
-11.619	30.622	1447.086	1214.301
-10.604	30.656	1446.434	1213.929
-9.590	30.522	1445.889	1212.551
-8.575	30.661	1444.631	1212.351
-7.560	30.528	1444.071	1210.970
-6.546	30.586	1442.821	1210.249
-5.531	30.599	1442.152	1209.721
-4.517	30.522	1441.843	1208.918
-3.502	30.618	1440.329	1208.225
-2.487	30.638	1439.037	1207.222
-1.473	30.496	1438.399	1205.718
-0.458	30.627	1436.660	1205.057
0.556	29.569	1427.628	1194.263
1.571	26.750	1402.417	1155.135
2.586	23.349	1344.280	1086.338
3.600	21.668	1263.496	1011.264
4.615	20.461	1217.724	967.823
5.629	17.885	1162.191	909.892
6.644	10.909	1080.865	811.446
7.659	5.773	1043.287	758.376
8.673	5.142	1037.918	751.372
9.688	4.976	1034.714	748.189
10.702	4.903	1033.126	746.625
11.717	4.878	1031.174	745.029
12.731	7.053	1032.399	756.253
13.746	13.504	1041.910	794.180
14.761	18.298	1047.737	821.614
15.775	18.517	1047.086	822.080
16.790	17.582	1044.658	815.628
17.804	16.448	1043.043	808.871
18.819	15.665	1040.686	803.234
19.834	15.231	1039.331	800.045
20.848	14.970	1038.603	798.165
21.863	14.580	1038.205	795.933
22.877	14.302	1037.377	793.899
23.892	14.226	1036.344	792.678
24.907	14.172	1035.526	791.726
25.921	14.143	1034.957	791.081
26.936	14.171	1034.025	790.432
27.950	14.288	1032.752	789.945
28.965	14.322	1031.812	789.316
29.980	14.292	1030.782	788.317
30.994	14.414	1029.609	787.929
32.009	14.328	1029.026	787.005
33.023	14.494	1028.025	786.955
34.038	14.550	1027.167	786.491
35.053	14.482	1026.170	785.336
36.067	14.448	1025.020	784.227
37.082	14.335	1024.575	783.286
38.096	14.393	1023.488	782.658
39.111	14.311	1022.768	781.655
40.126	14.475	1021.576	781.441
41.140	14.244	1021.295	780.077
42.155	14.150	1019.972	778.556
43.169	14.047	1018.946	777.222
44.184	14.162	1017.337	776.465
45.199	14.085	1016.985	775.768
46.213	14.040	1015.947	774.699
47.228	14.029	1014.776	773.684
48.242	14.284	1014.083	774.274
49.257	14.247	1012.806	773.059
50.271	14.205	1011.905	772.110
51.286	14.331	1011.192	772.077
52.301	14.314	1010.233	771.198
53.315	14.265	1010.084	770.790
54.330	14.294	1008.976	770.014
55.344	14.204	1007.800	768.632
56.359	14.262	1006.757	768.035
57.374	14.133	1005.850	766.678
58.388	14.039	1005.461	765.881
59.403	14.207	1004.306	765.708
60.417	14.131	1003.991	765.049
61.432	14.001	1003.109	763.713
62.447	14.066	1002.620	763.572
63.461	13.946	1001.443	762.057
64.476	14.072	1000.382	761.761
65.490	14.021	999.427	760.732
66.505	14.069	998.860	760.452
67.520	13.955	998.214	759.375
68.534	13.996	997.396	758.872
69.549	14.066	996.656	758.560
70.563	14.002	995.780	757.535
71.578	13.968	995.142	756.827
72.593	13.908	994.382	755.908
73.607	13.874	993.362	754.912
74.622	13.915	992.533	754.401
75.636	13.925	991.048	753.254
76.651	14.002	990.318	752.981
77.666	13.922	990.079	752.368
78.680	14.045	989.518	752.434
79.695	13.937	988.895	751.403
80.709	13.911	988.340	750.795
81.724	14.075	987.591	750.905
82.739	14.043	986.831	750.113
83.753	14.057	986.311	749.715
84.768	14.179	985.513	749.593
85.782	14.323	984.606	749.484
86.797	14.396	984.235	749.465
87.812	14.371	983.028	748.368
88.826	14.416	982.112	747.805
89.841	14.209	982.069	746.776
90.855	14.307	980.969	746.312
91.870	14.392	980.110	745.977
92.884	14.462	979.377	745.665
93.899	14.358	978.389	744.381
94.914	14.451	977.890	744.352
95.928	14.561	977.132	744.200
96.943	14.546	976.593	743.656
97.957	14.325	975.418	741.709
98.972	14.413	974.461	741.309
99.987	14.278	974.212	740.455
101.001	14.356	973.729	740.369
102.016	14.401	972.675	739.700
103.030	14.325	971.682	738.542
104.045	14.371	970.944	738.118
105.060	14.319	969.844	736.988
106.074	14.372	968.891	736.435
107.089	14.337	968.077	735.595
108.103	14.051	967.556	733.870
109.118	14.090	966.309	733.035
110.133	13.997	965.890	732.243
111.147	14.069	964.712	731.600
112.162	14.085	963.816	730.926
113.176	14.115	963.082	730.436
114.191	14.191	962.258	730.080
115.206	14.197	961.345	729.349
116.220	14.073	961.050	728.516
117.235	14.230	959.763	728.165
118.249	14.204	958.707	727.185
119.264	14.176	958.179	726.599
120.279	14.002	957.513	725.269
121.293	14.095	956.799	725.069
122.308	14.195	956.017	724.850
123.322	14.195	954.569	723.685
124.337	13.980	954.272	722.463
125.352	14.002	953.018	721.547
126.366	14.043	951.928	720.833
127.381	14.045	950.812	719.933
128.395	13.953	950.311	719.094
129.410	14.126	948.901	718.711
130.424	14.121	948.648	718.432
131.439	14.030	947.762	717.305
132.454	14.133	946.717	716.895
133.468	14.239	945.831	716.616
134.483	14.192	945.426	716.045
135.497	14.205	944.858	715.606
136.512	14.174	944.039	714.792
137.527	14.273	943.064	714.413
138.541	14.136	942.378	713.243
139.556	14.144	942.035	712.954
140.570	14.209	940.988	712.376
141.585	14.256	940.064	711.815
142.600	14.335	939.610	711.745
143.614	14.458	938.743	711.553
144.629	14.448	938.117	710.970
145.643	14.453	937.273	710.291
146.658	14.397	936.675	709.538
147.673	14.334	936.019	708.707
148.687	14.306	934.999	707.756
149.702	14.358	933.868	707.056
150.716	14.298	933.057	706.126
151.731	14.192	932.335	705.066
152.746	14.269	931.652	704.814
153.760	14.372	930.734	704.492
154.775	14.337	930.500	704.104
155.789	14.377	929.390	703.372
156.804	14.514	928.753	703.404
157.819	14.429	927.969	702.393
158.833	14.568	927.317	702.420
159.848	14.505	926.955	701.819
160.862	14.635	926.081	701.644
161.877	14.511	925.590	700.686
162.892	14.392	924.585	699.367
163.906	14.433	923.411	698.586
164.921	14.445	922.655	698.006
165.935	14.419	921.814	697.195
166.950	14.399	920.550	696.097
167.964	14.591	919.527	696.063
168.979	14.384	919.098	694.813
169.994	14.477	917.836	694.185
171.008	14.496	916.634	693.294
172.023	14.453	916.748	693.139
173.037	14.534	915.764	692.670
174.052	14.710	914.845	692.646
175.067	14.555	914.302	691.529
176.081	14.665	913.490	691.309
177.096	14.433	912.744	689.724
178.110	14.439	911.942	689.081
179.125	14.587	910.904	688.848
180.140	14.503	910.226	687.928
181.154	14.425	910.140	687.479
182.169	14.438	908.857	686.501
183.183	14.599	908.476	686.815
184.198	14.714	907.804	686.722
185.213	14.682	907.257	686.114
186.227	14.600	906.848	685.408
187.242	14.741	906.052	685.326
188.256	14.711	905.679	684.859
189.271	14.695	904.584	683.904
190.286	14.766	903.959	683.662
191.300	14.774	902.998	682.908
192.315	14.547	902.164	681.290
193.329	14.465	901.739	680.573
194.344	14.449	900.746	679.699
195.359	14.489	900.617	679.703
196.373	14.569	899.933	679.455
197.388	14.657	899.341	679.304
198.402	14.778	898.895	679.402
199.417	14.906	898.712	679.723
200.432	14.907	898.358	679.396
201.446	14.979	897.699	679.133
202.461	15.056	897.272	679.061
203.475	15.108	896.815	678.866
204.490	15.110	896.133	678.297
205.504	15.011	895.016	676.992
206.519	14.893	894.629	676.162
207.534	14.927	893.785	675.602
208.548	14.992	892.662	674.956
209.563	14.811	892.540	674.074
210.577	14.957	891.821	674.059
211.592	14.902	891.048	673.191
212.607	14.951	890.714	673.078
213.621	15.084	889.892	672.932
214.636	15.246	889.086	672.915
215.650	14.955	889.175	671.752
216.665	15.140	887.978	671.531
217.680	15.209	887.623	671.480
218.694	15.100	887.535	670.916
219.709	15.180	886.987	670.764
220.723	15.214	886.401	670.398
221.738	15.214	884.994	669.273
222.753	15.095	884.598	668.441
223.767	15.187	883.986	668.286
224.782	15.170	883.489	667.782
225.796	15.210	882.662	667.257
226.811	15.235	881.903	666.726
227.826	15.532	881.060	667.210
228.840	15.209	880.802	665.671
229.855	15.337	879.880	665.425
230.869	15.222	879.167	664.368
231.884	15.221	878.901	664.107
232.899	15.242	878.145	663.559
233.913	15.227	877.014	662.587
234.928	15.226	876.877	662.422
235.942	15.169	876.172	661.604
236.957	15.130	875.280	660.719
237.972	15.277	874.851	660.915
238.986	15.171	873.894	659.718
240.001	15.248	873.174	659.416
241.015	15.252	872.709	659.022
242.030	15.101	872.331	658.086
243.045	15.403	870.989	658.199
244.059	15.196	871.262	657.536
245.074	15.337	870.481	657.443
246.088	15.482	869.729	657.384
247.103	15.572	868.865	657.025
248.117	15.389	868.799	656.200
249.132	15.539	867.908	656.055
250.147	15.663	867.499	656.172
251.161	15.735	867.052	656.055
252.176	15.684	866.731	655.557
253.190	15.782	865.937	655.280
254.205	15.660	865.544	654.451
255.220	15.849	864.504	654.341
256.234	15.826	863.952	653.775
257.249	15.843	863.404	653.369
258.263	15.900	862.829	653.097
259.278	16.000	862.279	653.009
260.293	15.748	861.957	651.732
261.307	15.897	861.420	651.848
262.322	16.044	860.831	651.910
263.336	16.095	860.054	651.461
264.351	16.029	859.335	650.605
265.366	16.074	858.713	650.251
266.380	16.044	858.612	650.000
267.395	16.029	857.689	649.188
268.409	16.100	856.767	648.703
269.424	16.015	855.838	647.615
270.439	16.075	855.666	647.658
271.453	15.960	854.898	646.581
272.468	15.931	853.970	645.708
273.482	15.884	853.587	645.181
274.497	15.886	853.153	644.804
275.512	16.023	852.194	644.547
276.526	16.022	851.544	643.995
277.541	15.964	851.066	643.355
278.555	15.888	850.367	642.479
279.570	16.116	849.842	642.896
280.585	16.238	849.251	642.855
281.599	16.292	848.768	642.639
282.614	16.101	848.367	641.551
283.628	16.243	847.499	641.378
284.643	16.223	846.723	640.658
285.657	16.104	846.537	640.008
286.672	16.207	845.921	639.877
287.687	16.195	845.283	639.294
288.701	16.130	845.014	638.788
289.716	16.240	844.258	638.574
290.730	16.264	843.638	638.140
291.745	16.323	842.998	637.821
292.760	16.268	842.532	637.205
293.774	16.339	841.895	636.935
294.789	16.342	841.635	636.694
295.803	16.261	841.262	636.050
296.818	16.260	840.307	635.268
297.833	16.313	839.475	634.781
298.847	16.321	838.473	634.000
299.862	16.316	837.998	633.566
300.876	16.412	837.271	633.320
301.891	16.363	837.016	632.885
302.906	16.465	836.140	632.551
303.920	16.488	835.480	632.079
304.935	16.583	834.692	631.784
305.949	16.695	834.146	631.731
306.964	16.728	833.700	631.461
307.979	16.577	832.946	630.270
308.993	16.408	832.906	629.554
310.008	16.629	832.163	629.762
311.022	16.564	831.504	628.965
312.037	16.663	831.397	629.196
313.052	16.592	830.754	628.389
314.066	16.624	830.316	628.121
315.081	16.508	829.747	627.207
316.095	16.527	828.962	626.628
317.110	16.510	828.791	626.380
318.125	16.439	828.001	625.463
319.139	16.536	827.570	625.442
320.154	16.498	827.221	624.982
321.168	16.505	826.386	624.324
322.183	16.578	825.980	624.230
323.197	16.669	825.228	623.943
324.212	16.539	825.116	623.322
325.227	16.564	824.363	622.791
326.241	16.688	823.891	622.835
327.256	16.537	823.511	621.938
328.270	16.544	822.991	621.515
329.285	16.573	822.169	620.948
330.300	16.545	821.377	620.191
331.314	16.587	820.998	620.003
332.329	16.804	820.242	620.171
333.343	16.741	820.009	619.710
334.358	16.692	819.204	618.869
335.373	16.715	818.681	618.502
336.387	16.865	818.221	618.650
337.402	16.866	817.644	618.159
338.416	17.057	816.781	618.151
339.431	16.749	817.101	617.215
340.446	17.000	816.008	617.246
341.460	17.005	815.980	617.191
342.475	17.082	815.292	616.894
343.489	17.112	814.436	616.301
344.504	17.135	814.122	616.093
345.519	17.221	813.543	615.911
346.533	17.296	812.837	615.595
347.548	17.073	812.641	614.584
348.562	17.212	811.750	614.360
349.577	17.151	811.309	613.749
350.592	17.000	810.804	612.768
351.606	16.941	810.200	612.045
352.621	16.908	809.944	611.678
353.635	16.979	809.525	611.565
354.650	17.080	809.176	611.610
355.665	17.082	808.720	611.219
356.679	17.111	808.302	610.951
357.694	17.112	808.080	610.734
358.708	17.211	807.121	610.309
359.723	17.191	806.573	609.770
360.738	17.292	806.131	609.744
361.752	17.215	805.863	609.212
362.767	17.151	805.149	608.387
363.781	17.149	805.287	608.431
364.796	17.385	804.619	608.720
365.810	17.301	804.194	608.042
366.825	17.621	803.382	608.520
367.840	17.513	803.377	608.074
368.854	17.576	802.988	607.950
369.869	17.363	802.524	606.787
370.883	17.505	801.836	606.717
371.898	17.494	801.258	606.190
372.913	17.317	801.110	605.391
373.927	17.524	800.262	605.433
374.942	17.455	799.960	604.906
375.956	17.517	798.760	604.166
376.971	17.512	798.226	603.691
377.986	17.734	797.886	604.166
379.000	17.697	797.484	603.679
380.015	17.609	796.947	602.907
381.029	17.811	796.301	603.079
382.044	17.611	796.096	602.163
383.059	17.737	795.376	602.011
384.073	17.718	794.772	601.432
385.088	17.827	794.122	601.271
386.102	17.768	793.524	600.557
387.117	17.620	793.119	599.677
388.132	17.703	792.638	599.552
389.146	17.725	792.100	599.171
390.161	17.661	791.971	598.796
391.175	17.799	791.392	598.788
392.190	17.706	791.343	598.373
393.205	17.881	790.741	598.478
394.219	17.724	790.083	597.376
395.234	17.692	789.556	596.814
396.248	17.653	789.335	596.457
397.263	17.670	788.765	596.031
398.278	17.671	788.007	595.409
399.292	17.619	787.945	595.128
400.307	17.543	787.466	594.451
401.321	17.589	786.829	594.075
402.336	17.689	786.881	594.413
403.350	17.675	786.343	593.905
404.365	17.706	785.827	593.569
405.380	17.843	785.321	593.613
406.394	17.906	784.892	593.454
407.409	18.090	784.415	593.681
408.423	18.056	784.002	593.198
409.438	18.120	783.605	593.064
410.453	18.063	783.171	592.486
411.467	18.104	782.856	592.341
412.482	18.235	782.377	592.378
413.496	18.293	781.790	592.080
414.511	18.183	781.678	591.564
415.526	18.175	781.469	591.324
416.540	18.243	780.905	591.082
417.555	18.086	780.469	590.157
418.569	18.213	779.848	590.074
419.584	18.135	779.641	589.597
420.599	18.072	779.541	589.252
421.613	157.210	1368.526	1794.415
422.628	135.691	1454.348	1794.500
