DTS Sentinel unit serial number:	SN413079Multiplexer serial number:	ORYXHardware model number:	OX4-SRSoftware version number:	ORYX F/W v4.00 Oryx Data Collector v3.7.2.0data status	okinstallation	princeton_trtdifferential loss correction	single-endedforward channel	channel 3reverse channel	N/Adate	2019/09/13time	19:16:35forward acquisition time	60.00reverse acquisition time	0.00gamma	496.2192k internal	0.2325k external	0.2325temperature offset calibration	1.0093default loss term (dB/km)	0.3790temperature slope calibration	1.0000multiplexer offset coefficient	1.0000multiplexer slope coefficient	1.0000fibre end	0.00T internal ref (°C)	31.25T ext. ref 1 (°C)	3.80T ext. ref 2 (°C)	24.67length (m)	temperature (°C)	Stokes	anti-Stokes-747.200	-157.537	0.437	-0.026
-746.185	115.986	-0.250	0.308
-745.171	-128.221	0.329	0.047
-744.156	-144.467	-0.077	-0.007
-743.142	-149.695	0.268	-0.021
-742.127	-100.374	0.486	0.122
-741.112	27.714	-0.149	-0.127
-740.098	162.601	-0.124	0.175
-739.083	228.060	-0.057	-0.094
-738.069	-48.766	-0.185	0.090
-737.054	116.179	-0.088	0.109
-736.039	-122.216	-0.398	-0.066
-735.025	-117.286	0.079	0.014
-734.010	-134.052	-0.256	-0.032
-732.996	-53.094	0.272	-0.126
-731.981	-177.977	0.212	-0.005
-730.966	177.874	-0.108	0.159
-729.952	-59.397	0.213	-0.093
-728.937	197.263	0.031	-0.048
-727.923	-53.808	-0.240	-0.110
-726.908	-200.000	-0.109	-0.520
-725.894	-4.272	0.119	-0.083
-724.879	381.547	-0.105	0.217
-723.864	-200.000	0.025	-0.133
-722.850	-200.000	0.013	-0.197
-721.835	133.712	0.234	0.306
-720.821	-35.696	0.043	-0.024
-719.806	800.000	0.049	-0.214
-718.791	88.397	-0.205	-0.229
-717.777	-200.000	0.045	-0.482
-716.762	-97.956	-0.741	0.193
-715.748	-107.499	-0.190	-0.042
-714.733	-200.000	0.019	0.087
-713.718	-200.000	0.012	-0.103
-712.704	53.996	0.243	-0.236
-711.689	-200.000	0.001	-0.118
-710.675	800.000	0.086	0.246
-709.660	800.000	0.068	0.239
-708.645	-42.110	0.059	-0.030
-707.631	692.084	-0.064	0.168
-706.616	-109.046	-0.248	-0.053
-705.602	-89.953	0.175	-0.051
-704.587	-80.593	-0.215	0.072
-703.572	-200.000	0.000	-0.053
-702.558	-26.053	-0.418	-0.248
-701.543	-102.728	0.105	-0.025
-700.529	-200.000	-0.011	-0.276
-699.514	-116.704	0.041	-0.008
-698.499	291.208	0.113	0.208
-697.485	-35.096	0.084	-0.046
-696.470	800.000	-0.089	0.309
-695.456	358.187	0.144	-0.289
-694.441	17.439	0.176	0.141
-693.426	-184.951	0.137	0.002
-692.412	624.570	-0.047	0.119
-691.397	270.538	0.099	-0.175
-690.383	-200.000	-0.008	-0.110
-689.368	-26.180	0.172	-0.102
-688.354	-143.516	0.258	-0.025
-687.339	-71.048	-0.227	-0.086
-686.324	800.000	0.130	-0.406
-685.310	429.525	0.115	-0.249
-684.295	800.000	-0.064	0.274
-683.281	-200.000	0.019	0.227
-682.266	-64.927	-0.137	0.056
-681.251	39.142	0.102	0.092
-680.237	642.065	0.014	-0.037
-679.222	583.108	0.073	-0.181
-678.208	-116.589	-0.139	-0.026
-677.193	-184.126	0.242	-0.004
-676.178	60.835	0.166	0.166
-675.164	58.078	-0.136	0.134
-674.149	-6.784	-0.218	0.149
-673.135	-200.000	0.064	0.342
-672.120	9.634	0.155	0.118
-671.105	-37.919	-0.392	-0.210
-670.091	-159.474	0.289	-0.016
-669.076	-176.365	-0.356	0.009
-668.062	83.772	-0.085	0.093
-667.047	-135.936	-0.084	0.010
-666.032	800.000	0.102	-0.340
-665.018	541.270	-0.016	-0.039
-664.003	-180.678	0.131	-0.003
-662.989	-200.000	0.011	-0.159
-661.974	62.007	0.169	-0.169
-660.959	-55.507	0.287	0.129
-659.945	-154.268	0.366	-0.025
-658.930	-124.423	0.307	-0.048
-657.916	69.475	0.139	-0.144
-656.901	187.588	0.258	0.387
-655.886	34.129	0.161	0.141
-654.872	117.842	0.111	-0.137
-653.857	-107.353	-0.091	0.020
-652.843	75.101	0.249	0.264
-651.828	-200.000	0.012	-0.410
-650.814	-200.000	0.012	-0.081
-649.799	800.000	0.024	0.091
-648.784	-55.027	-0.080	-0.036
-647.770	-200.000	0.008	0.036
-646.755	-40.730	-0.130	0.068
-645.741	261.889	-0.116	-0.202
-644.726	20.065	0.348	0.282
-643.711	689.689	-0.102	-0.268
-642.697	-71.088	-0.165	-0.062
-641.682	96.913	0.263	-0.303
-640.668	-55.327	-0.255	-0.115
-639.653	-29.233	-0.067	0.039
-638.638	-39.296	-0.201	0.106
-637.624	-49.171	-0.092	0.044
-636.609	-83.652	0.399	0.128
-635.595	-200.000	0.003	-0.191
-634.580	-52.860	-0.315	0.146
-633.565	-179.012	0.229	0.005
-632.551	-200.000	0.026	0.185
-631.536	-200.000	-0.045	0.314
-630.522	53.951	-0.160	0.155
-629.507	-200.000	-0.029	-0.248
-628.492	-200.000	0.061	0.327
-627.478	37.018	-0.096	0.086
-626.463	32.330	0.154	-0.134
-625.449	-200.000	-0.009	0.095
-624.434	189.494	0.044	0.067
-623.419	305.511	-0.068	-0.127
-622.405	182.863	0.010	-0.014
-621.390	122.532	0.182	0.228
-620.376	-8.873	-0.292	0.197
-619.361	90.521	-0.064	0.072
-618.346	215.194	0.140	-0.223
-617.332	113.089	-0.280	-0.341
-616.317	-200.000	-0.050	-0.263
-615.303	151.636	-0.223	0.306
-614.288	-86.542	-0.269	0.083
-613.273	2.906	-0.310	0.226
-612.259	-138.025	0.136	0.015
-611.244	25.241	-0.154	-0.128
-610.230	-67.454	-0.273	0.108
-609.215	83.168	0.287	-0.314
-608.201	-200.000	-0.005	-0.228
-607.186	17.098	-0.047	0.038
-606.171	-200.000	-0.010	0.119
-605.157	78.859	-0.361	-0.388
-604.142	-200.000	0.052	-0.257
-603.128	-57.967	-0.136	-0.059
-602.113	-177.592	-0.186	0.005
-601.098	-59.074	-0.252	-0.109
-600.084	-79.499	-0.028	-0.010
-599.069	800.000	-0.118	-0.437
-598.055	163.258	-0.117	0.165
-597.040	-200.000	0.287	-0.001
-596.025	514.793	-0.081	0.190
-595.011	238.917	-0.220	-0.366
-593.996	245.281	0.196	0.332
-592.982	-192.385	0.234	0.002
-591.967	-144.612	-0.153	0.014
-590.952	465.656	0.050	0.113
-589.938	-26.980	0.282	0.165
-588.923	-140.580	0.070	-0.007
-587.909	438.725	0.127	-0.278
-586.894	-130.726	0.338	0.046
-585.879	7.857	0.031	-0.023
-584.865	-200.000	-0.022	0.155
-583.850	-27.313	0.154	-0.090
-582.836	81.610	-0.071	0.077
-581.821	-115.506	-0.311	0.059
-580.806	-200.000	0.027	0.428
-579.792	-200.000	-0.011	-0.195
-578.777	-95.338	-0.188	-0.051
-577.763	800.000	0.067	0.199
-576.748	-200.000	-0.018	-0.256
-575.733	278.369	-0.089	-0.159
-574.719	800.000	0.011	0.039
-573.704	667.005	-0.018	-0.047
-572.690	-106.591	0.350	-0.078
-571.675	75.029	-0.071	0.075
-570.661	339.625	-0.071	-0.139
-569.646	253.887	-0.163	0.280
-568.631	6.991	0.042	0.032
-567.617	-200.000	0.005	-0.172
-566.602	-200.000	0.020	0.164
-565.588	800.000	0.023	0.073
-564.573	-37.789	0.079	-0.042
-563.558	-15.373	0.347	0.222
-562.544	-73.983	0.274	0.099
-561.529	-191.115	0.382	0.004
-560.515	150.275	-0.142	0.193
-559.500	-200.000	0.064	0.299
-558.485	337.207	0.027	-0.053
-557.471	274.839	-0.086	-0.152
-556.456	-40.610	-0.300	-0.156
-555.442	-60.683	0.119	-0.051
-554.427	-22.666	-0.383	0.232
-553.412	0.780	0.234	0.168
-552.398	-50.530	0.123	-0.058
-551.383	-133.194	0.197	-0.025
-550.369	-66.360	-0.148	0.059
-549.354	-200.000	-0.002	0.189
-548.339	4.336	-0.112	-0.082
-547.325	22.437	0.081	0.066
-546.310	145.468	-0.098	-0.131
-545.296	273.169	-0.071	-0.125
-544.281	71.130	0.117	0.121
-543.266	-200.000	-0.068	0.527
-542.252	-200.000	0.005	-0.097
-541.237	169.334	-0.054	0.078
-540.223	215.571	0.083	-0.131
-539.208	-70.703	-0.397	-0.150
-538.193	-49.721	0.150	-0.072
-537.179	-26.730	-0.278	-0.163
-536.164	-200.000	0.024	0.308
-535.150	48.577	-0.280	0.263
-534.135	-56.642	-0.017	0.008
-533.121	-200.000	-0.029	0.289
-532.106	-73.770	-0.090	0.033
-531.091	14.621	-0.307	-0.240
-530.077	-120.975	-0.215	0.036
-529.062	-200.000	0.024	0.389
-528.048	-37.085	0.153	0.082
-527.033	31.272	-0.110	0.094
-526.018	-54.102	-0.091	0.042
-525.004	26.400	0.185	-0.155
-523.989	800.000	-0.028	-0.104
-522.975	-127.306	-0.230	-0.034
-521.960	-104.259	-0.197	0.046
-520.945	-56.705	-0.493	-0.218
-519.931	-46.374	0.080	0.039
-518.916	167.475	-0.078	-0.110
-517.902	79.195	0.114	-0.122
-516.887	614.762	0.081	0.203
-515.872	734.879	-0.082	-0.220
-514.858	-200.000	0.053	-0.236
-513.843	800.000	0.033	-0.115
-512.829	24.950	-0.202	-0.168
-511.814	-115.731	0.313	-0.059
-510.799	69.123	-0.115	-0.118
-509.785	-200.000	0.068	-0.360
-508.770	-29.994	0.108	-0.061
-507.756	323.535	-0.141	0.269
-506.741	433.056	-0.033	0.071
-505.726	78.607	-0.198	0.212
-504.712	53.868	-0.118	-0.113
-503.697	-200.000	0.000	0.170
-502.683	176.007	-0.049	-0.071
-501.668	-100.163	0.243	0.060
-500.653	-4.359	-0.254	-0.175
-499.639	-54.527	-0.328	0.148
-498.624	-95.641	-0.069	-0.018
-497.610	-15.922	0.235	-0.150
-496.595	455.188	-0.221	0.490
-495.581	-200.000	0.002	-0.379
-494.566	-200.000	-0.027	0.330
-493.551	-62.610	0.275	0.114
-492.537	-200.000	-0.020	-0.136
-491.522	66.221	0.152	0.154
-490.508	34.648	0.228	-0.199
-489.493	-73.932	-0.119	0.043
-488.478	349.803	0.081	-0.160
-487.464	-77.187	-0.205	0.071
-486.449	-49.299	0.064	0.031
-485.435	565.057	0.137	0.333
-484.420	252.452	-0.079	0.134
-483.405	595.937	0.025	0.061
-482.391	54.897	-0.300	0.289
-481.376	-200.000	-0.038	0.256
-480.362	800.000	-0.069	-0.264
-479.347	92.928	0.297	0.335
-478.332	-166.334	-0.130	0.005
-477.318	67.215	0.395	0.403
-476.303	800.000	-0.079	0.283
-475.289	-200.000	0.003	0.214
-474.274	-76.866	0.062	0.021
-473.259	-38.035	-0.244	-0.129
-472.245	-200.000	0.012	0.208
-471.230	-170.992	0.331	0.011
-470.216	800.000	0.173	-0.479
-469.201	11.442	-0.248	0.190
-468.186	-124.318	-0.287	0.045
-467.172	68.078	-0.088	0.090
-466.157	-200.000	-0.040	0.315
-465.143	-17.938	-0.226	0.141
-464.128	-200.000	0.027	-0.237
-463.113	-200.000	0.027	-0.143
-462.099	104.231	-0.076	-0.089
-461.084	526.220	-0.094	-0.222
-460.070	274.912	0.122	-0.216
-459.055	-200.000	-0.025	-0.110
-458.040	105.994	-0.060	0.071
-457.026	800.000	0.110	-0.312
-456.011	800.000	-0.026	0.084
-454.997	173.534	0.238	0.343
-453.982	249.113	-0.134	0.226
-452.968	800.000	-0.133	-0.454
-451.953	-110.478	-0.128	-0.026
-450.938	-8.076	0.205	0.138
-449.924	75.204	-0.072	0.075
-448.909	607.660	-0.105	0.261
-447.895	133.146	-0.182	0.234
-446.880	-95.064	0.095	0.026
-445.865	-124.295	0.065	-0.010
-444.851	-200.000	-0.017	-0.134
-443.836	-54.740	0.339	-0.153
-442.822	-17.363	-0.178	0.112
-441.807	-152.359	0.420	-0.030
-440.792	175.498	-0.045	-0.065
-439.778	800.000	0.116	0.422
-438.763	-180.337	-0.199	0.004
-437.749	-5.366	0.210	-0.144
-436.734	93.494	-0.211	-0.238
-435.719	-200.000	0.000	-0.135
-434.705	608.540	-0.108	-0.269
-433.690	229.050	0.109	-0.177
-432.676	-159.349	0.407	0.023
-431.661	-200.000	-0.052	-0.263
-430.646	-137.823	0.251	0.028
-429.632	800.000	-0.068	0.223
-428.617	-103.012	0.352	-0.083
-427.603	91.104	0.118	0.132
-426.588	-130.402	-0.087	0.012
-425.573	-46.989	0.072	0.035
-424.559	-88.740	0.328	-0.097
-423.544	-55.994	-0.222	-0.098
-422.530	451.747	-0.073	-0.160
-421.515	800.000	0.088	-0.354
-420.500	-200.000	0.012	0.222
-419.486	-200.000	0.044	0.341
-418.471	-113.420	0.285	-0.056
-417.457	-200.000	0.097	0.509
-416.442	-92.529	0.028	0.008
-415.428	-168.452	0.134	-0.005
-414.413	21.092	-0.297	0.240
-413.398	-132.881	-0.018	-0.002
-412.384	-1.000	0.225	-0.158
-411.369	-76.028	0.205	-0.072
-410.355	180.445	0.090	-0.132
-409.340	42.174	0.159	-0.144
-408.325	-37.254	-0.086	0.046
-407.311	-90.642	-0.188	0.054
-406.296	-135.519	-0.046	-0.006
-405.282	435.015	0.035	0.076
-404.267	75.890	-0.207	0.218
-403.252	306.208	0.040	0.075
-402.238	0.307	-0.086	-0.061
-401.223	-61.713	0.179	-0.075
-400.209	-147.189	-0.154	-0.013
-399.194	-102.041	-0.139	-0.033
-398.179	-49.429	-0.293	-0.139
-397.165	-200.000	-0.014	-0.083
-396.150	-200.000	0.041	-0.349
-395.136	60.342	-0.239	0.235
-394.121	-159.693	-0.457	-0.025
-393.106	-200.000	-0.028	-0.176
-392.092	624.544	0.087	0.219
-391.077	-200.000	0.428	-0.000
-390.063	-43.087	-0.069	-0.035
-389.048	-52.601	-0.129	0.059
-388.033	-11.907	-0.044	0.028
-387.019	13.733	0.158	-0.123
-386.004	-56.254	-0.375	-0.166
-384.990	455.857	0.049	-0.109
-383.975	-200.000	0.019	-0.132
-382.960	800.000	0.032	-0.093
-381.946	-30.319	0.291	0.165
-380.931	-200.000	0.021	0.110
-379.917	-58.443	0.280	-0.121
-378.902	45.578	0.151	0.139
-377.888	-200.000	-0.032	-0.251
-376.873	-174.088	-0.121	0.004
-375.858	-200.000	-0.003	0.151
-374.844	184.391	0.243	-0.359
-373.829	36.162	-0.125	0.109
-372.815	-105.241	-0.010	0.002
-371.800	-10.179	-0.068	-0.045
-370.785	-200.000	-0.013	-0.063
-369.771	-153.349	-0.081	0.006
-368.756	-200.000	0.066	0.324
-367.742	168.818	0.036	0.051
-366.727	-23.490	-0.334	-0.199
-365.712	800.000	-0.087	-0.266
-364.698	-95.879	-0.294	0.078
-363.683	-38.581	-0.115	-0.060
-362.669	-200.000	0.020	0.188
-361.654	161.797	0.270	-0.375
-360.639	-200.000	0.043	-0.315
-359.625	-200.000	-0.022	-0.220
-358.610	40.994	0.041	0.037
-357.596	-108.348	0.081	0.017
-356.581	800.000	0.012	0.033
-355.566	-200.000	0.003	-0.087
-354.552	-122.566	0.297	-0.048
-353.537	681.124	0.065	0.168
-352.523	537.039	-0.057	0.135
-351.508	-163.294	-0.068	0.003
-350.493	-108.011	0.518	-0.112
-349.479	239.554	-0.106	-0.175
-348.464	35.496	-0.064	0.056
-347.450	-88.262	0.079	0.023
-346.435	-65.316	0.248	-0.099
-345.420	291.901	-0.100	-0.181
-344.406	-200.000	0.082	-0.486
-343.391	16.559	-0.121	0.095
-342.377	-32.757	-0.338	0.187
-341.362	7.774	-0.205	-0.152
-340.348	-47.992	-0.084	-0.040
-339.333	14.598	0.136	0.105
-338.318	-200.000	0.011	-0.098
-337.304	-165.097	-0.592	0.026
-336.289	-165.511	0.262	-0.011
-335.275	-101.754	0.160	0.038
-334.260	124.183	0.036	0.044
-333.245	-101.940	-0.319	0.077
-332.231	219.317	-0.143	0.227
-331.216	208.801	0.147	0.229
-330.202	-200.000	0.082	-0.518
-329.187	-188.246	-0.116	0.001
-328.172	272.401	0.051	0.089
-327.158	-128.334	-0.142	0.020
-326.143	182.029	-0.131	-0.191
-325.129	228.072	-0.135	0.218
-324.114	222.135	-0.083	-0.132
-323.099	-43.486	0.417	-0.209
-322.085	-23.200	-0.109	0.065
-321.070	800.000	-0.035	-0.143
-320.056	-152.713	0.172	0.012
-319.041	-14.705	-0.242	0.154
-318.026	800.000	0.072	-0.202
-317.012	-32.222	0.234	-0.129
-315.997	-12.450	-0.095	0.061
-314.983	235.359	0.011	-0.019
-313.968	-117.927	0.161	-0.029
-312.953	443.451	-0.028	0.060
-311.939	-91.099	0.209	-0.060
-310.924	-131.157	-0.024	-0.003
-309.910	3.657	0.176	-0.127
-308.895	-200.000	-0.032	0.304
-307.880	350.689	-0.138	-0.270
-306.866	-52.159	-0.228	0.105
-305.851	-173.963	-0.202	0.006
-304.837	17.922	-0.238	-0.188
-303.822	628.570	-0.144	-0.360
-302.807	-119.133	0.217	0.038
-301.793	-91.029	0.345	-0.098
-300.778	800.000	0.047	-0.185
-299.764	-96.696	-0.317	-0.083
-298.749	-200.000	-0.017	-0.187
-297.735	-71.582	-0.048	-0.018
-296.720	200.871	-0.053	-0.081
-295.705	-56.355	0.280	-0.123
-294.691	-55.971	0.217	0.096
-293.676	276.707	0.084	-0.148
-292.662	-159.460	0.032	0.002
-291.647	-110.860	0.436	-0.089
-290.632	-94.743	0.185	-0.050
-289.618	800.000	0.074	0.259
-288.603	165.122	-0.095	0.132
-287.589	2.195	0.132	0.094
-286.574	-200.000	-0.003	0.094
-285.559	148.994	0.100	-0.134
-284.545	-200.000	-0.034	0.164
-283.530	109.455	-0.142	-0.169
-282.516	239.465	-0.140	0.231
-281.501	72.384	-0.161	-0.166
-280.486	292.804	-0.065	0.117
-279.472	4.600	0.226	0.164
-278.457	800.000	0.090	0.250
-277.443	21.733	0.373	-0.301
-276.428	-51.136	0.166	0.077
-275.413	17.604	-0.298	-0.235
-274.399	-24.546	0.329	-0.194
-273.384	-144.968	0.252	-0.023
-272.370	800.000	-0.023	-0.088
-271.355	33.508	0.207	0.178
-270.340	112.583	0.112	0.134
-269.326	22.775	-0.242	0.196
-268.311	142.982	0.095	0.126
-267.297	123.687	-0.140	0.174
-266.282	7.965	-0.111	-0.083
-265.267	-200.000	-0.022	-0.226
-264.253	-200.000	0.022	0.243
-263.238	-119.219	0.226	-0.039
-262.224	-166.920	-0.201	0.008
-261.209	-91.953	0.092	-0.026
-260.195	62.891	0.117	0.116
-259.180	38.392	0.021	-0.019
-258.165	757.758	0.123	-0.330
-257.151	24.495	-0.070	-0.057
-256.136	112.943	-0.142	-0.170
-255.122	-56.417	-0.206	-0.091
-254.107	-200.000	0.015	-0.210
-253.092	-45.346	0.460	-0.226
-252.078	800.000	-0.098	-0.288
-251.063	515.727	-0.023	-0.054
-250.049	589.998	-0.175	0.426
-249.034	-200.000	0.049	-0.454
-248.019	-72.862	-0.160	-0.058
-247.005	-66.359	-0.275	-0.108
-245.990	-177.085	0.205	-0.005
-244.976	-14.363	0.257	-0.164
-243.961	-48.806	0.282	-0.134
-242.946	-171.439	0.197	0.006
-241.932	-200.000	0.016	-0.154
-240.917	-200.000	0.018	0.114
-239.903	-80.530	-0.298	0.098
-238.888	411.150	0.172	0.361
-237.873	3.993	-0.053	-0.038
-236.859	-200.000	0.023	-0.178
-235.844	-200.000	0.005	-0.068
-234.830	800.000	0.055	-0.193
-233.815	800.000	0.110	-0.327
-232.800	800.000	0.024	0.091
-231.786	223.410	0.093	-0.148
-230.771	-200.000	-0.017	0.084
-229.757	-115.203	0.148	0.028
-228.742	-142.960	-0.087	-0.008
-227.727	704.855	0.079	0.206
-226.713	-62.015	-0.143	-0.059
-225.698	287.289	0.079	-0.141
-224.684	52.061	-0.160	-0.151
-223.669	-138.330	0.260	-0.028
-222.655	-197.070	0.264	-0.002
-221.640	523.507	0.053	0.122
-220.625	800.000	0.076	-0.223
-219.611	-200.000	0.014	0.072
-218.596	-200.000	0.035	-0.184
-217.582	800.000	0.064	0.269
-216.567	800.000	-0.078	0.278
-215.552	-175.498	0.204	0.005
-214.538	-162.876	-0.127	-0.006
-213.523	62.883	-0.084	0.083
-212.509	209.174	0.061	0.095
-211.494	-200.000	0.006	0.097
-210.479	-117.568	-0.307	0.055
-209.465	-141.541	0.351	0.035
-208.450	800.000	-0.081	0.253
-207.436	156.178	0.161	0.220
-206.421	2.249	0.136	-0.097
-205.406	-200.000	0.003	-0.087
-204.392	-200.000	0.080	-0.348
-203.377	6.516	-0.105	-0.077
-202.363	-200.000	-0.063	0.388
-201.348	12.539	-0.142	0.108
-200.333	800.000	-0.058	0.195
-199.319	107.839	0.224	0.264
-198.304	108.706	0.197	0.233
-197.290	-200.000	0.074	0.372
-196.275	20.009	0.140	-0.112
-195.260	101.786	0.110	-0.127
-194.246	458.407	0.101	0.221
-193.231	496.475	0.067	0.152
-192.217	-200.000	-0.003	-0.021
-191.202	800.000	-0.041	0.151
-190.187	-78.517	-0.330	-0.112
-189.173	-124.977	0.161	0.024
-188.158	-154.942	-0.063	0.004
-187.144	-200.000	0.009	0.234
-186.129	-90.398	0.173	0.050
-185.114	-65.904	-0.216	0.085
-184.100	194.459	-0.158	-0.236
-183.085	-200.000	0.006	0.128
-182.071	10.125	-0.356	0.267
-181.056	800.000	0.106	0.418
-180.042	800.000	0.029	0.119
-179.027	159.584	-0.099	0.136
-178.012	135.509	-0.167	-0.214
-176.998	459.810	-0.170	0.373
-175.983	-200.000	0.016	0.152
-174.969	-36.298	0.144	-0.076
-173.954	-135.572	-0.175	-0.021
-172.939	127.040	-0.008	-0.010
-171.925	-174.098	0.105	-0.003
-170.910	-91.767	0.230	-0.065
-169.896	16.995	0.062	0.048
-168.881	800.000	-0.105	-0.335
-167.866	369.754	-0.053	0.106
-166.852	24.253	-0.268	-0.218
-165.837	-64.779	-0.121	0.048
-164.823	-33.081	0.111	-0.061
-163.808	-140.014	-0.282	0.029
-162.793	800.000	-0.059	-0.170
-161.779	425.234	-0.087	0.184
-160.764	-20.948	0.351	-0.212
-159.750	-200.000	-0.060	0.271
-158.735	-115.997	-0.138	-0.025
-157.720	-84.138	-0.014	-0.004
-156.706	695.322	-0.090	-0.232
-155.691	29.821	0.187	-0.157
-154.677	197.395	0.120	-0.180
-153.662	-23.171	0.394	-0.234
-152.647	-200.000	-0.043	0.303
-151.633	800.000	-0.060	0.185
-150.618	262.799	-0.220	-0.377
-149.604	-150.302	0.420	-0.032
-148.589	800.000	-0.028	0.093
-147.574	349.187	-0.082	0.159
-146.560	94.210	0.118	0.133
-145.545	-125.013	-0.137	-0.021
-144.531	562.942	0.050	-0.120
-143.516	-4.201	-0.164	-0.112
-142.502	101.695	0.043	-0.049
-141.487	21.102	0.220	-0.176
-140.472	146.688	0.181	-0.239
-139.458	-200.000	-0.030	0.255
-138.443	-167.937	0.135	-0.005
-137.429	-56.434	0.356	-0.156
-136.414	800.000	-0.038	-0.159
-135.399	-105.923	0.341	0.076
-134.385	59.061	0.195	0.189
-133.370	11.057	-0.139	-0.104
-132.356	150.395	0.175	0.235
-131.341	253.015	-0.118	0.199
-130.326	193.717	-0.131	0.195
-129.312	37.010	0.108	0.094
-128.297	-101.457	-0.258	0.062
-127.283	78.584	-0.251	-0.264
-126.268	-114.510	0.154	0.029
-125.253	-117.827	-0.486	-0.086
-124.239	800.000	0.035	-0.138
-123.224	800.000	-0.077	0.236
-122.210	488.585	-0.190	0.428
-121.195	-200.000	-0.056	0.272
-120.180	-134.884	0.299	0.036
-119.166	138.897	0.080	-0.103
-118.151	800.000	0.074	0.290
-117.137	407.701	-0.153	0.319
-116.122	-27.542	0.254	0.145
-115.107	22.251	-0.048	-0.039
-114.093	541.008	0.058	0.135
-113.078	174.291	0.129	0.183
-112.064	-200.000	0.018	-0.213
-111.049	-200.000	0.042	0.208
-110.034	146.389	-0.053	0.071
-109.020	-76.201	0.166	-0.058
-108.005	8.777	0.242	-0.180
-106.991	-156.260	0.315	-0.019
-105.976	88.712	0.034	0.038
-104.962	-126.214	0.234	0.034
-103.947	259.256	0.091	-0.154
-102.932	11.041	-0.052	-0.039
-101.918	-42.701	0.207	0.104
-100.903	-200.000	0.030	-0.299
-99.889	-200.000	-0.054	0.239
-98.874	-24.593	-0.257	0.151
-97.859	184.543	-0.082	0.119
-96.845	-139.992	0.242	-0.025
-95.830	275.211	-0.068	0.119
-94.816	38.575	-0.057	0.050
-93.801	-200.000	-0.057	0.371
-92.786	260.137	0.184	0.313
-91.772	-200.000	0.039	-0.270
-90.757	461.867	0.098	-0.214
-89.743	84.830	-0.158	0.171
-88.728	-189.826	0.071	-0.001
-87.713	548.718	-0.048	0.114
-86.699	-113.576	0.319	0.061
-85.684	-62.014	0.125	-0.051
-84.670	-116.069	0.261	-0.048
-83.655	566.508	0.095	0.227
-82.640	-3.005	-0.201	-0.138
-81.626	129.377	-0.241	-0.302
-80.611	-115.309	0.054	0.010
-79.597	132.537	-0.332	-0.421
-78.582	-0.223	0.196	-0.137
-77.567	-164.387	0.475	0.021
-76.553	354.046	0.069	0.135
-75.538	-38.552	0.123	-0.064
-74.524	-200.000	-0.006	-0.333
-73.509	-200.000	-0.045	-0.209
-72.494	-167.398	-0.281	0.011
-71.480	112.631	-0.094	0.112
-70.465	-200.000	0.048	0.212
-69.451	0.019	0.150	0.105
-68.436	-43.134	0.061	-0.030
-67.422	191.111	-0.056	-0.082
-66.407	92.795	0.325	-0.361
-65.392	-200.000	0.008	-0.099
-64.378	-200.000	-0.054	0.252
-63.363	-30.800	0.423	-0.235
-62.349	-168.934	0.352	-0.013
-61.334	280.064	-0.388	-0.682
-60.319	373.849	0.449	0.897
-59.305	323.628	-0.507	-0.950
-58.290	199.275	0.682	1.026
-57.276	800.000	0.446	1.441
-56.261	-200.000	102.402	603.129
-55.246	573.921	1424.680	3413.457
-54.232	189.583	2608.346	3841.616
-53.217	115.988	2158.516	2595.426
-52.203	41.866	1694.625	1509.396
-51.188	34.423	1506.555	1291.639
-50.173	32.045	1479.574	1252.614
-49.159	52.709	1533.355	1439.075
-48.144	53.639	1551.022	1461.916
-47.130	34.493	1508.309	1293.416
-46.115	31.405	1493.462	1259.854
-45.100	31.394	1489.549	1256.429
-44.086	31.314	1487.678	1254.270
-43.071	31.202	1486.096	1252.130
-42.057	31.288	1484.241	1251.092
-41.042	31.115	1483.419	1249.196
-40.027	31.226	1481.258	1248.068
-39.013	31.204	1479.769	1246.616
-37.998	31.196	1478.673	1245.591
-36.984	31.162	1477.394	1244.235
-35.969	31.231	1475.789	1243.292
-34.954	31.310	1474.346	1242.557
-33.940	31.221	1473.619	1241.303
-32.925	31.245	1471.913	1239.972
-31.911	31.363	1470.344	1239.387
-30.896	31.407	1469.065	1238.548
-29.881	31.382	1467.905	1237.360
-28.867	31.256	1467.148	1235.835
-27.852	31.321	1465.448	1234.784
-26.838	31.206	1464.321	1233.026
-25.823	31.307	1463.010	1232.543
-24.809	31.346	1460.262	1230.436
-23.794	31.275	1459.438	1229.224
-22.779	31.306	1458.541	1228.622
-21.765	31.249	1457.470	1227.300
-20.750	31.193	1456.779	1226.299
-19.736	31.292	1455.246	1225.612
-18.721	31.287	1454.130	1224.590
-17.706	31.210	1452.819	1222.932
-16.692	31.295	1451.977	1222.732
-15.677	31.252	1450.713	1221.338
-14.663	31.205	1449.842	1220.250
-13.648	31.219	1448.817	1219.428
-12.633	31.246	1448.228	1219.061
-11.619	31.234	1447.346	1218.192
-10.604	31.160	1446.122	1216.632
-9.590	31.241	1445.431	1216.527
-8.575	31.242	1444.878	1216.023
-7.560	31.286	1443.681	1215.253
-6.546	31.158	1442.938	1213.747
-5.531	31.236	1442.509	1213.844
-4.517	31.191	1441.541	1212.688
-3.502	31.178	1440.098	1211.343
-2.487	31.271	1438.980	1210.954
-1.473	31.268	1438.113	1210.157
-0.458	31.315	1436.564	1209.110
0.556	31.881	1426.834	1195.277
1.571	28.198	1400.591	1150.096
2.586	23.889	1338.161	1072.800
3.600	21.835	1256.406	995.519
4.615	20.409	1211.303	951.887
5.629	17.455	1156.148	892.985
6.644	10.277	1075.402	795.396
7.659	4.627	1036.953	740.062
8.673	3.951	1031.398	732.831
9.688	3.815	1028.186	729.840
10.702	3.650	1027.081	728.213
11.717	3.784	1024.968	727.282
12.731	5.713	1026.598	737.457
13.746	12.834	1036.316	778.098
14.761	19.424	1044.073	815.091
15.775	20.628	1045.455	821.792
16.790	20.296	1043.249	818.418
17.804	19.170	1041.800	811.906
18.819	18.163	1039.909	805.619
19.834	17.722	1038.549	802.418
20.848	17.679	1037.808	801.570
21.863	17.576	1037.151	800.509
22.877	17.293	1036.303	798.454
23.892	17.078	1035.635	796.863
24.907	17.132	1034.954	796.518
25.921	17.088	1033.784	795.343
26.936	17.172	1033.198	795.214
27.950	17.120	1032.305	794.213
28.965	17.148	1031.213	793.435
29.980	17.225	1030.166	792.915
30.994	17.348	1029.253	792.717
32.009	17.459	1028.529	792.607
33.023	17.415	1027.796	791.766
34.038	17.535	1026.589	791.326
35.053	17.403	1025.831	790.057
36.067	17.392	1024.804	789.147
37.082	17.217	1024.303	787.879
38.096	17.269	1023.166	787.178
39.111	17.386	1022.486	787.124
40.126	17.380	1021.954	786.617
41.140	17.405	1020.537	785.573
42.155	17.109	1019.565	783.391
43.169	16.869	1018.493	781.390
44.184	16.820	1017.315	780.192
45.199	16.813	1016.028	779.102
46.213	16.776	1015.485	778.446
47.228	16.891	1014.727	778.328
48.242	17.189	1013.622	778.775
49.257	17.203	1013.272	778.503
50.271	17.343	1011.645	777.826
51.286	17.244	1011.266	777.012
52.301	17.296	1010.481	776.577
53.315	17.292	1009.864	776.016
54.330	17.156	1009.058	774.710
55.344	17.029	1008.097	773.321
56.359	17.172	1006.280	772.513
57.374	17.042	1005.912	771.570
58.388	16.997	1005.431	770.925
59.403	16.943	1004.692	770.049
60.417	16.892	1004.029	769.242
61.432	16.916	1002.980	768.477
62.447	16.832	1002.238	767.458
63.461	16.898	1001.000	766.743
64.476	16.768	1000.563	765.751
65.490	16.713	999.136	764.342
66.505	16.841	998.504	764.371
67.520	16.622	998.244	763.115
68.534	16.702	997.621	762.931
69.549	16.850	996.497	762.674
70.563	16.848	995.681	761.971
71.578	16.799	994.723	760.952
72.593	16.625	994.228	759.721
73.607	16.465	993.491	758.374
74.622	16.435	992.348	757.299
75.636	16.588	991.239	757.073
76.651	16.747	990.239	756.952
77.666	16.676	990.138	756.492
78.680	16.639	989.262	755.590
79.695	16.626	988.848	755.146
80.709	16.753	988.005	755.003
81.724	16.916	987.312	755.133
82.739	16.950	986.597	754.668
83.753	16.971	985.793	754.081
84.768	17.146	985.254	754.382
85.782	17.377	984.581	754.825
86.797	17.510	984.319	755.146
87.812	17.557	983.182	754.415
88.826	17.383	981.635	752.394
89.841	17.223	981.311	751.371
90.855	17.349	980.538	751.270
91.870	17.464	979.829	751.165
92.884	17.489	979.109	750.659
93.899	17.441	978.601	749.989
94.914	17.391	977.780	749.076
95.928	17.460	977.213	748.876
96.943	17.609	976.266	748.741
97.957	17.576	975.285	747.779
98.972	17.406	975.140	746.854
99.987	17.431	973.984	746.010
101.001	17.454	973.140	745.402
102.016	17.498	972.332	744.908
103.030	17.356	971.646	743.697
104.045	17.321	970.808	742.834
105.060	17.383	969.787	742.257
106.074	17.306	968.417	740.810
107.089	17.016	968.082	739.222
108.103	16.919	966.655	737.647
109.118	16.921	965.658	736.832
110.133	16.763	965.032	735.601
111.147	16.814	964.296	735.195
112.162	16.781	963.308	734.236
113.176	16.835	962.716	733.954
114.191	17.075	961.593	734.069
115.206	17.065	961.001	733.511
116.220	17.047	959.909	732.533
117.235	16.866	959.325	731.244
118.249	16.936	958.233	730.646
119.264	16.927	957.751	730.174
120.279	16.730	957.466	729.046
121.293	16.730	956.145	727.977
122.308	16.779	955.531	727.654
123.322	16.748	954.219	726.457
124.337	16.565	953.810	725.298
125.352	16.665	952.301	724.516
126.366	16.591	951.352	723.412
127.381	16.606	950.359	722.657
128.395	16.812	948.982	722.421
129.410	16.657	948.448	721.295
130.424	16.797	947.484	721.093
131.439	16.756	946.718	720.270
132.454	16.852	946.422	720.390
133.468	16.949	945.799	720.263
134.483	16.867	944.848	719.128
135.497	16.928	944.195	718.825
136.512	17.015	943.605	718.682
137.527	16.970	942.421	717.524
138.541	16.963	941.866	717.011
139.556	16.975	941.260	716.535
140.570	17.159	940.487	716.661
141.585	17.065	939.843	715.709
142.600	17.218	939.422	715.970
143.614	17.382	938.533	715.919
144.629	17.293	937.847	714.958
145.643	17.511	937.077	715.225
146.658	17.359	936.601	714.162
147.673	17.358	934.851	712.758
148.687	17.203	933.947	711.356
149.702	17.048	933.455	710.273
150.716	17.044	932.367	709.362
151.731	17.099	931.423	708.814
152.746	16.966	930.971	707.851
153.760	16.999	930.059	707.233
154.775	17.173	929.542	707.499
155.789	17.206	928.780	706.997
156.804	17.245	928.232	706.677
157.819	17.287	927.309	706.088
158.833	17.268	927.253	705.903
159.848	17.431	926.259	705.762
160.862	17.479	925.803	705.552
161.877	17.374	925.058	704.486
162.892	17.383	923.647	703.383
163.906	17.109	922.688	701.462
164.921	17.025	922.153	700.643
165.935	17.034	921.302	699.974
166.950	17.037	920.117	699.023
167.964	17.138	919.156	698.646
168.979	17.258	918.135	698.305
169.994	17.233	916.964	697.249
171.008	17.113	916.232	696.138
172.023	17.172	915.855	696.032
173.037	17.310	914.985	695.873
174.052	17.599	914.287	696.464
175.067	17.366	914.055	695.271
176.081	17.299	912.537	693.784
177.096	17.052	912.051	692.346
178.110	16.951	911.312	691.312
179.125	17.121	910.363	691.220
180.140	17.199	909.772	691.030
181.154	17.358	908.743	690.832
182.169	17.240	908.815	690.346
183.183	17.228	908.714	690.159
184.198	17.592	907.398	690.574
185.213	17.550	906.558	689.703
186.227	17.538	906.286	689.387
187.242	17.511	905.994	688.994
188.256	17.521	905.077	688.278
189.271	17.658	904.020	687.967
190.286	17.744	903.456	687.825
191.300	17.531	902.581	686.238
192.315	17.270	901.274	684.133
193.329	16.887	900.829	682.192
194.344	17.030	900.074	682.136
195.359	17.119	899.565	682.048
196.373	17.296	899.273	682.477
197.388	17.481	898.640	682.678
198.402	17.555	898.050	682.466
199.417	17.676	898.152	682.966
200.432	17.949	897.403	683.429
201.446	17.953	896.903	683.005
202.461	18.100	896.354	683.113
203.475	18.064	896.412	682.956
204.490	17.962	895.891	682.090
205.504	17.797	894.967	680.668
206.519	17.673	893.881	679.285
207.534	17.573	893.263	678.360
208.548	17.671	892.092	677.801
209.563	17.555	891.909	677.138
210.577	17.639	890.942	676.679
211.592	17.620	890.553	676.246
212.607	17.819	890.128	676.654
213.621	17.883	889.848	676.636
214.636	17.890	889.329	676.208
215.650	17.910	888.175	675.350
216.665	17.901	887.644	674.853
217.680	17.992	887.198	674.812
218.694	18.228	886.254	674.967
219.709	17.963	886.944	674.383
220.723	17.977	885.914	673.599
221.738	18.048	884.652	672.859
222.753	18.004	884.214	672.291
223.767	17.917	883.594	671.418
224.782	17.966	882.812	670.958
225.796	18.215	882.320	671.501
226.811	18.278	881.727	671.238
227.826	18.252	880.815	670.382
228.840	18.069	879.915	668.924
229.855	17.979	879.579	668.255
230.869	18.096	878.543	667.869
231.884	17.898	878.480	666.984
232.899	17.989	877.518	666.552
233.913	17.883	876.897	665.610
234.928	17.784	875.844	664.366
235.942	17.676	875.537	663.652
236.957	17.772	874.695	663.329
237.972	17.787	873.902	662.726
238.986	17.807	873.524	662.461
240.001	17.815	872.949	661.994
241.015	17.896	871.950	661.493
242.030	17.950	871.686	661.443
243.045	18.049	871.144	661.356
244.059	18.073	870.720	661.071
245.074	18.070	870.062	660.499
246.088	18.051	869.537	659.968
247.103	18.169	868.953	659.921
248.117	18.242	868.136	659.525
249.132	18.268	867.873	659.367
250.147	18.360	867.819	659.622
251.161	18.519	867.450	659.897
252.176	18.828	866.420	660.240
253.190	18.731	865.752	659.302
254.205	18.885	865.417	659.579
255.220	18.898	864.805	659.104
256.234	18.886	863.803	658.237
257.249	18.857	863.058	657.501
258.263	18.767	862.612	656.757
259.278	18.846	862.266	656.736
260.293	18.887	861.486	656.241
261.307	18.859	861.042	655.739
262.322	18.979	860.468	655.701
263.336	19.048	859.839	655.425
264.351	19.061	859.411	655.093
265.366	19.077	858.813	654.638
266.380	19.061	858.039	653.930
267.395	19.121	857.404	653.615
268.409	18.873	856.758	652.126
269.424	18.657	856.385	650.964
270.439	18.879	855.600	651.152
271.453	18.967	854.695	650.739
272.468	18.865	853.772	649.591
273.482	18.733	853.152	648.563
274.497	18.652	852.966	648.059
275.512	18.727	851.914	647.485
276.526	18.747	851.573	647.243
277.541	18.693	850.835	646.422
278.555	18.831	849.993	646.244
279.570	18.814	849.840	646.006
280.585	19.064	849.587	646.699
281.599	19.126	848.958	646.396
282.614	19.102	848.200	645.672
283.628	18.871	847.601	644.290
284.643	18.951	846.998	644.075
285.657	18.839	846.592	643.293
286.672	19.006	846.094	643.482
287.687	18.948	845.856	643.027
288.701	18.932	845.059	642.302
289.716	18.986	844.245	641.830
290.730	18.988	844.031	641.616
291.745	18.955	843.143	640.761
292.760	19.094	842.306	640.585
293.774	19.033	841.984	640.057
294.789	19.166	842.136	640.610
295.803	19.092	841.429	639.744
296.818	19.131	840.301	638.972
297.833	18.981	839.783	637.966
298.847	18.957	838.615	636.934
299.862	19.138	838.040	637.111
300.876	19.187	837.679	636.960
301.891	19.282	837.069	636.791
302.906	19.188	836.769	636.159
303.920	19.150	836.214	635.540
304.935	19.404	835.857	636.152
305.949	19.500	834.858	635.689
306.964	19.513	833.996	635.022
307.979	19.361	833.799	634.257
308.993	19.404	832.964	633.723
310.008	19.429	832.797	633.632
311.022	19.383	832.449	633.141
312.037	19.512	831.728	633.011
313.052	19.453	830.863	632.083
314.066	19.325	830.034	630.928
315.081	19.184	829.644	630.059
316.095	19.163	828.843	629.316
317.110	19.205	828.560	629.200
318.125	19.250	828.123	628.978
319.139	18.907	828.055	627.617
320.154	19.201	826.940	627.788
321.168	19.124	826.476	627.101
322.183	19.255	826.214	627.322
323.197	19.263	825.560	626.799
324.212	19.236	825.238	626.401
325.227	19.293	824.392	625.911
326.241	19.308	823.960	625.582
327.256	19.293	823.353	625.011
328.270	19.200	823.088	624.420
329.285	19.219	822.374	623.889
330.300	19.279	821.464	623.362
331.314	19.267	821.452	623.252
332.329	19.251	820.639	622.524
333.343	19.506	820.000	622.904
334.358	19.364	819.845	622.219
335.373	19.529	819.052	622.156
336.387	19.717	818.343	622.240
337.402	19.605	818.071	621.576
338.416	19.724	817.478	621.500
339.431	19.603	817.130	620.745
340.446	19.730	817.041	621.077
341.460	20.025	816.197	621.440
342.475	19.898	815.489	620.391
343.489	20.032	815.132	620.544
344.504	20.041	814.424	619.982
345.519	19.956	814.394	619.602
346.533	20.150	813.688	619.702
347.548	20.057	812.992	618.784
348.562	19.906	812.404	617.742
349.577	19.832	811.691	616.884
350.592	19.631	811.077	615.646
351.606	19.586	810.675	615.124
352.621	19.550	810.164	614.553
353.635	19.660	809.612	614.474
354.650	19.673	809.353	614.270
355.665	19.766	809.112	614.361
356.679	19.833	808.788	614.301
357.694	19.893	808.332	614.111
358.708	19.863	807.651	613.432
359.723	19.690	807.299	612.499
360.738	19.858	806.244	612.237
361.752	20.021	805.938	612.528
362.767	19.858	806.015	611.955
363.781	20.008	805.616	612.129
364.796	20.152	804.814	611.976
365.810	20.308	804.669	612.359
366.825	20.254	804.338	611.864
367.840	20.418	804.298	612.357
368.854	20.423	803.262	611.534
369.869	20.212	802.990	610.527
370.883	20.264	801.973	609.883
371.898	20.175	801.729	609.333
372.913	20.302	801.056	609.213
373.927	20.395	800.674	609.195
374.942	20.402	799.807	608.505
375.956	20.507	799.183	608.343
376.971	20.364	798.825	607.516
377.986	20.600	798.321	607.906
379.000	20.546	797.994	607.413
380.015	20.710	797.111	607.261
381.029	20.807	796.993	607.456
382.044	20.652	796.561	606.532
383.059	20.486	795.912	605.406
384.073	20.603	795.251	605.255
385.088	20.513	794.853	604.586
386.102	20.356	794.351	603.608
387.117	20.347	793.283	602.711
388.132	20.100	793.298	601.809
389.146	20.205	792.528	601.537
390.161	20.314	792.345	601.724
391.175	20.308	792.322	601.629
392.190	20.658	791.457	602.132
393.205	20.524	790.669	601.018
394.219	20.457	790.372	600.506
395.234	20.477	790.100	600.315
396.248	20.389	789.371	599.405
397.263	20.217	789.122	598.569
398.278	20.162	788.775	598.063
399.292	20.132	788.263	597.520
400.307	20.036	787.825	596.803
401.321	20.100	787.314	596.582
402.336	20.239	786.755	596.584
403.350	20.358	786.443	596.703
404.365	20.521	785.984	596.863
405.380	20.595	785.703	596.853
406.394	20.770	785.322	597.108
407.409	20.833	784.740	596.831
408.423	20.790	784.838	596.703
409.438	20.956	783.863	596.478
410.453	20.958	783.409	596.087
411.467	20.988	783.239	596.008
412.482	21.056	782.848	595.889
413.496	21.046	782.511	595.548
414.511	21.064	782.239	595.348
415.526	21.116	781.573	594.966
416.540	21.131	781.369	594.807
417.555	20.954	780.897	593.793
418.569	21.037	780.476	593.702
419.584	20.991	780.333	593.386
420.599	21.154	779.462	593.226
421.613	161.040	1369.838	1794.613
422.628	139.118	1455.879	1794.716
