DTS Sentinel unit serial number:	SN413079Multiplexer serial number:	ORYXHardware model number:	OX4-SRSoftware version number:	ORYX F/W v4.00 Oryx Data Collector v3.7.2.0data status	okinstallation	princeton_trtdifferential loss correction	single-endedforward channel	channel 3reverse channel	N/Adate	2019/09/12time	05:26:11forward acquisition time	60.00reverse acquisition time	0.00gamma	496.2192k internal	0.2322k external	0.2322temperature offset calibration	1.0034default loss term (dB/km)	0.3790temperature slope calibration	1.0000multiplexer offset coefficient	1.0000multiplexer slope coefficient	1.0000fibre end	0.00T internal ref (°C)	31.92T ext. ref 1 (°C)	1.62T ext. ref 2 (°C)	27.37length (m)	temperature (°C)	Stokes	anti-Stokes-747.200	-80.438	-0.110	-0.037
-746.185	-92.820	0.260	0.073
-745.171	-68.264	0.135	0.053
-744.156	73.520	-0.235	0.248
-743.142	28.304	0.200	-0.171
-742.127	-200.000	0.059	-0.345
-741.112	154.460	-0.104	-0.144
-740.098	200.334	0.225	0.349
-739.083	-141.537	-0.052	-0.005
-738.069	3.355	-0.204	0.150
-737.054	36.236	0.046	0.041
-736.039	-200.000	-0.016	-0.074
-735.025	-116.104	-0.315	-0.059
-734.010	408.269	-0.160	-0.343
-732.996	800.000	-0.058	-0.235
-731.981	-61.974	0.215	-0.091
-730.966	800.000	0.152	0.474
-729.952	488.562	0.046	-0.106
-728.937	-40.590	0.163	-0.086
-727.923	800.000	0.066	0.218
-726.908	-139.830	-0.159	-0.017
-725.894	-30.455	0.221	0.126
-724.879	243.229	-0.086	-0.145
-723.864	-78.984	-0.149	-0.051
-722.850	23.070	0.129	0.107
-721.835	-67.172	-0.109	-0.043
-720.821	-148.092	-0.148	-0.012
-719.806	286.988	-0.120	-0.219
-718.791	373.126	-0.136	0.278
-717.777	-19.136	-0.152	-0.095
-716.762	-52.896	0.317	-0.147
-715.748	67.183	0.174	0.179
-714.733	-95.007	-0.305	-0.083
-713.718	33.155	-0.222	0.194
-712.704	-200.000	-0.008	-0.050
-711.689	-98.451	0.323	-0.083
-710.675	-99.914	-0.339	0.085
-709.660	229.075	-0.159	-0.261
-708.645	66.929	-0.202	-0.207
-707.631	-137.953	-0.269	-0.030
-706.616	53.419	0.268	0.259
-705.602	135.683	-0.181	0.238
-704.587	87.075	0.089	-0.100
-703.572	800.000	0.093	-0.311
-702.558	-9.839	-0.257	-0.173
-701.543	123.856	0.137	-0.173
-700.529	529.184	-0.135	-0.321
-699.514	689.056	0.164	-0.432
-698.499	800.000	-0.076	0.243
-697.485	-200.000	-0.015	-0.137
-696.470	-179.964	-0.052	0.001
-695.456	-200.000	-0.015	0.125
-694.441	-36.405	-0.463	0.251
-693.426	475.101	0.108	0.247
-692.412	-66.265	0.166	0.067
-691.397	529.211	-0.089	-0.212
-690.383	-154.792	0.101	-0.007
-689.368	-200.000	0.011	-0.080
-688.354	87.823	-0.188	-0.210
-687.339	25.299	0.183	0.153
-686.324	-200.000	0.028	0.218
-685.310	800.000	0.091	-0.346
-684.295	-67.287	0.232	0.092
-683.281	-79.768	-0.107	0.036
-682.266	31.247	-0.168	0.145
-681.251	157.533	-0.060	0.084
-680.237	176.298	-0.069	-0.101
-679.222	-131.847	0.187	0.025
-678.208	103.773	-0.142	-0.168
-677.193	111.917	-0.117	0.142
-676.178	48.762	0.051	-0.048
-675.164	357.574	0.113	-0.228
-674.149	-76.938	0.066	-0.023
-673.135	-200.000	0.052	-0.285
-672.120	68.190	-0.330	-0.340
-671.105	-144.790	-0.178	0.016
-670.091	800.000	0.107	-0.319
-669.076	10.670	0.239	-0.184
-668.062	198.420	-0.032	0.049
-667.047	-200.000	0.028	0.202
-666.032	212.118	-0.104	0.165
-665.018	-140.107	-0.441	-0.047
-664.003	204.494	0.161	0.252
-662.989	-75.291	0.057	0.021
-661.974	176.691	-0.138	0.203
-660.959	-200.000	-0.059	0.556
-659.945	-13.593	-0.207	-0.135
-658.930	-200.000	-0.015	0.087
-657.916	354.987	0.161	-0.323
-656.901	46.580	0.270	0.252
-655.886	16.490	0.016	0.013
-654.872	-23.441	0.059	0.036
-653.857	-200.000	0.019	0.088
-652.843	29.366	-0.053	-0.045
-651.828	-99.972	0.275	-0.069
-650.814	-74.650	-0.389	-0.141
-649.799	18.001	0.190	-0.153
-648.784	139.898	-0.178	-0.237
-647.770	-200.000	-0.006	0.048
-646.755	-200.000	0.027	-0.282
-645.741	-200.000	0.113	0.517
-644.726	38.562	-0.077	0.069
-643.711	282.772	-0.208	0.376
-642.697	-123.414	-0.330	0.053
-641.682	800.000	-0.048	-0.202
-640.668	800.000	-0.024	0.091
-639.653	-27.934	-0.024	0.014
-638.638	196.357	-0.127	-0.195
-637.624	-42.207	-0.167	-0.086
-636.609	75.943	0.019	0.020
-635.595	71.348	0.028	0.029
-634.580	-93.335	-0.047	0.013
-633.565	-94.604	0.192	0.053
-632.551	-200.000	0.100	-0.447
-631.536	11.126	-0.148	-0.114
-630.522	-143.888	0.153	0.015
-629.507	-9.169	-0.056	-0.038
-628.492	-200.000	0.013	-0.364
-627.478	-134.516	0.337	-0.041
-626.463	146.383	-0.157	-0.212
-625.449	85.420	-0.377	0.417
-624.434	24.788	0.125	-0.105
-623.419	-36.840	-0.282	-0.152
-622.405	-200.000	0.021	-0.530
-621.390	30.261	0.214	0.184
-620.376	-9.843	0.131	-0.088
-619.361	-105.477	-0.142	-0.033
-618.346	683.788	0.144	-0.378
-617.332	-59.466	-0.243	0.105
-616.317	-99.700	-0.128	0.032
-615.303	-96.993	-0.137	0.036
-614.288	-200.000	0.028	-0.124
-613.273	-27.497	-0.176	-0.103
-612.259	-200.000	0.009	-0.222
-611.244	-173.922	0.052	-0.002
-610.230	15.660	-0.184	0.145
-609.215	498.645	-0.057	0.133
-608.201	6.407	0.125	-0.093
-607.186	-10.005	-0.097	-0.065
-606.171	-200.000	0.023	-0.428
-605.157	-41.550	-0.099	0.051
-604.142	-127.428	0.207	0.030
-603.128	129.656	-0.026	-0.033
-602.113	212.186	-0.140	0.222
-601.098	-200.000	0.008	0.099
-600.084	-98.528	0.195	-0.050
-599.069	-61.158	0.037	-0.016
-598.055	-126.199	-0.342	-0.051
-597.040	309.450	-0.082	-0.153
-596.025	232.212	0.131	-0.216
-595.011	-77.765	-0.173	-0.060
-593.996	-157.857	-0.404	-0.024
-592.982	800.000	0.097	0.280
-591.967	-181.296	-0.224	-0.004
-590.952	428.345	0.025	0.053
-589.938	44.264	-0.309	0.285
-588.923	76.097	0.154	0.164
-587.909	800.000	-0.042	-0.135
-586.894	800.000	0.145	-0.435
-585.879	-145.862	-0.353	0.031
-584.865	121.389	-0.161	-0.201
-583.850	-200.000	0.047	-0.242
-582.836	-49.296	-0.197	0.095
-581.821	-119.815	0.171	0.030
-580.806	-88.474	-0.227	0.068
-579.792	242.921	0.197	0.331
-578.777	212.367	-0.169	0.267
-577.763	94.494	-0.148	0.168
-576.748	-133.269	-0.122	-0.015
-575.733	115.597	-0.079	-0.098
-574.719	-87.042	0.193	0.059
-573.704	159.219	-0.035	-0.049
-572.690	180.601	-0.126	-0.186
-571.675	800.000	0.101	-0.321
-570.661	800.000	0.045	-0.147
-569.646	800.000	-0.101	0.328
-568.631	192.437	-0.105	0.159
-567.617	11.912	0.113	0.087
-566.602	-1.640	0.332	-0.235
-565.588	145.416	0.029	-0.039
-564.573	-40.292	0.367	0.192
-563.558	800.000	0.098	0.312
-562.544	-200.000	0.003	-0.154
-561.529	-156.258	0.143	-0.009
-560.515	-200.000	-0.037	0.306
-559.500	49.459	-0.218	-0.206
-558.485	-67.433	0.270	-0.106
-557.471	-200.000	-0.024	-0.131
-556.456	139.583	0.362	-0.478
-555.442	625.586	-0.033	-0.083
-554.427	-77.787	0.187	-0.065
-553.412	-121.798	-0.062	0.010
-552.398	56.544	0.083	0.081
-551.383	-179.810	-0.323	0.007
-550.369	-120.126	-0.270	-0.046
-549.354	-16.383	0.231	0.147
-548.339	742.847	0.031	-0.083
-547.325	14.628	-0.212	0.166
-546.310	267.260	-0.064	0.112
-545.296	-98.650	-0.092	0.023
-544.281	546.141	0.073	0.175
-543.266	800.000	-0.105	-0.418
-542.252	275.685	0.043	-0.076
-541.237	-200.000	-0.027	-0.235
-540.223	-174.131	-0.347	0.010
-539.208	147.422	0.112	0.152
-538.193	800.000	-0.021	-0.092
-537.179	800.000	0.041	-0.159
-536.164	800.000	0.083	0.238
-535.150	800.000	-0.013	0.036
-534.135	98.119	-0.172	-0.199
-533.121	8.024	-0.380	0.285
-532.106	196.467	0.121	-0.185
-531.091	-66.185	0.146	0.058
-530.077	45.603	-0.174	-0.161
-529.062	159.887	-0.297	-0.414
-528.048	-73.570	0.289	0.106
-527.033	-200.000	-0.006	0.173
-526.018	-74.907	-0.171	-0.061
-525.004	800.000	0.032	-0.090
-523.989	-200.000	0.058	-0.330
-522.975	337.481	0.127	0.247
-521.960	-72.222	-0.172	-0.064
-520.945	-64.080	-0.365	0.149
-519.931	-200.000	0.010	-0.049
-518.916	-143.755	0.336	-0.032
-517.902	-53.053	-0.108	-0.050
-516.887	-138.238	0.494	0.055
-515.872	-200.000	0.244	-0.001
-514.858	-43.879	0.330	0.166
-513.843	-154.288	0.104	0.007
-512.829	800.000	-0.068	0.271
-511.814	125.436	0.140	0.177
-510.799	-200.000	-0.053	0.326
-509.785	-43.987	0.041	0.021
-508.770	92.878	-0.224	-0.254
-507.756	10.088	0.107	-0.081
-506.741	-25.395	0.205	0.121
-505.726	73.249	-0.157	-0.164
-504.712	24.033	0.161	0.133
-503.697	90.690	-0.091	0.102
-502.683	219.548	-0.117	-0.188
-501.668	-4.512	0.498	-0.344
-500.653	14.902	0.218	-0.170
-499.639	-86.300	-0.185	-0.057
-498.624	-200.000	0.041	-0.320
-497.610	800.000	0.042	-0.157
-496.595	218.787	-0.150	0.240
-495.581	472.273	0.071	-0.161
-494.566	-170.850	0.225	0.008
-493.551	81.266	-0.208	-0.225
-492.537	-95.492	-0.447	-0.120
-491.522	-50.443	-0.179	0.084
-490.508	148.621	-0.106	-0.143
-489.493	26.244	0.209	0.175
-488.478	-200.000	0.003	0.052
-487.464	79.918	-0.203	-0.218
-486.449	-200.000	-0.028	-0.208
-485.435	-200.000	0.026	-0.128
-484.420	25.483	0.203	-0.169
-483.405	-190.435	-0.225	0.002
-482.391	800.000	0.041	-0.129
-481.376	-200.000	-0.051	0.401
-480.362	-200.000	-0.066	-0.289
-479.347	785.244	0.147	-0.402
-478.332	158.842	0.077	-0.107
-477.318	114.342	-0.269	0.328
-476.303	800.000	-0.123	0.399
-475.289	-31.383	0.156	-0.088
-474.274	-200.000	-0.003	0.249
-473.259	-15.582	-0.216	0.138
-472.245	263.778	0.036	0.063
-471.230	-48.080	-0.328	-0.158
-470.216	-149.502	-0.318	-0.025
-469.201	-97.865	-0.262	0.068
-468.186	-200.000	-0.004	-0.230
-467.172	220.654	-0.212	-0.340
-466.157	420.476	-0.138	0.296
-465.143	-131.238	-0.145	-0.019
-464.128	187.419	0.138	0.206
-463.113	77.526	-0.058	-0.061
-462.099	-25.169	-0.130	0.077
-461.084	-11.835	-0.121	0.079
-460.070	271.871	-0.089	-0.157
-459.055	800.000	0.035	0.111
-458.040	203.575	0.039	0.061
-457.026	281.039	-0.071	-0.128
-456.011	103.533	0.038	-0.044
-454.997	40.266	0.148	0.133
-453.982	135.633	0.210	0.274
-452.968	-161.449	0.099	-0.005
-451.953	-186.320	-0.288	0.004
-450.938	23.256	-0.079	0.065
-449.924	184.503	0.151	0.224
-448.909	14.981	0.115	-0.090
-447.895	-200.000	0.054	-0.278
-446.880	-200.000	0.047	-0.251
-445.865	416.641	-0.109	0.233
-444.851	210.613	-0.047	0.074
-443.836	-123.899	0.133	0.021
-442.822	-138.001	-0.265	0.029
-441.807	-61.307	-0.251	0.105
-440.792	365.208	0.121	0.243
-439.778	-200.000	0.001	0.039
-438.763	-170.700	0.209	-0.007
-437.749	-8.126	0.217	0.146
-436.734	-34.494	-0.326	0.178
-435.719	108.867	0.051	0.061
-434.705	123.896	0.029	0.037
-433.690	37.562	-0.022	-0.020
-432.676	291.739	-0.083	-0.150
-431.661	-200.000	0.030	-0.215
-430.646	37.153	0.277	-0.244
-429.632	-200.000	-0.001	0.135
-428.617	800.000	-0.073	-0.305
-427.603	-8.692	0.312	0.209
-426.588	499.329	-0.067	-0.154
-425.573	-200.000	-0.007	0.225
-424.559	14.632	0.066	-0.052
-423.544	800.000	-0.061	0.188
-422.530	316.302	-0.075	0.142
-421.515	-10.452	-0.266	-0.176
-420.500	-137.597	-0.088	0.010
-419.486	294.567	-0.084	0.154
-418.471	96.700	0.082	0.094
-417.457	270.349	-0.088	-0.154
-416.442	-117.919	0.292	0.052
-415.428	-1.921	-0.194	-0.136
-414.413	261.902	-0.071	-0.123
-413.398	-97.245	-0.246	0.064
-412.384	-6.436	0.233	-0.158
-411.369	35.029	-0.250	-0.218
-410.355	121.746	0.147	-0.183
-409.340	-74.192	-0.219	0.079
-408.325	79.526	0.210	-0.225
-407.311	-71.025	0.066	-0.025
-406.296	-70.366	-0.097	-0.037
-405.282	97.099	-0.349	-0.400
-404.267	270.611	0.083	0.145
-403.252	34.106	0.113	0.098
-402.238	-126.645	0.223	-0.033
-401.223	13.814	-0.264	0.205
-400.209	-114.497	-0.225	0.043
-399.194	-133.267	-0.262	-0.033
-398.179	-200.000	0.027	0.302
-397.165	-200.000	0.027	0.173
-396.150	786.562	-0.090	-0.246
-395.136	-200.000	0.037	0.309
-394.121	-20.896	-0.206	-0.126
-393.106	724.320	0.081	0.215
-392.092	60.799	-0.015	0.015
-391.077	-53.031	-0.139	0.063
-390.063	-200.000	-0.083	-0.425
-389.048	-200.000	0.009	-0.099
-388.033	-200.000	0.080	0.403
-387.019	-16.828	-0.534	0.336
-386.004	-51.708	-0.268	0.124
-384.990	-200.000	0.043	-0.395
-383.975	124.767	-0.059	-0.074
-382.960	-25.727	0.325	0.191
-381.946	220.422	0.027	0.043
-380.931	-59.463	-0.231	-0.099
-379.917	-200.000	0.017	-0.463
-378.902	-200.000	0.035	-0.189
-377.888	-104.197	-0.149	0.034
-376.873	219.181	-0.071	-0.114
-375.858	-200.000	-0.056	0.495
-374.844	92.813	0.159	-0.179
-373.829	800.000	0.098	0.309
-372.815	-99.113	-0.144	0.036
-371.800	670.517	-0.066	-0.170
-370.785	800.000	0.062	-0.219
-369.771	-22.444	0.102	0.062
-368.756	-27.033	0.199	0.116
-367.742	-113.245	0.280	0.055
-366.727	363.505	0.151	-0.302
-365.712	192.046	0.229	-0.343
-364.698	-38.923	0.113	0.059
-363.683	-200.000	0.048	-0.296
-362.669	-200.000	-0.002	-0.114
-361.654	-98.576	0.438	0.111
-360.639	-7.888	0.293	0.197
-359.625	-99.488	0.055	-0.014
-358.610	5.505	0.266	-0.195
-357.596	-55.177	0.347	-0.155
-356.581	-17.170	0.148	0.093
-355.566	-95.436	0.036	-0.010
-354.552	57.801	0.129	-0.126
-353.537	311.055	0.252	-0.471
-352.523	-200.000	-0.018	-0.128
-351.508	22.437	0.141	0.114
-350.493	-72.091	0.173	-0.064
-349.479	11.886	-0.094	0.072
-348.464	-123.833	0.236	-0.037
-347.450	18.349	-0.095	0.075
-346.435	57.127	-0.096	-0.093
-345.420	118.161	0.240	-0.295
-344.406	13.684	0.253	0.196
-343.391	-186.338	-0.346	0.005
-342.377	-94.169	0.095	0.026
-341.362	2.924	0.124	-0.090
-340.348	800.000	0.129	-0.374
-339.333	798.731	0.052	0.143
-338.318	-75.365	-0.267	-0.095
-337.304	800.000	0.032	0.117
-336.289	229.360	0.142	0.230
-335.275	-196.863	-0.125	-0.001
-334.260	141.145	0.090	-0.119
-333.245	-161.156	0.342	-0.018
-332.231	-95.192	0.597	0.160
-331.216	67.025	0.218	-0.221
-330.202	-70.148	-0.105	-0.040
-329.187	-200.000	0.044	-0.289
-328.172	800.000	0.078	-0.311
-327.158	30.074	-0.207	0.176
-326.143	40.451	-0.300	0.268
-325.129	-200.000	-0.030	0.318
-324.114	800.000	-0.051	0.178
-323.099	-100.810	0.091	0.022
-322.085	20.350	-0.088	0.071
-321.070	20.024	0.150	0.120
-320.056	38.102	0.088	0.078
-319.041	-90.720	0.304	0.087
-318.026	669.681	-0.158	0.407
-317.012	-31.239	0.056	0.031
-315.997	-146.372	-0.307	0.027
-314.983	800.000	-0.107	0.378
-313.968	-149.323	0.067	-0.005
-312.953	-138.900	0.341	0.037
-311.939	-45.401	0.051	-0.025
-310.924	-200.000	-0.014	-0.321
-309.910	-162.243	0.383	0.019
-308.895	800.000	-0.073	0.246
-307.880	383.230	-0.060	-0.123
-306.866	324.976	-0.107	0.203
-305.851	-134.980	-0.124	-0.015
-304.837	-200.000	-0.026	-0.116
-303.822	175.052	0.215	0.309
-302.807	-83.714	0.365	0.116
-301.793	600.321	0.157	-0.387
-300.778	-95.412	0.075	0.020
-299.764	47.497	0.112	0.103
-298.749	-81.448	0.222	-0.073
-297.735	3.465	0.091	0.066
-296.720	-200.000	0.009	-0.077
-295.705	250.718	0.109	-0.183
-294.691	-200.000	-0.013	-0.170
-293.676	105.551	-0.058	0.068
-292.662	-13.020	0.078	0.050
-291.647	-200.000	-0.033	0.165
-290.632	58.688	-0.210	0.204
-289.618	33.029	0.202	-0.173
-288.603	-139.633	-0.238	0.025
-287.589	-118.177	-0.124	-0.022
-286.574	800.000	-0.073	0.294
-285.559	-26.296	0.377	-0.220
-284.545	-178.303	-0.246	0.006
-283.530	174.177	-0.068	-0.097
-282.516	35.835	-0.148	-0.129
-281.501	-200.000	-0.007	-0.067
-280.486	-200.000	0.046	0.363
-279.472	128.699	-0.128	0.162
-278.457	-200.000	0.024	0.188
-277.443	-200.000	-0.024	0.244
-276.428	-200.000	0.008	0.116
-275.413	-143.049	-0.288	-0.028
-274.399	4.280	-0.127	-0.092
-273.384	800.000	0.034	-0.135
-272.370	800.000	0.036	-0.137
-271.355	-200.000	-0.025	-0.283
-270.340	-48.040	-0.198	0.095
-269.326	-59.084	0.176	0.075
-268.311	197.368	-0.154	-0.234
-267.297	-58.058	0.170	-0.073
-266.282	-200.000	-0.001	0.130
-265.267	-134.526	-0.086	-0.010
-264.253	-105.580	0.230	0.052
-263.238	-200.000	-0.012	0.384
-262.224	-91.425	-0.229	-0.065
-261.209	800.000	0.075	0.279
-260.195	298.352	0.041	0.075
-259.180	800.000	-0.019	-0.074
-258.165	93.596	0.189	-0.212
-257.151	242.612	-0.045	0.074
-256.136	-145.316	0.173	0.016
-255.122	197.824	0.056	-0.086
-254.107	-156.669	-0.248	-0.015
-253.092	74.993	-0.127	-0.132
-252.078	-53.795	-0.142	-0.064
-251.063	58.746	0.159	-0.154
-250.049	349.265	0.041	-0.081
-249.034	800.000	-0.072	0.199
-248.019	249.546	-0.177	-0.298
-247.005	133.172	0.118	-0.152
-245.990	145.878	-0.110	0.146
-244.976	-107.424	0.162	0.035
-243.961	41.701	0.207	0.186
-242.946	-55.703	-0.127	0.056
-241.932	-36.603	-0.317	0.169
-240.917	-103.840	0.310	0.072
-239.903	162.962	-0.157	0.219
-238.888	89.709	0.093	-0.102
-237.873	-71.879	-0.124	0.046
-236.859	-59.726	0.221	-0.094
-235.844	-37.503	0.075	-0.040
-234.830	-39.948	0.159	0.082
-233.815	-200.000	-0.029	-0.139
-232.800	800.000	-0.075	0.237
-231.786	800.000	-0.069	-0.207
-230.771	-101.875	0.062	0.015
-229.757	49.944	-0.199	-0.186
-228.742	234.751	0.029	-0.048
-227.727	-54.166	0.021	-0.010
-226.713	-200.000	-0.032	-0.162
-225.698	-74.134	0.232	0.083
-224.684	-65.497	-0.214	0.085
-223.669	465.471	0.094	-0.208
-222.655	-200.000	-0.012	-0.124
-221.640	-200.000	0.008	0.058
-220.625	-41.048	0.125	0.064
-219.611	55.931	-0.146	0.141
-218.596	-200.000	0.041	0.197
-217.582	-200.000	-0.009	0.045
-216.567	-82.515	-0.121	0.039
-215.552	-47.658	0.268	-0.129
-214.538	497.943	-0.093	-0.212
-213.523	-143.981	-0.057	0.005
-212.509	-67.289	-0.174	0.068
-211.494	-126.641	0.316	-0.046
-210.479	800.000	0.084	0.359
-209.465	514.121	0.052	0.121
-208.450	800.000	0.062	0.211
-207.436	-123.741	-0.077	0.012
-206.421	10.686	-0.063	0.048
-205.406	-115.738	0.212	0.039
-204.392	-200.000	-0.020	-0.320
-203.377	-100.063	0.348	-0.086
-202.363	49.025	0.328	0.305
-201.348	-200.000	0.024	0.191
-200.333	-200.000	0.036	0.185
-199.319	-114.527	-0.243	-0.046
-198.304	105.263	-0.184	-0.215
-197.290	182.928	0.241	0.351
-196.275	608.528	-0.081	-0.201
-195.260	-200.000	0.026	-0.166
-194.246	10.042	-0.194	0.146
-193.231	-200.000	-0.021	0.534
-192.217	-200.000	0.019	-0.104
-191.202	800.000	-0.049	-0.151
-190.187	-95.180	-0.036	0.010
-189.173	96.586	0.303	0.344
-188.158	800.000	0.077	-0.216
-187.144	119.651	0.165	0.202
-186.129	-200.000	-0.030	0.151
-185.114	56.441	0.148	0.142
-184.100	800.000	-0.043	0.169
-183.085	-109.759	-0.037	0.008
-182.071	800.000	0.036	-0.106
-181.056	154.047	-0.052	-0.071
-180.042	176.243	0.133	0.191
-179.027	217.143	0.036	-0.057
-178.012	800.000	0.082	0.262
-176.998	-27.706	-0.024	-0.014
-175.983	88.808	0.099	0.109
-174.969	-170.335	-0.271	-0.009
-173.954	-146.890	-0.080	-0.007
-172.939	427.554	-0.022	-0.048
-171.925	-136.680	0.190	-0.022
-170.910	-66.207	-0.254	0.100
-169.896	195.942	-0.085	-0.128
-168.881	-29.127	-0.295	-0.167
-167.866	-50.484	-0.226	0.105
-166.852	152.497	-0.214	0.289
-165.837	-26.522	-0.087	0.050
-164.823	134.616	-0.201	0.258
-163.808	467.042	-0.010	-0.023
-162.793	-57.032	-0.381	-0.166
-161.779	-27.760	-0.310	0.178
-160.764	272.983	0.059	-0.103
-159.750	-187.081	0.449	0.006
-158.735	-143.562	-0.078	0.007
-157.720	800.000	0.075	0.248
-156.706	-102.564	0.181	-0.043
-155.691	-200.000	0.020	0.285
-154.677	-35.837	0.321	0.172
-153.662	43.493	0.277	0.250
-152.647	253.159	0.131	0.221
-151.633	-41.425	0.083	0.042
-150.618	-29.076	0.370	-0.210
-149.604	87.342	0.042	0.046
-148.589	53.639	-0.139	-0.132
-147.574	-200.000	0.002	0.460
-146.560	355.142	-0.069	0.135
-145.545	800.000	0.091	0.254
-144.531	-132.822	0.375	-0.047
-143.516	-47.702	0.251	-0.120
-142.502	-86.596	-0.244	-0.074
-141.487	-80.241	0.335	-0.111
-140.472	51.298	-0.313	-0.293
-139.458	726.804	-0.046	-0.121
-138.443	42.715	0.282	0.254
-137.429	-55.606	0.100	0.044
-136.414	423.644	0.186	0.395
-135.399	-69.157	0.147	0.056
-134.385	174.309	0.116	0.166
-133.370	162.206	-0.126	-0.175
-132.356	800.000	0.093	0.314
-131.341	162.288	-0.192	-0.266
-130.326	800.000	0.054	-0.159
-129.312	-70.341	0.126	-0.047
-128.297	-104.328	0.284	-0.065
-127.283	29.881	0.093	0.078
-126.268	-40.019	-0.208	0.107
-125.253	-200.000	-0.002	-0.214
-124.239	-77.672	0.230	-0.078
-123.224	214.515	0.049	-0.077
-122.210	-200.000	0.028	-0.225
-121.195	800.000	0.076	-0.228
-120.180	-135.439	0.185	0.022
-119.166	152.336	-0.093	0.125
-118.151	-200.000	0.029	0.336
-117.137	-27.343	0.157	-0.090
-116.122	26.911	-0.303	0.250
-115.107	-114.436	0.326	-0.062
-114.093	800.000	0.017	0.054
-113.078	-197.988	0.378	-0.002
-112.064	800.000	-0.107	0.330
-111.049	80.960	0.086	0.092
-110.034	-200.000	-0.041	-0.379
-109.020	-200.000	-0.002	0.010
-108.005	722.606	0.066	0.174
-106.991	-98.137	-0.341	0.086
-105.976	-197.405	-0.156	-0.001
-104.962	-200.000	0.018	0.219
-103.947	-141.367	0.050	0.005
-102.932	620.367	0.055	0.137
-101.918	-200.000	-0.023	0.163
-100.903	-126.501	0.168	0.025
-99.889	-96.288	0.264	0.069
-98.874	1.730	0.131	-0.093
-97.859	-126.237	0.248	0.037
-96.845	-129.726	-0.304	0.041
-95.830	-200.000	0.006	0.264
-94.816	-113.471	-0.257	0.050
-93.801	182.777	0.112	-0.162
-92.786	-200.000	0.003	-0.214
-91.772	175.050	0.300	0.428
-90.757	-31.971	-0.024	-0.013
-89.743	-36.112	-0.110	0.058
-88.728	-102.308	-0.168	0.040
-87.713	17.023	-0.224	-0.175
-86.699	213.083	0.058	0.091
-85.684	-121.065	0.369	0.061
-84.670	-64.888	0.301	0.120
-83.655	800.000	-0.129	0.394
-82.640	24.860	0.164	0.134
-81.626	64.065	0.136	0.134
-80.611	-42.886	-0.234	0.117
-79.597	-196.661	-0.124	-0.001
-78.582	-200.000	-0.061	0.315
-77.567	60.401	-0.129	0.126
-76.553	154.341	0.164	-0.221
-75.538	-111.753	-0.104	-0.021
-74.524	-135.878	0.157	0.018
-73.509	491.203	-0.082	0.185
-72.494	-21.688	-0.403	-0.242
-71.480	-200.000	-0.017	-0.184
-70.465	-131.412	0.122	-0.016
-69.451	38.858	0.112	0.099
-68.436	112.871	-0.065	-0.078
-67.422	800.000	-0.078	-0.218
-66.407	362.649	-0.080	-0.159
-65.392	321.049	-0.289	-0.540
-64.378	-33.734	0.238	-0.129
-63.363	-33.832	-0.143	-0.077
-62.349	-48.505	0.226	0.107
-61.334	4.755	-1.088	-0.787
-60.319	-46.649	0.606	0.292
-59.305	641.618	-0.425	-1.064
-58.290	171.005	0.751	1.059
-57.276	726.964	0.685	1.797
-56.261	-200.000	95.776	595.659
-55.246	564.023	1367.338	3257.753
-54.232	162.122	2545.704	3508.721
-53.217	112.338	2159.096	2568.352
-52.203	42.567	1703.798	1524.893
-51.188	35.163	1516.787	1307.181
-50.173	32.652	1491.153	1268.172
-49.159	51.926	1539.322	1441.284
-48.144	53.644	1557.014	1469.541
-47.130	35.258	1517.478	1308.219
-46.115	32.248	1502.265	1274.680
-45.100	31.992	1499.462	1270.512
-44.086	32.004	1496.885	1268.362
-43.071	32.021	1494.739	1266.610
-42.057	31.941	1493.103	1264.629
-41.042	31.982	1491.806	1263.758
-40.027	31.947	1490.796	1262.615
-39.013	31.884	1488.975	1260.603
-37.998	31.813	1488.244	1259.455
-36.984	31.935	1486.934	1259.120
-35.969	31.988	1485.049	1257.828
-34.954	31.889	1484.122	1256.326
-33.940	31.977	1482.287	1255.314
-32.925	31.917	1481.542	1254.233
-31.911	31.947	1479.841	1252.943
-30.896	32.008	1478.591	1252.244
-29.881	31.967	1477.329	1250.849
-28.867	32.012	1475.779	1249.786
-27.852	31.881	1474.443	1247.733
-26.838	31.985	1473.417	1247.505
-25.823	32.021	1471.291	1245.895
-24.809	32.001	1470.036	1244.653
-23.794	31.952	1468.268	1242.780
-22.779	32.043	1467.456	1242.650
-21.765	31.996	1466.095	1241.133
-20.750	31.842	1465.737	1239.766
-19.736	31.981	1463.930	1239.102
-18.721	31.915	1462.859	1237.715
-17.706	31.948	1461.826	1237.005
-16.692	31.985	1459.976	1235.633
-15.677	31.881	1459.537	1234.530
-14.663	31.931	1458.065	1233.567
-13.648	31.759	1457.760	1232.127
-12.633	31.823	1456.782	1231.675
-11.619	31.950	1455.850	1231.674
-10.604	31.915	1455.190	1230.831
-9.590	31.944	1454.172	1230.117
-8.575	31.878	1453.439	1229.011
-7.560	31.819	1452.589	1227.860
-6.546	31.955	1451.116	1227.455
-5.531	31.833	1450.914	1226.437
-4.517	31.849	1449.328	1225.153
-3.502	31.842	1448.406	1224.276
-2.487	31.923	1447.263	1223.791
-1.473	31.752	1446.581	1222.054
-0.458	31.823	1445.311	1221.392
0.556	31.745	1436.091	1210.805
1.571	29.212	1411.279	1173.668
2.586	26.044	1355.438	1107.711
3.600	24.575	1276.407	1034.533
4.615	23.291	1229.569	989.314
5.629	19.585	1171.460	922.715
6.644	9.879	1085.317	806.512
7.659	2.632	1044.049	740.846
8.673	1.775	1038.685	732.853
9.688	1.709	1035.277	730.069
10.702	1.589	1033.627	728.268
11.717	1.407	1031.833	726.067
12.731	4.500	1034.833	742.922
13.746	14.090	1048.409	798.875
14.761	22.305	1059.828	847.240
15.775	24.573	1062.183	859.979
16.790	25.011	1061.539	861.490
17.804	25.010	1060.877	860.870
18.819	24.732	1059.824	858.606
19.834	24.843	1059.210	858.563
20.848	24.945	1059.135	858.917
21.863	25.029	1058.983	859.118
22.877	25.046	1058.534	858.759
23.892	24.962	1057.719	857.623
24.907	24.863	1056.679	856.228
25.921	24.954	1055.791	855.866
26.936	24.943	1055.355	855.388
27.950	24.900	1054.151	854.132
28.965	24.946	1052.959	853.307
29.980	24.674	1051.786	850.988
30.994	24.762	1049.993	849.879
32.009	24.879	1049.654	850.087
33.023	24.970	1049.749	850.522
34.038	24.846	1048.142	848.556
35.053	24.752	1047.116	847.204
36.067	25.005	1046.430	847.771
37.082	24.912	1045.988	846.897
38.096	24.936	1045.081	846.203
39.111	25.139	1044.442	846.568
40.126	25.241	1043.359	846.095
41.140	25.185	1042.285	844.884
42.155	24.909	1040.630	842.173
43.169	24.564	1039.754	839.766
44.184	24.514	1038.313	838.292
45.199	24.575	1037.699	838.009
46.213	24.563	1036.787	837.146
47.228	24.448	1035.904	835.818
48.242	24.808	1035.294	836.936
49.257	24.810	1034.197	835.984
50.271	24.847	1033.562	835.570
51.286	25.088	1032.830	836.031
52.301	25.138	1032.207	835.683
53.315	25.007	1031.767	834.642
54.330	25.117	1030.706	834.223
55.344	24.828	1029.962	832.201
56.359	25.034	1028.746	832.104
57.374	24.973	1027.906	831.070
58.388	24.709	1026.885	828.946
59.403	24.700	1026.481	828.506
60.417	24.831	1025.559	828.294
61.432	24.601	1025.171	826.841
62.447	24.609	1024.288	826.095
63.461	24.810	1023.792	826.551
64.476	24.731	1022.991	825.465
65.490	24.691	1022.432	824.755
66.505	24.580	1021.566	823.471
67.520	24.607	1020.473	822.646
68.534	24.824	1019.630	822.889
69.549	24.600	1018.677	821.020
70.563	24.280	1017.723	818.708
71.578	24.205	1017.006	817.713
72.593	24.300	1016.205	817.433
73.607	24.153	1014.832	815.582
74.622	23.996	1014.750	814.728
75.636	24.459	1013.653	815.892
76.651	24.571	1012.666	815.534
77.666	24.468	1011.714	814.227
78.680	24.297	1010.901	812.722
79.695	24.333	1010.614	812.580
80.709	24.460	1009.618	812.287
81.724	24.520	1009.273	812.210
82.739	24.556	1008.290	811.513
83.753	24.557	1007.336	810.677
84.768	24.697	1007.476	811.355
85.782	25.108	1006.113	812.047
86.797	25.361	1005.664	812.755
87.812	25.165	1004.820	811.117
88.826	24.983	1003.946	809.514
89.841	25.041	1002.863	808.832
90.855	25.211	1002.545	809.273
91.870	25.172	1001.406	808.105
92.884	25.247	1000.800	807.883
93.899	25.190	999.625	806.608
94.914	25.021	998.901	805.193
95.928	25.154	998.321	805.252
96.943	25.061	997.307	803.942
97.957	24.773	996.310	801.778
98.972	24.666	994.693	799.929
99.987	24.369	994.135	798.081
101.001	24.513	993.616	798.237
102.016	24.844	993.032	799.176
103.030	24.803	991.806	797.936
104.045	24.847	990.674	797.148
105.060	24.816	989.710	796.163
106.074	24.638	988.863	794.624
107.089	24.527	988.557	793.810
108.103	24.750	988.220	794.463
109.118	24.942	987.071	794.318
110.133	24.852	985.288	792.417
111.147	24.633	984.884	791.052
112.162	24.645	983.278	789.744
113.176	24.327	982.570	787.703
114.191	24.480	981.748	787.649
115.206	24.604	981.225	787.706
116.220	24.466	979.516	785.658
117.235	24.187	978.763	783.755
118.249	24.352	978.469	784.177
119.264	24.399	977.336	783.406
120.279	24.392	976.361	782.524
121.293	24.164	976.201	781.328
122.308	24.266	975.383	781.052
123.322	24.391	974.534	780.851
124.337	24.411	973.270	779.855
125.352	24.167	972.364	777.993
126.366	23.908	970.252	775.107
127.381	23.478	969.490	772.555
128.395	23.949	969.555	774.591
129.410	24.864	968.957	778.022
130.424	24.891	968.284	777.534
131.439	24.960	967.251	776.934
132.454	24.783	966.315	775.346
133.468	24.894	965.066	774.756
134.483	24.679	964.613	773.393
135.497	24.635	964.331	772.907
136.512	24.989	963.301	773.544
137.527	25.135	962.851	773.743
138.541	25.115	961.717	772.676
139.556	25.049	961.007	771.754
140.570	25.098	960.171	771.228
141.585	25.093	959.770	770.815
142.600	25.156	959.161	770.528
143.614	25.155	957.666	769.252
144.629	25.154	957.525	769.068
145.643	25.352	956.697	769.185
146.658	25.266	955.749	767.984
147.673	25.152	954.161	766.155
148.687	25.041	953.437	765.033
149.702	25.033	952.162	763.907
150.716	24.767	951.629	762.279
151.731	24.890	950.421	761.765
152.746	24.849	950.284	761.413
153.760	24.979	949.400	761.189
154.775	25.258	948.211	761.356
155.789	25.272	947.775	760.997
156.804	25.187	946.923	759.885
157.819	25.235	945.728	759.064
158.833	25.272	944.656	758.289
159.848	25.389	944.105	758.275
160.862	25.470	943.786	758.296
161.877	25.346	942.373	756.567
162.892	25.126	942.008	755.281
163.906	25.092	941.416	754.600
164.921	25.168	940.270	753.930
165.935	25.154	938.984	752.774
166.950	25.159	938.137	752.052
167.964	25.282	937.206	751.753
168.979	25.354	936.155	751.144
169.994	25.121	935.288	749.411
171.008	24.889	934.409	747.671
172.023	25.213	933.593	748.300
173.037	25.455	932.482	748.354
174.052	25.141	931.620	746.288
175.067	25.037	930.615	744.985
176.081	24.829	930.091	743.637
177.096	25.085	929.177	743.901
178.110	24.997	928.434	742.878
179.125	24.969	926.972	741.523
180.140	24.590	926.350	739.392
181.154	24.671	925.419	738.921
182.169	24.765	924.891	738.823
183.183	24.984	924.519	739.362
184.198	25.170	924.785	740.280
185.213	25.131	924.018	739.437
186.227	25.074	923.311	738.573
187.242	25.284	922.644	738.837
188.256	25.305	921.306	737.789
189.271	25.175	921.288	737.174
190.286	25.265	920.683	736.995
191.300	25.133	919.564	735.491
192.315	24.600	918.107	732.075
193.329	23.861	916.710	727.875
194.344	23.398	915.798	725.191
195.359	24.152	915.729	728.157
196.373	24.889	916.262	731.529
197.388	25.229	915.825	732.504
198.402	24.969	915.459	731.085
199.417	25.111	914.927	731.175
200.432	25.211	914.276	730.995
201.446	25.071	913.714	729.912
202.461	24.775	912.871	727.970
203.475	24.826	911.984	727.404
204.490	24.426	910.713	724.704
205.504	23.334	908.561	718.499
206.519	23.667	908.814	719.988
207.534	24.420	909.187	723.271
208.548	24.600	908.137	723.101
209.563	25.049	908.667	725.277
210.577	25.025	907.548	724.221
211.592	24.895	906.548	722.838
212.607	25.198	906.239	723.747
213.621	25.357	905.880	724.041
214.636	25.301	905.359	723.333
215.650	25.360	904.524	722.839
216.665	25.233	904.250	722.044
217.680	25.422	903.687	722.293
218.694	25.232	903.709	721.483
219.709	24.955	902.670	719.476
220.723	24.810	901.049	717.538
221.738	24.812	901.067	717.499
222.753	25.170	900.503	718.418
223.767	25.135	899.262	717.226
224.782	25.035	899.108	716.638
225.796	25.303	898.464	717.133
226.811	25.477	897.615	717.088
227.826	25.076	896.668	714.667
228.840	24.267	895.268	710.267
229.855	24.093	894.567	708.954
230.869	24.464	894.381	710.222
231.884	24.165	893.189	708.023
232.899	24.102	892.914	707.494
233.913	24.927	893.064	710.826
234.928	25.226	892.443	711.455
235.942	24.913	892.428	710.137
236.957	24.888	891.233	709.027
237.972	24.739	890.488	707.781
238.986	24.660	889.254	706.424
240.001	24.683	889.348	706.526
241.015	24.788	888.281	706.034
242.030	24.840	887.987	705.942
243.045	24.972	887.551	706.053
244.059	25.066	886.699	705.684
245.074	25.242	886.499	706.152
246.088	25.327	885.611	705.717
247.103	25.039	884.391	703.554
248.117	24.736	884.836	702.654
249.132	25.432	884.581	705.121
250.147	25.731	884.327	706.030
251.161	25.858	883.676	705.947
252.176	26.022	883.352	706.265
253.190	26.034	882.574	705.628
254.205	25.999	882.593	705.443
255.220	26.222	881.715	705.552
256.234	26.255	880.921	704.982
257.249	26.082	880.346	703.784
258.263	25.934	879.949	702.828
259.278	25.931	879.162	702.127
260.293	26.114	879.015	702.661
261.307	26.043	878.277	701.730
262.322	26.013	877.572	700.989
263.336	25.801	876.936	699.595
264.351	25.600	875.382	697.514
265.366	24.296	873.602	690.983
266.380	23.828	872.925	688.577
267.395	24.826	873.473	692.812
268.409	25.743	872.890	695.834
269.424	25.442	872.791	694.531
270.439	25.573	872.190	694.500
271.453	25.811	871.516	694.817
272.468	25.850	870.492	694.090
273.482	25.897	870.637	694.327
274.497	26.129	869.919	694.583
275.512	25.906	869.120	693.028
276.526	25.349	867.529	689.561
277.541	25.517	867.169	689.859
278.555	25.900	867.090	691.201
279.570	25.749	866.024	689.712
280.585	25.639	865.521	688.832
281.599	25.499	865.500	688.218
282.614	25.713	865.082	688.641
283.628	25.211	863.726	685.584
284.643	24.932	862.958	683.847
285.657	25.415	862.589	685.338
286.672	25.376	862.099	684.739
287.687	24.827	860.999	681.717
288.701	25.041	860.920	682.408
289.716	25.463	860.682	683.765
290.730	25.244	859.589	682.004
291.745	24.977	858.940	680.412
292.760	24.828	858.214	679.215
293.774	24.923	857.314	678.800
294.789	25.730	858.408	682.668
295.803	26.339	858.427	684.934
296.818	26.165	858.183	684.018
297.833	26.421	857.504	684.386
298.847	26.122	856.298	682.231
299.862	25.833	855.152	680.166
300.876	25.996	855.107	680.686
301.891	26.331	854.484	681.394
302.906	26.367	854.150	681.203
303.920	26.059	852.615	678.758
304.935	25.950	852.211	677.970
305.949	26.225	851.873	678.674
306.964	26.491	851.343	679.190
307.979	26.076	851.085	677.364
308.993	26.047	850.600	676.812
310.008	26.283	849.924	677.099
311.022	26.384	850.132	677.581
312.037	26.174	849.086	675.900
313.052	26.163	848.321	675.193
314.066	25.923	847.690	673.734
315.081	25.375	846.037	670.315
316.095	24.499	844.970	666.142
317.110	25.093	845.279	668.546
318.125	25.946	845.292	671.675
319.139	25.612	844.462	669.712
320.154	24.482	842.328	663.764
321.168	23.970	841.615	661.238
322.183	24.503	842.269	663.677
323.197	25.518	842.218	667.347
324.212	25.895	841.812	668.364
325.227	25.892	842.110	668.530
326.241	26.065	841.280	668.455
327.256	26.093	840.459	667.846
328.270	26.010	839.486	666.707
329.285	25.776	839.189	665.548
330.300	25.560	838.932	664.486
331.314	25.473	837.978	663.351
332.329	25.585	837.210	663.099
333.343	25.918	837.022	664.116
334.358	26.221	836.805	665.002
335.373	26.325	836.012	664.696
336.387	26.290	835.740	664.293
337.402	26.628	835.305	665.128
338.416	26.808	834.504	665.094
339.431	26.769	833.730	664.273
340.446	26.772	833.697	664.200
341.460	26.996	833.345	664.681
342.475	26.874	832.928	663.842
343.489	26.667	831.645	662.007
344.504	26.606	831.844	661.881
345.519	26.728	831.512	662.006
346.533	27.084	831.026	662.858
347.548	27.086	830.511	662.395
348.562	27.173	830.155	662.370
349.577	27.057	829.719	661.544
350.592	26.959	829.087	660.623
351.606	26.915	828.426	659.878
352.621	26.926	827.813	659.372
353.635	26.809	827.493	658.632
354.650	26.813	826.889	658.109
355.665	26.478	825.574	655.789
356.679	25.469	823.972	650.809
357.694	25.230	824.129	650.007
358.708	25.893	824.144	652.364
359.723	26.013	822.995	651.829
360.738	26.009	823.266	651.973
361.752	26.545	823.458	654.004
362.767	26.600	822.793	653.616
363.781	26.941	822.560	654.604
364.796	27.395	822.206	655.902
365.810	27.302	821.942	655.297
366.825	27.409	821.753	655.473
367.840	27.442	821.254	655.135
368.854	27.187	820.515	653.572
369.869	26.809	819.345	651.225
370.883	26.725	818.727	650.376
371.898	26.634	818.507	649.816
372.913	26.578	817.952	649.118
373.927	26.760	817.166	649.086
374.942	26.980	816.372	649.187
375.956	27.108	815.857	649.177
376.971	27.015	815.529	648.526
377.986	27.183	814.950	648.607
379.000	27.391	814.536	648.964
380.015	27.330	814.432	648.606
381.029	27.140	813.565	647.181
382.044	27.115	812.938	646.535
383.059	27.128	812.752	646.377
384.073	27.294	812.126	646.411
385.088	27.327	811.365	645.866
386.102	27.118	811.215	644.949
387.117	27.126	810.010	643.960
388.132	27.067	809.581	643.353
389.146	26.871	808.754	641.945
390.161	26.360	807.926	639.424
391.175	26.390	807.606	639.221
392.190	26.975	807.968	641.521
393.205	26.861	807.333	640.554
394.219	25.986	805.567	636.014
395.234	24.297	803.358	628.269
396.248	23.569	802.073	624.645
397.263	24.709	803.197	629.480
398.278	26.382	804.957	636.701
399.292	26.911	804.621	638.241
400.307	26.681	803.421	636.425
401.321	26.454	803.536	635.660
402.336	26.597	803.068	635.739
403.350	27.019	802.895	637.023
404.365	27.238	802.933	637.767
405.380	27.712	802.642	639.139
406.394	27.884	802.654	639.697
407.409	27.984	802.337	639.739
408.423	28.116	801.384	639.383
409.438	28.112	800.634	638.714
410.453	28.019	800.557	638.272
411.467	28.103	800.130	638.166
412.482	28.062	799.641	637.578
413.496	27.983	799.051	636.776
414.511	28.230	798.414	637.072
415.526	28.051	798.291	636.293
416.540	28.037	797.761	635.765
417.555	28.032	797.439	635.435
418.569	27.701	796.403	633.406
419.584	27.513	796.352	632.656
420.599	27.763	795.703	632.953
421.613	110.627	1286.348	1460.739
422.628	95.266	1357.829	1460.856
