DTS Sentinel unit serial number:	SN413079Multiplexer serial number:	ORYXHardware model number:	OX4-SRSoftware version number:	ORYX F/W v4.00 Oryx Data Collector v3.7.2.0data status	okinstallation	princeton_trtdifferential loss correction	single-endedforward channel	channel 3reverse channel	N/Adate	2019/09/16time	02:20:35forward acquisition time	60.00reverse acquisition time	0.00gamma	496.2192k internal	0.2335k external	0.2335temperature offset calibration	0.9950default loss term (dB/km)	0.3790temperature slope calibration	1.0000multiplexer offset coefficient	1.0000multiplexer slope coefficient	1.0000fibre end	0.00T internal ref (°C)	27.56T ext. ref 1 (°C)	10.21T ext. ref 2 (°C)	22.59length (m)	temperature (°C)	Stokes	anti-Stokes-747.200	-97.981	-0.141	0.036
-746.185	724.856	-0.066	0.176
-745.171	-61.724	0.119	-0.050
-744.156	-200.000	-0.038	0.313
-743.142	-4.029	-0.106	-0.074
-742.127	-82.843	-0.146	0.047
-741.112	-156.350	0.057	0.004
-740.098	-102.221	-0.098	0.024
-739.083	800.000	-0.082	-0.229
-738.069	-119.622	-0.419	0.073
-737.054	384.689	-0.116	-0.239
-736.039	-5.167	-0.202	0.140
-735.025	2.277	0.295	-0.214
-734.010	-200.000	0.045	-0.236
-732.996	70.483	-0.107	0.111
-731.981	-200.000	-0.047	0.241
-730.966	-200.000	0.036	0.161
-729.952	516.439	-0.067	-0.158
-728.937	800.000	-0.034	-0.103
-727.923	-82.747	0.104	0.034
-726.908	800.000	0.071	0.264
-725.894	203.681	-0.208	0.323
-724.879	-146.798	-0.205	-0.018
-723.864	-72.224	-0.462	0.172
-722.850	-200.000	0.029	0.252
-721.835	-38.943	0.248	-0.131
-720.821	452.097	0.156	-0.347
-719.806	-63.668	-0.238	-0.098
-718.791	-200.000	0.055	-0.385
-717.777	-11.698	0.187	0.123
-716.762	-200.000	0.014	-0.105
-715.748	-200.000	-0.040	0.298
-714.733	-200.000	-0.028	0.127
-713.718	368.210	-0.030	-0.060
-712.704	-92.786	-0.084	0.024
-711.689	112.672	-0.080	0.098
-710.675	-200.000	-0.014	-0.068
-709.660	-33.097	0.095	-0.053
-708.645	-200.000	-0.022	0.097
-707.631	-65.185	0.164	0.066
-706.616	-11.920	-0.057	-0.037
-705.602	-200.000	0.034	-0.310
-704.587	-138.694	0.218	0.024
-703.572	-31.665	-0.241	-0.136
-702.558	-200.000	-0.040	-0.199
-701.543	-189.866	-0.204	-0.002
-700.529	-65.956	0.111	0.044
-699.514	-200.000	-0.007	0.107
-698.499	-35.119	0.271	0.148
-697.485	-200.000	-0.033	-0.391
-696.470	282.872	0.103	0.185
-695.456	-113.105	0.045	0.009
-694.441	424.278	-0.100	0.215
-693.426	325.928	0.049	-0.094
-692.412	168.051	-0.171	0.244
-691.397	-200.000	-0.014	0.161
-690.383	-120.538	-0.356	0.061
-689.368	-87.241	-0.137	0.042
-688.354	-22.813	-0.196	-0.119
-687.339	-200.000	0.042	-0.262
-686.324	54.270	0.230	0.222
-685.310	800.000	0.044	-0.191
-684.295	-39.835	-0.360	-0.188
-683.281	-43.834	0.300	0.151
-682.266	52.374	-0.168	0.160
-681.251	-149.747	-0.310	-0.024
-680.237	-200.000	-0.011	-0.097
-679.222	-116.976	-0.112	-0.021
-678.208	-11.469	0.174	-0.115
-677.193	-20.731	0.162	-0.100
-676.178	-158.557	-0.167	-0.010
-675.164	-148.975	-0.188	0.015
-674.149	-200.000	0.025	0.229
-673.135	-128.702	0.117	-0.017
-672.120	-103.366	-0.175	0.041
-671.105	166.281	-0.105	-0.148
-670.091	800.000	-0.022	0.074
-669.076	-200.000	-0.271	-0.000
-668.062	-200.000	0.012	-0.229
-667.047	360.577	-0.017	-0.035
-666.032	105.241	-0.208	0.247
-665.018	487.567	0.153	-0.350
-664.003	-195.997	0.314	0.002
-662.989	-160.348	-0.067	0.004
-661.974	-168.109	0.248	-0.010
-660.959	-32.628	-0.177	0.099
-659.945	-56.781	-0.120	-0.053
-658.930	-115.926	-0.154	0.029
-657.916	800.000	-0.052	0.221
-656.901	-200.000	-0.044	-0.406
-655.886	-78.569	-0.386	-0.132
-654.872	-146.936	0.197	0.017
-653.857	49.693	0.189	-0.178
-652.843	-200.000	0.060	-0.348
-651.828	-5.567	-0.123	-0.084
-650.814	44.897	0.115	-0.106
-649.799	-51.890	0.425	0.198
-648.784	327.424	0.044	0.085
-647.770	-142.081	-0.115	-0.011
-646.755	-85.567	-0.193	0.060
-645.741	151.120	-0.070	-0.096
-644.726	-200.000	-0.009	0.311
-643.711	111.807	0.085	0.102
-642.697	800.000	-0.026	-0.109
-641.682	-174.382	0.041	0.001
-640.668	-41.809	0.084	-0.043
-639.653	-200.000	-0.028	-0.353
-638.638	191.615	-0.121	-0.182
-637.624	13.790	0.033	0.026
-636.609	101.279	0.035	0.041
-635.595	26.699	0.076	0.064
-634.580	-200.000	-0.002	0.085
-633.565	800.000	0.061	0.249
-632.551	208.018	-0.148	-0.232
-631.536	145.431	-0.136	0.182
-630.522	-97.996	-0.134	-0.035
-629.507	18.993	-0.142	0.114
-628.492	-16.121	0.230	-0.146
-627.478	-148.498	-0.054	-0.004
-626.463	-200.000	0.041	-0.301
-625.449	-31.128	0.289	-0.163
-624.434	136.410	0.080	0.104
-623.419	-66.594	0.327	0.130
-622.405	-69.215	-0.148	-0.057
-621.390	-145.176	-0.191	-0.017
-620.376	232.988	-0.132	0.217
-619.361	51.788	-0.282	-0.268
-618.346	129.961	-0.122	0.156
-617.332	-200.000	-0.016	-0.128
-616.317	-18.096	0.307	-0.192
-615.303	-51.040	-0.079	-0.037
-614.288	144.389	-0.076	0.102
-613.273	146.479	0.229	-0.307
-612.259	-63.808	-0.426	-0.174
-611.244	365.491	-0.230	0.463
-610.230	-17.333	0.143	-0.090
-609.215	21.952	0.152	0.124
-608.201	-200.000	0.024	0.141
-607.186	800.000	-0.052	0.192
-606.171	137.761	0.025	-0.033
-605.157	-200.000	-0.014	0.367
-604.142	696.118	0.096	-0.252
-603.128	59.101	-0.315	0.310
-602.113	-24.661	-0.089	-0.053
-601.098	-65.324	-0.077	0.031
-600.084	-20.692	-0.303	-0.186
-599.069	800.000	-0.029	-0.105
-598.055	445.827	0.078	-0.171
-597.040	160.770	-0.134	0.187
-596.025	-200.000	-0.053	0.355
-595.011	-200.000	-0.001	-0.270
-593.996	800.000	0.053	-0.213
-592.982	800.000	0.071	-0.304
-591.967	20.961	-0.237	-0.192
-590.952	236.828	-0.097	-0.160
-589.938	-76.049	0.294	0.104
-588.923	-200.000	-0.003	0.343
-587.909	-20.613	0.154	0.095
-586.894	15.178	0.157	0.123
-585.879	-200.000	-0.078	-0.366
-584.865	-37.251	0.190	-0.102
-583.850	-121.139	0.114	-0.019
-582.836	-173.084	0.145	-0.004
-581.821	-200.000	-0.004	-0.224
-580.806	67.109	-0.192	-0.195
-579.792	-36.507	-0.157	-0.085
-578.777	-200.000	-0.019	0.258
-577.763	-119.339	-0.264	0.046
-576.748	794.071	0.033	-0.092
-575.733	-176.907	-0.020	0.001
-574.719	255.868	0.132	-0.227
-573.704	-3.574	-0.071	0.049
-572.690	-86.067	-0.277	0.085
-571.675	-72.927	0.112	0.041
-570.661	-113.339	0.379	-0.074
-569.646	-162.869	-0.396	-0.019
-568.631	230.337	0.090	0.147
-567.617	-200.000	0.003	-0.072
-566.602	-200.000	0.041	-0.349
-565.588	-51.814	-0.069	-0.032
-564.573	-127.250	-0.114	0.017
-563.558	25.513	0.250	-0.208
-562.544	-200.000	-0.037	-0.167
-561.529	44.225	-0.166	-0.152
-560.515	337.255	0.139	0.269
-559.500	-132.618	0.348	0.045
-558.485	2.018	0.215	-0.155
-557.471	-54.455	-0.286	-0.129
-556.456	134.328	-0.280	-0.362
-555.442	-200.000	0.047	0.206
-554.427	-54.643	-0.043	0.019
-553.412	409.386	0.067	-0.141
-552.398	-200.000	0.001	-0.037
-551.383	800.000	0.053	0.222
-550.369	-143.138	0.086	-0.008
-549.354	19.120	-0.220	-0.176
-548.339	424.210	-0.136	0.292
-547.325	-67.663	0.195	0.076
-546.310	-200.000	-0.019	-0.404
-545.296	-160.701	0.099	0.005
-544.281	186.019	-0.227	-0.337
-543.266	-200.000	-0.006	0.238
-542.252	164.220	0.166	-0.233
-541.237	-200.000	0.073	-0.493
-540.223	-75.276	0.300	-0.107
-539.208	-200.000	-0.025	-0.439
-538.193	-94.785	0.394	0.107
-537.179	-2.612	-0.168	0.117
-536.164	152.190	-0.110	-0.150
-535.150	-114.575	0.220	0.042
-534.135	-77.642	-0.159	0.055
-533.121	72.004	-0.151	-0.156
-532.106	-194.679	-0.340	0.003
-531.091	800.000	0.026	-0.076
-530.077	-8.752	0.141	0.094
-529.062	-0.827	-0.020	0.014
-528.048	-82.416	0.154	-0.050
-527.033	-200.000	0.050	0.327
-526.018	-6.531	0.195	0.132
-525.004	10.705	0.182	-0.138
-523.989	146.067	0.164	-0.219
-522.975	-47.624	0.033	0.016
-521.960	-62.668	0.308	0.127
-520.945	-200.000	0.010	-0.066
-519.931	24.974	0.178	-0.147
-518.916	78.064	-0.215	0.228
-517.902	417.646	0.036	-0.077
-516.887	800.000	-0.068	-0.274
-515.872	36.449	-0.171	-0.150
-514.858	198.026	-0.226	0.344
-513.843	800.000	-0.111	0.325
-512.829	101.158	-0.180	0.208
-511.814	800.000	-0.085	0.280
-510.799	-161.194	0.319	-0.017
-509.785	-6.289	0.300	-0.204
-508.770	-59.064	-0.379	0.163
-507.756	249.472	0.059	-0.099
-506.741	-59.537	-0.305	0.130
-505.726	-7.325	0.127	-0.086
-504.712	-193.880	0.309	0.003
-503.697	-97.765	-0.176	-0.045
-502.683	334.490	-0.034	0.065
-501.668	72.945	-0.323	0.336
-500.653	146.739	0.043	0.058
-499.639	-49.441	-0.160	-0.076
-498.624	641.903	-0.038	0.095
-497.610	214.184	0.055	-0.087
-496.595	258.727	0.187	-0.321
-495.581	-146.902	0.177	0.015
-494.566	-105.526	-0.070	0.016
-493.551	101.955	0.043	-0.050
-492.537	-200.000	0.057	0.254
-491.522	-162.155	0.250	-0.012
-490.508	-200.000	-0.009	-0.178
-489.493	800.000	0.089	0.352
-488.478	-139.418	-0.390	0.042
-487.464	155.067	-0.160	-0.219
-486.449	253.263	-0.210	0.357
-485.435	-141.418	-0.062	-0.006
-484.420	7.481	-0.079	0.059
-483.405	497.642	-0.040	0.092
-482.391	309.057	-0.122	-0.227
-481.376	-156.868	-0.148	-0.009
-480.362	-200.000	-0.058	-0.395
-479.347	293.143	0.126	-0.229
-478.332	20.913	0.208	-0.167
-477.318	-29.859	-0.265	0.150
-476.303	342.681	-0.084	-0.164
-475.289	-54.910	0.400	-0.179
-474.274	41.561	-0.234	-0.211
-473.259	-169.035	-0.296	-0.011
-472.245	-101.950	0.152	0.036
-471.230	-43.746	0.171	0.086
-470.216	-98.483	-0.369	-0.094
-469.201	-90.827	-0.195	-0.056
-468.186	-124.734	0.026	-0.004
-467.172	-177.173	-0.372	-0.009
-466.157	-50.271	-0.018	0.008
-465.143	-200.000	0.022	-0.386
-464.128	469.322	-0.179	-0.399
-463.113	800.000	0.086	-0.294
-462.099	-94.409	-0.088	-0.024
-461.084	-52.616	0.150	0.069
-460.070	43.230	0.216	0.196
-459.055	-18.489	-0.278	0.173
-458.040	19.835	0.336	0.269
-457.026	108.695	0.087	0.104
-456.011	-200.000	-0.007	-0.364
-454.997	81.049	0.503	0.539
-453.982	443.896	-0.126	0.275
-452.968	-127.510	-0.216	-0.031
-451.953	800.000	-0.094	0.389
-450.938	572.758	0.093	-0.224
-449.924	-200.000	-0.030	0.184
-448.909	-34.824	-0.196	0.107
-447.895	90.345	0.104	0.116
-446.880	-200.000	-0.290	-0.001
-445.865	-200.000	0.033	-0.183
-444.851	-3.578	0.252	0.174
-443.836	-5.404	0.402	-0.274
-442.822	800.000	-0.014	0.057
-441.807	420.780	0.048	0.101
-440.792	-119.304	0.146	0.025
-439.778	800.000	0.047	-0.169
-438.763	-80.410	0.135	0.045
-437.749	-73.891	0.107	0.039
-436.734	14.080	-0.104	-0.080
-435.719	69.226	-0.305	0.311
-434.705	679.531	0.052	-0.133
-433.690	-200.000	-0.010	0.156
-432.676	-106.704	-0.313	0.069
-431.661	-127.319	-0.019	0.003
-430.646	400.582	-0.110	-0.228
-429.632	525.871	0.096	0.224
-428.617	-34.884	-0.237	0.128
-427.603	32.350	-0.184	-0.158
-426.588	800.000	-0.081	-0.319
-425.573	-93.091	-0.115	-0.032
-424.559	298.077	0.157	-0.286
-423.544	-89.743	-0.145	-0.042
-422.530	-200.000	-0.006	-0.119
-421.515	800.000	0.054	0.237
-420.500	63.694	-0.220	0.219
-419.486	-63.873	-0.169	0.069
-418.471	177.850	-0.258	0.374
-417.457	-28.866	-0.111	-0.063
-416.442	-34.605	-0.131	0.071
-415.428	-64.545	0.282	0.114
-414.413	-21.490	-0.064	-0.038
-413.398	-200.000	-0.027	0.184
-412.384	-7.071	-0.440	-0.296
-411.369	-87.456	-0.232	0.070
-410.355	17.219	0.155	-0.122
-409.340	-129.253	-0.189	-0.026
-408.325	800.000	0.059	-0.230
-407.311	-200.000	0.024	0.152
-406.296	-86.650	0.079	0.024
-405.282	-200.000	-0.030	-0.152
-404.267	57.715	-0.142	-0.138
-403.252	26.681	0.170	0.141
-402.238	-200.000	-0.004	0.207
-401.223	-11.909	-0.014	0.009
-400.209	-112.286	0.143	0.028
-399.194	60.512	-0.141	-0.139
-398.179	215.253	-0.227	0.357
-397.165	-116.094	0.179	0.033
-396.150	31.518	0.149	-0.127
-395.136	-200.000	0.008	0.256
-394.121	800.000	0.095	0.265
-393.106	-109.376	0.253	-0.053
-392.092	-200.000	0.015	0.102
-391.077	127.661	-0.035	-0.044
-390.063	417.849	-0.039	-0.082
-389.048	-116.863	0.211	-0.038
-388.033	237.656	-0.080	-0.132
-387.019	-171.873	0.283	-0.009
-386.004	-10.961	-0.151	-0.099
-384.990	-200.000	-0.000	0.043
-383.975	-105.578	0.285	0.064
-382.960	-26.586	-0.124	-0.072
-381.946	-126.844	0.101	-0.015
-380.931	43.281	0.168	0.152
-379.917	800.000	-0.097	-0.265
-378.902	145.532	-0.198	0.262
-377.888	-122.005	-0.144	0.023
-376.873	800.000	0.193	-0.531
-375.858	-112.829	-0.134	-0.026
-374.844	60.383	-0.063	-0.062
-373.829	327.776	0.129	-0.246
-372.815	8.697	0.201	0.150
-371.800	310.648	-0.053	-0.099
-370.785	-131.767	-0.218	-0.028
-369.771	-200.000	-0.030	-0.318
-368.756	-200.000	-0.034	0.148
-367.742	-200.000	0.068	-0.341
-366.727	-50.026	-0.228	0.107
-365.712	94.409	0.206	0.232
-364.698	-200.000	-0.024	-0.194
-363.683	-86.502	0.075	-0.023
-362.669	506.205	-0.205	0.472
-361.654	800.000	0.006	-0.020
-360.639	800.000	-0.066	-0.228
-359.625	-20.196	-0.149	-0.091
-358.610	-6.954	-0.163	-0.109
-357.596	434.191	-0.023	0.050
-356.581	-199.907	-0.198	-0.001
-355.566	11.939	0.239	-0.182
-354.552	57.163	0.169	-0.163
-353.537	-200.000	0.006	-0.035
-352.523	800.000	0.108	-0.319
-351.508	-1.983	0.094	0.065
-350.493	-6.426	-0.291	0.196
-349.479	87.529	0.098	0.107
-348.464	224.162	-0.048	-0.076
-347.450	179.756	0.173	-0.250
-346.435	-80.951	0.166	-0.054
-345.420	105.701	0.169	0.198
-344.406	-200.000	0.077	0.395
-343.391	-113.231	0.258	0.050
-342.377	-200.000	-0.035	-0.170
-341.362	-6.141	-0.074	0.050
-340.348	-120.205	0.166	-0.028
-339.333	-200.000	-0.000	-0.088
-338.318	492.785	0.056	0.126
-337.304	11.572	0.297	0.225
-336.289	-24.683	0.131	-0.077
-335.275	-55.909	0.098	-0.043
-334.260	-137.495	0.120	-0.013
-333.245	-90.076	-0.359	0.104
-332.231	-44.202	0.192	0.095
-331.216	800.000	0.043	0.124
-330.202	-86.268	-0.224	0.068
-329.187	-116.152	-0.125	-0.023
-328.172	-86.399	-0.304	0.092
-327.158	22.230	-0.079	-0.064
-326.143	-200.000	-0.051	-0.278
-325.129	66.079	-0.275	0.276
-324.114	183.345	-0.104	0.152
-323.099	530.973	0.050	0.116
-322.085	-118.790	0.261	0.045
-321.070	29.899	0.179	-0.150
-320.056	-144.858	-0.285	-0.026
-319.041	215.754	0.030	-0.047
-318.026	-200.000	-0.026	0.139
-317.012	800.000	0.106	0.310
-315.997	361.275	-0.079	-0.156
-314.983	16.060	0.116	-0.090
-313.968	29.209	0.113	-0.095
-312.953	166.415	0.075	0.105
-311.939	800.000	0.088	-0.375
-310.924	126.277	-0.098	-0.122
-309.910	-14.962	0.285	-0.180
-308.895	-58.172	0.186	-0.080
-307.880	-88.018	-0.108	0.032
-306.866	293.727	-0.055	0.100
-305.851	-196.922	0.360	-0.002
-304.837	24.501	0.176	-0.144
-303.822	800.000	0.035	-0.153
-302.807	-128.601	-0.095	-0.013
-301.793	47.695	-0.028	0.025
-300.778	555.004	0.041	0.098
-299.764	324.754	0.096	0.180
-298.749	-104.874	-0.439	0.100
-297.735	-10.390	0.239	0.157
-296.720	39.557	0.152	0.135
-295.705	252.080	-0.062	0.105
-294.691	-73.386	0.088	-0.032
-293.676	103.816	0.105	-0.122
-292.662	166.631	-0.065	-0.091
-291.647	800.000	-0.104	0.300
-290.632	800.000	-0.015	0.063
-289.618	-116.553	0.281	0.051
-288.603	117.092	0.043	-0.053
-287.589	800.000	0.041	0.145
-286.574	800.000	0.075	0.307
-285.559	-200.000	0.022	0.344
-284.545	291.008	0.077	-0.138
-283.530	-51.826	0.296	-0.136
-282.516	-200.000	-0.017	-0.208
-281.501	-99.007	-0.219	-0.055
-280.486	143.543	0.085	0.112
-279.472	800.000	0.045	-0.177
-278.457	-80.050	0.123	-0.041
-277.443	-200.000	-0.012	-0.210
-276.428	-115.516	-0.170	0.032
-275.413	-120.403	0.399	0.067
-274.399	-20.162	0.193	-0.117
-273.384	800.000	0.069	0.216
-272.370	800.000	0.063	-0.197
-271.355	17.262	-0.302	0.237
-270.340	53.036	-0.324	-0.306
-269.326	-172.591	0.180	-0.006
-268.311	-103.329	-0.253	0.059
-267.297	-153.653	-0.197	0.013
-266.282	-94.171	0.245	0.066
-265.267	76.165	-0.113	0.118
-264.253	552.172	0.069	0.164
-263.238	-93.533	-0.105	0.029
-262.224	-35.265	0.389	0.209
-261.209	-168.262	0.114	0.004
-260.195	-200.000	0.036	-0.276
-259.180	800.000	-0.058	0.177
-258.165	-17.918	0.184	0.114
-257.151	80.618	-0.142	-0.151
-256.136	-175.508	0.121	0.003
-255.122	-189.105	-0.194	0.002
-254.107	455.955	-0.103	-0.225
-253.092	76.906	-0.374	0.391
-252.078	-200.000	-0.018	0.262
-251.063	-107.455	0.320	-0.069
-250.049	-143.426	-0.140	-0.013
-249.034	-200.000	0.009	0.060
-248.019	-91.574	0.371	0.104
-247.005	164.812	-0.198	-0.275
-245.990	-12.268	0.293	0.189
-244.976	800.000	0.138	0.439
-243.961	65.238	-0.046	0.046
-242.946	800.000	-0.013	-0.053
-241.932	800.000	-0.062	-0.267
-240.917	258.322	-0.052	-0.088
-239.903	-52.038	-0.246	0.112
-238.888	190.230	0.150	0.222
-237.873	22.450	-0.214	0.172
-236.859	139.064	0.080	-0.103
-235.844	-127.437	0.346	0.050
-234.830	-200.000	0.007	0.060
-233.815	33.085	0.306	0.262
-232.800	25.963	0.113	0.093
-231.786	4.184	-0.242	-0.174
-230.771	-47.998	0.084	-0.040
-229.757	359.698	-0.110	0.217
-228.742	-200.000	-0.002	0.456
-227.727	-174.741	0.442	0.012
-226.713	210.953	-0.075	0.117
-225.698	-200.000	-0.011	0.281
-224.684	-175.782	0.251	-0.007
-223.669	44.807	0.158	-0.143
-222.655	-89.603	0.166	-0.048
-221.640	-156.238	-0.343	0.021
-220.625	-81.281	0.169	0.055
-219.611	140.527	-0.217	0.282
-218.596	126.995	0.097	-0.121
-217.582	119.559	-0.137	-0.168
-216.567	147.800	-0.100	-0.133
-215.552	-200.000	0.021	-0.109
-214.538	329.198	-0.036	-0.068
-213.523	-72.259	0.431	0.157
-212.509	183.806	-0.141	0.206
-211.494	800.000	-0.054	0.202
-210.479	157.571	0.113	0.154
-209.465	-21.087	-0.294	0.177
-208.450	51.007	0.128	0.119
-207.436	-51.999	0.153	0.070
-206.421	30.041	0.146	-0.123
-205.406	376.334	-0.195	0.392
-204.392	-0.377	0.120	-0.084
-203.377	-49.210	0.206	0.097
-202.363	-31.699	0.257	-0.142
-201.348	357.374	-0.213	-0.418
-200.333	-13.973	-0.243	-0.155
-199.319	631.472	-0.020	0.049
-198.304	-200.000	0.019	-0.220
-197.290	-200.000	-0.031	-0.214
-196.275	-187.252	-0.138	0.002
-195.260	175.227	0.147	-0.209
-194.246	-83.628	0.180	-0.056
-193.231	-94.103	-0.213	0.057
-192.217	367.639	0.041	0.081
-191.202	-200.000	-0.021	-0.264
-190.187	411.469	-0.022	-0.045
-189.173	-144.591	-0.070	-0.006
-188.158	-93.386	0.600	-0.164
-187.144	-200.000	-0.003	-0.540
-186.129	21.300	-0.062	-0.050
-185.114	112.636	-0.168	0.199
-184.100	667.664	-0.091	-0.231
-183.085	-82.457	-0.396	-0.127
-182.071	-200.000	0.011	0.134
-181.056	-99.809	-0.328	0.081
-180.042	800.000	0.090	0.339
-179.027	-121.641	-0.364	0.059
-178.012	63.738	-0.065	0.064
-176.998	60.501	0.061	0.059
-175.983	-61.602	-0.048	-0.020
-174.969	451.928	0.135	0.294
-173.954	446.263	0.008	-0.017
-172.939	-200.000	-0.010	-0.129
-171.925	800.000	0.051	-0.184
-170.910	750.073	0.119	0.314
-169.896	156.973	-0.131	-0.178
-168.881	-24.090	-0.160	0.094
-167.866	-27.165	0.037	-0.021
-166.852	-57.856	-0.113	-0.048
-165.837	309.758	-0.111	0.204
-164.823	800.000	-0.073	0.203
-163.808	246.468	0.074	-0.123
-162.793	29.691	0.296	-0.247
-161.779	-179.167	0.077	0.002
-160.764	-43.291	-0.170	-0.084
-159.750	-4.711	-0.122	0.083
-158.735	800.000	-0.061	-0.201
-157.720	16.969	0.014	-0.011
-156.706	-200.000	-0.002	0.455
-155.691	51.463	-0.027	-0.025
-154.677	-142.867	-0.106	-0.010
-153.662	-56.100	0.186	-0.081
-152.647	318.139	-0.128	0.239
-151.633	-67.629	0.084	0.032
-150.618	-140.928	-0.093	0.009
-149.604	-106.414	-0.279	-0.061
-148.589	-31.420	-0.085	-0.047
-147.574	-144.266	0.373	0.034
-146.560	-183.048	-0.068	0.001
-145.545	-82.842	-0.164	0.052
-144.531	-114.008	0.256	-0.049
-143.516	-67.521	0.344	0.133
-142.502	-74.563	0.069	-0.024
-141.487	515.142	0.024	0.055
-140.472	8.448	0.239	-0.177
-139.458	800.000	0.069	-0.229
-138.443	-25.910	-0.363	0.210
-137.429	520.749	0.064	0.148
-136.414	-200.000	-0.020	0.157
-135.399	-80.948	-0.257	-0.083
-134.385	800.000	0.058	-0.241
-133.370	127.868	0.082	-0.102
-132.356	-94.529	-0.142	0.038
-131.341	-95.152	-0.080	-0.021
-130.326	46.041	-0.188	-0.170
-129.312	-200.000	0.006	0.032
-128.297	-158.953	0.258	-0.014
-127.283	144.742	0.153	0.200
-126.268	322.785	-0.092	-0.172
-125.253	185.491	-0.100	0.145
-124.239	209.468	0.192	0.296
-123.224	-99.921	0.286	-0.070
-122.210	220.351	0.032	-0.051
-121.195	-11.153	0.138	0.089
-120.180	568.778	-0.137	0.325
-119.166	-65.447	-0.199	-0.079
-118.151	631.313	0.078	0.195
-117.137	-103.404	0.278	0.064
-116.122	-52.576	-0.112	-0.051
-115.107	800.000	-0.034	0.144
-114.093	-130.834	-0.131	0.017
-113.078	-103.807	0.223	0.051
-112.064	-50.461	-0.149	-0.069
-111.049	488.176	-0.074	-0.165
-110.034	144.802	0.087	-0.114
-109.020	615.210	0.032	0.078
-108.005	800.000	-0.094	0.272
-106.991	-86.470	-0.120	0.036
-105.976	226.702	0.101	-0.161
-104.962	-143.815	-0.121	0.011
-103.947	-94.612	-0.208	-0.055
-102.932	-156.484	-0.524	-0.032
-101.918	61.741	-0.172	0.168
-100.903	142.910	0.112	0.146
-99.889	-200.000	-0.051	0.330
-98.874	405.945	-0.058	0.120
-97.859	19.949	0.298	-0.236
-96.845	-43.696	-0.212	-0.105
-95.830	-94.566	-0.019	0.005
-94.816	500.652	-0.073	0.165
-93.801	800.000	0.035	0.145
-92.786	443.933	-0.164	-0.353
-91.772	76.882	0.338	-0.352
-90.757	114.690	0.097	0.115
-89.743	324.267	-0.110	0.206
-88.728	-17.174	0.290	0.179
-87.713	800.000	0.083	0.227
-86.699	-200.000	0.012	-0.194
-85.684	131.679	-0.003	-0.004
-84.670	-45.700	-0.204	0.099
-83.655	534.786	0.116	-0.270
-82.640	-200.000	0.042	0.354
-81.626	59.670	-0.119	0.115
-80.611	-44.510	0.067	0.033
-79.597	378.511	0.138	-0.277
-78.582	234.982	0.037	-0.060
-77.567	800.000	0.115	0.361
-76.553	413.896	-0.111	0.232
-75.538	-76.068	0.277	-0.096
-74.524	-6.710	-0.162	0.108
-73.509	-200.000	-0.046	0.439
-72.494	-200.000	-0.038	0.261
-71.480	-200.000	0.037	0.183
-70.465	112.247	0.062	0.073
-69.451	-200.000	0.032	-0.253
-68.436	65.386	-0.235	0.233
-67.422	693.427	0.086	0.222
-66.407	461.792	0.096	-0.210
-65.392	63.975	0.278	0.273
-64.378	214.335	-0.119	0.184
-63.363	-105.978	0.106	0.023
-62.349	-38.300	0.145	0.075
-61.334	-19.867	-1.370	-0.828
-60.319	375.377	0.403	0.805
-59.305	686.577	-0.430	-1.100
-58.290	800.000	0.427	1.326
-57.276	800.000	0.499	1.440
-56.261	-200.000	112.255	645.791
-55.246	479.355	1500.782	3326.588
-54.232	148.999	2664.321	3524.836
-53.217	104.069	2170.406	2496.157
-52.203	37.953	1702.162	1480.134
-51.188	30.640	1520.475	1272.293
-50.173	28.330	1496.525	1236.628
-49.159	52.651	1553.467	1451.445
-48.144	51.382	1569.135	1457.324
-47.130	30.989	1526.037	1279.137
-46.115	27.846	1510.945	1245.043
-45.100	27.733	1506.978	1240.957
-44.086	27.646	1505.592	1239.172
-43.071	27.633	1503.652	1237.439
-42.057	27.501	1502.596	1235.629
-41.042	27.541	1500.934	1234.484
-40.027	27.527	1499.653	1233.285
-39.013	27.598	1497.685	1232.096
-37.998	27.480	1496.558	1230.327
-36.984	27.539	1495.368	1229.695
-35.969	27.592	1493.758	1228.678
-34.954	27.480	1492.731	1227.036
-33.940	27.580	1490.711	1225.997
-32.925	27.547	1489.645	1224.846
-31.911	27.612	1488.125	1223.986
-30.896	27.585	1487.120	1222.931
-29.881	27.596	1486.040	1222.068
-28.867	27.576	1484.655	1220.749
-27.852	27.628	1483.320	1219.949
-26.838	27.566	1482.270	1218.620
-25.823	27.655	1480.268	1217.523
-24.809	27.675	1478.530	1216.175
-23.794	27.481	1477.732	1214.178
-22.779	27.645	1476.514	1214.225
-21.765	27.568	1475.516	1212.843
-20.750	27.622	1473.892	1211.820
-19.736	27.675	1472.823	1211.243
-18.721	27.608	1471.775	1209.885
-17.706	27.545	1471.101	1208.865
-16.692	27.581	1469.448	1207.702
-15.677	27.570	1468.914	1207.143
-14.663	27.578	1467.987	1206.382
-13.648	27.524	1467.110	1205.255
-12.633	27.566	1466.005	1204.580
-11.619	27.516	1465.515	1203.798
-10.604	27.491	1464.950	1203.120
-9.590	27.504	1463.817	1202.232
-8.575	27.530	1462.999	1201.683
-7.560	27.540	1461.958	1200.848
-6.546	27.549	1460.908	1199.994
-5.531	27.545	1460.422	1199.518
-4.517	27.566	1459.107	1198.530
-3.502	27.457	1458.235	1197.054
-2.487	27.548	1457.169	1196.725
-1.473	27.509	1456.029	1195.490
-0.458	27.585	1454.483	1194.669
0.556	25.992	1445.278	1184.439
1.571	23.159	1420.491	1145.708
2.586	20.097	1360.301	1078.048
3.600	18.572	1277.910	1003.744
4.615	17.665	1232.307	962.717
5.629	16.756	1179.494	916.459
6.644	13.499	1103.219	840.611
7.659	10.599	1068.971	800.159
8.673	10.250	1063.599	794.354
9.688	10.212	1060.135	791.513
10.702	10.154	1058.364	789.837
11.717	10.214	1056.364	788.568
12.731	11.331	1056.910	794.350
13.746	14.575	1061.192	813.333
14.761	17.235	1063.581	828.070
15.775	17.839	1063.367	830.772
16.790	16.970	1061.357	824.905
17.804	15.885	1058.961	817.704
18.819	15.024	1057.469	812.302
19.834	14.397	1056.010	808.070
20.848	14.069	1055.135	805.740
21.863	13.859	1054.222	803.956
22.877	13.627	1053.711	802.367
23.892	13.584	1052.477	801.152
24.907	13.424	1051.915	799.880
25.921	13.399	1050.900	798.917
26.936	13.458	1050.216	798.612
27.950	13.557	1048.948	798.050
28.965	13.499	1048.113	797.065
29.980	13.594	1046.477	796.210
30.994	13.580	1045.777	795.541
32.009	13.838	1044.754	795.926
33.023	13.839	1043.908	795.219
34.038	13.744	1043.124	794.094
35.053	13.583	1042.495	792.775
36.067	13.644	1041.051	791.899
37.082	13.683	1040.365	791.491
38.096	13.607	1040.043	790.818
39.111	13.641	1039.196	790.262
40.126	13.575	1038.193	789.117
41.140	13.585	1036.903	788.112
42.155	13.522	1035.954	787.024
43.169	13.443	1035.332	786.105
44.184	13.412	1033.766	784.701
45.199	13.414	1032.713	783.840
46.213	13.415	1031.837	783.113
47.228	13.564	1030.431	782.680
48.242	13.519	1029.576	781.751
49.257	13.589	1028.820	781.437
50.271	13.687	1027.810	781.061
51.286	13.589	1027.184	780.054
52.301	13.648	1026.168	779.489
53.315	13.622	1025.534	778.820
54.330	13.597	1024.587	777.915
55.344	13.548	1023.684	776.929
56.359	13.430	1023.195	775.936
57.374	13.513	1022.170	775.479
58.388	13.515	1020.988	774.522
59.403	13.338	1020.214	773.042
60.417	13.436	1018.984	772.499
61.432	13.337	1018.918	771.915
62.447	13.407	1017.999	771.479
63.461	13.265	1017.310	770.227
64.476	13.342	1016.153	769.641
65.490	13.297	1015.718	769.035
66.505	13.309	1014.577	768.159
67.520	13.414	1013.816	768.001
68.534	13.508	1013.163	767.874
69.549	13.388	1012.315	766.605
70.563	13.292	1011.968	765.832
71.578	13.384	1010.896	765.378
72.593	13.449	1009.724	764.725
73.607	13.278	1008.980	763.304
74.622	13.230	1008.246	762.461
75.636	13.136	1007.329	761.267
76.651	13.281	1006.613	761.326
77.666	13.210	1006.077	760.525
78.680	13.300	1005.141	760.165
79.695	13.357	1004.270	759.700
80.709	13.441	1003.579	759.496
81.724	13.361	1002.876	758.529
82.739	13.435	1002.048	758.177
83.753	13.501	1001.407	757.924
84.768	13.529	1001.096	757.749
85.782	13.606	1000.228	757.379
86.797	13.702	999.364	757.095
87.812	13.699	998.301	756.211
88.826	13.678	997.405	755.370
89.841	13.622	996.818	754.601
90.855	13.676	995.899	754.088
91.870	13.562	995.466	753.171
92.884	13.710	994.226	752.837
93.899	13.740	993.337	752.237
94.914	13.762	993.052	752.053
95.928	13.672	992.117	750.872
96.943	13.697	991.863	750.723
97.957	13.685	990.598	749.646
98.972	13.667	989.867	748.946
99.987	13.740	988.765	748.378
101.001	13.743	988.028	747.764
102.016	13.599	987.573	746.707
103.030	13.695	986.358	746.155
104.045	13.559	985.874	745.110
105.060	13.673	984.479	744.502
106.074	13.627	983.824	743.734
107.089	13.676	982.614	742.974
108.103	13.497	981.844	741.521
109.118	13.415	981.275	740.662
110.133	13.459	980.582	740.267
111.147	13.600	979.098	739.713
112.162	13.513	978.594	738.880
113.176	13.378	978.005	737.768
114.191	13.487	976.592	737.121
115.206	13.585	975.857	736.936
116.220	13.562	975.293	736.345
117.235	13.550	974.500	735.628
118.249	13.545	973.520	734.798
119.264	13.494	972.621	733.829
120.279	13.470	971.821	733.053
121.293	13.395	971.437	732.367
122.308	13.369	970.398	731.405
123.322	13.530	969.185	731.135
124.337	13.364	968.633	729.923
125.352	13.402	967.134	728.898
126.366	13.380	966.555	728.298
127.381	13.333	965.135	726.959
128.395	13.334	964.275	726.252
129.410	13.293	963.518	725.437
130.424	13.400	962.462	725.046
131.439	13.461	961.807	724.757
132.454	13.364	961.046	723.695
133.468	13.586	959.947	723.771
134.483	13.529	959.311	722.979
135.497	13.578	958.730	722.692
136.512	13.636	957.968	722.307
137.527	13.491	957.329	721.130
138.541	13.468	956.411	720.274
139.556	13.466	955.830	719.763
140.570	13.596	955.059	719.683
141.585	13.623	954.400	719.239
142.600	13.726	953.213	718.731
143.614	13.608	953.284	718.207
144.629	13.647	952.250	717.532
145.643	13.793	951.642	717.641
146.658	13.670	950.925	716.506
147.673	13.720	949.553	715.627
148.687	13.729	948.515	714.818
149.702	13.524	948.125	713.581
150.716	13.500	947.230	712.737
151.731	13.677	946.083	712.572
152.746	13.501	945.733	711.489
153.760	13.495	945.296	711.072
154.775	13.606	944.151	710.627
155.789	13.782	942.846	710.333
156.804	13.736	942.864	710.087
157.819	13.732	941.968	709.333
158.833	13.694	941.151	708.492
159.848	13.779	940.570	708.353
160.862	13.857	939.821	708.062
161.877	13.784	939.204	707.223
162.892	13.784	938.168	706.382
163.906	13.867	937.018	705.804
164.921	13.704	936.519	704.675
165.935	13.902	934.975	704.290
166.950	13.690	934.358	702.865
167.964	13.727	933.974	702.670
168.979	13.626	932.861	701.343
169.994	13.793	931.480	700.948
171.008	13.690	930.906	700.018
172.023	13.842	930.021	699.932
173.037	13.917	929.311	699.650
174.052	13.914	928.864	699.241
175.067	13.871	928.058	698.390
176.081	13.975	926.879	697.879
177.096	13.926	925.926	696.894
178.110	13.699	925.834	695.809
179.125	13.807	924.972	695.557
180.140	13.718	924.167	694.517
181.154	13.914	923.267	694.600
182.169	13.883	922.975	694.188
183.183	13.948	922.221	693.828
184.198	13.974	921.238	693.139
185.213	13.883	921.078	692.576
186.227	13.997	920.338	692.434
187.242	14.056	919.915	692.300
188.256	14.145	919.158	692.040
189.271	14.276	918.081	691.713
190.286	14.268	917.383	691.091
191.300	13.972	917.122	689.605
192.315	13.782	916.252	688.102
193.329	13.725	915.639	687.346
194.344	14.009	914.591	687.672
195.359	13.785	914.249	686.427
196.373	14.038	913.561	686.898
197.388	14.005	913.321	686.518
198.402	14.194	912.333	686.493
199.417	14.197	912.434	686.521
200.432	14.288	911.535	686.159
201.446	14.375	911.096	686.127
202.461	14.388	910.876	685.952
203.475	14.497	910.485	686.048
204.490	14.384	909.808	685.012
205.504	14.372	908.902	684.220
206.519	14.363	908.159	683.564
207.534	14.328	907.218	682.649
208.548	14.289	906.874	682.173
209.563	14.384	905.658	681.587
210.577	14.347	905.228	681.052
211.592	14.307	904.783	680.491
212.607	14.312	904.626	680.333
213.621	14.357	903.766	679.812
214.636	14.427	902.780	679.294
215.650	14.313	902.333	678.435
216.665	14.465	901.611	678.448
217.680	14.524	901.149	678.283
218.694	14.606	900.505	678.071
219.709	14.541	900.216	677.529
220.723	14.479	899.450	676.640
221.738	14.494	899.054	676.341
222.753	14.487	898.069	675.516
223.767	14.488	897.338	674.907
224.782	14.509	896.401	674.231
225.796	14.764	895.678	674.655
226.811	14.746	894.739	673.816
227.826	14.767	894.218	673.450
228.840	14.642	893.850	672.607
229.855	14.601	893.376	672.027
230.869	14.645	892.390	671.402
231.884	14.565	891.650	670.463
232.899	14.484	891.124	669.686
233.913	14.541	890.241	669.189
234.928	14.510	889.682	668.587
235.942	14.607	888.828	668.273
236.957	14.516	888.222	667.394
237.972	14.502	887.839	666.995
238.986	14.604	886.818	666.576
240.001	14.677	886.141	666.299
241.015	14.636	885.507	665.597
242.030	14.656	884.837	665.118
243.045	14.615	884.396	664.562
244.059	14.735	883.570	664.358
245.074	14.682	883.312	663.897
246.088	14.785	882.758	663.830
247.103	14.841	881.884	663.337
248.117	14.927	881.199	663.102
249.132	14.945	880.971	662.947
250.147	15.089	879.930	662.672
251.161	14.987	879.549	661.922
252.176	15.127	878.874	661.910
253.190	15.047	878.273	661.084
254.205	15.074	877.486	660.540
255.220	15.136	877.132	660.459
256.234	15.221	876.241	660.062
257.249	15.265	875.712	659.780
258.263	15.157	875.505	659.140
259.278	15.249	874.747	658.875
260.293	15.173	873.814	657.814
261.307	15.443	873.100	658.278
262.322	15.398	872.730	657.764
263.336	15.481	872.017	657.493
264.351	15.361	871.597	656.651
265.366	15.371	870.952	656.145
266.380	15.587	870.239	656.394
267.395	15.431	869.386	655.081
268.409	15.284	869.002	654.163
269.424	15.385	868.191	653.886
270.439	15.415	867.759	653.620
271.453	15.349	866.768	652.559
272.468	15.307	866.290	651.981
273.482	15.288	865.679	651.386
274.497	15.394	864.756	651.047
275.512	15.249	864.116	649.944
276.526	15.234	863.868	649.642
277.541	15.467	862.705	649.612
278.555	15.386	862.271	648.914
279.570	15.441	861.900	648.790
280.585	15.632	861.441	649.125
281.599	15.558	860.564	648.123
282.614	15.702	859.669	647.945
283.628	15.520	859.260	646.880
284.643	15.472	858.870	646.343
285.657	15.485	858.452	646.023
286.672	15.640	857.939	646.174
287.687	15.565	857.519	645.514
288.701	15.448	857.132	644.715
289.716	15.613	856.528	644.836
290.730	15.563	855.838	644.070
291.745	15.562	854.996	643.376
292.760	15.677	854.138	643.111
293.774	15.650	853.603	642.548
294.789	15.731	853.218	642.513
295.803	15.736	852.767	642.134
296.818	15.815	851.801	641.649
297.833	15.724	851.347	640.904
298.847	15.668	850.535	640.024
299.862	15.671	850.142	639.685
300.876	15.712	849.272	639.129
301.891	15.884	848.412	639.079
302.906	15.812	847.950	638.399
303.920	15.928	847.561	638.490
304.935	16.060	846.686	638.276
305.949	16.085	846.019	637.808
306.964	15.941	845.808	637.051
307.979	16.000	844.965	636.582
308.993	15.960	844.650	636.135
310.008	15.975	843.928	635.593
311.022	16.025	843.650	635.515
312.037	15.866	843.378	634.654
313.052	15.952	842.705	634.418
314.066	15.875	842.054	633.582
315.081	15.827	841.288	632.768
316.095	15.819	841.042	632.497
317.110	15.898	840.441	632.287
318.125	15.935	839.540	631.689
319.139	15.964	839.137	631.439
320.154	15.882	839.256	631.165
321.168	16.056	838.301	631.044
322.183	16.021	837.739	630.432
323.197	16.014	837.447	630.131
324.212	15.961	836.958	629.510
325.227	16.027	836.260	629.176
326.241	16.071	835.762	628.911
327.256	16.013	834.986	628.054
328.270	16.191	834.360	628.191
329.285	16.062	833.752	627.199
330.300	16.167	833.202	627.119
331.314	16.178	832.794	626.797
332.329	16.203	831.957	626.206
333.343	16.291	831.545	626.164
334.358	16.200	831.112	625.445
335.373	16.212	830.496	624.971
336.387	16.223	830.014	624.595
337.402	16.217	829.572	624.185
338.416	16.307	828.838	623.909
339.431	16.471	828.117	623.916
340.446	16.522	827.841	623.844
341.460	16.474	827.272	623.181
342.475	16.468	826.665	622.646
343.489	16.485	826.254	622.343
344.504	16.481	825.722	621.875
345.519	16.628	825.086	621.880
346.533	16.678	824.524	621.586
347.548	16.647	824.084	621.086
348.562	16.556	823.499	620.256
349.577	16.427	823.234	619.529
350.592	16.473	822.607	619.171
351.606	16.349	822.003	618.206
352.621	16.348	822.180	618.280
353.635	16.554	821.281	618.302
354.650	16.514	821.064	617.938
355.665	16.462	820.510	617.278
356.679	16.465	820.226	617.021
357.694	16.762	819.435	617.455
358.708	16.469	819.057	616.048
359.723	16.616	818.509	616.116
360.738	16.530	817.866	615.264
361.752	16.554	817.512	615.029
362.767	16.655	817.192	615.103
363.781	16.643	816.601	614.559
364.796	16.682	816.282	614.405
365.810	16.919	815.460	614.594
366.825	16.695	815.673	613.887
367.840	16.843	815.160	613.981
368.854	16.784	814.718	613.383
369.869	16.741	814.064	612.679
370.883	16.863	813.319	612.506
371.898	17.015	812.689	612.526
372.913	17.033	811.767	611.840
373.927	16.865	811.650	611.092
374.942	16.893	811.208	610.807
375.956	16.931	810.227	610.150
376.971	16.889	809.646	609.510
377.986	17.081	809.084	609.722
379.000	17.171	808.773	609.754
380.015	17.145	808.143	609.133
381.029	17.110	807.923	608.790
382.044	17.186	807.369	608.590
383.059	17.371	806.363	608.439
384.073	17.330	806.002	607.966
385.088	17.223	805.629	607.250
386.102	17.006	805.120	606.037
387.117	17.123	804.416	605.870
388.132	17.109	804.282	605.667
389.146	17.095	803.704	605.127
390.161	17.037	803.702	604.864
391.175	17.097	803.170	604.624
392.190	17.274	802.755	604.890
393.205	17.244	802.312	604.395
394.219	17.042	802.043	603.422
395.234	17.104	801.339	603.057
396.248	17.091	800.816	602.564
397.263	17.229	800.056	602.431
398.278	17.063	799.751	601.558
399.292	17.134	798.894	601.112
400.307	17.041	798.964	600.780
401.321	16.959	798.518	600.103
402.336	17.093	798.192	600.277
403.350	17.113	797.610	599.859
404.365	17.160	797.161	599.633
405.380	17.333	796.456	599.661
406.394	17.344	796.594	599.751
407.409	17.344	795.935	599.201
408.423	17.447	795.627	599.280
409.438	17.472	794.713	598.625
410.453	17.519	794.589	598.643
411.467	17.594	793.787	598.249
412.482	17.617	793.385	597.974
413.496	17.597	792.998	597.560
414.511	17.797	792.546	597.867
415.526	17.437	792.772	596.723
416.540	17.603	792.274	596.878
417.555	17.599	791.665	596.352
418.569	17.583	791.232	595.915
419.584	17.645	790.869	595.808
420.599	17.782	790.147	595.689
421.613	111.436	1293.422	1477.058
422.628	95.719	1366.730	1477.158
