DTS Sentinel unit serial number:	SN413079Multiplexer serial number:	ORYXHardware model number:	OX4-SRSoftware version number:	ORYX F/W v4.00 Oryx Data Collector v3.7.2.0data status	okinstallation	princeton_trtdifferential loss correction	single-endedforward channel	channel 3reverse channel	N/Adate	2019/09/17time	01:04:35forward acquisition time	60.00reverse acquisition time	0.00gamma	496.2192k internal	0.2325k external	0.2325temperature offset calibration	0.9941default loss term (dB/km)	0.3790temperature slope calibration	1.0000multiplexer offset coefficient	1.0000multiplexer slope coefficient	1.0000fibre end	0.00T internal ref (°C)	29.47T ext. ref 1 (°C)	0.10T ext. ref 2 (°C)	24.12length (m)	temperature (°C)	Stokes	anti-Stokes-747.200	-73.072	0.179	0.066
-746.185	58.584	0.167	0.166
-745.171	800.000	0.023	0.101
-744.156	101.286	0.090	0.105
-743.142	-200.000	-0.017	-0.166
-742.127	-184.695	-0.371	0.006
-741.112	800.000	0.117	-0.344
-740.098	-187.753	-0.319	0.004
-739.083	-94.717	-0.010	-0.003
-738.069	-200.000	-0.006	0.328
-737.054	-115.415	-0.133	0.025
-736.039	-29.322	0.121	0.070
-735.025	-102.808	0.390	0.094
-734.010	108.415	-0.172	-0.207
-732.996	-112.262	-0.315	0.064
-731.981	12.473	-0.089	-0.069
-730.966	-115.202	0.171	-0.033
-729.952	-200.000	-0.023	-0.327
-728.937	-139.408	-0.250	-0.027
-727.923	-120.630	0.482	-0.082
-726.908	-61.240	-0.381	-0.162
-725.894	112.033	0.206	-0.252
-724.879	-92.509	-0.392	0.111
-723.864	-5.721	-0.276	-0.191
-722.850	257.584	-0.039	0.067
-721.835	158.533	0.079	0.110
-720.821	-118.528	0.188	0.034
-719.806	122.158	0.088	-0.111
-718.791	-108.315	-0.088	0.019
-717.777	-134.326	-0.105	0.013
-716.762	-200.000	-0.026	0.236
-715.748	-200.000	0.027	-0.304
-714.733	-52.642	0.057	-0.026
-713.718	-122.884	0.086	-0.014
-712.704	241.022	-0.151	-0.254
-711.689	-96.119	-0.343	-0.092
-710.675	34.425	0.161	0.141
-709.660	515.079	-0.050	0.117
-708.645	110.015	-0.125	-0.152
-707.631	-200.000	0.013	-0.087
-706.616	-159.368	-0.215	0.012
-705.602	65.849	-0.036	0.037
-704.587	173.452	-0.036	-0.052
-703.572	94.448	-0.205	-0.234
-702.558	76.547	0.231	-0.246
-701.543	-24.893	0.200	-0.120
-700.529	0.782	0.041	-0.030
-699.514	211.918	-0.137	-0.217
-698.499	-99.264	-0.029	-0.007
-697.485	-16.321	-0.103	-0.066
-696.470	-166.252	0.190	0.008
-695.456	698.235	-0.133	-0.353
-694.441	800.000	0.029	-0.088
-693.426	-71.184	-0.098	0.037
-692.412	327.122	0.205	0.395
-691.397	222.381	-0.226	-0.367
-690.383	-200.000	-0.064	0.296
-689.368	-200.000	-0.035	-0.196
-688.354	-63.072	-0.325	-0.135
-687.339	146.141	0.223	-0.301
-686.324	450.654	0.054	-0.121
-685.310	-93.514	-0.123	-0.034
-684.295	5.641	0.066	0.049
-683.281	277.731	0.091	-0.162
-682.266	510.716	0.021	0.049
-681.251	-200.000	-0.028	0.314
-680.237	-72.395	-0.348	0.130
-679.222	102.926	0.154	-0.182
-678.208	356.217	0.075	-0.150
-677.193	199.561	0.171	-0.264
-676.178	680.727	-0.049	-0.129
-675.164	-112.698	-0.120	-0.024
-674.149	-95.941	-0.192	0.051
-673.135	-120.068	0.062	-0.011
-672.120	-49.609	0.344	0.165
-671.105	-42.271	-0.359	0.185
-670.091	-200.000	0.018	0.140
-669.076	800.000	-0.037	0.145
-668.062	-120.979	0.333	0.056
-667.047	13.552	0.134	0.104
-666.032	29.716	-0.296	0.253
-665.018	-170.636	-0.343	-0.012
-664.003	-46.898	-0.301	-0.148
-662.989	-24.769	0.275	0.164
-661.974	39.179	-0.067	-0.060
-660.959	-111.212	-0.062	0.013
-659.945	-200.000	0.059	0.284
-658.930	-112.131	-0.034	-0.007
-657.916	-38.033	-0.235	0.125
-656.901	-35.509	0.096	-0.052
-655.886	800.000	-0.071	0.289
-654.872	-72.519	-0.303	-0.112
-653.857	-130.249	0.067	-0.009
-652.843	506.311	0.128	-0.299
-651.828	-200.000	0.138	0.000
-650.814	4.147	-0.052	-0.038
-649.799	-89.330	-0.211	-0.062
-648.784	237.323	0.166	0.277
-647.770	-21.042	-0.056	0.035
-646.755	-166.391	0.283	-0.012
-645.741	-124.643	0.265	-0.041
-644.726	546.664	0.143	0.344
-643.711	90.056	0.069	0.077
-642.697	648.366	0.081	0.209
-641.682	-200.000	0.035	-0.519
-640.668	-89.378	0.072	0.021
-639.653	-25.318	0.201	-0.120
-638.638	-98.770	0.115	0.029
-637.624	800.000	-0.082	-0.297
-636.609	-72.065	-0.156	-0.058
-635.595	-200.000	0.004	0.258
-634.580	116.753	-0.040	-0.049
-633.565	-200.000	0.016	-0.175
-632.551	-10.895	0.252	0.167
-631.536	-94.762	-0.405	-0.111
-630.522	-200.000	0.002	-0.081
-629.507	89.565	0.077	0.087
-628.492	128.458	-0.065	-0.084
-627.478	-23.533	0.141	0.085
-626.463	-130.212	0.346	0.047
-625.449	800.000	0.087	-0.346
-624.434	170.787	0.034	-0.050
-623.419	-27.033	-0.270	0.158
-622.405	678.027	0.002	-0.006
-621.390	-172.218	-0.104	0.003
-620.376	-168.480	-0.130	-0.005
-619.361	68.031	-0.151	-0.155
-618.346	-150.109	0.275	-0.021
-617.332	99.046	-0.123	-0.142
-616.317	95.243	-0.143	-0.163
-615.303	-106.998	-0.200	-0.044
-614.288	-75.068	-0.338	0.121
-613.273	-200.000	0.011	0.101
-612.259	473.723	0.145	-0.328
-611.244	-87.608	0.224	0.068
-610.230	-54.627	0.142	0.064
-609.215	78.570	0.124	0.133
-608.201	-52.074	-0.274	-0.128
-607.186	-173.378	0.124	0.004
-606.171	96.016	-0.130	0.149
-605.157	-191.788	-0.428	-0.004
-604.142	-6.806	-0.153	0.104
-603.128	174.792	0.032	0.047
-602.113	327.264	0.168	-0.324
-601.098	-200.000	0.010	-0.154
-600.084	-174.346	0.484	0.014
-599.069	23.907	-0.314	-0.260
-598.055	-89.772	-0.121	0.036
-597.040	508.455	-0.027	-0.063
-596.025	-46.697	0.307	-0.151
-595.011	-200.000	-0.030	-0.359
-593.996	-157.860	0.134	0.008
-592.982	-112.271	0.237	0.048
-591.967	-200.000	-0.046	0.211
-590.952	-200.000	-0.037	-0.254
-589.938	95.210	0.033	-0.038
-588.923	-77.918	0.070	0.024
-587.909	255.299	-0.078	0.133
-586.894	192.949	0.193	-0.292
-585.879	162.568	0.191	-0.269
-584.865	-41.462	0.150	0.077
-583.850	-101.911	0.191	-0.046
-582.836	-44.214	-0.214	-0.108
-581.821	-119.388	0.324	0.056
-580.806	-64.554	-0.128	0.052
-579.792	-59.496	-0.062	-0.027
-578.777	378.171	-0.095	-0.195
-577.763	-200.000	0.005	-0.286
-576.748	84.795	0.127	-0.139
-575.733	-35.473	0.197	-0.107
-574.719	-200.000	-0.015	0.176
-573.704	70.801	0.187	-0.194
-572.690	-76.222	-0.074	-0.026
-571.675	-57.465	-0.187	0.082
-570.661	-5.757	-0.220	-0.151
-569.646	4.364	-0.242	0.177
-568.631	-89.811	-0.211	-0.062
-567.617	87.448	0.038	-0.042
-566.602	125.402	0.200	-0.253
-565.588	-117.458	-0.450	-0.082
-564.573	562.740	-0.063	0.152
-563.558	474.518	0.047	0.107
-562.544	-132.623	0.160	-0.021
-561.529	-167.675	-0.237	0.009
-560.515	507.296	-0.123	0.286
-559.500	22.953	0.348	0.286
-558.485	-105.621	-0.153	-0.035
-557.471	-74.865	-0.089	0.032
-556.456	121.850	0.100	0.126
-555.442	158.879	-0.222	0.309
-554.427	800.000	0.081	0.241
-553.412	-120.060	-0.372	-0.064
-552.398	154.502	0.204	-0.281
-551.383	74.614	-0.087	-0.092
-550.369	348.751	-0.040	0.078
-549.354	253.409	0.076	0.130
-548.339	237.795	-0.083	0.139
-547.325	-47.950	0.133	-0.064
-546.310	-44.432	-0.221	0.111
-545.296	84.725	-0.131	0.144
-544.281	127.505	0.092	-0.117
-543.266	74.264	-0.058	-0.061
-542.252	150.316	0.133	0.181
-541.237	-49.322	0.288	0.138
-540.223	48.923	0.040	-0.037
-539.208	-32.618	-0.231	0.129
-538.193	227.401	-0.140	0.229
-537.179	47.825	0.135	-0.126
-536.164	-200.000	-0.030	-0.248
-535.150	-163.898	-0.154	-0.007
-534.135	16.617	0.087	0.069
-533.121	-79.950	-0.211	0.071
-532.106	-60.775	-0.122	-0.052
-531.091	-200.000	0.005	0.216
-530.077	-192.574	0.248	0.002
-529.062	10.421	0.077	-0.059
-528.048	800.000	0.102	0.331
-527.033	523.395	-0.027	-0.064
-526.018	-154.641	0.302	-0.020
-525.004	-152.269	0.362	0.026
-523.989	-13.915	0.114	-0.074
-522.975	6.720	0.020	-0.015
-521.960	27.754	-0.271	-0.228
-520.945	155.198	0.089	-0.123
-519.931	-200.000	0.064	0.296
-518.916	25.808	-0.062	0.052
-517.902	483.846	-0.030	0.069
-516.887	800.000	0.008	0.023
-515.872	181.371	-0.103	-0.152
-514.858	-86.850	-0.187	-0.057
-513.843	-150.122	-0.192	-0.015
-512.829	23.521	0.232	-0.191
-511.814	159.623	-0.094	-0.131
-510.799	176.603	-0.091	-0.132
-509.785	-76.493	-0.335	0.118
-508.770	740.542	-0.075	0.202
-507.756	-200.000	0.005	-0.282
-506.741	266.404	0.230	-0.402
-505.726	-93.655	-0.112	0.031
-504.712	-14.809	0.307	-0.197
-503.697	800.000	0.020	0.082
-502.683	-109.551	-0.115	-0.024
-501.668	-200.000	-0.021	0.000
-500.653	-200.000	-0.051	-0.456
-499.639	-89.058	-0.208	-0.061
-498.624	-99.180	0.244	0.062
-497.610	-117.636	-0.322	-0.058
-496.595	800.000	-0.019	-0.057
-495.581	800.000	0.086	0.252
-494.566	-138.462	-0.033	-0.004
-493.551	-171.384	-0.322	-0.011
-492.537	-91.643	-0.477	0.136
-491.522	758.423	0.116	-0.314
-490.508	-200.000	0.019	-0.199
-489.493	123.287	-0.166	0.208
-488.478	-6.992	0.112	0.076
-487.464	145.112	-0.163	0.218
-486.449	-200.000	0.056	0.289
-485.435	-104.078	-0.201	-0.047
-484.420	-8.533	-0.192	-0.129
-483.405	-200.000	0.038	0.173
-482.391	-106.704	0.129	-0.029
-481.376	800.000	-0.076	0.247
-480.362	-200.000	0.014	0.113
-479.347	211.023	0.146	0.229
-478.332	-1.464	0.322	-0.227
-477.318	-57.383	0.215	0.094
-476.303	-162.753	-0.053	-0.003
-475.289	-69.957	0.102	0.039
-474.274	800.000	-0.056	-0.237
-473.259	422.833	-0.056	0.120
-472.245	311.160	0.045	0.084
-471.230	281.464	0.198	0.354
-470.216	-51.939	0.261	-0.121
-469.201	-93.413	-0.146	0.040
-468.186	200.057	-0.324	-0.497
-467.172	-29.931	0.156	0.089
-466.157	-7.866	-0.096	0.065
-465.143	215.136	0.110	0.174
-464.128	-57.957	0.323	-0.141
-463.113	-19.048	0.064	0.040
-462.099	-92.913	0.164	0.046
-461.084	-139.928	-0.509	0.054
-460.070	-200.000	-0.033	-0.306
-459.055	-174.808	0.034	0.001
-458.040	484.562	0.102	-0.232
-457.026	99.077	-0.123	0.142
-456.011	800.000	-0.034	-0.110
-454.997	39.542	0.250	0.224
-453.982	-200.000	-0.014	-0.242
-452.968	151.553	0.118	0.161
-451.953	-19.690	0.138	-0.085
-450.938	244.580	-0.103	0.173
-449.924	-105.599	-0.384	-0.087
-448.909	-200.000	-0.214	-0.001
-447.895	-200.000	-0.057	0.268
-446.880	244.463	0.179	-0.300
-445.865	800.000	0.020	0.077
-444.851	-73.928	0.067	-0.024
-443.836	-55.978	0.180	-0.080
-442.822	-51.402	0.333	-0.155
-441.807	-3.145	-0.103	-0.072
-440.792	800.000	-0.036	-0.116
-439.778	800.000	0.035	0.150
-438.763	-172.465	-0.547	0.017
-437.749	800.000	0.030	0.087
-436.734	-77.875	0.292	-0.100
-435.719	-161.198	-0.385	-0.020
-434.705	-99.334	-0.289	-0.073
-433.690	517.126	-0.080	-0.186
-432.676	-140.915	0.369	-0.038
-431.661	682.704	-0.170	0.443
-430.646	-44.837	0.112	0.056
-429.632	-154.549	0.095	0.006
-428.617	-71.892	0.290	0.108
-427.603	3.204	0.126	0.091
-426.588	230.664	0.108	0.177
-425.573	-21.712	0.145	-0.088
-424.559	-129.776	-0.317	0.043
-423.544	-9.946	-0.117	0.077
-422.530	227.071	0.268	-0.435
-421.515	-30.072	-0.279	0.158
-420.500	53.588	-0.549	-0.525
-419.486	800.000	0.022	0.067
-418.471	132.072	0.068	-0.087
-417.457	4.246	-0.292	-0.213
-416.442	-119.783	-0.442	0.076
-415.428	45.277	0.275	0.253
-414.413	-108.571	0.291	-0.062
-413.398	-200.000	-0.004	0.307
-412.384	22.855	0.301	0.246
-411.369	800.000	-0.027	0.090
-410.355	76.642	0.052	-0.055
-409.340	-73.219	0.130	0.047
-408.325	-200.000	-0.033	-0.239
-407.311	248.324	-0.147	-0.247
-406.296	-200.000	0.013	0.161
-405.282	365.163	-0.137	-0.274
-404.267	-200.000	-0.031	-0.162
-403.252	-200.000	0.024	0.126
-402.238	3.830	-0.207	0.150
-401.223	-1.176	-0.163	-0.115
-400.209	163.940	0.028	0.040
-399.194	106.957	0.023	0.027
-398.179	-200.000	0.011	-0.091
-397.165	-132.408	0.322	-0.041
-396.150	800.000	0.130	-0.504
-395.136	67.196	-0.260	-0.264
-394.121	-59.341	0.281	0.120
-393.106	-122.456	-0.318	-0.052
-392.092	-99.766	-0.174	0.043
-391.077	-200.000	-0.059	0.363
-390.063	-200.000	-0.019	-0.102
-389.048	-122.950	0.190	-0.031
-388.033	-200.000	-0.015	0.088
-387.019	-32.313	-0.196	-0.109
-386.004	593.407	0.052	-0.129
-384.990	-104.077	-0.090	0.021
-383.975	329.415	0.018	-0.035
-382.960	430.087	-0.018	-0.038
-381.946	-191.182	-0.384	0.004
-380.931	-133.684	-0.255	0.032
-379.917	-200.000	0.031	-0.279
-378.902	734.231	0.092	0.245
-377.888	-18.658	0.198	0.123
-376.873	-200.000	-0.009	-0.075
-375.858	-74.943	0.158	0.056
-374.844	-123.812	-0.399	-0.063
-373.829	114.703	-0.047	-0.057
-372.815	150.563	0.122	-0.164
-371.800	-108.760	0.222	0.047
-370.785	193.443	0.163	-0.245
-369.771	20.798	-0.190	-0.153
-368.756	-200.000	0.006	-0.132
-367.742	-177.676	-0.268	-0.006
-366.727	569.531	-0.158	0.381
-365.712	-200.000	0.073	0.354
-364.698	800.000	-0.038	0.160
-363.683	-200.000	0.022	-0.120
-362.669	-200.000	0.010	0.245
-361.654	138.243	0.147	0.192
-360.639	-134.842	0.252	-0.030
-359.625	86.349	0.157	0.172
-358.610	398.305	0.104	0.215
-357.596	-128.850	0.370	0.052
-356.581	-200.000	0.004	0.081
-355.566	800.000	-0.025	0.094
-354.552	800.000	-0.041	-0.169
-353.537	-200.000	0.039	0.389
-352.523	-95.504	0.383	0.102
-351.508	501.760	-0.094	0.217
-350.493	-84.957	-0.169	0.053
-349.479	12.789	-0.284	0.218
-348.464	-48.268	0.067	-0.032
-347.450	34.512	-0.162	0.140
-346.435	-32.586	-0.354	0.196
-345.420	642.263	0.099	0.251
-344.406	-200.000	0.009	0.259
-343.391	800.000	0.075	0.291
-342.377	642.006	-0.045	-0.115
-341.362	-200.000	0.085	-0.000
-340.348	-4.105	0.069	-0.048
-339.333	159.008	-0.144	0.199
-338.318	231.058	0.190	0.309
-337.304	63.493	-0.129	0.128
-336.289	800.000	0.066	-0.205
-335.275	-63.597	0.138	-0.056
-334.260	267.551	-0.099	0.172
-333.245	-200.000	0.042	-0.289
-332.231	-153.946	-0.113	-0.008
-331.216	-8.762	-0.322	0.215
-330.202	51.546	0.104	0.098
-329.187	-51.919	0.248	-0.114
-328.172	800.000	0.109	-0.412
-327.158	-29.489	0.228	-0.129
-326.143	393.241	-0.097	0.200
-325.129	-18.217	-0.092	-0.057
-324.114	-180.843	0.247	0.005
-323.099	-116.998	0.060	0.011
-322.085	-123.705	-0.231	0.036
-321.070	-200.000	0.046	-0.321
-320.056	-34.474	0.349	0.190
-319.041	192.585	-0.217	-0.325
-318.026	-35.519	-0.221	-0.119
-317.012	-200.000	-0.050	-0.317
-315.997	565.232	-0.161	-0.387
-314.983	10.611	-0.371	-0.280
-313.968	800.000	-0.087	0.270
-312.953	103.525	-0.050	-0.058
-311.939	800.000	0.074	-0.221
-310.924	93.099	-0.050	-0.056
-309.910	-130.466	0.343	0.046
-308.895	181.803	0.242	-0.354
-307.880	-106.247	-0.240	-0.053
-306.866	800.000	0.102	0.321
-305.851	-10.131	-0.172	0.113
-304.837	55.331	0.118	-0.113
-303.822	-171.986	-0.422	-0.014
-302.807	-74.766	0.129	0.046
-301.793	-200.000	-0.013	0.265
-300.778	504.259	0.015	-0.034
-299.764	-3.608	-0.052	-0.036
-298.749	64.621	-0.204	-0.204
-297.735	-179.868	0.346	-0.007
-296.720	800.000	0.042	0.182
-295.705	158.395	-0.055	-0.076
-294.691	-49.810	0.119	-0.056
-293.676	208.191	0.227	0.351
-292.662	-200.000	0.003	0.114
-291.647	-197.047	-0.361	-0.002
-290.632	421.050	-0.131	0.278
-289.618	84.636	0.161	0.175
-288.603	364.306	0.093	0.185
-287.589	603.350	0.154	0.380
-286.574	-137.386	0.106	-0.012
-285.559	384.906	0.107	-0.218
-284.545	-43.001	0.379	-0.191
-283.530	-200.000	0.025	0.228
-282.516	-151.142	-0.201	0.015
-281.501	-127.814	0.244	-0.035
-280.486	-75.495	0.381	0.134
-279.472	-34.215	-0.275	0.150
-278.457	140.903	0.081	-0.107
-277.443	163.319	-0.019	0.026
-276.428	-200.000	0.057	-0.294
-275.413	60.834	-0.236	-0.232
-274.399	75.478	0.210	0.220
-273.384	-35.690	-0.172	-0.092
-272.370	-200.000	-0.455	0.002
-271.355	484.687	-0.022	-0.049
-270.340	-200.000	0.009	0.131
-269.326	800.000	-0.018	-0.056
-268.311	-200.000	-0.037	0.583
-267.297	-59.863	-0.130	0.055
-266.282	-125.878	-0.186	-0.028
-265.267	-110.566	0.303	-0.062
-264.253	761.490	0.089	-0.238
-263.238	205.341	0.143	-0.220
-262.224	70.813	-0.269	-0.276
-261.209	23.816	-0.244	-0.199
-260.195	-149.341	-0.210	0.017
-259.180	362.614	0.111	0.221
-258.165	-142.661	0.128	-0.012
-257.151	800.000	0.075	0.208
-256.136	-200.000	-0.013	-0.092
-255.122	-200.000	0.002	0.221
-254.107	81.088	0.103	-0.111
-253.092	-44.021	-0.210	0.105
-252.078	27.161	0.376	0.313
-251.063	462.524	0.119	0.263
-250.049	328.517	0.163	0.310
-249.034	-200.000	0.049	0.280
-248.019	-59.269	-0.088	-0.037
-247.005	-114.427	-0.087	-0.017
-245.990	-200.000	0.007	0.067
-244.976	195.785	0.200	0.301
-243.961	110.989	-0.074	-0.089
-242.946	-7.645	-0.220	-0.147
-241.932	-181.111	-0.139	0.003
-240.917	366.910	0.051	0.102
-239.903	-122.578	0.289	-0.046
-238.888	-83.714	-0.391	-0.123
-237.873	-69.217	0.145	-0.055
-236.859	39.986	0.196	-0.174
-235.844	269.130	0.124	0.215
-234.830	117.761	-0.226	-0.276
-233.815	227.399	0.100	-0.160
-232.800	-200.000	-0.034	-0.264
-231.786	143.198	0.071	-0.093
-230.771	-200.000	0.009	-0.150
-229.757	-88.598	0.116	-0.034
-228.742	54.019	-0.084	0.080
-227.727	800.000	0.133	-0.389
-226.713	450.685	-0.126	0.274
-225.698	500.998	-0.044	0.101
-224.684	800.000	0.026	-0.074
-223.669	-200.000	-0.010	-0.057
-222.655	-111.630	0.415	0.083
-221.640	-115.794	0.083	0.015
-220.625	27.623	0.168	0.140
-219.611	85.054	0.097	-0.105
-218.596	-200.000	0.059	-0.287
-217.582	800.000	-0.077	-0.283
-216.567	98.791	-0.137	-0.157
-215.552	10.875	-0.105	0.079
-214.538	-200.000	-0.059	-0.342
-213.523	72.822	-0.033	0.034
-212.509	308.712	0.038	-0.069
-211.494	800.000	-0.011	-0.034
-210.479	35.615	-0.170	0.147
-209.465	-200.000	0.027	0.339
-208.450	-0.796	-0.276	0.193
-207.436	800.000	0.057	-0.158
-206.421	25.793	-0.165	-0.136
-205.406	-178.840	-0.228	-0.005
-204.392	-58.957	0.405	-0.173
-203.377	1.424	0.111	0.079
-202.363	-96.689	0.090	-0.023
-201.348	-138.274	0.336	-0.037
-200.333	-152.098	-0.175	0.013
-199.319	-200.000	-0.035	0.168
-198.304	147.283	-0.278	0.370
-197.290	-74.746	-0.147	0.052
-196.275	104.332	0.148	-0.172
-195.260	-98.077	0.316	0.080
-194.246	-113.808	0.071	0.014
-193.231	-146.175	0.216	-0.019
-192.217	-85.521	0.168	-0.052
-191.202	-200.000	-0.017	0.262
-190.187	-200.000	-0.060	0.415
-189.173	33.559	-0.105	-0.090
-188.158	-140.759	0.181	0.018
-187.144	-200.000	0.021	-0.314
-186.129	800.000	-0.056	-0.210
-185.114	193.848	-0.182	0.272
-184.100	313.119	0.166	0.307
-183.085	-200.000	-0.014	-0.082
-182.071	-98.364	-0.399	-0.101
-181.056	66.701	0.166	-0.167
-180.042	800.000	-0.043	-0.132
-179.027	308.559	-0.097	-0.178
-178.012	-134.765	0.240	-0.029
-176.998	-145.758	0.160	0.014
-175.983	-46.126	-0.118	-0.057
-174.969	-8.882	-0.359	0.237
-173.954	-13.143	0.195	0.125
-172.939	242.768	0.142	0.234
-171.925	-143.065	0.458	0.044
-170.910	65.818	-0.042	0.042
-169.896	253.928	-0.199	-0.335
-168.881	800.000	0.047	0.202
-167.866	350.043	-0.062	0.121
-166.852	418.249	0.032	-0.067
-165.837	28.643	-0.150	-0.125
-164.823	63.432	0.273	0.270
-163.808	-45.829	0.255	0.124
-162.793	-94.447	0.295	-0.079
-161.779	120.147	-0.206	-0.253
-160.764	800.000	-0.064	0.201
-159.750	-200.000	0.036	0.420
-158.735	63.226	-0.116	0.114
-157.720	-200.000	-0.032	-0.363
-156.706	-138.416	-0.236	0.026
-155.691	-17.515	-0.148	-0.092
-154.677	307.247	-0.096	-0.176
-153.662	-110.222	-0.140	0.029
-152.647	321.272	-0.104	-0.195
-151.633	-145.518	0.168	0.015
-150.618	6.970	-0.395	-0.290
-149.604	-140.595	-0.120	0.012
-148.589	0.913	-0.101	-0.071
-147.574	-47.962	-0.116	-0.055
-146.560	-111.109	0.446	0.090
-145.545	51.834	-0.360	0.338
-144.531	73.044	-0.158	0.162
-143.516	-113.183	0.209	-0.041
-142.502	800.000	-0.066	0.278
-141.487	-32.346	0.276	0.152
-140.472	17.972	0.296	-0.233
-139.458	-22.501	-0.045	0.027
-138.443	-126.010	0.245	0.036
-137.429	-200.000	0.012	0.055
-136.414	-163.607	0.142	-0.007
-135.399	-151.929	-0.143	0.010
-134.385	800.000	0.104	-0.330
-133.370	239.609	-0.159	-0.261
-132.356	179.139	0.171	-0.247
-131.341	-81.060	0.173	0.056
-130.326	-127.284	0.250	0.036
-129.312	-200.000	-0.017	0.144
-128.297	190.761	0.042	0.062
-127.283	-200.000	0.066	-0.291
-126.268	201.163	-0.063	0.095
-125.253	178.421	-0.137	0.197
-124.239	-53.774	-0.225	0.101
-123.224	384.076	-0.074	-0.149
-122.210	-200.000	-0.024	-0.116
-121.195	-140.957	-0.272	-0.028
-120.180	-23.150	0.246	0.146
-119.166	238.837	0.149	-0.244
-118.151	369.022	0.050	0.100
-117.137	-59.764	0.220	0.093
-116.122	28.380	-0.327	0.272
-115.107	-200.000	0.025	0.139
-114.093	-129.156	0.186	-0.026
-113.078	-99.560	-0.150	0.037
-112.064	800.000	-0.043	0.119
-111.049	-200.000	-0.010	0.301
-110.034	800.000	0.187	0.548
-109.020	56.481	0.317	-0.303
-108.005	68.138	0.076	-0.076
-106.991	-200.000	0.024	-0.117
-105.976	-109.114	0.149	0.031
-104.962	-200.000	0.036	0.161
-103.947	-200.000	0.029	0.202
-102.932	-127.298	0.204	-0.029
-101.918	-104.975	0.409	0.092
-100.903	-200.000	-0.014	-0.074
-99.889	-45.177	-0.206	0.101
-98.874	58.196	-0.216	0.208
-97.859	381.551	0.075	-0.153
-96.845	14.586	0.444	-0.341
-95.830	800.000	-0.043	-0.143
-94.816	375.193	-0.030	-0.061
-93.801	-124.454	0.277	-0.042
-92.786	800.000	0.046	0.175
-91.772	-40.221	0.231	0.118
-90.757	357.208	0.054	0.107
-89.743	-90.275	-0.189	0.054
-88.728	196.336	-0.184	-0.276
-87.713	-160.674	0.177	0.009
-86.699	275.093	0.188	0.328
-85.684	81.393	0.191	0.203
-84.670	-33.055	0.299	0.163
-83.655	586.812	0.074	0.178
-82.640	-183.375	0.091	0.002
-81.626	40.564	-0.079	-0.070
-80.611	-37.798	0.209	-0.109
-79.597	94.932	-0.210	0.235
-78.582	142.532	-0.242	-0.317
-77.567	-5.655	0.085	0.057
-76.553	-96.751	0.136	-0.035
-75.538	-87.711	-0.134	0.040
-74.524	-105.133	0.164	-0.037
-73.509	-32.746	0.174	0.095
-72.494	128.693	-0.079	-0.099
-71.480	-149.700	0.429	0.033
-70.465	-200.000	0.046	0.432
-69.451	-70.274	-0.345	-0.129
-68.436	-200.000	-0.073	-0.360
-67.422	800.000	0.126	-0.397
-66.407	-200.000	-0.018	0.129
-65.392	-63.744	0.260	-0.105
-64.378	-115.447	0.286	-0.053
-63.363	176.781	-0.161	-0.229
-62.349	-83.361	0.159	0.050
-61.334	87.563	-0.854	-0.929
-60.319	-26.031	0.438	0.253
-59.305	152.917	-0.771	-1.036
-58.290	333.227	0.696	1.321
-57.276	386.719	0.758	1.538
-56.261	-200.000	109.165	593.444
-55.246	443.198	1486.871	3201.291
-54.232	146.347	2667.436	3517.586
-53.217	104.810	2177.170	2520.973
-52.203	39.595	1708.665	1504.592
-51.188	32.583	1524.000	1293.977
-50.173	30.192	1497.931	1255.623
-49.159	51.553	1553.508	1450.112
-48.144	51.425	1570.649	1465.172
-47.130	32.781	1526.333	1297.112
-46.115	29.816	1511.573	1264.291
-45.100	29.641	1507.865	1259.941
-44.086	29.506	1506.180	1257.567
-43.071	29.557	1503.692	1255.784
-42.057	29.370	1502.751	1253.676
-41.042	29.536	1500.418	1252.808
-40.027	29.436	1499.598	1251.396
-39.013	29.465	1498.171	1250.353
-37.998	29.336	1497.237	1248.651
-36.984	29.464	1495.479	1248.001
-35.969	29.470	1494.420	1247.105
-34.954	29.364	1493.000	1245.159
-33.940	29.520	1491.434	1244.856
-32.925	29.521	1490.410	1243.958
-31.911	29.516	1488.737	1242.479
-30.896	29.463	1487.696	1241.205
-29.881	29.457	1486.691	1240.276
-28.867	29.520	1484.986	1239.226
-27.852	29.468	1484.104	1238.095
-26.838	29.564	1482.369	1237.238
-25.823	29.595	1480.615	1235.933
-24.809	29.522	1479.401	1234.384
-23.794	29.557	1478.059	1233.448
-22.779	29.536	1476.814	1232.218
-21.765	29.527	1475.855	1231.308
-20.750	29.562	1474.438	1230.312
-19.736	29.465	1473.489	1228.823
-18.721	29.488	1472.250	1227.895
-17.706	29.469	1471.264	1226.903
-16.692	29.552	1469.604	1226.020
-15.677	29.517	1468.571	1224.873
-14.663	29.495	1467.654	1223.917
-13.648	29.389	1467.045	1222.660
-12.633	29.345	1466.231	1221.640
-11.619	29.426	1465.762	1221.736
-10.604	29.482	1464.680	1221.156
-9.590	29.379	1463.977	1219.843
-8.575	29.424	1462.853	1219.154
-7.560	29.409	1461.923	1218.228
-6.546	29.419	1461.095	1217.560
-5.531	29.482	1459.963	1216.979
-4.517	29.354	1459.691	1215.864
-3.502	29.411	1458.242	1214.980
-2.487	29.382	1457.319	1213.972
-1.473	29.427	1455.944	1213.073
-0.458	29.374	1454.620	1211.574
0.556	27.635	1445.002	1201.065
1.571	24.802	1420.414	1162.149
2.586	21.565	1360.970	1093.232
3.600	20.000	1278.920	1018.045
4.615	18.912	1233.148	975.351
5.629	16.297	1176.081	915.962
6.644	8.071	1090.304	807.554
7.659	1.416	1049.687	744.853
8.673	0.246	1044.016	735.055
9.688	0.124	1041.083	732.333
10.702	0.073	1039.620	730.992
11.717	-0.043	1037.509	728.881
12.731	2.626	1039.917	743.465
13.746	10.806	1051.126	791.388
14.761	16.924	1058.608	826.872
15.775	17.533	1058.026	829.312
16.790	16.487	1055.645	822.289
17.804	15.407	1053.553	815.342
18.819	14.585	1051.988	810.068
19.834	14.042	1050.710	806.381
20.848	13.829	1049.495	804.343
21.863	13.545	1049.178	802.652
22.877	13.361	1047.965	800.762
23.892	13.234	1046.954	799.306
24.907	13.094	1046.277	798.043
25.921	13.017	1045.865	797.284
26.936	13.198	1044.600	797.125
27.950	13.313	1043.583	796.831
28.965	13.125	1043.452	795.754
29.980	13.263	1042.410	795.551
30.994	13.164	1042.066	794.744
32.009	13.267	1040.954	794.320
33.023	13.277	1040.425	793.896
34.038	13.362	1039.690	793.673
35.053	13.410	1038.339	792.801
36.067	13.301	1037.654	791.687
37.082	13.238	1036.925	790.758
38.096	13.338	1036.167	790.588
39.111	13.242	1035.867	789.831
40.126	13.337	1034.688	789.312
41.140	13.177	1033.417	787.514
42.155	13.130	1032.742	786.706
43.169	13.029	1031.658	785.326
44.184	13.063	1030.485	784.530
45.199	13.104	1029.476	783.883
46.213	13.150	1028.619	783.379
47.228	13.107	1027.230	782.052
48.242	13.266	1026.275	782.008
49.257	13.251	1026.025	781.677
50.271	13.209	1024.705	780.401
51.286	13.261	1023.523	779.677
52.301	13.370	1022.711	779.505
53.315	13.261	1022.547	778.796
54.330	13.254	1021.473	777.879
55.344	13.189	1020.652	776.877
56.359	13.202	1019.667	776.122
57.374	13.191	1018.833	775.365
58.388	13.142	1018.396	774.733
59.403	13.102	1016.942	773.373
60.417	13.101	1016.577	773.020
61.432	13.186	1015.765	772.735
62.447	13.006	1015.282	771.454
63.461	13.029	1014.188	770.664
64.476	13.104	1012.925	769.985
65.490	12.909	1012.233	768.485
66.505	13.004	1011.693	768.450
67.520	12.926	1011.066	767.540
68.534	13.111	1010.040	767.552
69.549	13.105	1009.314	766.904
70.563	13.078	1008.858	766.368
71.578	13.086	1007.712	765.467
72.593	13.033	1006.725	764.403
73.607	12.866	1006.403	763.318
74.622	12.821	1005.070	762.032
75.636	13.040	1004.329	762.414
76.651	13.022	1003.662	761.755
77.666	12.988	1002.702	760.801
78.680	12.984	1002.164	760.309
79.695	12.956	1001.917	759.927
80.709	12.995	1001.181	759.480
81.724	13.027	1000.231	758.841
82.739	12.977	999.605	758.067
83.753	13.082	998.576	757.702
84.768	13.174	998.212	757.782
85.782	13.191	997.077	756.931
86.797	13.284	996.394	756.770
87.812	13.391	995.358	756.406
88.826	13.184	995.013	755.129
89.841	13.111	994.645	754.450
90.855	13.284	993.454	754.272
91.870	13.201	992.737	753.278
92.884	13.372	991.688	753.196
93.899	13.250	991.302	752.282
94.914	13.290	990.636	751.892
95.928	13.357	989.824	751.511
96.943	13.431	988.908	751.087
97.957	13.255	988.471	749.888
98.972	13.217	987.855	749.183
99.987	13.385	986.430	748.796
101.001	13.263	985.539	747.505
102.016	13.255	985.208	747.148
103.030	13.246	984.357	746.398
104.045	13.252	983.406	745.640
105.060	13.335	982.228	745.050
106.074	13.257	981.499	744.080
107.089	13.349	980.300	743.522
108.103	13.246	979.527	742.408
109.118	13.211	978.948	741.746
110.133	13.135	977.979	740.606
111.147	13.081	977.231	739.731
112.162	13.042	976.322	738.805
113.176	13.140	975.800	738.782
114.191	13.078	974.963	737.804
115.206	13.113	974.361	737.441
116.220	13.348	972.451	736.975
117.235	13.255	971.805	736.008
118.249	13.273	970.890	735.328
119.264	13.266	970.467	734.912
120.279	13.090	969.780	733.544
121.293	13.240	968.767	733.381
122.308	13.186	968.207	732.650
123.322	13.143	967.094	731.553
124.337	13.119	966.207	730.712
125.352	13.111	965.010	729.706
126.366	13.044	964.363	728.859
127.381	13.005	962.776	727.421
128.395	13.066	961.882	726.951
129.410	13.075	960.952	726.220
130.424	13.103	960.295	725.785
131.439	13.123	959.345	725.092
132.454	13.202	958.463	724.708
133.468	13.257	957.893	724.453
134.483	13.116	957.429	723.418
135.497	13.344	956.116	723.363
136.512	13.187	955.753	722.335
137.527	13.157	954.907	721.502
138.541	13.197	954.460	721.273
139.556	13.089	953.615	720.101
140.570	13.085	952.839	719.433
141.585	13.266	951.833	719.400
142.600	13.339	951.541	719.432
143.614	13.382	950.224	718.560
144.629	13.356	949.930	718.158
145.643	13.381	949.026	717.524
146.658	13.481	947.838	716.993
147.673	13.380	946.991	715.852
148.687	13.271	946.552	714.985
149.702	13.377	945.233	714.386
150.716	13.329	944.538	713.590
151.731	13.217	943.960	712.603
152.746	13.265	943.164	712.147
153.760	13.204	942.579	711.382
154.775	13.304	941.774	711.142
155.789	13.418	940.640	710.712
156.804	13.341	939.733	709.634
157.819	13.432	939.167	709.531
158.833	13.475	938.442	709.108
159.848	13.404	937.957	708.373
160.862	13.589	937.068	708.431
161.877	13.534	936.277	707.532
162.892	13.405	936.076	706.769
163.906	13.238	934.934	705.132
164.921	13.377	933.875	704.863
165.935	13.366	933.225	704.261
166.950	13.319	932.342	703.335
167.964	13.375	931.537	702.901
168.979	13.394	930.404	702.068
169.994	13.353	929.487	701.140
171.008	13.420	928.703	700.770
172.023	13.497	927.710	700.285
173.037	13.489	927.047	699.686
174.052	13.481	926.276	699.009
175.067	13.573	925.405	698.679
176.081	13.399	925.222	697.744
177.096	13.384	924.142	696.804
178.110	13.573	923.106	696.758
179.125	13.406	922.735	695.712
180.140	13.480	922.090	695.479
181.154	13.535	921.146	694.932
182.169	13.542	920.969	694.769
183.183	13.605	920.053	694.278
184.198	13.691	919.039	693.811
185.213	13.665	918.784	693.452
186.227	13.709	918.100	693.055
187.242	13.589	918.253	692.610
188.256	13.686	916.783	691.843
189.271	13.762	916.414	691.822
190.286	13.739	915.607	691.054
191.300	13.576	914.679	689.617
192.315	13.601	913.738	688.951
193.329	13.567	913.187	688.332
194.344	13.555	912.684	687.842
195.359	13.559	912.323	687.525
196.373	13.601	911.532	687.042
197.388	13.735	910.748	686.947
198.402	13.867	910.255	687.060
199.417	13.815	910.294	686.813
200.432	13.735	910.096	686.269
201.446	13.872	909.324	686.197
202.461	13.976	908.964	686.294
203.475	14.069	908.243	686.070
204.490	14.162	907.152	685.570
205.504	13.974	906.457	684.208
206.519	13.978	905.795	683.666
207.534	13.966	904.796	682.801
208.548	13.852	904.429	681.996
209.563	13.971	903.563	681.770
210.577	13.933	902.837	681.005
211.592	14.003	902.198	680.752
212.607	13.994	901.970	680.484
213.621	14.065	901.520	680.373
214.636	14.064	900.676	679.671
215.650	14.055	900.295	679.287
216.665	14.097	899.242	678.604
217.680	14.123	898.871	678.372
218.694	14.158	898.651	678.288
219.709	14.102	898.091	677.576
220.723	14.263	897.098	677.422
221.738	14.229	896.012	676.405
222.753	14.207	895.571	675.920
223.767	14.219	894.689	675.244
224.782	14.145	894.304	674.594
225.796	14.309	893.558	674.637
226.811	14.360	892.631	674.085
227.826	14.327	892.027	673.435
228.840	14.222	891.569	672.603
229.855	14.253	890.824	672.108
230.869	14.301	890.185	671.759
231.884	14.226	889.942	671.214
232.899	14.249	888.936	670.491
233.913	14.121	888.411	669.521
234.928	14.179	887.806	669.238
235.942	14.227	886.714	668.549
236.957	14.240	886.029	668.025
237.972	14.287	885.384	667.669
238.986	14.338	884.815	667.383
240.001	14.252	884.506	666.747
241.015	14.121	883.922	665.722
242.030	14.484	882.848	666.308
243.045	14.286	882.534	665.221
244.059	14.309	881.955	664.815
245.074	14.335	881.012	664.151
246.088	14.381	880.501	663.891
247.103	14.483	880.077	663.917
248.117	14.378	879.661	663.128
249.132	14.448	879.005	662.853
250.147	14.642	878.034	662.832
251.161	14.732	877.426	662.670
252.176	14.701	876.646	661.900
253.190	14.809	875.938	661.737
254.205	14.617	875.521	660.601
255.220	14.902	874.908	661.208
256.234	14.887	873.713	660.185
257.249	14.965	873.210	660.055
258.263	14.730	873.405	659.218
259.278	14.825	872.691	658.994
260.293	14.868	871.816	658.446
261.307	14.880	871.404	658.122
262.322	14.917	870.937	657.858
263.336	14.819	870.682	657.222
264.351	14.998	869.801	657.202
265.366	14.960	868.790	656.230
266.380	15.081	868.301	656.278
267.395	15.107	867.482	655.703
268.409	14.999	867.171	654.985
269.424	14.986	866.382	654.281
270.439	14.969	865.805	653.722
271.453	14.920	864.874	652.770
272.468	15.040	863.900	652.444
273.482	15.078	863.159	651.977
274.497	14.952	862.826	651.176
275.512	14.877	862.330	650.451
276.526	14.960	861.331	649.964
277.541	15.012	860.880	649.768
278.555	15.040	860.396	649.453
279.570	15.145	859.634	649.228
280.585	15.152	859.189	648.863
281.599	15.173	858.526	648.384
282.614	15.172	857.691	647.694
283.628	15.266	857.232	647.651
284.643	15.124	856.924	646.812
285.657	15.247	856.470	646.887
286.672	15.091	856.225	646.046
287.687	15.112	855.296	645.365
288.701	15.060	855.076	644.945
289.716	15.245	854.166	644.913
290.730	15.252	853.287	644.216
291.745	15.183	853.258	643.873
292.760	15.193	852.404	643.212
293.774	15.359	851.022	642.747
294.789	15.244	851.166	642.360
295.803	15.423	850.435	642.433
296.818	15.416	849.588	641.711
297.833	15.236	849.651	641.013
298.847	15.183	849.237	640.443
299.862	15.355	847.815	639.971
300.876	15.438	847.104	639.692
301.891	15.548	846.386	639.514
302.906	15.451	846.134	638.897
303.920	15.601	845.032	638.580
304.935	15.483	844.839	637.928
305.949	15.526	844.422	637.719
306.964	15.632	843.521	637.385
307.979	15.545	843.139	636.711
308.993	15.483	842.464	635.909
310.008	15.647	841.705	635.902
311.022	15.809	841.236	636.102
312.037	15.754	840.788	635.500
313.052	15.620	840.490	634.713
314.066	15.703	839.921	634.540
315.081	15.526	839.078	633.179
316.095	15.540	838.699	632.890
317.110	15.556	838.216	632.530
318.125	15.546	837.600	631.970
319.139	15.623	836.832	631.626
320.154	15.570	836.593	631.188
321.168	15.602	835.824	630.674
322.183	15.786	834.993	630.680
323.197	15.724	834.678	630.154
324.212	15.846	833.904	629.973
325.227	15.645	833.451	628.820
326.241	15.699	833.293	628.848
327.256	15.603	832.869	628.114
328.270	15.729	832.005	627.876
329.285	15.712	831.397	627.299
330.300	15.751	830.637	626.817
331.314	15.552	830.535	625.942
332.329	15.665	829.992	625.897
333.343	15.772	829.199	625.643
334.358	15.721	828.768	625.072
335.373	15.793	828.102	624.783
336.387	15.856	827.729	624.680
337.402	15.962	826.895	624.389
338.416	15.931	826.228	623.713
339.431	15.928	825.964	623.448
340.446	15.939	825.085	622.771
341.460	16.079	824.874	623.073
342.475	16.056	824.561	622.695
343.489	16.139	823.700	622.296
344.504	16.205	823.103	622.036
345.519	16.101	822.703	621.293
346.533	16.072	822.425	620.923
347.548	16.220	821.396	620.635
348.562	16.156	821.019	620.059
349.577	16.092	820.743	619.561
350.592	16.033	820.323	618.974
351.606	16.084	819.565	618.533
352.621	16.167	818.832	618.229
353.635	16.057	818.743	617.704
354.650	16.078	818.648	617.656
355.665	16.049	817.928	616.951
356.679	16.254	816.955	616.913
357.694	16.336	816.356	616.704
358.708	16.264	816.519	616.511
359.723	16.167	815.646	615.442
360.738	16.326	814.723	615.273
361.752	16.360	814.650	615.286
362.767	16.247	814.401	614.631
363.781	16.368	813.824	614.581
364.796	16.448	813.185	614.336
365.810	16.434	812.949	614.053
366.825	16.446	812.763	613.902
367.840	16.481	812.184	613.535
368.854	16.678	811.704	613.835
369.869	16.545	811.326	613.010
370.883	16.459	810.404	611.948
371.898	16.508	810.260	611.963
372.913	16.440	809.286	610.930
373.927	16.578	808.899	611.080
374.942	16.640	808.152	610.686
375.956	16.470	807.854	609.796
376.971	16.581	807.119	609.586
377.986	16.667	806.501	609.373
379.000	16.851	805.831	609.474
380.015	16.713	805.798	608.901
381.029	16.661	805.465	608.407
382.044	16.761	804.669	608.110
383.059	16.809	803.772	607.551
384.073	16.707	803.621	607.019
385.088	16.775	802.913	606.674
386.102	16.781	802.030	605.973
387.117	16.667	801.645	605.221
388.132	16.741	801.430	605.270
389.146	16.781	801.190	605.179
390.161	16.701	800.764	604.517
391.175	16.782	800.290	604.396
392.190	16.703	799.881	603.752
393.205	16.786	799.473	603.688
394.219	16.815	798.983	603.364
395.234	16.746	798.624	602.796
396.248	16.754	798.357	602.571
397.263	16.752	797.686	602.003
398.278	16.755	796.801	601.294
399.292	16.740	796.600	601.035
400.307	16.902	796.112	601.187
401.321	16.836	795.992	600.807
402.336	16.765	795.360	600.028
403.350	16.903	795.009	600.200
404.365	16.905	794.722	599.935
405.380	17.032	793.988	599.779
406.394	17.033	793.548	599.395
407.409	16.892	793.706	598.963
408.423	17.058	792.839	598.840
409.438	16.990	792.331	598.165
410.453	17.022	792.109	598.059
411.467	17.106	791.709	598.000
412.482	17.110	791.019	597.437
413.496	17.264	790.471	597.515
414.511	17.266	790.214	597.274
415.526	17.233	789.588	596.630
416.540	17.155	789.608	596.319
417.555	17.246	789.113	596.212
418.569	17.238	788.501	595.669
419.584	17.298	787.922	595.389
420.599	17.297	787.594	595.084
421.613	108.964	1291.234	1469.736
422.628	93.408	1364.594	1469.825
