DTS Sentinel unit serial number:	SN413079Multiplexer serial number:	ORYXHardware model number:	OX4-SRSoftware version number:	ORYX F/W v4.00 Oryx Data Collector v3.7.2.0data status	okinstallation	princeton_trtdifferential loss correction	single-endedforward channel	channel 3reverse channel	N/Adate	2019/09/15time	08:08:34forward acquisition time	60.00reverse acquisition time	0.00gamma	496.2192k internal	0.2324k external	0.2324temperature offset calibration	0.9980default loss term (dB/km)	0.3790temperature slope calibration	1.0000multiplexer offset coefficient	1.0000multiplexer slope coefficient	1.0000fibre end	0.00T internal ref (°C)	30.94T ext. ref 1 (°C)	4.98T ext. ref 2 (°C)	27.30length (m)	temperature (°C)	Stokes	anti-Stokes-747.200	-36.248	0.072	-0.039
-746.185	293.077	-0.077	-0.142
-745.171	756.484	-0.042	0.115
-744.156	58.316	0.054	-0.054
-743.142	800.000	0.060	0.238
-742.127	667.376	0.084	0.220
-741.112	-200.000	-0.002	-0.319
-740.098	15.099	-0.244	0.193
-739.083	-200.000	-0.046	-0.212
-738.069	12.423	-0.143	-0.111
-737.054	-200.000	0.046	0.572
-736.039	-200.000	0.031	0.261
-735.025	360.539	0.145	0.292
-734.010	660.113	-0.075	-0.194
-732.996	-95.512	-0.125	-0.034
-731.981	513.797	0.099	0.233
-730.966	-200.000	0.010	-0.274
-729.952	-200.000	0.012	0.252
-728.937	-200.000	0.014	0.109
-727.923	-200.000	-0.024	0.121
-726.908	-18.831	0.176	-0.111
-725.894	44.568	0.095	0.088
-724.879	73.550	-0.268	0.283
-723.864	-128.144	-0.368	0.053
-722.850	89.950	-0.274	-0.309
-721.835	-36.466	0.252	-0.137
-720.821	506.853	-0.073	-0.170
-719.806	-164.912	-0.354	-0.016
-718.791	800.000	0.130	0.532
-717.777	-135.568	-0.163	-0.020
-716.762	444.639	0.032	-0.071
-715.748	625.026	-0.055	0.139
-714.733	-35.397	-0.260	0.142
-713.718	-118.455	-0.204	0.037
-712.704	-140.596	-0.225	-0.024
-711.689	-57.847	-0.201	0.088
-710.675	73.789	0.051	0.053
-709.660	161.388	0.024	-0.034
-708.645	-93.626	-0.300	-0.084
-707.631	41.389	0.023	-0.021
-706.616	146.574	-0.022	0.030
-705.602	-29.310	0.110	0.064
-704.587	-119.505	0.335	0.058
-703.572	224.135	0.119	0.193
-702.558	-38.611	0.201	0.107
-701.543	52.146	-0.126	-0.121
-700.529	-200.000	0.006	0.030
-699.514	226.370	0.065	-0.107
-698.499	477.261	0.111	0.252
-697.485	-157.729	-0.212	-0.013
-696.470	186.291	-0.155	-0.233
-695.456	-85.580	-0.160	0.050
-694.441	311.487	-0.049	-0.093
-693.426	436.571	-0.093	0.204
-692.412	121.758	-0.059	0.074
-691.397	-200.000	0.006	-0.363
-690.383	66.410	0.202	0.206
-689.368	541.091	-0.110	-0.263
-688.354	442.638	0.029	-0.063
-687.339	-200.000	-0.060	0.530
-686.324	512.007	0.138	-0.324
-685.310	-11.419	0.158	0.105
-684.295	800.000	-0.053	-0.211
-683.281	-85.217	-0.123	-0.039
-682.266	516.004	-0.077	0.181
-681.251	370.382	0.134	-0.273
-680.237	-200.000	-0.027	-0.358
-679.222	-200.000	0.016	-0.190
-678.208	-121.189	0.180	-0.030
-677.193	-200.000	0.038	-0.200
-676.178	30.534	-0.089	0.077
-675.164	671.814	0.026	0.069
-674.149	-200.000	-0.002	0.008
-673.135	800.000	0.034	-0.114
-672.120	800.000	0.066	0.200
-671.105	-71.785	-0.203	0.076
-670.091	-200.000	-0.001	0.197
-669.076	-62.456	-0.095	0.040
-668.062	-200.000	0.162	-0.000
-667.047	-49.037	-0.273	-0.131
-666.032	-75.448	-0.128	0.046
-665.018	-35.639	-0.380	0.207
-664.003	-28.490	-0.040	0.023
-662.989	49.066	-0.107	-0.101
-661.974	273.139	-0.134	0.239
-660.959	-85.332	0.240	-0.075
-659.945	-14.415	-0.289	-0.188
-658.930	-81.213	0.175	-0.058
-657.916	-31.011	-0.134	-0.076
-656.901	-200.000	-0.029	0.287
-655.886	-200.000	0.118	0.000
-654.872	-73.352	0.151	-0.056
-653.857	-14.874	0.401	-0.259
-652.843	-107.423	-0.253	-0.056
-651.828	131.284	-0.148	-0.191
-650.814	-155.339	-0.469	0.031
-649.799	14.514	-0.140	-0.110
-648.784	-193.428	-0.177	0.002
-647.770	-162.100	0.300	0.015
-646.755	449.186	-0.057	-0.126
-645.741	-27.613	-0.311	-0.181
-644.726	170.493	-0.057	-0.082
-643.711	74.548	-0.171	-0.181
-642.697	224.900	-0.200	0.326
-641.682	800.000	-0.043	-0.125
-640.668	160.830	0.057	-0.080
-639.653	41.398	-0.088	-0.080
-638.638	-5.988	0.313	0.215
-637.624	-200.000	-0.058	0.533
-636.609	-81.566	0.257	0.085
-635.595	800.000	0.105	-0.437
-634.580	353.266	-0.118	-0.236
-633.565	-53.843	0.160	-0.073
-632.551	-133.826	-0.199	-0.025
-631.536	178.733	-0.014	0.020
-630.522	11.010	-0.111	-0.086
-629.507	79.111	0.181	-0.195
-628.492	134.773	0.107	0.139
-627.478	-200.000	0.002	-0.136
-626.463	-70.421	-0.186	-0.071
-625.449	-26.488	-0.288	-0.170
-624.434	11.069	-0.149	-0.115
-623.419	-200.000	-0.011	-0.181
-622.405	-65.060	0.231	0.094
-621.390	114.721	-0.123	0.151
-620.376	-120.079	-0.206	-0.036
-619.361	800.000	-0.084	-0.355
-618.346	-29.911	0.071	0.041
-617.332	-187.350	0.183	-0.002
-616.317	47.906	0.108	0.101
-615.303	490.681	0.072	0.165
-614.288	13.336	-0.288	0.225
-613.273	-162.412	-0.165	0.008
-612.259	49.237	-0.217	0.205
-611.244	-144.307	0.229	-0.021
-610.230	-116.943	-0.235	-0.043
-609.215	-99.898	0.107	-0.027
-608.201	-128.279	-0.192	-0.028
-607.186	3.755	0.360	-0.264
-606.171	-11.268	-0.129	0.085
-605.157	-200.000	-0.030	0.172
-604.142	-99.645	-0.139	-0.035
-603.128	-139.130	-0.159	0.017
-602.113	-200.000	0.004	-0.277
-601.098	-200.000	-0.087	-0.383
-600.084	800.000	-0.104	0.397
-599.069	-105.849	-0.260	-0.059
-598.055	-96.302	0.069	0.018
-597.040	-103.952	-0.082	0.019
-596.025	-200.000	-0.076	-0.350
-595.011	-126.032	0.109	-0.016
-593.996	-200.000	0.018	0.104
-592.982	109.641	0.100	-0.120
-591.967	-200.000	-0.041	-0.243
-590.952	88.846	-0.105	-0.117
-589.938	21.636	0.061	0.049
-588.923	800.000	0.064	0.269
-587.909	692.916	-0.024	-0.064
-586.894	-161.739	-0.106	-0.005
-585.879	461.220	0.109	0.244
-584.865	-31.713	-0.199	0.112
-583.850	-15.260	0.279	-0.179
-582.836	-154.014	0.262	-0.018
-581.821	-129.532	0.513	-0.071
-580.806	-51.736	-0.068	-0.032
-579.792	-200.000	-0.301	-0.001
-578.777	-32.508	-0.240	0.134
-577.763	89.763	0.081	0.090
-576.748	-10.701	-0.098	0.065
-575.733	-50.749	-0.395	0.186
-574.719	-200.000	-0.011	0.125
-573.704	-200.000	0.065	0.482
-572.690	341.255	-0.165	0.323
-571.675	242.888	0.149	-0.250
-570.661	309.337	0.031	-0.058
-569.646	-200.000	0.033	0.175
-568.631	-151.045	-0.178	-0.013
-567.617	800.000	0.052	-0.150
-566.602	-143.299	0.180	-0.017
-565.588	-162.265	-0.286	-0.014
-564.573	-77.928	-0.248	0.086
-563.558	800.000	0.077	0.262
-562.544	800.000	-0.036	0.129
-561.529	-133.010	0.082	0.010
-560.515	-200.000	0.034	-0.248
-559.500	-13.420	0.137	0.089
-558.485	335.087	0.071	0.137
-557.471	94.804	-0.222	0.253
-556.456	69.650	-0.101	0.104
-555.442	800.000	0.065	-0.269
-554.427	-85.453	-0.213	-0.067
-553.412	800.000	-0.073	0.244
-552.398	-4.636	0.217	0.150
-551.383	-146.665	-0.214	-0.019
-550.369	-152.419	-0.147	0.011
-549.354	-200.000	-0.032	-0.156
-548.339	-85.075	-0.276	0.087
-547.325	-51.926	0.190	-0.088
-546.310	800.000	-0.052	-0.204
-545.296	-24.622	-0.080	-0.048
-544.281	223.821	-0.032	-0.051
-543.266	800.000	-0.208	0.596
-542.252	-200.000	-0.045	0.283
-541.237	-200.000	0.022	-0.244
-540.223	-200.000	-0.012	-0.482
-539.208	-200.000	0.033	-0.291
-538.193	159.046	0.071	-0.099
-537.179	23.563	0.128	-0.105
-536.164	-77.406	-0.095	-0.033
-535.150	-200.000	-0.024	0.164
-534.135	-71.900	0.043	-0.016
-533.121	-200.000	0.030	0.199
-532.106	112.701	0.100	0.121
-531.091	-15.994	0.195	-0.124
-530.077	-17.232	0.189	-0.119
-529.062	73.841	-0.184	-0.193
-528.048	-200.000	0.017	0.130
-527.033	-94.623	-0.311	0.085
-526.018	-200.000	0.001	-0.131
-525.004	15.842	-0.173	-0.136
-523.989	-200.000	-0.019	0.213
-522.975	228.760	-0.070	-0.114
-521.960	48.739	-0.213	0.200
-520.945	218.476	-0.131	0.209
-519.931	-200.000	-0.018	0.483
-518.916	-112.869	-0.415	-0.082
-517.902	-139.221	0.319	-0.034
-516.887	-12.917	-0.074	-0.048
-515.872	248.529	0.109	-0.185
-514.858	-24.759	0.308	-0.183
-513.843	-72.107	0.070	-0.026
-512.829	-135.327	-0.241	-0.029
-511.814	-15.477	-0.287	-0.183
-510.799	-76.743	0.275	0.096
-509.785	-200.000	0.017	0.111
-508.770	7.269	-0.198	-0.148
-507.756	-127.296	0.118	0.017
-506.741	-200.000	0.019	-0.211
-505.726	-33.701	0.320	0.177
-504.712	615.289	0.102	0.256
-503.697	800.000	-0.070	0.215
-502.683	-121.497	-0.079	-0.013
-501.668	107.757	0.059	0.070
-500.653	-200.000	-0.041	-0.195
-499.639	100.374	-0.082	-0.095
-498.624	43.310	0.104	-0.095
-497.610	210.755	-0.055	0.087
-496.595	-97.276	-0.277	-0.072
-495.581	-24.158	-0.406	-0.243
-494.566	35.098	0.148	0.130
-493.551	800.000	0.031	-0.134
-492.537	373.408	-0.173	-0.351
-491.522	164.037	0.240	0.338
-490.508	53.488	0.197	0.189
-489.493	-126.692	0.104	-0.015
-488.478	-98.873	0.166	-0.042
-487.464	-55.923	-0.189	0.084
-486.449	-106.747	0.026	-0.006
-485.435	143.436	-0.223	-0.297
-484.420	-138.307	0.285	0.032
-483.405	800.000	0.025	-0.102
-482.391	246.248	-0.184	0.310
-481.376	-152.269	0.077	0.006
-480.362	800.000	-0.045	0.163
-479.347	46.596	-0.073	-0.067
-478.332	273.908	0.100	0.177
-477.318	67.155	-0.307	-0.313
-476.303	-45.746	0.052	0.026
-475.289	-200.000	-0.023	-0.169
-474.274	800.000	-0.039	-0.145
-473.259	103.847	-0.241	-0.283
-472.245	-200.000	-0.035	0.270
-471.230	-187.800	0.223	-0.003
-470.216	-200.000	-0.035	-0.499
-469.201	-87.113	-0.256	-0.078
-468.186	-170.087	0.165	0.006
-467.172	-200.000	-0.028	0.148
-466.157	-200.000	0.056	-0.394
-465.143	-126.966	0.090	-0.013
-464.128	402.577	-0.083	-0.175
-463.113	178.974	-0.045	-0.065
-462.099	-165.201	0.489	0.022
-461.084	12.437	-0.110	0.085
-460.070	36.593	-0.122	-0.107
-459.055	-33.383	-0.189	-0.104
-458.040	-51.550	-0.153	0.071
-457.026	-51.346	-0.065	-0.030
-456.011	77.384	0.103	0.110
-454.997	-139.181	0.188	-0.020
-453.982	-28.697	-0.115	0.066
-452.968	-93.457	0.284	0.078
-451.953	-172.353	-0.226	0.007
-450.938	-90.344	-0.244	0.071
-449.924	-158.379	-0.285	-0.017
-448.909	-100.015	0.194	0.048
-447.895	-77.634	0.240	-0.083
-446.880	48.824	-0.111	0.104
-445.865	-188.164	0.519	-0.007
-444.851	-200.000	0.002	0.117
-443.836	800.000	-0.044	0.162
-442.822	-108.093	0.136	0.029
-441.807	-165.918	-0.095	0.004
-440.792	-112.581	0.188	0.037
-439.778	35.038	0.116	0.101
-438.763	-15.502	-0.161	-0.102
-437.749	284.477	-0.165	0.297
-436.734	800.000	-0.035	-0.102
-435.719	-45.977	-0.082	0.041
-434.705	659.634	-0.038	0.099
-433.690	497.566	0.126	-0.289
-432.676	217.604	-0.105	0.167
-431.661	800.000	-0.062	0.187
-430.646	14.332	-0.317	-0.246
-429.632	15.401	-0.124	0.097
-428.617	800.000	-0.067	-0.270
-427.603	25.715	-0.048	0.040
-426.588	-200.000	-0.014	0.259
-425.573	37.517	0.082	-0.072
-424.559	800.000	0.037	-0.141
-423.544	-121.576	-0.148	-0.024
-422.530	-40.724	0.182	0.094
-421.515	800.000	0.051	-0.193
-420.500	502.309	0.074	0.169
-419.486	-46.333	0.097	-0.047
-418.471	-200.000	0.005	0.022
-417.457	-200.000	-0.004	0.191
-416.442	80.985	0.131	-0.141
-415.428	26.001	0.339	-0.282
-414.413	-200.000	-0.023	-0.546
-413.398	-84.831	0.118	0.037
-412.384	800.000	-0.026	0.092
-411.369	11.031	0.131	-0.100
-410.355	1.772	-0.092	-0.066
-409.340	-53.032	-0.138	0.063
-408.325	-127.228	-0.051	-0.007
-407.311	-176.734	0.131	0.003
-406.296	481.805	0.064	-0.144
-405.282	-72.952	0.161	-0.059
-404.267	-151.204	-0.194	-0.014
-403.252	19.095	-0.237	0.190
-402.238	-97.381	0.207	0.054
-401.223	-24.288	-0.174	0.103
-400.209	214.816	-0.050	-0.079
-399.194	186.855	-0.105	0.156
-398.179	327.918	0.133	0.255
-397.165	800.000	0.084	-0.237
-396.150	72.046	0.184	0.191
-395.136	84.989	-0.209	0.229
-394.121	45.946	-0.319	0.294
-393.106	29.396	-0.113	0.096
-392.092	74.017	-0.061	-0.064
-391.077	128.709	0.206	0.261
-390.063	800.000	0.064	-0.235
-389.048	800.000	-0.085	-0.321
-388.033	-200.000	0.019	-0.283
-387.019	261.125	0.122	0.211
-386.004	509.197	-0.039	-0.091
-384.990	238.658	0.172	0.285
-383.975	166.990	-0.101	-0.143
-382.960	57.006	-0.071	-0.069
-381.946	-200.000	-0.010	0.236
-380.931	227.894	-0.086	-0.140
-379.917	-78.934	0.458	-0.155
-378.902	-200.000	-0.004	-0.201
-377.888	-153.538	0.195	0.013
-376.873	44.632	-0.253	-0.232
-375.858	-184.662	0.164	-0.003
-374.844	-104.147	-0.069	-0.016
-373.829	9.510	0.074	-0.056
-372.815	-10.453	0.053	-0.035
-371.800	-200.000	0.024	0.241
-370.785	594.750	0.109	-0.268
-369.771	-74.024	0.271	0.098
-368.756	-126.477	0.323	0.048
-367.742	249.687	-0.070	0.118
-366.727	82.488	-0.060	0.065
-365.712	-73.987	-0.325	0.117
-364.698	-200.000	0.013	-0.329
-363.683	71.240	0.209	-0.216
-362.669	-25.856	-0.199	0.117
-361.654	55.679	0.109	0.105
-360.639	75.477	0.182	0.191
-359.625	714.005	0.075	-0.197
-358.610	800.000	-0.024	-0.105
-357.596	-145.827	0.155	-0.014
-356.581	178.679	0.118	0.171
-355.566	189.737	-0.130	0.194
-354.552	147.494	0.115	-0.154
-353.537	-130.886	0.106	0.014
-352.523	-52.013	0.205	-0.095
-351.508	342.572	0.140	-0.273
-350.493	-62.231	0.168	-0.070
-349.479	-158.603	0.268	0.015
-348.464	113.107	0.146	0.176
-347.450	-11.323	-0.280	-0.183
-346.435	528.498	-0.045	-0.106
-345.420	-112.920	0.198	0.039
-344.406	101.577	-0.076	0.088
-343.391	-200.000	-0.001	-0.211
-342.377	-87.608	0.101	0.030
-341.362	-35.264	-0.178	-0.096
-340.348	-200.000	-0.017	-0.091
-339.333	800.000	0.068	-0.245
-338.318	-115.508	0.088	-0.016
-337.304	-147.016	-0.065	0.006
-336.289	-123.779	-0.039	0.006
-335.275	28.888	0.128	0.108
-334.260	10.505	-0.102	0.077
-333.245	10.935	0.295	0.224
-332.231	116.527	0.061	-0.074
-331.216	33.392	0.294	0.254
-330.202	-200.000	0.032	0.247
-329.187	800.000	0.091	0.291
-328.172	-63.047	0.217	0.089
-327.158	115.834	0.093	-0.113
-326.143	800.000	-0.056	-0.197
-325.129	99.106	-0.408	-0.468
-324.114	34.146	0.236	-0.204
-323.099	11.695	0.056	0.043
-322.085	-17.006	-0.465	-0.292
-321.070	800.000	0.048	0.134
-320.056	-33.977	0.225	-0.123
-319.041	-70.067	-0.341	0.129
-318.026	-55.099	-0.183	0.082
-317.012	-35.432	-0.173	-0.093
-315.997	-151.928	0.305	0.022
-314.983	800.000	-0.068	-0.207
-313.968	234.818	0.081	-0.133
-312.953	-3.840	0.199	-0.137
-311.939	-85.072	-0.246	0.076
-310.924	197.056	0.243	0.368
-309.910	-145.874	0.078	-0.007
-308.895	-200.000	0.037	0.296
-307.880	-64.920	-0.219	0.088
-306.866	-151.742	0.462	0.034
-305.851	-125.431	-0.100	-0.015
-304.837	33.522	-0.104	-0.090
-303.822	-8.347	0.286	-0.191
-302.807	-92.212	-0.094	0.026
-301.793	-127.251	-0.072	-0.010
-300.778	-71.593	-0.174	-0.065
-299.764	800.000	0.014	-0.040
-298.749	-43.830	-0.372	-0.186
-297.735	27.372	0.192	0.160
-296.720	-200.000	-0.039	0.364
-295.705	58.340	0.201	-0.195
-294.691	-200.000	-0.254	-0.001
-293.676	321.028	-0.034	-0.064
-292.662	-102.941	-0.080	-0.019
-291.647	800.000	-0.029	-0.095
-290.632	418.238	-0.103	-0.218
-289.618	55.848	-0.098	-0.094
-288.603	-49.762	-0.095	-0.045
-287.589	25.958	-0.343	0.284
-286.574	-12.665	-0.102	0.066
-285.559	76.727	0.174	0.183
-284.545	-82.434	0.145	-0.047
-283.530	-200.000	0.021	-0.174
-282.516	-90.355	-0.135	0.039
-281.501	-200.000	-0.014	-0.268
-280.486	43.475	0.031	0.028
-279.472	336.531	0.047	-0.091
-278.457	25.547	0.286	-0.236
-277.443	276.859	0.112	-0.197
-276.428	-92.832	0.149	-0.041
-275.413	-111.388	-0.265	-0.054
-274.399	-200.000	0.007	-0.048
-273.384	6.468	0.156	-0.115
-272.370	-101.116	-0.009	0.002
-271.355	-16.146	0.257	0.162
-270.340	68.816	0.167	-0.170
-269.326	-112.715	0.129	0.025
-268.311	782.487	0.167	0.452
-267.297	800.000	0.082	-0.237
-266.282	1.558	0.051	-0.037
-265.267	-131.205	-0.461	-0.061
-264.253	800.000	-0.018	-0.075
-263.238	476.816	0.148	0.332
-262.224	92.462	-0.268	0.300
-261.209	-0.153	-0.206	0.145
-260.195	-57.956	-0.103	0.045
-259.180	521.396	0.091	0.211
-258.165	44.507	0.118	0.108
-257.151	-79.339	0.223	-0.075
-256.136	-200.000	0.039	0.195
-255.122	-88.137	0.201	0.060
-254.107	64.245	0.062	-0.062
-253.092	99.946	-0.106	0.122
-252.078	35.177	0.150	-0.130
-251.063	800.000	0.141	-0.524
-250.049	-107.276	0.451	0.098
-249.034	-200.000	0.002	0.064
-248.019	37.013	0.216	-0.189
-247.005	297.309	-0.065	-0.119
-245.990	201.857	-0.172	0.263
-244.976	363.777	0.094	0.187
-243.961	-200.000	0.003	0.265
-242.946	-200.000	0.057	-0.512
-241.932	93.595	-0.085	0.095
-240.917	231.153	-0.091	-0.148
-239.903	222.733	0.113	0.180
-238.888	36.855	0.181	0.159
-237.873	280.482	-0.065	-0.115
-236.859	-29.926	0.064	0.036
-235.844	800.000	0.060	0.180
-234.830	-200.000	0.030	-0.153
-233.815	-140.800	-0.195	0.020
-232.800	245.978	-0.058	-0.097
-231.786	-154.253	0.190	0.013
-230.771	-61.447	-0.379	-0.158
-229.757	-149.590	-0.158	0.012
-228.742	238.712	-0.137	-0.225
-227.727	1.528	-0.127	-0.091
-226.713	74.389	0.184	-0.191
-225.698	-200.000	0.045	0.258
-224.684	12.325	0.170	0.130
-223.669	-131.647	-0.216	0.028
-222.655	-27.098	0.128	-0.074
-221.640	-200.000	0.001	0.235
-220.625	-89.820	0.149	-0.043
-219.611	800.000	0.057	0.165
-218.596	-145.185	-0.312	0.028
-217.582	-93.735	0.152	0.042
-216.567	-15.737	0.138	-0.087
-215.552	-200.000	0.001	0.078
-214.538	-81.448	-0.052	-0.017
-213.523	-35.294	0.261	0.140
-212.509	-200.000	-0.014	0.440
-211.494	-68.734	0.331	0.126
-210.479	800.000	0.069	0.222
-209.465	800.000	-0.036	0.113
-208.450	14.402	-0.275	0.212
-207.436	800.000	0.011	-0.032
-206.421	-200.000	-0.002	0.192
-205.406	38.102	-0.156	-0.137
-204.392	-200.000	0.069	-0.315
-203.377	-26.502	-0.152	-0.088
-202.363	-98.606	-0.328	-0.083
-201.348	-200.000	0.003	-0.367
-200.333	-93.093	0.051	-0.014
-199.319	-41.761	-0.159	0.081
-198.304	447.592	0.040	0.087
-197.290	282.013	0.018	-0.032
-196.275	92.522	-0.178	-0.199
-195.260	751.374	-0.137	0.366
-194.246	10.236	-0.031	0.023
-193.231	492.514	-0.159	-0.360
-192.217	800.000	-0.040	0.171
-191.202	800.000	-0.052	-0.143
-190.187	-28.789	0.370	0.210
-189.173	-79.355	0.134	0.045
-188.158	94.504	0.131	0.147
-187.144	-63.201	0.096	-0.039
-186.129	-91.224	0.297	0.084
-185.114	69.222	0.162	0.165
-184.100	5.792	-0.206	-0.150
-183.085	-20.314	-0.230	0.140
-182.071	-200.000	0.004	-0.062
-181.056	-46.354	0.138	0.067
-180.042	800.000	0.074	-0.206
-179.027	-100.165	0.269	-0.066
-178.012	15.316	-0.131	0.102
-176.998	-3.582	-0.244	-0.168
-175.983	-200.000	-0.038	0.307
-174.969	7.441	-0.103	0.076
-173.954	-45.063	-0.133	-0.065
-172.939	-157.713	-0.142	0.008
-171.925	-37.615	0.190	-0.100
-170.910	-118.372	0.103	0.018
-169.896	64.252	0.064	-0.064
-168.881	377.920	0.143	-0.289
-167.866	800.000	-0.040	0.116
-166.852	-69.073	-0.254	0.097
-165.837	438.329	0.016	0.036
-164.823	-35.705	0.040	0.021
-163.808	232.052	0.061	-0.099
-162.793	-200.000	-0.018	-0.190
-161.779	561.357	0.060	0.143
-160.764	-109.288	0.142	-0.030
-159.750	-119.411	-0.377	0.065
-158.735	-1.432	0.221	-0.154
-157.720	-200.000	0.127	0.565
-156.706	78.876	-0.170	0.180
-155.691	-200.000	0.027	0.209
-154.677	179.899	0.111	0.160
-153.662	16.502	0.146	0.114
-152.647	800.000	0.130	0.371
-151.633	800.000	-0.051	0.148
-150.618	-37.037	0.223	-0.118
-149.604	217.529	0.151	-0.238
-148.589	165.537	0.063	0.088
-147.574	800.000	0.061	-0.192
-146.560	15.632	0.091	0.070
-145.545	-105.735	-0.290	-0.065
-144.531	30.117	0.094	-0.079
-143.516	250.342	0.066	-0.110
-142.502	123.773	-0.183	0.227
-141.487	38.863	0.099	0.087
-140.472	338.023	-0.084	0.160
-139.458	106.861	0.118	0.139
-138.443	180.837	0.086	-0.125
-137.429	38.117	-0.199	0.174
-136.414	83.291	-0.170	-0.183
-135.399	234.024	0.136	0.221
-134.385	266.181	0.083	0.142
-133.370	-94.833	0.031	0.008
-132.356	-162.112	0.197	-0.010
-131.341	-20.960	-0.432	0.261
-130.326	-200.000	0.025	0.166
-129.312	-99.544	-0.175	-0.043
-128.297	-200.000	0.001	0.161
-127.283	-200.000	-0.052	0.390
-126.268	-85.751	0.138	-0.042
-125.253	117.396	-0.082	-0.099
-124.239	463.428	-0.108	0.238
-123.224	93.707	0.031	0.034
-122.210	20.610	0.212	-0.169
-121.195	67.157	-0.381	0.382
-120.180	67.380	0.230	0.231
-119.166	119.895	0.074	-0.090
-118.151	-200.000	0.011	-0.269
-117.137	800.000	0.073	-0.215
-116.122	66.727	0.346	-0.347
-115.107	207.032	-0.101	-0.155
-114.093	15.393	-0.162	0.125
-113.078	153.157	-0.216	-0.291
-112.064	-200.000	-0.062	0.439
-111.049	-200.000	0.005	-0.143
-110.034	190.220	-0.095	-0.141
-109.020	-89.044	0.289	-0.084
-108.005	129.093	-0.174	0.219
-106.991	800.000	-0.059	0.179
-105.976	379.735	-0.084	0.169
-104.962	-200.000	-0.043	0.244
-103.947	-128.290	0.290	-0.041
-102.932	800.000	-0.048	0.138
-101.918	-27.773	-0.340	-0.194
-100.903	-163.992	0.381	-0.017
-99.889	88.689	-0.297	-0.325
-98.874	2.099	-0.242	0.172
-97.859	-200.000	-0.018	-0.322
-96.845	76.388	-0.210	-0.219
-95.830	23.849	-0.160	0.130
-94.816	47.302	-0.079	-0.072
-93.801	34.673	0.122	-0.105
-92.786	-111.985	0.382	-0.076
-91.772	-123.794	0.102	-0.016
-90.757	121.411	-0.103	0.126
-89.743	-200.000	-0.017	-0.273
-88.728	-200.000	0.024	0.115
-87.713	-200.000	0.048	0.234
-86.699	-200.000	0.028	0.184
-85.684	60.858	-0.196	0.191
-84.670	-101.079	0.200	-0.048
-83.655	1.786	0.283	0.201
-82.640	-31.422	-0.131	-0.072
-81.626	170.799	-0.121	-0.170
-80.611	-200.000	0.047	0.320
-79.597	12.630	-0.232	-0.176
-78.582	248.638	0.206	0.344
-77.567	37.422	0.284	0.247
-76.553	388.846	-0.076	0.155
-75.538	800.000	0.060	-0.210
-74.524	-56.898	-0.104	-0.045
-73.509	-200.000	-0.071	0.391
-72.494	-6.672	-0.200	-0.134
-71.480	-200.000	0.023	-0.322
-70.465	800.000	0.032	-0.092
-69.451	-200.000	0.004	-0.085
-68.436	211.790	0.063	-0.098
-67.422	53.521	0.367	0.346
-66.407	-87.299	0.127	-0.038
-65.392	69.714	0.120	-0.122
-64.378	582.246	-0.089	-0.215
-63.363	-200.000	0.013	-0.208
-62.349	232.732	-0.108	-0.174
-61.334	3.169	-1.210	-0.865
-60.319	-14.066	0.893	0.567
-59.305	767.965	-0.364	-0.973
-58.290	206.455	0.665	1.018
-57.276	800.000	0.530	1.845
-56.261	-200.000	100.420	597.327
-55.246	585.336	1409.992	3406.419
-54.232	191.283	2596.584	3841.300
-53.217	117.069	2167.432	2616.702
-52.203	41.711	1700.650	1514.358
-51.188	34.224	1510.195	1294.069
-50.173	31.673	1484.424	1254.868
-49.159	51.483	1535.616	1433.664
-48.144	52.916	1552.352	1459.000
-47.130	34.329	1511.381	1295.594
-46.115	31.222	1496.663	1261.962
-45.100	31.051	1492.644	1257.375
-44.086	30.950	1490.996	1255.254
-43.071	30.900	1488.942	1253.137
-42.057	30.887	1487.579	1251.853
-41.042	30.887	1485.927	1250.417
-40.027	30.997	1484.201	1249.652
-39.013	31.017	1482.901	1248.640
-37.998	30.903	1481.780	1246.884
-36.984	30.872	1480.590	1245.626
-35.969	30.895	1478.789	1244.218
-34.954	30.938	1477.709	1243.545
-33.940	30.799	1477.227	1242.164
-32.925	30.942	1475.487	1241.599
-31.911	31.019	1473.785	1240.631
-30.896	30.994	1472.451	1239.292
-29.881	30.956	1471.401	1238.110
-28.867	31.110	1469.463	1237.448
-27.852	31.017	1468.454	1235.937
-26.838	31.016	1466.949	1234.612
-25.823	31.018	1465.284	1233.173
-24.809	30.995	1463.729	1231.663
-23.794	30.935	1462.330	1230.041
-22.779	30.967	1461.295	1229.334
-21.765	30.982	1460.458	1228.683
-20.750	30.969	1458.896	1227.231
-19.736	30.992	1457.922	1226.520
-18.721	30.955	1456.868	1225.340
-17.706	30.970	1456.060	1224.706
-16.692	30.808	1455.057	1222.752
-15.677	30.972	1453.580	1222.536
-14.663	30.927	1452.657	1221.421
-13.648	30.913	1451.721	1220.494
-12.633	30.889	1451.024	1219.702
-11.619	31.057	1449.418	1219.397
-10.604	30.986	1449.087	1218.611
-9.590	30.821	1448.769	1217.214
-8.575	30.876	1447.547	1216.500
-7.560	30.830	1446.862	1215.573
-6.546	30.903	1445.938	1215.225
-5.531	30.858	1444.838	1213.961
-4.517	30.815	1444.128	1213.039
-3.502	30.892	1443.199	1212.708
-2.487	31.008	1441.558	1212.033
-1.473	30.816	1441.275	1210.501
-0.458	30.876	1439.664	1209.488
0.556	29.849	1430.888	1199.642
1.571	27.345	1405.755	1162.492
2.586	24.290	1348.167	1096.022
3.600	22.772	1267.725	1021.751
4.615	21.519	1221.992	977.806
5.629	18.729	1166.023	918.041
6.644	11.431	1083.785	816.821
7.659	5.934	1045.031	760.953
8.673	5.218	1039.542	753.438
9.688	4.942	1036.455	749.804
10.702	4.930	1034.762	748.453
11.717	4.841	1033.128	746.779
12.731	7.243	1034.941	759.552
13.746	14.211	1044.805	800.343
14.761	18.836	1050.277	826.772
15.775	18.539	1049.046	824.300
16.790	17.617	1046.649	817.919
17.804	16.479	1044.513	810.722
18.819	15.591	1042.528	804.857
19.834	15.175	1041.259	801.819
20.848	14.788	1040.471	799.287
21.863	14.559	1039.247	797.182
22.877	14.438	1038.612	796.050
23.892	14.188	1037.502	793.936
24.907	14.045	1037.237	792.978
25.921	14.203	1036.416	793.035
26.936	14.220	1035.539	792.375
27.950	14.203	1035.085	791.876
28.965	14.209	1034.021	791.019
29.980	14.317	1032.589	790.366
30.994	14.434	1031.025	789.654
32.009	14.416	1030.603	789.178
33.023	14.437	1029.831	788.617
34.038	14.507	1028.562	787.904
35.053	14.365	1027.664	786.476
36.067	14.330	1026.845	785.615
37.082	14.301	1026.023	784.780
38.096	14.361	1025.531	784.618
39.111	14.304	1024.829	783.742
40.126	14.471	1023.669	783.568
41.140	14.308	1022.516	781.851
42.155	14.239	1021.505	780.687
43.169	14.147	1020.559	779.461
44.184	13.999	1019.601	777.969
45.199	14.075	1018.204	777.190
46.213	14.060	1017.238	776.315
47.228	14.204	1016.290	776.193
48.242	14.209	1015.365	775.444
49.257	14.268	1014.537	775.014
50.271	14.242	1013.800	774.265
51.286	14.166	1012.937	773.184
52.301	14.259	1012.473	773.192
53.315	14.353	1011.701	772.971
54.330	14.279	1010.687	771.786
55.344	14.255	1009.486	770.688
56.359	14.038	1008.997	769.243
57.374	14.150	1007.870	768.832
58.388	14.214	1007.218	768.562
59.403	14.214	1006.176	767.699
60.417	14.099	1005.573	766.643
61.432	14.049	1004.795	765.752
62.447	14.052	1003.891	765.007
63.461	13.913	1003.220	763.789
64.476	13.848	1002.800	763.102
65.490	13.894	1001.096	761.948
66.505	13.906	1000.961	761.836
67.520	14.079	999.549	761.487
68.534	14.049	999.223	761.030
69.549	14.066	998.016	760.122
70.563	14.097	997.290	759.644
71.578	13.987	997.130	758.955
72.593	14.004	995.909	758.033
73.607	13.878	994.787	756.538
74.622	13.926	993.607	755.792
75.636	13.925	993.261	755.459
76.651	13.887	992.351	754.527
77.666	13.823	991.639	753.628
78.680	13.871	991.130	753.392
79.695	13.961	990.248	753.061
80.709	13.966	990.189	752.973
81.724	14.027	989.326	752.529
82.739	14.108	988.300	752.045
83.753	14.043	988.136	751.563
84.768	14.221	986.859	751.327
85.782	14.231	986.282	750.868
86.797	14.398	985.639	751.063
87.812	14.445	984.662	750.465
88.826	14.230	984.157	749.046
89.841	14.308	982.881	748.358
90.855	14.205	982.290	747.380
91.870	14.390	981.210	747.322
92.884	14.451	980.390	746.907
93.899	14.321	980.063	746.010
94.914	14.365	979.224	745.501
95.928	14.524	978.759	745.793
96.943	14.532	977.893	745.102
97.957	14.425	976.952	743.838
98.972	14.447	976.325	743.396
99.987	14.369	975.150	742.087
101.001	14.399	974.746	741.846
102.016	14.351	973.828	740.870
103.030	14.261	973.374	740.059
104.045	14.397	972.305	739.785
105.060	14.449	971.199	739.110
106.074	14.335	970.089	737.695
107.089	14.196	969.375	736.471
108.103	14.030	968.747	735.193
109.118	14.042	967.964	734.589
110.133	13.981	967.204	733.678
111.147	14.087	966.103	733.242
112.162	14.084	965.306	732.562
113.176	14.108	964.402	731.916
114.191	14.112	963.532	731.206
115.206	14.273	962.637	731.172
116.220	14.285	962.027	730.698
117.235	14.121	961.187	729.273
118.249	14.077	960.806	728.728
119.264	14.025	959.494	727.439
120.279	14.203	958.931	727.726
121.293	14.214	958.153	727.121
122.308	14.193	957.152	726.203
123.322	14.153	956.353	725.359
124.337	13.988	955.536	723.958
125.352	13.988	954.367	723.010
126.366	13.955	953.106	721.846
127.381	13.962	952.232	721.151
128.395	14.118	951.073	720.885
129.410	14.093	950.632	720.377
130.424	14.097	949.783	719.689
131.439	14.137	949.105	719.283
132.454	14.140	947.826	718.264
133.468	14.155	947.558	718.061
134.483	14.150	947.041	717.587
135.497	14.229	946.017	717.087
136.512	14.176	945.721	716.571
137.527	14.175	944.592	715.645
138.541	14.177	943.503	714.768
139.556	14.196	943.037	714.432
140.570	14.204	942.480	713.982
141.585	14.309	941.678	713.762
142.600	14.282	941.555	713.488
143.614	14.340	940.195	712.644
144.629	14.406	939.321	712.199
145.643	14.565	938.693	712.338
146.658	14.375	938.074	710.997
147.673	14.376	936.596	709.816
148.687	14.243	936.019	708.751
149.702	14.234	935.135	707.980
150.716	14.244	934.169	707.229
151.731	14.132	933.878	706.473
152.746	14.234	932.509	705.806
153.760	14.262	932.011	705.486
154.775	14.401	931.088	705.310
155.789	14.480	930.153	704.874
156.804	14.382	930.223	704.452
157.819	14.517	929.034	704.061
158.833	14.269	928.685	702.685
159.848	14.579	927.661	703.156
160.862	14.528	927.328	702.624
161.877	14.514	926.402	701.805
162.892	14.529	925.270	700.947
163.906	14.356	924.494	699.569
164.921	14.248	923.829	698.550
165.935	14.266	922.916	697.876
166.950	14.297	921.806	697.103
167.964	14.387	921.335	697.063
168.979	14.396	919.952	695.993
169.994	14.397	919.332	695.465
171.008	14.276	918.471	694.249
172.023	14.323	917.555	693.692
173.037	14.408	916.981	693.550
174.052	14.631	915.910	693.604
175.067	14.579	915.427	692.961
176.081	14.453	914.903	691.979
177.096	14.469	913.371	690.827
178.110	14.415	912.916	690.197
179.125	14.440	912.240	689.729
180.140	14.443	911.713	689.280
181.154	14.350	911.603	688.755
182.169	14.604	910.370	688.807
183.183	14.545	909.782	688.061
184.198	14.628	909.466	688.101
185.213	14.673	908.565	687.543
186.227	14.599	908.262	686.949
187.242	14.581	907.659	686.361
188.256	14.642	906.975	686.031
189.271	14.804	905.861	685.793
190.286	14.900	905.239	685.658
191.300	14.692	904.609	684.265
192.315	14.405	903.954	682.532
193.329	14.417	903.140	681.906
194.344	14.454	902.645	681.625
195.359	14.445	902.119	681.130
196.373	14.616	901.588	681.369
197.388	14.717	900.964	681.249
198.402	14.720	900.833	681.101
199.417	14.904	899.927	681.104
200.432	14.899	900.011	681.087
201.446	14.940	899.304	680.662
202.461	14.996	899.008	680.605
203.475	15.093	898.343	680.434
204.490	15.042	897.839	679.787
205.504	14.953	896.786	678.568
206.519	14.856	895.906	677.448
207.534	14.927	895.392	677.286
208.548	14.941	894.638	676.714
209.563	14.979	893.971	676.302
210.577	14.866	893.354	675.318
211.592	14.853	892.997	674.936
212.607	15.003	892.237	674.907
213.621	15.114	891.627	674.836
214.636	15.151	890.851	674.335
215.650	14.944	890.456	673.143
216.665	15.087	889.833	673.188
217.680	15.043	889.312	672.558
218.694	15.187	888.760	672.658
219.709	15.114	888.518	672.125
220.723	15.143	887.731	671.587
221.738	15.190	886.955	671.127
222.753	15.080	886.424	670.227
223.767	15.124	885.651	669.758
224.782	15.256	884.572	669.411
225.796	15.322	883.891	669.099
226.811	15.224	883.429	668.299
227.826	15.296	882.928	668.149
228.840	15.215	882.105	667.143
229.855	15.114	881.344	666.106
230.869	15.254	880.562	666.012
231.884	15.221	880.084	665.461
232.899	15.254	879.383	665.004
233.913	15.042	878.938	663.768
234.928	15.108	878.170	663.389
235.942	15.194	876.793	662.633
236.957	15.106	876.369	661.907
237.972	15.064	876.301	661.630
238.986	15.157	875.267	661.156
240.001	15.133	874.929	660.749
241.015	15.237	874.057	660.443
242.030	15.230	873.352	659.824
243.045	15.218	872.913	659.386
244.059	15.425	872.231	659.625
245.074	15.284	871.804	658.689
246.088	15.390	870.838	658.319
247.103	15.434	870.478	658.160
248.117	15.338	869.783	657.200
249.132	15.477	869.354	657.363
250.147	15.597	868.809	657.362
251.161	15.697	867.996	657.081
252.176	15.769	867.579	656.987
253.190	15.800	866.629	656.330
254.205	15.716	866.414	655.780
255.220	15.991	865.648	656.214
256.234	15.777	865.485	655.200
257.249	16.001	864.483	655.253
258.263	15.813	864.216	654.265
259.278	15.962	863.154	653.980
260.293	15.758	863.083	653.075
261.307	15.872	862.283	652.855
262.322	15.938	861.702	652.612
263.336	15.956	861.330	652.344
264.351	15.971	860.436	651.668
265.366	15.984	859.900	651.255
266.380	15.968	859.157	650.573
267.395	16.061	858.583	650.438
268.409	15.949	858.018	649.521
269.424	15.857	857.200	648.491
270.439	15.922	856.551	648.193
271.453	16.120	855.573	648.154
272.468	15.976	854.836	646.985
273.482	16.012	854.260	646.632
274.497	15.984	853.839	646.150
275.512	16.008	853.294	645.771
276.526	15.945	852.657	644.989
277.541	16.063	852.082	644.948
278.555	16.032	851.228	644.128
279.570	16.068	850.803	643.885
280.585	16.139	850.249	643.680
281.599	16.260	849.645	643.629
282.614	16.061	849.228	642.496
283.628	16.129	848.563	642.198
284.643	16.126	848.060	641.747
285.657	16.028	847.703	641.049
286.672	16.025	847.181	640.586
287.687	16.079	846.556	640.259
288.701	16.114	845.934	639.866
289.716	16.134	845.445	639.517
290.730	16.298	844.519	639.380
291.745	16.264	844.180	638.939
292.760	16.210	843.572	638.217
293.774	16.221	842.636	637.492
294.789	16.370	842.574	637.953
295.803	16.382	841.608	637.211
296.818	16.242	841.444	636.502
297.833	16.181	840.844	635.762
298.847	16.305	839.703	635.311
299.862	16.137	839.703	634.622
300.876	16.205	838.761	634.109
301.891	16.410	837.969	634.225
302.906	16.491	837.683	634.256
303.920	16.423	837.251	633.617
304.935	16.546	836.268	633.279
305.949	16.699	835.303	633.062
306.964	16.500	835.143	632.142
307.979	16.523	834.726	631.857
308.993	16.487	833.982	631.103
310.008	16.595	833.318	630.947
311.022	16.499	833.128	630.390
312.037	16.578	832.698	630.304
313.052	16.630	831.855	629.802
314.066	16.537	831.123	628.846
315.081	16.433	830.692	628.079
316.095	16.386	830.148	627.436
317.110	16.424	829.489	627.025
318.125	16.416	829.071	626.625
319.139	16.539	828.328	626.463
320.154	16.440	828.214	625.953
321.168	16.576	827.256	625.676
322.183	16.447	827.090	625.021
323.197	16.574	826.695	625.134
324.212	16.598	825.535	624.293
325.227	16.684	825.597	624.600
326.241	16.587	825.023	623.752
327.256	16.614	824.112	623.107
328.270	16.596	823.568	622.574
329.285	16.724	823.049	622.598
330.300	16.581	822.647	621.713
331.314	16.507	822.213	621.059
332.329	16.621	821.598	620.957
333.343	16.789	820.989	621.060
334.358	16.701	820.320	620.176
335.373	16.814	819.729	620.086
336.387	16.804	819.288	619.664
337.402	16.819	818.486	619.056
338.416	16.887	818.177	619.014
339.431	16.878	817.899	618.718
340.446	16.972	817.153	618.442
341.460	17.158	816.183	618.330
342.475	17.068	816.148	617.922
343.489	17.060	815.625	617.443
344.504	17.161	815.018	617.294
345.519	17.093	814.623	616.692
346.533	17.040	814.411	616.284
347.548	17.172	813.858	616.290
348.562	17.094	812.984	615.292
349.577	17.025	813.016	615.013
350.592	17.023	811.862	614.079
351.606	16.946	811.133	613.192
352.621	16.932	810.930	612.935
353.635	16.983	810.478	612.724
354.650	17.041	810.352	612.783
355.665	17.196	809.803	612.873
356.679	17.029	809.512	611.997
357.694	17.038	808.856	611.480
358.708	17.115	808.178	611.189
359.723	17.021	807.598	610.360
360.738	17.079	807.157	610.180
361.752	17.261	806.432	610.233
362.767	17.186	806.324	609.827
363.781	17.268	806.260	610.018
364.796	17.446	805.797	610.252
365.810	17.323	805.726	609.703
366.825	17.387	804.737	609.129
367.840	17.505	804.413	609.253
368.854	17.409	804.139	608.647
369.869	17.525	803.360	608.420
370.883	17.412	802.774	607.520
371.898	17.335	802.072	606.658
372.913	17.549	801.444	606.895
373.927	17.577	801.041	606.634
374.942	17.531	800.396	605.927
375.956	17.513	800.018	605.525
376.971	17.575	799.345	605.181
377.986	17.629	798.819	604.920
379.000	17.668	798.386	604.677
380.015	17.732	798.382	604.851
381.029	17.621	797.739	603.914
382.044	17.688	797.050	603.577
383.059	17.682	796.426	603.028
384.073	17.753	795.966	602.878
385.088	17.732	795.279	602.231
386.102	17.751	794.405	601.583
387.117	17.571	793.789	600.428
388.132	17.587	793.672	600.345
389.146	17.510	793.644	599.997
390.161	17.470	793.324	599.564
391.175	17.836	792.336	600.050
392.190	17.797	792.298	599.831
393.205	17.735	791.831	599.206
394.219	17.736	791.368	598.807
395.234	17.752	790.527	598.174
396.248	17.715	789.917	597.528
397.263	17.696	789.480	597.080
398.278	17.622	789.382	596.693
399.292	17.412	789.038	595.644
400.307	17.615	788.233	595.696
401.321	17.710	787.792	595.641
402.336	17.577	787.703	595.057
403.350	17.691	787.465	595.222
404.365	17.674	787.066	594.808
405.380	17.823	786.537	594.876
406.394	17.827	786.124	594.525
407.409	17.936	785.600	594.453
408.423	17.974	785.011	594.089
409.438	18.009	784.628	593.866
410.453	18.059	783.935	593.464
411.467	18.109	783.788	593.474
412.482	18.204	783.097	593.228
413.496	18.058	782.868	592.494
414.511	18.128	782.603	592.485
415.526	18.203	782.450	592.576
416.540	18.059	782.073	591.739
417.555	18.014	781.492	591.094
418.569	18.127	781.188	591.203
419.584	18.160	780.483	590.730
420.599	18.371	779.608	590.744
421.613	156.733	1369.128	1794.155
422.628	135.253	1455.027	1794.250
