DTS Sentinel unit serial number:	SN413079Multiplexer serial number:	ORYXHardware model number:	OX4-SRSoftware version number:	ORYX F/W v4.00 Oryx Data Collector v3.7.2.0data status	okinstallation	princeton_trtdifferential loss correction	single-endedforward channel	channel 3reverse channel	N/Adate	2019/09/15time	13:32:35forward acquisition time	60.00reverse acquisition time	0.00gamma	496.2192k internal	0.2293k external	0.2293temperature offset calibration	0.9949default loss term (dB/km)	0.3790temperature slope calibration	1.0000multiplexer offset coefficient	1.0000multiplexer slope coefficient	1.0000fibre end	0.00T internal ref (°C)	37.62T ext. ref 1 (°C)	4.84T ext. ref 2 (°C)	34.85length (m)	temperature (°C)	Stokes	anti-Stokes-747.200	-99.804	0.180	-0.046
-746.185	50.193	-0.111	-0.107
-745.171	-117.377	-0.126	0.023
-744.156	44.276	-0.307	0.288
-743.142	500.094	-0.124	0.293
-742.127	-12.886	-0.221	0.147
-741.112	-167.470	0.170	0.007
-740.098	-200.000	-0.005	0.055
-739.083	205.106	-0.195	0.310
-738.069	-85.595	0.080	0.025
-737.054	-95.668	0.181	-0.050
-736.039	-34.562	-0.154	0.086
-735.025	-200.000	-0.013	0.324
-734.010	800.000	-0.038	-0.119
-732.996	-68.300	-0.162	0.064
-731.981	-200.000	-0.009	-0.316
-730.966	77.810	0.100	0.109
-729.952	-42.829	-0.138	0.072
-728.937	800.000	-0.021	0.079
-727.923	800.000	-0.013	0.037
-726.908	-54.565	-0.082	0.038
-725.894	-66.346	-0.302	-0.123
-724.879	35.869	-0.153	-0.137
-723.864	105.727	0.051	-0.062
-722.850	184.618	0.058	-0.088
-721.835	-42.448	0.111	0.058
-720.821	63.437	-0.102	-0.104
-719.806	169.999	-0.074	-0.108
-718.791	-56.041	0.138	-0.063
-717.777	-15.596	-0.263	0.171
-716.762	246.749	-0.145	-0.250
-715.748	87.227	0.160	0.181
-714.733	800.000	-0.056	0.238
-713.718	714.704	-0.076	-0.207
-712.704	800.000	0.029	-0.096
-711.689	-27.697	0.116	0.069
-710.675	800.000	-0.045	0.166
-709.660	-70.044	0.361	0.141
-708.645	145.954	0.142	-0.195
-707.631	-200.000	-0.042	0.364
-706.616	-170.627	-0.341	-0.012
-705.602	641.698	-0.091	-0.238
-704.587	-200.000	-0.040	-0.405
-703.572	-41.366	-0.046	0.024
-702.558	-41.179	-0.147	-0.078
-701.543	273.758	-0.110	-0.199
-700.529	603.135	0.082	0.209
-699.514	800.000	-0.071	0.216
-698.499	126.705	0.199	-0.257
-697.485	289.636	0.117	0.217
-696.470	38.668	-0.259	0.236
-695.456	-42.285	-0.188	-0.098
-694.441	-200.000	-0.038	-0.324
-693.426	-200.000	0.020	-0.094
-692.412	-39.087	0.137	0.074
-691.397	-110.860	-0.159	-0.033
-690.383	800.000	0.063	-0.236
-689.368	6.014	0.024	-0.018
-688.354	800.000	0.041	-0.117
-687.339	-55.595	0.336	-0.154
-686.324	87.849	-0.111	-0.126
-685.310	800.000	-0.054	0.238
-684.295	180.339	-0.135	0.202
-683.281	119.308	-0.256	-0.323
-682.266	-200.000	0.016	-0.155
-681.251	-74.535	0.403	-0.148
-680.237	86.082	0.028	-0.031
-679.222	7.774	-0.069	-0.053
-678.208	36.978	0.209	-0.189
-677.193	74.068	0.038	0.041
-676.178	-85.976	0.260	-0.082
-675.164	65.238	0.142	-0.146
-674.149	35.524	-0.036	0.032
-673.135	9.879	0.186	-0.144
-672.120	140.490	0.148	0.200
-671.105	800.000	0.031	0.105
-670.091	93.820	0.200	0.232
-669.076	522.933	-0.157	0.375
-668.062	462.312	0.089	0.204
-667.047	80.717	-0.174	0.192
-666.032	800.000	0.023	0.080
-665.018	163.461	0.113	0.162
-664.003	-122.425	-0.210	-0.035
-662.989	-16.280	-0.152	-0.098
-661.974	37.434	-0.199	0.180
-660.959	60.005	-0.192	-0.194
-659.945	-99.537	-0.245	-0.063
-658.930	296.874	0.189	0.353
-657.916	-103.212	-0.029	-0.007
-656.901	-17.038	0.237	-0.152
-655.886	-181.210	-0.292	0.006
-654.872	-137.832	0.185	-0.021
-653.857	800.000	0.115	-0.327
-652.843	-138.385	-0.184	-0.021
-651.828	66.849	-0.080	-0.083
-650.814	84.447	-0.081	-0.090
-649.799	-200.000	0.046	-0.215
-648.784	-17.019	-0.181	0.117
-647.770	340.809	0.018	-0.036
-646.755	800.000	0.032	-0.139
-645.741	-64.785	0.064	-0.027
-644.726	800.000	0.033	-0.122
-643.711	164.586	0.088	0.126
-642.697	-122.241	0.303	0.051
-641.682	-25.393	0.097	-0.059
-640.668	-89.354	0.289	0.087
-639.653	-29.114	-0.125	-0.073
-638.638	-105.422	-0.143	0.033
-637.624	-120.061	0.221	-0.039
-636.609	800.000	-0.085	-0.257
-635.595	-119.016	0.279	-0.050
-634.580	-200.000	-0.043	-0.209
-633.565	173.087	-0.100	-0.147
-632.551	800.000	-0.095	0.274
-631.536	-116.228	0.145	0.027
-630.522	-200.000	0.005	0.354
-629.507	-136.632	-0.252	-0.030
-628.492	-143.292	0.283	0.028
-627.478	538.290	0.029	0.071
-626.463	-200.000	-0.029	-0.136
-625.449	-200.000	-0.030	-0.224
-624.434	225.392	0.108	0.177
-623.419	-127.267	-0.224	-0.033
-622.405	193.025	0.076	-0.118
-621.390	133.759	0.180	0.237
-620.376	-200.000	-0.011	0.053
-619.361	711.950	0.043	-0.115
-618.346	33.781	0.244	0.216
-617.332	391.220	-0.072	0.153
-616.317	105.803	-0.159	0.192
-615.303	-10.887	-0.094	-0.063
-614.288	453.956	0.065	0.146
-613.273	514.324	-0.084	-0.200
-612.259	-70.848	0.414	-0.159
-611.244	-82.202	-0.185	-0.061
-610.230	259.845	0.032	-0.056
-609.215	-92.767	-0.289	-0.082
-608.201	-119.098	-0.097	0.017
-607.186	-80.457	-0.101	0.034
-606.171	226.981	0.195	-0.322
-605.157	-79.463	-0.101	0.035
-604.142	-7.552	-0.236	-0.162
-603.128	776.674	-0.140	0.390
-602.113	436.916	0.080	-0.176
-601.098	329.240	0.103	0.202
-600.084	-200.000	-0.010	-0.225
-599.069	374.787	-0.132	-0.274
-598.055	-82.637	-0.016	-0.005
-597.040	-200.000	0.025	-0.142
-596.025	440.576	0.177	0.394
-595.011	119.888	-0.156	0.197
-593.996	279.291	-0.058	-0.105
-592.982	-47.345	-0.348	-0.172
-591.967	-84.465	0.147	-0.047
-590.952	-84.384	-0.187	0.060
-589.938	800.000	-0.057	0.210
-588.923	273.128	-0.069	0.124
-587.909	-114.306	0.169	-0.033
-586.894	-200.000	-0.034	-0.173
-585.879	-6.739	-0.050	0.034
-584.865	106.600	-0.089	-0.107
-583.850	-200.000	0.000	-0.047
-582.836	-144.833	-0.529	-0.049
-581.821	-153.080	-0.149	-0.011
-580.806	722.579	0.068	0.183
-579.792	800.000	-0.019	0.055
-578.777	-200.000	-0.024	0.374
-577.763	154.178	-0.141	0.197
-576.748	125.421	0.200	-0.257
-575.733	-8.748	-0.204	0.139
-574.719	62.711	0.279	0.283
-573.704	800.000	0.057	0.234
-572.690	-122.679	0.436	0.072
-571.675	-10.731	0.192	-0.129
-570.661	-25.547	-0.114	-0.068
-569.646	-158.319	-0.240	-0.014
-568.631	-200.000	-0.008	-0.166
-567.617	100.660	0.086	0.101
-566.602	192.985	0.149	0.229
-565.588	-79.757	-0.173	-0.059
-564.573	-137.597	-0.312	0.036
-563.558	95.714	-0.129	-0.150
-562.544	800.000	-0.177	0.524
-561.529	-5.986	0.125	-0.087
-560.515	-122.397	-0.126	-0.021
-559.500	137.935	-0.090	-0.120
-558.485	-2.307	-0.441	0.314
-557.471	-131.401	-0.065	0.009
-556.456	108.751	0.087	-0.105
-555.442	-36.628	-0.109	0.059
-554.427	82.055	-0.123	-0.135
-553.412	-84.684	-0.333	0.106
-552.398	-73.119	-0.153	-0.057
-551.383	310.967	-0.024	-0.046
-550.369	-71.824	-0.108	0.041
-549.354	-15.040	-0.354	0.230
-548.339	-57.164	0.005	-0.002
-547.325	-58.717	0.204	-0.090
-546.310	313.230	-0.082	-0.156
-545.296	394.851	0.084	-0.178
-544.281	630.733	0.043	-0.109
-543.266	800.000	-0.151	-0.431
-542.252	-56.164	-0.183	-0.082
-541.237	-2.501	-0.153	-0.109
-540.223	800.000	0.012	-0.041
-539.208	800.000	0.032	0.133
-538.193	-200.000	0.027	-0.147
-537.179	-200.000	-0.019	0.363
-536.164	-200.000	0.018	0.123
-535.150	-145.902	-0.032	0.003
-534.135	-79.216	-0.090	-0.031
-533.121	158.483	-0.182	0.257
-532.106	59.993	-0.302	0.302
-531.091	800.000	-0.070	-0.287
-530.077	-60.303	-0.222	0.096
-529.062	71.023	0.093	-0.098
-528.048	-87.112	0.288	-0.089
-527.033	21.024	-0.353	0.290
-526.018	-106.434	0.278	-0.063
-525.004	424.538	0.114	-0.248
-523.989	17.104	-0.098	-0.078
-522.975	-28.825	0.126	0.073
-521.960	-200.000	-0.016	-0.354
-520.945	46.825	0.234	-0.221
-519.931	-82.696	0.232	0.076
-518.916	-200.000	-0.007	-0.166
-517.902	800.000	-0.175	-0.547
-516.887	655.228	-0.090	-0.235
-515.872	-52.381	0.113	0.053
-514.858	800.000	-0.020	0.077
-513.843	67.970	0.118	0.123
-512.829	93.519	-0.115	0.132
-511.814	97.293	-0.056	-0.065
-510.799	623.275	-0.066	-0.168
-509.785	-26.857	-0.181	-0.107
-508.770	-25.089	0.151	0.091
-507.756	800.000	-0.042	0.184
-506.741	-152.685	-0.112	-0.008
-505.726	-86.510	0.226	-0.070
-504.712	235.289	0.064	-0.107
-503.697	-200.000	-0.038	-0.341
-502.683	120.390	0.010	0.013
-501.668	391.944	-0.062	0.131
-500.653	5.390	0.096	0.072
-499.639	-200.000	-0.004	0.365
-498.624	-112.686	0.214	-0.043
-497.610	43.589	0.161	0.149
-496.595	54.076	0.011	0.010
-495.581	38.829	-0.301	0.273
-494.566	-42.880	-0.119	0.061
-493.551	24.959	-0.126	-0.106
-492.537	354.544	-0.101	0.203
-491.522	1.994	0.123	0.090
-490.508	-33.432	0.153	0.086
-489.493	19.973	-0.116	0.095
-488.478	224.108	0.088	0.144
-487.464	-123.501	-0.386	-0.062
-486.449	99.493	-0.275	-0.322
-485.435	800.000	-0.018	-0.066
-484.420	-53.612	0.227	0.105
-483.405	-200.000	-0.029	-0.180
-482.391	13.594	0.133	0.105
-481.376	-131.307	-0.280	0.038
-480.362	-200.000	0.024	0.171
-479.347	800.000	-0.033	-0.127
-478.332	121.980	-0.124	-0.156
-477.318	8.170	0.170	-0.130
-476.303	25.284	-0.204	-0.172
-475.289	-34.067	0.201	-0.112
-474.274	-120.188	-0.029	0.005
-473.259	56.568	-0.456	-0.449
-472.245	-200.000	-0.011	-0.069
-471.230	18.213	-0.310	-0.250
-470.216	-24.243	-0.331	-0.200
-469.201	-166.430	0.365	-0.015
-468.186	118.473	0.024	0.030
-467.172	-200.000	-0.016	0.216
-466.157	56.377	-0.029	0.028
-465.143	140.593	0.076	-0.102
-464.128	-74.877	-0.105	0.038
-463.113	49.330	0.103	0.098
-462.099	151.480	0.065	0.089
-461.084	318.509	-0.129	0.248
-460.070	-200.000	0.014	-0.280
-459.055	73.023	0.140	-0.148
-458.040	800.000	-0.043	-0.129
-457.026	-147.507	-0.120	0.010
-456.011	587.862	0.047	-0.116
-454.997	-200.000	0.045	0.356
-453.982	800.000	-0.035	-0.138
-452.968	-136.202	0.395	0.047
-451.953	27.868	0.061	-0.052
-450.938	800.000	-0.046	0.151
-449.924	800.000	-0.077	0.315
-448.909	19.377	0.150	-0.122
-447.895	56.256	0.184	0.181
-446.880	499.206	-0.097	0.226
-445.865	-77.026	0.175	-0.062
-444.851	40.351	-0.244	-0.222
-443.836	193.309	0.074	-0.113
-442.822	142.211	-0.062	-0.084
-441.807	800.000	0.060	-0.255
-440.792	-154.348	0.267	-0.018
-439.778	152.416	-0.044	0.061
-438.763	78.941	-0.114	0.123
-437.749	-138.508	0.347	-0.039
-436.734	262.059	0.100	0.175
-435.719	-84.391	-0.163	0.052
-434.705	-200.000	0.008	0.401
-433.690	43.765	-0.128	0.118
-432.676	182.808	-0.105	-0.157
-431.661	15.039	-0.190	-0.150
-430.646	800.000	-0.074	0.211
-429.632	-87.479	-0.294	0.090
-428.617	-44.535	0.073	-0.037
-427.603	421.134	0.083	0.179
-426.588	26.422	-0.161	0.136
-425.573	67.395	0.153	0.158
-424.559	800.000	-0.064	0.274
-423.544	800.000	0.074	0.321
-422.530	-46.347	0.244	0.121
-421.515	-0.763	-0.214	-0.153
-420.500	-110.812	0.273	-0.057
-419.486	800.000	0.006	-0.019
-418.471	-86.948	-0.163	0.050
-417.457	-29.260	-0.094	-0.054
-416.442	-114.703	0.412	0.080
-415.428	800.000	-0.048	-0.157
-414.413	4.593	-0.138	0.103
-413.398	-200.000	0.062	-0.310
-412.384	-200.000	-0.015	-0.224
-411.369	309.935	-0.039	-0.073
-410.355	800.000	0.067	-0.245
-409.340	800.000	0.017	-0.061
-408.325	-151.668	0.429	-0.032
-407.311	-128.207	0.143	-0.021
-406.296	-106.748	-0.136	0.031
-405.282	146.491	0.040	-0.054
-404.267	-92.220	0.095	0.027
-403.252	-200.000	0.007	0.292
-402.238	-109.367	-0.121	-0.026
-401.223	-118.061	0.131	0.024
-400.209	800.000	0.019	-0.062
-399.194	-106.322	0.287	0.065
-398.179	-190.802	0.253	-0.003
-397.165	11.802	0.204	0.158
-396.150	-105.615	0.470	-0.108
-395.136	-153.644	0.296	0.021
-394.121	132.325	-0.215	0.280
-393.106	62.460	0.152	0.153
-392.092	8.911	0.375	0.285
-391.077	800.000	-0.005	-0.014
-390.063	-67.707	0.138	0.054
-389.048	-200.000	0.039	-0.173
-388.033	800.000	-0.033	-0.100
-387.019	429.338	-0.166	0.363
-386.004	46.798	-0.204	0.191
-384.990	-19.020	-0.137	-0.086
-383.975	-45.793	-0.204	-0.102
-382.960	-17.489	0.104	0.066
-381.946	-82.416	-0.118	0.039
-380.931	-170.662	0.279	-0.010
-379.917	62.029	-0.197	-0.198
-378.902	-87.793	-0.088	-0.027
-377.888	134.955	0.204	-0.267
-376.873	-200.000	0.023	-0.232
-375.858	42.704	0.186	-0.170
-374.844	-44.796	0.192	0.096
-373.829	-84.252	0.284	0.091
-372.815	-151.062	0.116	0.009
-371.800	340.162	-0.072	0.141
-370.785	-176.354	-0.110	0.003
-369.771	-200.000	-0.063	0.335
-368.756	-103.256	0.098	-0.023
-367.742	-200.000	-0.030	-0.400
-366.727	-171.331	-0.372	-0.013
-365.712	-48.920	0.250	-0.121
-364.698	0.567	-0.138	-0.100
-363.683	547.280	0.082	-0.197
-362.669	800.000	-0.134	0.391
-361.654	800.000	-0.099	0.294
-360.639	-200.000	-0.019	0.234
-359.625	800.000	-0.057	0.202
-358.610	-200.000	-0.016	0.173
-357.596	310.569	0.042	-0.080
-356.581	-200.000	0.018	0.118
-355.566	-81.126	-0.111	0.037
-354.552	183.526	-0.184	-0.274
-353.537	-159.512	-0.373	0.021
-352.523	-11.928	-0.056	-0.037
-351.508	-200.000	-0.016	-0.296
-350.493	-11.528	-0.232	-0.154
-349.479	-200.000	-0.070	0.354
-348.464	800.000	0.037	0.114
-347.450	113.505	-0.148	-0.181
-346.435	-200.000	-0.077	-0.409
-345.420	50.378	-0.076	-0.073
-344.406	114.204	-0.122	0.149
-343.391	252.691	0.112	0.193
-342.377	20.788	0.398	0.325
-341.362	-200.000	-0.031	0.191
-340.348	195.968	-0.007	0.011
-339.333	-57.361	0.296	0.131
-338.318	34.435	-0.198	0.174
-337.304	-22.678	0.145	0.088
-336.289	-72.016	-0.250	0.094
-335.275	-106.377	-0.147	0.033
-334.260	-79.200	-0.162	-0.055
-333.245	-69.486	-0.260	-0.100
-332.231	-200.000	0.069	-0.401
-331.216	192.090	-0.168	0.255
-330.202	112.609	0.239	0.291
-329.187	81.350	0.091	-0.099
-328.172	-200.000	-0.065	-0.436
-327.158	727.393	0.051	0.138
-326.143	-200.000	-0.010	-0.053
-325.129	-61.024	0.235	-0.100
-324.114	-200.000	-0.025	-0.160
-323.099	-96.980	0.221	-0.058
-322.085	-200.000	0.041	0.240
-321.070	174.105	0.324	0.470
-320.056	-182.131	-0.302	-0.006
-319.041	800.000	0.074	-0.237
-318.026	12.426	0.156	-0.121
-317.012	-132.191	0.263	-0.034
-315.997	-52.412	-0.066	-0.031
-314.983	-40.617	-0.156	0.082
-313.968	746.436	0.060	0.163
-312.953	124.247	-0.169	0.214
-311.939	523.344	-0.077	-0.182
-310.924	99.014	-0.131	0.153
-309.910	361.498	0.052	0.106
-308.895	-34.117	0.366	0.202
-307.880	-29.599	0.160	0.092
-306.866	-81.415	-0.198	0.066
-305.851	29.431	-0.474	0.405
-304.837	-91.513	0.188	-0.054
-303.822	22.375	0.221	0.182
-302.807	3.508	0.169	0.124
-301.793	289.231	-0.067	-0.122
-300.778	93.511	-0.163	0.186
-299.764	-200.000	0.015	0.094
-298.749	800.000	-0.105	-0.364
-297.735	-10.552	-0.366	-0.244
-296.720	-200.000	-0.008	0.122
-295.705	-200.000	-0.010	-0.067
-294.691	56.049	-0.034	-0.033
-293.676	623.758	-0.053	-0.135
-292.662	800.000	0.148	-0.526
-291.647	41.562	0.134	-0.122
-290.632	800.000	0.111	-0.436
-289.618	-8.862	0.376	-0.253
-288.603	800.000	-0.071	-0.228
-287.589	191.354	-0.045	-0.069
-286.574	800.000	-0.219	-0.639
-285.559	16.756	0.306	-0.243
-284.545	340.768	-0.158	-0.311
-283.530	-200.000	-0.015	-0.179
-282.516	305.896	0.193	-0.360
-281.501	82.476	-0.237	-0.259
-280.486	-200.000	0.021	0.169
-279.472	2.402	0.015	-0.011
-278.457	-137.435	0.065	0.007
-277.443	-113.189	0.123	0.024
-276.428	-200.000	0.007	-0.040
-275.413	-33.102	-0.106	-0.059
-274.399	202.808	0.080	-0.124
-273.384	800.000	0.080	0.333
-272.370	-60.513	-0.111	-0.047
-271.355	-200.000	-0.004	0.169
-270.340	6.444	0.100	-0.075
-269.326	169.707	-0.134	-0.192
-268.311	-147.267	0.185	-0.016
-267.297	797.220	-0.094	-0.259
-266.282	-49.448	0.087	-0.041
-265.267	55.545	0.160	-0.155
-264.253	-29.767	-0.165	-0.094
-263.238	5.627	-0.215	0.160
-262.224	-200.000	-0.026	0.300
-261.209	43.582	0.203	0.186
-260.195	-200.000	0.031	0.302
-259.180	-151.321	-0.400	-0.030
-258.165	-178.518	0.276	-0.006
-257.151	734.690	0.025	-0.067
-256.136	-108.743	-0.192	-0.041
-255.122	8.809	-0.089	0.067
-254.107	-142.689	0.425	-0.042
-253.092	-130.233	-0.357	0.049
-252.078	39.899	0.107	-0.096
-251.063	358.356	0.103	-0.205
-250.049	800.000	-0.012	0.037
-249.034	-139.548	0.188	0.020
-248.019	-200.000	-0.017	0.213
-247.005	114.827	0.245	-0.299
-245.990	-80.244	-0.058	-0.019
-244.976	-200.000	0.063	0.404
-243.961	376.637	-0.093	0.190
-242.946	-27.891	0.226	0.131
-241.932	281.504	0.080	-0.143
-240.917	-71.649	0.125	-0.047
-239.903	-106.335	-0.312	-0.070
-238.888	-89.399	0.102	0.030
-237.873	191.590	0.114	-0.173
-236.859	-100.168	0.179	0.045
-235.844	-3.943	0.115	-0.080
-234.830	-9.131	0.268	0.180
-233.815	178.583	0.221	-0.323
-232.800	-172.540	0.307	0.010
-231.786	-200.000	-0.026	0.184
-230.771	-200.000	-0.024	-0.119
-229.757	219.809	0.119	0.191
-228.742	-184.697	-0.171	0.003
-227.727	800.000	0.059	-0.231
-226.713	-51.831	-0.242	-0.113
-225.698	260.259	-0.110	0.191
-224.684	-55.845	-0.286	0.128
-223.669	-3.108	0.111	0.078
-222.655	559.041	0.054	0.131
-221.640	112.579	-0.181	-0.219
-220.625	203.534	-0.098	-0.152
-219.611	-183.526	-0.067	0.001
-218.596	108.733	0.189	0.226
-217.582	-99.973	0.284	0.071
-216.567	-14.279	-0.211	-0.136
-215.552	-95.387	-0.077	-0.021
-214.538	-35.834	-0.166	0.090
-213.523	373.350	0.045	0.091
-212.509	-128.466	0.100	-0.014
-211.494	6.508	-0.260	0.194
-210.479	-200.000	-0.034	-0.159
-209.465	-86.825	-0.133	0.041
-208.450	-100.489	-0.048	-0.012
-207.436	583.318	0.059	0.145
-206.421	197.049	0.024	-0.037
-205.406	67.385	0.280	-0.287
-204.392	18.695	0.060	0.048
-203.377	133.005	0.090	0.116
-202.363	-115.356	-0.278	-0.053
-201.348	-85.752	0.382	-0.119
-200.333	-200.000	0.022	-0.190
-199.319	800.000	-0.050	0.143
-198.304	-168.844	0.093	-0.003
-197.290	800.000	0.057	0.187
-196.275	-200.000	0.006	0.225
-195.260	-6.219	0.290	0.199
-194.246	-28.639	-0.028	0.016
-193.231	292.621	-0.045	-0.081
-192.217	617.612	0.086	0.216
-191.202	50.499	-0.179	0.169
-190.187	-118.827	-0.380	0.067
-189.173	-90.426	-0.206	-0.060
-188.158	-46.244	-0.184	-0.090
-187.144	-111.899	0.250	0.050
-186.129	5.675	0.367	0.272
-185.114	-200.000	-0.001	0.082
-184.100	-46.936	-0.072	0.035
-183.085	68.253	0.021	0.022
-182.071	-89.955	0.252	-0.074
-181.056	800.000	0.067	-0.185
-180.042	629.042	-0.121	-0.306
-179.027	251.970	0.214	-0.364
-178.012	-79.294	0.183	-0.062
-176.998	11.435	-0.053	0.041
-175.983	36.667	-0.267	0.236
-174.969	-200.000	-0.026	0.192
-173.954	-70.855	0.296	-0.112
-172.939	-24.964	-0.357	0.212
-171.925	789.292	0.046	-0.125
-170.910	-121.191	-0.298	-0.050
-169.896	-35.435	0.122	0.066
-168.881	-160.249	-0.324	0.017
-167.866	201.526	0.100	-0.154
-166.852	-56.352	0.308	-0.137
-165.837	-200.000	0.020	0.267
-164.823	164.702	0.153	0.217
-163.808	-94.912	-0.120	0.033
-162.793	392.188	0.151	-0.313
-161.779	-200.000	-0.010	-0.085
-160.764	99.493	-0.165	-0.191
-159.750	-200.000	-0.028	0.496
-158.735	-200.000	0.029	0.186
-157.720	-200.000	0.024	0.113
-156.706	43.281	0.219	-0.200
-155.691	-83.214	0.230	0.074
-154.677	467.856	-0.098	0.219
-153.662	13.672	-0.084	-0.065
-152.647	-53.024	-0.123	-0.056
-151.633	22.894	0.214	-0.175
-150.618	-70.488	-0.243	0.092
-149.604	80.150	0.143	0.153
-148.589	-200.000	0.015	0.080
-147.574	-112.252	0.014	0.003
-146.560	-200.000	-0.062	0.317
-145.545	800.000	-0.110	0.326
-144.531	800.000	0.092	0.334
-143.516	-84.019	-0.208	0.066
-142.502	59.493	-0.080	0.078
-141.487	-86.886	0.110	0.033
-140.472	326.914	-0.090	-0.172
-139.458	464.329	0.088	-0.196
-138.443	343.629	0.122	-0.238
-137.429	431.171	0.051	-0.109
-136.414	-143.862	0.289	-0.027
-135.399	800.000	0.066	-0.211
-134.385	606.692	0.112	-0.279
-133.370	29.296	0.109	0.092
-132.356	-13.311	0.196	-0.127
-131.341	-200.000	-0.071	0.375
-130.326	-87.321	0.326	0.099
-129.312	-70.166	0.146	-0.056
-128.297	-15.022	-0.060	0.038
-127.283	-95.618	0.067	-0.018
-126.268	-142.034	-0.353	-0.035
-125.253	573.627	0.064	0.155
-124.239	-40.102	0.253	0.132
-123.224	-177.203	0.057	-0.001
-122.210	-171.679	0.213	-0.007
-121.195	-61.905	0.246	-0.103
-120.180	-95.999	-0.223	0.059
-119.166	-200.000	-0.023	-0.133
-118.151	-200.000	-0.031	0.302
-117.137	-79.985	0.250	0.084
-116.122	-97.225	0.287	-0.075
-115.107	12.077	-0.089	-0.068
-114.093	-43.073	-0.031	-0.016
-113.078	-100.158	0.167	-0.041
-112.064	-160.344	-0.179	0.010
-111.049	-109.617	-0.117	-0.025
-110.034	30.460	0.100	0.086
-109.020	74.963	0.212	-0.223
-108.005	30.570	0.303	0.259
-106.991	-200.000	0.086	0.498
-105.976	308.636	-0.114	0.212
-104.962	-200.000	0.002	-0.053
-103.947	207.992	0.113	0.176
-102.932	221.864	-0.177	-0.284
-101.918	7.210	0.083	-0.062
-100.903	800.000	0.067	-0.235
-99.889	-123.642	0.184	-0.029
-98.874	506.881	-0.084	-0.194
-97.859	163.893	-0.071	0.100
-96.845	-200.000	-0.004	0.048
-95.830	-87.224	-0.177	0.054
-94.816	-92.409	0.130	0.037
-93.801	-7.516	0.121	0.082
-92.786	800.000	-0.033	0.095
-91.772	172.339	0.147	-0.210
-90.757	-31.591	-0.270	-0.151
-89.743	-200.000	0.010	0.190
-88.728	14.061	-0.134	-0.104
-87.713	800.000	-0.098	-0.291
-86.699	24.735	0.165	0.137
-85.684	-16.180	-0.078	0.049
-84.670	405.758	0.066	-0.139
-83.655	-31.402	-0.147	-0.082
-82.640	-173.498	-0.111	-0.003
-81.626	-50.508	-0.288	-0.136
-80.611	94.722	0.216	0.245
-79.597	118.637	-0.063	-0.077
-78.582	-102.629	-0.196	0.047
-77.567	4.622	0.148	0.108
-76.553	-180.775	-0.223	0.005
-75.538	22.342	-0.260	0.212
-74.524	-24.427	-0.027	-0.016
-73.509	356.881	0.161	0.320
-72.494	-200.000	-0.012	0.131
-71.480	-118.853	0.116	-0.020
-70.465	-140.822	0.262	-0.027
-69.451	101.641	0.176	0.204
-68.436	-200.000	-0.021	0.142
-67.422	-200.000	0.006	-0.032
-66.407	-200.000	-0.013	-0.223
-65.392	-200.000	0.006	0.041
-64.378	800.000	-0.104	0.330
-63.363	-133.474	0.096	-0.012
-62.349	-16.868	0.150	-0.094
-61.334	142.622	-0.678	-0.897
-60.319	492.756	0.199	0.454
-59.305	800.000	-0.238	-0.753
-58.290	59.296	0.662	0.650
-57.276	455.603	0.716	1.581
-56.261	-200.000	84.813	508.390
-55.246	523.026	1392.142	3257.283
-54.232	181.619	2609.889	3824.490
-53.217	117.407	2257.586	2764.831
-52.203	47.203	1779.651	1649.751
-51.188	40.684	1584.576	1422.352
-50.173	38.159	1557.123	1379.844
-49.159	54.758	1600.232	1537.146
-48.144	58.381	1619.959	1581.975
-47.130	41.182	1579.945	1421.526
-46.115	37.858	1564.804	1384.289
-45.100	37.769	1561.032	1380.268
-44.086	37.695	1559.174	1378.048
-43.071	37.532	1557.339	1375.216
-42.057	37.608	1555.294	1373.893
-41.042	37.551	1554.225	1372.494
-40.027	37.467	1553.026	1370.788
-39.013	37.573	1551.432	1370.075
-37.998	37.511	1549.652	1368.008
-36.984	37.520	1548.601	1367.093
-35.969	37.608	1546.933	1366.181
-34.954	37.634	1545.515	1365.055
-33.940	37.559	1544.691	1363.748
-32.925	37.669	1542.910	1362.897
-31.911	37.590	1542.087	1361.563
-30.896	37.748	1539.842	1360.629
-29.881	37.775	1538.472	1359.550
-28.867	37.689	1537.427	1357.975
-27.852	37.682	1535.718	1356.360
-26.838	37.667	1534.262	1354.915
-25.823	37.617	1532.351	1352.831
-24.809	37.730	1530.708	1352.107
-23.794	37.730	1529.637	1351.111
-22.779	37.713	1528.361	1349.811
-21.765	37.729	1527.604	1349.197
-20.750	37.651	1526.307	1347.462
-19.736	37.610	1525.248	1346.190
-18.721	37.675	1524.175	1345.637
-17.706	37.667	1522.437	1343.994
-16.692	37.698	1521.497	1343.323
-15.677	37.600	1520.610	1341.811
-14.663	37.518	1519.594	1340.298
-13.648	37.610	1518.693	1340.087
-12.633	37.662	1517.267	1339.129
-11.619	37.520	1516.659	1337.563
-10.604	37.642	1515.827	1337.617
-9.590	37.598	1514.990	1336.525
-8.575	37.575	1513.890	1335.342
-7.560	37.663	1513.140	1335.226
-6.546	37.566	1512.249	1333.723
-5.531	37.509	1511.705	1332.806
-4.517	37.563	1510.281	1331.865
-3.502	37.603	1508.920	1330.882
-2.487	37.624	1508.089	1330.239
-1.473	37.613	1506.969	1329.123
-0.458	37.596	1505.498	1327.663
0.556	36.247	1496.399	1319.157
1.571	33.953	1469.686	1280.070
2.586	30.525	1406.220	1202.547
3.600	28.473	1320.750	1116.868
4.615	26.474	1271.378	1063.288
5.629	22.491	1212.828	991.852
6.644	13.371	1123.853	871.200
7.659	6.059	1079.929	799.959
8.673	5.008	1073.863	790.068
9.688	4.844	1070.650	786.806
10.702	4.748	1069.021	785.055
11.717	4.771	1067.359	783.885
12.731	7.759	1071.288	801.779
13.746	15.977	1082.954	852.175
14.761	20.053	1087.567	876.387
15.775	18.505	1084.001	865.626
16.790	17.126	1081.060	856.255
17.804	16.064	1078.834	849.068
18.819	15.056	1076.970	842.455
19.834	14.696	1075.204	839.191
20.848	14.327	1074.783	836.935
21.863	14.046	1073.871	834.736
22.877	13.906	1072.671	833.032
23.892	13.680	1071.728	831.090
24.907	13.533	1071.362	829.996
25.921	13.573	1070.513	829.464
26.936	13.590	1069.999	829.077
27.950	13.641	1068.917	828.421
28.965	13.702	1067.643	827.668
29.980	13.743	1066.255	826.722
30.994	13.911	1064.963	826.483
32.009	13.943	1063.919	825.757
33.023	13.870	1063.300	824.842
34.038	13.817	1062.908	824.203
35.053	13.756	1062.098	823.198
36.067	13.718	1060.947	822.045
37.082	13.694	1060.276	821.335
38.096	13.661	1059.410	820.429
39.111	13.782	1058.307	820.098
40.126	13.731	1057.764	819.355
41.140	13.680	1056.175	817.798
42.155	13.579	1054.980	816.305
43.169	13.509	1054.413	815.449
44.184	13.575	1052.567	814.272
45.199	13.422	1052.154	813.128
46.213	13.509	1050.929	812.538
47.228	13.607	1050.051	812.268
48.242	13.564	1049.285	811.392
49.257	13.643	1048.326	810.965
50.271	13.636	1046.724	809.618
51.286	13.792	1045.940	809.702
52.301	13.712	1045.155	808.634
53.315	13.692	1044.394	807.875
54.330	13.572	1043.676	806.665
55.344	13.631	1042.827	806.222
56.359	13.377	1042.135	804.381
57.374	13.608	1040.497	804.168
58.388	13.593	1040.227	803.817
59.403	13.527	1039.269	802.683
60.417	13.502	1038.385	801.811
61.432	13.388	1038.389	801.192
62.447	13.368	1037.593	800.409
63.461	13.460	1036.078	799.613
64.476	13.363	1035.340	798.506
65.490	13.466	1034.316	798.141
66.505	13.352	1033.753	797.085
67.520	13.459	1032.654	796.683
68.534	13.407	1032.128	795.957
69.549	13.418	1031.339	795.330
70.563	13.410	1030.164	794.315
71.578	13.420	1029.849	794.049
72.593	13.315	1028.930	792.767
73.607	13.311	1028.117	792.055
74.622	13.281	1026.787	790.817
75.636	13.267	1026.074	790.128
76.651	13.333	1025.104	789.627
77.666	13.313	1024.351	788.880
78.680	13.366	1023.746	788.600
79.695	13.335	1023.100	787.884
80.709	13.390	1022.717	787.783
81.724	13.346	1022.167	787.077
82.739	13.425	1021.423	786.813
83.753	13.447	1020.699	786.288
84.768	13.677	1019.653	786.507
85.782	13.762	1019.048	786.370
86.797	13.821	1018.033	785.800
87.812	13.854	1017.269	785.297
88.826	13.571	1016.522	783.313
89.841	13.707	1015.231	782.888
90.855	13.843	1014.290	782.735
91.870	13.736	1014.074	781.994
92.884	13.760	1013.140	781.318
93.899	13.752	1012.460	780.689
94.914	13.760	1011.633	780.018
95.928	13.885	1010.826	779.913
96.943	13.916	1010.038	779.382
97.957	13.891	1009.266	778.599
98.972	13.813	1008.297	777.418
99.987	13.737	1007.757	776.577
101.001	13.848	1007.125	776.543
102.016	13.769	1006.179	775.375
103.030	13.736	1005.232	774.420
104.045	13.607	1004.544	773.220
105.060	13.770	1003.368	773.009
106.074	13.743	1002.288	771.981
107.089	13.658	1001.231	770.704
108.103	13.499	1000.912	769.650
109.118	13.471	999.578	768.425
110.133	13.493	998.918	767.954
111.147	13.465	998.284	767.270
112.162	13.478	997.251	766.465
113.176	13.523	996.021	765.662
114.191	13.439	995.372	764.706
115.206	13.516	994.753	764.519
116.220	13.567	993.599	763.798
117.235	13.517	993.000	763.042
118.249	13.545	992.038	762.363
119.264	13.605	990.944	761.730
120.279	13.447	990.430	760.541
121.293	13.527	989.579	760.188
122.308	13.445	988.884	759.212
123.322	13.367	988.283	758.325
124.337	13.319	987.142	757.166
125.352	13.422	985.771	756.515
126.366	13.464	984.347	755.548
127.381	13.542	983.458	755.154
128.395	13.398	982.746	753.885
129.410	13.447	981.379	752.991
130.424	13.501	980.605	752.579
131.439	13.386	980.323	751.771
132.454	13.620	979.060	751.799
133.468	13.577	978.482	751.094
134.483	13.699	977.780	751.042
135.497	13.690	977.014	750.347
136.512	13.610	976.457	749.489
137.527	13.625	975.458	748.722
138.541	13.671	974.697	748.283
139.556	13.685	974.050	747.780
140.570	13.709	973.425	747.342
141.585	13.725	972.687	746.783
142.600	13.859	971.085	746.090
143.614	13.762	971.077	745.581
144.629	13.771	970.068	744.779
145.643	13.810	969.186	744.214
146.658	13.823	968.460	743.648
147.673	13.795	967.567	742.772
148.687	13.789	966.559	741.906
149.702	13.664	965.981	740.837
150.716	13.678	965.120	740.172
151.731	13.458	964.213	738.429
152.746	13.525	963.483	738.106
153.760	13.646	962.936	738.161
154.775	13.694	961.844	737.468
155.789	13.640	961.242	736.705
156.804	13.787	960.346	736.604
157.819	13.737	959.748	735.859
158.833	13.791	959.024	735.477
159.848	13.887	958.393	735.355
160.862	13.932	957.512	734.813
161.877	13.797	957.013	733.768
162.892	13.841	955.715	732.900
163.906	13.738	955.005	731.838
164.921	13.622	954.141	730.601
165.935	13.760	952.944	730.228
166.950	13.751	951.693	729.163
167.964	13.861	951.158	729.171
168.979	13.729	950.383	727.935
169.994	13.649	949.698	726.993
171.008	13.655	948.437	725.991
172.023	13.755	947.532	725.672
173.037	13.954	947.034	726.097
174.052	13.912	946.273	725.266
175.067	13.904	945.832	724.825
176.081	13.917	944.807	724.037
177.096	13.817	944.020	722.930
178.110	13.849	942.979	722.211
179.125	13.752	942.413	721.291
180.140	13.743	941.933	720.819
181.154	13.797	940.827	720.144
182.169	13.824	940.524	719.968
183.183	13.942	939.876	719.920
184.198	13.908	939.062	719.084
185.213	14.051	938.120	718.917
186.227	14.004	937.884	718.469
187.242	14.058	937.329	718.214
188.256	14.053	936.261	717.310
189.271	14.114	935.959	717.278
190.286	14.147	934.834	716.498
191.300	14.034	933.986	715.297
192.315	13.900	932.973	713.880
193.329	13.812	932.540	713.106
194.344	13.773	931.803	712.314
195.359	13.731	931.635	711.944
196.373	13.943	930.865	712.201
197.388	13.912	930.500	711.725
198.402	14.155	929.906	712.248
199.417	14.195	929.354	711.933
200.432	14.362	928.557	711.975
201.446	14.357	928.266	711.664
202.461	14.198	928.139	710.825
203.475	14.389	927.596	711.163
204.490	14.403	926.613	710.405
205.504	14.280	925.764	709.169
206.519	14.238	925.354	708.614
207.534	14.164	924.312	707.437
208.548	14.155	923.578	706.776
209.563	14.230	922.997	706.585
210.577	14.303	922.164	706.195
211.592	14.318	921.396	705.610
212.607	14.337	920.813	705.179
213.621	14.511	919.921	705.170
214.636	14.327	919.488	704.001
215.650	14.456	918.799	703.955
216.665	14.351	918.230	703.013
217.680	14.406	917.623	702.718
218.694	14.515	917.230	702.813
219.709	14.593	916.706	702.680
220.723	14.591	915.925	702.009
221.738	14.467	915.253	700.909
222.753	14.482	914.685	700.477
223.767	14.513	913.800	699.867
224.782	14.519	913.183	699.356
225.796	14.702	912.220	699.324
226.811	14.613	911.817	698.583
227.826	14.480	911.170	697.467
228.840	14.465	910.403	696.758
229.855	14.415	910.037	696.205
230.869	14.595	909.003	696.105
231.884	14.624	908.146	695.508
232.899	14.488	907.569	694.437
233.913	14.544	906.904	694.098
234.928	14.497	906.681	693.674
235.942	14.557	905.724	693.129
236.957	14.417	905.092	692.002
237.972	14.436	904.505	691.569
238.986	14.422	903.714	690.848
240.001	14.562	903.050	690.855
241.015	14.562	902.537	690.403
242.030	14.506	902.025	689.720
243.045	14.586	901.266	689.410
244.059	14.596	900.470	688.782
245.074	14.671	899.898	688.592
246.088	14.640	899.351	687.983
247.103	14.637	898.952	687.605
248.117	14.699	898.330	687.325
249.132	14.807	897.417	687.010
250.147	14.899	897.108	687.090
251.161	14.961	896.620	686.910
252.176	14.982	895.758	686.276
253.190	15.123	895.101	686.287
254.205	15.009	894.769	685.506
255.220	15.077	893.997	685.133
256.234	15.119	893.305	684.712
257.249	15.170	892.395	684.164
258.263	15.219	891.983	683.988
259.278	15.071	891.470	682.928
260.293	15.147	890.681	682.576
261.307	15.136	890.239	682.131
262.322	15.192	889.567	681.781
263.336	15.394	889.011	682.118
264.351	15.333	888.410	681.348
265.366	15.465	887.721	681.294
266.380	15.393	887.109	680.475
267.395	15.300	886.772	679.779
268.409	15.319	885.892	679.120
269.424	15.236	885.053	678.081
270.439	15.363	884.349	677.996
271.453	15.294	883.637	677.112
272.468	15.331	882.954	676.677
273.482	15.257	882.253	675.781
274.497	15.281	881.676	675.377
275.512	15.197	881.262	674.660
276.526	15.334	879.978	674.170
277.541	15.324	879.632	673.803
278.555	15.287	879.189	673.255
279.570	15.347	878.467	672.884
280.585	15.426	877.822	672.648
281.599	15.434	877.390	672.287
282.614	15.404	876.878	671.716
283.628	15.444	876.237	671.325
284.643	15.381	875.607	670.534
285.657	15.472	875.126	670.471
286.672	15.424	874.707	669.896
287.687	15.366	874.349	669.333
288.701	15.497	873.403	669.072
289.716	15.452	872.905	668.450
290.730	15.390	872.139	667.558
291.745	15.624	871.273	667.765
292.760	15.615	870.817	667.322
293.774	15.625	870.427	667.004
294.789	15.635	869.817	666.518
295.803	15.668	869.049	666.000
296.818	15.477	869.024	665.164
297.833	15.625	867.869	664.808
298.847	15.642	867.023	664.170
299.862	15.614	866.568	663.650
300.876	15.661	865.542	662.991
301.891	15.836	865.132	663.309
302.906	15.655	864.410	661.983
303.920	15.757	863.798	661.858
304.935	15.898	862.996	661.739
305.949	15.798	862.948	661.252
306.964	15.914	861.951	660.882
307.979	15.895	861.231	660.200
308.993	15.801	861.347	659.860
310.008	15.941	860.479	659.686
311.022	15.915	859.718	658.940
312.037	16.091	859.099	659.095
313.052	15.915	858.960	658.242
314.066	15.865	858.265	657.456
315.081	15.829	857.308	656.526
316.095	15.788	856.704	655.847
317.110	15.840	856.318	655.694
318.125	15.862	855.708	655.255
319.139	15.833	855.585	654.992
320.154	15.761	854.743	654.009
321.168	15.753	854.348	653.617
322.183	15.902	854.085	653.936
323.197	15.861	853.492	653.267
324.212	15.887	852.689	652.695
325.227	15.971	851.902	652.359
326.241	16.013	851.332	652.026
327.256	15.895	850.919	651.196
328.270	15.902	850.213	650.627
329.285	15.890	849.979	650.343
330.300	15.995	849.134	650.042
331.314	15.961	848.542	649.402
332.329	16.005	847.927	649.044
333.343	16.135	847.431	649.109
334.358	16.167	846.684	648.601
335.373	16.107	846.518	648.184
336.387	16.225	845.760	648.001
337.402	16.198	845.125	647.354
338.416	16.158	845.097	647.122
339.431	16.282	844.293	646.925
340.446	16.286	843.683	646.415
341.460	16.434	842.881	646.310
342.475	16.448	842.210	645.792
343.489	16.409	841.832	645.295
344.504	16.288	841.696	644.671
345.519	16.537	840.564	644.695
346.533	16.506	839.952	644.050
347.548	16.562	839.818	644.106
348.562	16.563	838.991	643.418
349.577	16.328	838.801	642.323
350.592	16.345	838.468	642.075
351.606	16.161	837.843	640.838
352.621	16.266	837.212	640.698
353.635	16.338	836.920	640.693
354.650	16.229	836.389	639.814
355.665	16.488	835.580	640.123
356.679	16.460	835.349	639.779
357.694	16.397	835.416	639.538
358.708	16.423	834.376	638.785
359.723	16.541	833.554	638.543
360.738	16.443	833.391	637.993
361.752	16.390	832.926	637.379
362.767	16.451	832.475	637.207
363.781	16.721	831.692	637.569
364.796	16.539	831.803	636.913
365.810	16.751	831.268	637.243
366.825	16.735	830.549	636.575
367.840	16.913	830.416	637.084
368.854	16.676	830.294	636.047
369.869	16.747	829.604	635.729
370.883	16.769	829.041	635.321
371.898	16.695	828.353	634.461
372.913	16.777	827.651	634.173
373.927	16.701	827.539	633.749
374.942	16.851	826.227	633.248
375.956	16.821	825.660	632.645
376.971	16.732	825.496	632.133
377.986	16.811	824.823	631.855
379.000	17.033	824.232	632.173
380.015	17.050	823.449	631.579
381.029	16.983	823.219	631.100
382.044	16.950	822.606	630.450
383.059	17.090	821.924	630.390
384.073	17.024	821.481	629.753
385.088	17.124	820.828	629.566
386.102	16.966	820.281	628.504
387.117	16.961	819.670	627.964
388.132	16.980	819.050	627.503
389.146	16.879	818.952	626.998
390.161	16.950	818.579	626.919
391.175	17.171	817.788	627.073
392.190	17.098	817.543	626.562
393.205	17.199	817.045	626.498
394.219	17.056	816.920	625.820
395.234	17.063	816.492	625.460
396.248	16.882	815.976	624.344
397.263	17.042	815.207	624.290
398.278	16.969	814.749	623.614
399.292	16.906	814.354	623.024
400.307	16.889	813.778	622.467
401.321	17.084	813.081	622.596
402.336	16.909	813.367	622.116
403.350	17.101	813.008	622.492
404.365	17.023	812.370	621.662
405.380	17.149	811.825	621.651
406.394	17.149	811.522	621.363
407.409	17.282	811.090	621.464
408.423	17.452	810.232	621.371
409.438	17.319	809.716	620.437
410.453	17.522	809.455	620.923
411.467	17.364	809.254	620.135
412.482	17.438	808.677	619.908
413.496	17.646	807.857	619.982
414.511	17.501	807.869	619.410
415.526	17.590	807.250	619.203
416.540	17.489	807.327	618.839
417.555	17.494	806.729	618.347
418.569	17.547	806.049	617.960
419.584	17.495	805.924	617.624
420.599	17.460	805.272	616.940
421.613	147.780	1367.322	1777.137
422.628	128.036	1449.233	1777.272
