DTS Sentinel unit serial number:	SN413079Multiplexer serial number:	ORYXHardware model number:	OX4-SRSoftware version number:	ORYX F/W v4.00 Oryx Data Collector v3.7.2.0data status	okinstallation	princeton_trtdifferential loss correction	single-endedforward channel	channel 3reverse channel	N/Adate	2019/09/17time	19:52:35forward acquisition time	60.00reverse acquisition time	0.00gamma	496.2192k internal	0.2320k external	0.2320temperature offset calibration	0.9954default loss term (dB/km)	0.3790temperature slope calibration	1.0000multiplexer offset coefficient	1.0000multiplexer slope coefficient	1.0000fibre end	0.00T internal ref (°C)	34.06T ext. ref 1 (°C)	0.23T ext. ref 2 (°C)	23.40length (m)	temperature (°C)	Stokes	anti-Stokes-747.200	118.402	0.329	-0.410
-746.185	-94.159	-0.312	-0.086
-745.171	79.291	-0.124	0.135
-744.156	274.975	0.104	-0.186
-743.142	556.541	0.078	0.191
-742.127	-86.227	-0.166	-0.052
-741.112	-200.000	0.015	0.323
-740.098	-23.794	0.218	0.132
-739.083	718.490	0.137	-0.369
-738.069	800.000	-0.103	0.385
-737.054	126.144	-0.122	-0.156
-736.039	165.252	-0.202	-0.289
-735.025	-134.241	0.319	0.040
-734.010	-112.254	-0.147	-0.030
-732.996	167.967	-0.267	-0.384
-731.981	-111.850	-0.170	0.035
-730.966	484.796	0.071	0.163
-729.952	-93.847	-0.164	0.045
-728.937	-38.796	0.273	-0.146
-727.923	41.729	-0.157	0.143
-726.908	-200.000	0.032	0.195
-725.894	-200.000	-0.007	-0.167
-724.879	467.802	0.060	-0.137
-723.864	-25.360	0.213	-0.127
-722.850	463.080	-0.140	-0.317
-721.835	87.330	0.118	-0.131
-720.821	-200.000	0.008	0.060
-719.806	-102.550	-0.108	0.026
-718.791	45.238	-0.113	-0.105
-717.777	-37.738	-0.186	0.100
-716.762	-123.556	-0.320	0.051
-715.748	-24.801	0.217	-0.130
-714.733	34.383	0.162	-0.142
-713.718	800.000	-0.059	0.206
-712.704	800.000	-0.054	-0.188
-711.689	-0.616	-0.081	-0.058
-710.675	-200.000	-0.042	-0.380
-709.660	778.545	-0.087	-0.239
-708.645	678.685	0.018	-0.046
-707.631	-200.000	-0.021	-0.111
-706.616	-107.881	0.229	0.050
-705.602	-43.745	0.136	-0.069
-704.587	-200.000	-0.006	0.325
-703.572	-159.378	0.507	-0.029
-702.558	-200.000	0.044	0.229
-701.543	43.722	0.234	-0.216
-700.529	800.000	-0.123	-0.369
-699.514	-200.000	0.027	-0.316
-698.499	-162.973	0.483	0.024
-697.485	-200.000	-0.011	-0.211
-696.470	-120.918	-0.082	-0.014
-695.456	800.000	0.022	-0.077
-694.441	-179.656	0.325	-0.007
-693.426	309.365	-0.058	-0.110
-692.412	-200.000	-0.023	0.228
-691.397	-53.903	-0.321	0.148
-690.383	87.596	-0.151	-0.168
-689.368	800.000	-0.019	-0.084
-688.354	-108.659	0.270	-0.059
-687.339	106.684	0.157	0.188
-686.324	127.528	0.117	-0.150
-685.310	-92.610	-0.266	0.075
-684.295	668.484	0.079	-0.205
-683.281	0.478	0.145	0.104
-682.266	50.626	-0.166	0.158
-681.251	800.000	0.054	0.231
-680.237	6.974	-0.494	-0.371
-679.222	-120.250	0.383	-0.066
-678.208	22.110	0.272	0.224
-677.193	12.084	-0.559	-0.434
-676.178	799.363	-0.037	-0.102
-675.164	-52.445	-0.139	0.065
-674.149	-200.000	-0.080	-0.423
-673.135	-37.051	0.194	-0.105
-672.120	-86.820	0.359	-0.110
-671.105	73.448	0.075	-0.079
-670.091	36.620	-0.041	-0.036
-669.076	800.000	0.117	-0.330
-668.062	33.135	-0.207	0.181
-667.047	-146.275	-0.105	-0.009
-666.032	-140.667	-0.254	0.026
-665.018	-79.114	-0.042	0.014
-664.003	201.639	-0.038	-0.058
-662.989	14.902	0.302	-0.238
-661.974	-51.913	0.156	0.073
-660.959	-200.000	-0.040	-0.242
-659.945	45.209	0.094	0.087
-658.930	159.549	0.155	-0.217
-657.916	-200.000	-0.025	-0.241
-656.901	60.188	-0.266	-0.265
-655.886	-36.882	-0.136	0.074
-654.872	800.000	-0.049	0.182
-653.857	-200.000	0.039	0.214
-652.843	-107.422	-0.012	0.003
-651.828	186.550	0.067	-0.100
-650.814	-19.482	0.242	0.151
-649.799	-129.748	-0.374	-0.052
-648.784	331.083	0.111	-0.216
-647.770	17.488	-0.207	0.166
-646.755	-90.465	0.071	0.021
-645.741	-9.062	-0.042	0.028
-644.726	16.726	0.086	0.068
-643.711	110.002	0.170	0.205
-642.697	21.023	-0.261	-0.214
-641.682	-76.065	-0.240	-0.085
-640.668	484.101	-0.134	0.306
-639.653	-52.639	0.080	0.037
-638.638	-180.926	0.203	-0.004
-637.624	-131.168	-0.099	-0.013
-636.609	-94.876	-0.192	-0.052
-635.595	97.998	-0.118	-0.137
-634.580	281.530	-0.061	0.110
-633.565	-32.187	-0.185	0.104
-632.551	-200.000	0.017	-0.220
-631.536	-120.769	-0.156	-0.026
-630.522	201.883	0.134	0.208
-629.507	-200.000	-0.008	-0.142
-628.492	341.772	-0.015	0.029
-627.478	-150.283	0.281	0.022
-626.463	-156.079	0.099	0.006
-625.449	800.000	-0.125	-0.390
-624.434	-43.347	-0.220	-0.112
-623.419	362.089	-0.046	-0.094
-622.405	53.531	-0.019	-0.019
-621.390	115.744	-0.302	-0.371
-620.376	51.741	0.063	-0.060
-619.361	-39.308	-0.333	-0.176
-618.346	160.832	0.230	0.323
-617.332	96.031	-0.093	-0.107
-616.317	114.098	-0.110	-0.134
-615.303	-56.675	0.420	0.187
-614.288	159.905	-0.146	0.205
-613.273	523.626	-0.051	-0.119
-612.259	-190.629	0.197	0.002
-611.244	29.245	0.197	-0.168
-610.230	800.000	0.038	0.108
-609.215	-85.133	0.128	-0.040
-608.201	97.609	-0.225	0.260
-607.186	20.506	-0.158	-0.129
-606.171	800.000	-0.033	-0.112
-605.157	19.558	0.121	-0.098
-604.142	8.189	0.057	0.043
-603.128	-200.000	0.048	0.284
-602.113	800.000	-0.039	-0.144
-601.098	629.710	0.061	-0.154
-600.084	23.613	-0.322	-0.267
-599.069	-115.140	0.210	0.040
-598.055	126.454	-0.273	-0.347
-597.040	539.269	-0.026	-0.063
-596.025	-120.389	-0.355	-0.061
-595.011	-91.444	-0.172	-0.049
-593.996	14.355	-0.056	0.044
-592.982	169.921	-0.049	-0.070
-591.967	170.707	0.105	-0.151
-590.952	74.380	0.071	-0.075
-589.938	-69.625	-0.163	0.063
-588.923	375.837	-0.084	0.172
-587.909	-98.700	-0.205	-0.052
-586.894	800.000	0.021	-0.072
-585.879	-34.269	0.023	-0.012
-584.865	800.000	0.060	-0.236
-583.850	-200.000	-0.080	0.376
-582.836	-84.301	-0.289	-0.092
-581.821	-90.180	-0.169	-0.049
-580.806	136.353	0.094	0.123
-579.792	-200.000	-0.050	0.351
-578.777	44.378	0.224	-0.207
-577.763	-92.267	0.228	0.065
-576.748	-200.000	-0.006	-0.205
-575.733	-23.290	0.105	-0.064
-574.719	210.304	-0.136	-0.215
-573.704	134.871	-0.022	-0.028
-572.690	-100.894	-0.298	-0.074
-571.675	800.000	-0.072	0.258
-570.661	58.236	-0.104	0.102
-569.646	-47.119	-0.260	-0.128
-568.631	800.000	-0.133	-0.435
-567.617	-200.000	0.042	0.264
-566.602	19.727	-0.070	-0.056
-565.588	335.713	0.077	0.149
-564.573	612.262	0.053	0.132
-563.558	-70.213	0.165	0.063
-562.544	-34.706	-0.174	-0.096
-561.529	-126.642	0.124	0.018
-560.515	-22.132	-0.086	-0.052
-559.500	-42.583	0.052	0.026
-558.485	-200.000	-0.032	0.264
-557.471	-124.033	0.356	0.056
-556.456	-200.000	-0.059	0.000
-555.442	106.171	-0.176	0.209
-554.427	-200.000	0.028	-0.311
-553.412	-129.905	-0.041	0.006
-552.398	-200.000	0.027	0.296
-551.383	-200.000	0.058	0.396
-550.369	-200.000	-0.018	0.209
-549.354	36.693	-0.167	-0.148
-548.339	102.286	-0.140	-0.165
-547.325	698.200	-0.099	0.260
-546.310	170.555	0.285	-0.409
-545.296	354.310	-0.026	0.051
-544.281	587.094	0.150	-0.371
-543.266	30.979	0.027	-0.023
-542.252	800.000	-0.096	0.281
-541.237	588.857	0.055	0.137
-540.223	-152.056	-0.038	-0.003
-539.208	800.000	-0.042	-0.151
-538.193	-99.152	-0.116	-0.029
-537.179	178.308	0.119	-0.175
-536.164	-200.000	-0.026	0.310
-535.150	29.068	0.127	-0.108
-534.135	-200.000	0.128	-0.000
-533.121	565.038	-0.075	0.183
-532.106	86.856	0.119	0.132
-531.091	-35.797	-0.113	0.061
-530.077	173.954	0.121	0.175
-529.062	-176.342	0.138	0.004
-528.048	800.000	-0.113	0.371
-527.033	800.000	0.125	-0.402
-526.018	-152.684	0.177	-0.013
-525.004	-134.399	-0.224	-0.028
-523.989	-200.000	-0.000	-0.105
-522.975	-172.429	-0.048	0.002
-521.960	455.920	0.132	-0.294
-520.945	-138.243	0.270	-0.030
-519.931	-200.000	0.025	0.146
-518.916	-1.819	-0.274	0.193
-517.902	800.000	0.095	-0.267
-516.887	-200.000	0.162	-0.001
-515.872	725.015	-0.020	-0.053
-514.858	-154.760	0.044	-0.003
-513.843	92.305	-0.187	-0.211
-512.829	-200.000	0.022	0.134
-511.814	543.755	-0.109	0.261
-510.799	-200.000	-0.041	0.261
-509.785	545.782	-0.021	-0.049
-508.770	-200.000	0.026	0.120
-507.756	-69.206	0.226	-0.087
-506.741	11.089	0.114	0.087
-505.726	-200.000	0.040	-0.194
-504.712	156.621	0.163	-0.225
-503.697	-106.978	-0.268	0.059
-502.683	-18.472	0.081	0.051
-501.668	68.401	-0.158	0.162
-500.653	800.000	-0.029	-0.109
-499.639	800.000	-0.039	0.118
-498.624	-133.988	-0.249	-0.031
-497.610	-200.000	-0.014	0.177
-496.595	582.938	-0.097	0.238
-495.581	-25.243	-0.199	0.118
-494.566	344.782	0.132	-0.259
-493.551	-95.104	-0.109	0.029
-492.537	258.917	0.088	-0.152
-491.522	-113.893	-0.235	0.046
-490.508	143.065	-0.158	0.210
-489.493	-200.000	0.003	-0.087
-488.478	-200.000	-0.011	0.182
-487.464	800.000	0.048	-0.170
-486.449	152.380	0.080	0.110
-485.435	91.996	-0.109	-0.123
-484.420	2.241	-0.241	-0.174
-483.405	800.000	0.102	0.294
-482.391	-23.036	0.238	0.143
-481.376	-200.000	0.033	0.446
-480.362	104.082	0.080	0.095
-479.347	-87.514	0.133	-0.040
-478.332	31.481	0.209	0.180
-477.318	-11.109	0.169	-0.112
-476.303	289.119	0.144	0.261
-475.289	-200.000	0.047	-0.495
-474.274	800.000	-0.052	0.160
-473.259	4.592	0.257	0.189
-472.245	185.556	-0.142	0.211
-471.230	-6.838	0.156	0.106
-470.216	285.202	-0.105	-0.189
-469.201	-200.000	0.002	0.182
-468.186	256.007	-0.249	-0.427
-467.172	800.000	-0.036	0.151
-466.157	107.268	-0.086	-0.102
-465.143	326.157	-0.085	-0.164
-464.128	426.301	0.039	-0.085
-463.113	-2.447	0.171	-0.120
-462.099	361.268	-0.009	-0.018
-461.084	-102.944	-0.220	0.052
-460.070	-107.811	-0.212	-0.046
-459.055	-45.348	-0.079	-0.039
-458.040	-120.414	0.380	0.065
-457.026	185.460	-0.054	-0.080
-456.011	126.559	0.144	-0.182
-454.997	49.565	0.096	0.090
-453.982	-138.459	-0.115	0.013
-452.968	161.615	-0.225	0.315
-451.953	94.705	0.105	-0.120
-450.938	57.555	-0.205	-0.200
-449.924	-70.271	0.068	-0.026
-448.909	-110.931	-0.389	-0.080
-447.895	568.182	0.032	0.078
-446.880	-13.678	0.174	0.113
-445.865	12.512	-0.088	-0.068
-444.851	255.188	-0.086	0.147
-443.836	-75.837	-0.389	-0.138
-442.822	213.494	0.072	-0.114
-441.807	166.317	0.046	0.066
-440.792	-200.000	0.016	-0.297
-439.778	48.741	0.078	-0.073
-438.763	69.451	0.073	-0.075
-437.749	-200.000	-0.023	-0.105
-436.734	11.406	-0.188	-0.144
-435.719	-139.444	-0.401	-0.043
-434.705	103.696	-0.084	-0.099
-433.690	80.469	-0.115	-0.123
-432.676	-27.196	-0.314	-0.183
-431.661	-61.779	0.380	0.159
-430.646	-51.123	-0.187	0.087
-429.632	97.076	0.089	-0.102
-428.617	-200.000	0.005	-0.029
-427.603	135.916	0.093	0.121
-426.588	235.137	-0.146	-0.241
-425.573	-113.832	-0.137	-0.027
-424.559	95.724	-0.141	-0.161
-423.544	-110.531	0.106	0.022
-422.530	-77.337	0.180	-0.062
-421.515	-174.385	-0.151	0.004
-420.500	-9.116	-0.173	0.115
-419.486	3.726	-0.290	0.211
-418.471	-200.000	0.020	-0.217
-417.457	-60.426	-0.125	0.053
-416.442	-34.395	0.274	0.150
-415.428	282.010	-0.089	-0.158
-414.413	113.481	0.265	0.321
-413.398	4.700	0.214	-0.157
-412.384	84.887	0.081	0.089
-411.369	-109.439	-0.100	0.021
-410.355	-200.000	-0.011	0.169
-409.340	-66.126	0.155	0.062
-408.325	-200.000	-0.016	-0.095
-407.311	-200.000	-0.035	0.217
-406.296	-124.761	0.157	0.024
-405.282	800.000	0.058	0.196
-404.267	312.578	0.209	-0.392
-403.252	296.648	-0.169	-0.309
-402.238	-200.000	0.010	-0.056
-401.223	-87.380	-0.197	0.060
-400.209	48.842	-0.195	-0.183
-399.194	-54.801	0.300	0.135
-398.179	-134.349	0.497	-0.061
-397.165	-133.131	-0.173	0.022
-396.150	-12.613	-0.294	-0.191
-395.136	-105.397	0.166	0.038
-394.121	-133.829	0.351	-0.044
-393.106	-200.000	-0.007	0.275
-392.092	-200.000	0.025	-0.124
-391.077	73.316	-0.218	-0.227
-390.063	174.146	0.108	0.155
-389.048	31.661	0.085	0.073
-388.033	-200.000	0.059	0.373
-387.019	664.147	0.107	0.275
-386.004	-194.646	-0.055	-0.000
-384.990	100.480	0.274	0.317
-383.975	-200.000	0.032	0.280
-382.960	-141.166	0.363	-0.037
-381.946	328.547	0.054	-0.104
-380.931	800.000	-0.042	0.147
-379.917	-200.000	-0.008	-0.054
-378.902	-200.000	-0.005	-0.207
-377.888	-169.299	0.332	0.012
-376.873	-200.000	-0.036	-0.283
-375.858	49.866	-0.086	-0.081
-374.844	276.390	0.110	-0.195
-373.829	-104.975	0.453	-0.103
-372.815	-200.000	0.033	0.290
-371.800	13.000	0.035	-0.027
-370.785	-124.485	-0.560	-0.087
-369.771	538.956	0.114	0.270
-368.756	-200.000	-0.040	-0.330
-367.742	15.167	0.061	-0.048
-366.727	-74.162	0.301	-0.108
-365.712	47.226	-0.254	0.235
-364.698	81.921	0.162	-0.174
-363.683	215.135	-0.174	-0.275
-362.669	-79.155	0.170	-0.057
-361.654	-127.883	0.245	0.035
-360.639	-121.925	0.250	0.041
-359.625	-179.186	-0.295	0.007
-358.610	-200.000	-0.001	0.017
-357.596	-68.294	0.333	0.129
-356.581	-170.324	0.247	0.009
-355.566	48.393	-0.149	0.139
-354.552	-85.133	-0.178	0.056
-353.537	-200.000	-0.003	0.295
-352.523	337.295	-0.133	0.258
-351.508	183.754	0.106	-0.156
-350.493	-137.421	0.102	0.011
-349.479	-55.348	-0.131	0.059
-348.464	-200.000	-0.016	0.168
-347.450	101.936	0.198	0.231
-346.435	-14.482	0.260	-0.166
-345.420	591.329	-0.069	-0.169
-344.406	-200.000	0.040	-0.177
-343.391	95.508	-0.080	0.091
-342.377	-154.076	0.227	0.015
-341.362	-125.637	0.219	0.033
-340.348	121.418	-0.224	-0.278
-339.333	-95.143	0.452	-0.121
-338.318	145.800	0.072	0.096
-337.304	-32.939	-0.023	0.013
-336.289	48.940	-0.081	0.076
-335.275	-96.860	-0.088	-0.023
-334.260	464.188	0.068	-0.151
-333.245	80.150	-0.330	0.354
-332.231	178.183	0.240	0.349
-331.216	-97.802	0.213	-0.055
-330.202	-113.715	-0.043	-0.008
-329.187	-156.679	0.205	-0.013
-328.172	115.654	-0.047	0.058
-327.158	22.879	0.051	0.042
-326.143	-200.000	-0.072	-0.372
-325.129	-102.598	-0.300	0.071
-324.114	85.551	0.255	-0.278
-323.099	-98.985	0.043	-0.011
-322.085	362.371	-0.063	-0.125
-321.070	800.000	-0.053	0.153
-320.056	161.833	0.254	0.353
-319.041	-167.246	-0.156	0.006
-318.026	-87.227	0.232	-0.070
-317.012	-33.994	0.228	0.124
-315.997	48.785	0.314	0.293
-314.983	-107.651	0.445	0.097
-313.968	-200.000	0.068	0.341
-312.953	-159.065	-0.195	-0.011
-311.939	13.787	0.129	0.100
-310.924	-74.862	0.115	0.041
-309.910	-189.636	0.445	0.005
-308.895	297.758	0.063	-0.116
-307.880	-135.184	0.153	-0.018
-306.866	800.000	0.051	0.191
-305.851	-46.672	-0.214	-0.104
-304.837	-112.828	-0.336	0.066
-303.822	168.804	0.149	-0.211
-302.807	800.000	-0.113	0.350
-301.793	-200.000	-0.074	0.420
-300.778	-74.874	-0.294	0.105
-299.764	-200.000	-0.021	-0.405
-298.749	-200.000	0.020	0.100
-297.735	-118.044	0.052	0.009
-296.720	-83.290	-0.464	0.148
-295.705	-148.934	0.032	0.003
-294.691	800.000	0.048	0.188
-293.676	-200.000	0.001	-0.131
-292.662	-103.256	0.150	-0.035
-291.647	-45.750	0.216	-0.106
-290.632	-200.000	-0.016	-0.212
-289.618	800.000	-0.071	0.267
-288.603	-65.813	0.237	-0.094
-287.589	208.861	0.112	0.175
-286.574	16.093	-0.122	-0.096
-285.559	-35.769	-0.223	-0.120
-284.545	302.290	-0.058	0.107
-283.530	-94.694	-0.304	-0.082
-282.516	-72.904	-0.228	0.083
-281.501	-200.000	0.007	-0.241
-280.486	-200.000	-0.016	-0.125
-279.472	499.008	-0.066	0.151
-278.457	800.000	0.074	0.307
-277.443	-69.142	-0.142	-0.054
-276.428	-200.000	-0.006	0.156
-275.413	-193.314	-0.268	-0.002
-274.399	173.440	0.005	0.007
-273.384	-79.020	0.288	-0.097
-272.370	395.473	-0.103	0.214
-271.355	175.579	0.133	0.191
-270.340	-200.000	-0.044	0.192
-269.326	-200.000	-0.055	0.245
-268.311	232.228	0.090	0.147
-267.297	-67.348	-0.081	0.032
-266.282	-59.926	0.139	-0.059
-265.267	-200.000	-0.027	-0.360
-264.253	-69.058	-0.227	-0.087
-263.238	298.077	0.083	-0.152
-262.224	76.698	-0.190	0.200
-261.209	13.762	0.215	0.166
-260.195	104.301	-0.011	-0.013
-259.180	292.731	-0.064	-0.116
-258.165	141.642	0.419	0.551
-257.151	228.159	0.039	0.064
-256.136	-105.314	-0.047	0.011
-255.122	352.436	0.030	-0.059
-254.107	124.788	-0.056	0.070
-253.092	433.641	-0.156	-0.336
-252.078	-84.817	-0.185	0.058
-251.063	73.485	0.182	-0.189
-250.049	-72.277	0.157	0.058
-249.034	70.601	-0.319	-0.327
-248.019	800.000	-0.147	-0.547
-247.005	210.565	0.141	0.220
-245.990	-102.721	0.329	0.078
-244.976	-25.394	0.034	-0.020
-243.961	800.000	-0.048	-0.139
-242.946	-53.170	0.137	-0.062
-241.932	267.010	0.080	0.138
-240.917	-200.000	0.008	-0.081
-239.903	201.552	0.164	-0.251
-238.888	110.119	0.104	-0.124
-237.873	-34.892	0.274	-0.148
-236.859	127.007	0.218	0.274
-235.844	164.369	0.214	-0.298
-234.830	202.133	-0.160	-0.244
-233.815	-71.984	0.111	-0.041
-232.800	-115.068	-0.215	-0.040
-231.786	800.000	-0.171	-0.549
-230.771	53.616	-0.330	0.314
-229.757	-200.000	0.036	0.218
-228.742	-200.000	-0.029	0.163
-227.727	233.163	-0.061	-0.100
-226.713	-73.579	0.211	0.076
-225.698	136.804	0.247	0.320
-224.684	170.225	0.111	-0.157
-223.669	-103.473	-0.288	-0.067
-222.655	-200.000	-0.021	-0.193
-221.640	98.415	0.179	0.205
-220.625	800.000	-0.017	-0.066
-219.611	14.018	0.284	0.219
-218.596	-21.940	-0.219	-0.132
-217.582	-59.132	0.189	0.081
-216.567	57.105	-0.389	-0.376
-215.552	-7.225	-0.110	-0.074
-214.538	-66.684	-0.347	0.136
-213.523	-200.000	0.037	0.300
-212.509	-29.947	0.211	-0.119
-211.494	1.473	0.068	-0.049
-210.479	-75.284	0.320	-0.113
-209.465	599.929	0.081	-0.198
-208.450	-200.000	-0.006	-0.124
-207.436	1.076	-0.114	-0.081
-206.421	-91.322	-0.038	-0.011
-205.406	-200.000	0.025	-0.335
-204.392	-94.811	-0.413	0.111
-203.377	-185.705	-0.041	0.001
-202.363	800.000	0.031	-0.102
-201.348	-117.947	-0.080	-0.014
-200.333	-46.795	0.252	-0.122
-199.319	693.069	-0.061	0.159
-198.304	800.000	0.048	-0.203
-197.290	347.481	0.170	-0.332
-196.275	572.585	-0.095	0.230
-195.260	-51.009	-0.470	0.218
-194.246	186.622	-0.062	0.091
-193.231	-200.000	0.032	-0.478
-192.217	597.677	0.086	-0.211
-191.202	-124.818	-0.146	-0.022
-190.187	-2.645	0.128	-0.089
-189.173	-41.201	-0.195	0.100
-188.158	592.076	0.104	-0.255
-187.144	-200.000	0.050	0.424
-186.129	-176.495	-0.188	0.005
-185.114	-124.026	-0.283	0.044
-184.100	800.000	0.017	-0.055
-183.085	-111.303	0.053	-0.011
-182.071	-200.000	-0.051	0.253
-181.056	-39.648	0.319	0.165
-180.042	732.414	-0.096	0.253
-179.027	-200.000	-0.012	-0.166
-178.012	-87.961	-0.222	-0.066
-176.998	419.436	0.110	-0.232
-175.983	-32.609	-0.259	-0.142
-174.969	379.840	-0.095	-0.193
-173.954	592.858	0.052	-0.128
-172.939	24.175	0.095	0.078
-171.925	800.000	0.015	0.045
-170.910	-14.273	-0.128	-0.081
-169.896	-143.817	-0.206	0.019
-168.881	-25.459	0.285	0.167
-167.866	14.202	-0.149	0.115
-166.852	7.814	-0.196	0.145
-165.837	435.289	-0.092	-0.197
-164.823	115.848	0.199	-0.240
-163.808	-65.224	-0.131	0.052
-162.793	800.000	0.024	0.100
-161.779	5.070	0.110	0.080
-160.764	-30.028	0.072	0.040
-159.750	-200.000	0.077	0.361
-158.735	-200.000	0.057	0.508
-157.720	5.847	0.336	-0.246
-156.706	-55.487	0.085	-0.038
-155.691	-200.000	0.010	0.180
-154.677	58.645	0.089	0.087
-153.662	638.481	-0.059	-0.147
-152.647	-71.260	0.083	-0.031
-151.633	-196.226	-0.115	0.001
-150.618	-17.070	0.187	0.117
-149.604	-76.563	0.373	-0.129
-148.589	-200.000	0.001	-0.066
-147.574	-41.722	0.219	0.111
-146.560	-200.000	-0.001	-0.525
-145.545	-183.125	0.300	0.005
-144.531	96.757	0.279	-0.316
-143.516	228.126	-0.047	-0.076
-142.502	-200.000	0.052	-0.245
-141.487	174.449	0.178	-0.254
-140.472	244.147	-0.322	-0.534
-139.458	-200.000	-0.035	0.410
-138.443	800.000	-0.086	0.289
-137.429	800.000	-0.054	-0.155
-136.414	-200.000	-0.043	0.200
-135.399	101.543	0.099	-0.113
-134.385	-200.000	0.008	0.063
-133.370	-86.774	0.391	0.118
-132.356	800.000	0.092	0.360
-131.341	48.107	-0.043	-0.040
-130.326	-200.000	0.029	-0.215
-129.312	800.000	0.123	-0.421
-128.297	-130.983	-0.323	-0.043
-127.283	457.004	0.075	-0.163
-126.268	55.415	-0.086	0.082
-125.253	-162.905	-0.148	-0.007
-124.239	437.779	-0.119	-0.255
-123.224	-75.235	-0.138	-0.049
-122.210	-200.000	0.019	-0.409
-121.195	-74.254	0.507	-0.181
-120.180	-200.000	0.049	-0.226
-119.166	292.031	-0.131	-0.236
-118.151	-85.825	-0.272	0.083
-117.137	-107.417	-0.089	0.019
-116.122	-29.062	-0.064	0.036
-115.107	-200.000	-0.000	0.121
-114.093	655.163	0.071	-0.179
-113.078	-200.000	0.047	-0.235
-112.064	436.579	-0.052	0.112
-111.049	-200.000	-0.010	0.085
-110.034	-35.117	-0.055	-0.030
-109.020	-168.328	0.284	-0.011
-108.005	254.850	-0.014	0.024
-106.991	-200.000	0.009	-0.106
-105.976	-108.555	-0.116	-0.024
-104.962	-200.000	-0.006	-0.067
-103.947	64.219	0.077	0.077
-102.932	-76.701	0.191	0.066
-101.918	379.863	0.131	0.264
-100.903	-182.086	0.357	-0.007
-99.889	236.953	-0.208	0.340
-98.874	-77.551	0.290	0.099
-97.859	800.000	0.041	-0.131
-96.845	-200.000	0.041	-0.214
-95.830	-53.017	0.397	0.180
-94.816	-200.000	-0.049	-0.341
-93.801	-200.000	-0.001	0.211
-92.786	-200.000	-0.003	-0.131
-91.772	800.000	0.029	0.124
-90.757	-139.909	-0.067	-0.007
-89.743	38.515	0.159	-0.140
-88.728	135.529	0.167	-0.215
-87.713	68.278	0.128	0.129
-86.699	-127.024	0.291	-0.042
-85.684	509.336	0.039	-0.089
-84.670	188.100	-0.193	0.284
-83.655	-200.000	-0.034	-0.348
-82.640	-200.000	-0.052	-0.262
-81.626	98.378	-0.239	-0.272
-80.611	-112.231	0.028	-0.006
-79.597	11.163	-0.347	0.261
-78.582	-156.240	0.290	-0.018
-77.567	-129.143	0.281	-0.039
-76.553	800.000	-0.007	0.031
-75.538	-95.123	0.396	0.105
-74.524	33.588	-0.185	0.158
-73.509	271.538	0.077	0.133
-72.494	114.216	-0.241	-0.289
-71.480	-93.450	-0.191	-0.052
-70.465	-86.014	0.136	-0.041
-69.451	-200.000	0.079	-0.382
-68.436	7.211	-0.143	-0.105
-67.422	-172.782	-0.183	-0.006
-66.407	-46.942	0.236	0.114
-65.392	-24.056	0.228	0.134
-64.378	6.136	0.116	0.085
-63.363	-33.391	0.168	-0.092
-62.349	-116.062	0.314	-0.057
-61.334	155.408	-0.689	-0.934
-60.319	4.717	0.543	0.393
-59.305	-200.000	-0.195	-0.967
-58.290	359.844	0.513	1.010
-57.276	371.994	0.651	1.300
-56.261	-200.000	91.771	560.673
-55.246	565.650	1355.104	3234.059
-54.232	164.878	2522.503	3503.655
-53.217	112.094	2160.794	2569.659
-52.203	44.314	1708.156	1542.898
-51.188	37.114	1519.832	1323.843
-50.173	34.826	1492.068	1284.253
-49.159	54.039	1538.417	1455.491
-48.144	55.984	1556.555	1485.853
-47.130	37.411	1517.822	1323.905
-46.115	34.313	1503.160	1290.127
-45.100	34.144	1500.077	1286.285
-44.086	34.131	1498.096	1284.449
-43.071	34.125	1496.235	1282.762
-42.057	34.054	1494.822	1281.019
-41.042	34.016	1493.455	1279.544
-40.027	34.123	1491.600	1278.623
-39.013	33.970	1490.433	1276.540
-37.998	34.039	1488.922	1275.661
-36.984	34.001	1487.846	1274.437
-35.969	34.042	1486.741	1273.711
-34.954	34.135	1484.903	1272.707
-33.940	34.023	1484.565	1271.621
-32.925	34.153	1482.703	1270.841
-31.911	34.094	1481.317	1269.209
-30.896	33.997	1480.325	1267.662
-29.881	34.083	1478.278	1266.433
-28.867	34.089	1477.252	1265.545
-27.852	34.147	1475.411	1264.302
-26.838	34.078	1474.236	1262.785
-25.823	34.161	1472.786	1262.041
-24.809	34.172	1470.839	1260.398
-23.794	34.168	1469.238	1258.948
-22.779	34.054	1468.641	1257.631
-21.765	33.997	1467.528	1256.257
-20.750	34.116	1466.284	1255.926
-19.736	34.144	1465.177	1255.110
-18.721	34.035	1464.768	1253.992
-17.706	34.057	1463.260	1252.800
-16.692	34.069	1462.252	1251.965
-15.677	34.041	1461.302	1250.917
-14.663	34.033	1460.160	1249.836
-13.648	34.042	1459.345	1249.149
-12.633	34.022	1458.291	1248.066
-11.619	33.969	1457.704	1247.167
-10.604	34.098	1456.343	1246.797
-9.590	34.004	1455.697	1245.580
-8.575	34.095	1454.929	1245.470
-7.560	34.141	1453.940	1244.874
-6.546	34.100	1453.067	1243.810
-5.531	33.997	1452.586	1242.673
-4.517	34.017	1451.699	1242.000
-3.502	34.121	1450.332	1241.460
-2.487	34.128	1449.851	1241.041
-1.473	34.109	1448.364	1239.596
-0.458	34.072	1446.947	1238.094
0.556	31.728	1436.565	1221.492
1.571	26.898	1407.681	1165.882
2.586	21.291	1343.263	1077.939
3.600	18.445	1259.438	994.098
4.615	16.856	1213.942	949.207
5.629	14.621	1159.871	894.878
6.644	7.587	1076.918	795.673
7.659	1.427	1036.505	735.976
8.673	0.375	1031.277	727.126
9.688	0.287	1027.824	724.206
10.702	0.150	1026.629	722.641
11.717	0.128	1024.936	721.282
12.731	2.286	1026.691	732.802
13.746	9.570	1036.000	774.511
14.761	15.663	1044.361	810.140
15.775	17.092	1045.226	817.628
16.790	16.540	1043.258	813.361
17.804	15.515	1041.155	806.727
18.819	14.636	1039.025	800.789
19.834	14.191	1037.990	797.788
20.848	13.989	1036.644	795.719
21.863	13.683	1036.231	793.865
22.877	13.464	1035.265	792.007
23.892	13.250	1034.620	790.421
24.907	13.139	1033.469	788.941
25.921	13.131	1032.665	788.219
26.936	13.158	1032.258	787.965
27.950	13.150	1031.700	787.435
28.965	13.214	1030.906	787.061
29.980	13.370	1029.709	786.821
30.994	13.415	1028.964	786.397
32.009	13.409	1028.237	785.740
33.023	13.410	1027.736	785.295
34.038	13.468	1026.667	784.685
35.053	13.396	1026.031	783.788
36.067	13.322	1024.996	782.578
37.082	13.245	1024.377	781.672
38.096	13.250	1023.536	780.981
39.111	13.421	1022.470	780.906
40.126	13.385	1021.685	780.070
41.140	13.280	1020.861	778.877
42.155	13.216	1019.769	777.674
43.169	13.260	1019.120	777.316
44.184	13.189	1017.768	775.882
45.199	13.128	1016.729	774.738
46.213	13.135	1016.005	774.151
47.228	13.202	1014.994	773.622
48.242	13.239	1013.858	772.862
49.257	13.225	1012.877	771.980
50.271	13.292	1012.145	771.668
51.286	13.287	1011.252	770.896
52.301	13.206	1010.562	769.921
53.315	13.289	1009.704	769.589
54.330	13.321	1008.742	768.934
55.344	13.193	1007.501	767.325
56.359	13.128	1007.082	766.639
57.374	13.208	1005.881	766.025
58.388	13.163	1005.231	765.257
59.403	13.071	1004.662	764.328
60.417	13.109	1003.696	763.700
61.432	13.150	1002.526	762.934
62.447	13.238	1001.834	762.744
63.461	13.221	1001.251	762.158
64.476	13.184	1000.485	761.333
65.490	13.145	999.766	760.539
66.505	13.085	998.763	759.433
67.520	13.148	998.080	759.138
68.534	13.105	997.194	758.198
69.549	13.143	996.630	757.878
70.563	13.220	996.052	757.725
71.578	13.217	995.456	757.189
72.593	13.141	994.789	756.266
73.607	13.093	993.634	755.102
74.622	13.032	992.875	754.179
75.636	12.931	992.188	753.129
76.651	13.079	990.872	752.738
77.666	13.030	990.492	752.164
78.680	12.949	989.790	751.192
79.695	13.053	988.836	750.873
80.709	13.179	988.126	750.845
81.724	13.235	987.938	750.890
82.739	13.302	987.173	750.546
83.753	13.114	986.689	749.256
84.768	13.223	985.560	748.826
85.782	13.382	984.657	748.793
86.797	13.409	984.126	748.446
87.812	13.371	983.158	747.475
88.826	13.316	981.924	746.218
89.841	13.280	981.903	745.975
90.855	13.295	980.940	745.244
91.870	13.360	980.163	744.884
92.884	13.369	979.133	744.075
93.899	13.404	978.654	743.801
94.914	13.395	978.346	743.460
95.928	13.332	977.718	742.637
96.943	13.387	976.656	742.007
97.957	13.452	975.742	741.541
98.972	13.423	975.314	741.019
99.987	13.413	974.534	740.316
101.001	13.441	973.623	739.686
102.016	13.345	972.696	738.486
103.030	13.489	972.017	738.550
104.045	13.389	971.034	737.291
105.060	13.367	970.129	736.439
106.074	13.383	969.256	735.783
107.089	13.289	968.636	734.829
108.103	13.312	967.337	733.882
109.118	13.265	966.402	732.898
110.133	13.276	965.734	732.377
111.147	13.221	965.075	731.567
112.162	13.231	963.964	730.704
113.176	13.208	963.412	730.121
114.191	13.324	962.202	729.648
115.206	13.235	961.368	728.563
116.220	13.397	960.660	728.674
117.235	13.328	959.859	727.700
118.249	13.232	959.024	726.581
119.264	13.281	957.836	725.831
120.279	13.290	957.316	725.410
121.293	13.253	956.566	724.615
122.308	13.251	956.135	724.215
123.322	13.302	954.982	723.504
124.337	13.185	954.147	722.297
125.352	13.318	952.856	721.835
126.366	13.324	951.980	721.135
127.381	13.255	950.869	719.928
128.395	13.237	950.388	719.419
129.410	13.277	949.195	718.630
130.424	13.273	948.431	717.969
131.439	13.301	947.304	717.171
132.454	13.336	946.707	716.811
133.468	13.415	945.613	716.258
134.483	13.274	945.408	715.431
135.497	13.385	945.005	715.544
136.512	13.365	943.786	714.471
137.527	13.216	943.105	713.249
138.541	13.368	942.044	713.037
139.556	13.431	941.264	712.656
140.570	13.470	940.455	712.150
141.585	13.369	940.324	711.552
142.600	13.437	939.596	711.228
143.614	13.456	938.756	710.611
144.629	13.408	937.929	709.717
145.643	13.548	936.970	709.530
146.658	13.511	936.479	708.938
147.673	13.414	935.402	707.642
148.687	13.477	934.769	707.369
149.702	13.526	933.659	706.675
150.716	13.345	932.831	705.218
151.731	13.371	932.137	704.742
152.746	13.355	931.535	704.156
153.760	13.517	930.462	703.972
154.775	13.529	930.018	703.622
155.789	13.464	929.114	702.599
156.804	13.624	928.290	702.594
157.819	13.512	927.842	701.720
158.833	13.554	926.817	701.058
159.848	13.522	926.520	700.636
160.862	13.679	925.792	700.686
161.877	13.577	924.624	699.313
162.892	13.534	924.091	698.663
163.906	13.544	923.149	697.931
164.921	13.425	922.455	696.844
165.935	13.485	921.522	696.332
166.950	13.594	920.473	695.935
167.964	13.502	919.518	694.764
168.979	13.512	918.670	694.105
169.994	13.706	917.293	693.815
171.008	13.707	916.607	693.240
172.023	13.716	915.622	692.470
173.037	13.611	915.410	691.811
174.052	13.557	914.882	691.123
175.067	13.803	913.625	691.140
176.081	13.732	913.201	690.461
177.096	13.705	911.976	689.363
178.110	13.742	911.362	688.992
179.125	13.631	910.879	688.103
180.140	13.772	909.377	687.491
181.154	13.695	909.123	686.922
182.169	13.684	908.718	686.507
183.183	13.732	908.210	686.261
184.198	13.719	907.504	685.616
185.213	13.819	906.367	685.107
186.227	13.806	905.919	684.656
187.242	13.868	905.604	684.611
188.256	13.952	904.744	684.248
189.271	13.975	904.275	683.926
190.286	13.816	903.802	682.853
191.300	13.748	903.100	681.982
192.315	13.715	902.456	681.301
193.329	13.752	901.283	680.508
194.344	13.707	900.419	679.610
195.359	13.661	900.353	679.311
196.373	13.676	900.028	679.069
197.388	13.912	898.969	679.175
198.402	13.904	898.896	679.026
199.417	14.003	897.997	678.691
200.432	14.056	897.875	678.757
201.446	14.105	897.239	678.413
202.461	14.063	896.896	677.924
203.475	14.147	896.586	677.972
204.490	14.183	895.817	677.477
205.504	14.084	894.619	676.108
206.519	14.047	893.710	675.210
207.534	14.042	893.113	674.679
208.548	14.136	892.283	674.373
209.563	13.996	892.172	673.664
210.577	14.081	891.518	673.454
211.592	14.042	890.971	672.825
212.607	14.071	890.343	672.407
213.621	14.259	889.641	672.577
214.636	14.288	888.765	671.972
215.650	14.110	888.453	670.961
216.665	14.268	887.798	671.044
217.680	14.263	887.002	670.361
218.694	14.305	886.710	670.250
219.709	14.351	886.320	670.079
220.723	14.315	885.419	669.196
221.738	14.319	884.659	668.580
222.753	14.233	884.176	667.809
223.767	14.314	883.546	667.598
224.782	14.501	882.282	667.332
225.796	14.349	882.007	666.460
226.811	14.434	881.127	666.073
227.826	14.446	880.698	665.737
228.840	14.461	879.796	665.057
229.855	14.369	879.632	664.507
230.869	14.539	878.732	664.447
231.884	14.388	878.031	663.258
232.899	14.411	877.558	662.930
233.913	14.322	876.676	661.855
234.928	14.455	875.797	661.661
235.942	14.406	875.546	661.217
236.957	14.276	875.046	660.266
237.972	14.403	874.169	660.048
238.986	14.429	873.337	659.463
240.001	14.336	872.820	658.650
241.015	14.389	872.395	658.477
242.030	14.582	871.563	658.554
243.045	14.616	870.444	657.783
244.059	14.700	870.110	657.803
245.074	14.529	869.818	656.853
246.088	14.643	868.955	656.590
247.103	14.645	868.577	656.255
248.117	14.736	867.846	656.003
249.132	14.772	867.301	655.672
250.147	14.716	867.022	655.185
251.161	14.820	865.939	654.716
252.176	14.829	865.376	654.269
253.190	14.837	864.729	653.753
254.205	14.754	864.544	653.231
255.220	14.960	863.616	653.275
256.234	14.979	862.930	652.773
257.249	14.978	862.181	652.146
258.263	14.945	861.740	651.623
259.278	15.101	861.380	651.900
260.293	14.975	861.095	651.139
261.307	15.045	860.599	650.980
262.322	15.054	859.643	650.233
263.336	14.985	859.374	649.702
264.351	15.011	858.657	649.204
265.366	15.098	857.682	648.748
266.380	15.155	857.319	648.635
267.395	15.174	856.482	648.018
268.409	15.149	855.950	647.464
269.424	15.180	855.151	646.918
270.439	15.089	854.678	646.153
271.453	15.087	854.166	645.703
272.468	15.188	852.819	645.016
273.482	15.109	852.673	644.543
274.497	15.075	852.240	644.028
275.512	15.105	851.140	643.255
276.526	15.284	850.476	643.382
277.541	15.220	849.984	642.709
278.555	15.320	849.284	642.507
279.570	15.240	848.706	641.705
280.585	15.310	848.228	641.555
281.599	15.400	847.502	641.293
282.614	15.375	847.223	640.929
283.628	15.328	846.657	640.268
284.643	15.345	846.161	639.901
285.657	15.255	845.532	639.023
286.672	15.445	844.964	639.261
287.687	15.278	844.476	638.200
288.701	15.373	843.908	638.075
289.716	15.413	843.451	637.825
290.730	15.428	843.056	637.528
291.745	15.528	842.016	637.064
292.760	15.468	841.614	636.475
293.774	15.454	841.019	635.918
294.789	15.705	840.348	636.304
295.803	15.532	839.888	635.243
296.818	15.523	839.062	634.531
297.833	15.338	838.944	633.684
298.847	15.427	838.050	633.291
299.862	15.531	837.366	633.108
300.876	15.503	836.406	632.222
301.891	15.540	836.058	632.044
302.906	15.587	835.484	631.730
303.920	15.588	834.732	631.110
304.935	15.657	834.227	630.930
305.949	15.831	833.357	630.867
306.964	15.859	832.805	630.499
307.979	15.794	832.361	629.864
308.993	15.620	832.124	628.979
310.008	15.647	831.548	628.589
311.022	15.658	831.133	628.261
312.037	15.857	830.232	628.264
313.052	15.850	829.672	627.760
314.066	15.691	829.541	627.013
315.081	15.656	828.859	626.312
316.095	15.844	827.631	626.025
317.110	15.816	827.361	625.663
318.125	15.790	826.872	625.140
319.139	15.993	826.249	625.369
320.154	15.851	825.986	624.586
321.168	15.818	825.550	624.078
322.183	15.857	824.709	623.534
323.197	15.923	824.280	623.397
324.212	15.880	823.711	622.752
325.227	15.898	823.221	622.396
326.241	15.869	822.817	621.926
327.256	15.960	822.310	621.824
328.270	15.896	821.652	621.036
329.285	15.973	821.189	620.916
330.300	15.924	820.471	620.138
331.314	15.842	820.280	619.636
332.329	15.833	819.625	619.052
333.343	15.897	818.990	618.754
334.358	16.136	818.335	619.080
335.373	15.897	818.009	617.901
336.387	16.094	817.497	618.186
337.402	16.359	816.194	618.114
338.416	16.010	816.102	616.712
339.431	16.151	815.520	616.734
340.446	16.220	814.849	616.423
341.460	16.082	814.657	615.720
342.475	16.188	814.093	615.625
343.489	16.337	813.628	615.765
344.504	16.333	812.994	615.213
345.519	16.330	812.273	614.604
346.533	16.397	812.002	614.588
347.548	16.419	811.575	614.289
348.562	16.381	810.988	613.655
349.577	16.278	810.455	612.822
350.592	16.428	809.952	612.932
351.606	16.314	809.214	611.905
352.621	16.335	808.938	611.718
353.635	16.370	808.173	611.215
354.650	16.376	807.866	610.948
355.665	16.353	807.659	610.656
356.679	16.217	807.732	610.165
357.694	16.391	806.894	610.105
358.708	16.433	806.212	609.688
359.723	16.532	805.537	609.480
360.738	16.663	804.679	609.248
361.752	16.426	804.799	608.432
362.767	16.495	804.884	608.691
363.781	16.554	804.039	608.210
364.796	16.470	803.595	607.519
365.810	16.596	802.969	607.446
366.825	16.629	802.460	607.123
367.840	16.619	802.381	606.973
368.854	16.702	801.814	606.789
369.869	16.761	801.442	606.664
370.883	16.689	800.853	605.907
371.898	16.599	800.243	605.070
372.913	16.799	799.652	605.284
373.927	16.766	799.106	604.700
374.942	16.818	798.578	604.433
375.956	16.741	797.700	603.440
376.971	16.881	797.105	603.436
377.986	16.911	796.825	603.278
379.000	16.956	796.225	602.930
380.015	16.992	795.770	602.658
381.029	16.846	795.383	601.793
382.044	16.868	795.093	601.601
383.059	16.901	794.591	601.283
384.073	16.950	794.196	601.105
385.088	16.991	793.570	600.723
386.102	16.944	792.687	599.835
387.117	16.998	791.821	599.319
388.132	16.964	791.865	599.178
389.146	16.933	791.582	598.801
390.161	16.892	791.361	598.437
391.175	17.010	790.737	598.329
392.190	17.085	789.952	597.945
393.205	17.177	789.588	597.941
394.219	17.074	789.115	597.167
395.234	17.104	788.951	597.095
396.248	16.981	788.457	596.236
397.263	16.925	787.995	595.640
398.278	17.053	787.168	595.409
399.292	17.061	786.664	595.004
400.307	17.054	786.546	594.838
401.321	16.967	786.479	594.429
402.336	16.977	786.048	594.085
403.350	17.115	785.352	593.991
404.365	17.230	784.929	594.018
405.380	17.158	784.308	593.247
406.394	17.160	784.136	593.068
407.409	17.221	783.616	592.836
408.423	17.353	783.090	592.847
409.438	17.345	782.680	592.457
410.453	17.462	782.408	592.604
411.467	17.412	781.969	592.047
412.482	17.358	781.394	591.369
413.496	17.469	780.957	591.372
414.511	17.376	780.766	590.853
415.526	17.490	780.132	590.716
416.540	17.357	780.107	590.183
417.555	17.503	779.463	590.152
418.569	17.364	779.200	589.419
419.584	17.631	778.129	589.479
420.599	17.560	777.732	588.880
421.613	107.307	1285.440	1455.725
422.628	91.701	1359.404	1455.823
