DTS Sentinel unit serial number:	SN413079Multiplexer serial number:	ORYXHardware model number:	OX4-SRSoftware version number:	ORYX F/W v4.00 Oryx Data Collector v3.7.2.0data status	okinstallation	princeton_trtdifferential loss correction	single-endedforward channel	channel 3reverse channel	N/Adate	2019/09/16time	16:08:35forward acquisition time	60.00reverse acquisition time	0.00gamma	496.2192k internal	0.2293k external	0.2293temperature offset calibration	0.9942default loss term (dB/km)	0.3790temperature slope calibration	1.0000multiplexer offset coefficient	1.0000multiplexer slope coefficient	1.0000fibre end	0.00T internal ref (°C)	40.81T ext. ref 1 (°C)	14.94T ext. ref 2 (°C)	35.00length (m)	temperature (°C)	Stokes	anti-Stokes-747.200	800.000	0.044	-0.164
-746.185	38.128	0.030	-0.027
-745.171	-141.653	0.325	0.033
-744.156	-200.000	-0.082	0.440
-743.142	-49.490	-0.329	0.160
-742.127	399.949	0.063	0.135
-741.112	-200.000	-0.015	0.197
-740.098	-151.005	0.281	-0.022
-739.083	211.117	-0.192	0.310
-738.069	-7.776	-0.288	0.199
-737.054	492.309	0.005	0.012
-736.039	-40.617	-0.295	-0.157
-735.025	-134.000	0.332	0.042
-734.010	45.120	0.094	0.088
-732.996	114.660	0.043	-0.053
-731.981	-200.000	-0.011	0.083
-730.966	800.000	-0.038	0.125
-729.952	72.257	-0.196	0.209
-728.937	55.975	0.263	-0.261
-727.923	-200.000	-0.069	-0.371
-726.908	166.069	-0.250	-0.361
-725.894	-33.243	0.132	0.075
-724.879	-178.665	-0.500	0.012
-723.864	-62.278	-0.188	-0.080
-722.850	-149.096	0.049	-0.004
-721.835	237.158	0.096	0.162
-720.821	19.225	-0.124	0.102
-719.806	19.354	0.320	-0.263
-718.791	-146.964	-0.190	-0.017
-717.777	-24.398	-0.302	0.184
-716.762	-39.509	0.184	0.099
-715.748	-145.248	0.151	0.014
-714.733	213.569	-0.051	0.083
-713.718	454.691	0.083	-0.189
-712.704	800.000	0.023	0.082
-711.689	604.663	-0.035	-0.090
-710.675	518.813	0.141	-0.337
-709.660	-200.000	-0.040	-0.270
-708.645	673.339	-0.113	0.298
-707.631	188.067	0.154	0.236
-706.616	-149.365	0.186	0.015
-705.602	-200.000	-0.034	0.199
-704.587	110.094	0.190	0.233
-703.572	-200.000	0.285	0.001
-702.558	460.784	-0.017	-0.038
-701.543	49.602	0.106	-0.102
-700.529	-104.550	-0.105	-0.025
-699.514	-109.750	0.319	0.068
-698.499	-172.880	0.402	0.013
-697.485	-163.614	-0.188	0.009
-696.470	-124.827	0.074	0.012
-695.456	69.851	0.145	0.152
-694.441	-97.713	0.224	0.059
-693.426	800.000	0.056	0.207
-692.412	-200.000	0.001	0.022
-691.397	-109.218	-0.307	0.067
-690.383	-200.000	0.002	-0.024
-689.368	353.545	-0.046	0.093
-688.354	37.345	-0.045	-0.041
-687.339	-47.784	0.231	0.114
-686.324	800.000	0.106	-0.371
-685.310	-39.443	-0.210	-0.112
-684.295	800.000	0.073	-0.309
-683.281	-200.000	-0.052	-0.377
-682.266	64.420	-0.414	-0.425
-681.251	64.218	0.037	0.038
-680.237	170.387	0.112	-0.164
-679.222	800.000	0.019	0.056
-678.208	-122.010	-0.045	-0.008
-677.193	-200.000	0.021	-0.144
-676.178	140.684	0.044	-0.059
-675.164	369.859	0.066	-0.137
-674.149	-200.000	0.021	0.286
-673.135	101.482	0.328	0.390
-672.120	-200.000	0.001	-0.247
-671.105	-30.265	0.007	0.004
-670.091	69.288	0.261	-0.274
-669.076	-69.325	-0.293	-0.115
-668.062	-103.306	-0.419	-0.101
-667.047	60.437	0.026	0.027
-666.032	-45.882	0.189	-0.095
-665.018	-61.859	0.039	0.017
-664.003	-185.978	-0.148	0.002
-662.989	89.245	0.155	0.177
-661.974	34.940	0.186	-0.166
-660.959	800.000	0.021	-0.072
-659.945	800.000	-0.019	-0.061
-658.930	-200.000	0.006	-0.067
-657.916	22.539	-0.105	0.087
-656.901	106.095	0.138	0.167
-655.886	1.352	0.188	-0.138
-654.872	-200.000	-0.041	-0.215
-653.857	38.436	0.203	0.185
-652.843	106.167	-0.159	-0.192
-651.828	-200.000	-0.004	0.090
-650.814	384.740	0.019	-0.039
-649.799	800.000	0.058	-0.166
-648.784	-39.535	0.258	-0.138
-647.770	1.234	0.062	-0.045
-646.755	138.228	-0.090	0.121
-645.741	95.409	0.063	-0.074
-644.726	-200.000	0.003	-0.086
-643.711	25.626	0.143	-0.121
-642.697	800.000	0.042	0.153
-641.682	-15.967	0.109	-0.071
-640.668	94.103	0.269	-0.311
-639.653	-200.000	-0.008	-0.219
-638.638	2.065	0.180	0.132
-637.624	12.017	0.143	-0.112
-636.609	-69.814	-0.162	-0.063
-635.595	-85.897	-0.066	-0.021
-634.580	8.992	0.164	-0.126
-633.565	175.249	-0.012	0.018
-632.551	-45.438	0.326	-0.164
-631.536	0.167	0.192	0.140
-630.522	-79.767	-0.136	-0.047
-629.507	101.367	-0.162	-0.192
-628.492	-68.178	0.142	0.056
-627.478	-200.000	-0.015	0.566
-626.463	331.033	0.050	0.098
-625.449	-200.000	-0.038	-0.232
-624.434	800.000	0.043	0.172
-623.419	150.483	0.145	-0.201
-622.405	83.868	-0.287	-0.319
-621.390	-200.000	0.023	-0.129
-620.376	-106.046	-0.062	0.014
-619.361	-200.000	-0.060	0.314
-618.346	-200.000	0.023	-0.172
-617.332	-17.190	-0.118	-0.076
-616.317	53.458	-0.036	-0.035
-615.303	70.452	-0.207	0.217
-614.288	-144.478	0.206	0.019
-613.273	349.513	-0.157	-0.316
-612.259	-200.000	0.023	0.235
-611.244	86.559	-0.257	0.288
-610.230	-168.197	0.195	0.008
-609.215	22.734	-0.173	-0.144
-608.201	-87.800	-0.066	-0.020
-607.186	-88.101	-0.180	-0.055
-606.171	-6.811	0.331	0.229
-605.157	122.567	-0.160	-0.204
-604.142	-200.000	0.009	-0.294
-603.128	-102.106	-0.142	0.035
-602.113	183.173	0.034	0.052
-601.098	47.845	-0.161	-0.153
-600.084	209.267	-0.164	-0.261
-599.069	-58.521	-0.187	0.083
-598.055	-110.067	0.271	0.058
-597.040	-200.000	0.021	0.138
-596.025	-19.779	-0.163	-0.102
-595.011	-94.079	0.108	-0.030
-593.996	800.000	-0.091	-0.286
-592.982	-80.712	-0.428	-0.145
-591.967	-90.286	-0.113	0.033
-590.952	-58.576	0.255	0.113
-589.938	-200.000	-0.035	0.381
-588.923	-69.878	-0.158	0.061
-587.909	-200.000	-0.040	-0.399
-586.894	-56.450	0.198	-0.089
-585.879	34.714	-0.154	-0.137
-584.865	-149.426	-0.305	-0.025
-583.850	340.525	0.100	-0.198
-582.836	-109.943	-0.242	0.052
-581.821	553.745	-0.109	-0.266
-580.806	50.873	-0.081	0.078
-579.792	-163.365	0.398	0.019
-578.777	229.574	-0.090	0.149
-577.763	-19.417	-0.192	0.121
-576.748	100.809	-0.131	0.155
-575.733	-77.379	0.253	-0.089
-574.719	-160.611	0.381	0.021
-573.704	-103.307	-0.115	-0.027
-572.690	-30.606	-0.336	-0.193
-571.675	-43.166	0.181	-0.093
-570.661	342.780	0.228	-0.454
-569.646	-200.000	-0.013	-0.230
-568.631	800.000	-0.044	-0.145
-567.617	800.000	-0.016	-0.069
-566.602	537.770	-0.065	-0.157
-565.588	-71.318	0.018	0.007
-564.573	-200.000	0.315	-0.000
-563.558	-200.000	-0.002	-0.115
-562.544	291.674	-0.207	0.382
-561.529	12.918	0.382	0.300
-560.515	-131.150	-0.262	0.035
-559.500	291.084	-0.120	-0.222
-558.485	-55.284	0.068	-0.031
-557.471	247.255	-0.079	0.136
-556.456	-200.000	-0.030	-0.187
-555.442	739.762	0.132	0.361
-554.427	-139.622	-0.311	0.034
-553.412	-124.994	0.156	0.024
-552.398	-73.887	0.310	0.114
-551.383	-93.141	-0.238	0.067
-550.369	-79.269	-0.146	0.050
-549.354	-92.098	-0.171	-0.049
-548.339	-184.982	0.334	-0.005
-547.325	-147.779	-0.107	-0.009
-546.310	800.000	0.036	0.160
-545.296	3.248	0.328	0.242
-544.281	800.000	-0.096	0.358
-543.266	-200.000	0.265	-0.001
-542.252	-166.123	-0.121	0.005
-541.237	-200.000	-0.001	-0.126
-540.223	768.857	0.083	0.230
-539.208	334.677	-0.181	-0.356
-538.193	152.864	-0.015	-0.020
-537.179	229.272	0.166	-0.274
-536.164	800.000	0.074	-0.250
-535.150	494.350	-0.071	-0.166
-534.135	252.162	-0.189	-0.327
-533.121	-56.717	-0.116	-0.052
-532.106	171.607	0.085	-0.123
-531.091	-200.000	0.001	-0.132
-530.077	-37.853	0.173	0.093
-529.062	-200.000	-0.024	0.220
-528.048	341.181	-0.075	0.148
-527.033	549.451	0.012	-0.028
-526.018	198.214	-0.117	-0.182
-525.004	376.222	-0.168	-0.348
-523.989	287.627	-0.110	0.201
-522.975	800.000	0.053	0.213
-521.960	-20.090	-0.150	0.094
-520.945	173.211	-0.203	-0.297
-519.931	-158.222	-0.100	-0.006
-518.916	800.000	-0.069	0.222
-517.902	-182.954	0.303	0.005
-516.887	201.822	-0.208	-0.325
-515.872	-113.597	-0.196	-0.039
-514.858	-200.000	-0.001	-0.265
-513.843	475.976	-0.093	0.214
-512.829	58.276	0.078	-0.077
-511.814	-112.868	0.033	0.007
-510.799	-200.000	0.012	0.206
-509.785	68.209	0.089	0.093
-508.770	-35.689	-0.228	0.125
-507.756	-63.986	0.302	-0.125
-506.741	-77.938	-0.123	-0.043
-505.726	-14.107	0.145	0.095
-504.712	800.000	0.058	0.213
-503.697	222.832	-0.066	0.108
-502.683	-140.044	-0.253	0.027
-501.668	309.069	0.105	-0.199
-500.653	-200.000	0.046	-0.234
-499.639	104.663	-0.181	0.217
-498.624	370.047	0.058	-0.120
-497.610	800.000	0.102	0.305
-496.595	-80.080	-0.268	0.091
-495.581	-28.909	-0.145	0.084
-494.566	523.426	0.049	-0.116
-493.551	-48.035	0.393	0.193
-492.537	113.112	-0.235	0.288
-491.522	800.000	-0.074	0.283
-490.508	553.281	-0.102	-0.248
-489.493	-200.000	-0.035	0.304
-488.478	21.161	0.186	-0.153
-487.464	-75.153	-0.244	-0.089
-486.449	3.904	0.007	0.005
-485.435	-107.807	0.175	-0.039
-484.420	-102.940	0.140	-0.034
-483.405	207.362	0.162	-0.256
-482.391	-134.882	0.178	0.022
-481.376	-58.043	0.102	-0.045
-480.362	55.653	0.071	-0.070
-479.347	800.000	0.064	-0.213
-478.332	195.542	-0.105	0.162
-477.318	-16.573	-0.141	-0.091
-476.303	-200.000	0.029	-0.654
-475.289	-200.000	0.008	-0.454
-474.274	-200.000	0.075	0.339
-473.259	13.635	0.149	-0.117
-472.245	741.127	-0.158	0.430
-471.230	188.093	0.136	0.205
-470.216	-65.394	-0.113	0.046
-469.201	-200.000	0.006	0.154
-468.186	-200.000	0.002	-0.192
-467.172	-55.026	-0.108	0.049
-466.157	-43.543	0.470	0.240
-465.143	-160.780	0.288	0.015
-464.128	-129.953	-0.378	-0.052
-463.113	52.781	-0.219	0.212
-462.099	-28.631	-0.177	-0.103
-461.084	-134.042	0.371	-0.046
-460.070	-125.001	-0.117	-0.018
-459.055	206.137	-0.192	-0.302
-458.040	194.499	0.103	0.157
-457.026	-54.370	0.209	-0.096
-456.011	-135.218	-0.032	-0.004
-454.997	305.038	0.118	0.222
-453.982	362.673	0.056	-0.114
-452.968	234.283	0.257	-0.428
-451.953	800.000	-0.054	-0.210
-450.938	-40.690	0.224	0.117
-449.924	800.000	0.049	-0.153
-448.909	144.344	-0.200	0.270
-447.895	800.000	-0.053	0.184
-446.880	85.170	0.198	0.220
-445.865	-200.000	0.013	0.090
-444.851	-86.051	-0.565	-0.176
-443.836	-47.462	-0.363	0.178
-442.822	-200.000	-0.041	-0.209
-441.807	433.567	0.158	0.346
-440.792	-200.000	0.023	0.408
-439.778	305.946	0.091	-0.171
-438.763	-81.043	-0.447	0.150
-437.749	-106.886	0.223	0.050
-436.734	800.000	-0.059	-0.230
-435.719	416.195	0.108	0.233
-434.705	162.124	0.081	0.115
-433.690	-200.000	0.034	0.176
-432.676	800.000	-0.045	-0.168
-431.661	322.814	-0.012	0.022
-430.646	-53.683	-0.099	0.046
-429.632	-87.871	0.115	-0.035
-428.617	-200.000	0.010	0.116
-427.603	-141.843	0.112	-0.011
-426.588	142.909	-0.048	-0.065
-425.573	-17.616	-0.282	0.179
-424.559	0.077	0.040	-0.029
-423.544	-6.625	-0.141	-0.097
-422.530	-36.890	0.283	-0.153
-421.515	413.741	-0.072	-0.154
-420.500	-106.286	-0.012	0.003
-419.486	-200.000	0.003	0.080
-418.471	623.966	-0.078	-0.197
-417.457	-52.942	0.292	-0.136
-416.442	-74.384	0.070	-0.025
-415.428	-200.000	0.008	-0.176
-414.413	203.571	0.077	0.120
-413.398	-69.992	0.095	-0.037
-412.384	800.000	0.026	0.089
-411.369	49.582	-0.215	0.205
-410.355	568.017	-0.041	0.101
-409.340	126.780	-0.148	0.189
-408.325	466.459	0.135	0.306
-407.311	800.000	0.050	-0.183
-406.296	63.507	0.067	0.068
-405.282	-162.255	-0.307	-0.015
-404.267	-200.000	-0.011	-0.134
-403.252	-200.000	-0.009	-0.098
-402.238	-133.472	-0.500	-0.063
-401.223	800.000	0.028	-0.113
-400.209	-169.047	0.099	-0.004
-399.194	800.000	-0.123	0.536
-398.179	545.235	0.072	-0.173
-397.165	-184.378	0.125	0.002
-396.150	800.000	-0.065	0.191
-395.136	499.299	0.088	0.205
-394.121	800.000	0.080	0.242
-393.106	800.000	0.034	0.101
-392.092	800.000	0.111	-0.461
-391.077	170.638	-0.092	0.133
-390.063	5.130	-0.078	0.058
-389.048	30.696	-0.114	-0.098
-388.033	-40.842	-0.334	0.174
-387.019	-153.888	0.295	-0.020
-386.004	-5.320	-0.134	-0.093
-384.990	255.872	-0.098	0.170
-383.975	-149.141	-0.209	-0.017
-382.960	-74.086	0.068	-0.025
-381.946	800.000	-0.049	0.217
-380.931	8.927	0.192	0.146
-379.917	443.519	0.070	-0.154
-378.902	-95.875	-0.038	-0.010
-377.888	800.000	0.040	0.177
-376.873	6.562	-0.244	0.183
-375.858	-80.928	0.099	0.033
-374.844	800.000	-0.015	0.052
-373.829	-137.990	0.127	0.014
-372.815	163.408	-0.141	0.200
-371.800	800.000	0.073	-0.309
-370.785	-119.214	-0.154	0.027
-369.771	-11.381	0.067	-0.044
-368.756	72.566	-0.208	-0.219
-367.742	39.503	-0.268	-0.242
-366.727	800.000	-0.071	-0.219
-365.712	24.979	0.139	-0.116
-364.698	-32.671	0.242	0.136
-363.683	-130.553	-0.172	0.023
-362.669	615.706	0.082	-0.208
-361.654	-72.432	0.207	-0.077
-360.639	-200.000	0.068	0.489
-359.625	800.000	0.071	-0.265
-358.610	-89.811	0.307	-0.091
-357.596	800.000	-0.083	0.244
-356.581	161.963	-0.239	0.338
-355.566	-200.000	-0.055	-0.314
-354.552	-132.357	0.031	-0.004
-353.537	34.410	-0.122	0.107
-352.523	-200.000	-0.044	0.292
-351.508	800.000	0.096	-0.419
-350.493	28.693	0.007	-0.006
-349.479	-121.063	-0.200	-0.034
-348.464	-103.673	-0.300	-0.071
-347.450	-33.411	0.108	0.060
-346.435	70.157	0.207	-0.215
-345.420	-200.000	-0.030	-0.327
-344.406	-200.000	0.013	-0.160
-343.391	-200.000	-0.035	0.202
-342.377	-75.700	-0.293	-0.105
-341.362	-70.135	0.324	-0.124
-340.348	1.232	0.303	0.219
-339.333	-119.278	0.096	-0.017
-338.318	-32.585	0.240	0.135
-337.304	-102.158	0.280	0.068
-336.289	-88.860	-0.016	0.005
-335.275	-200.000	-0.012	0.378
-334.260	196.823	0.104	-0.159
-333.245	800.000	-0.026	0.080
-332.231	77.681	0.110	0.118
-331.216	-72.438	0.342	-0.127
-330.202	800.000	0.028	0.089
-329.187	86.475	-0.142	-0.157
-328.172	-96.730	-0.179	-0.047
-327.158	-200.000	-0.004	0.228
-326.143	-60.572	0.150	0.064
-325.129	-69.265	0.184	0.071
-324.114	-150.467	-0.117	-0.009
-323.099	48.762	-0.241	0.228
-322.085	62.195	0.099	0.099
-321.070	-47.943	-0.125	-0.061
-320.056	-92.043	0.257	-0.073
-319.041	357.574	-0.154	-0.310
-318.026	-200.000	0.002	-0.134
-317.012	307.724	-0.100	-0.187
-315.997	-51.670	0.239	0.112
-314.983	-88.898	0.096	0.029
-313.968	-200.000	0.002	-0.361
-312.953	-200.000	0.022	0.288
-311.939	-17.535	0.070	-0.044
-310.924	174.367	-0.166	0.241
-309.910	18.839	-0.069	-0.055
-308.895	-184.379	-0.153	-0.003
-307.880	23.953	-0.218	-0.181
-306.866	-90.105	0.146	-0.043
-305.851	60.956	0.080	-0.080
-304.837	-26.903	-0.189	0.111
-303.822	53.010	-0.153	-0.147
-302.807	359.310	0.111	-0.223
-301.793	63.412	-0.158	-0.159
-300.778	104.969	-0.069	-0.081
-299.764	26.853	-0.124	-0.105
-298.749	134.787	-0.192	-0.250
-297.735	-68.863	0.235	-0.091
-296.720	-113.901	-0.361	0.071
-295.705	48.188	0.235	0.221
-294.691	498.389	-0.155	0.360
-293.676	120.752	0.031	0.038
-292.662	-18.752	0.393	0.246
-291.647	43.578	-0.223	0.205
-290.632	353.693	0.068	0.135
-289.618	-54.263	0.253	0.115
-288.603	800.000	0.077	-0.281
-287.589	-94.754	0.338	-0.092
-286.574	-6.127	-0.181	0.124
-285.559	800.000	0.107	-0.333
-284.545	-176.348	-0.369	-0.010
-283.530	-200.000	-0.007	0.230
-282.516	-137.706	0.224	0.025
-281.501	-161.484	-0.072	-0.004
-280.486	-200.000	0.030	0.256
-279.472	-99.015	0.207	0.053
-278.457	228.670	-0.262	0.428
-277.443	29.027	0.221	0.188
-276.428	-200.000	0.011	-0.086
-275.413	144.615	-0.034	-0.045
-274.399	-97.045	-0.226	0.060
-273.384	-78.159	-0.429	0.148
-272.370	-105.424	0.213	-0.049
-271.355	-9.123	0.229	0.154
-270.340	-200.000	0.023	-0.137
-269.326	-200.000	-0.046	-0.268
-268.311	-13.584	-0.101	0.066
-267.297	800.000	-0.108	0.317
-266.282	800.000	-0.118	-0.383
-265.267	686.997	-0.055	0.144
-264.253	710.721	0.061	-0.163
-263.238	229.510	0.154	-0.252
-262.224	239.538	-0.148	-0.247
-261.209	-45.906	-0.215	0.106
-260.195	19.689	-0.294	0.238
-259.180	-181.658	0.122	0.002
-258.165	113.533	0.123	0.150
-257.151	-47.618	-0.056	-0.027
-256.136	45.562	-0.065	0.060
-255.122	9.615	-0.243	0.184
-254.107	272.252	-0.158	0.280
-253.092	-13.999	-0.164	-0.106
-252.078	37.036	0.275	0.244
-251.063	-200.000	-0.021	-0.100
-250.049	-109.726	0.284	0.060
-249.034	-93.681	-0.213	-0.059
-248.019	-65.625	-0.073	0.029
-247.005	-123.681	0.073	-0.012
-245.990	-47.712	-0.045	-0.022
-244.976	-13.601	-0.256	0.166
-243.961	-200.000	0.038	0.260
-242.946	-165.098	-0.007	-0.000
-241.932	-33.977	0.205	-0.113
-240.917	800.000	0.032	0.099
-239.903	-93.721	0.192	0.053
-238.888	-200.000	-0.009	0.066
-237.873	-15.839	-0.214	0.137
-236.859	53.769	0.045	-0.043
-235.844	-200.000	0.004	0.128
-234.830	73.775	-0.162	0.170
-233.815	65.037	0.034	-0.034
-232.800	7.442	-0.204	0.153
-231.786	-27.238	0.178	-0.104
-230.771	47.355	0.046	0.043
-229.757	-200.000	0.007	0.171
-228.742	-200.000	0.003	0.058
-227.727	7.764	0.107	-0.081
-226.713	41.574	-0.122	-0.111
-225.698	-23.716	0.492	0.296
-224.684	264.063	-0.118	0.205
-223.669	115.896	0.029	0.035
-222.655	-63.371	-0.066	-0.027
-221.640	-42.429	-0.040	0.020
-220.625	800.000	0.045	0.149
-219.611	601.119	0.051	0.127
-218.596	105.189	0.254	-0.300
-217.582	-32.341	0.210	-0.117
-216.567	-35.600	-0.073	-0.040
-215.552	679.466	0.134	-0.348
-214.538	291.317	-0.086	0.157
-213.523	-200.000	-0.044	-0.227
-212.509	800.000	0.078	0.218
-211.494	-200.000	-0.015	-0.323
-210.479	-106.785	-0.139	0.031
-209.465	-200.000	0.039	0.173
-208.450	327.614	-0.022	0.043
-207.436	-200.000	0.029	0.151
-206.421	-179.320	-0.334	0.007
-205.406	-200.000	0.027	-0.135
-204.392	72.384	0.064	-0.067
-203.377	716.782	0.108	-0.288
-202.363	-145.236	0.015	-0.001
-201.348	-200.000	-0.022	0.189
-200.333	487.263	-0.051	0.116
-199.319	800.000	-0.079	0.241
-198.304	-200.000	0.008	-0.083
-197.290	-200.000	0.002	0.128
-196.275	134.173	0.178	-0.230
-195.260	-29.613	-0.194	-0.111
-194.246	98.125	-0.157	0.181
-193.231	44.562	-0.149	-0.137
-192.217	210.755	-0.104	0.164
-191.202	105.156	-0.033	0.039
-190.187	67.140	-0.144	0.147
-189.173	369.766	0.076	0.154
-188.158	321.996	-0.108	-0.206
-187.144	79.523	0.040	0.043
-186.129	261.294	0.044	-0.077
-185.114	-77.707	-0.111	-0.038
-184.100	95.114	0.160	0.182
-183.085	-42.889	0.312	0.159
-182.071	-54.591	-0.290	0.131
-181.056	168.115	0.086	0.123
-180.042	-80.991	0.148	0.049
-179.027	-128.958	0.618	-0.087
-178.012	-37.756	0.182	-0.097
-176.998	-32.733	0.304	-0.169
-175.983	-166.858	0.318	-0.013
-174.969	800.000	0.064	0.278
-173.954	-88.997	-0.256	-0.076
-172.939	216.249	0.172	-0.274
-171.925	51.734	-0.286	-0.272
-170.910	277.391	-0.187	-0.333
-169.896	-200.000	0.008	0.088
-168.881	-14.938	-0.199	0.128
-167.866	-147.810	0.432	-0.036
-166.852	-77.822	0.028	-0.010
-165.837	102.481	0.111	0.130
-164.823	-6.795	0.431	-0.293
-163.808	-20.738	-0.174	0.107
-162.793	27.034	-0.185	-0.155
-161.779	-175.240	0.361	-0.010
-160.764	-200.000	0.011	-0.103
-159.750	800.000	-0.054	-0.210
-158.735	-200.000	0.012	-0.105
-157.720	-109.426	-0.118	0.025
-156.706	-41.131	-0.087	-0.045
-155.691	-102.135	0.167	-0.040
-154.677	56.050	0.040	-0.039
-153.662	-145.972	-0.237	-0.021
-152.647	-200.000	0.000	0.016
-151.633	36.086	0.064	0.056
-150.618	53.164	0.003	0.003
-149.604	-17.325	0.298	0.187
-148.589	-122.262	-0.128	0.021
-147.574	-59.720	0.228	0.098
-146.560	-200.000	-0.029	-0.211
-145.545	128.590	0.210	0.267
-144.531	14.070	-0.275	0.214
-143.516	-200.000	0.017	0.365
-142.502	-103.130	0.259	-0.061
-141.487	-138.804	0.474	0.052
-140.472	-134.704	-0.403	-0.049
-139.458	-22.593	-0.182	0.110
-138.443	-200.000	-0.005	0.078
-137.429	-85.685	-0.159	0.049
-136.414	-200.000	-0.005	0.227
-135.399	96.903	0.271	0.310
-134.385	-200.000	0.061	0.405
-133.370	-79.279	0.148	0.050
-132.356	179.135	-0.084	-0.123
-131.341	318.286	-0.042	-0.079
-130.326	24.073	0.055	-0.045
-129.312	15.615	0.121	-0.095
-128.297	266.874	0.047	-0.082
-127.283	259.579	0.167	-0.287
-126.268	103.187	0.050	0.058
-125.253	-128.310	0.361	-0.051
-124.239	406.293	-0.044	0.093
-123.224	-30.509	0.171	-0.097
-122.210	80.662	0.103	0.111
-121.195	-141.514	0.177	-0.018
-120.180	-30.472	-0.259	0.147
-119.166	-171.458	0.397	0.013
-118.151	-28.045	0.307	-0.177
-117.137	-82.343	0.373	-0.121
-116.122	88.744	0.154	0.171
-115.107	53.651	0.267	-0.256
-114.093	-63.275	-0.458	-0.188
-113.078	-2.871	-0.198	0.138
-112.064	-39.100	0.262	-0.138
-111.049	-124.578	0.095	0.015
-110.034	159.561	0.232	0.322
-109.020	-200.000	-0.017	0.161
-108.005	-99.794	0.208	0.052
-106.991	95.132	0.179	0.204
-105.976	482.289	0.096	0.217
-104.962	128.671	-0.237	-0.302
-103.947	-87.612	0.228	0.069
-102.932	-3.249	-0.164	0.114
-101.918	800.000	0.109	-0.426
-100.903	-200.000	-0.004	0.067
-99.889	47.075	-0.075	-0.069
-98.874	-200.000	0.030	-0.193
-97.859	800.000	0.109	0.315
-96.845	-69.782	0.094	-0.036
-95.830	-80.075	0.171	0.057
-94.816	-200.000	0.021	-0.175
-93.801	-40.420	-0.183	-0.095
-92.786	67.060	0.368	0.374
-91.772	800.000	0.031	0.118
-90.757	38.255	-0.119	-0.106
-89.743	-138.927	-0.066	0.007
-88.728	-200.000	-0.013	0.108
-87.713	-200.000	0.025	-0.253
-86.699	-61.859	0.004	-0.001
-85.684	-200.000	0.001	0.177
-84.670	-122.119	-0.353	0.058
-83.655	56.237	-0.042	0.041
-82.640	65.506	-0.162	0.163
-81.626	754.658	0.142	-0.383
-80.611	-10.625	-0.408	-0.269
-79.597	-200.000	0.005	-0.044
-78.582	-46.368	-0.427	-0.209
-77.567	-32.754	0.309	-0.171
-76.553	-98.751	-0.034	-0.009
-75.538	-124.299	-0.270	0.042
-74.524	-50.065	-0.394	0.186
-73.509	135.162	-0.114	-0.147
-72.494	68.607	-0.047	0.048
-71.480	165.463	0.034	-0.048
-70.465	-104.098	0.211	0.049
-69.451	112.494	0.086	-0.104
-68.436	-53.475	0.070	0.032
-67.422	311.517	0.157	0.293
-66.407	-162.016	0.266	0.013
-65.392	72.041	-0.060	0.063
-64.378	95.610	0.167	-0.190
-63.363	-19.681	0.175	0.108
-62.349	111.526	-0.314	0.377
-61.334	169.297	-0.498	-0.709
-60.319	272.372	0.343	0.603
-59.305	-200.000	0.006	-0.791
-58.290	149.337	0.526	0.709
-57.276	766.677	0.592	1.604
-56.261	-200.000	77.247	525.453
-55.246	540.042	1307.245	3099.076
-54.232	150.686	2531.001	3425.293
-53.217	116.588	2240.397	2736.704
-52.203	51.380	1769.593	1673.610
-51.188	44.153	1568.758	1432.833
-50.173	41.528	1538.481	1386.915
-49.159	57.560	1576.275	1533.805
-48.144	63.292	1595.629	1592.778
-47.130	44.813	1558.345	1427.720
-46.115	41.095	1543.982	1388.628
-45.100	40.919	1540.598	1384.304
-44.086	40.828	1539.165	1382.328
-43.071	40.823	1536.355	1379.719
-42.057	40.761	1534.745	1377.787
-41.042	40.773	1532.929	1376.183
-40.027	40.822	1531.493	1375.181
-39.013	40.768	1530.053	1373.460
-37.998	40.841	1528.351	1372.381
-36.984	40.768	1527.690	1371.229
-35.969	40.892	1525.928	1370.445
-34.954	40.857	1524.725	1369.073
-33.940	40.836	1523.096	1367.411
-32.925	40.760	1521.915	1365.771
-31.911	40.785	1520.235	1364.380
-30.896	40.860	1518.864	1363.610
-29.881	41.039	1517.056	1363.160
-28.867	40.842	1516.230	1361.020
-27.852	40.897	1514.779	1360.039
-26.838	40.928	1513.346	1358.911
-25.823	40.906	1511.344	1356.909
-24.809	40.810	1509.984	1354.978
-23.794	40.780	1509.076	1353.906
-22.779	40.809	1507.669	1352.785
-21.765	40.829	1506.767	1352.057
-20.750	40.874	1505.601	1351.264
-19.736	40.859	1504.424	1350.056
-18.721	40.866	1503.449	1349.173
-17.706	40.813	1502.234	1347.666
-16.692	40.741	1501.088	1346.096
-15.677	40.858	1499.294	1345.231
-14.663	40.857	1498.548	1344.501
-13.648	40.810	1497.475	1343.164
-12.633	40.749	1496.299	1341.641
-11.619	40.716	1495.877	1340.991
-10.604	40.813	1494.812	1340.639
-9.590	40.788	1493.794	1339.499
-8.575	40.740	1493.258	1338.643
-7.560	40.713	1492.605	1337.825
-6.546	40.743	1491.396	1336.889
-5.531	40.717	1490.504	1335.862
-4.517	40.753	1489.683	1335.314
-3.502	40.743	1488.691	1334.306
-2.487	40.786	1487.793	1333.739
-1.473	40.855	1486.129	1332.656
-0.458	40.737	1485.093	1330.880
0.556	38.885	1475.491	1319.501
1.571	35.528	1447.192	1271.892
2.586	31.030	1383.298	1187.075
3.600	28.617	1298.220	1099.528
4.615	26.679	1249.494	1046.979
5.629	24.678	1196.534	991.427
6.644	20.010	1116.197	900.570
7.659	15.877	1075.037	846.543
8.673	15.099	1069.636	838.320
9.688	15.022	1066.533	835.431
10.702	14.785	1065.518	833.382
11.717	14.865	1063.599	832.202
12.731	16.510	1065.334	841.682
13.746	20.518	1069.972	865.270
14.761	20.971	1069.339	866.935
15.775	18.473	1064.664	850.685
16.790	16.890	1062.168	840.770
17.804	15.808	1059.601	833.310
18.819	14.834	1057.542	826.797
19.834	14.261	1056.143	822.800
20.848	13.910	1054.891	820.018
21.863	13.579	1054.264	817.824
22.877	13.416	1053.330	816.227
23.892	13.303	1052.280	814.782
24.907	13.243	1051.414	813.743
25.921	13.170	1051.447	813.339
26.936	13.261	1050.193	812.745
27.950	13.201	1048.920	811.395
28.965	13.227	1047.829	810.602
29.980	13.386	1046.745	810.473
30.994	13.480	1045.331	809.767
32.009	13.447	1044.827	809.143
33.023	13.342	1043.931	807.865
34.038	13.166	1043.878	806.892
35.053	13.414	1042.331	806.834
36.067	13.305	1041.617	805.681
37.082	13.248	1040.444	804.422
38.096	13.397	1039.453	804.311
39.111	13.423	1039.018	804.029
40.126	13.355	1038.427	803.169
41.140	13.311	1037.004	801.787
42.155	13.329	1035.877	800.932
43.169	13.036	1034.966	798.740
44.184	13.134	1033.766	798.215
45.199	13.033	1032.869	796.964
46.213	13.226	1031.506	796.774
47.228	13.174	1030.759	795.876
48.242	13.158	1030.459	795.496
49.257	13.251	1029.064	794.796
50.271	13.251	1028.283	794.122
51.286	13.234	1027.114	793.067
52.301	13.326	1026.397	792.883
53.315	13.343	1025.425	792.143
54.330	13.351	1024.520	791.412
55.344	13.314	1023.357	790.268
56.359	13.210	1022.823	789.289
57.374	13.183	1022.170	788.586
58.388	13.201	1020.894	787.619
59.403	13.079	1020.467	786.639
60.417	13.096	1019.533	785.930
61.432	13.132	1018.542	785.266
62.447	13.148	1017.911	784.789
63.461	13.140	1017.154	784.096
64.476	13.139	1015.902	783.055
65.490	13.049	1015.005	781.870
66.505	12.924	1014.997	781.203
67.520	13.107	1013.846	781.112
68.534	13.070	1013.299	780.450
69.549	13.185	1012.332	780.177
70.563	13.087	1011.586	779.073
71.578	13.190	1010.699	778.804
72.593	13.079	1010.141	777.784
73.607	13.094	1009.188	777.049
74.622	13.139	1008.202	776.435
75.636	13.079	1007.225	775.332
76.651	13.098	1006.347	774.675
77.666	12.969	1005.970	773.710
78.680	12.975	1005.335	773.181
79.695	13.075	1004.459	772.909
80.709	13.091	1003.523	772.195
81.724	13.064	1002.985	771.585
82.739	13.125	1002.626	771.528
83.753	13.198	1001.538	770.963
84.768	13.187	1000.618	770.136
85.782	13.266	1000.074	770.015
86.797	13.420	998.989	769.830
87.812	13.482	997.785	769.121
88.826	13.221	997.785	767.841
89.841	13.224	996.996	767.177
90.855	13.314	995.998	766.759
91.870	13.264	995.316	765.936
92.884	13.305	994.234	765.224
93.899	13.267	993.974	764.781
94.914	13.408	992.874	764.519
95.928	13.375	992.321	763.872
96.943	13.391	991.709	763.406
97.957	13.495	990.938	763.226
98.972	13.472	990.135	762.436
99.987	13.284	989.569	761.066
101.001	13.521	988.171	761.014
102.016	13.383	987.522	759.815
103.030	13.306	986.783	758.825
104.045	13.285	986.138	758.163
105.060	13.298	984.679	757.035
106.074	13.233	983.967	756.123
107.089	13.359	982.496	755.503
108.103	13.195	982.287	754.525
109.118	13.106	981.364	753.341
110.133	13.211	980.293	752.932
111.147	13.176	979.564	752.146
112.162	13.043	978.858	750.931
113.176	13.146	977.935	750.628
114.191	13.156	977.254	750.083
115.206	13.282	976.396	749.932
116.220	13.242	975.166	748.738
117.235	13.303	974.542	748.468
118.249	13.248	973.673	747.486
119.264	13.183	972.863	746.506
120.279	13.243	972.190	746.194
121.293	13.235	971.295	745.406
122.308	13.068	970.862	744.251
123.322	13.178	969.597	743.713
124.337	13.140	968.689	742.779
125.352	13.145	967.760	742.025
126.366	13.086	966.449	740.689
127.381	13.037	965.840	739.937
128.395	13.099	964.463	739.095
129.410	13.109	963.653	738.453
130.424	13.096	962.486	737.436
131.439	13.222	961.513	737.187
132.454	13.167	961.088	736.548
133.468	13.175	960.490	736.063
134.483	13.288	960.037	736.151
135.497	13.284	959.228	735.451
136.512	13.350	958.255	734.933
137.527	13.383	957.630	734.535
138.541	13.250	957.285	733.615
139.556	13.333	956.247	733.120
140.570	13.460	955.113	732.748
141.585	13.317	954.772	731.787
142.600	13.323	954.163	731.284
143.614	13.574	952.731	731.229
144.629	13.516	952.418	730.671
145.643	13.587	951.532	730.237
146.658	13.374	950.751	728.637
147.673	13.397	949.802	727.944
148.687	13.407	948.624	727.022
149.702	13.323	948.100	726.187
150.716	13.318	947.018	725.274
151.731	13.318	946.124	724.523
152.746	13.382	945.343	724.141
153.760	13.396	944.455	723.459
154.775	13.398	943.894	722.974
155.789	13.338	943.297	722.190
156.804	13.323	942.521	721.466
157.819	13.472	941.486	721.262
158.833	13.526	940.877	720.965
159.848	13.528	940.238	720.421
160.862	13.519	939.816	719.994
161.877	13.495	939.263	719.403
162.892	13.537	938.100	718.631
163.906	13.338	937.600	717.321
164.921	13.279	936.708	716.319
165.935	13.449	935.573	716.124
166.950	13.408	934.849	715.328
167.964	13.474	933.612	714.606
168.979	13.550	932.425	713.961
169.994	13.545	931.697	713.317
171.008	13.390	930.932	712.003
172.023	13.369	930.896	711.819
173.037	13.497	929.807	711.476
174.052	13.424	929.192	710.627
175.067	13.574	928.378	710.588
176.081	13.453	927.689	709.479
177.096	13.474	926.947	708.938
178.110	13.570	925.828	708.429
179.125	13.467	925.137	707.400
180.140	13.412	924.453	706.576
181.154	13.535	923.801	706.540
182.169	13.623	923.060	706.286
183.183	13.674	922.626	706.109
184.198	13.629	921.698	705.147
185.213	13.759	920.863	704.995
186.227	13.653	920.216	703.987
187.242	13.730	919.923	704.028
188.256	13.811	919.250	703.795
189.271	13.771	918.315	702.849
190.286	13.815	917.781	702.565
191.300	13.713	916.493	701.085
192.315	13.552	916.561	700.394
193.329	13.566	915.498	699.580
194.344	13.463	914.996	698.698
195.359	13.581	914.210	698.533
196.373	13.525	913.914	698.010
197.388	13.680	913.348	698.168
198.402	13.966	912.519	698.676
199.417	13.807	912.343	697.812
200.432	13.920	911.733	697.757
201.446	13.899	911.249	697.236
202.461	13.964	910.885	697.168
203.475	14.046	910.048	696.812
204.490	13.855	910.177	696.047
205.504	13.976	908.839	695.468
206.519	13.834	908.171	694.302
207.534	13.978	906.967	693.920
208.548	13.920	906.216	693.043
209.563	14.019	905.614	692.935
210.577	13.786	905.398	691.736
211.592	13.936	904.861	691.891
212.607	13.972	904.252	691.513
213.621	14.158	903.416	691.584
214.636	14.125	902.816	690.929
215.650	14.040	902.541	690.303
216.665	14.024	901.660	689.502
217.680	14.144	901.235	689.613
218.694	14.193	901.020	689.591
219.709	14.231	900.331	689.159
220.723	14.177	899.568	688.293
221.738	14.235	898.745	687.842
222.753	14.100	898.151	686.770
223.767	14.208	897.159	686.394
224.782	14.204	896.796	686.040
225.796	14.168	895.944	685.179
226.811	14.456	894.970	685.560
227.826	14.313	894.689	684.695
228.840	14.347	893.875	684.152
229.855	14.339	893.029	683.410
230.869	14.207	892.833	682.658
231.884	14.356	892.012	682.581
232.899	14.331	891.239	681.825
233.913	14.260	890.608	680.992
234.928	14.247	889.594	680.104
235.942	14.358	888.813	679.897
236.957	14.240	888.335	678.994
237.972	14.203	887.627	678.241
238.986	14.210	887.004	677.731
240.001	14.467	886.009	677.956
241.015	14.299	885.824	677.073
242.030	14.238	885.363	676.414
243.045	14.548	884.149	676.684
244.059	14.353	884.069	675.773
245.074	14.352	883.238	675.072
246.088	14.395	882.588	674.689
247.103	14.571	881.922	674.832
248.117	14.484	881.344	673.979
249.132	14.462	881.297	673.794
250.147	14.653	880.268	673.721
251.161	14.665	879.497	673.120
252.176	14.779	878.818	673.000
253.190	14.670	878.185	672.017
254.205	14.745	878.029	672.138
255.220	14.896	877.064	671.946
256.234	14.860	876.185	671.069
257.249	14.852	875.851	670.724
258.263	14.875	875.506	670.491
259.278	14.827	875.031	669.875
260.293	14.797	874.534	669.315
261.307	14.879	873.928	669.120
262.322	14.959	873.380	668.962
263.336	14.882	872.517	667.933
264.351	14.976	872.072	667.912
265.366	15.078	871.458	667.788
266.380	15.006	870.474	666.688
267.395	14.907	870.135	665.975
268.409	15.054	868.981	665.617
269.424	14.985	868.393	664.835
270.439	14.973	867.595	664.115
271.453	14.994	867.048	663.722
272.468	14.841	866.389	662.554
273.482	14.885	866.320	662.614
274.497	15.010	865.264	662.246
275.512	15.003	864.331	661.443
276.526	15.015	863.534	660.821
277.541	14.897	863.362	660.165
278.555	15.193	862.523	660.635
279.570	15.024	861.920	659.447
280.585	15.275	861.323	659.919
281.599	15.245	860.988	659.486
282.614	15.041	860.632	658.352
283.628	15.208	859.493	658.081
284.643	15.162	859.360	657.740
285.657	15.124	858.818	657.119
286.672	15.194	858.088	656.776
287.687	15.283	857.825	656.866
288.701	15.144	857.545	656.047
289.716	15.245	856.114	655.292
290.730	15.223	856.076	655.118
291.745	15.220	855.587	654.673
292.760	15.248	854.606	653.972
293.774	15.405	853.800	653.911
294.789	15.405	853.354	653.510
295.803	15.369	853.058	653.087
296.818	15.356	852.211	652.331
297.833	15.298	851.682	651.643
298.847	15.367	850.843	651.209
299.862	15.342	850.219	650.580
300.876	15.430	849.250	650.119
301.891	15.484	848.451	649.659
302.906	15.547	848.153	649.616
303.920	15.528	847.341	648.865
304.935	15.616	846.972	648.865
305.949	15.526	846.629	648.195
306.964	15.613	845.784	647.828
307.979	15.603	845.477	647.499
308.993	15.563	844.753	646.730
310.008	15.620	844.169	646.446
311.022	15.580	843.810	645.962
312.037	15.677	842.906	645.583
313.052	15.667	842.757	645.376
314.066	15.735	841.718	644.782
315.081	15.349	841.700	643.230
316.095	15.575	840.533	643.150
317.110	15.522	840.398	642.783
318.125	15.693	839.768	642.901
319.139	15.653	839.485	642.472
320.154	15.628	838.843	641.829
321.168	15.673	838.328	641.552
322.183	15.713	837.491	641.006
323.197	15.676	837.150	640.546
324.212	15.733	836.243	640.015
325.227	15.764	835.671	639.638
326.241	15.713	835.414	639.191
327.256	15.638	835.453	638.876
328.270	15.570	834.929	638.162
329.285	15.687	833.861	637.732
330.300	15.679	832.996	636.983
331.314	15.730	832.646	636.854
332.329	15.795	832.320	636.796
333.343	15.725	831.576	635.906
334.358	15.860	831.119	636.008
335.373	15.966	830.499	635.880
336.387	15.823	830.050	634.939
337.402	15.914	829.528	634.828
338.416	15.920	828.878	634.296
339.431	15.959	828.455	634.063
340.446	15.982	827.857	633.634
341.460	16.134	827.229	633.670
342.475	15.996	826.592	632.606
343.489	16.105	826.178	632.644
344.504	16.197	825.201	632.185
345.519	16.232	825.038	632.136
346.533	16.168	824.647	631.539
347.548	16.176	824.179	631.155
348.562	16.194	823.328	630.516
349.577	16.057	823.084	629.762
350.592	16.071	822.451	629.273
351.606	16.103	821.648	628.720
352.621	16.162	821.523	628.791
353.635	16.211	820.794	628.361
354.650	16.029	820.916	627.720
355.665	16.123	820.440	627.650
356.679	16.100	820.063	627.221
357.694	16.224	818.955	626.779
358.708	16.431	818.274	626.970
359.723	16.162	818.212	625.869
360.738	16.303	817.543	625.826
361.752	16.221	817.147	625.162
362.767	16.173	816.776	624.646
363.781	16.311	816.288	624.729
364.796	16.337	816.095	624.618
365.810	16.370	815.464	624.203
366.825	16.485	814.970	624.197
367.840	16.369	814.845	623.615
368.854	16.540	814.055	623.588
369.869	16.661	813.065	623.217
370.883	16.532	812.965	622.611
371.898	16.551	812.424	622.214
372.913	16.496	812.260	621.830
373.927	16.771	811.154	621.936
374.942	16.712	810.930	621.495
375.956	16.600	810.055	620.357
376.971	16.542	809.942	620.003
377.986	16.596	809.244	619.614
379.000	16.492	808.923	618.930
380.015	16.598	808.744	619.128
381.029	16.668	807.779	618.591
382.044	16.824	806.732	618.303
383.059	16.860	806.323	618.067
384.073	16.845	806.063	617.757
385.088	16.770	805.725	617.168
386.102	16.575	805.224	616.020
387.117	16.551	804.615	615.415
388.132	16.756	803.946	615.592
389.146	16.735	803.630	615.218
390.161	16.794	803.315	615.137
391.175	16.801	802.844	614.751
392.190	16.894	802.328	614.636
393.205	16.855	802.070	614.245
394.219	16.802	801.713	613.724
395.234	16.871	800.984	613.360
396.248	16.749	800.591	612.565
397.263	16.753	800.088	612.140
398.278	16.898	799.481	612.146
399.292	16.732	799.271	611.329
400.307	16.801	798.818	611.177
401.321	16.831	798.330	610.861
402.336	16.773	798.182	610.482
403.350	16.926	797.533	610.482
404.365	16.978	797.046	610.244
405.380	16.827	796.333	609.102
406.394	16.925	796.134	609.247
407.409	16.837	796.071	608.830
408.423	17.023	795.214	608.786
409.438	17.300	794.495	609.176
410.453	17.147	794.210	608.355
411.467	17.208	793.655	608.093
412.482	17.147	793.438	607.655
413.496	17.355	792.646	607.738
414.511	17.351	792.579	607.621
415.526	17.223	792.655	607.165
416.540	17.453	791.689	607.193
417.555	17.372	791.347	606.590
418.569	17.313	790.909	605.989
419.584	17.240	790.552	605.401
420.599	17.346	789.983	605.291
421.613	92.821	1263.900	1377.252
422.628	79.052	1332.952	1377.386
