DTS Sentinel unit serial number:	SN413079Multiplexer serial number:	ORYXHardware model number:	OX4-SRSoftware version number:	ORYX F/W v4.00 Oryx Data Collector v3.7.2.0data status	okinstallation	princeton_trtdifferential loss correction	single-endedforward channel	channel 3reverse channel	N/Adate	2019/09/17time	10:48:35forward acquisition time	60.00reverse acquisition time	0.00gamma	496.2192k internal	0.2323k external	0.2323temperature offset calibration	0.9939default loss term (dB/km)	0.3790temperature slope calibration	1.0000multiplexer offset coefficient	1.0000multiplexer slope coefficient	1.0000fibre end	0.00T internal ref (°C)	30.19T ext. ref 1 (°C)	0.17T ext. ref 2 (°C)	25.74length (m)	temperature (°C)	Stokes	anti-Stokes-747.200	35.849	-0.198	-0.176
-746.185	-200.000	0.011	0.102
-745.171	800.000	-0.056	0.160
-744.156	41.107	-0.168	0.153
-743.142	-200.000	-0.006	-0.174
-742.127	-200.000	0.014	-0.185
-741.112	800.000	-0.127	0.372
-740.098	-22.717	-0.422	0.258
-739.083	-11.609	-0.237	0.157
-738.069	95.781	0.380	0.438
-737.054	155.670	-0.013	0.018
-736.039	800.000	-0.096	-0.291
-735.025	800.000	-0.013	-0.051
-734.010	159.519	-0.035	-0.050
-732.996	62.396	-0.260	-0.262
-731.981	-16.044	0.120	-0.077
-730.966	-33.407	-0.221	0.123
-729.952	160.990	-0.076	0.107
-728.937	465.907	-0.162	-0.366
-727.923	278.092	0.123	-0.220
-726.908	28.381	0.214	0.183
-725.894	-172.875	-0.339	-0.011
-724.879	27.916	-0.273	-0.233
-723.864	69.701	-0.118	0.122
-722.850	-191.849	0.107	0.001
-721.835	-159.940	0.373	-0.021
-720.821	-193.841	0.160	0.001
-719.806	236.102	-0.103	0.172
-718.791	-47.078	0.122	-0.060
-717.777	800.000	-0.087	0.336
-716.762	-158.317	0.088	-0.005
-715.748	95.708	0.137	0.158
-714.733	-200.000	0.037	-0.319
-713.718	69.488	0.118	0.123
-712.704	-200.000	-0.039	0.175
-711.689	800.000	-0.063	-0.228
-710.675	-162.682	0.182	-0.009
-709.660	-1.180	-0.244	0.174
-708.645	-14.873	0.132	0.085
-707.631	619.467	0.043	0.110
-706.616	-43.740	-0.264	0.134
-705.602	-200.000	-0.005	-0.072
-704.587	-200.000	-0.015	-0.202
-703.572	741.761	-0.032	-0.087
-702.558	34.154	-0.186	0.163
-701.543	-200.000	0.030	-0.153
-700.529	125.423	0.079	0.100
-699.514	-200.000	0.018	0.197
-698.499	40.276	-0.048	-0.043
-697.485	228.421	-0.101	-0.166
-696.470	203.123	0.101	0.157
-695.456	-132.140	0.090	-0.012
-694.441	278.237	0.242	0.434
-693.426	168.294	-0.232	0.334
-692.412	-46.364	-0.187	-0.092
-691.397	8.482	0.351	0.266
-690.383	800.000	0.052	-0.222
-689.368	164.857	0.074	0.106
-688.354	212.155	-0.159	0.253
-687.339	-46.126	0.079	0.039
-686.324	-200.000	0.005	0.037
-685.310	-20.252	0.119	-0.074
-684.295	800.000	0.015	0.056
-683.281	-82.118	-0.302	-0.099
-682.266	-50.064	0.200	0.096
-681.251	-55.139	0.210	0.095
-680.237	-200.000	0.030	0.175
-679.222	-116.740	0.038	0.007
-678.208	-200.000	0.009	0.096
-677.193	-68.117	0.202	0.079
-676.178	-190.334	-0.069	0.001
-675.164	-75.219	0.185	-0.067
-674.149	800.000	-0.138	0.476
-673.135	-200.000	-0.113	-0.000
-672.120	800.000	-0.062	-0.266
-671.105	59.110	0.120	0.119
-670.091	213.588	0.033	0.052
-669.076	-200.000	0.001	0.038
-668.062	-24.990	0.149	0.089
-667.047	-109.310	-0.180	0.038
-666.032	-133.419	-0.173	0.022
-665.018	-200.000	0.015	-0.206
-664.003	-200.000	-0.030	0.187
-662.989	-200.000	-0.004	0.088
-661.974	-36.818	0.180	0.097
-660.959	800.000	-0.050	-0.190
-659.945	-153.025	-0.354	0.025
-658.930	800.000	-0.039	0.167
-657.916	-200.000	0.004	-0.022
-656.901	-48.032	0.182	-0.089
-655.886	-93.375	-0.106	0.030
-654.872	-4.567	-0.356	0.247
-653.857	20.208	-0.058	-0.047
-652.843	800.000	0.061	-0.182
-651.828	65.125	-0.290	-0.295
-650.814	393.311	-0.093	0.195
-649.799	-25.590	-0.216	0.128
-648.784	36.858	0.114	0.102
-647.770	-200.000	-0.043	-0.267
-646.755	-173.274	0.146	0.004
-645.741	421.472	0.130	-0.280
-644.726	-38.053	-0.059	0.031
-643.711	800.000	0.041	-0.175
-642.697	-37.981	0.074	-0.039
-641.682	-200.000	-0.007	-0.150
-640.668	-35.827	-0.083	-0.045
-639.653	-14.107	-0.126	-0.081
-638.638	800.000	-0.108	0.426
-637.624	46.992	0.093	-0.087
-636.609	152.080	-0.113	-0.155
-635.595	258.099	0.017	0.030
-634.580	22.679	-0.334	0.275
-633.565	-142.343	-0.190	0.019
-632.551	-170.648	-0.118	-0.004
-631.536	390.641	0.058	0.120
-630.522	-123.367	0.249	0.040
-629.507	-85.991	0.231	-0.072
-628.492	268.956	0.172	-0.303
-627.478	126.084	-0.168	0.213
-626.463	12.313	-0.040	-0.031
-625.449	-99.413	-0.192	-0.049
-624.434	86.454	-0.098	0.109
-623.419	-15.647	-0.155	-0.099
-622.405	236.098	0.219	0.363
-621.390	-67.866	-0.208	-0.082
-620.376	-200.000	0.012	0.244
-619.361	-103.701	-0.195	0.046
-618.346	93.540	-0.127	0.144
-617.332	206.983	0.024	0.037
-616.317	-157.584	0.072	0.004
-615.303	293.165	0.127	-0.233
-614.288	-34.279	0.231	-0.127
-613.273	-132.252	-0.121	-0.016
-612.259	60.521	-0.099	0.098
-611.244	109.556	0.155	-0.187
-610.230	-200.000	0.050	-0.420
-609.215	759.525	-0.024	0.065
-608.201	-200.000	0.037	-0.180
-607.186	315.333	0.116	0.219
-606.171	-144.743	-0.250	0.023
-605.157	51.404	-0.080	-0.077
-604.142	187.446	-0.216	-0.324
-603.128	-200.000	-0.005	-0.658
-602.113	-85.609	0.279	-0.087
-601.098	184.189	0.053	-0.079
-600.084	-34.681	-0.060	-0.033
-599.069	-200.000	0.025	-0.115
-598.055	153.839	0.180	0.248
-597.040	104.698	-0.317	0.375
-596.025	800.000	0.075	0.227
-595.011	-0.965	0.212	0.151
-593.996	518.280	-0.084	-0.197
-592.982	800.000	-0.140	-0.397
-591.967	-192.025	0.149	-0.001
-590.952	21.640	-0.191	-0.156
-589.938	77.969	-0.071	0.076
-588.923	-114.601	-0.290	0.056
-587.909	-111.783	-0.233	0.047
-586.894	21.353	0.165	-0.134
-585.879	-91.736	-0.237	0.068
-584.865	719.622	-0.087	-0.233
-583.850	35.997	0.017	-0.015
-582.836	-66.053	-0.110	-0.044
-581.821	-200.000	0.017	-0.087
-580.806	-119.696	-0.117	0.020
-579.792	-78.449	-0.339	-0.117
-578.777	88.743	0.066	-0.074
-577.763	-84.896	0.025	-0.008
-576.748	-55.423	0.144	-0.065
-575.733	-64.260	0.132	-0.054
-574.719	295.270	0.205	0.377
-573.704	800.000	0.015	0.042
-572.690	-77.536	-0.321	0.111
-571.675	-94.929	-0.251	-0.068
-570.661	61.071	-0.138	-0.137
-569.646	236.856	-0.122	-0.203
-568.631	177.167	0.101	-0.148
-567.617	37.740	-0.264	0.235
-566.602	118.160	-0.118	0.145
-565.588	-200.000	0.011	-0.197
-564.573	-107.852	0.188	0.041
-563.558	-169.766	-0.077	-0.003
-562.544	-140.373	-0.330	-0.035
-561.529	-90.336	0.329	-0.096
-560.515	202.627	-0.050	-0.078
-559.500	-94.512	-0.082	-0.023
-558.485	-161.177	0.323	-0.017
-557.471	206.410	-0.159	-0.249
-556.456	-78.070	-0.137	-0.047
-555.442	167.431	-0.303	-0.432
-554.427	-105.629	-0.091	-0.021
-553.412	369.527	0.148	0.300
-552.398	800.000	0.014	0.057
-551.383	-140.300	0.513	0.054
-550.369	74.663	0.317	-0.334
-549.354	-68.479	-0.399	0.155
-548.339	130.239	0.130	0.167
-547.325	-200.000	0.080	-0.366
-546.310	-173.745	-0.070	0.002
-545.296	-200.000	0.006	0.289
-544.281	140.018	-0.228	-0.302
-543.266	120.417	-0.111	0.138
-542.252	-129.050	0.242	-0.034
-541.237	28.892	-0.204	0.173
-540.223	361.049	0.147	0.295
-539.208	168.598	0.097	-0.139
-538.193	-200.000	0.011	-0.174
-537.179	-30.624	0.099	0.056
-536.164	-155.737	0.449	-0.029
-535.150	-200.000	-0.040	-0.251
-534.135	426.483	-0.016	-0.035
-533.121	68.998	-0.176	0.182
-532.106	113.584	-0.140	0.171
-531.091	-185.389	-0.128	0.002
-530.077	-93.655	-0.364	0.101
-529.062	-52.115	0.325	-0.151
-528.048	91.378	-0.138	-0.155
-527.033	800.000	0.004	0.014
-526.018	505.197	0.070	-0.162
-525.004	-189.195	-0.159	-0.002
-523.989	800.000	-0.094	-0.323
-522.975	-200.000	-0.004	-0.086
-521.960	305.781	0.150	-0.279
-520.945	-12.531	-0.152	0.099
-519.931	1.149	0.067	0.048
-518.916	-18.306	-0.371	-0.232
-517.902	60.704	0.041	0.041
-516.887	-42.384	-0.200	-0.102
-515.872	-195.030	0.269	-0.002
-514.858	800.000	-0.097	-0.393
-513.843	-134.250	0.204	0.025
-512.829	-5.846	-0.027	-0.019
-511.814	143.333	0.119	0.159
-510.799	-200.000	-0.004	0.230
-509.785	672.156	0.078	0.202
-508.770	39.182	0.109	-0.097
-507.756	150.638	-0.186	-0.253
-506.741	102.841	-0.121	-0.142
-505.726	-125.435	-0.278	-0.042
-504.712	15.449	0.272	-0.214
-503.697	-200.000	-0.046	-0.494
-502.683	2.868	0.104	0.075
-501.668	-148.960	0.291	0.023
-500.653	361.108	-0.134	0.268
-499.639	109.841	0.154	0.185
-498.624	135.124	-0.151	-0.196
-497.610	-200.000	0.003	-0.294
-496.595	58.143	-0.158	0.155
-495.581	-68.848	-0.323	0.125
-494.566	800.000	0.038	0.152
-493.551	-2.945	-0.238	0.167
-492.537	800.000	0.065	-0.252
-491.522	800.000	-0.088	-0.264
-490.508	314.288	-0.125	0.235
-489.493	237.698	0.038	-0.063
-488.478	-49.687	-0.173	0.082
-487.464	-50.074	-0.203	-0.096
-486.449	17.072	0.217	0.172
-485.435	-105.250	-0.168	-0.038
-484.420	-77.750	0.134	0.046
-483.405	42.345	-0.040	0.036
-482.391	22.811	0.147	-0.121
-481.376	-200.000	0.006	0.127
-480.362	46.064	0.090	0.083
-479.347	-69.864	0.220	0.084
-478.332	-200.000	-0.018	-0.102
-477.318	91.824	0.247	-0.278
-476.303	-6.925	-0.172	-0.117
-475.289	145.583	0.074	0.099
-474.274	-149.058	0.084	0.007
-473.259	-60.858	0.101	-0.043
-472.245	-107.508	-0.159	0.035
-471.230	687.392	0.061	0.161
-470.216	800.000	0.041	-0.146
-469.201	-105.856	-0.194	-0.044
-468.186	211.195	-0.106	-0.166
-467.172	91.663	-0.082	-0.092
-466.157	-200.000	0.028	0.300
-465.143	-22.111	-0.148	0.090
-464.128	-187.708	-0.020	-0.000
-463.113	800.000	0.095	0.353
-462.099	262.170	-0.118	0.204
-461.084	152.124	-0.145	0.197
-460.070	-200.000	0.031	0.255
-459.055	-98.099	0.265	0.068
-458.040	-88.300	0.114	0.034
-457.026	-200.000	0.043	-0.209
-456.011	-170.164	0.173	0.006
-454.997	56.129	0.103	0.100
-453.982	20.298	0.281	-0.227
-452.968	-200.000	0.043	0.342
-451.953	21.465	-0.244	-0.198
-450.938	-139.993	-0.080	-0.008
-449.924	-200.000	-0.006	0.091
-448.909	378.076	0.055	0.113
-447.895	22.486	-0.060	-0.049
-446.880	25.659	0.064	0.053
-445.865	-3.882	0.111	-0.077
-444.851	98.861	0.116	0.133
-443.836	-6.179	-0.317	0.216
-442.822	800.000	-0.054	0.220
-441.807	91.934	-0.101	0.113
-440.792	266.692	0.057	-0.099
-439.778	-200.000	0.000	0.046
-438.763	279.249	0.124	0.221
-437.749	157.454	-0.081	-0.111
-436.734	-200.000	-0.061	-0.593
-435.719	800.000	-0.070	-0.213
-434.705	62.152	0.143	-0.142
-433.690	142.322	-0.081	-0.107
-432.676	149.793	0.184	0.249
-431.661	96.680	-0.183	0.209
-430.646	-103.901	-0.118	-0.028
-429.632	182.319	0.085	0.125
-428.617	-140.243	-0.218	0.023
-427.603	-200.000	-0.020	-0.441
-426.588	-200.000	0.042	0.295
-425.573	800.000	-0.052	0.170
-424.559	19.681	-0.347	0.279
-423.544	-55.839	-0.098	0.044
-422.530	-158.592	0.233	0.013
-421.515	31.110	0.066	-0.057
-420.500	-85.926	-0.066	-0.020
-419.486	3.924	-0.217	0.158
-418.471	800.000	0.111	0.317
-417.457	224.028	-0.168	0.270
-416.442	-121.050	-0.088	0.015
-415.428	-31.293	-0.133	0.075
-414.413	-158.474	0.131	-0.008
-413.398	-27.753	-0.053	-0.031
-412.384	-200.000	-0.057	-0.616
-411.369	2.262	-0.220	-0.159
-410.355	9.638	-0.216	0.163
-409.340	-107.284	0.330	-0.072
-408.325	-66.952	0.377	0.149
-407.311	-33.265	-0.009	-0.005
-406.296	152.989	0.145	0.198
-405.282	-57.364	0.305	-0.134
-404.267	61.399	-0.268	0.265
-403.252	523.043	0.013	-0.029
-402.238	-81.953	0.223	0.073
-401.223	-139.798	0.243	-0.026
-400.209	348.310	0.092	-0.181
-399.194	193.783	0.097	0.146
-398.179	-12.293	-0.300	-0.195
-397.165	800.000	0.008	-0.026
-396.150	-50.937	0.213	0.100
-395.136	-17.648	-0.100	0.063
-394.121	60.828	-0.142	0.140
-393.106	80.744	0.205	-0.220
-392.092	0.774	-0.105	0.075
-391.077	-200.000	-0.021	-0.205
-390.063	358.615	0.114	-0.226
-389.048	-200.000	-0.013	0.073
-388.033	504.955	-0.046	-0.107
-387.019	736.479	0.071	0.191
-386.004	43.257	0.043	-0.039
-384.990	36.047	-0.186	0.163
-383.975	-64.341	-0.008	0.003
-382.960	800.000	-0.039	-0.119
-381.946	-200.000	0.025	-0.328
-380.931	-111.162	0.231	-0.047
-379.917	-70.594	-0.260	-0.098
-378.902	228.675	0.036	0.058
-377.888	93.315	0.204	0.230
-376.873	460.066	-0.044	0.097
-375.858	-99.648	0.366	-0.091
-374.844	-200.000	0.041	-0.209
-373.829	-90.837	0.125	0.036
-372.815	800.000	0.069	0.253
-371.800	30.759	0.262	-0.224
-370.785	132.902	-0.056	0.071
-369.771	-70.984	0.012	-0.005
-368.756	-84.878	-0.260	-0.081
-367.742	62.269	0.179	0.178
-366.727	-103.000	-0.296	0.070
-365.712	-121.231	-0.053	0.009
-364.698	4.703	-0.264	-0.193
-363.683	327.392	0.156	0.298
-362.669	15.714	0.110	-0.086
-361.654	140.484	-0.093	-0.122
-360.639	320.818	0.124	-0.234
-359.625	16.544	-0.068	0.054
-358.610	-65.090	0.267	-0.107
-357.596	283.303	0.093	0.166
-356.581	31.766	0.080	-0.069
-355.566	260.448	0.151	-0.259
-354.552	-22.963	-0.147	0.088
-353.537	-200.000	0.053	0.343
-352.523	-109.268	-0.249	-0.052
-351.508	-127.845	0.195	0.028
-350.493	-96.957	0.352	-0.092
-349.479	800.000	-0.049	0.183
-348.464	-200.000	-0.040	-0.223
-347.450	1.690	0.163	0.117
-346.435	208.142	-0.153	0.237
-345.420	22.835	-0.276	0.225
-344.406	-187.074	0.090	0.001
-343.391	349.930	-0.149	-0.292
-342.377	23.268	0.158	-0.129
-341.362	-200.000	0.004	-0.190
-340.348	11.506	-0.204	0.155
-339.333	-11.757	-0.231	0.151
-338.318	150.725	0.140	0.190
-337.304	-200.000	0.008	0.135
-336.289	-63.125	0.205	-0.084
-335.275	78.171	0.122	0.129
-334.260	-27.992	-0.214	0.123
-333.245	520.315	-0.079	0.183
-332.231	-137.407	-0.099	0.011
-331.216	-200.000	0.017	-0.229
-330.202	-96.923	0.225	-0.059
-329.187	82.040	-0.264	0.284
-328.172	-200.000	0.017	-0.154
-327.158	-13.753	-0.120	0.077
-326.143	-200.000	0.069	-0.571
-325.129	-200.000	0.061	0.475
-324.114	-33.332	-0.101	0.056
-323.099	800.000	0.070	-0.257
-322.085	-154.112	-0.188	0.013
-321.070	-200.000	-0.028	0.297
-320.056	610.649	-0.094	0.235
-319.041	-175.271	0.354	0.010
-318.026	201.269	-0.135	0.206
-317.012	-87.846	-0.116	-0.035
-315.997	16.795	-0.061	0.048
-314.983	3.343	-0.128	-0.093
-313.968	436.528	0.033	0.072
-312.953	-54.581	0.261	-0.117
-311.939	-90.803	0.287	-0.082
-310.924	-153.621	0.175	-0.012
-309.910	800.000	0.079	0.223
-308.895	130.075	-0.084	0.107
-307.880	-200.000	0.041	-0.368
-306.866	800.000	-0.045	-0.150
-305.851	-16.277	-0.120	0.076
-304.837	-38.426	-0.085	-0.045
-303.822	800.000	-0.112	-0.324
-302.807	78.047	0.058	0.061
-301.793	-86.041	0.285	0.087
-300.778	-200.000	-0.034	0.156
-299.764	-45.571	0.060	-0.029
-298.749	-144.677	-0.099	-0.009
-297.735	-93.021	-0.150	-0.041
-296.720	46.975	0.299	0.276
-295.705	-63.050	-0.142	0.058
-294.691	-200.000	0.046	-0.339
-293.676	-110.311	-0.196	0.040
-292.662	134.611	0.048	0.062
-291.647	-70.112	0.414	0.156
-290.632	-200.000	-0.002	0.179
-289.618	412.909	0.153	0.322
-288.603	-89.226	0.255	0.075
-287.589	179.605	-0.132	-0.192
-286.574	87.770	-0.253	-0.278
-285.559	-101.934	0.287	0.069
-284.545	800.000	-0.056	0.159
-283.530	340.813	0.289	0.559
-282.516	529.482	-0.152	-0.355
-281.501	-154.006	-0.049	0.003
-280.486	800.000	0.089	-0.277
-279.472	-200.000	-0.052	-0.231
-278.457	604.300	0.090	0.222
-277.443	263.483	0.131	0.225
-276.428	84.170	-0.297	0.322
-275.413	-200.000	-0.022	0.330
-274.399	-65.474	-0.262	0.104
-273.384	-122.363	0.220	0.036
-272.370	295.189	-0.167	-0.303
-271.355	177.143	-0.081	-0.117
-270.340	267.548	0.102	-0.177
-269.326	-36.452	0.169	-0.090
-268.311	23.238	0.247	0.201
-267.297	-137.238	-0.131	-0.015
-266.282	80.370	0.174	-0.185
-265.267	17.850	0.229	0.181
-264.253	-36.066	-0.400	0.214
-263.238	687.688	0.127	-0.330
-262.224	-129.445	0.028	0.004
-261.209	-200.000	-0.055	0.353
-260.195	-85.189	-0.112	0.035
-259.180	-138.535	0.383	-0.042
-258.165	-137.539	0.167	-0.019
-257.151	-200.000	-0.033	-0.262
-256.136	231.290	0.112	-0.182
-255.122	-147.206	-0.186	-0.016
-254.107	-88.314	-0.146	-0.043
-253.092	-34.933	0.308	0.167
-252.078	-52.226	-0.349	0.160
-251.063	-200.000	-0.019	-0.422
-250.049	112.617	-0.151	-0.181
-249.034	797.958	0.053	0.145
-248.019	-77.018	0.064	0.022
-247.005	202.343	-0.195	0.298
-245.990	-61.755	-0.431	0.179
-244.976	-40.034	0.502	-0.259
-243.961	148.771	-0.100	-0.134
-242.946	800.000	0.040	0.166
-241.932	-182.879	0.318	0.006
-240.917	-76.746	-0.209	0.073
-239.903	327.296	0.160	0.305
-238.888	10.568	0.178	-0.135
-237.873	-200.000	-0.011	0.317
-236.859	-200.000	0.044	0.342
-235.844	-200.000	-0.033	0.160
-234.830	-200.000	-0.032	-0.177
-233.815	453.034	-0.062	-0.136
-232.800	-36.558	0.239	-0.127
-231.786	800.000	0.086	0.247
-230.771	-49.732	-0.212	0.100
-229.757	-76.596	-0.126	-0.044
-228.742	-91.996	0.203	0.057
-227.727	-48.047	0.157	-0.075
-226.713	109.689	0.084	0.100
-225.698	-110.484	0.124	-0.025
-224.684	-77.179	-0.445	0.153
-223.669	-200.000	0.034	-0.370
-222.655	141.321	0.116	-0.151
-221.640	208.597	0.109	0.169
-220.625	-200.000	0.007	-0.095
-219.611	-18.267	0.194	0.120
-218.596	6.113	-0.135	-0.099
-217.582	-200.000	-0.001	0.228
-216.567	702.053	0.132	0.345
-215.552	-200.000	-0.037	0.531
-214.538	54.476	0.170	-0.162
-213.523	648.193	0.139	-0.351
-212.509	301.887	0.104	-0.190
-211.494	784.616	-0.033	-0.091
-210.479	145.399	-0.106	0.141
-209.465	-57.841	0.130	-0.056
-208.450	104.199	0.135	-0.157
-207.436	-86.565	-0.229	-0.069
-206.421	-32.393	-0.098	-0.054
-205.406	-200.000	-0.002	-0.267
-204.392	-200.000	-0.006	-0.057
-203.377	119.129	-0.173	0.212
-202.363	43.560	-0.152	0.138
-201.348	102.612	-0.182	-0.211
-200.333	7.936	0.447	-0.331
-199.319	-200.000	0.022	0.154
-198.304	-159.934	-0.086	0.005
-197.290	-139.113	0.104	-0.011
-196.275	503.406	-0.168	0.384
-195.260	100.696	-0.176	-0.202
-194.246	-158.143	0.130	-0.008
-193.231	93.985	0.228	0.256
-192.217	-200.000	0.027	0.146
-191.202	-171.508	0.090	-0.003
-190.187	770.510	-0.082	0.220
-189.173	-77.555	-0.241	-0.082
-188.158	282.027	-0.028	-0.050
-187.144	-102.180	0.192	0.046
-186.129	-200.000	-0.027	0.262
-185.114	-55.628	0.182	-0.081
-184.100	17.901	0.157	0.124
-183.085	-200.000	-0.005	0.239
-182.071	-59.209	-0.058	0.025
-181.056	-17.453	-0.226	-0.141
-180.042	-200.000	-0.081	0.387
-179.027	-29.065	0.193	0.110
-178.012	-200.000	0.004	-0.219
-176.998	-62.539	0.210	-0.086
-175.983	127.468	0.087	-0.109
-174.969	-200.000	0.001	0.126
-173.954	-101.467	-0.297	0.071
-172.939	-99.497	-0.287	0.071
-171.925	94.942	0.073	-0.082
-170.910	-48.223	-0.033	0.016
-169.896	-200.000	-0.020	0.109
-168.881	-200.000	-0.040	-0.347
-167.866	-200.000	0.004	0.072
-166.852	-90.516	0.218	0.062
-165.837	-200.000	-0.022	-0.320
-164.823	-134.913	0.317	0.038
-163.808	-144.037	0.063	0.006
-162.793	800.000	-0.031	0.093
-161.779	20.476	0.034	-0.027
-160.764	-60.969	-0.192	0.080
-159.750	-149.118	0.206	-0.016
-158.735	-200.000	0.002	-0.264
-157.720	-200.000	0.006	0.179
-156.706	143.406	0.148	0.195
-155.691	800.000	-0.106	-0.327
-154.677	-1.146	0.088	-0.061
-153.662	446.353	-0.071	-0.153
-152.647	-179.987	-0.486	-0.010
-151.633	-76.483	0.356	-0.123
-150.618	134.377	-0.130	0.166
-149.604	-59.444	-0.084	0.036
-148.589	-46.223	0.151	-0.073
-147.574	800.000	-0.042	0.167
-146.560	800.000	-0.035	-0.106
-145.545	-154.882	-0.151	0.010
-144.531	77.665	0.092	-0.097
-143.516	-198.893	0.226	0.001
-142.502	-48.036	-0.162	0.077
-141.487	800.000	-0.039	-0.149
-140.472	-200.000	0.031	0.239
-139.458	800.000	0.045	0.187
-138.443	-200.000	-0.031	0.276
-137.429	-56.303	0.162	-0.071
-136.414	-1.868	0.086	-0.059
-135.399	-200.000	0.008	-0.201
-134.385	48.514	-0.100	0.093
-133.370	-42.943	-0.276	0.138
-132.356	76.091	0.122	0.128
-131.341	-120.711	-0.145	0.024
-130.326	512.418	-0.026	-0.060
-129.312	-200.000	0.002	-0.043
-128.297	-115.886	0.068	-0.012
-127.283	-200.000	0.084	0.472
-126.268	-111.179	-0.513	0.103
-125.253	-1.173	0.103	-0.071
-124.239	471.638	0.181	-0.401
-123.224	-142.455	0.242	-0.023
-122.210	-200.000	0.019	0.182
-121.195	-24.247	0.339	-0.199
-120.180	76.784	0.413	0.432
-119.166	-200.000	0.043	-0.215
-118.151	5.540	-0.168	-0.123
-117.137	36.017	-0.107	-0.093
-116.122	-200.000	-0.037	0.288
-115.107	800.000	0.050	0.186
-114.093	800.000	0.050	0.217
-113.078	-128.947	-0.203	0.028
-112.064	-14.053	0.303	0.193
-111.049	12.365	-0.082	0.062
-110.034	-200.000	0.012	0.453
-109.020	681.263	0.185	0.476
-108.005	-51.582	0.313	0.144
-106.991	-43.591	0.269	0.134
-105.976	-148.858	0.220	0.018
-104.962	26.512	-0.318	0.262
-103.947	387.673	0.127	0.259
-102.932	-200.000	-0.026	-0.156
-101.918	177.888	0.305	-0.439
-100.903	800.000	0.125	-0.497
-99.889	40.276	0.266	0.235
-98.874	8.869	0.170	-0.126
-97.859	140.303	0.176	0.229
-96.845	-36.348	0.176	-0.094
-95.830	160.570	-0.143	0.196
-94.816	492.492	0.182	-0.410
-93.801	-200.000	0.009	-0.128
-92.786	-65.466	-0.551	-0.218
-91.772	40.214	0.213	-0.189
-90.757	-200.000	-0.066	-0.329
-89.743	-200.000	0.051	0.353
-88.728	147.625	0.078	0.104
-87.713	-1.237	0.255	-0.177
-86.699	-200.000	-0.091	0.423
-85.684	-47.058	-0.159	-0.076
-84.670	-116.179	-0.311	-0.057
-83.655	13.930	0.164	-0.126
-82.640	-200.000	-0.002	0.206
-81.626	17.145	-0.174	0.136
-80.611	-43.406	-0.168	0.084
-79.597	297.357	0.139	0.252
-78.582	101.630	0.139	0.159
-77.567	-200.000	-0.002	0.256
-76.553	247.995	0.243	0.404
-75.538	800.000	-0.095	0.381
-74.524	800.000	-0.049	0.191
-73.509	271.890	0.063	0.110
-72.494	137.461	-0.216	-0.278
-71.480	-55.776	0.079	0.035
-70.465	-42.374	-0.151	-0.076
-69.451	-84.165	0.241	0.075
-68.436	244.091	0.268	0.443
-67.422	77.059	-0.176	-0.184
-66.407	470.485	-0.031	-0.069
-65.392	24.076	0.071	-0.058
-64.378	10.378	-0.217	0.163
-63.363	-200.000	0.009	-0.169
-62.349	149.752	0.105	0.140
-61.334	127.369	-0.853	-1.064
-60.319	72.661	0.696	0.714
-59.305	800.000	-0.284	-1.027
-58.290	132.012	0.808	1.023
-57.276	382.395	0.823	1.664
-56.261	-200.000	102.961	568.874
-55.246	463.194	1452.848	3189.970
-54.232	149.331	2640.363	3513.889
-53.217	107.449	2186.855	2557.375
-52.203	40.737	1710.677	1516.287
-51.188	33.343	1518.605	1295.624
-50.173	30.922	1491.422	1256.089
-49.159	51.302	1544.047	1440.721
-48.144	52.066	1561.790	1462.463
-47.130	33.600	1519.493	1297.935
-46.115	30.599	1504.243	1264.487
-45.100	30.341	1501.130	1260.066
-44.086	30.326	1498.991	1258.122
-43.071	30.154	1497.421	1255.590
-42.057	30.192	1495.609	1254.275
-41.042	30.262	1494.033	1253.376
-40.027	30.177	1492.864	1251.776
-39.013	30.178	1491.112	1250.258
-37.998	30.129	1489.671	1248.675
-36.984	30.120	1488.642	1247.702
-35.969	30.216	1486.954	1246.881
-34.954	30.158	1485.491	1245.219
-33.940	30.146	1484.013	1243.844
-32.925	30.126	1483.410	1243.159
-31.911	30.244	1481.508	1242.304
-30.896	30.131	1480.537	1240.683
-29.881	30.231	1479.454	1240.397
-28.867	30.273	1477.644	1239.113
-27.852	30.240	1476.621	1237.981
-26.838	30.203	1475.346	1236.622
-25.823	30.306	1473.439	1235.657
-24.809	30.247	1471.474	1233.568
-23.794	30.361	1470.161	1233.173
-22.779	30.268	1469.458	1231.916
-21.765	30.214	1468.942	1231.078
-20.750	30.275	1467.155	1229.940
-19.736	30.199	1466.266	1228.639
-18.721	30.175	1465.163	1227.506
-17.706	30.160	1463.731	1226.159
-16.692	30.201	1462.672	1225.494
-15.677	30.184	1461.627	1224.462
-14.663	30.149	1460.839	1223.518
-13.648	30.162	1459.946	1222.807
-12.633	30.309	1458.511	1222.528
-11.619	30.115	1458.244	1220.976
-10.604	30.150	1456.845	1219.990
-9.590	30.218	1456.092	1219.757
-8.575	30.164	1455.299	1218.690
-7.560	30.202	1454.333	1218.077
-6.546	30.049	1453.702	1216.496
-5.531	30.100	1453.000	1216.194
-4.517	30.120	1451.642	1215.143
-3.502	30.133	1450.807	1214.479
-2.487	30.152	1449.755	1213.677
-1.473	30.118	1449.037	1212.805
-0.458	30.166	1447.306	1211.620
0.556	28.354	1438.217	1201.407
1.571	25.468	1413.025	1161.631
2.586	22.147	1351.776	1090.609
3.600	20.336	1269.541	1013.607
4.615	19.306	1225.699	972.709
5.629	16.820	1169.157	914.358
6.644	8.508	1083.650	805.678
7.659	1.380	1042.860	740.616
8.673	0.422	1036.964	731.718
9.688	0.114	1034.370	728.332
10.702	0.075	1032.841	727.001
11.717	0.049	1030.665	725.282
12.731	2.600	1033.610	739.614
13.746	11.087	1044.838	788.849
14.761	17.061	1051.512	822.865
15.775	17.332	1050.866	823.597
16.790	16.367	1049.354	817.668
17.804	15.377	1046.975	810.963
18.819	14.397	1045.545	805.050
19.834	14.139	1043.634	802.264
20.848	13.893	1042.405	800.060
21.863	13.584	1041.928	798.137
22.877	13.281	1041.197	796.046
23.892	13.200	1040.112	794.756
24.907	12.974	1039.558	793.175
25.921	12.955	1038.749	792.399
26.936	13.071	1038.190	792.462
27.950	13.102	1037.433	791.960
28.965	13.009	1037.052	791.152
29.980	13.142	1036.092	790.986
30.994	13.171	1034.896	790.146
32.009	13.282	1033.927	789.864
33.023	13.350	1033.213	789.573
34.038	13.312	1032.511	788.786
35.053	13.298	1031.368	787.776
36.067	13.201	1030.823	786.830
37.082	13.165	1030.077	786.016
38.096	13.157	1029.502	785.472
39.111	13.270	1028.227	784.968
40.126	13.313	1027.585	784.612
41.140	13.161	1026.528	783.013
42.155	13.089	1025.776	782.029
43.169	13.177	1024.530	781.427
44.184	13.097	1023.527	780.216
45.199	13.077	1022.501	779.269
46.213	13.158	1021.098	778.513
47.228	13.069	1020.725	777.742
48.242	13.079	1019.940	777.118
49.257	13.247	1018.431	776.691
50.271	13.141	1018.040	775.826
51.286	13.184	1016.605	774.868
52.301	13.188	1016.085	774.422
53.315	13.152	1015.567	773.786
54.330	13.143	1014.866	773.143
55.344	13.092	1013.835	772.049
56.359	13.175	1012.547	771.391
57.374	13.083	1011.902	770.400
58.388	13.014	1011.229	769.496
59.403	13.052	1010.339	768.932
60.417	12.997	1009.332	767.837
61.432	13.022	1008.720	767.420
62.447	12.976	1008.221	766.759
63.461	12.876	1007.820	765.922
64.476	12.943	1006.367	765.064
65.490	12.947	1005.368	764.253
66.505	13.095	1004.485	764.199
67.520	13.057	1004.140	763.694
68.534	13.131	1003.084	763.164
69.549	12.935	1002.544	761.781
70.563	13.002	1001.911	761.543
71.578	13.181	1000.679	761.364
72.593	13.032	999.622	759.806
73.607	13.024	998.856	759.120
74.622	12.939	998.341	758.271
75.636	12.765	997.339	756.642
76.651	12.972	996.538	756.918
77.666	12.908	996.237	756.329
78.680	12.948	995.297	755.731
79.695	12.865	995.308	755.296
80.709	12.953	994.095	754.707
81.724	13.077	993.352	754.646
82.739	13.005	992.567	753.654
83.753	13.049	991.533	753.004
84.768	13.069	991.241	752.804
85.782	13.133	990.409	752.397
86.797	13.256	989.570	752.253
87.812	13.237	988.556	751.330
88.826	13.018	988.474	750.205
89.841	13.139	987.386	749.861
90.855	13.215	986.566	749.519
91.870	13.270	985.695	749.040
92.884	13.336	984.636	748.465
93.899	13.248	984.336	747.776
94.914	13.210	983.547	746.939
95.928	13.384	982.756	747.058
96.943	13.421	982.165	746.709
97.957	13.267	981.434	745.394
98.972	13.280	980.614	744.761
99.987	13.220	979.841	743.836
101.001	13.199	979.355	743.307
102.016	13.141	978.336	742.208
103.030	13.282	977.121	741.855
104.045	13.359	976.218	741.449
105.060	13.355	975.647	740.932
106.074	13.285	974.447	739.644
107.089	13.207	973.679	738.645
108.103	13.081	973.348	737.766
109.118	13.025	972.487	736.798
110.133	13.055	970.930	735.689
111.147	13.110	970.316	735.400
112.162	13.044	969.436	734.376
113.176	13.045	968.559	733.650
114.191	13.317	967.768	734.196
115.206	13.270	967.131	733.438
116.220	13.082	966.312	731.916
117.235	13.201	965.068	731.440
118.249	13.222	964.157	730.777
119.264	13.098	963.763	729.863
120.279	13.234	962.574	729.500
121.293	13.236	962.259	729.204
122.308	13.241	961.053	728.247
123.322	13.102	960.614	727.239
124.337	13.088	959.895	726.570
125.352	13.085	958.804	725.667
126.366	13.151	957.264	724.724
127.381	13.031	956.464	723.531
128.395	13.044	955.604	722.875
129.410	13.147	954.483	722.411
130.424	13.049	953.488	721.167
131.439	13.053	952.357	720.262
132.454	13.218	951.350	720.158
133.468	13.055	951.189	719.261
134.483	13.171	950.525	719.201
135.497	13.197	949.294	718.318
136.512	13.183	949.138	718.079
137.527	13.151	948.080	717.072
138.541	13.259	947.060	716.705
139.556	13.252	946.220	715.979
140.570	13.049	945.877	714.775
141.585	13.207	945.334	714.985
142.600	13.288	944.021	714.282
143.614	13.282	943.550	713.833
144.629	13.431	942.408	713.550
145.643	13.386	942.245	713.167
146.658	13.244	941.514	711.943
147.673	13.309	940.176	711.148
148.687	13.175	939.500	709.998
149.702	13.335	938.347	709.747
150.716	13.344	937.454	709.047
151.731	13.234	937.040	708.200
152.746	13.316	936.187	707.848
153.760	13.259	935.559	707.062
154.775	13.175	934.976	706.204
155.789	13.279	934.080	705.905
156.804	13.331	933.281	705.461
157.819	13.395	932.277	704.912
158.833	13.367	931.744	704.329
159.848	13.261	931.341	703.511
160.862	13.487	930.498	703.773
161.877	13.385	929.726	702.693
162.892	13.406	929.054	702.213
163.906	13.310	928.017	700.958
164.921	13.314	927.444	700.482
165.935	13.367	926.262	699.751
166.950	13.331	925.506	698.968
167.964	13.284	924.597	698.021
168.979	13.352	923.455	697.382
169.994	13.508	922.476	697.240
171.008	13.344	922.119	696.214
172.023	13.433	921.286	695.898
173.037	13.425	920.288	695.049
174.052	13.440	919.505	694.460
175.067	13.675	918.268	694.451
176.081	13.535	918.074	693.654
177.096	13.479	917.048	692.586
178.110	13.362	916.463	691.592
179.125	13.318	916.087	691.064
180.140	13.510	915.045	691.016
181.154	13.565	914.412	690.707
182.169	13.581	913.496	690.022
183.183	13.701	913.089	690.151
184.198	13.757	912.319	689.740
185.213	13.645	911.798	688.822
186.227	13.587	911.535	688.322
187.242	13.697	910.832	688.185
188.256	13.652	910.243	687.495
189.271	13.731	909.284	687.038
190.286	13.822	908.495	686.755
191.300	13.626	907.719	685.297
192.315	13.491	907.239	684.316
193.329	13.404	906.903	683.644
194.344	13.497	905.665	683.034
195.359	13.641	905.150	683.179
196.373	13.703	904.359	682.773
197.388	13.755	903.974	682.637
198.402	13.751	903.465	682.176
199.417	13.951	903.225	682.756
200.432	13.815	902.940	681.923
201.446	13.899	902.043	681.532
202.461	13.853	902.021	681.265
203.475	14.209	900.926	681.837
204.490	14.010	900.523	680.657
205.504	13.971	899.688	679.805
206.519	13.914	898.759	678.808
207.534	13.985	898.096	678.537
208.548	13.852	897.671	677.613
209.563	13.803	897.318	677.088
210.577	13.981	896.290	676.979
211.592	13.892	895.849	676.224
212.607	14.092	895.219	676.501
213.621	13.958	894.913	675.664
214.636	13.954	893.875	674.806
215.650	13.914	893.639	674.406
216.665	14.070	892.496	674.114
217.680	14.066	892.239	673.846
218.694	14.242	891.596	674.011
219.709	14.119	891.088	673.071
220.723	14.147	890.537	672.710
221.738	14.069	889.976	671.911
222.753	14.181	889.254	671.758
223.767	14.098	888.349	670.682
224.782	14.175	887.682	670.429
225.796	14.329	886.446	670.056
226.811	14.332	885.911	669.605
227.826	14.193	885.409	668.606
228.840	14.221	884.947	668.309
229.855	14.188	883.900	667.327
230.869	14.146	883.340	666.678
231.884	14.196	883.161	666.686
232.899	14.306	881.886	666.104
233.913	14.198	881.534	665.346
234.928	14.067	880.864	664.257
235.942	14.141	880.386	664.135
236.957	14.150	879.707	663.599
237.972	14.213	879.268	663.459
238.986	14.383	878.103	663.200
240.001	14.266	877.692	662.364
241.015	14.243	877.257	661.885
242.030	14.184	876.915	661.335
243.045	14.331	875.747	660.982
244.059	14.364	875.216	660.651
245.074	14.424	874.613	660.376
246.088	14.425	873.651	659.596
247.103	14.389	873.430	659.226
248.117	14.555	872.434	659.073
249.132	14.492	872.077	658.497
250.147	14.606	871.687	658.592
251.161	14.650	870.624	657.905
252.176	14.676	870.220	657.645
253.190	14.745	869.285	657.151
254.205	14.620	868.813	656.244
255.220	14.647	868.235	655.857
256.234	14.635	867.640	655.302
257.249	14.773	867.087	655.367
258.263	14.869	866.290	655.083
259.278	14.802	865.705	654.322
260.293	14.744	865.340	653.758
261.307	14.800	864.635	653.387
262.322	14.913	864.195	653.438
263.336	14.926	863.609	652.988
264.351	14.957	862.737	652.394
265.366	14.964	862.338	652.062
266.380	15.023	861.776	651.810
267.395	14.920	861.165	650.887
268.409	14.967	860.231	650.305
269.424	14.879	860.026	649.753
270.439	14.971	859.234	649.455
271.453	14.937	858.405	648.637
272.468	14.809	857.608	647.482
273.482	14.897	856.927	647.252
274.497	14.946	856.643	647.168
275.512	14.862	855.747	646.111
276.526	15.025	854.699	645.891
277.541	14.990	854.487	645.539
278.555	15.036	853.977	645.274
279.570	15.048	853.548	644.936
280.585	15.134	853.024	644.818
281.599	15.143	852.537	644.428
282.614	15.097	851.684	643.547
283.628	15.076	851.492	643.264
284.643	15.108	850.641	642.686
285.657	15.112	850.075	642.220
286.672	15.062	849.606	641.616
287.687	15.176	848.993	641.534
288.701	15.176	848.947	641.440
289.716	15.266	848.228	641.184
290.730	15.231	847.244	640.252
291.745	15.205	846.381	639.441
292.760	15.330	845.655	639.316
293.774	15.404	845.050	639.084
294.789	15.337	844.883	638.642
295.803	15.414	844.285	638.430
296.818	15.444	843.463	637.864
297.833	15.467	843.132	637.644
298.847	15.373	842.490	636.748
299.862	15.443	841.703	636.360
300.876	15.452	840.947	635.766
301.891	15.389	840.234	634.933
302.906	15.386	839.932	634.639
303.920	15.518	839.423	634.695
304.935	15.482	838.870	634.087
305.949	15.514	838.074	633.548
306.964	15.503	837.396	632.939
307.979	15.537	836.468	632.308
308.993	15.658	836.057	632.397
310.008	15.570	835.754	631.780
311.022	15.485	835.217	630.999
312.037	15.742	834.571	631.421
313.052	15.751	833.783	630.803
314.066	15.630	833.360	629.972
315.081	15.575	832.836	629.318
316.095	15.598	832.054	628.757
317.110	15.605	831.631	628.406
318.125	15.557	831.087	627.760
319.139	15.647	830.880	627.883
320.154	15.651	830.306	627.410
321.168	15.643	829.826	626.962
322.183	15.779	829.052	626.828
323.197	15.676	828.938	626.303
324.212	15.679	828.153	625.665
325.227	15.631	827.864	625.214
326.241	15.685	827.049	624.742
327.256	15.624	826.604	624.125
328.270	15.745	826.051	624.102
329.285	15.702	825.507	623.477
330.300	15.711	824.881	622.982
331.314	15.633	824.402	622.275
332.329	15.741	823.709	622.096
333.343	15.914	822.852	622.033
334.358	15.841	822.319	621.305
335.373	15.809	822.106	620.973
336.387	15.865	821.357	620.558
337.402	15.961	820.876	620.495
338.416	16.009	820.367	620.232
339.431	16.013	819.649	619.646
340.446	15.982	819.281	619.201
341.460	16.120	818.571	619.115
342.475	16.069	817.993	618.438
343.489	16.023	817.615	617.928
344.504	16.226	816.719	617.941
345.519	16.160	816.476	617.458
346.533	16.239	815.985	617.324
347.548	16.310	815.468	617.134
348.562	16.202	814.985	616.320
349.577	16.145	814.352	615.579
350.592	16.100	814.071	615.148
351.606	16.041	813.533	614.474
352.621	16.165	813.106	614.548
353.635	15.999	812.824	613.677
354.650	16.290	812.228	614.231
355.665	16.145	811.835	613.351
356.679	16.044	812.002	613.057
357.694	16.112	811.279	612.704
358.708	16.316	810.062	612.469
359.723	16.308	809.601	612.038
360.738	16.367	808.940	611.698
361.752	16.302	808.947	611.413
362.767	16.111	808.595	610.403
363.781	16.213	807.900	610.192
364.796	16.270	807.544	610.074
365.810	16.287	807.361	609.945
366.825	16.424	806.554	609.774
367.840	16.403	806.494	609.601
368.854	16.416	806.204	609.376
369.869	16.490	805.221	608.843
370.883	16.494	804.844	608.518
371.898	16.473	804.144	607.862
372.913	16.572	803.698	607.825
373.927	16.557	802.875	607.096
374.942	16.532	802.527	606.688
375.956	16.543	801.852	606.164
376.971	16.661	801.133	605.989
377.986	16.611	801.042	605.687
379.000	16.605	800.534	605.229
380.015	16.714	799.837	605.038
381.029	16.635	799.543	604.480
382.044	16.657	799.089	604.161
383.059	16.713	798.300	603.712
384.073	16.870	797.733	603.787
385.088	16.776	797.422	603.165
386.102	16.709	796.574	602.232
387.117	16.591	796.478	601.687
388.132	16.647	795.511	601.101
389.146	16.791	795.310	601.407
390.161	16.785	794.638	600.826
391.175	16.852	794.459	600.875
392.190	16.791	794.354	600.527
393.205	16.865	793.502	600.089
394.219	16.825	793.118	599.604
395.234	16.719	792.881	598.998
396.248	16.792	792.309	598.771
397.263	16.753	791.653	598.084
398.278	16.840	791.162	597.968
399.292	16.794	790.616	597.339
400.307	16.837	790.239	597.154
401.321	16.905	789.964	597.134
402.336	16.799	789.768	596.559
403.350	16.806	789.467	596.303
404.365	16.818	788.791	595.783
405.380	16.887	788.103	595.452
406.394	17.064	788.106	596.020
407.409	17.185	787.288	595.774
408.423	17.272	786.696	595.578
409.438	17.091	786.578	594.803
410.453	17.031	786.482	594.470
411.467	17.109	785.948	594.284
412.482	17.295	785.066	594.215
413.496	17.206	784.722	593.591
414.511	17.161	784.501	593.214
415.526	17.346	783.967	593.403
416.540	17.226	783.499	592.579
417.555	17.291	783.392	592.671
418.569	17.218	782.795	591.915
419.584	17.296	782.701	592.063
420.599	17.437	781.645	591.701
421.613	108.556	1288.312	1465.925
422.628	92.912	1362.130	1466.029
