DTS Sentinel unit serial number:	SN413079Multiplexer serial number:	ORYXHardware model number:	OX4-SRSoftware version number:	ORYX F/W v4.00 Oryx Data Collector v3.7.2.0data status	okinstallation	princeton_trtdifferential loss correction	single-endedforward channel	channel 3reverse channel	N/Adate	2019/09/14time	22:48:35forward acquisition time	60.00reverse acquisition time	0.00gamma	496.2192k internal	0.2319k external	0.2319temperature offset calibration	0.9987default loss term (dB/km)	0.3790temperature slope calibration	1.0000multiplexer offset coefficient	1.0000multiplexer slope coefficient	1.0000fibre end	0.00T internal ref (°C)	32.50T ext. ref 1 (°C)	4.68T ext. ref 2 (°C)	27.49length (m)	temperature (°C)	Stokes	anti-Stokes-747.200	15.470	0.191	0.152
-746.185	-200.000	-0.002	0.268
-745.171	340.117	0.088	0.174
-744.156	26.999	-0.120	0.102
-743.142	162.378	-0.171	0.243
-742.127	134.520	-0.037	0.049
-741.112	-200.000	-0.005	-0.087
-740.098	39.969	-0.344	0.312
-739.083	252.088	0.098	0.168
-738.069	36.464	-0.208	0.185
-737.054	-96.439	-0.073	-0.019
-736.039	77.808	-0.316	-0.340
-735.025	143.893	-0.106	0.143
-734.010	202.783	-0.154	-0.241
-732.996	160.942	0.203	-0.287
-731.981	-125.838	0.201	0.031
-730.966	67.007	0.118	-0.122
-729.952	-79.337	0.232	0.080
-728.937	89.456	-0.160	-0.180
-727.923	-200.000	0.016	-0.220
-726.908	607.074	-0.153	-0.387
-725.894	594.736	-0.079	-0.196
-724.879	-167.915	-0.139	-0.006
-723.864	-132.803	0.190	0.025
-722.850	268.845	-0.031	0.055
-721.835	800.000	0.035	0.098
-720.821	-77.276	-0.292	-0.103
-719.806	-149.011	-0.575	0.047
-718.791	30.826	0.127	-0.110
-717.777	28.111	-0.113	0.096
-716.762	74.177	-0.280	-0.297
-715.748	8.092	-0.122	0.093
-714.733	-65.161	-0.189	-0.077
-713.718	82.812	-0.168	-0.184
-712.704	-42.002	0.275	0.142
-711.689	-200.000	0.033	-0.422
-710.675	800.000	0.021	-0.069
-709.660	-19.168	0.126	0.079
-708.645	714.040	-0.074	0.199
-707.631	32.189	0.078	0.068
-706.616	800.000	-0.073	-0.299
-705.602	334.449	-0.068	0.132
-704.587	-60.502	0.157	0.067
-703.572	-5.941	0.052	0.036
-702.558	85.706	0.059	-0.066
-701.543	47.209	-0.139	0.130
-700.529	-14.805	0.054	0.035
-699.514	328.825	0.080	0.155
-698.499	-200.000	-0.053	-0.283
-697.485	-166.743	0.155	-0.006
-696.470	265.484	0.067	0.118
-695.456	-200.000	-0.007	0.197
-694.441	-72.104	-0.160	-0.060
-693.426	37.578	-0.145	-0.130
-692.412	-24.012	0.125	0.075
-691.397	120.116	-0.085	-0.107
-690.383	-147.401	-0.106	-0.009
-689.368	269.765	-0.084	-0.150
-688.354	138.022	-0.097	0.128
-687.339	-99.090	0.270	0.069
-686.324	-200.000	0.055	-0.270
-685.310	245.472	-0.064	-0.108
-684.295	-179.630	0.242	0.005
-683.281	800.000	-0.014	-0.056
-682.266	26.763	-0.200	0.169
-681.251	116.610	-0.183	0.227
-680.237	-200.000	0.020	-0.109
-679.222	177.709	-0.061	0.090
-678.208	-200.000	-0.012	0.145
-677.193	-140.556	0.106	-0.011
-676.178	102.767	-0.116	0.136
-675.164	-200.000	0.033	-0.326
-674.149	800.000	-0.101	-0.354
-673.135	-74.595	-0.226	-0.082
-672.120	800.000	-0.083	0.260
-671.105	-52.330	0.389	0.182
-670.091	110.585	0.053	0.064
-669.076	-83.228	-0.263	0.085
-668.062	400.369	-0.071	-0.151
-667.047	-130.721	0.338	0.046
-666.032	53.529	0.066	0.064
-665.018	22.195	0.279	0.230
-664.003	229.655	-0.121	0.199
-662.989	64.488	0.244	-0.248
-661.974	-44.661	0.148	-0.074
-660.959	194.893	0.112	-0.171
-659.945	-37.487	-0.278	-0.150
-658.930	-166.900	-0.561	-0.023
-657.916	-83.812	-0.126	0.040
-656.901	95.634	-0.169	0.194
-655.886	53.371	-0.027	0.026
-654.872	-60.432	-0.081	-0.035
-653.857	175.024	-0.305	-0.445
-652.843	-84.361	0.024	-0.008
-651.828	136.307	0.082	-0.108
-650.814	-171.093	-0.311	-0.011
-649.799	800.000	0.071	-0.262
-648.784	10.672	0.196	-0.151
-647.770	-98.868	-0.295	-0.076
-646.755	-200.000	0.049	-0.227
-645.741	-6.198	-0.323	-0.223
-644.726	172.897	-0.238	0.345
-643.711	-200.000	-0.002	-0.079
-642.697	31.452	0.164	-0.142
-641.682	-200.000	0.017	-0.168
-640.668	-129.385	0.106	0.015
-639.653	-142.133	-0.175	0.017
-638.638	-5.298	-0.278	-0.192
-637.624	177.678	0.052	-0.076
-636.609	-117.676	0.383	0.069
-635.595	-47.310	0.090	0.044
-634.580	-29.899	0.093	-0.053
-633.565	123.249	-0.120	-0.152
-632.551	-162.113	0.266	-0.013
-631.536	115.881	-0.189	0.233
-630.522	-12.878	-0.292	0.191
-629.507	800.000	-0.043	-0.123
-628.492	269.320	-0.067	-0.119
-627.478	-23.548	0.118	0.071
-626.463	-72.325	0.314	-0.117
-625.449	-61.922	-0.134	-0.056
-624.434	-200.000	-0.026	-0.196
-623.419	800.000	0.141	-0.471
-622.405	-179.506	-0.016	0.000
-621.390	137.699	-0.221	-0.292
-620.376	-200.000	0.038	-0.196
-619.361	747.921	0.065	-0.176
-618.346	-128.792	0.116	-0.016
-617.332	85.710	-0.193	-0.213
-616.317	-135.896	0.083	0.010
-615.303	-200.000	-0.005	0.158
-614.288	307.799	0.128	0.241
-613.273	84.770	-0.231	-0.254
-612.259	-41.531	-0.192	0.099
-611.244	-200.000	-0.046	0.237
-610.230	4.621	-0.115	-0.085
-609.215	59.456	-0.129	0.128
-608.201	-98.482	-0.118	0.030
-607.186	-74.848	-0.024	0.009
-606.171	-200.000	-0.016	0.265
-605.157	-200.000	0.028	-0.139
-604.142	265.123	-0.105	-0.185
-603.128	140.510	-0.315	-0.418
-602.113	-12.048	-0.051	-0.033
-601.098	622.432	0.085	-0.214
-600.084	800.000	0.090	-0.266
-599.069	61.979	0.278	-0.278
-598.055	293.259	-0.114	-0.208
-597.040	-200.000	-0.000	-0.071
-596.025	375.420	-0.047	-0.096
-595.011	262.729	-0.094	0.164
-593.996	17.974	0.107	0.086
-592.982	-72.348	0.287	-0.107
-591.967	-200.000	-0.010	-0.135
-590.952	59.724	0.105	0.104
-589.938	0.198	0.117	0.084
-588.923	-20.669	-0.280	-0.173
-587.909	800.000	0.059	0.213
-586.894	-118.295	-0.169	0.030
-585.879	85.949	-0.324	0.358
-584.865	-60.020	-0.214	0.092
-583.850	-200.000	-0.017	-0.255
-582.836	-17.380	0.244	-0.155
-581.821	800.000	0.045	-0.135
-580.806	-160.704	-0.095	-0.005
-579.792	90.429	0.062	-0.069
-578.777	15.390	-0.216	-0.170
-577.763	-112.063	-0.280	0.057
-576.748	-43.505	0.241	-0.122
-575.733	55.325	0.315	-0.307
-574.719	-200.000	-0.027	0.196
-573.704	-148.952	-0.329	-0.027
-572.690	173.508	-0.103	-0.150
-571.675	184.044	0.239	-0.355
-570.661	365.993	-0.165	-0.335
-569.646	165.297	0.130	0.184
-568.631	558.193	0.041	-0.100
-567.617	512.230	-0.139	-0.324
-566.602	-99.577	-0.392	0.099
-565.588	-111.142	0.036	-0.008
-564.573	-170.940	0.243	-0.008
-563.558	17.149	-0.064	-0.051
-562.544	249.471	-0.105	-0.179
-561.529	-168.767	-0.362	-0.014
-560.515	800.000	-0.011	0.041
-559.500	24.294	-0.221	0.184
-558.485	-98.697	0.103	-0.026
-557.471	-145.566	0.222	-0.020
-556.456	800.000	-0.026	-0.110
-555.442	-36.183	-0.139	0.075
-554.427	148.171	0.215	0.292
-553.412	800.000	-0.040	-0.133
-552.398	176.178	0.158	-0.230
-551.383	-28.069	-0.170	0.099
-550.369	-55.384	-0.171	0.077
-549.354	-77.333	-0.503	-0.176
-548.339	-11.131	0.362	0.240
-547.325	17.075	0.254	-0.202
-546.310	-21.403	-0.346	-0.212
-545.296	-138.999	-0.133	-0.014
-544.281	-200.000	0.035	0.161
-543.266	149.026	-0.090	0.122
-542.252	45.620	0.203	0.188
-541.237	42.550	0.235	-0.214
-540.223	-150.062	0.203	0.016
-539.208	46.824	-0.072	0.067
-538.193	-24.509	-0.272	-0.162
-537.179	-200.000	0.028	-0.240
-536.164	-124.213	-0.252	-0.040
-535.150	610.384	0.143	0.359
-534.135	-200.000	0.034	-0.362
-533.121	143.329	0.154	-0.205
-532.106	101.716	-0.169	0.198
-531.091	47.296	0.148	0.138
-530.077	82.857	0.282	0.308
-529.062	316.162	0.036	-0.068
-528.048	140.126	-0.138	0.183
-527.033	120.379	-0.081	0.101
-526.018	800.000	-0.020	0.064
-525.004	-200.000	-0.028	-0.141
-523.989	-132.691	-0.100	0.013
-522.975	205.312	-0.083	-0.129
-521.960	-34.965	-0.053	0.029
-520.945	-200.000	0.009	-0.243
-519.931	-116.091	-0.246	0.046
-518.916	42.551	0.214	-0.195
-517.902	92.384	-0.144	0.163
-516.887	23.724	-0.095	0.079
-515.872	-67.146	-0.191	0.075
-514.858	-53.016	0.270	-0.125
-513.843	-188.038	-0.301	-0.004
-512.829	12.517	0.162	-0.126
-511.814	-96.586	-0.129	-0.034
-510.799	81.266	0.108	0.117
-509.785	-200.000	0.048	0.671
-508.770	201.328	-0.067	0.103
-507.756	-40.159	0.227	0.118
-506.741	-137.880	0.157	0.018
-505.726	-75.164	0.198	-0.071
-504.712	100.021	-0.119	-0.138
-503.697	3.458	0.189	0.138
-502.683	-156.239	0.103	-0.006
-501.668	-200.000	-0.034	0.469
-500.653	-32.729	0.304	0.169
-499.639	501.459	0.091	0.209
-498.624	-26.000	0.168	0.099
-497.610	291.002	0.074	-0.135
-496.595	800.000	0.085	0.244
-495.581	181.962	0.324	0.478
-494.566	-114.824	-0.375	-0.072
-493.551	29.051	0.028	-0.023
-492.537	261.227	-0.095	0.165
-491.522	800.000	-0.069	0.195
-490.508	774.142	0.036	-0.098
-489.493	-59.829	0.213	-0.091
-488.478	-67.329	0.145	0.057
-487.464	-123.008	0.132	-0.021
-486.449	514.609	-0.142	-0.333
-485.435	-16.227	-0.046	0.029
-484.420	261.169	0.153	-0.265
-483.405	613.260	0.116	0.290
-482.391	-123.408	0.071	-0.011
-481.376	139.806	-0.009	-0.012
-480.362	-200.000	0.025	-0.124
-479.347	-200.000	0.021	-0.221
-478.332	-56.266	-0.109	0.048
-477.318	-176.410	0.147	0.004
-476.303	-200.000	0.014	0.313
-475.289	40.718	0.082	-0.074
-474.274	165.611	-0.110	-0.156
-473.259	-48.821	-0.260	-0.125
-472.245	-200.000	0.013	0.197
-471.230	-164.318	0.185	-0.008
-470.216	-171.216	-0.306	-0.010
-469.201	-200.000	-0.081	0.548
-468.186	-22.625	0.051	-0.031
-467.172	-79.012	-0.436	-0.148
-466.157	168.955	0.086	-0.122
-465.143	-119.591	-0.104	-0.018
-464.128	566.031	-0.110	-0.268
-463.113	195.519	0.103	-0.156
-462.099	407.224	-0.165	-0.349
-461.084	107.850	0.242	-0.288
-460.070	-120.054	0.241	0.041
-459.055	617.005	0.091	0.228
-458.040	306.526	0.113	0.211
-457.026	567.093	-0.082	-0.198
-456.011	-93.077	0.259	-0.072
-454.997	329.097	-0.080	-0.153
-453.982	800.000	0.031	0.090
-452.968	-200.000	-0.026	0.185
-451.953	106.827	0.176	-0.210
-450.938	800.000	-0.041	0.116
-449.924	800.000	-0.062	0.230
-448.909	16.377	-0.229	-0.181
-447.895	364.908	-0.055	0.110
-446.880	-27.935	0.079	-0.046
-445.865	12.612	-0.316	-0.244
-444.851	-135.449	0.188	0.022
-443.836	-200.000	0.001	-0.037
-442.822	-153.793	-0.180	-0.012
-441.807	-102.528	0.032	-0.008
-440.792	-200.000	-0.002	-0.213
-439.778	125.553	-0.061	0.077
-438.763	350.428	-0.091	-0.180
-437.749	-171.037	-0.412	0.014
-436.734	-156.014	-0.297	0.019
-435.719	-200.000	-0.023	0.230
-434.705	1.936	0.271	0.196
-433.690	19.508	0.198	-0.159
-432.676	-57.038	-0.211	0.093
-431.661	-200.000	-0.007	-0.033
-430.646	196.760	0.198	-0.302
-429.632	-0.330	0.077	0.055
-428.617	125.695	-0.216	-0.272
-427.603	272.194	0.155	-0.273
-426.588	51.079	0.325	-0.308
-425.573	-127.483	0.113	-0.016
-424.559	-32.908	-0.101	0.056
-423.544	-200.000	0.000	-0.133
-422.530	28.922	0.098	-0.083
-421.515	46.366	0.061	0.056
-420.500	-169.182	0.141	-0.005
-419.486	-147.128	0.124	-0.011
-418.471	-52.635	-0.322	-0.148
-417.457	-26.687	0.135	0.079
-416.442	-59.516	0.190	-0.081
-415.428	153.673	-0.032	-0.044
-414.413	-14.360	0.114	0.073
-413.398	-200.000	-0.025	0.175
-412.384	-153.467	-0.042	0.003
-411.369	30.649	-0.160	-0.136
-410.355	-200.000	-0.006	-0.297
-409.340	94.446	0.052	0.059
-408.325	117.280	0.136	0.167
-407.311	220.794	-0.157	-0.252
-406.296	-200.000	0.009	-0.076
-405.282	-57.493	-0.144	-0.063
-404.267	23.473	-0.046	-0.038
-403.252	-88.529	-0.181	0.054
-402.238	203.691	0.157	0.242
-401.223	-16.388	-0.220	-0.139
-400.209	800.000	0.073	-0.207
-399.194	-39.709	0.196	0.102
-398.179	800.000	0.067	-0.211
-397.165	393.860	-0.079	0.165
-396.150	21.880	-0.136	-0.111
-395.136	800.000	0.082	0.253
-394.121	-7.468	0.317	-0.214
-393.106	-200.000	0.000	-0.114
-392.092	-200.000	0.014	-0.101
-391.077	-200.000	-0.037	0.268
-390.063	732.540	-0.040	-0.106
-389.048	-139.159	-0.177	0.019
-388.033	-107.491	-0.220	-0.048
-387.019	800.000	-0.046	-0.139
-386.004	-24.341	-0.079	0.047
-384.990	-191.507	-0.304	-0.003
-383.975	353.857	0.048	-0.094
-382.960	800.000	0.053	0.175
-381.946	125.573	-0.140	0.176
-380.931	-200.000	-0.030	0.136
-379.917	79.033	0.176	0.188
-378.902	62.408	-0.105	0.104
-377.888	157.023	0.264	0.364
-376.873	-84.458	0.052	0.017
-375.858	-67.883	0.058	-0.022
-374.844	-21.309	0.284	0.173
-373.829	-200.000	-0.016	0.085
-372.815	-200.000	-0.018	0.113
-371.800	-116.879	0.123	0.022
-370.785	-172.959	-0.113	0.003
-369.771	-137.784	-0.235	0.026
-368.756	-200.000	0.035	-0.173
-367.742	-93.622	0.174	-0.048
-366.727	100.186	-0.138	-0.160
-365.712	90.398	0.121	-0.135
-364.698	-96.362	-0.238	0.063
-363.683	-200.000	0.062	-0.306
-362.669	800.000	-0.061	0.204
-361.654	4.112	0.269	-0.196
-360.639	-28.754	-0.328	0.188
-359.625	309.345	0.049	0.092
-358.610	130.016	-0.074	0.094
-357.596	-115.636	0.188	-0.035
-356.581	-36.942	0.234	0.125
-355.566	146.838	-0.200	0.267
-354.552	800.000	0.040	0.120
-353.537	-98.296	0.457	0.117
-352.523	800.000	0.064	0.230
-351.508	429.211	0.013	-0.029
-350.493	-33.902	0.246	-0.135
-349.479	800.000	-0.073	0.297
-348.464	133.175	0.057	-0.073
-347.450	-10.801	-0.222	-0.146
-346.435	91.368	0.177	0.198
-345.420	614.075	-0.065	-0.163
-344.406	62.845	0.050	-0.049
-343.391	-76.024	-0.648	-0.228
-342.377	-135.598	-0.228	-0.027
-341.362	1.994	0.319	-0.229
-340.348	-122.829	-0.443	-0.071
-339.333	-65.791	0.029	0.012
-338.318	-200.000	-0.002	-0.288
-337.304	-125.539	-0.100	0.015
-336.289	-200.000	0.097	0.469
-335.275	-175.372	-0.369	0.010
-334.260	-72.452	-0.183	-0.067
-333.245	-126.617	-0.143	0.021
-332.231	161.099	-0.140	-0.194
-331.216	313.370	0.069	0.129
-330.202	-10.036	0.163	-0.108
-329.187	241.869	-0.151	0.252
-328.172	-200.000	0.013	-0.114
-327.158	-180.280	-0.215	-0.004
-326.143	440.886	0.118	-0.256
-325.129	-63.300	0.225	-0.092
-324.114	-93.262	0.336	0.093
-323.099	800.000	0.033	0.098
-322.085	-200.000	0.043	0.280
-321.070	800.000	0.026	0.111
-320.056	117.281	-0.230	-0.281
-319.041	-111.501	0.266	-0.054
-318.026	-93.966	-0.349	-0.095
-317.012	18.816	0.124	0.099
-315.997	-150.568	0.319	0.024
-314.983	401.802	0.146	0.305
-313.968	-87.152	-0.252	0.076
-312.953	-9.789	-0.273	-0.181
-311.939	-53.506	0.408	0.186
-310.924	-155.854	0.251	-0.016
-309.910	-20.997	-0.023	-0.014
-308.895	48.916	-0.172	0.161
-307.880	207.649	-0.186	0.289
-306.866	-185.931	-0.163	-0.002
-305.851	800.000	0.091	-0.315
-304.837	-200.000	0.039	-0.249
-303.822	-200.000	0.003	0.168
-302.807	800.000	0.056	0.210
-301.793	-200.000	0.012	0.260
-300.778	-200.000	0.070	0.309
-299.764	719.334	0.038	0.099
-298.749	43.570	0.162	0.148
-297.735	119.493	0.068	0.084
-296.720	612.988	-0.117	-0.292
-295.705	-47.115	0.312	-0.151
-294.691	-70.821	-0.163	-0.061
-293.676	-200.000	-0.014	-0.068
-292.662	-31.091	0.148	-0.083
-291.647	149.559	0.105	-0.142
-290.632	557.792	-0.200	-0.480
-289.618	-110.520	-0.315	-0.065
-288.603	-155.742	0.238	-0.015
-287.589	334.759	0.081	-0.156
-286.574	181.031	-0.063	0.092
-285.559	50.655	0.349	-0.329
-284.545	198.163	0.108	0.164
-283.530	16.707	-0.116	0.091
-282.516	259.466	0.096	0.165
-281.501	433.662	-0.197	-0.425
-280.486	367.948	0.176	-0.352
-279.472	471.965	-0.103	0.231
-278.457	-123.966	-0.075	0.012
-277.443	-18.240	0.113	0.070
-276.428	205.019	0.050	0.077
-275.413	-62.057	-0.282	0.117
-274.399	-96.598	0.096	-0.025
-273.384	-167.084	0.259	-0.010
-272.370	800.000	0.091	0.358
-271.355	162.479	0.190	0.265
-270.340	-46.723	0.224	0.109
-269.326	800.000	-0.055	-0.161
-268.311	568.941	-0.076	-0.184
-267.297	82.297	0.344	0.370
-266.282	22.066	-0.215	-0.174
-265.267	-172.667	0.126	0.004
-264.253	-28.225	0.075	0.043
-263.238	-200.000	0.090	0.563
-262.224	192.098	0.052	0.078
-261.209	-200.000	0.015	0.306
-260.195	788.280	0.067	0.184
-259.180	-161.086	-0.255	0.013
-258.165	-157.535	0.424	-0.025
-257.151	-169.409	-0.059	-0.002
-256.136	-200.000	-0.016	0.182
-255.122	121.613	0.109	-0.134
-254.107	-135.636	0.265	0.031
-253.092	-200.000	-0.003	-0.114
-252.078	-30.349	-0.289	-0.163
-251.063	101.601	-0.213	-0.247
-250.049	-116.003	-0.355	0.066
-249.034	-51.858	-0.140	-0.065
-248.019	-200.000	-0.024	0.431
-247.005	283.642	0.148	0.265
-245.990	229.834	0.104	0.169
-244.976	-64.607	-0.307	-0.123
-243.961	13.212	-0.332	-0.255
-242.946	-200.000	0.034	0.174
-241.932	-170.034	0.341	-0.012
-240.917	458.928	-0.083	-0.182
-239.903	48.350	-0.203	0.189
-238.888	76.945	0.292	-0.308
-237.873	-55.138	0.129	-0.058
-236.859	-120.120	-0.259	0.044
-235.844	-65.151	0.403	-0.161
-234.830	-152.969	-0.334	-0.023
-233.815	-123.910	0.259	0.040
-232.800	323.540	-0.131	-0.248
-231.786	-21.842	-0.192	-0.116
-230.771	-66.763	-0.117	-0.046
-229.757	-33.269	0.246	-0.135
-228.742	128.587	0.244	0.308
-227.727	-69.310	0.209	-0.080
-226.713	-129.022	0.089	0.012
-225.698	-200.000	-0.051	0.314
-224.684	600.208	0.014	-0.035
-223.669	-200.000	-0.085	-0.372
-222.655	-69.493	0.104	-0.040
-221.640	157.243	0.093	-0.127
-220.625	-200.000	-0.027	0.176
-219.611	-3.874	0.283	0.195
-218.596	-200.000	0.019	0.233
-217.582	-200.000	-0.009	-0.057
-216.567	73.118	0.181	-0.187
-215.552	-85.434	0.288	0.089
-214.538	-135.597	-0.227	0.027
-213.523	-200.000	0.006	-0.336
-212.509	588.386	0.187	0.457
-211.494	-116.088	-0.302	-0.056
-210.479	-200.000	-0.030	-0.184
-209.465	-154.752	0.273	0.018
-208.450	187.014	0.010	-0.014
-207.436	-136.267	-0.185	-0.021
-206.421	114.621	0.125	-0.151
-205.406	337.357	-0.075	0.145
-204.392	-200.000	-0.015	-0.156
-203.377	-76.558	0.173	-0.060
-202.363	238.449	0.204	0.336
-201.348	201.242	0.283	0.431
-200.333	-45.392	-0.449	0.220
-199.319	-41.515	0.272	0.138
-198.304	-200.000	-0.003	0.141
-197.290	-163.319	-0.139	-0.007
-196.275	255.144	0.057	0.096
-195.260	518.848	0.104	0.242
-194.246	-85.305	0.061	-0.019
-193.231	50.389	0.130	-0.121
-192.217	394.595	-0.065	0.135
-191.202	800.000	-0.072	0.307
-190.187	-63.198	-0.086	0.035
-189.173	18.862	0.176	0.139
-188.158	14.848	0.305	0.236
-187.144	-118.837	-0.119	-0.021
-186.129	-200.000	0.011	0.124
-185.114	13.089	-0.011	0.008
-184.100	-78.960	-0.312	0.105
-183.085	-118.607	-0.259	0.045
-182.071	800.000	-0.033	-0.108
-181.056	-30.941	-0.166	0.093
-180.042	-5.815	-0.186	-0.126
-179.027	81.714	-0.253	0.271
-178.012	173.152	0.111	0.158
-176.998	-200.000	0.019	0.088
-175.983	-31.017	-0.316	-0.176
-174.969	-200.000	-0.040	0.241
-173.954	-153.712	0.239	0.016
-172.939	68.845	-0.237	-0.241
-171.925	-34.177	0.260	0.141
-170.910	-200.000	0.042	0.360
-169.896	287.453	0.055	0.099
-168.881	-109.511	-0.194	0.040
-167.866	17.188	0.046	-0.036
-166.852	-3.615	-0.137	-0.094
-165.837	-31.648	0.254	-0.141
-164.823	-84.085	-0.075	0.024
-163.808	-12.300	-0.271	-0.175
-162.793	-200.000	-0.008	0.231
-161.779	-109.640	0.339	0.071
-160.764	-200.000	-0.002	0.279
-159.750	357.898	0.163	0.321
-158.735	169.874	0.103	-0.146
-157.720	259.715	0.083	-0.142
-156.706	800.000	-0.043	-0.142
-155.691	-116.111	-0.143	0.026
-154.677	124.236	-0.152	0.188
-153.662	800.000	0.072	0.281
-152.647	229.479	0.033	0.054
-151.633	63.216	-0.138	-0.137
-150.618	-144.023	0.445	-0.041
-149.604	-117.087	0.067	-0.012
-148.589	6.656	0.144	-0.106
-147.574	800.000	-0.076	0.208
-146.560	-126.611	-0.073	-0.011
-145.545	800.000	-0.073	0.200
-144.531	17.708	0.137	-0.108
-143.516	800.000	-0.055	-0.159
-142.502	18.241	-0.137	-0.108
-141.487	79.920	0.160	-0.170
-140.472	800.000	-0.010	0.030
-139.458	122.539	0.227	0.280
-138.443	10.320	-0.125	-0.094
-137.429	116.792	-0.241	-0.292
-136.414	-200.000	0.025	0.117
-135.399	800.000	0.022	0.061
-134.385	800.000	-0.083	0.271
-133.370	204.822	0.149	0.229
-132.356	-136.208	-0.253	0.029
-131.341	-67.281	-0.105	0.041
-130.326	-41.306	-0.054	-0.028
-129.312	800.000	-0.044	0.134
-128.297	-200.000	-0.002	0.240
-127.283	-200.000	-0.024	0.217
-126.268	-6.383	0.118	-0.079
-125.253	189.243	-0.090	0.133
-124.239	-200.000	0.066	0.473
-123.224	-175.835	0.396	0.010
-122.210	53.691	0.334	0.317
-121.195	800.000	-0.043	-0.180
-120.180	-200.000	0.057	0.323
-119.166	-200.000	0.030	0.356
-118.151	76.647	0.109	0.114
-117.137	-49.481	-0.174	-0.082
-116.122	-154.225	0.365	-0.024
-115.107	199.801	0.045	-0.068
-114.093	312.607	0.005	-0.010
-113.078	364.342	-0.062	-0.123
-112.064	-28.188	-0.143	-0.081
-111.049	-15.604	0.176	0.111
-110.034	-200.000	0.016	0.114
-109.020	-54.957	0.247	0.110
-108.005	9.061	-0.132	0.098
-106.991	-30.053	-0.041	-0.023
-105.976	216.107	-0.028	0.045
-104.962	-129.126	0.241	0.033
-103.947	152.508	0.160	0.216
-102.932	240.505	-0.069	0.114
-101.918	-40.266	-0.132	0.068
-100.903	-12.502	0.253	-0.163
-99.889	-66.362	-0.079	0.031
-98.874	-200.000	-0.085	0.376
-97.859	43.105	0.097	0.087
-96.845	191.248	-0.235	-0.350
-95.830	10.540	0.015	0.011
-94.816	146.330	-0.050	-0.066
-93.801	17.159	0.071	0.056
-92.786	112.805	0.201	0.240
-91.772	-200.000	-0.046	0.295
-90.757	74.918	0.196	-0.203
-89.743	-200.000	-0.012	0.314
-88.728	113.413	-0.246	-0.294
-87.713	-60.848	-0.286	-0.119
-86.699	103.046	0.066	0.076
-85.684	23.804	0.156	0.127
-84.670	-200.000	0.013	-0.365
-83.655	425.730	0.198	0.421
-82.640	128.191	-0.073	-0.092
-81.626	-121.000	0.147	0.024
-80.611	4.519	-0.196	0.141
-79.597	-99.559	0.248	-0.061
-78.582	130.273	-0.066	-0.083
-77.567	-200.000	-0.049	0.264
-76.553	-200.000	-0.011	-0.062
-75.538	-90.691	-0.077	0.022
-74.524	158.368	0.037	-0.051
-73.509	326.661	0.056	-0.105
-72.494	378.285	-0.121	0.243
-71.480	492.098	0.096	0.218
-70.465	315.494	0.169	0.313
-69.451	-95.759	0.189	-0.050
-68.436	428.122	-0.084	0.178
-67.422	138.642	0.077	0.099
-66.407	241.262	-0.016	0.027
-65.392	-50.527	0.245	-0.114
-64.378	99.846	0.035	0.040
-63.363	480.641	0.117	0.262
-62.349	157.392	-0.128	0.174
-61.334	100.059	-0.686	-0.783
-60.319	184.831	0.346	0.506
-59.305	444.705	-0.324	-0.700
-58.290	484.336	0.479	1.074
-57.276	800.000	0.423	1.438
-56.261	-200.000	94.933	581.671
-55.246	663.674	1368.700	3477.315
-54.232	200.064	2540.926	3841.854
-53.217	119.557	2161.023	2635.299
-52.203	43.180	1707.520	1534.691
-51.188	35.725	1520.497	1315.768
-50.173	33.334	1493.748	1276.470
-49.159	52.280	1542.201	1448.084
-48.144	54.075	1559.797	1476.854
-47.130	35.877	1519.933	1316.112
-46.115	32.706	1505.017	1281.628
-45.100	32.622	1501.506	1278.019
-44.086	32.475	1500.400	1276.028
-43.071	32.605	1497.952	1274.778
-42.057	32.451	1497.012	1272.886
-41.042	32.552	1495.114	1271.905
-40.027	32.492	1493.915	1270.431
-39.013	32.503	1491.873	1268.713
-37.998	32.415	1490.801	1267.163
-36.984	32.394	1490.282	1266.526
-35.969	32.507	1488.875	1266.045
-34.954	32.511	1487.171	1264.572
-33.940	32.523	1485.589	1263.254
-32.925	32.596	1484.186	1262.500
-31.911	32.581	1482.846	1261.210
-30.896	32.565	1481.477	1259.889
-29.881	32.616	1480.322	1259.197
-28.867	32.564	1478.491	1257.244
-27.852	32.497	1477.601	1255.991
-26.838	32.566	1475.882	1254.940
-25.823	32.596	1474.380	1253.813
-24.809	32.530	1472.433	1251.669
-23.794	32.493	1471.029	1250.176
-22.779	32.598	1470.195	1250.119
-21.765	32.536	1468.980	1248.626
-20.750	32.508	1467.592	1247.209
-19.736	32.512	1466.397	1246.173
-18.721	32.538	1465.446	1245.485
-17.706	32.552	1464.526	1244.746
-16.692	32.554	1463.170	1243.558
-15.677	32.511	1462.517	1242.668
-14.663	32.460	1461.542	1241.453
-13.648	32.371	1460.804	1240.189
-12.633	32.466	1459.891	1239.994
-11.619	32.399	1459.200	1238.913
-10.604	32.492	1457.833	1238.315
-9.590	32.474	1457.398	1237.778
-8.575	32.412	1456.015	1236.149
-7.560	32.402	1455.232	1235.373
-6.546	32.497	1454.516	1235.335
-5.531	32.504	1453.351	1234.346
-4.517	32.408	1452.215	1232.698
-3.502	32.409	1451.259	1231.845
-2.487	32.472	1450.384	1231.469
-1.473	32.410	1449.669	1230.407
-0.458	32.493	1447.758	1229.277
0.556	31.439	1438.457	1217.951
1.571	28.555	1412.571	1177.451
2.586	25.182	1351.779	1105.918
3.600	23.426	1269.913	1028.671
4.615	22.104	1223.873	983.892
5.629	19.179	1167.954	923.197
6.644	11.468	1084.891	818.923
7.659	5.501	1045.366	760.103
8.673	4.815	1040.052	752.859
9.688	4.674	1037.179	750.034
10.702	4.632	1035.427	748.497
11.717	4.589	1033.648	746.937
12.731	6.826	1035.198	758.748
13.746	13.944	1045.265	800.471
14.761	18.997	1051.675	829.746
15.775	18.730	1050.326	827.323
16.790	17.710	1048.184	820.654
17.804	16.633	1045.572	813.365
18.819	15.797	1043.878	807.959
19.834	15.384	1042.063	804.506
20.848	15.089	1041.465	802.557
21.863	14.834	1040.954	800.872
22.877	14.604	1040.264	799.169
23.892	14.329	1039.416	797.132
24.907	14.263	1038.477	796.025
25.921	14.322	1038.045	795.905
26.936	14.308	1037.181	795.105
27.950	14.424	1035.895	794.601
28.965	14.444	1034.885	793.853
29.980	14.447	1033.749	792.924
30.994	14.508	1032.667	792.312
32.009	14.582	1031.983	792.069
33.023	14.650	1030.804	791.416
34.038	14.725	1030.259	791.286
35.053	14.541	1029.546	789.794
36.067	14.605	1027.694	788.606
37.082	14.421	1027.214	787.299
38.096	14.584	1026.708	787.614
39.111	14.585	1025.827	786.869
40.126	14.616	1024.862	786.209
41.140	14.460	1023.837	784.616
42.155	14.426	1022.610	783.450
43.169	14.235	1021.926	781.957
44.184	14.264	1020.481	780.916
45.199	14.174	1019.729	779.851
46.213	14.226	1018.552	779.125
47.228	14.329	1017.758	778.930
48.242	14.423	1016.861	778.614
49.257	14.508	1015.452	777.863
50.271	14.486	1014.550	777.003
51.286	14.371	1014.142	776.085
52.301	14.491	1012.933	775.651
53.315	14.494	1012.577	775.324
54.330	14.440	1011.545	774.214
55.344	14.287	1010.819	772.878
56.359	14.357	1009.425	772.068
57.374	14.411	1008.715	771.708
58.388	14.336	1007.930	770.690
59.403	14.285	1007.237	769.858
60.417	14.198	1006.285	768.662
61.432	14.292	1005.959	768.778
62.447	14.112	1005.181	767.284
63.461	14.122	1004.198	766.514
64.476	14.241	1002.973	766.055
65.490	14.188	1002.179	765.140
66.505	14.149	1001.609	764.457
67.520	14.096	1001.036	763.709
68.534	14.181	1000.330	763.494
69.549	14.238	999.369	762.952
70.563	14.291	998.480	762.448
71.578	14.197	997.972	761.564
72.593	14.032	996.922	759.940
73.607	14.047	995.700	759.010
74.622	13.971	994.992	758.057
75.636	13.910	994.391	757.253
76.651	14.034	993.106	756.770
77.666	13.972	992.965	756.316
78.680	14.080	991.829	755.874
79.695	14.056	991.574	755.503
80.709	14.144	990.770	755.223
81.724	14.224	990.116	755.024
82.739	14.236	989.387	754.455
83.753	14.201	988.906	753.860
84.768	14.448	987.434	753.790
85.782	14.506	987.169	753.784
86.797	14.681	986.161	753.739
87.812	14.539	985.776	752.737
88.826	14.481	984.721	751.603
89.841	14.435	984.127	750.873
90.855	14.500	983.157	750.359
91.870	14.607	982.160	750.012
92.884	14.523	981.771	749.272
93.899	14.590	980.742	748.723
94.914	14.574	980.207	748.174
95.928	14.625	979.600	747.876
96.943	14.634	979.167	747.518
97.957	14.531	978.352	746.369
98.972	14.706	976.883	745.963
99.987	14.562	976.604	745.044
101.001	14.580	975.556	744.259
102.016	14.515	974.899	743.401
103.030	14.540	973.827	742.631
104.045	14.412	973.347	741.628
105.060	14.559	972.335	741.445
106.074	14.508	970.880	740.042
107.089	14.422	970.033	738.951
108.103	14.255	969.273	737.566
109.118	14.249	968.352	736.772
110.133	14.130	967.959	735.883
111.147	14.238	966.911	735.500
112.162	14.300	965.711	734.793
113.176	14.296	964.799	734.016
114.191	14.290	964.086	733.381
115.206	14.356	963.574	733.219
116.220	14.385	962.733	732.643
117.235	14.172	962.227	731.255
118.249	14.261	960.728	730.441
119.264	14.310	960.209	730.197
120.279	14.239	959.496	729.279
121.293	14.216	958.466	728.334
122.308	14.174	958.081	727.791
123.322	14.243	956.453	726.794
124.337	14.124	956.148	725.975
125.352	14.150	954.802	725.003
126.366	14.099	953.802	723.957
127.381	14.083	952.771	723.040
128.395	14.146	952.295	722.891
129.410	14.113	950.993	721.695
130.424	14.124	950.220	721.094
131.439	14.246	949.153	720.747
132.454	14.280	948.384	720.245
133.468	14.319	947.671	719.809
134.483	14.379	947.337	719.754
135.497	14.439	946.175	719.064
136.512	14.396	945.723	718.473
137.527	14.328	945.010	717.575
138.541	14.356	944.290	717.084
139.556	14.340	943.301	716.201
140.570	14.362	942.302	715.475
141.585	14.488	941.759	715.540
142.600	14.447	941.451	715.066
143.614	14.655	940.545	715.204
144.629	14.697	939.754	714.720
145.643	14.610	939.078	713.771
146.658	14.617	938.213	713.080
147.673	14.540	937.256	711.960
148.687	14.505	936.485	711.165
149.702	14.453	935.376	710.036
150.716	14.448	934.808	709.520
151.731	14.408	934.293	708.899
152.746	14.345	933.378	707.872
153.760	14.369	932.867	707.527
154.775	14.521	931.955	707.416
155.789	14.519	931.175	706.752
156.804	14.500	930.684	706.236
157.819	14.522	929.863	705.645
158.833	14.585	928.991	705.187
159.848	14.623	928.452	704.877
160.862	14.591	928.069	704.385
161.877	14.722	927.152	704.179
162.892	14.639	926.229	703.069
163.906	14.406	925.398	701.393
164.921	14.485	924.213	700.766
165.935	14.488	923.585	700.241
166.950	14.511	922.574	699.507
167.964	14.552	922.021	699.200
168.979	14.564	920.956	698.381
169.994	14.591	919.787	697.546
171.008	14.513	918.891	696.476
172.023	14.586	918.577	696.484
173.037	14.646	917.869	696.136
174.052	14.824	916.510	695.782
175.067	14.710	916.265	695.060
176.081	14.564	915.457	693.778
177.096	14.423	914.522	692.424
178.110	14.559	913.675	692.284
179.125	14.570	913.185	691.900
180.140	14.524	912.366	691.026
181.154	14.569	911.515	690.509
182.169	14.641	911.198	690.502
183.183	14.713	910.743	690.395
184.198	14.818	909.688	689.967
185.213	14.752	909.121	689.205
186.227	14.904	908.257	689.114
187.242	14.809	908.534	688.873
188.256	14.888	907.901	688.656
189.271	14.968	906.637	687.969
190.286	14.889	906.034	687.123
191.300	14.737	905.274	685.861
192.315	14.509	904.583	684.342
193.329	14.587	903.689	683.926
194.344	14.687	902.424	683.316
195.359	14.574	902.615	682.940
196.373	14.733	901.891	682.980
197.388	14.751	901.653	682.812
198.402	14.824	901.403	682.863
199.417	14.959	900.824	682.916
200.432	15.106	900.309	683.065
201.446	15.106	900.075	682.826
202.461	15.117	899.387	682.286
203.475	15.339	898.553	682.498
204.490	15.262	897.955	681.669
205.504	15.187	897.320	680.823
206.519	15.064	896.619	679.730
207.534	15.113	895.722	679.190
208.548	15.011	895.049	678.206
209.563	15.045	894.750	678.059
210.577	15.033	893.867	677.280
211.592	15.098	893.046	676.862
212.607	15.183	892.526	676.750
213.621	15.312	891.947	676.774
214.636	15.323	891.127	676.134
215.650	15.114	890.715	674.919
216.665	15.234	889.794	674.643
217.680	15.215	889.838	674.543
218.694	15.311	889.255	674.427
219.709	15.414	888.617	674.296
220.723	15.349	888.046	673.543
221.738	15.302	887.596	672.955
222.753	15.362	886.640	672.411
223.767	15.263	885.910	671.401
224.782	15.229	885.095	670.585
225.796	15.336	884.260	670.321
226.811	15.562	883.605	670.668
227.826	15.463	883.128	669.855
228.840	15.472	882.108	669.055
229.855	15.286	881.714	667.957
230.869	15.528	880.964	668.293
231.884	15.406	880.500	667.395
232.899	15.345	879.894	666.634
233.913	15.386	878.885	665.974
234.928	15.289	878.493	665.233
235.942	15.180	877.973	664.348
236.957	15.228	877.370	664.024
237.972	15.260	876.657	663.555
238.986	15.280	875.847	662.958
240.001	15.342	875.127	662.602
241.015	15.375	874.346	662.080
242.030	15.407	873.775	661.717
243.045	15.492	873.186	661.548
244.059	15.377	872.937	660.846
245.074	15.530	872.241	660.864
246.088	15.501	871.754	660.322
247.103	15.624	870.783	660.009
248.117	15.587	870.264	659.414
249.132	15.649	869.895	659.321
250.147	15.751	869.090	659.050
251.161	15.979	868.686	659.580
252.176	15.966	868.266	659.152
253.190	16.033	867.318	658.636
254.205	16.016	866.998	658.267
255.220	16.097	866.283	657.982
256.234	16.006	865.747	657.161
257.249	16.087	864.897	656.772
258.263	16.031	864.447	656.158
259.278	16.100	863.796	655.875
260.293	15.993	863.656	655.293
261.307	16.178	862.780	655.288
262.322	16.197	862.074	654.768
263.336	16.201	861.744	654.474
264.351	16.258	861.293	654.294
265.366	16.197	860.805	653.630
266.380	16.236	859.561	652.778
267.395	16.238	858.831	652.173
268.409	16.174	858.551	651.657
269.424	16.127	857.912	650.933
270.439	16.070	857.245	650.149
271.453	16.237	856.176	649.923
272.468	15.994	855.496	648.416
273.482	16.081	855.136	648.419
274.497	16.104	854.578	648.028
275.512	16.364	853.340	648.029
276.526	16.066	853.155	646.686
277.541	16.133	852.414	646.326
278.555	16.170	852.130	646.194
279.570	16.137	851.623	645.628
280.585	16.287	851.091	645.740
281.599	16.273	850.329	645.050
282.614	16.205	850.062	644.531
283.628	16.376	849.005	644.324
284.643	16.347	848.395	643.695
285.657	16.352	847.655	643.097
286.672	16.397	847.437	643.045
287.687	16.388	847.083	642.684
288.701	16.268	846.642	641.837
289.716	16.346	845.989	641.582
290.730	16.371	845.351	641.135
291.745	16.487	844.723	641.042
292.760	16.357	844.316	640.185
293.774	16.394	843.778	639.861
294.789	16.509	843.324	639.893
295.803	16.466	842.512	639.060
296.818	16.298	841.954	637.947
297.833	16.390	841.183	637.651
298.847	16.451	840.223	637.097
299.862	16.546	839.623	636.946
300.876	16.391	839.534	636.238
301.891	16.477	838.793	635.942
302.906	16.642	837.622	635.617
303.920	16.530	837.551	635.086
304.935	16.763	836.959	635.457
305.949	16.788	835.963	634.738
306.964	16.905	835.411	634.701
307.979	16.889	834.744	634.076
308.993	16.608	834.648	632.897
310.008	16.871	833.981	633.318
311.022	16.873	833.473	632.885
312.037	16.751	832.888	631.927
313.052	16.727	832.606	631.569
314.066	16.679	831.654	630.614
315.081	16.679	830.992	630.054
316.095	16.673	830.317	629.466
317.110	16.627	829.901	628.921
318.125	16.636	829.362	628.493
319.139	16.678	828.588	628.006
320.154	16.694	828.415	627.878
321.168	16.657	827.986	627.360
322.183	16.910	827.236	627.673
323.197	16.890	826.768	627.190
324.212	16.818	826.197	626.434
325.227	16.686	825.885	625.654
326.241	16.834	825.158	625.595
327.256	16.875	824.512	625.202
328.270	16.723	824.036	624.225
329.285	16.788	823.703	624.156
330.300	16.848	822.514	623.422
331.314	16.821	822.319	623.117
332.329	16.648	821.930	622.135
333.343	16.878	821.291	622.438
334.358	16.952	820.680	622.192
335.373	16.851	820.135	621.353
336.387	16.926	819.662	621.217
337.402	16.876	819.435	620.805
338.416	16.962	818.668	620.482
339.431	17.043	817.969	620.194
340.446	16.880	817.998	619.565
341.460	17.204	816.951	619.901
342.475	17.473	816.212	620.266
343.489	17.271	816.067	619.366
344.504	17.286	815.587	619.000
345.519	17.404	814.987	618.919
346.533	17.434	814.462	618.576
347.548	17.442	813.912	618.131
348.562	17.413	813.278	617.488
349.577	17.164	812.974	616.302
350.592	17.074	812.414	615.496
351.606	17.008	811.936	614.839
352.621	17.204	811.091	614.854
353.635	17.287	810.493	614.646
354.650	17.140	810.856	614.338
355.665	17.274	809.931	614.066
356.679	17.272	809.729	613.852
357.694	17.254	809.593	613.627
358.708	17.339	808.578	613.111
359.723	17.350	807.906	612.586
360.738	17.308	807.562	612.122
361.752	17.268	807.388	611.791
362.767	17.391	806.799	611.732
363.781	17.363	806.230	611.146
364.796	17.488	805.993	611.361
365.810	17.420	805.835	610.945
366.825	17.595	805.219	611.049
367.840	17.676	804.796	610.966
368.854	17.617	804.535	610.501
369.869	17.552	803.712	609.590
370.883	17.664	803.046	609.433
371.898	17.589	802.610	608.779
372.913	17.558	802.172	608.284
373.927	17.722	801.647	608.417
374.942	17.616	801.141	607.600
375.956	17.674	800.215	607.052
376.971	17.724	799.714	606.794
377.986	17.809	799.198	606.654
379.000	17.820	799.027	606.508
380.015	17.781	798.452	605.878
381.029	17.835	797.943	605.631
382.044	17.781	797.477	605.032
383.059	17.862	796.567	604.575
384.073	18.004	796.115	604.683
385.088	17.784	795.881	603.671
386.102	17.667	795.009	602.543
387.117	17.843	794.169	602.475
388.132	17.840	793.902	602.208
389.146	17.962	793.478	602.264
390.161	17.908	792.927	601.603
391.175	17.880	792.595	601.197
392.190	17.999	792.435	601.444
393.205	17.814	792.145	600.517
394.219	17.872	791.444	600.136
395.234	17.745	790.950	599.262
396.248	17.728	790.730	598.982
397.263	17.796	790.243	598.799
398.278	17.804	789.865	598.488
399.292	17.848	789.343	598.196
400.307	17.678	788.923	597.229
401.321	17.735	788.448	597.014
402.336	17.976	788.139	597.572
403.350	17.829	787.830	596.770
404.365	17.839	787.273	596.331
405.380	17.945	786.803	596.291
406.394	17.893	786.560	595.873
407.409	18.054	785.985	595.947
408.423	18.347	785.262	596.368
409.438	18.301	785.275	596.163
410.453	18.341	784.661	595.783
411.467	18.311	784.134	595.227
412.482	18.298	783.949	594.988
413.496	18.278	783.433	594.476
414.511	18.344	783.194	594.470
415.526	18.429	782.561	594.230
416.540	18.185	782.615	593.374
417.555	18.317	781.687	593.076
418.569	18.272	781.345	592.606
419.584	18.328	780.975	592.470
420.599	18.328	780.611	592.139
421.613	156.351	1369.193	1794.781
422.628	134.942	1454.955	1794.877
