DTS Sentinel unit serial number:	SN413079Multiplexer serial number:	ORYXHardware model number:	OX4-SRSoftware version number:	ORYX F/W v4.00 Oryx Data Collector v3.7.2.0data status	okinstallation	princeton_trtdifferential loss correction	single-endedforward channel	channel 3reverse channel	N/Adate	2019/09/15time	00:44:34forward acquisition time	60.00reverse acquisition time	0.00gamma	496.2192k internal	0.2319k external	0.2319temperature offset calibration	0.9973default loss term (dB/km)	0.3790temperature slope calibration	1.0000multiplexer offset coefficient	1.0000multiplexer slope coefficient	1.0000fibre end	0.00T internal ref (°C)	32.06T ext. ref 1 (°C)	4.58T ext. ref 2 (°C)	27.04length (m)	temperature (°C)	Stokes	anti-Stokes-747.200	800.000	0.087	-0.351
-746.185	-44.133	0.364	-0.185
-745.171	151.836	-0.252	-0.347
-744.156	42.193	-0.138	0.127
-743.142	800.000	0.012	-0.042
-742.127	469.596	0.061	0.138
-741.112	641.448	-0.067	-0.172
-740.098	23.628	-0.085	0.071
-739.083	-88.565	0.025	0.008
-738.069	-200.000	0.006	0.187
-737.054	154.810	-0.126	-0.175
-736.039	-141.398	-0.224	0.023
-735.025	146.878	0.214	-0.291
-734.010	-200.000	-0.022	-0.199
-732.996	18.456	-0.355	-0.287
-731.981	800.000	-0.076	0.264
-730.966	-18.021	-0.189	-0.120
-729.952	179.753	-0.044	0.065
-728.937	135.497	-0.169	0.223
-727.923	-89.316	-0.420	-0.125
-726.908	-64.190	-0.346	-0.143
-725.894	-200.000	0.010	0.087
-724.879	-200.000	0.005	0.207
-723.864	-92.862	-0.053	-0.015
-722.850	-104.293	0.261	-0.061
-721.835	-114.284	-0.071	-0.014
-720.821	47.380	-0.173	-0.163
-719.806	-200.000	0.054	-0.341
-718.791	-140.882	-0.309	0.032
-717.777	28.305	-0.131	-0.112
-716.762	-20.014	-0.166	0.103
-715.748	-182.588	-0.031	-0.001
-714.733	43.292	-0.208	0.192
-713.718	8.089	0.107	-0.081
-712.704	76.450	0.071	0.076
-711.689	50.146	0.256	-0.244
-710.675	275.140	-0.104	-0.185
-709.660	-11.130	-0.053	0.036
-708.645	304.320	0.033	0.062
-707.631	-200.000	0.010	0.108
-706.616	800.000	0.032	-0.112
-705.602	-134.833	-0.122	-0.015
-704.587	-104.520	0.257	0.060
-703.572	279.650	0.085	-0.153
-702.558	9.042	-0.293	-0.224
-701.543	-200.000	0.016	0.090
-700.529	-96.871	0.039	0.010
-699.514	453.465	0.093	0.209
-698.499	-200.000	-0.003	-0.153
-697.485	-34.763	0.129	-0.071
-696.470	800.000	-0.080	0.266
-695.456	270.865	0.121	-0.215
-694.441	573.344	0.039	-0.096
-693.426	-200.000	0.044	0.260
-692.412	-81.412	-0.407	-0.135
-691.397	-59.657	-0.155	-0.067
-690.383	-61.413	-0.127	0.054
-689.368	-200.000	-0.005	-0.247
-688.354	-110.810	-0.119	0.025
-687.339	-7.171	0.211	-0.144
-686.324	-104.627	0.237	0.055
-685.310	-82.018	0.136	-0.045
-684.295	-109.049	-0.250	-0.054
-683.281	191.183	0.345	-0.524
-682.266	650.215	-0.140	0.361
-681.251	227.031	0.104	0.170
-680.237	-131.562	0.188	0.025
-679.222	-42.326	-0.274	0.141
-678.208	-79.171	0.198	-0.068
-677.193	-200.000	0.005	0.273
-676.178	-69.508	-0.145	-0.056
-675.164	-142.226	0.355	-0.035
-674.149	800.000	0.063	-0.209
-673.135	150.974	0.276	-0.379
-672.120	33.848	0.190	-0.167
-671.105	20.810	-0.088	0.072
-670.091	216.789	-0.129	0.208
-669.076	800.000	0.102	-0.394
-668.062	-78.909	0.163	-0.056
-667.047	-3.960	-0.091	-0.064
-666.032	113.725	0.293	0.360
-665.018	-200.000	0.029	0.229
-664.003	377.056	0.077	0.159
-662.989	-200.000	0.036	-0.238
-661.974	210.948	0.167	0.265
-660.959	37.306	-0.110	-0.098
-659.945	-53.775	-0.492	-0.226
-658.930	38.820	-0.131	0.118
-657.916	-16.315	0.211	-0.135
-656.901	-128.882	-0.141	-0.020
-655.886	-200.000	0.029	-0.200
-654.872	-132.318	0.141	-0.018
-653.857	177.576	0.182	-0.267
-652.843	-114.580	-0.440	0.085
-651.828	2.735	0.143	0.104
-650.814	-149.977	0.145	-0.011
-649.799	800.000	0.019	-0.066
-648.784	-9.263	-0.327	-0.220
-647.770	-200.000	0.038	0.296
-646.755	120.616	0.202	0.253
-645.741	-200.000	-0.013	-0.206
-644.726	766.024	0.089	-0.245
-643.711	-17.961	0.170	-0.107
-642.697	80.746	-0.305	0.331
-641.682	800.000	-0.061	0.238
-640.668	227.953	0.044	-0.072
-639.653	800.000	0.045	0.165
-638.638	-200.000	0.047	-0.247
-637.624	184.635	-0.145	0.216
-636.609	-92.447	0.297	-0.084
-635.595	-104.648	-0.291	0.067
-634.580	35.748	-0.120	-0.106
-633.565	-11.332	-0.070	-0.046
-632.551	39.173	-0.226	-0.203
-631.536	105.149	0.151	-0.180
-630.522	-72.881	0.243	-0.090
-629.507	-200.000	0.008	-0.182
-628.492	593.608	0.052	-0.130
-627.478	22.087	-0.104	-0.085
-626.463	-74.624	0.208	0.075
-625.449	-6.072	-0.168	0.116
-624.434	-115.140	0.281	0.054
-623.419	175.837	-0.160	0.234
-622.405	599.665	-0.013	0.034
-621.390	142.417	-0.076	-0.101
-620.376	679.173	-0.162	0.423
-619.361	686.025	-0.071	-0.186
-618.346	-15.590	0.078	-0.050
-617.332	-200.000	0.029	-0.142
-616.317	153.417	-0.195	-0.269
-615.303	224.017	0.137	0.222
-614.288	102.862	-0.158	0.187
-613.273	-53.716	-0.320	-0.147
-612.259	-200.000	-0.040	0.185
-611.244	203.154	-0.045	0.069
-610.230	-200.000	0.000	-0.062
-609.215	800.000	0.187	-0.587
-608.201	-200.000	0.006	0.167
-607.186	-19.743	-0.153	-0.095
-606.171	-107.668	-0.295	-0.065
-605.157	17.626	0.297	0.238
-604.142	800.000	0.049	-0.211
-603.128	695.351	-0.165	-0.436
-602.113	171.158	0.045	0.066
-601.098	800.000	-0.038	0.154
-600.084	800.000	0.038	-0.131
-599.069	-30.359	0.111	-0.063
-598.055	-2.346	-0.194	0.137
-597.040	-9.428	-0.204	0.137
-596.025	42.195	0.127	0.116
-595.011	-91.099	-0.454	-0.131
-593.996	56.042	-0.041	-0.040
-592.982	800.000	0.035	0.136
-591.967	-108.941	0.315	0.068
-590.952	204.168	-0.184	-0.287
-589.938	800.000	0.042	-0.167
-588.923	-124.787	0.087	0.013
-587.909	-70.360	0.053	0.020
-586.894	-10.455	0.116	0.078
-585.879	-16.390	0.168	-0.107
-584.865	-4.624	0.155	-0.107
-583.850	23.497	0.009	-0.008
-582.836	61.058	-0.085	0.085
-581.821	247.761	-0.145	-0.247
-580.806	-100.813	0.233	-0.058
-579.792	-200.000	0.003	-0.203
-578.777	528.082	-0.038	0.091
-577.763	123.868	0.216	-0.273
-576.748	29.520	-0.105	0.090
-575.733	6.812	-0.066	-0.050
-574.719	-68.833	-0.277	-0.108
-573.704	-83.168	-0.408	0.132
-572.690	-200.000	0.007	0.056
-571.675	-200.000	0.008	0.286
-570.661	433.260	0.115	0.251
-569.646	284.102	-0.094	0.171
-568.631	-200.000	-0.035	0.258
-567.617	-67.154	0.107	0.042
-566.602	153.799	0.139	0.191
-565.588	279.054	0.098	0.176
-564.573	46.256	0.163	-0.151
-563.558	119.273	0.186	-0.231
-562.544	-94.459	-0.302	0.083
-561.529	195.770	-0.113	0.172
-560.515	111.595	-0.256	0.310
-559.500	-82.912	-0.273	0.089
-558.485	340.356	0.154	-0.301
-557.471	-167.550	0.240	-0.010
-556.456	-81.105	0.144	-0.048
-555.442	-119.545	0.256	0.045
-554.427	-2.477	-0.135	-0.095
-553.412	365.314	0.225	-0.454
-552.398	226.535	-0.145	-0.236
-551.383	43.010	0.198	-0.181
-550.369	-200.000	-0.003	-0.136
-549.354	180.909	-0.056	0.083
-548.339	-133.060	0.223	0.028
-547.325	800.000	-0.054	0.216
-546.310	89.504	-0.111	0.125
-545.296	800.000	-0.100	0.296
-544.281	235.491	-0.180	0.298
-543.266	-109.229	0.147	-0.031
-542.252	290.425	0.052	0.095
-541.237	-107.814	-0.298	0.065
-540.223	-28.883	-0.171	-0.099
-539.208	-200.000	0.040	-0.351
-538.193	-200.000	-0.070	-0.518
-537.179	-116.531	0.188	-0.035
-536.164	-200.000	0.012	-0.094
-535.150	-22.820	-0.246	-0.149
-534.135	-77.496	-0.244	0.085
-533.121	63.611	-0.281	0.283
-532.106	800.000	0.025	0.074
-531.091	39.588	0.127	0.114
-530.077	-101.266	-0.117	-0.029
-529.062	-200.000	-0.073	-0.429
-528.048	800.000	0.081	0.247
-527.033	50.234	0.188	-0.178
-526.018	-200.000	-0.013	-0.288
-525.004	-140.288	0.096	-0.010
-523.989	30.709	0.164	-0.141
-522.975	800.000	-0.044	-0.124
-521.960	-67.028	0.111	-0.044
-520.945	199.243	0.010	0.015
-519.931	800.000	0.055	-0.195
-518.916	552.452	0.138	-0.332
-517.902	-200.000	-0.024	-0.121
-516.887	-66.529	-0.282	-0.112
-515.872	131.870	-0.136	0.176
-514.858	-200.000	0.009	-0.149
-513.843	-97.581	-0.380	-0.099
-512.829	-80.920	-0.156	-0.052
-511.814	-96.204	0.187	-0.050
-510.799	44.927	0.174	-0.161
-509.785	-53.418	0.087	0.040
-508.770	-68.582	0.358	0.139
-507.756	-42.928	-0.317	0.161
-506.741	352.557	0.047	-0.093
-505.726	-200.000	-0.046	-0.354
-504.712	181.150	0.105	0.154
-503.697	-200.000	-0.022	0.101
-502.683	-130.465	0.263	0.036
-501.668	498.193	0.095	-0.220
-500.653	-53.464	0.097	-0.044
-499.639	-50.812	-0.325	0.153
-498.624	481.766	-0.069	-0.157
-497.610	258.243	0.111	0.192
-496.595	-200.000	-0.051	0.226
-495.581	-200.000	0.008	0.367
-494.566	-20.025	-0.283	0.175
-493.551	-200.000	0.024	-0.198
-492.537	-200.000	0.005	-0.126
-491.522	-200.000	-0.043	-0.361
-490.508	218.444	0.092	0.148
-489.493	-77.293	-0.249	0.087
-488.478	-89.234	0.165	-0.049
-487.464	-65.102	0.166	0.067
-486.449	-200.000	0.007	0.058
-485.435	-200.000	-0.015	0.228
-484.420	277.509	0.122	0.217
-483.405	-18.362	0.221	0.138
-482.391	11.769	0.284	0.219
-481.376	-65.497	0.122	-0.049
-480.362	-200.000	0.003	-0.448
-479.347	108.887	0.140	-0.167
-478.332	-111.464	-0.119	0.024
-477.318	-200.000	-0.020	0.130
-476.303	13.009	-0.213	-0.165
-475.289	200.845	0.068	0.104
-474.274	-35.553	-0.282	0.153
-473.259	-200.000	0.197	-0.000
-472.245	-11.073	-0.089	0.059
-471.230	-200.000	0.004	-0.084
-470.216	410.795	0.120	0.255
-469.201	211.199	0.139	0.219
-468.186	-60.619	-0.285	-0.121
-467.172	199.050	0.095	0.145
-466.157	105.952	0.174	0.206
-465.143	152.167	-0.069	0.094
-464.128	800.000	0.075	-0.276
-463.113	221.406	0.268	0.431
-462.099	-25.293	-0.051	0.030
-461.084	-200.000	-0.032	0.300
-460.070	-128.733	-0.223	0.031
-459.055	-107.334	-0.175	-0.039
-458.040	36.384	-0.274	-0.242
-457.026	231.105	-0.079	-0.129
-456.011	407.105	0.137	-0.290
-454.997	-25.431	0.323	0.191
-453.982	131.527	0.145	-0.186
-452.968	800.000	-0.060	-0.198
-451.953	-200.000	-0.006	-0.255
-450.938	238.214	-0.007	0.012
-449.924	-139.142	-0.298	0.032
-448.909	-200.000	-0.005	0.142
-447.895	-200.000	-0.021	0.109
-446.880	-23.854	0.173	0.103
-445.865	1.545	-0.128	0.092
-444.851	255.216	-0.168	-0.288
-443.836	23.222	-0.209	0.172
-442.822	-200.000	-0.016	0.252
-441.807	-200.000	-0.025	-0.137
-440.792	633.237	-0.019	-0.049
-439.778	38.012	-0.065	-0.058
-438.763	-30.371	-0.475	0.269
-437.749	-200.000	-0.039	0.187
-436.734	800.000	0.148	0.416
-435.719	81.450	-0.223	-0.241
-434.705	-97.394	-0.242	-0.063
-433.690	64.372	0.142	-0.143
-432.676	-84.306	0.150	-0.047
-431.661	-49.403	0.180	-0.086
-430.646	46.215	-0.172	0.160
-429.632	439.806	-0.147	0.321
-428.617	-200.000	-0.018	-0.101
-427.603	-200.000	-0.012	-0.379
-426.588	-200.000	0.016	0.149
-425.573	-143.038	0.238	0.023
-424.559	-31.463	-0.028	-0.016
-423.544	-94.982	0.208	0.056
-422.530	800.000	-0.012	-0.043
-421.515	136.929	0.106	-0.138
-420.500	-173.169	0.237	0.007
-419.486	141.062	-0.062	-0.081
-418.471	-200.000	0.019	0.108
-417.457	123.879	0.263	0.330
-416.442	130.523	0.136	0.174
-415.428	-200.000	0.033	0.258
-414.413	284.592	0.109	0.196
-413.398	354.985	0.074	-0.147
-412.384	-75.292	0.187	0.067
-411.369	-54.770	0.100	0.045
-410.355	-112.208	-0.101	-0.020
-409.340	-108.533	0.572	0.123
-408.325	-200.000	0.005	0.098
-407.311	-9.424	0.309	-0.206
-406.296	-200.000	-0.038	-0.258
-405.282	-42.920	-0.067	-0.034
-404.267	43.306	0.221	-0.202
-403.252	155.632	-0.046	0.063
-402.238	-111.382	0.273	0.056
-401.223	-41.656	0.328	-0.168
-400.209	213.249	0.049	-0.077
-399.194	-34.784	-0.044	0.024
-398.179	-54.216	0.114	-0.052
-397.165	-200.000	-0.013	0.213
-396.150	-91.389	0.207	0.059
-395.136	70.348	-0.193	0.199
-394.121	-168.761	0.378	-0.014
-393.106	-200.000	0.036	-0.164
-392.092	187.464	-0.197	-0.293
-391.077	206.990	-0.206	0.321
-390.063	-83.937	0.381	-0.121
-389.048	-85.773	-0.215	-0.066
-388.033	-200.000	0.055	-0.288
-387.019	800.000	-0.098	-0.338
-386.004	-50.555	-0.093	0.044
-384.990	640.899	0.132	-0.334
-383.975	-81.107	0.260	0.086
-382.960	110.875	-0.076	-0.091
-381.946	-122.421	0.214	0.035
-380.931	42.622	0.217	-0.197
-379.917	348.010	-0.130	-0.256
-378.902	800.000	-0.100	0.304
-377.888	154.009	-0.062	-0.085
-376.873	-101.847	-0.214	0.052
-375.858	150.739	0.123	0.166
-374.844	491.154	-0.047	0.107
-373.829	39.110	-0.250	-0.223
-372.815	-166.953	-0.182	0.007
-371.800	537.019	0.075	-0.178
-370.785	594.612	0.076	0.187
-369.771	8.966	0.223	-0.167
-368.756	363.216	0.049	-0.098
-367.742	-200.000	0.034	0.162
-366.727	24.749	-0.183	-0.151
-365.712	-200.000	0.028	0.243
-364.698	0.767	0.223	-0.159
-363.683	99.523	-0.076	-0.087
-362.669	235.289	-0.117	0.193
-361.654	68.240	0.231	-0.236
-360.639	-140.391	0.281	-0.029
-359.625	-97.009	0.339	-0.089
-358.610	321.140	-0.156	0.295
-357.596	-96.209	-0.164	0.043
-356.581	13.875	-0.295	0.229
-355.566	-9.730	-0.178	-0.118
-354.552	-200.000	-0.022	-0.249
-353.537	-116.896	-0.098	0.018
-352.523	-165.068	-0.232	0.010
-351.508	-41.217	-0.235	0.121
-350.493	-56.208	-0.137	0.061
-349.479	-6.092	-0.142	0.097
-348.464	352.281	-0.039	0.077
-347.450	-145.372	0.063	0.006
-346.435	9.757	-0.196	0.148
-345.420	190.684	-0.105	-0.157
-344.406	-96.017	0.213	0.057
-343.391	41.523	0.138	-0.125
-342.377	-20.312	-0.223	-0.136
-341.362	335.216	-0.100	-0.193
-340.348	-5.726	0.123	-0.084
-339.333	723.816	-0.123	0.327
-338.318	-7.381	-0.087	-0.059
-337.304	-200.000	0.009	-0.277
-336.289	196.088	-0.063	0.095
-335.275	-200.000	-0.016	0.227
-334.260	-37.325	0.023	0.012
-333.245	800.000	0.109	0.329
-332.231	220.423	0.041	-0.066
-331.216	-68.568	0.098	0.038
-330.202	45.236	0.210	0.193
-329.187	800.000	-0.076	-0.271
-328.172	539.707	0.033	0.077
-327.158	-166.795	-0.174	-0.007
-326.143	62.661	0.077	-0.077
-325.129	-153.679	-0.136	0.009
-324.114	217.838	-0.151	0.240
-323.099	-125.558	-0.230	-0.035
-322.085	17.093	-0.347	-0.273
-321.070	-200.000	-0.062	-0.317
-320.056	474.931	0.017	-0.038
-319.041	102.628	0.041	-0.048
-318.026	-30.529	-0.262	0.148
-317.012	389.785	0.010	-0.021
-315.997	-113.812	0.215	0.042
-314.983	199.081	0.115	0.175
-313.968	70.923	-0.114	-0.117
-312.953	347.234	-0.090	-0.176
-311.939	151.112	-0.236	-0.319
-310.924	87.227	-0.168	0.184
-309.910	-152.887	0.239	0.017
-308.895	-145.702	0.317	0.028
-307.880	-200.000	0.018	0.277
-306.866	-200.000	-0.060	0.304
-305.851	800.000	0.053	-0.191
-304.837	-147.399	-0.308	-0.026
-303.822	103.105	0.155	-0.180
-302.807	73.076	0.087	0.090
-301.793	-98.213	-0.239	-0.061
-300.778	800.000	0.024	0.082
-299.764	-200.000	0.006	-0.123
-298.749	-80.582	0.182	0.060
-297.735	-190.355	-0.262	0.003
-296.720	752.420	-0.078	-0.209
-295.705	-200.000	0.024	0.325
-294.691	-200.000	-0.055	0.270
-293.676	270.664	-0.063	-0.111
-292.662	-200.000	-0.028	0.294
-291.647	-127.949	-0.165	0.024
-290.632	-200.000	-0.009	-0.080
-289.618	-38.936	0.073	0.038
-288.603	-200.000	0.072	-0.364
-287.589	800.000	0.030	-0.107
-286.574	57.307	0.098	0.095
-285.559	800.000	0.017	0.055
-284.545	-4.936	-0.148	-0.101
-283.530	388.466	-0.018	-0.037
-282.516	-200.000	0.014	0.134
-281.501	-200.000	-0.001	0.083
-280.486	773.080	0.027	-0.074
-279.472	91.647	0.184	0.205
-278.457	-119.459	-0.199	0.034
-277.443	3.162	0.088	0.064
-276.428	509.500	-0.176	-0.407
-275.413	433.347	-0.147	-0.317
-274.399	-89.422	-0.245	0.071
-273.384	486.234	0.087	0.196
-272.370	800.000	0.068	-0.215
-271.355	-200.000	-0.015	-0.170
-270.340	-61.322	0.128	0.053
-269.326	110.503	-0.135	0.162
-268.311	-176.411	-0.120	0.003
-267.297	119.213	0.094	-0.115
-266.282	800.000	0.060	0.188
-265.267	584.000	-0.064	0.156
-264.253	-200.000	0.048	-0.274
-263.238	-10.612	0.183	0.120
-262.224	-154.271	-0.206	-0.014
-261.209	-200.000	0.071	0.320
-260.195	-174.133	0.180	-0.005
-259.180	-3.045	0.056	0.039
-258.165	-104.581	0.042	-0.010
-257.151	-110.736	-0.069	0.014
-256.136	120.055	-0.117	0.144
-255.122	57.640	-0.046	0.045
-254.107	105.976	0.073	-0.086
-253.092	-200.000	-0.022	0.142
-252.078	-106.511	-0.243	-0.054
-251.063	-200.000	-0.052	-0.366
-250.049	-200.000	0.027	0.229
-249.034	-0.110	0.206	0.145
-248.019	-200.000	0.028	-0.155
-247.005	-190.513	0.486	0.005
-245.990	-200.000	0.014	-0.071
-244.976	-200.000	0.035	-0.184
-243.961	127.742	0.074	0.093
-242.946	-148.513	0.064	-0.005
-241.932	-200.000	-0.005	0.076
-240.917	142.579	0.202	-0.267
-239.903	-87.055	-0.086	-0.026
-238.888	800.000	-0.043	-0.145
-237.873	-200.000	0.021	-0.116
-236.859	197.400	0.083	-0.125
-235.844	-145.136	-0.069	0.006
-234.830	487.948	-0.144	-0.327
-233.815	-200.000	-0.043	0.200
-232.800	-200.000	0.022	0.151
-231.786	66.316	0.046	-0.046
-230.771	-108.011	-0.157	-0.034
-229.757	-142.794	0.282	0.027
-228.742	46.771	-0.292	0.269
-227.727	-200.000	0.053	0.378
-226.713	-200.000	0.031	0.523
-225.698	-200.000	-0.024	-0.114
-224.684	21.413	-0.272	0.219
-223.669	800.000	0.046	-0.174
-222.655	-200.000	0.061	0.417
-221.640	-150.195	0.221	-0.017
-220.625	26.823	0.185	0.154
-219.611	-21.005	0.239	0.145
-218.596	800.000	-0.033	0.124
-217.582	408.622	-0.095	-0.198
-216.567	800.000	0.023	0.076
-215.552	133.383	-0.096	-0.122
-214.538	484.574	-0.075	0.169
-213.523	800.000	0.054	-0.151
-212.509	-148.166	0.178	0.015
-211.494	-56.657	0.079	0.035
-210.479	266.895	-0.096	0.167
-209.465	33.891	-0.184	-0.159
-208.450	-126.006	-0.088	-0.013
-207.436	76.360	0.202	-0.212
-206.421	-200.000	-0.010	0.068
-205.406	-200.000	-0.073	-0.397
-204.392	97.333	0.057	0.065
-203.377	-200.000	-0.012	0.360
-202.363	352.046	-0.176	0.345
-201.348	-81.229	0.344	0.113
-200.333	251.206	-0.087	0.146
-199.319	-48.507	-0.269	0.128
-198.304	-12.348	-0.177	0.114
-197.290	-200.000	-0.000	0.171
-196.275	-24.100	-0.125	-0.074
-195.260	257.570	0.171	-0.291
-194.246	-102.112	0.279	-0.066
-193.231	110.126	-0.101	0.120
-192.217	319.207	0.044	-0.082
-191.202	98.101	0.084	0.096
-190.187	58.467	0.267	-0.259
-189.173	-134.047	0.109	-0.013
-188.158	800.000	-0.132	0.406
-187.144	535.732	0.038	0.089
-186.129	-103.536	-0.177	-0.041
-185.114	-200.000	0.012	0.119
-184.100	66.020	0.088	-0.088
-183.085	-99.095	0.035	-0.009
-182.071	-101.673	-0.430	-0.103
-181.056	69.812	-0.168	-0.172
-180.042	800.000	0.024	0.079
-179.027	-200.000	-0.017	-0.109
-178.012	59.824	0.347	0.339
-176.998	800.000	-0.016	0.069
-175.983	736.610	0.021	-0.056
-174.969	-71.644	0.078	0.029
-173.954	-62.755	0.183	0.075
-172.939	-102.730	0.216	-0.051
-171.925	-125.246	0.147	0.022
-170.910	-12.267	0.193	0.125
-169.896	-200.000	0.049	0.216
-168.881	-135.538	-0.247	0.029
-167.866	-196.620	-0.161	0.001
-166.852	-95.288	0.182	-0.049
-165.837	-200.000	-0.032	-0.468
-164.823	773.555	0.093	0.252
-163.808	-33.955	-0.262	-0.142
-162.793	-88.635	-0.163	0.048
-161.779	29.996	0.366	0.308
-160.764	-157.152	0.084	0.005
-159.750	-200.000	-0.027	-0.228
-158.735	85.745	0.102	0.111
-157.720	-76.141	-0.079	-0.028
-156.706	32.433	-0.122	0.104
-155.691	292.833	-0.195	-0.352
-154.677	800.000	-0.046	-0.143
-153.662	-93.098	0.241	-0.066
-152.647	-200.000	0.010	-0.182
-151.633	366.526	0.042	0.084
-150.618	-52.600	0.311	-0.142
-149.604	8.994	0.332	-0.248
-148.589	-61.395	-0.135	-0.056
-147.574	-30.087	-0.333	-0.187
-146.560	718.575	-0.046	0.120
-145.545	-137.191	-0.091	-0.010
-144.531	800.000	0.140	-0.472
-143.516	47.368	0.154	0.142
-142.502	267.602	0.028	-0.049
-141.487	800.000	-0.049	-0.204
-140.472	-8.330	0.126	0.083
-139.458	800.000	-0.072	0.288
-138.443	-87.816	0.281	-0.084
-137.429	12.672	-0.110	-0.084
-136.414	800.000	0.127	0.463
-135.399	-92.377	0.157	0.044
-134.385	-117.183	-0.229	-0.041
-133.370	-72.337	0.145	0.053
-132.356	-151.807	0.227	-0.016
-131.341	-200.000	0.027	-0.145
-130.326	-140.865	-0.359	-0.036
-129.312	493.166	0.133	-0.302
-128.297	-136.044	-0.240	0.028
-127.283	-200.000	-0.005	0.170
-126.268	8.068	0.231	-0.171
-125.253	55.178	-0.213	0.203
-124.239	-82.729	0.310	0.099
-123.224	-25.853	-0.193	-0.112
-122.210	-200.000	0.079	-0.401
-121.195	327.695	0.127	0.241
-120.180	-200.000	-0.024	0.301
-119.166	800.000	-0.064	0.181
-118.151	-27.512	-0.045	0.026
-117.137	800.000	0.029	0.107
-116.122	-128.214	-0.093	-0.013
-115.107	-200.000	-0.045	0.322
-114.093	-36.764	0.415	0.220
-113.078	-200.000	0.002	-0.251
-112.064	91.809	-0.167	0.185
-111.049	-200.000	-0.248	-0.000
-110.034	363.541	0.141	0.279
-109.020	-112.266	-0.161	0.032
-108.005	-87.142	0.430	-0.129
-106.991	-93.019	0.147	0.040
-105.976	115.395	0.208	0.251
-104.962	-139.745	-0.217	0.023
-103.947	242.834	0.072	0.118
-102.932	-158.808	-0.260	-0.015
-101.918	14.518	0.046	0.035
-100.903	-11.773	0.238	0.154
-99.889	275.625	0.136	-0.237
-98.874	-35.558	-0.331	0.177
-97.859	-146.718	0.268	-0.023
-96.845	-131.854	-0.137	-0.018
-95.830	20.810	-0.080	-0.064
-94.816	-200.000	-0.028	0.463
-93.801	-200.000	0.055	0.448
-92.786	-32.256	-0.093	0.051
-91.772	248.154	0.095	0.158
-90.757	14.328	0.181	0.139
-89.743	-200.000	0.017	-0.091
-88.728	-69.280	0.170	0.064
-87.713	371.911	0.030	-0.059
-86.699	-110.588	-0.150	-0.031
-85.684	-200.000	-0.043	-0.211
-84.670	61.862	0.044	0.043
-83.655	16.192	-0.209	-0.163
-82.640	-99.556	0.100	-0.025
-81.626	17.042	-0.084	0.065
-80.611	37.527	0.020	-0.017
-79.597	-120.705	0.219	0.036
-78.582	-164.908	0.238	-0.011
-77.567	418.760	-0.204	0.431
-76.553	234.052	0.272	0.442
-75.538	-18.302	-0.122	0.075
-74.524	64.419	-0.172	0.170
-73.509	175.030	-0.113	0.161
-72.494	69.686	0.071	-0.072
-71.480	-25.991	-0.229	-0.133
-70.465	85.496	-0.171	0.185
-69.451	123.915	0.043	-0.054
-68.436	-160.844	0.288	0.015
-67.422	4.258	0.289	-0.208
-66.407	-63.999	-0.361	-0.145
-65.392	-200.000	0.096	-0.429
-64.378	-39.560	0.135	0.070
-63.363	-131.071	0.088	-0.012
-62.349	-200.000	-0.005	0.028
-61.334	21.434	-1.130	-0.904
-60.319	-53.009	0.666	0.302
-59.305	377.648	-0.464	-0.934
-58.290	120.999	0.679	0.832
-57.276	386.670	0.690	1.403
-56.261	-200.000	95.224	592.375
-55.246	659.722	1367.146	3465.229
-54.232	199.841	2542.365	3841.743
-53.217	119.113	2159.329	2629.200
-52.203	42.731	1705.142	1528.987
-51.188	35.177	1518.262	1309.959
-50.173	32.846	1491.160	1270.847
-49.159	52.264	1539.627	1445.415
-48.144	54.014	1557.495	1474.108
-47.130	35.496	1517.476	1311.252
-46.115	32.430	1502.539	1277.517
-45.100	32.161	1499.404	1272.978
-44.086	32.094	1498.086	1271.355
-43.071	32.064	1495.585	1268.980
-42.057	32.119	1493.831	1267.809
-41.042	31.966	1493.032	1266.050
-40.027	32.003	1491.435	1264.897
-39.013	32.104	1489.529	1263.908
-37.998	31.960	1488.965	1262.414
-36.984	32.098	1487.129	1261.730
-35.969	32.046	1485.783	1260.194
-34.954	32.116	1484.157	1259.233
-33.940	32.109	1483.382	1258.475
-32.925	32.060	1481.518	1256.515
-31.911	32.137	1479.795	1255.522
-30.896	32.126	1478.788	1254.543
-29.881	32.051	1477.499	1252.898
-28.867	32.066	1476.161	1251.812
-27.852	32.126	1474.691	1250.919
-26.838	32.153	1473.847	1250.335
-25.823	32.118	1472.102	1248.570
-24.809	31.991	1470.535	1246.348
-23.794	32.152	1468.630	1245.755
-22.779	32.157	1467.099	1244.437
-21.765	32.174	1466.284	1243.811
-20.750	32.180	1465.149	1242.834
-19.736	32.040	1464.189	1241.046
-18.721	31.956	1463.503	1239.858
-17.706	32.029	1462.180	1239.170
-16.692	32.061	1460.986	1238.326
-15.677	32.106	1460.249	1237.943
-14.663	32.024	1459.259	1236.518
-13.648	32.093	1457.910	1235.781
-12.633	31.983	1457.533	1234.689
-11.619	31.965	1456.728	1233.840
-10.604	32.103	1455.086	1233.301
-9.590	31.958	1455.279	1232.465
-8.575	32.054	1453.640	1231.663
-7.560	32.018	1452.938	1230.778
-6.546	32.071	1451.521	1229.880
-5.531	31.966	1451.370	1229.014
-4.517	32.029	1449.602	1227.882
-3.502	32.000	1448.698	1226.875
-2.487	32.014	1447.775	1226.139
-1.473	32.073	1446.806	1225.656
-0.458	31.996	1445.452	1223.955
0.556	30.629	1436.560	1212.653
1.571	27.875	1411.178	1173.456
2.586	24.512	1350.944	1102.544
3.600	22.827	1269.739	1026.393
4.615	21.362	1224.013	981.125
5.629	18.556	1168.357	921.373
6.644	11.255	1084.646	818.737
7.659	5.367	1045.754	760.729
8.673	4.552	1040.318	752.761
9.688	4.614	1037.425	750.898
10.702	4.476	1035.897	749.064
11.717	4.668	1033.161	747.939
12.731	6.548	1035.475	758.604
13.746	13.402	1045.131	798.795
14.761	18.501	1050.902	827.823
15.775	18.443	1050.164	826.888
16.790	17.439	1047.535	819.910
17.804	16.394	1045.815	813.465
18.819	15.608	1043.281	807.643
19.834	15.118	1042.118	804.321
20.848	14.805	1041.490	802.263
21.863	14.580	1040.419	800.286
22.877	14.324	1040.150	798.778
23.892	14.193	1039.025	797.217
24.907	14.169	1038.137	796.349
25.921	13.890	1037.863	794.737
26.936	14.086	1036.812	794.795
27.950	14.283	1035.589	794.732
28.965	14.138	1034.729	793.309
29.980	14.234	1033.668	792.882
30.994	14.348	1032.374	792.360
32.009	14.440	1031.627	792.156
33.023	14.425	1030.775	791.359
34.038	14.417	1030.340	790.920
35.053	14.303	1028.977	789.260
36.067	14.314	1027.970	788.473
37.082	14.163	1027.329	787.197
38.096	14.266	1026.516	786.989
39.111	14.260	1025.977	786.480
40.126	14.424	1024.533	786.076
41.140	14.245	1023.697	784.520
42.155	14.198	1022.389	783.229
43.169	13.971	1021.850	781.677
44.184	13.911	1020.681	780.432
45.199	13.922	1019.371	779.414
46.213	13.990	1018.779	779.210
47.228	14.104	1017.601	778.776
48.242	14.040	1016.927	777.892
49.257	14.182	1015.964	777.749
50.271	14.147	1014.940	776.733
51.286	14.188	1014.321	776.381
52.301	14.172	1013.414	775.541
53.315	14.225	1012.480	775.009
54.330	14.183	1011.617	774.082
55.344	14.066	1010.771	772.823
56.359	13.972	1010.264	771.929
57.374	14.080	1008.893	771.316
58.388	14.022	1008.381	770.585
59.403	14.023	1007.401	769.775
60.417	14.037	1006.606	769.162
61.432	14.042	1006.123	768.748
62.447	13.918	1005.694	767.782
63.461	13.991	1004.547	767.172
64.476	13.811	1003.648	765.590
65.490	13.916	1002.636	765.233
66.505	13.844	1001.866	764.245
67.520	13.846	1001.261	763.728
68.534	14.003	1000.250	763.611
69.549	13.893	999.849	762.732
70.563	13.953	998.915	762.225
71.578	13.839	998.360	761.214
72.593	13.787	997.625	760.347
73.607	13.856	996.189	759.498
74.622	13.796	995.515	758.644
75.636	13.734	994.911	757.835
76.651	13.834	993.606	757.230
77.666	13.900	992.971	756.979
78.680	13.837	992.272	756.095
79.695	13.792	991.766	755.434
80.709	13.830	991.748	755.529
81.724	13.907	990.728	755.036
82.739	13.990	989.547	754.445
83.753	13.975	989.676	754.407
84.768	14.012	988.586	753.676
85.782	14.258	987.591	753.967
86.797	14.375	986.980	753.963
87.812	14.311	986.522	753.258
88.826	14.242	985.551	752.139
89.841	14.209	984.588	751.184
90.855	14.114	983.967	750.219
91.870	14.227	983.520	750.321
92.884	14.336	982.586	750.031
93.899	14.358	981.818	749.477
94.914	14.337	981.100	748.770
95.928	14.322	980.277	748.007
96.943	14.385	979.513	747.640
97.957	14.342	978.968	746.969
98.972	14.301	978.076	746.036
99.987	14.282	977.209	745.223
101.001	14.270	976.838	744.822
102.016	14.320	975.599	744.034
103.030	14.380	974.799	743.626
104.045	14.314	974.003	742.659
105.060	14.244	973.188	741.658
106.074	14.286	971.985	740.866
107.089	14.219	970.828	739.617
108.103	14.067	970.186	738.390
109.118	14.016	969.197	737.345
110.133	13.957	968.310	736.342
111.147	14.033	967.163	735.741
112.162	14.035	966.514	735.191
113.176	14.150	965.754	735.056
114.191	14.014	965.301	734.048
115.206	14.101	964.326	733.625
116.220	14.072	963.679	732.939
117.235	13.980	962.496	731.569
118.249	14.042	961.816	731.261
119.264	14.088	960.919	730.715
120.279	14.027	960.138	729.791
121.293	14.057	958.931	728.939
122.308	13.932	958.627	728.099
123.322	14.087	957.506	727.857
124.337	13.863	956.696	726.198
125.352	13.925	955.328	725.369
126.366	13.863	954.327	724.272
127.381	13.865	953.308	723.443
128.395	13.793	952.353	722.343
129.410	14.016	951.210	722.381
130.424	13.854	950.893	721.374
131.439	14.000	949.864	721.160
132.454	13.980	949.364	720.630
133.468	13.962	948.473	719.814
134.483	14.016	947.902	719.550
135.497	14.155	946.778	719.234
136.512	13.990	946.090	717.936
137.527	14.002	945.871	717.758
138.541	14.100	944.859	717.350
139.556	14.204	943.846	716.964
140.570	14.109	943.552	716.269
141.585	14.117	942.881	715.729
142.600	14.126	942.315	715.277
143.614	14.416	940.986	715.446
144.629	14.426	940.544	715.091
145.643	14.364	939.913	714.282
146.658	14.422	938.528	713.417
147.673	14.337	937.561	712.253
148.687	14.289	937.042	711.590
149.702	14.139	935.992	710.090
150.716	14.111	935.033	709.181
151.731	14.171	934.287	708.810
152.746	14.113	933.918	708.217
153.760	14.140	932.877	707.480
154.775	14.288	932.245	707.568
155.789	14.409	931.380	707.365
156.804	14.422	931.004	707.070
157.819	14.362	930.234	706.168
158.833	14.278	929.659	705.314
159.848	14.424	929.018	705.383
160.862	14.380	928.227	704.535
161.877	14.565	927.344	704.583
162.892	14.538	926.362	703.662
163.906	14.290	925.622	701.991
164.921	14.182	924.836	700.876
165.935	14.248	923.800	700.307
166.950	14.233	923.009	699.582
167.964	14.419	921.843	699.417
168.979	14.343	920.947	698.358
169.994	14.379	920.000	697.729
171.008	14.287	919.160	696.648
172.023	14.321	918.667	696.354
173.037	14.418	917.984	696.178
174.052	14.521	917.247	695.986
175.067	14.697	916.316	695.954
176.081	14.454	915.586	694.327
177.096	14.275	914.817	692.934
178.110	14.247	914.375	692.421
179.125	14.367	913.294	692.040
180.140	14.377	912.217	691.205
181.154	14.250	912.586	690.898
182.169	14.426	911.299	690.591
183.183	14.537	910.731	690.560
184.198	14.389	910.628	689.809
185.213	14.570	909.480	689.625
186.227	14.664	908.973	689.566
187.242	14.549	908.850	688.939
188.256	14.640	907.868	688.510
189.271	14.655	907.120	687.940
190.286	14.724	906.407	687.625
191.300	14.599	905.333	686.235
192.315	14.290	904.843	684.534
193.329	14.461	903.743	684.340
194.344	14.283	903.283	683.204
195.359	14.376	902.987	683.298
196.373	14.531	902.171	683.257
197.388	14.677	901.387	683.201
198.402	14.794	901.407	683.632
199.417	14.685	901.372	683.102
200.432	14.832	900.442	682.936
201.446	14.924	900.428	683.240
202.461	14.913	899.831	682.684
203.475	14.801	899.945	682.252
204.490	15.055	898.497	682.127
205.504	14.838	897.676	680.562
206.519	14.791	896.742	679.602
207.534	14.896	895.739	679.206
208.548	14.885	895.239	678.726
209.563	14.867	894.823	678.276
210.577	14.842	893.967	677.467
211.592	14.927	893.613	677.483
212.607	15.016	893.098	677.391
213.621	15.040	892.668	677.102
214.636	15.006	891.550	676.057
215.650	15.001	891.165	675.684
216.665	14.946	890.835	675.154
217.680	15.155	890.321	675.547
218.694	15.098	889.761	674.834
219.709	15.148	889.112	674.483
220.723	15.111	888.457	673.778
221.738	15.055	887.897	673.067
222.753	15.072	887.135	672.497
223.767	15.137	885.948	671.798
224.782	15.192	885.342	671.502
225.796	15.241	884.715	671.162
226.811	15.272	884.285	670.899
227.826	15.104	883.983	669.941
228.840	15.148	882.897	669.234
229.855	15.047	882.567	668.523
230.869	15.138	881.487	668.007
231.884	15.074	880.719	667.110
232.899	15.018	880.377	666.568
233.913	15.091	879.293	665.981
234.928	15.056	878.736	665.361
235.942	15.031	877.648	664.378
236.957	15.062	877.077	664.011
237.972	15.093	876.420	663.576
238.986	15.063	876.275	663.289
240.001	15.128	875.094	662.595
241.015	15.064	875.075	662.269
242.030	15.044	874.209	661.477
243.045	15.252	873.274	661.530
244.059	15.344	872.801	661.477
245.074	15.347	872.246	661.008
246.088	15.269	871.648	660.190
247.103	15.189	871.487	659.693
248.117	15.222	870.803	659.249
249.132	15.346	870.520	659.461
250.147	15.536	869.464	659.349
251.161	15.638	869.156	659.460
252.176	15.782	868.428	659.413
253.190	15.798	867.307	658.566
254.205	15.713	866.991	657.936
255.220	15.817	866.471	657.891
256.234	15.696	866.013	657.010
257.249	15.646	865.750	656.556
258.263	15.650	865.405	656.253
259.278	15.816	864.185	655.916
260.293	15.787	863.811	655.464
261.307	15.888	863.403	655.487
262.322	15.921	862.500	654.873
263.336	16.010	861.927	654.724
264.351	15.927	861.442	653.976
265.366	16.005	860.721	653.675
266.380	15.929	860.134	652.878
267.395	15.899	859.629	652.320
268.409	15.813	859.111	651.534
269.424	15.884	858.124	651.002
270.439	15.845	857.551	650.360
271.453	15.929	856.817	650.071
272.468	15.806	856.059	648.962
273.482	15.792	855.172	648.181
274.497	15.997	854.676	648.534
275.512	15.770	854.302	647.321
276.526	15.857	853.052	646.650
277.541	15.952	852.327	646.410
278.555	15.890	851.879	645.774
279.570	16.030	851.772	646.172
280.585	16.040	851.636	646.051
281.599	16.064	850.496	645.222
282.614	16.063	849.889	644.700
283.628	15.994	849.169	643.832
284.643	15.974	848.584	643.257
285.657	16.012	848.313	643.138
286.672	16.076	847.987	643.076
287.687	15.979	847.340	642.161
288.701	16.136	846.686	642.204
289.716	16.237	845.628	641.732
290.730	15.995	845.687	640.799
291.745	16.175	844.763	640.724
292.760	16.272	844.204	640.614
293.774	16.161	843.625	639.696
294.789	16.257	843.162	639.651
295.803	16.401	842.327	639.509
296.818	16.237	841.924	638.524
297.833	16.237	841.247	637.956
298.847	16.164	840.656	637.174
299.862	16.151	840.344	636.832
300.876	16.239	839.627	636.565
301.891	16.442	838.480	636.404
302.906	16.364	838.147	635.802
303.920	16.275	837.560	634.964
304.935	16.282	837.366	634.786
305.949	16.558	836.257	634.927
306.964	16.599	835.627	634.546
307.979	16.537	835.043	633.814
308.993	16.539	834.560	633.398
310.008	16.490	834.247	632.922
311.022	16.503	833.877	632.632
312.037	16.639	833.035	632.445
313.052	16.481	832.576	631.452
314.066	16.470	831.714	630.702
315.081	16.423	831.220	630.095
316.095	16.453	830.692	629.752
317.110	16.383	830.202	629.064
318.125	16.458	829.113	628.462
319.139	16.508	828.960	628.475
320.154	16.440	828.335	627.693
321.168	16.502	827.860	627.508
322.183	16.449	827.250	626.794
323.197	16.402	827.057	626.419
324.212	16.509	826.384	626.251
325.227	16.591	825.807	626.061
326.241	16.561	825.349	625.547
327.256	16.478	824.871	624.824
328.270	16.427	824.316	624.159
329.285	16.469	823.900	623.943
330.300	16.470	823.251	623.401
331.314	16.505	822.507	622.910
332.329	16.613	821.913	622.802
333.343	16.583	821.566	622.376
334.358	16.740	820.698	622.239
335.373	16.751	820.261	621.892
336.387	16.778	819.542	621.392
337.402	16.762	818.962	620.839
338.416	16.718	818.611	620.356
339.431	16.878	818.212	620.585
340.446	17.034	817.418	620.499
341.460	16.921	817.372	619.996
342.475	16.903	816.771	619.419
343.489	16.861	816.417	618.943
344.504	17.065	815.693	619.084
345.519	17.049	815.197	618.594
346.533	16.991	814.723	617.968
347.548	17.158	813.933	617.923
348.562	17.070	813.352	617.105
349.577	16.910	812.905	616.132
350.592	16.918	812.681	615.935
351.606	16.927	811.959	615.365
352.621	16.914	811.734	615.094
353.635	16.872	810.845	614.213
354.650	16.931	810.921	614.430
355.665	16.982	810.378	614.151
356.679	17.048	809.600	613.743
357.694	16.922	809.490	613.150
358.708	17.144	808.549	613.186
359.723	16.998	808.311	612.423
360.738	17.148	807.394	612.215
361.752	17.049	807.191	611.650
362.767	17.157	806.511	611.469
363.781	17.275	806.400	611.758
364.796	17.129	806.047	610.909
365.810	17.302	805.688	611.206
366.825	17.366	805.199	611.011
367.840	17.532	804.760	611.220
368.854	17.555	804.327	610.920
369.869	17.285	804.221	609.814
370.883	17.349	803.225	609.237
371.898	17.402	802.546	608.857
372.913	17.459	801.805	608.443
373.927	17.390	801.784	608.129
374.942	17.474	800.872	607.683
375.956	17.472	800.231	607.133
376.971	17.384	799.768	606.416
377.986	17.667	799.338	607.044
379.000	17.726	798.751	606.755
380.015	17.703	798.392	606.348
381.029	17.679	797.779	605.743
382.044	17.523	797.746	605.108
383.059	17.614	796.737	604.614
384.073	17.646	796.257	604.309
385.088	17.485	796.066	603.541
386.102	17.537	795.286	603.079
387.117	17.422	794.425	601.964
388.132	17.509	793.791	601.741
389.146	17.325	794.211	601.355
390.161	17.479	793.357	601.199
391.175	17.658	792.942	601.462
392.190	17.656	792.553	601.106
393.205	17.704	792.444	601.139
394.219	17.577	791.851	600.190
395.234	17.709	791.179	600.094
396.248	17.543	790.830	599.191
397.263	17.424	790.506	598.475
398.278	17.522	789.562	598.051
399.292	17.575	789.419	598.075
400.307	17.472	789.025	597.361
401.321	17.539	788.304	596.998
402.336	17.717	788.149	597.451
403.350	17.606	787.767	596.719
404.365	17.618	787.425	596.450
405.380	17.728	786.946	596.420
406.394	17.770	786.671	596.306
407.409	17.938	786.213	596.492
408.423	17.944	785.690	596.062
409.438	17.915	785.313	595.625
410.453	17.960	784.922	595.432
411.467	18.016	784.291	595.095
412.482	17.828	784.337	594.424
413.496	18.024	783.631	594.518
414.511	18.071	783.282	594.362
415.526	18.122	782.834	594.149
416.540	18.120	782.532	593.858
417.555	18.015	782.209	593.197
418.569	18.057	781.526	592.770
419.584	18.278	780.883	592.997
420.599	18.213	780.431	592.378
421.613	155.950	1368.720	1794.562
422.628	134.580	1454.458	1794.671
