DTS Sentinel unit serial number:	SN413079Multiplexer serial number:	ORYXHardware model number:	OX4-SRSoftware version number:	ORYX F/W v4.00 Oryx Data Collector v3.7.2.0data status	okinstallation	princeton_trtdifferential loss correction	single-endedforward channel	channel 3reverse channel	N/Adate	2019/09/13time	17:52:35forward acquisition time	60.00reverse acquisition time	0.00gamma	496.2192k internal	0.2305k external	0.2305temperature offset calibration	1.0131default loss term (dB/km)	0.3790temperature slope calibration	1.0000multiplexer offset coefficient	1.0000multiplexer slope coefficient	1.0000fibre end	0.00T internal ref (°C)	35.39T ext. ref 1 (°C)	4.97T ext. ref 2 (°C)	28.54length (m)	temperature (°C)	Stokes	anti-Stokes-747.200	800.000	-0.043	-0.140
-746.185	-200.000	0.004	0.061
-745.171	-2.184	0.377	-0.269
-744.156	-75.357	0.091	0.033
-743.142	-129.389	-0.136	0.019
-742.127	-200.000	-0.005	-0.175
-741.112	-115.980	-0.337	0.064
-740.098	-6.041	-0.072	-0.050
-739.083	-149.449	-0.250	0.020
-738.069	189.167	0.108	-0.165
-737.054	8.460	-0.089	0.068
-736.039	-45.364	-0.150	0.076
-735.025	160.967	-0.132	0.187
-734.010	-84.351	-0.185	-0.059
-732.996	302.299	-0.059	-0.111
-731.981	25.410	0.281	0.238
-730.966	326.332	-0.069	-0.134
-729.952	800.000	0.094	-0.329
-728.937	-177.019	0.388	0.010
-727.923	141.733	-0.217	-0.292
-726.908	-6.104	0.162	-0.113
-725.894	-200.000	-0.007	-0.420
-724.879	-137.423	-0.477	-0.055
-723.864	-200.000	0.012	-0.133
-722.850	257.349	-0.057	0.100
-721.835	112.851	0.422	-0.520
-720.821	334.823	-0.104	-0.206
-719.806	82.889	-0.330	0.365
-718.791	-50.230	0.199	-0.096
-717.777	60.709	-0.215	0.217
-716.762	71.508	0.217	0.229
-715.748	-200.000	0.024	0.222
-714.733	-40.516	0.207	0.109
-713.718	260.004	0.095	0.167
-712.704	-76.821	-0.319	0.113
-711.689	63.599	-0.165	-0.168
-710.675	-1.391	-0.130	-0.093
-709.660	11.890	-0.229	-0.179
-708.645	800.000	0.044	-0.152
-707.631	-70.001	-0.236	-0.091
-706.616	69.236	-0.095	-0.099
-705.602	-85.022	0.065	0.021
-704.587	-133.248	-0.202	0.026
-703.572	-32.777	-0.401	0.226
-702.558	-46.469	0.331	0.165
-701.543	-169.433	0.212	0.008
-700.529	800.000	0.110	-0.377
-699.514	-48.625	-0.201	-0.098
-698.499	239.375	-0.086	-0.145
-697.485	-9.107	-0.098	0.067
-696.470	-200.000	0.002	0.187
-695.456	-162.824	-0.280	-0.014
-694.441	440.603	0.088	0.195
-693.426	800.000	0.115	-0.437
-692.412	800.000	0.029	0.113
-691.397	125.360	-0.076	0.097
-690.383	-173.997	0.239	-0.007
-689.368	-72.933	0.192	0.072
-688.354	435.666	0.181	0.399
-687.339	127.845	-0.174	0.225
-686.324	800.000	0.048	-0.190
-685.310	23.208	0.124	0.104
-684.295	113.139	0.160	-0.197
-683.281	-108.674	0.254	-0.055
-682.266	-40.735	0.492	-0.259
-681.251	91.546	-0.099	0.113
-680.237	2.470	0.053	0.039
-679.222	-200.000	-0.029	-0.176
-678.208	800.000	-0.066	-0.230
-677.193	115.971	-0.351	0.436
-676.178	-6.435	-0.323	0.223
-675.164	468.574	-0.123	0.281
-674.149	-77.260	0.235	0.083
-673.135	4.447	-0.303	0.226
-672.120	152.931	-0.149	0.207
-671.105	-56.282	-0.180	-0.081
-670.091	174.191	0.169	-0.248
-669.076	-44.964	-0.269	0.136
-668.062	323.518	-0.118	0.229
-667.047	-200.000	-0.029	0.248
-666.032	25.086	0.190	0.160
-665.018	-151.881	-0.149	-0.011
-664.003	25.784	0.315	0.266
-662.989	326.149	0.079	-0.154
-661.974	-72.435	-0.179	0.067
-660.959	99.792	-0.226	0.266
-659.945	800.000	-0.017	0.061
-658.930	253.050	0.007	-0.012
-657.916	-200.000	-0.041	0.273
-656.901	25.310	0.198	0.167
-655.886	-18.327	-0.343	-0.217
-654.872	-134.468	0.365	0.045
-653.857	44.533	-0.238	-0.222
-652.843	358.311	0.011	0.022
-651.828	102.911	-0.087	0.103
-650.814	429.544	0.070	0.155
-649.799	-96.044	0.528	-0.143
-648.784	-82.066	-0.080	-0.027
-647.770	-200.000	-0.010	-0.182
-646.755	288.750	0.161	-0.296
-645.741	-82.625	-0.220	0.072
-644.726	-147.872	-0.072	0.006
-643.711	-85.126	-0.239	0.076
-642.697	-156.665	0.121	0.008
-641.682	-181.743	0.364	0.007
-640.668	449.291	-0.128	0.286
-639.653	-88.993	0.342	-0.103
-638.638	194.359	0.078	0.121
-637.624	22.010	-0.170	-0.141
-636.609	-59.896	-0.355	0.154
-635.595	308.004	-0.096	0.181
-634.580	32.381	0.164	0.144
-633.565	298.139	-0.142	0.265
-632.551	153.970	-0.122	0.169
-631.536	-113.306	-0.090	0.018
-630.522	-131.129	-0.178	-0.024
-629.507	-200.000	0.005	-0.149
-628.492	-193.748	-0.255	-0.002
-627.478	-200.000	0.020	-0.181
-626.463	-58.826	0.074	-0.033
-625.449	52.419	-0.013	-0.013
-624.434	93.211	0.039	-0.045
-623.419	-137.528	-0.110	-0.013
-622.405	-200.000	0.028	-0.157
-621.390	-42.030	0.107	0.055
-620.376	5.751	0.032	-0.024
-619.361	57.407	0.219	-0.217
-618.346	-158.541	-0.148	0.009
-617.332	800.000	0.089	-0.292
-616.317	420.388	-0.061	0.132
-615.303	800.000	0.028	0.097
-614.288	-200.000	0.006	-0.104
-613.273	286.904	0.160	0.293
-612.259	425.485	-0.091	-0.199
-611.244	136.145	-0.087	0.115
-610.230	-28.296	-0.221	-0.129
-609.215	800.000	-0.111	-0.332
-608.201	-50.893	0.195	0.093
-607.186	212.890	0.056	0.089
-606.171	-1.755	0.127	-0.091
-605.157	45.471	-0.068	-0.063
-604.142	71.066	0.269	-0.282
-603.128	-200.000	-0.061	-0.338
-602.113	220.257	0.096	-0.156
-601.098	-200.000	0.013	0.231
-600.084	-11.116	0.243	0.162
-599.069	800.000	0.039	-0.156
-598.055	5.225	-0.067	0.050
-597.040	107.581	0.095	0.114
-596.025	-70.944	-0.143	-0.055
-595.011	-44.045	-0.139	0.071
-593.996	-200.000	-0.093	0.573
-592.982	800.000	-0.057	0.167
-591.967	-155.745	0.352	-0.023
-590.952	197.259	-0.070	0.109
-589.938	-150.646	0.269	0.021
-588.923	42.619	-0.184	0.170
-587.909	32.954	0.091	0.080
-586.894	-6.327	-0.130	-0.090
-585.879	-2.612	0.257	-0.182
-584.865	141.249	-0.044	0.059
-583.850	295.734	-0.056	0.103
-582.836	800.000	-0.036	0.154
-581.821	-200.000	-0.006	-0.165
-580.806	-156.220	-0.245	0.016
-579.792	-89.613	-0.156	-0.046
-578.777	-25.198	0.129	0.077
-577.763	639.304	0.083	-0.214
-576.748	6.093	-0.056	-0.042
-575.733	-72.766	-0.102	0.038
-574.719	-103.405	-0.065	-0.015
-573.704	-94.189	0.372	-0.103
-572.690	380.526	0.116	0.241
-571.675	800.000	-0.117	0.407
-570.661	544.915	-0.067	-0.163
-569.646	168.190	0.060	0.086
-568.631	-87.743	0.194	-0.059
-567.617	476.209	-0.048	0.110
-566.602	348.882	-0.090	0.180
-565.588	46.937	0.100	-0.094
-564.573	-116.876	-0.070	0.013
-563.558	-126.561	-0.287	0.043
-562.544	-200.000	-0.004	0.123
-561.529	214.828	-0.066	-0.105
-560.515	-200.000	-0.036	-0.175
-559.500	-200.000	-0.003	0.076
-558.485	-114.051	-0.394	-0.077
-557.471	-58.841	-0.128	-0.056
-556.456	59.235	0.145	-0.144
-555.442	596.618	-0.070	-0.175
-554.427	-99.032	-0.274	-0.070
-553.412	-60.927	0.185	0.079
-552.398	-200.000	-0.015	-0.117
-551.383	800.000	-0.041	-0.117
-550.369	-47.498	0.515	-0.253
-549.354	-200.000	-0.008	-0.161
-548.339	800.000	0.097	0.314
-547.325	-200.000	0.087	-0.411
-546.310	-16.744	-0.044	-0.028
-545.296	-20.926	-0.271	-0.168
-544.281	28.218	0.130	-0.111
-543.266	354.635	-0.150	0.300
-542.252	-59.656	-0.348	0.151
-541.237	-29.169	-0.045	-0.026
-540.223	-103.545	0.182	0.043
-539.208	-120.584	-0.566	-0.097
-538.193	800.000	0.016	-0.064
-537.179	-200.000	0.058	0.366
-536.164	351.722	-0.073	0.145
-535.150	-56.804	-0.207	-0.092
-534.135	-200.000	0.005	0.140
-533.121	-96.479	0.088	-0.024
-532.106	-200.000	-0.000	-0.098
-531.091	56.243	0.034	-0.034
-530.077	131.263	-0.179	0.232
-529.062	181.055	-0.039	0.058
-528.048	-62.834	-0.049	0.020
-527.033	611.182	0.122	-0.307
-526.018	92.595	0.136	-0.155
-525.004	-10.025	-0.298	0.200
-523.989	1.423	0.109	-0.079
-522.975	56.218	-0.060	-0.059
-521.960	-77.250	0.203	-0.071
-520.945	208.679	0.199	0.314
-519.931	-135.992	-0.301	0.036
-518.916	800.000	0.076	-0.261
-517.902	65.613	0.047	0.048
-516.887	-117.393	-0.572	0.105
-515.872	4.086	0.042	-0.031
-514.858	51.293	-0.123	-0.118
-513.843	-200.000	-0.011	-0.312
-512.829	208.631	0.295	-0.466
-511.814	-124.658	-0.076	0.012
-510.799	14.508	-0.073	0.057
-509.785	35.697	0.150	-0.133
-508.770	125.863	-0.101	0.128
-507.756	16.807	-0.128	-0.102
-506.741	-72.415	0.178	-0.066
-505.726	446.457	-0.087	0.193
-504.712	47.857	-0.124	0.116
-503.697	-22.797	0.073	0.044
-502.683	83.516	-0.179	-0.197
-501.668	800.000	-0.034	-0.104
-500.653	-64.707	0.305	0.125
-499.639	800.000	0.095	0.272
-498.624	55.964	0.155	0.152
-497.610	-47.785	-0.157	0.077
-496.595	-82.048	-0.263	0.087
-495.581	89.239	-0.069	-0.077
-494.566	-17.693	0.205	0.130
-493.551	18.526	0.115	0.092
-492.537	800.000	-0.043	0.133
-491.522	-72.087	0.059	-0.022
-490.508	-23.027	0.213	-0.129
-489.493	89.916	-0.199	0.224
-488.478	-37.759	-0.152	-0.082
-487.464	566.939	0.124	0.303
-486.449	-73.636	-0.149	0.055
-485.435	154.178	0.104	-0.144
-484.420	-58.038	0.115	0.051
-483.405	-41.504	0.383	0.199
-482.391	800.000	-0.074	-0.259
-481.376	204.889	0.115	-0.179
-480.362	86.880	-0.168	0.187
-479.347	-36.924	-0.042	0.023
-478.332	-68.822	-0.208	-0.081
-477.318	-85.463	0.070	-0.022
-476.303	79.903	0.172	-0.186
-475.289	-126.874	-0.356	-0.053
-474.274	-112.975	-0.275	-0.055
-473.259	125.859	0.108	0.138
-472.245	-200.000	0.017	0.157
-471.230	-41.211	-0.419	-0.218
-470.216	-157.587	-0.067	0.004
-469.201	-22.924	-0.001	-0.001
-468.186	-31.886	-0.218	-0.123
-467.172	-19.269	-0.092	-0.058
-466.157	-116.708	-0.297	0.055
-465.143	800.000	0.096	-0.400
-464.128	139.506	-0.090	0.120
-463.113	-75.549	0.196	-0.070
-462.099	68.099	-0.260	0.268
-461.084	-125.627	0.287	-0.044
-460.070	-200.000	0.008	-0.147
-459.055	758.964	-0.022	0.061
-458.040	800.000	0.134	0.373
-457.026	133.580	0.095	0.124
-456.011	-19.557	0.072	0.045
-454.997	-109.095	0.229	-0.049
-453.982	282.121	0.165	0.298
-452.968	-71.292	-0.320	-0.121
-451.953	358.763	0.163	0.327
-450.938	60.130	-0.230	-0.229
-449.924	182.705	-0.043	0.063
-448.909	-200.000	0.032	-0.248
-447.895	-200.000	0.005	-0.074
-446.880	-200.000	-0.030	0.258
-445.865	800.000	-0.063	-0.243
-444.851	-31.403	0.312	0.177
-443.836	-14.129	0.432	-0.281
-442.822	-126.652	-0.366	0.055
-441.807	-106.860	0.261	-0.058
-440.792	216.080	0.105	0.167
-439.778	-2.441	0.174	0.123
-438.763	-113.317	0.019	-0.004
-437.749	18.502	-0.167	-0.134
-436.734	-200.000	0.019	-0.193
-435.719	37.217	-0.166	-0.148
-434.705	-164.175	0.413	-0.019
-433.690	97.935	-0.044	-0.051
-432.676	-200.000	-0.010	0.150
-431.661	252.122	-0.157	0.269
-430.646	800.000	0.086	-0.255
-429.632	-200.000	-0.008	-0.130
-428.617	512.768	-0.043	0.100
-427.603	-61.511	-0.190	0.080
-426.588	-37.790	-0.231	0.123
-425.573	95.585	0.124	-0.142
-424.559	170.903	-0.224	-0.323
-423.544	-60.030	0.165	-0.071
-422.530	42.640	0.155	-0.142
-421.515	-200.000	0.450	0.000
-420.500	-163.563	-0.296	0.014
-419.486	-98.389	0.192	-0.049
-418.471	18.776	-0.174	0.140
-417.457	-200.000	-0.024	-0.190
-416.442	277.827	-0.066	0.117
-415.428	-66.112	0.116	0.046
-414.413	-200.000	0.025	-0.117
-413.398	-171.971	-0.317	-0.010
-412.384	-19.821	0.189	0.118
-411.369	113.167	0.352	0.429
-410.355	606.241	0.099	-0.247
-409.340	159.789	-0.125	-0.175
-408.325	-144.277	-0.727	0.068
-407.311	394.477	-0.063	0.132
-406.296	127.659	0.183	-0.233
-405.282	1.786	0.221	0.160
-404.267	-153.152	0.122	-0.009
-403.252	-119.567	-0.117	-0.020
-402.238	-102.793	-0.100	0.024
-401.223	165.633	-0.077	-0.110
-400.209	-200.000	0.022	-0.269
-399.194	-200.000	-0.013	-0.154
-398.179	800.000	0.078	0.239
-397.165	-139.187	-0.174	0.019
-396.150	-200.000	0.047	-0.212
-395.136	800.000	0.050	0.188
-394.121	800.000	-0.089	0.252
-393.106	-6.807	0.321	-0.219
-392.092	-82.626	-0.383	0.125
-391.077	-24.861	0.251	-0.150
-390.063	-113.640	0.048	-0.010
-389.048	-200.000	-0.013	-0.142
-388.033	48.063	0.274	-0.257
-387.019	26.567	0.094	-0.079
-386.004	-54.746	-0.293	-0.133
-384.990	800.000	-0.057	0.191
-383.975	307.355	0.069	-0.128
-382.960	25.519	0.307	0.257
-381.946	-152.827	-0.352	0.025
-380.931	-36.196	0.358	0.194
-379.917	138.606	0.178	-0.235
-378.902	-142.580	-0.346	0.034
-377.888	83.493	-0.130	0.142
-376.873	-200.000	0.016	-0.109
-375.858	36.899	-0.125	-0.111
-374.844	267.050	-0.158	-0.278
-373.829	49.822	0.263	0.249
-372.815	-62.882	-0.053	0.022
-371.800	25.936	-0.385	0.322
-370.785	707.958	-0.070	0.186
-369.771	40.789	-0.231	0.209
-368.756	-9.502	-0.062	0.041
-367.742	-70.258	0.089	0.034
-366.727	152.912	-0.117	-0.160
-365.712	800.000	0.079	0.336
-364.698	-2.518	-0.206	0.145
-363.683	-112.862	-0.336	-0.067
-362.669	-114.941	-0.163	-0.031
-361.654	16.847	0.089	0.070
-360.639	43.395	0.142	0.130
-359.625	-200.000	0.008	0.178
-358.610	284.996	-0.052	-0.094
-357.596	167.014	0.077	0.110
-356.581	800.000	-0.119	-0.400
-355.566	745.673	0.021	0.057
-354.552	263.353	0.157	-0.273
-353.537	226.840	-0.094	-0.153
-352.523	410.911	-0.114	0.243
-351.508	486.903	0.113	0.258
-350.493	321.919	0.065	0.123
-349.479	287.310	-0.025	-0.046
-348.464	-200.000	-0.045	-0.415
-347.450	-200.000	0.022	0.387
-346.435	-41.932	-0.130	-0.067
-345.420	-200.000	-0.048	0.463
-344.406	524.980	-0.060	0.142
-343.391	-109.479	-0.157	0.033
-342.377	-200.000	0.015	-0.090
-341.362	-7.671	-0.127	-0.086
-340.348	-7.528	0.113	-0.077
-339.333	59.239	0.045	0.044
-338.318	-84.111	-0.068	0.022
-337.304	-200.000	-0.017	0.107
-336.289	800.000	0.084	-0.286
-335.275	127.878	-0.054	-0.068
-334.260	147.072	0.128	0.173
-333.245	-56.369	0.257	0.114
-332.231	-40.914	-0.191	-0.099
-331.216	-10.843	0.317	-0.210
-330.202	633.770	0.037	-0.093
-329.187	12.540	-0.246	-0.190
-328.172	-155.215	-0.065	-0.004
-327.158	272.591	0.146	-0.258
-326.143	313.808	-0.146	-0.275
-325.129	-200.000	-0.015	-0.130
-324.114	67.743	-0.063	-0.064
-323.099	-200.000	0.025	0.222
-322.085	-102.281	0.151	0.036
-321.070	-115.187	0.507	0.096
-320.056	-36.943	0.327	0.176
-319.041	-62.980	0.350	0.145
-318.026	478.790	-0.040	0.091
-317.012	43.178	-0.028	0.025
-315.997	60.272	0.014	0.014
-314.983	86.596	0.219	0.242
-313.968	-60.765	-0.252	-0.107
-312.953	88.294	-0.064	-0.071
-311.939	-73.935	0.108	0.039
-310.924	-186.568	0.116	-0.002
-309.910	227.739	0.062	-0.101
-308.895	-62.658	-0.097	0.040
-307.880	97.447	0.047	0.054
-306.866	45.623	-0.194	-0.180
-305.851	-50.294	-0.146	0.069
-304.837	-103.948	0.237	-0.055
-303.822	300.439	-0.079	-0.145
-302.807	188.160	0.152	-0.227
-301.793	-144.294	0.305	-0.028
-300.778	-166.505	-0.237	0.010
-299.764	-62.213	-0.092	-0.039
-298.749	-94.616	0.061	-0.017
-297.735	-111.853	-0.241	0.049
-296.720	-113.509	0.322	-0.063
-295.705	-82.144	-0.242	0.079
-294.691	-14.357	0.088	0.057
-293.676	268.209	-0.024	0.041
-292.662	192.848	-0.116	-0.175
-291.647	-60.187	0.214	0.091
-290.632	-3.936	0.235	-0.163
-289.618	-200.000	-0.021	0.144
-288.603	227.691	-0.130	0.211
-287.589	-86.245	-0.182	0.056
-286.574	-102.869	-0.245	0.058
-285.559	116.047	0.076	0.093
-284.545	438.156	-0.092	0.200
-283.530	56.462	-0.192	-0.187
-282.516	800.000	-0.033	0.112
-281.501	247.615	0.081	-0.138
-280.486	574.885	-0.016	0.040
-279.472	-104.368	0.175	0.041
-278.457	-103.714	0.200	0.047
-277.443	27.284	-0.013	-0.011
-276.428	-200.000	-0.007	0.139
-275.413	-105.090	0.005	0.001
-274.399	-200.000	-0.030	0.147
-273.384	-45.517	0.281	-0.139
-272.370	-90.744	0.141	0.041
-271.355	582.599	-0.048	0.119
-270.340	57.879	-0.055	0.053
-269.326	-145.832	-0.287	-0.025
-268.311	-93.123	0.196	-0.054
-267.297	96.880	-0.126	-0.144
-266.282	-33.228	0.295	-0.163
-265.267	60.296	0.045	-0.044
-264.253	-111.707	0.079	0.016
-263.238	-68.873	-0.271	-0.105
-262.224	-41.470	0.123	-0.063
-261.209	-200.000	0.041	-0.314
-260.195	-156.790	-0.015	-0.001
-259.180	-53.920	0.094	-0.043
-258.165	-200.000	-0.007	0.072
-257.151	-56.353	0.281	0.125
-256.136	385.513	-0.123	0.253
-255.122	-186.102	-0.230	-0.003
-254.107	273.509	-0.064	0.113
-253.092	-198.054	-0.194	-0.001
-252.078	-109.981	0.290	0.061
-251.063	234.998	0.225	0.371
-250.049	-85.231	0.083	-0.026
-249.034	800.000	0.090	0.297
-248.019	376.290	0.068	-0.138
-247.005	3.421	0.161	0.117
-245.990	45.066	-0.078	0.072
-244.976	2.047	-0.324	-0.234
-243.961	414.617	-0.104	0.220
-242.946	-41.541	0.185	-0.095
-241.932	-200.000	0.004	0.145
-240.917	81.743	0.190	0.205
-239.903	800.000	0.007	-0.029
-238.888	-45.895	0.358	-0.176
-237.873	124.079	-0.137	-0.171
-236.859	-175.778	-0.085	0.002
-235.844	-200.000	-0.010	-0.088
-234.830	787.563	-0.131	-0.359
-233.815	197.070	0.108	0.164
-232.800	-66.284	0.255	-0.101
-231.786	61.019	0.227	-0.225
-230.771	-97.596	0.124	-0.032
-229.757	-130.460	-0.312	0.042
-228.742	800.000	-0.129	0.366
-227.727	28.565	-0.361	-0.305
-226.713	-28.906	0.104	-0.059
-225.698	-11.289	-0.204	-0.134
-224.684	282.698	-0.078	-0.140
-223.669	-104.024	0.297	-0.069
-222.655	73.314	-0.264	0.276
-221.640	-200.000	0.017	0.075
-220.625	-200.000	0.053	0.311
-219.611	-200.000	-0.053	-0.250
-218.596	67.162	0.072	0.073
-217.582	-200.000	-0.011	-0.073
-216.567	-88.034	0.205	-0.062
-215.552	-200.000	-0.036	0.262
-214.538	-167.454	-0.396	-0.016
-213.523	237.721	-0.087	0.144
-212.509	-79.158	0.104	0.035
-211.494	79.789	0.283	-0.303
-210.479	-200.000	-0.015	0.153
-209.465	-127.817	0.219	-0.031
-208.450	800.000	-0.027	0.101
-207.436	-200.000	0.019	-0.094
-206.421	-39.484	0.077	-0.040
-205.406	-26.550	-0.086	0.050
-204.392	-75.381	0.111	-0.039
-203.377	-200.000	-0.018	-0.114
-202.363	245.391	0.032	0.054
-201.348	-168.710	-0.075	-0.003
-200.333	-200.000	0.005	-0.062
-199.319	-151.315	-0.327	-0.024
-198.304	75.776	-0.105	0.110
-197.290	-37.524	0.165	-0.088
-196.275	-200.000	-0.004	-0.036
-195.260	-94.341	-0.145	0.039
-194.246	-200.000	-0.053	0.239
-193.231	800.000	-0.040	0.120
-192.217	-97.151	-0.133	-0.035
-191.202	207.249	-0.157	0.244
-190.187	515.377	0.039	0.091
-189.173	800.000	0.143	0.451
-188.158	-200.000	0.080	-0.355
-187.144	196.181	0.121	-0.183
-186.129	204.325	-0.138	-0.213
-185.114	169.309	-0.215	-0.306
-184.100	-76.329	-0.010	-0.003
-183.085	800.000	0.065	-0.188
-182.071	-120.141	0.050	0.008
-181.056	800.000	-0.064	-0.260
-180.042	-113.669	-0.080	0.016
-179.027	20.342	0.159	0.128
-178.012	79.674	0.039	0.042
-176.998	382.616	-0.035	-0.071
-175.983	800.000	-0.043	0.146
-174.969	176.018	0.156	0.225
-173.954	172.156	-0.055	-0.079
-172.939	800.000	0.026	-0.085
-171.925	24.656	0.177	-0.146
-170.910	353.979	0.070	-0.138
-169.896	16.515	0.094	-0.074
-168.881	192.771	-0.149	0.224
-167.866	457.513	0.164	0.363
-166.852	-10.578	-0.136	0.089
-165.837	477.093	0.144	0.323
-164.823	-200.000	-0.022	-0.161
-163.808	762.008	-0.102	0.276
-162.793	-74.702	0.200	0.072
-161.779	-95.129	0.202	-0.054
-160.764	774.055	0.088	-0.238
-159.750	57.847	0.334	-0.325
-158.735	33.263	-0.159	-0.137
-157.720	-40.616	-0.073	0.038
-156.706	66.747	-0.168	-0.170
-155.691	12.829	0.390	0.300
-154.677	18.953	0.143	0.114
-153.662	-123.036	-0.011	0.002
-152.647	-200.000	0.010	-0.235
-151.633	-167.761	-0.108	-0.004
-150.618	800.000	-0.080	0.273
-149.604	-160.177	0.147	0.008
-148.589	-82.643	-0.100	-0.032
-147.574	538.018	-0.091	-0.215
-146.560	-63.371	0.089	0.036
-145.545	800.000	-0.045	-0.136
-144.531	-200.000	-0.015	0.454
-143.516	-200.000	-0.027	0.190
-142.502	386.929	-0.016	-0.034
-141.487	-95.135	-0.230	-0.062
-140.472	7.626	0.133	-0.099
-139.458	241.881	-0.078	0.129
-138.443	-178.158	0.133	-0.003
-137.429	800.000	0.027	0.098
-136.414	800.000	0.026	0.090
-135.399	-86.042	0.210	0.064
-134.385	-95.868	0.291	0.077
-133.370	-152.593	0.185	-0.013
-132.356	-200.000	0.015	-0.183
-131.341	-135.746	0.104	-0.012
-130.326	-105.307	0.285	0.065
-129.312	-65.237	-0.095	-0.038
-128.297	65.336	-0.031	-0.031
-127.283	-200.000	0.016	-0.200
-126.268	-129.416	-0.185	-0.026
-125.253	189.806	0.056	-0.084
-124.239	-200.000	0.039	-0.194
-123.224	559.120	-0.113	-0.272
-122.210	-5.725	-0.128	-0.087
-121.195	-200.000	-0.006	-0.078
-120.180	8.570	0.176	0.132
-119.166	-4.439	-0.253	0.173
-118.151	-200.000	-0.028	0.224
-117.137	40.915	0.330	-0.296
-116.122	800.000	-0.086	0.282
-115.107	679.199	0.014	-0.035
-114.093	-123.128	0.333	0.053
-113.078	54.053	0.109	0.104
-112.064	-26.937	0.182	-0.106
-111.049	-200.000	-0.031	0.142
-110.034	-114.121	-0.212	-0.041
-109.020	800.000	-0.063	-0.176
-108.005	159.175	0.092	-0.128
-106.991	325.246	-0.091	0.173
-105.976	26.824	-0.214	0.178
-104.962	-101.633	-0.247	-0.060
-103.947	207.391	0.158	-0.245
-102.932	-97.255	0.202	0.052
-101.918	-122.715	0.220	-0.035
-100.903	195.392	-0.055	0.083
-99.889	-200.000	0.005	-0.038
-98.874	183.848	0.195	0.286
-97.859	529.600	0.169	0.396
-96.845	800.000	-0.019	0.083
-95.830	111.550	0.056	0.067
-94.816	-21.618	-0.088	0.053
-93.801	-31.588	0.126	0.070
-92.786	-98.825	0.370	0.093
-91.772	43.751	0.082	-0.075
-90.757	-168.411	0.186	-0.007
-89.743	-38.326	0.106	-0.055
-88.728	-200.000	0.023	-0.168
-87.713	-5.109	0.327	0.223
-86.699	-17.468	-0.230	0.144
-85.684	-34.189	0.226	0.123
-84.670	2.366	0.329	0.236
-83.655	15.293	0.314	0.244
-82.640	573.855	-0.056	0.137
-81.626	-200.000	-0.036	-0.216
-80.611	163.612	0.350	0.488
-79.597	201.537	-0.148	0.227
-78.582	800.000	0.036	-0.105
-77.567	-22.828	0.409	-0.245
-76.553	-200.000	-0.008	0.185
-75.538	117.119	-0.084	0.102
-74.524	-53.515	0.197	0.089
-73.509	-200.000	0.016	0.284
-72.494	800.000	-0.047	-0.180
-71.480	-43.051	0.060	-0.030
-70.465	-45.566	-0.426	0.209
-69.451	112.108	0.055	-0.066
-68.436	344.630	0.174	-0.338
-67.422	-200.000	0.027	-0.286
-66.407	-96.242	-0.197	-0.052
-65.392	52.301	-0.185	0.175
-64.378	-200.000	-0.004	0.195
-63.363	800.000	-0.032	0.127
-62.349	12.265	-0.069	0.052
-61.334	-82.841	-0.997	-0.319
-60.319	41.414	0.448	0.402
-59.305	731.787	-0.280	-0.742
-58.290	228.943	0.618	0.998
-57.276	709.200	0.680	1.781
-56.261	-200.000	96.626	576.076
-55.246	641.626	1389.686	3507.498
-54.232	186.207	2603.005	3836.860
-53.217	121.900	2201.257	2721.361
-52.203	45.916	1734.794	1590.133
-51.188	38.481	1544.774	1364.329
-50.173	36.060	1516.859	1323.023
-49.159	54.729	1567.680	1498.122
-48.144	58.764	1586.657	1544.351
-47.130	38.951	1541.487	1364.482
-46.115	35.662	1526.029	1328.063
-45.100	35.524	1522.835	1324.274
-44.086	35.405	1520.810	1321.646
-43.071	35.290	1519.317	1319.500
-42.057	35.361	1517.420	1318.294
-41.042	35.289	1516.194	1316.682
-40.027	35.308	1514.645	1315.409
-39.013	35.290	1512.944	1313.761
-37.998	35.344	1511.817	1313.096
-36.984	35.403	1510.495	1312.304
-35.969	35.387	1509.246	1311.056
-34.954	35.313	1508.319	1309.694
-33.940	35.435	1506.677	1309.046
-32.925	35.413	1505.028	1307.413
-31.911	35.411	1504.308	1306.719
-30.896	35.369	1502.609	1304.908
-29.881	35.421	1501.246	1304.029
-28.867	35.479	1499.737	1303.056
-27.852	35.468	1498.308	1301.689
-26.838	35.431	1497.129	1300.360
-25.823	35.555	1494.940	1299.250
-24.809	35.465	1493.690	1297.505
-23.794	35.501	1492.071	1296.285
-22.779	35.381	1491.208	1294.674
-21.765	35.463	1489.734	1293.896
-20.750	35.542	1488.540	1293.339
-19.736	35.379	1487.754	1291.513
-18.721	35.382	1486.648	1290.518
-17.706	35.309	1485.675	1289.134
-16.692	35.379	1484.851	1288.833
-15.677	35.392	1483.792	1287.953
-14.663	35.422	1482.783	1287.226
-13.648	35.302	1481.758	1285.480
-12.633	35.322	1480.720	1284.667
-11.619	35.480	1479.245	1284.395
-10.604	35.411	1478.718	1283.424
-9.590	35.336	1478.492	1282.674
-8.575	35.239	1477.460	1281.077
-7.560	35.348	1476.221	1280.682
-6.546	35.367	1475.262	1279.927
-5.531	35.389	1474.399	1279.274
-4.517	35.317	1473.708	1278.145
-3.502	35.318	1472.569	1277.113
-2.487	35.276	1471.675	1276.007
-1.473	35.348	1470.224	1275.171
-0.458	35.359	1468.800	1273.963
0.556	36.921	1459.072	1261.223
1.571	33.008	1430.618	1211.478
2.586	27.875	1365.525	1124.736
3.600	25.397	1279.795	1039.710
4.615	23.307	1232.231	989.320
5.629	19.509	1175.376	923.311
6.644	11.791	1091.727	819.034
7.659	5.896	1051.170	760.055
8.673	5.084	1045.221	751.776
9.688	4.946	1042.720	749.243
10.702	4.864	1041.036	747.574
11.717	4.977	1039.636	747.043
12.731	6.673	1040.973	756.073
13.746	13.900	1050.694	797.904
14.761	20.339	1058.599	834.912
15.775	21.550	1059.655	841.494
16.790	20.862	1058.116	836.892
17.804	19.868	1056.281	830.600
18.819	19.061	1053.723	824.649
19.834	18.525	1053.022	821.460
20.848	18.379	1051.865	819.786
21.863	18.409	1051.038	819.213
22.877	18.143	1050.221	817.233
23.892	17.917	1049.827	815.774
24.907	17.826	1048.885	814.534
25.921	17.789	1047.988	813.590
26.936	17.772	1046.923	812.611
27.950	18.019	1045.853	812.884
28.965	17.931	1045.070	811.785
29.980	17.967	1043.808	810.905
30.994	18.007	1043.218	810.560
32.009	18.168	1042.147	810.423
33.023	18.225	1042.012	810.514
34.038	18.147	1040.720	809.071
35.053	18.114	1039.892	808.199
36.067	18.006	1039.218	807.093
37.082	17.911	1038.426	805.958
38.096	17.905	1037.363	805.031
39.111	18.009	1037.136	805.277
40.126	18.155	1035.883	804.917
41.140	18.038	1034.683	803.363
42.155	17.819	1033.401	801.272
43.169	17.593	1032.271	799.262
44.184	17.588	1031.164	798.310
45.199	17.636	1030.392	797.866
46.213	17.536	1029.421	796.576
47.228	17.530	1028.520	795.780
48.242	17.894	1027.360	796.513
49.257	18.011	1026.772	796.533
50.271	17.934	1026.029	795.525
51.286	17.924	1024.943	794.566
52.301	17.997	1024.547	794.529
53.315	17.981	1023.567	793.626
54.330	17.831	1023.020	792.434
55.344	17.739	1021.784	790.980
56.359	17.714	1020.686	789.942
57.374	17.653	1020.205	789.219
58.388	17.660	1019.436	788.587
59.403	17.724	1018.228	787.877
60.417	17.663	1018.029	787.376
61.432	17.488	1017.262	785.902
62.447	17.531	1016.482	785.430
63.461	17.408	1015.572	784.089
64.476	17.429	1014.318	783.150
65.490	17.390	1013.674	782.403
66.505	17.406	1012.760	781.700
67.520	17.530	1011.831	781.485
68.534	17.487	1011.379	780.870
69.549	17.430	1010.804	780.096
70.563	17.358	1010.303	779.309
71.578	17.420	1009.147	778.633
72.593	17.274	1008.245	777.202
73.607	17.263	1006.724	775.909
74.622	17.205	1005.739	774.819
75.636	17.215	1005.289	774.445
76.651	17.141	1005.006	773.821
77.666	17.293	1003.931	773.619
78.680	17.340	1002.887	772.957
79.695	17.383	1002.929	773.117
80.709	17.479	1001.940	772.724
81.724	17.417	1001.159	771.772
82.739	17.545	1000.731	771.955
83.753	17.641	1000.263	771.958
84.768	17.742	999.606	771.842
85.782	17.992	999.186	772.578
86.797	18.287	998.308	773.165
87.812	18.108	997.178	771.416
88.826	17.941	996.629	770.168
89.841	17.945	995.455	769.212
90.855	18.048	994.783	769.088
91.870	18.018	994.140	768.385
92.884	18.047	993.279	767.784
93.899	18.168	992.601	767.734
94.914	18.195	991.921	767.261
95.928	18.258	991.046	766.801
96.943	18.246	990.434	766.206
97.957	18.174	989.416	765.027
98.972	18.007	988.924	763.833
99.987	18.147	988.101	763.756
101.001	18.035	987.614	762.809
102.016	18.011	986.764	761.977
103.030	18.059	985.406	761.076
104.045	18.054	984.310	760.139
105.060	18.087	983.589	759.662
106.074	17.987	982.941	758.650
107.089	17.715	982.129	756.749
108.103	17.707	980.663	755.521
109.118	17.480	979.768	753.756
110.133	17.507	978.874	753.123
111.147	17.538	977.932	752.467
112.162	17.436	977.387	751.531
113.176	17.537	976.732	751.408
114.191	17.684	975.842	751.302
115.206	17.558	975.391	750.335
116.220	17.624	974.529	749.895
117.235	17.644	973.235	748.923
118.249	17.639	972.471	748.245
119.264	17.612	971.502	747.317
120.279	17.474	971.138	746.367
121.293	17.482	970.201	745.613
122.308	17.388	968.882	744.121
123.322	17.273	968.489	743.252
124.337	17.226	967.332	742.093
125.352	17.301	966.214	741.498
126.366	17.282	965.241	740.603
127.381	17.190	964.364	739.461
128.395	17.267	963.208	738.845
129.410	17.359	962.246	738.441
130.424	17.345	961.536	737.770
131.439	17.496	960.409	737.494
132.454	17.578	959.659	737.209
133.468	17.598	959.229	736.899
134.483	17.619	958.527	736.385
135.497	17.463	957.891	735.159
136.512	17.765	956.758	735.525
137.527	17.697	956.276	734.799
138.541	17.763	955.493	734.414
139.556	17.658	954.898	733.442
140.570	17.808	954.096	733.407
141.585	17.878	953.711	733.346
142.600	17.938	953.136	733.095
143.614	18.005	952.254	732.639
144.629	18.019	951.847	732.320
145.643	18.132	950.892	732.008
146.658	18.247	949.599	731.440
147.673	17.934	949.230	729.753
148.687	17.903	947.980	728.592
149.702	17.830	946.905	727.392
150.716	17.647	946.102	725.933
151.731	17.498	945.610	724.856
152.746	17.598	944.888	724.662
153.760	17.678	943.772	724.084
154.775	17.802	943.043	723.987
155.789	17.981	942.323	724.127
156.804	17.931	941.497	723.219
157.819	17.945	940.952	722.796
158.833	17.891	940.246	721.958
159.848	17.975	939.613	721.765
160.862	18.118	939.178	721.970
161.877	18.122	938.196	721.168
162.892	17.957	936.816	719.347
163.906	17.840	935.890	718.083
164.921	17.682	935.269	716.878
165.935	17.720	934.407	716.312
166.950	17.751	933.339	715.560
167.964	17.755	932.648	714.984
168.979	17.903	931.528	714.682
169.994	17.809	930.304	713.285
171.008	17.821	929.513	712.670
172.023	17.926	928.770	712.474
173.037	17.944	928.798	712.505
174.052	18.064	927.743	712.135
175.067	17.997	927.118	711.311
176.081	17.888	926.065	709.988
177.096	17.775	925.004	708.644
178.110	17.704	924.239	707.698
179.125	17.850	923.626	707.772
180.140	17.787	922.802	706.820
181.154	17.781	922.077	706.174
182.169	17.872	921.908	706.361
183.183	17.950	921.188	706.067
184.198	18.182	920.386	706.349
185.213	18.197	919.814	705.908
186.227	18.151	919.301	705.263
187.242	18.257	918.436	704.976
188.256	18.285	918.254	704.888
189.271	18.278	917.645	704.329
190.286	18.299	917.057	703.900
191.300	18.141	915.851	702.267
192.315	17.774	914.685	699.804
193.329	17.693	913.769	698.708
194.344	17.702	913.253	698.288
195.359	17.724	912.901	698.050
196.373	17.929	912.031	698.161
197.388	17.945	912.257	698.335
198.402	18.145	911.290	698.352
199.417	18.422	910.852	699.084
200.432	18.476	910.775	699.182
201.446	18.599	910.298	699.256
202.461	18.634	910.100	699.186
203.475	18.686	909.621	698.969
204.490	18.545	909.048	697.891
205.504	18.514	907.618	696.607
206.519	18.176	907.226	694.870
207.534	18.166	906.462	694.183
208.548	18.363	905.495	694.179
209.563	18.219	904.881	693.062
210.577	18.317	904.120	692.818
211.592	18.262	903.432	692.006
212.607	18.446	903.445	692.698
213.621	18.575	902.742	692.619
214.636	18.567	901.717	691.740
215.650	18.537	900.893	690.926
216.665	18.551	900.578	690.679
217.680	18.580	900.074	690.348
218.694	18.648	899.581	690.183
219.709	18.752	898.994	690.087
220.723	18.696	898.284	689.256
221.738	18.607	898.136	688.726
222.753	18.577	896.993	687.667
223.767	18.710	896.038	687.408
224.782	18.539	895.582	686.314
225.796	18.801	894.917	686.791
226.811	18.832	894.240	686.333
227.826	18.755	893.724	685.571
228.840	18.669	892.797	684.453
229.855	18.680	892.160	683.948
230.869	18.578	891.739	683.162
231.884	18.679	890.713	682.716
232.899	18.487	890.179	681.484
233.913	18.430	889.103	680.370
234.928	18.439	888.730	680.064
235.942	18.443	888.028	679.481
236.957	18.315	887.237	678.309
237.972	18.470	886.556	678.339
238.986	18.384	886.164	677.640
240.001	18.467	885.589	677.470
241.015	18.519	884.377	676.689
242.030	18.525	884.089	676.432
243.045	18.694	883.237	676.386
244.059	18.682	882.804	675.948
245.074	18.663	882.110	675.280
246.088	18.680	881.618	674.913
247.103	18.722	881.250	674.735
248.117	18.790	880.712	674.531
249.132	19.009	880.221	674.954
250.147	19.070	879.877	674.869
251.161	19.389	879.045	675.423
252.176	19.409	878.915	675.339
253.190	19.502	877.715	674.721
254.205	19.407	877.805	674.359
255.220	19.527	876.814	674.006
256.234	19.483	876.036	673.180
257.249	19.487	875.679	672.862
258.263	19.334	875.313	671.923
259.278	19.520	874.080	671.642
260.293	19.492	873.668	671.154
261.307	19.468	873.431	670.820
262.322	19.496	872.627	670.251
263.336	19.577	872.316	670.269
264.351	19.597	871.907	669.971
265.366	19.688	870.993	669.565
266.380	19.675	870.377	668.981
267.395	19.663	869.808	668.438
268.409	19.648	868.453	667.281
269.424	19.584	867.786	666.462
270.439	19.591	867.500	666.210
271.453	19.538	866.548	665.215
272.468	19.347	865.925	663.944
273.482	19.409	865.122	663.506
274.497	19.270	864.698	662.589
275.512	19.428	864.220	662.770
276.526	19.363	863.135	661.629
277.541	19.398	862.742	661.407
278.555	19.367	862.294	660.885
279.570	19.561	861.510	660.966
280.585	19.739	861.394	661.502
281.599	19.772	860.363	660.779
282.614	19.703	859.872	660.078
283.628	19.491	859.253	658.734
284.643	19.545	858.545	658.341
285.657	19.626	858.116	658.262
286.672	19.510	857.614	657.375
287.687	19.556	857.167	657.152
288.701	19.582	856.779	656.894
289.716	19.746	855.823	656.727
290.730	19.636	855.054	655.659
291.745	19.718	854.608	655.572
292.760	19.689	854.085	655.001
293.774	19.695	853.774	654.729
294.789	19.879	853.088	654.842
295.803	19.885	852.781	654.568
296.818	19.672	852.366	653.389
297.833	19.652	851.043	652.240
298.847	19.755	850.481	652.139
299.862	19.606	850.064	651.204
300.876	19.634	849.951	651.164
301.891	19.686	849.228	650.747
302.906	19.908	848.219	650.754
303.920	20.051	847.529	650.700
304.935	20.055	847.040	650.284
305.949	20.234	846.404	650.408
306.964	20.126	846.072	649.692
307.979	19.970	845.308	648.462
308.993	19.972	844.932	648.126
310.008	20.163	844.363	648.346
311.022	20.168	843.764	647.847
312.037	20.208	843.331	647.606
313.052	19.935	842.676	646.027
314.066	19.843	841.745	644.912
315.081	19.660	841.421	643.926
316.095	19.725	841.000	643.788
317.110	19.696	840.366	643.140
318.125	19.740	839.477	642.564
319.139	19.677	839.308	642.146
320.154	19.763	838.986	642.160
321.168	19.906	838.034	641.907
322.183	19.872	837.612	641.401
323.197	19.914	837.194	641.181
324.212	19.932	836.860	640.932
325.227	19.967	835.907	640.277
326.241	19.944	835.833	640.076
327.256	19.980	834.669	639.263
328.270	19.799	834.576	638.467
329.285	19.825	833.618	637.772
330.300	19.808	833.327	637.430
331.314	19.926	832.457	637.145
332.329	19.983	831.807	636.801
333.343	20.114	831.730	637.166
334.358	20.148	831.327	636.926
335.373	20.208	830.523	636.473
336.387	20.105	830.004	635.641
337.402	20.156	829.726	635.559
338.416	20.163	829.019	634.986
339.431	20.317	828.638	635.205
340.446	20.401	828.388	635.262
341.460	20.422	827.790	634.826
342.475	20.630	826.887	634.837
343.489	20.651	826.267	634.378
344.504	20.724	826.091	634.456
345.519	20.778	825.206	633.915
346.533	20.714	825.105	633.548
347.548	20.683	824.727	633.089
348.562	20.535	824.161	632.061
349.577	20.451	823.077	630.869
350.592	20.225	822.884	629.843
351.606	20.156	822.401	629.168
352.621	20.133	822.242	628.906
353.635	20.153	821.306	628.207
354.650	20.408	820.778	628.674
355.665	20.430	820.297	628.326
356.679	20.466	820.124	628.268
357.694	20.494	819.626	627.934
358.708	20.622	819.067	627.912
359.723	20.646	818.484	627.497
360.738	20.382	818.306	626.354
361.752	20.493	817.486	626.070
362.767	20.517	817.167	625.856
363.781	20.618	816.862	625.932
364.796	20.738	816.939	626.367
365.810	20.903	815.950	626.147
366.825	21.063	815.269	626.142
367.840	21.113	815.341	626.322
368.854	21.033	814.940	625.668
369.869	20.972	814.396	624.979
370.883	20.957	813.389	624.096
371.898	20.806	813.127	623.300
372.913	21.062	812.551	623.719
373.927	21.094	812.067	623.406
374.942	21.027	811.179	622.430
375.956	21.003	810.388	621.681
376.971	21.072	810.101	621.653
377.986	21.098	809.909	621.542
379.000	21.265	809.440	621.723
380.015	21.153	808.915	620.866
381.029	21.092	808.336	620.152
382.044	21.267	807.756	620.272
383.059	21.274	806.941	619.617
384.073	21.217	806.300	618.867
385.088	21.143	805.839	618.198
386.102	20.996	805.319	617.224
387.117	21.065	804.165	616.528
388.132	20.870	804.457	616.008
389.146	20.815	804.030	615.433
390.161	20.953	803.493	615.453
391.175	21.185	803.140	615.947
392.190	21.199	802.951	615.796
393.205	21.287	802.238	615.507
394.219	21.103	801.772	614.444
395.234	20.982	801.214	613.540
396.248	20.877	800.723	612.739
397.263	20.932	800.188	612.468
398.278	20.843	799.480	611.558
399.292	20.731	799.216	610.909
400.307	20.907	798.458	610.896
401.321	20.878	798.366	610.668
402.336	20.951	797.914	610.523
403.350	21.026	797.443	610.371
404.365	20.997	797.229	610.054
405.380	21.040	796.857	609.862
406.394	21.273	796.567	610.402
407.409	21.276	796.335	610.183
408.423	21.503	795.610	610.366
409.438	21.563	794.762	609.867
410.453	21.550	794.596	609.641
411.467	21.709	794.133	609.787
412.482	21.683	793.942	609.495
413.496	21.585	793.574	608.818
414.511	21.745	792.998	608.880
415.526	21.909	793.152	609.511
416.540	21.543	792.656	607.807
417.555	21.604	792.074	607.517
418.569	21.668	791.441	607.199
419.584	21.634	790.835	606.564
420.599	21.641	790.446	606.235
421.613	158.411	1368.523	1789.227
422.628	137.151	1452.758	1789.339
