DTS Sentinel unit serial number:	SN413079Multiplexer serial number:	ORYXHardware model number:	OX4-SRSoftware version number:	ORYX F/W v4.00 Oryx Data Collector v3.7.2.0data status	okinstallation	princeton_trtdifferential loss correction	single-endedforward channel	channel 3reverse channel	N/Adate	2019/09/12time	20:10:04forward acquisition time	15.00reverse acquisition time	0.00gamma	496.2192k internal	0.2324k external	0.2324temperature offset calibration	1.0112default loss term (dB/km)	0.3790temperature slope calibration	1.0000multiplexer offset coefficient	1.0000multiplexer slope coefficient	1.0000fibre end	0.00T internal ref (°C)	31.62T ext. ref 1 (°C)	3.40T ext. ref 2 (°C)	26.19length (m)	temperature (°C)	Stokes	anti-Stokes-747.200	325.792	-0.253	-0.488
-746.185	-200.000	-0.026	0.416
-745.171	-77.931	-0.417	-0.145
-744.156	-84.013	-0.613	-0.197
-743.142	200.471	-0.333	-0.516
-742.127	-78.797	-0.772	0.266
-741.112	-114.299	-0.654	-0.127
-740.098	-200.000	-0.134	0.857
-739.083	-200.000	0.074	0.379
-738.069	-110.666	-0.733	0.153
-737.054	-97.799	0.679	0.177
-736.039	800.000	-0.215	0.605
-735.025	-200.000	0.013	0.547
-734.010	800.000	-0.164	-0.630
-732.996	740.738	0.329	-0.892
-731.981	800.000	0.423	-1.415
-730.966	-200.000	0.050	-1.009
-729.952	-35.426	-0.292	0.160
-728.937	-200.000	0.054	-0.724
-727.923	-200.000	0.053	0.562
-726.908	28.722	-0.196	0.167
-725.894	325.601	0.241	-0.466
-724.879	234.057	0.183	0.304
-723.864	800.000	-0.145	-0.618
-722.850	-148.954	0.313	0.025
-721.835	94.150	0.172	0.197
-720.821	-200.000	-0.008	-0.731
-719.806	308.523	-0.314	0.590
-718.791	-17.410	-0.225	-0.143
-717.777	-171.309	-0.243	-0.008
-716.762	-200.000	0.017	0.868
-715.748	-200.000	0.171	-0.792
-714.733	89.322	0.852	-0.957
-713.718	289.681	0.179	-0.327
-712.704	800.000	0.161	-0.510
-711.689	-200.000	-0.069	-0.524
-710.675	-130.644	0.823	0.112
-709.660	-157.263	0.793	-0.048
-708.645	54.459	-0.357	-0.347
-707.631	791.196	-0.126	-0.348
-706.616	800.000	0.085	0.346
-705.602	-39.378	0.390	-0.206
-704.587	800.000	-0.148	-0.632
-703.572	77.567	-0.419	-0.450
-702.558	-200.000	-0.016	0.181
-701.543	-63.076	0.792	0.330
-700.529	130.609	-0.126	0.162
-699.514	-200.000	-0.065	-0.747
-698.499	698.461	0.133	-0.351
-697.485	-63.478	0.292	-0.121
-696.470	-56.563	0.661	-0.295
-695.456	-200.000	0.016	0.498
-694.441	-200.000	0.131	-1.115
-693.426	-79.039	-0.404	-0.138
-692.412	-163.809	0.214	-0.010
-691.397	345.832	0.245	-0.485
-690.383	-55.622	-0.718	-0.324
-689.368	-146.873	1.047	0.091
-688.354	34.778	0.284	0.250
-687.339	26.834	-0.217	-0.183
-686.324	800.000	-0.193	-0.584
-685.310	-101.266	0.273	-0.067
-684.295	-111.404	-0.466	-0.096
-683.281	800.000	-0.219	-0.710
-682.266	195.205	0.155	0.237
-681.251	-200.000	0.056	0.607
-680.237	-73.857	0.649	-0.238
-679.222	-200.000	-0.081	-0.482
-678.208	-68.428	0.369	0.144
-677.193	-33.672	-0.532	-0.295
-676.178	-115.899	0.465	0.087
-675.164	800.000	-0.148	-0.639
-674.149	-74.481	-0.856	0.311
-673.135	-84.407	-0.533	-0.170
-672.120	-47.930	-0.438	-0.213
-671.105	-200.000	-0.075	-0.789
-670.091	-200.000	-0.046	0.265
-669.076	84.430	0.288	0.318
-668.062	-101.381	-0.138	0.034
-667.047	259.244	-0.231	0.402
-666.032	88.057	0.183	-0.204
-665.018	-154.238	-0.521	0.035
-664.003	-109.908	1.192	-0.251
-662.989	-200.000	-0.088	0.839
-661.974	10.427	0.205	0.157
-660.959	-55.769	-0.500	0.225
-659.945	120.995	-0.111	-0.139
-658.930	800.000	0.083	-0.273
-657.916	-156.863	-0.063	0.004
-656.901	280.159	-0.092	-0.166
-655.886	477.226	-0.253	0.576
-654.872	-39.010	0.824	0.436
-653.857	-200.000	0.029	0.184
-652.843	-82.709	0.371	0.121
-651.828	-44.767	0.610	-0.306
-650.814	-124.698	-0.566	0.088
-649.799	67.230	0.216	0.222
-648.784	-171.929	0.327	-0.011
-647.770	118.522	-0.264	0.327
-646.755	39.950	-0.359	0.325
-645.741	-101.975	-0.535	-0.130
-644.726	168.170	-0.323	-0.462
-643.711	-62.139	0.811	-0.340
-642.697	-104.285	-0.617	0.144
-641.682	145.806	0.142	-0.191
-640.668	-110.424	0.758	-0.158
-639.653	-71.510	0.499	0.188
-638.638	-15.202	0.274	0.176
-637.624	-200.000	0.093	0.766
-636.609	-23.804	-0.638	-0.384
-635.595	-16.165	0.330	-0.211
-634.580	35.810	-0.213	-0.188
-633.565	339.509	0.266	0.522
-632.551	240.923	0.438	-0.735
-631.536	-98.842	-0.527	-0.135
-630.522	800.000	0.190	-0.560
-629.507	16.298	0.133	-0.105
-628.492	483.497	0.154	-0.353
-627.478	7.208	0.154	-0.116
-626.463	-62.996	-0.413	-0.172
-625.449	466.493	0.184	0.415
-624.434	268.588	0.332	-0.585
-623.419	84.285	-0.469	0.515
-622.405	-134.306	-0.396	0.049
-621.390	-146.908	-0.253	-0.022
-620.376	-61.306	0.910	-0.385
-619.361	263.860	0.479	-0.837
-618.346	-1.270	0.482	-0.342
-617.332	-47.273	0.389	-0.190
-616.317	-200.000	0.076	0.425
-615.303	33.778	-0.385	-0.336
-614.288	-200.000	-0.004	-0.748
-613.273	118.951	0.188	0.233
-612.259	73.882	0.354	-0.373
-611.244	800.000	-0.238	0.758
-610.230	163.899	0.524	0.741
-609.215	-64.686	0.586	0.238
-608.201	89.905	-0.316	0.354
-607.186	13.859	-0.880	0.687
-606.171	-168.045	0.493	-0.019
-605.157	-18.022	-0.740	0.465
-604.142	-167.655	-0.377	0.015
-603.128	-200.000	0.110	-0.942
-602.113	62.185	-0.241	-0.241
-601.098	800.000	-0.042	0.174
-600.084	-200.000	-0.046	-0.216
-599.069	-54.376	-0.307	-0.140
-598.055	800.000	0.210	0.626
-597.040	112.272	-0.288	-0.350
-596.025	-0.064	-0.119	0.085
-595.011	-110.608	0.332	-0.069
-593.996	39.955	-0.579	0.521
-592.982	-60.726	-0.161	0.069
-591.967	576.845	0.404	0.991
-590.952	515.452	-0.165	-0.387
-589.938	247.512	-0.047	0.079
-588.923	-200.000	0.185	-1.271
-587.909	-16.284	0.860	0.548
-586.894	-200.000	-0.037	0.301
-585.879	-31.319	-0.856	0.484
-584.865	144.805	-0.498	0.668
-583.850	-87.549	-0.510	-0.155
-582.836	-138.510	0.253	-0.028
-581.821	-22.201	0.548	0.333
-580.806	-42.016	-0.970	-0.498
-579.792	-87.382	0.507	0.154
-578.777	298.354	-0.174	-0.320
-577.763	800.000	0.123	-0.368
-576.748	164.477	0.116	-0.164
-575.733	-200.000	0.055	0.650
-574.719	-200.000	-0.067	-0.915
-573.704	-109.462	-0.350	-0.074
-572.690	800.000	-0.146	0.571
-571.675	453.683	-0.267	0.592
-570.661	-200.000	0.033	-0.671
-569.646	-10.657	-0.736	-0.488
-568.631	800.000	-0.148	-0.461
-567.617	-51.134	0.138	0.065
-566.602	235.392	0.205	0.339
-565.588	-176.359	-0.865	0.023
-564.573	-187.371	-0.317	-0.004
-563.558	-67.392	0.219	-0.086
-562.544	800.000	0.128	-0.377
-561.529	-200.000	-0.048	0.475
-560.515	15.307	0.367	0.288
-559.500	-200.000	0.104	-0.902
-558.485	38.682	0.374	-0.334
-557.471	113.686	-0.362	-0.440
-556.456	-200.000	-0.071	-0.330
-555.442	-151.726	-0.415	0.031
-554.427	-200.000	0.006	0.616
-553.412	-19.956	0.531	0.329
-552.398	-186.276	-0.268	0.004
-551.383	38.109	-0.381	-0.340
-550.369	-42.811	0.453	-0.230
-549.354	-122.654	0.666	-0.108
-548.339	-163.980	0.303	-0.014
-547.325	256.220	-0.195	-0.335
-546.310	-48.659	-0.669	0.322
-545.296	1.771	-0.450	0.325
-544.281	-54.662	-0.470	-0.213
-543.266	211.346	0.465	0.733
-542.252	-2.291	-0.572	-0.402
-541.237	106.857	0.107	0.127
-540.223	-200.000	-0.080	-0.360
-539.208	-96.440	-0.356	-0.094
-538.193	293.220	0.267	-0.488
-537.179	214.633	-0.348	-0.553
-536.164	-78.634	-0.794	0.272
-535.150	-110.472	0.506	0.105
-534.135	179.738	0.336	0.493
-533.121	61.184	-0.439	0.437
-532.106	-0.515	0.298	-0.212
-531.091	487.133	-0.153	-0.349
-530.077	-111.828	-0.260	-0.053
-529.062	-30.120	0.442	-0.251
-528.048	225.077	0.216	-0.349
-527.033	-200.000	-0.132	-0.825
-526.018	356.207	0.333	-0.665
-525.004	800.000	0.140	0.433
-523.989	21.678	0.471	-0.384
-522.975	45.966	-0.181	0.168
-521.960	-33.238	0.376	-0.208
-520.945	-200.000	0.191	-0.839
-519.931	-101.408	-0.363	0.088
-518.916	99.875	0.441	-0.512
-517.902	69.998	0.226	0.233
-516.887	-200.000	0.111	-0.671
-515.872	-57.448	0.097	-0.042
-514.858	800.000	-0.074	-0.212
-513.843	-25.030	-0.345	0.204
-512.829	-200.000	0.006	-0.223
-511.814	800.000	-0.145	0.402
-510.799	-3.982	-0.493	0.342
-509.785	137.733	-0.503	-0.659
-508.770	333.127	0.383	-0.741
-507.756	85.955	0.382	-0.420
-506.741	59.831	0.620	-0.613
-505.726	86.593	0.158	0.174
-504.712	448.931	0.180	-0.397
-503.697	800.000	-0.320	0.942
-502.683	800.000	0.085	-0.275
-501.668	12.341	-0.113	-0.087
-500.653	-20.990	0.323	-0.198
-499.639	-200.000	0.016	0.356
-498.624	461.458	-0.162	0.361
-497.610	-200.000	0.038	-0.664
-496.595	-10.651	-0.380	0.251
-495.581	-200.000	0.005	0.794
-494.566	-200.000	-0.007	0.678
-493.551	800.000	0.126	0.357
-492.537	13.119	0.620	-0.480
-491.522	-200.000	0.023	1.189
-490.508	20.368	-0.310	-0.250
-489.493	599.302	-0.180	0.446
-488.478	800.000	0.093	-0.406
-487.464	50.025	0.378	-0.356
-486.449	146.580	-0.254	0.340
-485.435	800.000	0.169	0.604
-484.420	52.532	0.698	0.666
-483.405	38.006	0.393	0.350
-482.391	-101.299	0.304	-0.074
-481.376	-37.250	0.265	-0.142
-480.362	800.000	-0.111	0.355
-479.347	-120.790	-0.992	0.167
-478.332	-9.580	-0.208	-0.138
-477.318	-152.307	-0.413	0.030
-476.303	-47.609	0.636	-0.308
-475.289	553.825	-0.048	0.115
-474.274	56.427	-0.829	-0.805
-473.259	36.279	-0.356	-0.314
-472.245	1.647	-0.333	-0.239
-471.230	800.000	0.194	0.674
-470.216	-99.866	0.509	0.127
-469.201	11.133	0.307	-0.235
-468.186	-67.219	-0.101	0.040
-467.172	95.528	0.525	-0.598
-466.157	398.257	-0.336	0.703
-465.143	-28.360	0.301	-0.173
-464.128	758.253	-0.373	-1.009
-463.113	394.741	0.125	-0.261
-462.099	158.104	0.377	0.522
-461.084	-96.118	-0.294	0.078
-460.070	-200.000	-0.102	-0.493
-459.055	-64.781	-0.227	-0.092
-458.040	-200.000	-0.112	-0.690
-457.026	-32.494	-1.072	-0.596
-456.011	76.497	-0.180	-0.191
-454.997	-120.009	0.756	0.129
-453.982	-200.000	-0.024	-0.313
-452.968	65.998	-0.564	0.571
-451.953	-40.539	0.060	-0.031
-450.938	-48.224	0.202	0.097
-449.924	800.000	-0.112	0.464
-448.909	800.000	0.141	0.466
-447.895	-200.000	0.016	0.673
-446.880	190.581	-0.165	0.248
-445.865	-200.000	0.121	0.640
-444.851	-200.000	-0.090	-0.747
-443.836	-200.000	0.034	-0.481
-442.822	-200.000	0.141	-0.883
-441.807	-200.000	0.052	-0.511
-440.792	14.997	0.497	-0.388
-439.778	-200.000	0.088	-1.015
-438.763	-32.459	0.183	-0.102
-437.749	224.986	0.314	0.507
-436.734	137.112	-0.071	-0.092
-435.719	270.244	-0.268	-0.470
-434.705	-200.000	-0.134	1.264
-433.690	216.501	0.385	-0.611
-432.676	-12.751	0.260	-0.169
-431.661	66.546	0.252	-0.256
-430.646	-200.000	-0.025	-0.441
-429.632	243.723	-0.287	-0.479
-428.617	171.583	-0.115	0.164
-427.603	800.000	-0.110	0.314
-426.588	164.204	0.070	-0.098
-425.573	303.040	-0.215	0.397
-424.559	236.984	-0.248	-0.410
-423.544	27.332	-0.398	0.333
-422.530	-67.173	-0.348	0.137
-421.515	-200.000	-0.066	-0.342
-420.500	-138.694	-0.596	0.065
-419.486	-107.799	0.523	0.114
-418.471	24.139	0.451	0.371
-417.457	-1.668	-0.542	0.381
-416.442	-105.914	-0.442	0.099
-415.428	-14.444	-0.053	0.034
-414.413	-108.503	-0.383	0.082
-413.398	94.798	-0.609	-0.691
-412.384	295.339	0.171	0.311
-411.369	800.000	-0.085	0.236
-410.355	-0.307	0.444	0.315
-409.340	800.000	0.215	-0.846
-408.325	-63.159	0.641	-0.263
-407.311	800.000	0.087	0.336
-406.296	-200.000	0.041	0.242
-405.282	-200.000	-0.045	-1.116
-404.267	-145.058	-0.864	-0.078
-403.252	-143.465	-1.117	0.106
-402.238	800.000	-0.137	0.436
-401.223	410.508	0.485	-1.024
-400.209	223.321	0.158	-0.253
-399.194	800.000	-0.189	-0.641
-398.179	70.153	0.381	0.392
-397.165	196.394	-0.140	0.212
-396.150	481.543	-0.268	0.607
-395.136	61.659	-0.314	0.311
-394.121	-49.136	0.550	-0.262
-393.106	-200.000	0.149	-0.758
-392.092	-53.907	-0.637	-0.289
-391.077	745.470	0.285	0.765
-390.063	187.078	-0.199	-0.295
-389.048	-21.141	-0.430	0.262
-388.033	-200.000	-0.057	0.330
-387.019	-126.615	-0.361	-0.053
-386.004	-3.871	0.389	-0.269
-384.990	758.593	0.293	0.791
-383.975	-45.627	-0.154	-0.076
-382.960	13.595	-0.342	-0.264
-381.946	443.924	0.291	-0.635
-380.931	157.429	0.524	0.722
-379.917	-151.805	0.612	-0.045
-378.902	519.744	-0.072	0.167
-377.888	165.257	0.184	-0.259
-376.873	15.239	0.629	0.491
-375.858	-200.000	0.119	0.735
-374.844	47.842	-0.426	0.396
-373.829	326.335	0.092	0.175
-372.815	-200.000	0.069	-0.745
-371.800	183.846	0.382	-0.562
-370.785	194.114	-0.341	-0.514
-369.771	133.943	0.154	-0.199
-368.756	800.000	-0.033	0.119
-367.742	800.000	-0.219	-0.734
-366.727	551.116	-0.160	-0.383
-365.712	-21.262	-0.256	-0.156
-364.698	-200.000	-0.015	0.417
-363.683	227.831	-0.289	0.468
-362.669	-200.000	0.246	1.257
-361.654	-20.118	-0.043	-0.027
-360.639	800.000	-0.125	-0.444
-359.625	-84.078	0.349	0.110
-358.610	800.000	0.163	-0.619
-357.596	448.177	-0.315	-0.690
-356.581	-151.467	0.598	-0.044
-355.566	-50.447	-0.479	-0.225
-354.552	-62.494	0.789	-0.326
-353.537	-88.067	0.292	0.087
-352.523	-67.892	0.550	-0.214
-351.508	73.739	-0.756	-0.788
-350.493	612.781	0.385	0.957
-349.479	-200.000	-0.022	0.326
-348.464	15.285	0.393	-0.307
-347.450	-39.858	0.586	-0.304
-346.435	179.698	0.736	1.072
-345.420	53.824	-0.595	-0.568
-344.406	334.819	-0.317	0.611
-343.391	-133.839	-0.831	-0.103
-342.377	800.000	-0.113	0.371
-341.362	36.522	0.448	0.393
-340.348	-104.176	-0.545	0.126
-339.333	115.411	0.165	-0.201
-338.318	12.391	0.825	-0.632
-337.304	-63.331	0.379	0.155
-336.289	7.643	-0.470	0.350
-335.275	-200.000	0.031	0.222
-334.260	-52.725	0.425	-0.195
-333.245	-200.000	0.118	0.845
-332.231	-70.377	-0.723	-0.272
-331.216	-51.167	0.710	0.330
-330.202	-127.865	-0.548	-0.078
-329.187	299.273	-0.284	0.520
-328.172	181.968	-0.500	0.731
-327.158	252.768	-0.512	-0.868
-326.143	800.000	0.115	-0.353
-325.129	138.515	-0.663	0.864
-324.114	800.000	0.291	1.037
-323.099	-175.445	0.222	0.006
-322.085	800.000	-0.259	0.859
-321.070	190.229	-0.082	0.122
-320.056	133.408	-0.336	-0.432
-319.041	-59.267	0.135	0.058
-318.026	800.000	-0.116	0.497
-317.012	13.321	0.316	-0.243
-315.997	385.849	-0.162	-0.332
-314.983	298.414	0.324	0.591
-313.968	-200.000	0.012	0.769
-312.953	53.385	0.084	0.080
-311.939	108.933	0.484	-0.575
-310.924	800.000	-0.128	0.386
-309.910	218.517	0.258	0.408
-308.895	-116.932	-0.169	-0.031
-307.880	95.480	-0.390	-0.442
-306.866	-46.762	0.775	0.377
-305.851	-200.000	-0.167	-0.917
-304.837	429.795	-0.383	-0.822
-303.822	125.018	-0.555	0.694
-302.807	-200.000	0.008	-0.368
-301.793	-4.335	-0.288	-0.198
-300.778	172.608	-0.231	-0.330
-299.764	-47.964	-0.486	0.233
-298.749	-147.419	-0.659	0.055
-297.735	-68.542	0.320	-0.123
-296.720	-150.213	0.305	-0.023
-295.705	-56.684	0.186	0.082
-294.691	-24.269	0.199	-0.118
-293.676	9.311	-0.158	-0.119
-292.662	-67.175	0.351	0.137
-291.647	-155.932	-0.738	0.046
-290.632	-31.440	-0.787	-0.439
-289.618	-49.333	-0.242	0.114
-288.603	-132.425	0.204	0.026
-287.589	301.358	0.270	0.494
-286.574	-58.860	0.390	0.167
-285.559	70.348	0.347	-0.356
-284.545	800.000	0.241	-0.770
-283.530	-200.000	-0.398	-0.001
-282.516	5.859	0.167	0.123
-281.501	291.314	-0.377	-0.681
-280.486	800.000	0.169	-0.533
-279.472	-61.442	-0.695	0.290
-278.457	800.000	-0.164	-0.674
-277.443	-158.775	0.078	0.004
-276.428	123.624	0.139	-0.173
-275.413	121.294	0.165	-0.204
-274.399	82.283	-0.520	0.559
-273.384	-119.671	0.437	-0.075
-272.370	1.742	0.234	0.167
-271.355	119.484	0.415	-0.509
-270.340	19.625	0.606	0.483
-269.326	202.640	-0.625	0.957
-268.311	-131.605	-0.323	-0.042
-267.297	-41.590	0.157	-0.080
-266.282	-108.717	-0.225	0.048
-265.267	800.000	-0.089	0.322
-264.253	-200.000	-0.016	0.274
-263.238	-33.294	-1.079	0.592
-262.224	-0.697	-0.708	0.497
-261.209	-145.436	0.116	-0.010
-260.195	37.264	-0.549	0.481
-259.180	513.830	0.488	1.127
-258.165	0.198	0.654	0.462
-257.151	-95.195	0.364	-0.097
-256.136	-107.964	-0.707	-0.152
-255.122	54.371	-0.338	0.323
-254.107	0.645	-0.859	0.609
-253.092	-200.000	-0.022	0.759
-252.078	161.528	0.299	-0.414
-251.063	-93.909	-0.449	-0.122
-250.049	800.000	0.113	0.317
-249.034	22.975	0.589	-0.478
-248.019	-6.493	0.204	-0.138
-247.005	167.971	-0.216	0.305
-245.990	89.883	-0.567	0.627
-244.976	366.889	0.233	0.466
-243.961	-157.922	0.184	-0.011
-242.946	96.741	-0.091	-0.103
-241.932	89.474	0.527	0.582
-240.917	-200.000	-0.026	-0.246
-239.903	235.522	-0.255	0.417
-238.888	26.627	0.476	-0.394
-237.873	206.058	0.566	0.872
-236.859	-91.574	-0.597	0.168
-235.844	37.315	0.809	0.709
-234.830	-200.000	0.047	0.533
-233.815	524.295	0.096	0.223
-232.800	71.551	-0.571	-0.587
-231.786	800.000	0.173	-0.647
-230.771	68.084	-0.250	-0.253
-229.757	329.795	0.194	-0.370
-228.742	-200.000	0.127	1.295
-227.727	330.392	0.185	0.352
-226.713	-17.841	-0.464	-0.288
-225.698	37.275	0.476	0.417
-224.684	800.000	0.090	-0.317
-223.669	164.212	-0.547	-0.762
-222.655	-50.786	0.063	-0.029
-221.640	-60.722	0.456	0.191
-220.625	436.684	0.175	-0.376
-219.611	-80.874	-0.510	-0.167
-218.596	-200.000	-0.097	-0.851
-217.582	-30.142	0.309	0.174
-216.567	-124.936	0.368	-0.056
-215.552	9.055	0.111	0.083
-214.538	-200.000	0.027	-0.192
-213.523	186.462	-0.461	-0.679
-212.509	-200.000	-0.114	0.883
-211.494	743.710	0.121	0.323
-210.479	-42.858	-0.623	0.313
-209.465	75.499	-0.413	-0.431
-208.450	-200.000	-0.044	0.698
-207.436	800.000	-0.282	-0.894
-206.421	25.041	0.489	-0.401
-205.406	168.375	-0.116	0.163
-204.392	-35.312	0.809	0.435
-203.377	425.077	0.037	-0.078
-202.363	-200.000	0.052	0.636
-201.348	210.736	-0.063	0.098
-200.333	-54.202	-0.414	-0.186
-199.319	-71.047	0.200	0.074
-198.304	33.137	0.487	0.417
-197.290	428.784	-0.206	-0.439
-196.275	-11.633	0.492	-0.320
-195.260	-64.488	-0.251	-0.101
-194.246	800.000	-0.248	1.009
-193.231	-78.294	0.629	-0.213
-192.217	678.364	0.149	0.382
-191.202	119.447	0.140	-0.171
-190.187	-127.035	-0.447	-0.065
-189.173	-173.664	0.448	-0.013
-188.158	68.747	0.520	-0.528
-187.144	0.843	-0.370	0.262
-186.129	52.131	0.352	-0.331
-185.114	-200.000	-0.132	0.746
-184.100	122.181	-0.626	0.772
-183.085	350.321	0.297	-0.579
-182.071	800.000	0.132	-0.523
-181.056	800.000	-0.241	0.796
-180.042	2.977	-0.259	-0.186
-179.027	-200.000	0.035	0.327
-178.012	-21.706	0.661	0.398
-176.998	-108.594	0.394	-0.084
-175.983	-200.000	-0.002	0.654
-174.969	-136.934	0.570	-0.065
-173.954	103.069	-0.417	0.482
-172.939	800.000	-0.158	0.667
-171.925	-150.979	0.067	-0.005
-170.910	-200.000	0.097	-0.866
-169.896	-23.675	1.036	-0.613
-168.881	204.003	0.183	-0.280
-167.866	63.283	0.313	-0.309
-166.852	46.736	-0.094	-0.086
-165.837	5.222	0.521	-0.379
-164.823	198.415	0.371	-0.560
-163.808	38.974	-0.693	0.611
-162.793	-174.692	0.592	-0.017
-161.779	-131.859	-0.664	-0.086
-160.764	33.096	0.057	-0.049
-159.750	449.448	0.200	0.436
-158.735	-77.389	-0.817	-0.280
-157.720	-75.940	0.572	-0.200
-156.706	-103.044	-0.130	-0.030
-155.691	-65.255	1.069	-0.425
-154.677	0.130	0.830	0.584
-153.662	-101.913	0.406	0.097
-152.647	754.148	0.082	-0.219
-151.633	-121.450	-0.601	-0.099
-150.618	327.897	-0.199	-0.377
-149.604	46.035	-0.509	0.465
-148.589	6.839	0.295	0.217
-147.574	-12.586	-0.426	0.274
-146.560	-200.000	-0.057	-0.346
-145.545	-17.437	-0.181	0.113
-144.531	-153.397	0.242	-0.017
-143.516	-82.542	-0.825	-0.264
-142.502	-126.948	-0.698	-0.101
-141.487	158.376	0.066	-0.091
-140.472	-118.716	0.165	-0.029
-139.458	163.594	0.095	-0.132
-138.443	-200.000	0.003	0.057
-137.429	-83.809	-0.666	0.209
-136.414	116.518	-0.636	0.769
-135.399	494.664	-0.307	0.695
-134.385	413.963	0.314	0.659
-133.370	-79.997	0.581	-0.192
-132.356	-85.199	-0.411	0.127
-131.341	-59.975	-0.458	0.193
-130.326	263.912	0.252	0.431
-129.312	-200.000	0.028	-0.238
-128.297	-200.000	-0.093	0.405
-127.283	-200.000	0.020	-0.677
-126.268	-106.697	0.439	-0.096
-125.253	-90.203	0.251	-0.072
-124.239	-176.785	0.339	0.008
-123.224	203.942	-0.359	0.548
-122.210	-45.429	-0.565	-0.276
-121.195	-200.000	0.073	0.445
-120.180	-200.000	-0.094	-0.405
-119.166	130.925	-0.210	0.265
-118.151	-116.994	0.048	-0.009
-117.137	-200.000	0.037	0.439
-116.122	-200.000	-0.093	0.784
-115.107	800.000	-0.080	-0.268
-114.093	800.000	-0.092	-0.364
-113.078	-138.182	-0.659	0.072
-112.064	-171.578	0.498	-0.016
-111.049	800.000	0.226	0.825
-110.034	-200.000	0.020	-0.392
-109.020	207.469	-0.497	-0.764
-108.005	693.481	-0.075	-0.193
-106.991	-128.420	0.378	-0.053
-105.976	-139.300	-0.219	0.023
-104.962	-18.532	-0.612	-0.376
-103.947	60.545	-0.432	0.422
-102.932	-200.000	-0.033	0.395
-101.918	313.424	0.200	0.370
-100.903	-200.000	0.061	-0.333
-99.889	-98.841	0.697	-0.174
-98.874	-86.090	0.424	-0.129
-97.859	518.586	-0.295	0.680
-96.845	70.723	0.129	-0.132
-95.830	-131.370	-1.051	-0.137
-94.816	-116.773	-0.591	-0.107
-93.801	-29.634	0.126	-0.071
-92.786	-110.240	1.004	0.206
-91.772	144.734	-0.312	0.410
-90.757	61.370	0.182	0.178
-89.743	169.230	-0.269	-0.378
-88.728	198.712	0.145	-0.218
-87.713	381.163	-0.261	-0.527
-86.699	800.000	-0.142	0.572
-85.684	216.557	0.524	0.820
-84.670	571.011	0.306	-0.733
-83.655	-137.756	0.218	0.024
-82.640	81.512	0.343	0.365
-81.626	-200.000	-0.051	0.376
-80.611	-23.774	0.500	-0.295
-79.597	800.000	-0.147	0.478
-78.582	-40.654	-1.208	-0.616
-77.567	-118.766	-0.512	-0.089
-76.553	-79.715	0.048	0.016
-75.538	767.849	0.091	0.244
-74.524	-36.841	0.541	0.285
-73.509	-181.912	-0.722	0.014
-72.494	-61.858	-0.223	0.092
-71.480	-188.722	-0.489	0.006
-70.465	81.623	0.867	0.922
-69.451	105.662	0.455	0.529
-68.436	-200.000	0.015	0.165
-67.422	-200.000	0.003	-0.618
-66.407	-200.000	-0.064	-0.558
-65.392	-163.280	-0.600	-0.028
-64.378	249.819	0.277	-0.462
-63.363	-149.181	-0.369	-0.029
-62.349	-118.214	-0.062	-0.011
-61.334	-34.178	-1.428	-0.771
-60.319	-118.759	0.516	0.089
-59.305	359.994	0.438	-0.861
-58.290	-200.000	-0.056	0.695
-57.276	224.761	0.907	1.442
-56.261	-200.000	98.726	604.899
-55.246	617.922	1378.897	3402.032
-54.232	199.525	2548.605	3840.735
-53.217	117.009	2143.316	2586.757
-52.203	42.490	1686.554	1507.470
-51.188	34.691	1501.346	1289.478
-50.173	32.233	1474.515	1250.057
-49.159	53.248	1527.684	1437.912
-48.144	53.872	1543.793	1457.241
-47.130	34.964	1503.585	1293.041
-46.115	31.842	1487.739	1258.445
-45.100	31.732	1484.377	1254.817
-44.086	31.648	1483.408	1253.381
-43.071	31.324	1482.602	1250.486
-42.057	31.759	1478.791	1250.125
-41.042	31.585	1478.452	1248.624
-40.027	31.620	1476.572	1247.225
-39.013	31.713	1475.789	1247.131
-37.998	31.702	1474.176	1245.648
-36.984	31.439	1473.169	1242.994
-35.969	31.606	1470.862	1242.109
-34.954	31.443	1470.516	1240.689
-33.940	31.723	1468.282	1240.607
-32.925	31.721	1466.836	1239.322
-31.911	31.470	1467.105	1237.838
-30.896	31.582	1465.270	1236.985
-29.881	31.619	1464.237	1236.306
-28.867	31.836	1461.726	1235.566
-27.852	31.890	1460.965	1235.228
-26.838	31.726	1458.446	1231.973
-25.823	31.723	1457.118	1230.782
-24.809	31.636	1455.869	1229.108
-23.794	31.413	1455.093	1226.942
-22.779	31.630	1453.503	1226.974
-21.765	31.935	1451.650	1227.360
-20.750	31.732	1451.508	1225.861
-19.736	31.556	1450.474	1223.784
-18.721	31.499	1449.233	1222.321
-17.706	31.556	1447.761	1221.403
-16.692	31.492	1447.545	1220.750
-15.677	31.767	1445.653	1220.901
-14.663	31.565	1444.218	1218.325
-13.648	31.569	1444.748	1218.751
-12.633	31.529	1444.405	1218.151
-11.619	31.667	1442.381	1217.296
-10.604	31.829	1441.647	1217.679
-9.590	31.705	1440.263	1215.653
-8.575	31.419	1439.749	1213.317
-7.560	31.416	1439.088	1212.691
-6.546	31.666	1437.682	1213.082
-5.531	31.721	1436.899	1212.730
-4.517	31.610	1435.757	1210.997
-3.502	31.418	1435.764	1209.716
-2.487	31.512	1434.027	1208.810
-1.473	31.440	1433.420	1207.786
-0.458	31.460	1432.748	1207.303
0.556	32.922	1422.235	1196.226
1.571	30.017	1396.695	1156.533
2.586	26.019	1339.917	1085.413
3.600	24.280	1259.196	1010.091
4.615	22.691	1214.186	965.213
5.629	19.742	1157.649	904.780
6.644	11.272	1073.142	797.390
7.659	4.593	1034.219	736.830
8.673	3.674	1027.945	727.964
9.688	3.479	1024.934	724.854
10.702	3.304	1023.186	722.730
11.717	3.145	1021.105	720.452
12.731	6.435	1024.539	738.250
13.746	15.155	1036.929	788.315
14.761	22.188	1046.134	828.512
15.775	24.125	1046.676	837.994
16.790	24.096	1045.383	836.751
17.804	23.248	1044.445	831.942
18.819	23.083	1042.830	829.805
19.834	22.937	1043.209	829.349
20.848	22.907	1041.470	827.755
21.863	23.076	1041.609	828.582
22.877	23.118	1041.732	828.804
23.892	22.965	1041.448	827.788
24.907	22.526	1039.926	824.449
25.921	22.291	1040.169	823.469
26.936	22.492	1038.466	822.988
27.950	22.780	1036.939	823.048
28.965	22.580	1034.758	820.314
29.980	22.525	1035.181	820.320
30.994	22.757	1033.472	819.973
32.009	22.795	1032.537	819.332
33.023	22.444	1033.060	818.044
34.038	22.487	1032.934	818.072
35.053	22.660	1031.655	817.793
36.067	22.755	1029.790	816.678
37.082	22.388	1029.396	814.596
38.096	22.593	1028.106	814.451
39.111	22.525	1027.776	813.804
40.126	22.726	1026.676	813.788
41.140	22.675	1025.019	812.166
42.155	22.532	1024.267	810.842
43.169	22.061	1023.522	808.016
44.184	22.011	1021.651	806.235
45.199	21.996	1020.772	805.402
46.213	21.849	1019.490	803.647
47.228	21.908	1020.137	804.356
48.242	22.466	1019.050	805.981
49.257	22.659	1018.342	806.233
50.271	23.006	1017.560	807.125
51.286	23.038	1016.613	806.450
52.301	22.527	1017.443	804.705
53.315	22.910	1015.907	805.164
54.330	22.714	1015.363	803.768
55.344	22.382	1014.679	801.644
56.359	22.478	1012.893	800.598
57.374	22.550	1011.581	799.820
58.388	22.340	1011.706	798.893
59.403	22.360	1011.054	798.400
60.417	22.340	1009.674	797.147
61.432	22.033	1009.494	795.546
62.447	22.005	1009.233	795.141
63.461	22.308	1007.314	794.929
64.476	21.842	1007.518	792.911
65.490	21.880	1006.040	791.851
66.505	21.799	1004.936	790.548
67.520	22.012	1003.634	790.413
68.534	22.131	1003.269	790.591
69.549	21.820	1003.142	789.018
70.563	21.756	1001.646	787.485
71.578	21.841	1001.034	787.319
72.593	21.311	1000.448	784.410
73.607	21.086	998.652	781.923
74.622	21.253	997.581	781.760
75.636	21.435	997.772	782.655
76.651	21.388	996.662	781.507
77.666	21.485	995.367	780.854
78.680	21.640	995.286	781.415
79.695	21.618	994.821	780.881
80.709	21.339	993.993	778.920
81.724	21.643	994.023	780.230
82.739	21.820	992.945	780.102
83.753	21.916	991.993	779.711
84.768	22.321	992.040	781.480
85.782	23.028	991.285	783.951
86.797	22.871	991.513	783.367
87.812	23.368	989.503	783.908
88.826	22.785	990.146	781.766
89.841	22.934	989.282	781.674
90.855	23.044	988.158	781.202
91.870	23.157	987.212	780.887
92.884	23.319	985.531	780.198
93.899	22.984	985.743	778.822
94.914	22.652	985.791	777.329
95.928	23.140	984.225	778.170
96.943	22.943	982.993	776.264
97.957	22.609	982.818	774.590
98.972	22.952	980.504	774.198
99.987	23.051	979.973	774.145
101.001	22.906	979.409	772.996
102.016	22.766	979.367	772.282
103.030	22.492	978.285	770.165
104.045	23.020	977.277	771.607
105.060	22.864	976.379	770.148
106.074	23.035	975.273	769.956
107.089	22.766	974.573	768.160
108.103	22.286	974.728	766.127
109.118	21.920	973.923	763.831
110.133	22.137	971.471	762.782
111.147	21.588	970.381	759.480
112.162	21.602	969.482	758.770
113.176	21.827	968.518	758.923
114.191	21.963	967.906	758.964
115.206	22.229	967.403	759.653
116.220	21.700	967.619	757.468
117.235	21.611	966.295	755.979
118.249	22.002	965.929	757.313
119.264	21.633	965.027	754.949
120.279	21.186	964.061	752.201
121.293	21.302	963.303	752.044
122.308	21.323	961.581	750.720
123.322	21.495	960.505	750.554
124.337	21.439	959.238	749.258
125.352	21.531	958.390	748.922
126.366	20.994	958.360	746.532
127.381	21.086	956.350	745.295
128.395	21.424	955.516	746.019
129.410	21.738	955.161	747.016
130.424	21.686	954.818	746.461
131.439	21.760	953.788	745.905
132.454	22.153	952.689	746.650
133.468	22.031	952.394	745.832
134.483	22.391	950.718	745.983
135.497	22.010	951.203	744.678
136.512	22.122	950.585	744.606
137.527	22.067	949.926	743.790
138.541	22.138	948.683	743.051
139.556	22.124	948.490	742.774
140.570	22.070	947.251	741.512
141.585	22.256	946.935	741.981
142.600	22.864	946.161	743.874
143.614	22.742	946.158	743.292
144.629	23.007	945.083	743.494
145.643	22.946	944.476	742.698
146.658	22.828	943.735	741.553
147.673	22.696	942.323	739.821
148.687	22.175	941.938	737.271
149.702	22.155	940.114	735.692
150.716	21.900	938.662	733.427
151.731	22.129	938.229	733.981
152.746	22.452	937.392	734.609
153.760	22.376	935.818	732.992
154.775	22.158	935.963	732.134
155.789	22.626	935.634	733.760
156.804	22.565	934.872	732.845
157.819	22.391	935.069	732.208
158.833	22.391	933.631	731.021
159.848	22.697	932.679	731.478
160.862	23.249	932.136	733.276
161.877	22.768	932.090	731.183
162.892	22.746	930.497	729.775
163.906	22.346	928.991	726.878
164.921	22.114	927.997	725.077
165.935	21.794	927.436	723.256
166.950	21.635	926.396	721.724
167.964	22.198	925.509	723.287
168.979	22.418	924.341	723.216
169.994	22.219	923.958	722.036
171.008	21.948	922.683	719.863
172.023	22.331	921.083	720.120
173.037	22.791	921.278	722.090
174.052	23.082	920.649	722.724
175.067	22.797	920.891	721.684
176.081	22.381	919.218	718.613
177.096	21.980	917.560	715.616
178.110	22.088	915.762	714.590
179.125	21.627	914.726	711.846
180.140	21.892	915.045	713.109
181.154	21.989	913.902	712.547
182.169	22.356	913.281	713.487
183.183	22.286	914.125	713.799
184.198	22.634	913.604	714.741
185.213	22.762	912.106	714.023
186.227	22.716	911.319	713.158
187.242	22.755	910.972	712.983
188.256	22.561	911.717	712.715
189.271	22.681	911.126	712.677
190.286	22.702	909.985	711.806
191.300	22.735	908.654	710.834
192.315	22.171	907.995	707.986
193.329	21.928	906.227	705.570
194.344	22.019	905.855	705.580
195.359	21.783	905.289	704.130
196.373	21.967	905.885	705.270
197.388	22.433	905.992	707.164
198.402	22.810	904.835	707.711
199.417	22.667	905.451	707.556
200.432	23.038	904.523	708.256
201.446	23.482	902.984	708.763
202.461	23.011	904.061	707.657
203.475	23.246	903.208	707.870
204.490	23.313	902.529	707.541
205.504	22.586	901.457	703.737
206.519	22.786	899.057	702.599
207.534	22.603	898.935	701.712
208.548	22.667	898.053	701.216
209.563	22.423	898.223	700.315
210.577	22.752	896.873	700.508
211.592	22.640	897.109	700.185
212.607	22.952	897.399	701.590
213.621	23.369	895.300	701.538
214.636	23.042	895.737	700.520
215.650	23.108	895.597	700.611
216.665	22.864	894.612	698.815
217.680	22.932	893.517	698.163
218.694	23.199	893.224	698.930
219.709	22.953	893.555	698.153
220.723	23.016	892.503	697.519
221.738	22.711	892.450	696.211
222.753	22.673	890.733	694.663
223.767	22.672	890.039	694.054
224.782	23.097	888.571	694.520
225.796	23.117	888.396	694.399
226.811	23.207	888.226	694.556
227.826	23.142	887.510	693.683
228.840	22.870	886.415	691.701
229.855	22.698	885.617	690.340
230.869	22.845	884.869	690.271
231.884	22.318	884.186	687.619
232.899	22.208	883.809	686.837
233.913	22.677	883.880	688.663
234.928	22.546	882.461	686.985
235.942	22.172	881.391	684.636
236.957	22.140	880.401	683.678
237.972	22.086	880.237	683.284
238.986	22.093	879.884	682.975
240.001	22.191	878.861	682.503
241.015	22.181	877.918	681.670
242.030	22.116	878.240	681.607
243.045	22.270	877.399	681.492
244.059	22.588	876.781	682.182
245.074	22.429	876.914	681.609
246.088	22.861	875.417	682.053
247.103	22.824	875.373	681.816
248.117	22.905	874.665	681.518
249.132	23.607	873.273	683.077
250.147	23.502	874.962	683.931
251.161	23.416	876.251	684.548
252.176	23.879	874.880	685.199
253.190	23.763	874.123	684.098
254.205	23.700	873.350	683.190
255.220	24.421	871.789	684.676
256.234	24.278	871.023	683.466
257.249	23.979	870.353	681.734
258.263	23.843	870.017	680.890
259.278	23.650	870.156	680.199
260.293	23.924	869.543	680.711
261.307	23.968	868.504	680.004
262.322	24.073	868.267	680.158
263.336	23.963	868.118	679.561
264.351	23.885	867.423	678.662
265.366	23.722	866.408	677.185
266.380	23.469	866.145	675.954
267.395	23.930	865.326	677.010
268.409	24.126	864.298	676.893
269.424	23.462	864.446	674.425
270.439	23.647	862.719	673.720
271.453	23.547	862.481	673.095
272.468	23.575	861.438	672.326
273.482	23.426	860.658	671.093
274.497	23.465	860.096	670.744
275.512	23.130	860.402	669.655
276.526	23.450	859.367	670.002
277.541	23.280	859.044	669.045
278.555	23.479	858.036	668.953
279.570	23.642	858.632	669.974
280.585	23.975	858.067	670.731
281.599	24.018	856.698	669.763
282.614	23.822	855.931	668.368
283.628	23.450	855.852	666.848
284.643	23.414	854.248	665.402
285.657	23.277	854.706	665.186
286.672	23.573	853.743	665.486
287.687	23.543	852.960	664.706
288.701	23.409	853.344	664.445
289.716	23.743	851.614	664.288
290.730	23.597	851.055	663.249
291.745	23.923	850.894	664.281
292.760	24.058	850.176	664.166
293.774	23.865	849.924	663.190
294.789	23.978	850.451	663.964
295.803	24.157	849.298	663.673
296.818	24.099	848.324	662.637
297.833	23.959	846.790	660.861
298.847	23.693	846.720	659.760
299.862	23.633	845.720	658.698
300.876	24.043	844.921	659.539
301.891	23.911	845.713	659.607
302.906	24.221	845.027	660.161
303.920	24.521	844.554	660.845
304.935	24.470	843.245	659.574
305.949	24.507	843.906	660.171
306.964	24.663	842.417	659.520
307.979	23.972	842.722	657.151
308.993	24.044	841.438	656.358
310.008	23.832	841.197	655.328
311.022	24.371	840.561	656.761
312.037	24.189	839.954	655.561
313.052	23.803	839.654	653.848
314.066	23.519	838.518	651.863
315.081	23.405	837.647	650.707
316.095	23.258	836.671	649.354
317.110	23.661	836.283	650.472
318.125	23.775	835.239	650.019
319.139	23.450	835.286	648.807
320.154	23.317	834.810	647.893
321.168	23.146	834.320	646.832
322.183	23.569	833.438	647.633
323.197	23.682	832.757	647.462
324.212	23.082	833.262	645.607
325.227	23.295	832.615	645.824
326.241	23.327	832.248	645.599
327.256	23.225	831.580	644.653
328.270	23.381	829.758	643.749
329.285	23.706	829.623	644.770
330.300	23.431	828.861	643.120
331.314	23.221	829.453	642.763
332.329	22.846	828.405	640.533
333.343	23.507	828.290	642.782
334.358	24.188	826.934	644.140
335.373	24.146	826.354	643.477
336.387	23.884	826.835	642.848
337.402	23.667	827.295	642.364
338.416	24.174	826.223	643.304
339.431	24.374	825.955	643.762
340.446	24.480	825.817	643.980
341.460	24.862	824.084	643.946
342.475	24.961	823.546	643.826
343.489	24.906	823.669	643.664
344.504	24.560	824.157	642.744
345.519	24.564	823.467	642.164
346.533	25.085	822.089	642.905
347.548	24.886	822.058	642.107
348.562	24.520	820.903	639.837
349.577	24.403	820.275	638.872
350.592	24.258	820.106	638.166
351.606	24.538	817.822	637.333
352.621	24.275	817.753	636.284
353.635	24.205	817.962	636.138
354.650	23.854	818.361	635.137
355.665	23.718	817.357	633.820
356.679	24.255	816.143	634.732
357.694	24.492	815.305	634.869
358.708	24.153	816.654	634.655
359.723	23.993	814.969	632.719
360.738	24.140	813.970	632.410
361.752	24.025	813.567	631.634
362.767	24.086	813.595	631.816
363.781	24.824	813.167	634.043
364.796	25.222	812.623	634.974
365.810	24.982	813.344	634.628
366.825	25.002	812.536	634.013
367.840	25.020	812.799	634.227
368.854	25.313	811.134	633.908
369.869	24.647	810.893	631.311
370.883	24.504	810.534	630.469
371.898	24.559	809.661	629.928
372.913	24.861	809.472	630.791
373.927	24.995	808.951	630.800
374.942	25.019	807.944	630.044
375.956	24.616	807.333	628.097
376.971	24.505	807.158	627.513
377.986	24.903	806.624	628.440
379.000	25.073	807.014	629.285
380.015	24.964	805.985	628.045
381.029	25.251	803.981	627.431
382.044	25.199	803.873	627.111
383.059	25.510	803.919	628.179
384.073	25.178	803.491	626.628
385.088	25.036	802.915	625.629
386.102	24.815	801.539	623.728
387.117	24.861	800.825	623.279
388.132	23.971	800.759	620.073
389.146	24.129	801.090	620.823
390.161	24.158	799.723	619.811
391.175	24.660	800.213	621.885
392.190	24.988	799.806	622.654
393.205	24.969	799.051	621.943
394.219	24.829	798.391	620.891
395.234	24.502	796.907	618.548
396.248	24.039	796.042	616.219
397.263	24.074	796.038	616.282
398.278	24.503	795.675	617.431
399.292	23.864	795.830	615.283
400.307	23.749	795.470	614.555
401.321	24.012	794.369	614.558
402.336	24.066	793.496	614.016
403.350	24.347	793.645	615.044
404.365	24.378	794.546	615.795
405.380	24.948	793.868	617.182
406.394	25.200	793.892	618.014
407.409	25.551	793.286	618.694
408.423	25.153	793.149	617.164
409.438	25.401	792.478	617.441
410.453	25.221	791.979	616.377
411.467	25.187	791.153	615.563
412.482	25.457	790.410	615.857
413.496	25.336	789.865	614.964
414.511	25.632	789.487	615.626
415.526	25.614	789.565	615.573
416.540	25.395	789.209	614.492
417.555	25.371	788.823	614.054
418.569	25.274	788.712	613.581
419.584	25.476	788.262	613.867
420.599	25.740	787.116	613.821
421.613	161.683	1369.234	1794.136
422.628	139.981	1454.059	1794.269
