DTS Sentinel unit serial number:	SN413079Multiplexer serial number:	ORYXHardware model number:	OX4-SRSoftware version number:	ORYX F/W v4.00 Oryx Data Collector v3.7.2.0data status	okinstallation	princeton_trtdifferential loss correction	single-endedforward channel	channel 3reverse channel	N/Adate	2019/09/12time	18:18:04forward acquisition time	15.00reverse acquisition time	0.00gamma	496.2192k internal	0.2317k external	0.2317temperature offset calibration	1.0087default loss term (dB/km)	0.3790temperature slope calibration	1.0000multiplexer offset coefficient	1.0000multiplexer slope coefficient	1.0000fibre end	0.00T internal ref (°C)	33.50T ext. ref 1 (°C)	2.94T ext. ref 2 (°C)	28.06length (m)	temperature (°C)	Stokes	anti-Stokes-747.200	-75.590	-1.284	0.462
-746.185	800.000	0.214	-0.651
-745.171	-21.226	-0.655	-0.406
-744.156	54.707	0.771	0.753
-743.142	207.099	0.363	0.572
-742.127	-26.902	0.546	0.323
-741.112	-147.034	0.189	-0.016
-740.098	77.127	-0.146	0.157
-739.083	280.587	-0.452	0.819
-738.069	219.952	-0.468	-0.759
-737.054	800.000	-0.077	0.273
-736.039	-139.400	-0.207	-0.022
-735.025	43.276	0.073	0.068
-734.010	48.817	-0.373	0.354
-732.996	800.000	0.151	-0.486
-731.981	-7.852	-0.707	0.483
-730.966	609.765	0.155	0.391
-729.952	-44.688	-0.196	-0.099
-728.937	-200.000	0.035	-0.260
-727.923	-52.458	-0.440	-0.206
-726.908	-153.496	-0.457	-0.032
-725.894	57.339	-0.715	-0.707
-724.879	121.837	0.375	-0.473
-723.864	-111.933	0.469	-0.096
-722.850	-200.000	-0.098	-0.788
-721.835	-142.102	0.564	0.057
-720.821	498.925	0.066	0.155
-719.806	-87.203	-0.588	0.181
-718.791	-107.608	-0.571	-0.126
-717.777	-200.000	-0.158	-0.753
-716.762	43.440	0.261	-0.241
-715.748	-200.000	-0.053	0.486
-714.733	51.966	-0.356	-0.343
-713.718	82.473	0.072	0.079
-712.704	-57.713	0.251	0.111
-711.689	-200.000	-0.012	0.575
-710.675	-37.934	-0.577	-0.310
-709.660	113.471	0.759	-0.932
-708.645	-200.000	-0.083	-0.970
-707.631	114.465	0.490	-0.603
-706.616	800.000	-0.101	-0.319
-705.602	-166.786	0.868	-0.036
-704.587	31.725	-0.222	-0.193
-703.572	-200.000	-0.006	0.197
-702.558	5.245	0.560	-0.417
-701.543	-93.272	-0.572	-0.161
-700.529	-200.000	0.096	0.503
-699.514	-200.000	0.053	0.350
-698.499	89.575	-0.372	0.420
-697.485	27.294	0.640	0.543
-696.470	-24.141	0.777	-0.469
-695.456	-148.149	1.068	-0.089
-694.441	-200.000	-0.007	0.181
-693.426	-88.309	-0.431	0.130
-692.412	800.000	0.063	0.192
-691.397	542.243	-0.117	-0.281
-690.383	-44.662	0.237	0.120
-689.368	124.225	-0.994	-1.263
-688.354	-200.000	0.120	-0.710
-687.339	-102.881	-0.858	0.206
-686.324	752.925	-0.070	-0.191
-685.310	-98.219	0.261	0.068
-684.295	-62.587	-0.926	-0.388
-683.281	800.000	0.056	0.200
-682.266	166.327	-0.541	-0.774
-681.251	800.000	0.124	-0.451
-680.237	-16.617	-0.565	-0.361
-679.222	28.882	-0.626	-0.535
-678.208	-75.655	0.487	0.175
-677.193	-200.000	0.019	0.387
-676.178	-200.000	-0.061	0.436
-675.164	115.007	0.501	-0.617
-674.149	-200.000	-0.120	-0.736
-673.135	-147.056	-0.508	0.044
-672.120	278.419	0.175	0.316
-671.105	800.000	-0.112	-0.416
-670.091	-64.420	0.387	-0.159
-669.076	28.746	0.090	-0.077
-668.062	464.223	-0.203	-0.458
-667.047	-102.545	-0.354	0.085
-666.032	-16.443	-0.796	-0.510
-665.018	22.470	-0.423	-0.349
-664.003	306.615	0.472	-0.887
-662.989	-115.575	0.366	0.069
-661.974	193.985	-0.116	0.177
-660.959	-70.347	0.316	-0.121
-659.945	-200.000	-0.227	1.156
-658.930	-77.783	1.175	0.410
-657.916	-5.212	-0.683	0.474
-656.901	800.000	-0.176	-0.646
-655.886	-108.489	0.793	-0.172
-654.872	-200.000	0.112	-0.705
-653.857	296.599	0.336	0.621
-652.843	-14.776	0.530	0.343
-651.828	48.864	0.244	-0.231
-650.814	-96.330	0.412	0.110
-649.799	-12.648	-0.456	0.300
-648.784	-47.786	-0.368	-0.180
-647.770	228.318	-0.489	0.804
-646.755	-76.262	0.246	0.088
-645.741	32.094	-0.465	-0.405
-644.726	196.495	-0.377	-0.579
-643.711	-200.000	-0.156	-0.861
-642.697	-101.397	0.354	0.087
-641.682	-9.973	0.346	0.232
-640.668	-140.607	1.094	0.114
-639.653	-32.367	-0.126	-0.071
-638.638	-152.628	0.837	0.060
-637.624	-200.000	0.058	-1.154
-636.609	764.159	-0.048	0.131
-635.595	-21.128	-0.676	0.417
-634.580	155.227	-0.093	-0.129
-633.565	-75.904	0.505	0.180
-632.551	-200.000	0.022	0.561
-631.536	-134.901	-0.725	-0.088
-630.522	239.610	0.172	0.289
-629.507	-104.823	-0.692	-0.160
-628.492	-17.389	-0.440	0.279
-627.478	102.803	0.404	-0.477
-626.463	18.529	0.243	0.196
-625.449	105.139	-0.390	0.464
-624.434	294.954	-0.182	-0.335
-623.419	-46.631	-0.670	-0.331
-622.405	-63.137	0.457	-0.190
-621.390	62.731	-0.567	0.572
-620.376	301.737	0.072	-0.133
-619.361	47.289	0.344	-0.323
-618.346	-200.000	0.049	-0.324
-617.332	598.849	0.206	0.515
-616.317	-164.897	0.643	0.029
-615.303	-44.183	-0.226	-0.114
-614.288	-93.473	0.792	-0.221
-613.273	-200.000	-0.012	-0.091
-612.259	72.405	-0.709	-0.744
-611.244	-99.517	-1.069	0.271
-610.230	-35.709	-0.422	-0.230
-609.215	185.994	0.193	-0.288
-608.201	-200.000	0.081	-0.455
-607.186	137.241	-0.225	-0.296
-606.171	-200.000	-0.050	0.450
-605.157	691.743	-0.038	0.101
-604.142	-200.000	0.071	-0.665
-603.128	-82.773	0.289	-0.094
-602.113	-64.120	-0.523	0.215
-601.098	98.446	0.395	0.458
-600.084	-5.012	-0.268	-0.186
-599.069	-200.000	-0.108	-1.146
-598.055	54.207	-0.273	-0.264
-597.040	-58.829	0.705	0.307
-596.025	84.780	0.539	0.594
-595.011	22.086	0.567	0.466
-593.996	-146.613	0.139	-0.012
-592.982	-200.000	0.131	0.625
-591.967	308.738	0.209	0.392
-590.952	300.004	0.150	0.278
-589.938	-2.514	-0.837	-0.590
-588.923	-200.000	0.093	-1.164
-587.909	138.777	-0.411	-0.544
-586.894	-120.719	1.005	0.171
-585.879	30.255	0.211	-0.181
-584.865	-99.144	-0.887	0.226
-583.850	-90.013	-0.656	-0.192
-582.836	57.540	0.459	-0.451
-581.821	800.000	0.230	0.710
-580.806	127.378	0.501	-0.640
-579.792	-97.793	-0.771	0.201
-578.777	-39.421	0.517	0.273
-577.763	-30.984	0.466	0.265
-576.748	-65.531	-1.207	0.487
-575.733	-132.901	0.803	0.103
-574.719	195.932	-0.511	0.781
-573.704	51.496	0.376	-0.359
-572.690	800.000	-0.142	0.467
-571.675	-200.000	0.026	0.318
-570.661	800.000	-0.180	-0.504
-569.646	-68.213	0.751	-0.294
-568.631	103.194	-0.228	0.269
-567.617	800.000	-0.185	-0.522
-566.602	-107.546	0.799	0.176
-565.588	-133.599	0.711	-0.089
-564.573	111.110	0.098	-0.119
-563.558	-127.706	-0.498	0.072
-562.544	-132.167	-0.536	-0.070
-561.529	-111.653	0.613	-0.125
-560.515	800.000	0.094	-0.270
-559.500	107.513	0.099	0.119
-558.485	-200.000	0.006	1.015
-557.471	4.839	-0.403	-0.298
-556.456	100.668	0.204	0.239
-555.442	-200.000	0.045	0.200
-554.427	-200.000	-0.041	-0.211
-553.412	171.162	-0.078	-0.113
-552.398	-200.000	-0.023	0.292
-551.383	-79.771	0.758	0.256
-550.369	112.644	-0.491	-0.597
-549.354	3.789	0.936	0.687
-548.339	47.555	0.329	-0.308
-547.325	17.361	0.260	-0.207
-546.310	76.126	-0.902	0.958
-545.296	-63.666	-0.440	0.181
-544.281	800.000	0.200	0.812
-543.266	-65.811	-0.608	0.244
-542.252	96.649	0.717	0.825
-541.237	605.936	0.053	-0.134
-540.223	15.277	-0.549	0.432
-539.208	-200.000	-0.065	-0.433
-538.193	-88.173	0.665	0.200
-537.179	-56.978	-0.245	-0.109
-536.164	800.000	-0.088	0.383
-535.150	-155.285	0.490	0.032
-534.135	800.000	-0.073	0.205
-533.121	-67.601	-0.510	0.201
-532.106	1.174	-0.215	-0.155
-531.091	-96.410	-0.601	0.160
-530.077	-200.000	-0.064	-0.634
-529.062	256.987	0.129	-0.223
-528.048	136.033	-0.201	0.263
-527.033	94.810	-0.574	-0.655
-526.018	-124.135	0.716	0.113
-525.004	8.002	-0.585	-0.441
-523.989	-23.832	-0.430	-0.259
-522.975	92.828	-0.634	-0.719
-521.960	-200.000	-0.124	-0.679
-520.945	118.816	0.497	-0.617
-519.931	-106.994	-0.444	0.099
-518.916	-157.509	-0.870	0.052
-517.902	-135.217	0.559	-0.067
-516.887	-65.968	0.997	-0.400
-515.872	82.501	0.384	-0.418
-514.858	174.128	0.435	-0.631
-513.843	-200.000	0.004	0.082
-512.829	21.680	0.323	-0.264
-511.814	7.055	-0.633	-0.474
-510.799	-200.000	-0.008	0.222
-509.785	-200.000	0.126	0.852
-508.770	-113.447	-0.442	0.087
-507.756	33.723	0.471	0.410
-506.741	-200.000	-0.020	0.671
-505.726	-117.320	-0.288	0.052
-504.712	800.000	0.118	-0.450
-503.697	344.899	0.228	0.449
-502.683	-43.914	-0.131	0.066
-501.668	692.537	-0.224	0.589
-500.653	-200.000	0.059	-0.442
-499.639	41.120	0.355	-0.322
-498.624	7.344	-0.442	0.331
-497.610	506.620	0.058	0.134
-496.595	-54.241	-0.439	-0.200
-495.581	2.799	-0.324	-0.236
-494.566	-58.097	-0.319	-0.139
-493.551	-116.418	-0.871	0.161
-492.537	308.794	0.190	0.356
-491.522	78.063	-0.209	0.224
-490.508	554.821	0.122	0.294
-489.493	-155.463	0.422	-0.027
-488.478	4.889	-0.889	-0.655
-487.464	-200.000	0.043	-0.748
-486.449	92.824	0.533	0.603
-485.435	54.388	-0.195	0.189
-484.420	180.032	-0.462	0.679
-483.405	50.514	-0.087	-0.082
-482.391	-200.000	-0.142	-0.996
-481.376	-66.575	-0.241	-0.096
-480.362	800.000	0.243	0.808
-479.347	-200.000	-0.017	-0.451
-478.332	160.373	0.216	0.301
-477.318	128.128	0.230	0.294
-476.303	-64.049	-0.375	0.153
-475.289	-58.369	-0.498	-0.217
-474.274	-44.733	0.242	-0.121
-473.259	186.103	-0.213	0.317
-472.245	22.663	-0.730	-0.598
-471.230	-200.000	-0.225	1.022
-470.216	436.341	0.193	0.422
-469.201	-87.199	0.478	0.146
-468.186	800.000	0.294	-0.883
-467.172	-48.235	-0.214	0.104
-466.157	-200.000	0.071	0.571
-465.143	-113.599	-0.850	-0.166
-464.128	9.527	0.610	0.462
-463.113	-200.000	-0.064	0.473
-462.099	-162.699	-0.678	-0.033
-461.084	-21.081	-0.366	0.224
-460.070	-104.379	0.888	-0.206
-459.055	102.353	0.233	0.273
-458.040	-48.942	-0.734	-0.352
-457.026	-160.983	-0.958	0.050
-456.011	-47.127	-0.384	-0.187
-454.997	-200.000	-0.077	0.791
-453.982	800.000	0.145	0.581
-452.968	-200.000	-0.052	0.530
-451.953	-113.688	0.993	0.194
-450.938	800.000	-0.125	-0.462
-449.924	-103.448	-0.858	-0.202
-448.909	-97.781	-0.835	-0.216
-447.895	-60.196	0.606	0.258
-446.880	310.513	-0.208	-0.389
-445.865	80.784	0.473	-0.511
-444.851	-50.827	-0.924	0.435
-443.836	4.947	0.283	0.208
-442.822	790.668	0.247	0.678
-441.807	768.052	-0.052	-0.143
-440.792	347.332	0.196	-0.386
-439.778	117.300	0.232	0.285
-438.763	246.404	0.098	-0.166
-437.749	584.693	-0.172	0.423
-436.734	-169.453	0.298	0.011
-435.719	-38.612	-0.632	0.334
-434.705	-87.905	0.708	-0.213
-433.690	-200.000	-0.076	0.370
-432.676	-81.319	0.684	0.226
-431.661	800.000	-0.232	0.684
-430.646	800.000	0.026	0.111
-429.632	-13.012	0.523	-0.340
-428.617	-85.015	0.464	0.146
-427.603	-200.000	0.044	0.384
-426.588	-87.051	0.365	-0.111
-425.573	-34.688	-0.601	-0.329
-424.559	-200.000	0.017	0.183
-423.544	533.646	0.313	0.741
-422.530	-200.000	-0.013	0.073
-421.515	-135.716	-0.054	0.006
-420.500	-200.000	-0.076	-0.467
-419.486	-101.090	-0.868	-0.213
-418.471	139.168	0.806	1.060
-417.457	82.948	-0.181	0.196
-416.442	-200.000	-0.027	0.484
-415.428	-74.946	-0.339	0.121
-414.413	-153.041	0.110	-0.008
-413.398	800.000	0.151	-0.580
-412.384	-200.000	-0.241	-1.095
-411.369	-65.187	-0.163	0.066
-410.355	800.000	0.083	0.308
-409.340	313.896	-0.223	0.418
-408.325	149.043	-0.117	-0.158
-407.311	-92.548	-0.363	0.102
-406.296	15.663	0.335	0.263
-405.282	-87.173	0.559	0.170
-404.267	-106.313	-0.429	-0.096
-403.252	800.000	-0.058	0.245
-402.238	-26.267	0.405	-0.238
-401.223	-200.000	-0.058	-0.350
-400.209	800.000	0.064	-0.196
-399.194	-39.665	0.324	-0.169
-398.179	98.610	-0.154	-0.177
-397.165	800.000	-0.062	0.185
-396.150	-200.000	0.108	0.755
-395.136	800.000	0.158	0.454
-394.121	56.586	-0.334	-0.325
-393.106	-4.119	0.406	-0.281
-392.092	103.162	0.296	-0.346
-391.077	-72.291	-0.359	-0.133
-390.063	-49.451	0.721	-0.343
-389.048	683.958	0.255	0.665
-388.033	37.362	0.418	0.370
-387.019	-149.990	1.134	0.088
-386.004	-105.267	-0.667	0.152
-384.990	354.870	-0.326	0.646
-383.975	-200.000	0.067	1.056
-382.960	-152.540	0.475	-0.034
-381.946	-46.839	-0.703	-0.343
-380.931	110.349	-0.439	-0.527
-379.917	-44.011	0.670	-0.336
-378.902	-54.747	0.671	0.303
-377.888	-50.557	-0.510	-0.240
-376.873	800.000	-0.204	-0.624
-375.858	-128.875	0.364	0.051
-374.844	-200.000	0.037	-0.473
-373.829	130.844	-0.518	-0.664
-372.815	-168.751	0.195	-0.007
-371.800	-200.000	-0.046	-0.220
-370.785	-200.000	-0.374	0.001
-369.771	341.929	-0.011	-0.021
-368.756	-200.000	0.048	-0.342
-367.742	800.000	-0.170	-0.606
-366.727	163.803	-0.241	-0.339
-365.712	125.491	0.300	-0.378
-364.698	8.275	0.655	0.491
-363.683	-86.294	-0.293	0.090
-362.669	6.237	-0.433	-0.320
-361.654	-148.429	0.587	-0.048
-360.639	-168.038	-0.907	-0.035
-359.625	-200.000	0.032	0.299
-358.610	-200.000	0.005	-0.551
-357.596	271.689	0.238	-0.418
-356.581	-200.000	-0.069	-0.325
-355.566	184.106	0.385	-0.568
-354.552	539.865	0.162	-0.384
-353.537	800.000	0.142	0.447
-352.523	-1.640	-0.174	0.122
-351.508	88.697	-0.558	-0.619
-350.493	-184.550	0.141	-0.002
-349.479	-67.424	-0.401	-0.157
-348.464	-110.085	-1.119	-0.233
-347.450	-23.763	0.585	0.349
-346.435	155.167	0.802	1.100
-345.420	-74.528	-0.514	-0.185
-344.406	-200.000	-0.015	-0.630
-343.391	-150.904	0.664	-0.050
-342.377	533.604	0.187	-0.440
-341.362	93.561	-0.463	0.523
-340.348	-45.229	-1.249	0.618
-339.333	-179.797	0.458	-0.010
-338.318	-154.245	0.377	0.025
-337.304	-200.000	0.008	0.083
-336.289	394.558	-0.349	-0.725
-335.275	-200.000	0.079	-0.374
-334.260	243.168	0.381	0.636
-333.245	-200.000	0.055	0.877
-332.231	-197.752	-0.430	-0.003
-331.216	404.260	0.308	-0.646
-330.202	18.977	-0.578	0.461
-329.187	69.095	0.579	-0.593
-328.172	89.443	-0.499	0.554
-327.158	-154.354	-0.423	0.028
-326.143	134.720	-0.126	0.163
-325.129	-200.000	-0.148	-0.664
-324.114	103.343	-0.399	0.466
-323.099	293.769	0.230	-0.418
-322.085	26.301	0.394	-0.328
-321.070	-107.445	0.505	-0.110
-320.056	32.374	0.423	-0.363
-319.041	-162.759	-0.377	-0.018
-318.026	12.438	0.704	0.540
-317.012	99.065	-0.155	0.178
-315.997	-72.635	0.623	0.229
-314.983	-127.686	0.349	0.050
-313.968	-32.936	-0.043	-0.024
-312.953	800.000	-0.164	0.538
-311.939	-129.426	0.781	0.108
-310.924	-44.165	-0.596	-0.298
-309.910	-57.400	-0.540	-0.236
-308.895	84.250	0.394	0.428
-307.880	62.459	0.277	-0.275
-306.866	-1.048	-0.271	0.191
-305.851	-165.372	-0.664	-0.029
-304.837	800.000	-0.329	-1.248
-303.822	67.350	-0.268	0.272
-302.807	800.000	-0.056	-0.185
-301.793	800.000	-0.167	0.565
-300.778	103.003	-0.119	-0.139
-299.764	-109.953	-0.298	0.062
-298.749	180.974	-0.417	0.609
-297.735	435.332	0.410	-0.886
-296.720	-177.208	0.270	0.007
-295.705	-102.051	-0.389	-0.093
-294.691	-200.000	-0.036	0.217
-293.676	-4.906	-0.182	-0.125
-292.662	-98.686	-0.418	0.106
-291.647	-200.000	0.044	0.386
-290.632	325.515	-0.373	-0.709
-289.618	-136.213	-0.615	0.072
-288.603	-200.000	-0.002	0.082
-287.589	763.081	-0.133	0.360
-286.574	-12.083	0.319	0.208
-285.559	-66.103	-0.587	-0.233
-284.545	82.632	0.743	-0.803
-283.530	57.857	-0.463	0.450
-282.516	2.487	0.165	0.119
-281.501	277.196	0.331	0.586
-280.486	-200.000	0.043	0.303
-279.472	-72.645	0.406	0.149
-278.457	-22.499	-0.279	0.168
-277.443	116.878	0.365	-0.446
-276.428	800.000	0.349	-1.325
-275.413	-66.489	0.447	0.176
-274.399	-24.240	0.160	-0.095
-273.384	115.253	0.500	-0.606
-272.370	800.000	0.051	-0.183
-271.355	532.713	-0.353	0.831
-270.340	-6.903	0.404	0.273
-269.326	-200.000	-0.044	-0.231
-268.311	-200.000	-0.075	0.459
-267.297	174.812	-0.141	-0.203
-266.282	271.707	-0.257	0.451
-265.267	-103.196	-0.521	0.122
-264.253	49.125	0.740	0.691
-263.238	-30.015	-0.429	0.243
-262.224	77.617	0.404	-0.427
-261.209	536.806	-0.099	0.233
-260.195	-34.958	-0.206	0.112
-259.180	-69.765	0.758	0.288
-258.165	-62.572	-0.507	-0.209
-257.151	443.620	0.325	0.707
-256.136	-39.948	0.143	-0.074
-255.122	-126.957	0.386	-0.056
-254.107	38.107	0.217	-0.191
-253.092	-66.629	-0.558	0.220
-252.078	-19.305	-0.416	-0.256
-251.063	-104.071	0.829	-0.192
-250.049	-0.228	0.870	-0.615
-249.034	-149.273	1.019	0.081
-248.019	-200.000	0.016	0.358
-247.005	-72.503	-0.404	-0.148
-245.990	-96.104	-0.523	-0.138
-244.976	107.991	-0.338	0.400
-243.961	10.828	-0.294	0.222
-242.946	237.295	-0.346	-0.569
-241.932	10.498	0.734	0.555
-240.917	-74.884	0.587	0.209
-239.903	59.869	-0.479	-0.469
-238.888	64.442	0.680	-0.680
-237.873	209.314	0.504	0.784
-236.859	16.138	0.531	-0.416
-235.844	43.272	0.635	0.575
-234.830	800.000	-0.221	0.708
-233.815	63.354	-0.880	-0.876
-232.800	-133.852	-0.741	0.091
-231.786	123.977	-0.239	-0.297
-230.771	-13.113	0.947	-0.611
-229.757	233.023	-0.428	0.698
-228.742	-56.239	0.414	0.183
-227.727	-200.000	0.283	1.257
-226.713	87.303	-0.188	0.206
-225.698	51.966	0.396	-0.374
-224.684	800.000	-0.101	0.317
-223.669	-45.779	-0.759	-0.372
-222.655	800.000	-0.185	-0.586
-221.640	169.830	0.252	0.357
-220.625	-19.210	-0.677	-0.417
-219.611	-150.632	1.179	0.089
-218.596	391.058	-0.345	0.709
-217.582	-118.183	0.750	0.133
-216.567	129.090	-0.796	1.008
-215.552	44.495	0.516	-0.470
-214.538	421.690	-0.389	-0.827
-213.523	-47.284	-0.544	-0.263
-212.509	-102.625	0.550	-0.130
-211.494	-200.000	0.006	-0.357
-210.479	-34.028	0.324	0.177
-209.465	254.253	0.332	-0.563
-208.450	-200.000	-0.019	0.610
-207.436	-200.000	-0.218	-1.179
-206.421	92.361	0.174	-0.194
-205.406	108.317	0.355	-0.419
-204.392	553.685	0.145	0.345
-203.377	550.701	-0.045	-0.107
-202.363	28.646	0.452	0.379
-201.348	-52.587	-0.456	0.209
-200.333	45.845	-0.336	-0.308
-199.319	280.986	-0.191	0.339
-198.304	-55.951	0.788	-0.349
-197.290	431.308	0.151	-0.325
-196.275	-44.326	0.222	-0.110
-195.260	1.239	0.630	-0.449
-194.246	390.503	-0.205	0.420
-193.231	-6.482	0.386	-0.261
-192.217	-91.954	0.653	0.183
-191.202	-121.502	0.450	-0.074
-190.187	486.293	0.195	0.440
-189.173	-167.667	-0.703	0.028
-188.158	-200.000	0.100	0.645
-187.144	146.145	0.317	0.421
-186.129	615.884	-0.274	-0.680
-185.114	-60.009	0.382	-0.162
-184.100	144.216	-0.438	-0.578
-183.085	-200.000	0.021	0.299
-182.071	-0.971	-0.187	0.131
-181.056	1.895	0.368	-0.263
-180.042	315.356	-0.178	0.333
-179.027	800.000	-0.163	0.635
-178.012	55.138	0.589	-0.564
-176.998	-200.000	-0.068	-0.416
-175.983	128.186	-0.176	0.221
-174.969	-200.000	0.026	-0.489
-173.954	58.601	-0.602	-0.586
-172.939	-141.147	-0.783	-0.079
-171.925	-7.143	-0.379	0.255
-170.910	400.204	-0.228	0.474
-169.896	-141.238	-0.524	-0.053
-168.881	-193.593	0.741	-0.006
-167.866	-164.228	0.451	0.021
-166.852	-200.000	-0.061	-0.316
-165.837	112.471	0.554	0.663
-164.823	-21.349	-0.275	-0.166
-163.808	-200.000	-0.062	0.292
-162.793	-126.708	-0.532	-0.078
-161.779	-88.233	-0.378	-0.112
-160.764	-142.887	0.807	-0.078
-159.750	353.172	0.247	-0.485
-158.735	786.842	0.309	-0.839
-157.720	800.000	-0.113	-0.419
-156.706	60.114	-0.329	0.322
-155.691	163.014	0.389	-0.540
-154.677	113.771	0.253	0.304
-153.662	102.436	-0.312	-0.360
-152.647	800.000	-0.230	0.639
-151.633	608.291	-0.147	-0.364
-150.618	-79.331	-0.278	0.093
-149.604	-133.007	-0.316	0.040
-148.589	-153.826	0.292	0.020
-147.574	-115.831	0.423	-0.078
-146.560	71.643	0.149	0.153
-145.545	110.095	-0.208	0.247
-144.531	49.141	-0.193	0.179
-143.516	-119.223	-0.469	0.081
-142.502	380.232	0.406	0.823
-141.487	-3.081	0.217	-0.149
-140.472	-39.836	-0.636	-0.328
-139.458	-200.000	-0.183	-0.983
-138.443	-56.322	-0.513	-0.226
-137.429	-200.000	-0.057	-0.389
-136.414	50.876	-0.037	0.035
-135.399	-121.139	-1.149	-0.190
-134.385	316.462	-0.207	-0.386
-133.370	-129.932	-0.712	-0.096
-132.356	-135.074	0.710	0.084
-131.341	-200.000	-0.044	0.470
-130.326	-15.871	0.343	0.216
-129.312	-53.286	0.297	-0.134
-128.297	-200.000	-0.018	-0.205
-127.283	-66.083	0.390	0.154
-126.268	-77.670	0.383	-0.131
-125.253	-15.410	-0.189	-0.120
-124.239	-55.738	-0.512	-0.226
-123.224	-8.648	0.993	0.659
-122.210	-200.000	0.110	0.626
-121.195	-135.130	-0.609	0.072
-120.180	-138.311	0.176	0.019
-119.166	131.796	0.602	0.765
-118.151	25.650	-0.328	-0.270
-117.137	-14.989	0.165	-0.104
-116.122	-155.875	0.429	-0.027
-115.107	-142.500	-0.794	0.077
-114.093	-3.566	0.300	-0.206
-113.078	197.909	0.248	-0.374
-112.064	-47.357	-0.534	0.257
-111.049	-143.039	-0.922	-0.088
-110.034	-84.827	0.341	-0.106
-109.020	-89.688	-0.379	0.110
-108.005	-4.458	-0.527	0.359
-106.991	-200.000	0.074	-0.564
-105.976	-44.613	0.987	-0.487
-104.962	-165.676	-0.722	-0.031
-103.947	147.352	0.376	0.499
-102.932	-62.426	-0.210	0.086
-101.918	127.137	-0.411	-0.515
-100.903	-52.282	0.668	-0.306
-99.889	715.497	0.274	-0.717
-98.874	-6.488	0.897	-0.603
-97.859	-64.019	-0.190	-0.076
-96.845	21.199	0.467	-0.374
-95.830	-17.058	0.200	0.125
-94.816	-28.928	-0.839	0.476
-93.801	800.000	-0.033	0.110
-92.786	-131.103	0.440	-0.058
-91.772	32.676	-0.379	0.324
-90.757	351.871	0.032	0.063
-89.743	-200.000	-0.095	0.548
-88.728	-38.217	0.478	-0.250
-87.713	-171.710	-0.342	0.011
-86.699	322.051	-0.234	0.440
-85.684	-131.556	-0.255	-0.033
-84.670	800.000	0.066	-0.276
-83.655	-193.342	-0.511	-0.004
-82.640	-195.777	0.211	-0.001
-81.626	-92.474	-0.309	-0.086
-80.611	27.838	0.363	0.302
-79.597	-200.000	-0.155	0.697
-78.582	651.738	0.286	0.723
-77.567	15.908	-0.504	0.391
-76.553	-200.000	-0.025	0.420
-75.538	89.428	0.504	0.554
-74.524	-200.000	-0.023	0.279
-73.509	-119.557	0.759	0.130
-72.494	-200.000	0.002	0.704
-71.480	-56.639	0.603	-0.263
-70.465	-111.386	-0.420	-0.085
-69.451	-163.795	-0.944	-0.044
-68.436	-71.741	-0.285	-0.105
-67.422	-151.891	1.680	0.121
-66.407	800.000	0.183	-0.576
-65.392	800.000	0.030	-0.130
-64.378	156.173	-0.647	-0.880
-63.363	-114.477	1.208	-0.229
-62.349	569.210	0.145	-0.348
-61.334	800.000	-0.481	-1.569
-60.319	-60.969	0.675	0.281
-59.305	374.694	-0.122	-0.244
-58.290	117.604	0.562	0.682
-57.276	800.000	0.521	1.600
-56.261	-200.000	95.982	574.182
-55.246	636.266	1375.101	3440.428
-54.232	198.523	2545.599	3838.184
-53.217	117.729	2152.976	2611.677
-52.203	43.811	1700.715	1534.325
-51.188	36.508	1515.171	1317.335
-50.173	34.333	1487.939	1279.025
-49.159	54.501	1538.260	1460.320
-48.144	55.435	1557.397	1484.804
-47.130	36.862	1516.097	1320.345
-46.115	33.728	1499.694	1284.830
-45.100	33.597	1497.030	1281.613
-44.086	33.516	1495.094	1279.355
-43.071	33.630	1492.258	1277.649
-42.057	33.368	1492.573	1276.102
-41.042	33.661	1489.476	1275.371
-40.027	33.389	1489.852	1273.816
-39.013	33.476	1488.333	1273.049
-37.998	33.614	1486.996	1272.781
-36.984	33.570	1485.285	1270.972
-35.969	33.524	1483.841	1269.379
-34.954	33.640	1481.427	1268.039
-33.940	33.749	1480.615	1268.023
-32.925	33.613	1479.816	1266.375
-31.911	33.595	1478.102	1264.744
-30.896	33.672	1476.115	1263.506
-29.881	33.517	1477.061	1263.231
-28.867	33.648	1473.725	1261.200
-27.852	33.327	1473.231	1258.589
-26.838	33.488	1471.460	1258.096
-25.823	33.484	1470.612	1257.299
-24.809	33.535	1468.852	1256.082
-23.794	33.628	1466.353	1254.504
-22.779	33.657	1465.303	1253.751
-21.765	33.548	1464.462	1252.265
-20.750	33.761	1462.948	1252.322
-19.736	33.185	1464.221	1249.559
-18.721	33.572	1462.001	1250.164
-17.706	33.725	1460.569	1249.903
-16.692	33.559	1458.807	1247.254
-15.677	33.577	1459.652	1248.045
-14.663	33.333	1458.618	1245.503
-13.648	33.631	1456.199	1245.347
-12.633	33.623	1455.587	1244.724
-11.619	33.455	1453.759	1242.004
-10.604	33.083	1455.510	1241.011
-9.590	33.424	1451.753	1239.992
-8.575	33.141	1453.307	1239.411
-7.560	33.345	1451.660	1239.298
-6.546	33.129	1451.548	1237.735
-5.531	33.408	1450.161	1238.330
-4.517	33.442	1449.390	1237.848
-3.502	33.274	1448.579	1236.006
-2.487	33.435	1447.280	1235.896
-1.473	33.651	1444.246	1234.664
-0.458	33.365	1445.173	1233.546
0.556	34.421	1434.276	1222.284
1.571	31.096	1410.526	1180.929
2.586	27.706	1350.082	1109.647
3.600	25.570	1270.152	1031.620
4.615	24.188	1223.172	985.734
5.629	20.738	1166.576	921.805
6.644	11.274	1081.612	807.903
7.659	4.192	1040.581	743.321
8.673	3.194	1033.981	733.784
9.688	2.840	1030.573	729.617
10.702	2.782	1029.165	728.280
11.717	2.945	1027.214	727.611
12.731	6.157	1031.496	745.833
13.746	15.077	1045.512	798.625
14.761	23.458	1054.017	845.181
15.775	25.450	1056.103	856.285
16.790	25.823	1055.648	857.617
17.804	25.137	1056.639	855.075
18.819	25.573	1055.024	855.767
19.834	25.229	1054.862	853.926
20.848	25.680	1054.307	855.544
21.863	25.900	1052.782	855.273
22.877	25.760	1053.151	854.835
23.892	25.955	1052.644	855.273
24.907	25.497	1051.770	852.315
25.921	25.745	1050.745	852.585
26.936	25.493	1050.114	850.802
27.950	25.734	1048.221	850.335
28.965	25.733	1047.647	849.790
29.980	25.571	1046.260	847.826
30.994	25.473	1046.146	847.194
32.009	25.840	1045.297	848.159
33.023	25.853	1044.256	847.300
34.038	25.783	1042.428	845.415
35.053	25.529	1042.840	844.480
36.067	25.830	1041.507	844.740
37.082	25.812	1040.341	843.635
38.096	25.742	1040.032	842.983
39.111	25.970	1040.710	844.526
40.126	26.161	1038.374	843.444
41.140	25.974	1036.964	841.353
42.155	25.685	1036.406	839.480
43.169	25.206	1034.162	835.355
44.184	25.171	1034.132	835.097
45.199	25.537	1033.624	836.316
46.213	24.828	1034.069	833.302
47.228	25.109	1031.848	832.741
48.242	25.536	1031.011	833.975
49.257	25.501	1031.054	833.771
50.271	25.486	1030.003	832.782
51.286	25.889	1027.976	832.929
52.301	25.833	1027.473	832.192
53.315	25.623	1026.581	830.426
54.330	25.918	1026.927	831.993
55.344	25.742	1026.301	830.599
56.359	25.876	1024.245	829.478
57.374	25.782	1023.424	828.309
58.388	25.391	1023.888	826.811
59.403	25.396	1023.120	826.140
60.417	25.313	1023.405	825.916
61.432	25.377	1021.573	824.659
62.447	25.404	1020.774	824.067
63.461	25.501	1020.120	823.909
64.476	25.685	1018.187	823.115
65.490	25.279	1018.195	821.193
66.505	25.303	1017.410	820.596
67.520	25.255	1017.367	820.268
68.534	25.702	1015.431	820.673
69.549	25.229	1015.693	818.658
70.563	25.401	1013.126	817.298
71.578	25.071	1013.169	815.761
72.593	24.904	1012.466	814.363
73.607	24.981	1011.615	813.953
74.622	24.900	1010.562	812.668
75.636	25.217	1010.402	813.904
76.651	25.373	1008.735	813.196
77.666	25.158	1008.533	811.989
78.680	25.246	1007.487	811.473
79.695	25.051	1007.177	810.269
80.709	25.333	1006.648	811.045
81.724	25.403	1005.703	810.527
82.739	25.616	1005.209	811.021
83.753	25.455	1003.918	809.183
84.768	25.633	1003.666	809.710
85.782	25.801	1002.613	809.542
86.797	26.178	1002.515	811.084
87.812	25.922	1001.857	809.331
88.826	26.057	1000.563	808.822
89.841	26.201	1000.101	809.022
90.855	26.247	998.976	808.246
91.870	25.945	998.678	806.580
92.884	26.144	997.797	806.688
93.899	26.229	995.329	805.000
94.914	25.900	995.240	803.392
95.928	26.291	994.620	804.559
96.943	26.130	993.871	803.168
97.957	25.959	993.080	801.697
98.972	25.841	991.924	800.170
99.987	25.588	991.854	798.917
101.001	25.803	990.265	798.518
102.016	25.745	990.714	798.554
103.030	26.135	988.460	798.393
104.045	25.822	988.882	797.275
105.060	25.757	987.339	795.674
106.074	25.724	986.598	794.861
107.089	25.543	985.933	793.456
108.103	25.937	985.613	794.867
109.118	26.041	983.862	793.840
110.133	25.622	982.999	791.233
111.147	25.461	982.459	790.021
112.162	25.605	980.937	789.360
113.176	25.080	981.252	787.238
114.191	25.647	978.606	787.525
115.206	25.458	978.316	786.398
116.220	25.049	978.211	784.456
117.235	24.964	976.973	783.022
118.249	25.266	975.559	783.137
119.264	25.190	975.244	782.479
120.279	24.887	974.500	780.495
121.293	25.215	973.653	781.174
122.308	25.088	973.538	780.462
123.322	25.376	971.561	780.058
124.337	25.145	971.646	779.052
125.352	25.307	969.383	777.874
126.366	25.011	968.459	775.780
127.381	24.265	968.247	772.313
128.395	25.137	966.564	774.671
129.410	25.576	966.547	776.485
130.424	25.769	966.034	776.836
131.439	25.472	965.093	774.729
132.454	25.694	964.724	775.323
133.468	26.121	962.640	775.413
134.483	25.823	962.693	774.108
135.497	25.622	962.287	772.848
136.512	25.987	961.142	773.425
137.527	25.800	961.001	772.444
138.541	25.820	959.138	770.962
139.556	25.935	959.417	771.613
140.570	25.963	957.517	770.134
141.585	26.064	957.280	770.306
142.600	26.176	957.014	770.501
143.614	25.766	956.978	768.656
144.629	26.293	955.657	769.772
145.643	26.178	955.356	768.973
146.658	26.140	953.534	767.278
147.673	26.032	952.652	766.040
148.687	25.653	952.028	763.863
149.702	25.960	950.359	763.756
150.716	25.888	949.888	763.005
151.731	25.848	948.992	762.050
152.746	26.188	947.040	761.848
153.760	25.915	947.886	761.308
154.775	26.031	946.973	760.997
155.789	26.196	946.402	761.167
156.804	26.480	945.116	761.259
157.819	26.034	943.233	757.805
158.833	26.239	942.511	758.017
159.848	26.253	942.870	758.295
160.862	26.373	941.598	757.710
161.877	26.345	941.766	757.658
162.892	26.242	939.971	755.717
163.906	26.143	939.354	754.742
164.921	26.323	938.429	754.682
165.935	26.316	937.416	753.772
166.950	26.236	936.283	752.463
167.964	26.104	936.015	751.630
168.979	26.078	934.981	750.626
169.994	25.733	933.424	747.874
171.008	25.745	932.220	746.894
172.023	26.225	931.511	748.248
173.037	26.337	931.183	748.383
174.052	26.241	930.595	747.446
175.067	25.894	929.588	745.137
176.081	26.168	928.534	745.359
177.096	26.009	927.073	743.467
178.110	25.755	927.110	742.383
179.125	26.191	925.548	742.861
180.140	25.632	925.288	740.287
181.154	25.254	924.761	738.243
182.169	25.743	924.245	739.775
183.183	26.138	923.771	740.953
184.198	26.331	923.563	741.511
185.213	26.307	922.900	740.817
186.227	26.140	921.422	738.881
187.242	26.272	921.735	739.605
188.256	26.137	921.211	738.567
189.271	26.096	920.065	737.416
190.286	26.296	919.090	737.387
191.300	26.409	918.602	737.393
192.315	25.562	916.808	732.435
193.329	24.866	916.100	728.973
194.344	24.465	914.441	725.957
195.359	25.342	914.129	729.211
196.373	26.023	915.590	733.077
197.388	26.291	914.360	733.116
198.402	26.271	914.425	733.022
199.417	26.127	913.727	731.813
200.432	26.415	914.311	733.387
201.446	26.389	913.229	732.349
202.461	25.856	912.989	729.932
203.475	26.029	911.673	729.513
204.490	25.574	909.478	725.857
205.504	24.423	907.575	719.637
206.519	24.656	908.329	721.110
207.534	25.810	908.922	726.173
208.548	25.652	907.771	724.553
209.563	26.073	907.635	726.075
210.577	25.914	907.019	724.880
211.592	26.352	905.293	725.191
212.607	26.378	905.575	725.458
213.621	26.542	905.115	725.683
214.636	26.305	904.037	723.805
215.650	26.340	903.843	723.726
216.665	26.220	903.712	723.076
217.680	26.440	903.650	723.845
218.694	26.093	904.220	722.847
219.709	26.442	901.602	722.084
220.723	26.127	900.782	720.106
221.738	26.172	899.637	719.307
222.753	26.581	899.675	720.903
223.767	26.026	899.235	718.277
224.782	26.199	898.461	718.283
225.796	26.381	898.314	718.826
226.811	26.496	897.117	718.262
227.826	26.287	895.893	716.388
228.840	25.607	893.798	711.961
229.855	25.220	893.921	710.461
230.869	25.729	893.787	712.308
231.884	24.935	894.098	709.349
232.899	25.032	892.502	708.405
233.913	25.688	892.728	711.114
234.928	26.181	892.637	712.927
235.942	25.921	891.864	711.217
236.957	25.833	891.383	710.426
237.972	25.663	890.018	708.606
238.986	25.618	889.613	708.041
240.001	25.838	888.404	707.881
241.015	25.904	887.847	707.633
242.030	26.024	886.998	707.366
243.045	26.065	887.007	707.472
244.059	26.144	886.549	707.352
245.074	26.192	886.238	707.229
246.088	26.230	885.383	706.633
247.103	25.780	884.550	704.150
248.117	25.936	883.839	704.127
249.132	26.685	883.398	706.637
250.147	26.850	883.489	707.293
251.161	27.079	882.867	707.623
252.176	27.160	882.759	707.791
253.190	26.957	882.669	706.864
254.205	27.243	880.981	706.563
255.220	27.275	881.344	706.913
256.234	27.238	880.898	706.350
257.249	27.137	880.599	705.657
258.263	27.144	879.306	704.585
259.278	26.981	878.765	703.456
260.293	26.858	878.620	702.804
261.307	27.187	877.700	703.276
262.322	26.839	878.068	702.162
263.336	27.049	876.545	701.694
264.351	26.589	875.783	699.246
265.366	25.320	874.344	693.139
266.380	25.014	872.972	690.810
267.395	26.392	872.200	695.444
268.409	26.881	872.442	697.454
269.424	26.494	872.840	696.222
270.439	26.951	871.488	696.839
271.453	26.923	871.307	696.525
272.468	26.836	871.088	695.954
273.482	27.303	869.518	696.427
274.497	27.269	869.923	696.559
275.512	27.176	869.203	695.564
276.526	26.484	868.009	691.900
277.541	27.138	866.151	692.855
278.555	27.196	867.447	694.050
279.570	27.034	866.283	692.442
280.585	26.676	865.735	690.574
281.599	26.916	864.491	690.437
282.614	27.091	864.227	690.831
283.628	26.482	864.112	688.360
284.643	26.285	862.659	686.394
285.657	26.320	862.613	686.431
286.672	26.415	862.043	686.274
287.687	26.026	861.120	684.007
288.701	26.584	860.706	685.732
289.716	27.023	860.123	686.865
290.730	26.760	859.253	685.117
291.745	26.354	859.016	683.331
292.760	26.062	858.462	681.728
293.774	25.938	858.518	681.244
294.789	26.920	858.469	684.855
295.803	27.406	858.401	686.571
296.818	27.556	858.156	686.880
297.833	27.309	857.496	685.362
298.847	27.301	856.128	684.175
299.862	27.456	854.371	683.293
300.876	26.967	855.536	682.329
301.891	27.215	855.124	682.872
302.906	27.485	853.996	682.921
303.920	27.605	851.470	681.290
304.935	27.146	852.612	680.424
305.949	27.570	852.360	681.752
306.964	27.491	851.731	680.890
307.979	27.365	850.446	679.332
308.993	26.963	850.858	678.101
310.008	27.776	850.349	680.669
311.022	27.483	850.667	679.772
312.037	27.589	848.982	678.758
313.052	27.243	848.651	677.146
314.066	27.500	847.093	676.797
315.081	26.837	845.490	672.999
316.095	25.752	845.062	668.571
317.110	26.255	846.023	671.140
318.125	27.475	844.931	674.738
319.139	26.761	844.457	671.657
320.154	25.806	842.313	666.359
321.168	25.190	841.847	663.653
322.183	25.939	841.267	665.905
323.197	26.764	842.392	669.789
324.212	26.666	842.903	669.771
325.227	27.379	841.424	671.169
326.241	27.410	841.651	671.403
327.256	27.270	840.988	670.298
328.270	26.946	840.475	668.637
329.285	27.101	839.343	668.248
330.300	26.958	839.039	667.423
331.314	26.599	837.846	665.094
332.329	26.826	836.620	664.895
333.343	26.832	837.445	665.515
334.358	27.646	836.151	667.407
335.373	27.276	837.126	666.770
336.387	27.415	835.885	666.232
337.402	27.562	835.595	666.481
338.416	27.828	835.335	667.185
339.431	27.737	834.688	666.276
340.446	27.688	835.200	666.449
341.460	27.700	834.838	666.145
342.475	28.125	832.922	666.106
343.489	28.227	832.549	666.118
344.504	27.747	831.805	663.719
345.519	28.198	830.848	664.534
346.533	28.203	831.117	664.708
347.548	27.988	831.442	664.129
348.562	28.052	830.452	663.512
349.577	28.157	828.990	662.665
350.592	28.441	828.219	663.019
351.606	28.286	828.076	662.284
352.621	28.435	827.347	662.182
353.635	28.297	827.480	661.732
354.650	27.964	826.769	659.901
355.665	27.583	826.806	658.495
356.679	26.467	825.148	653.089
357.694	26.483	824.182	652.326
358.708	27.238	824.458	655.209
359.723	27.355	823.342	654.683
360.738	27.475	822.701	654.549
361.752	27.526	823.419	655.246
362.767	27.641	823.016	655.280
363.781	28.032	822.909	656.543
364.796	28.512	821.940	657.432
365.810	28.683	822.109	658.120
366.825	28.419	822.129	657.131
367.840	28.608	821.698	657.407
368.854	28.265	820.951	655.524
369.869	27.769	820.410	653.257
370.883	28.077	818.887	653.089
371.898	28.139	818.837	653.213
372.913	27.867	818.609	652.001
373.927	27.904	817.458	651.159
374.942	28.049	816.561	650.904
375.956	28.105	816.544	651.029
376.971	28.342	815.589	651.053
377.986	28.509	815.114	651.210
379.000	28.376	815.844	651.264
380.015	28.449	814.645	650.506
381.029	28.845	813.831	651.205
382.044	28.433	813.216	649.193
383.059	28.223	813.406	648.546
384.073	28.405	812.462	648.377
385.088	28.657	811.519	648.458
386.102	28.485	811.137	647.487
387.117	28.601	810.055	646.976
388.132	28.205	809.918	645.414
389.146	28.271	808.561	644.508
390.161	27.878	808.156	642.746
391.175	27.570	808.682	642.021
392.190	28.002	808.632	643.447
393.205	28.242	807.274	643.153
394.219	27.381	805.454	638.627
395.234	25.451	803.638	630.368
396.248	25.166	801.981	628.015
397.263	26.086	803.029	632.003
398.278	27.933	803.907	639.106
399.292	28.222	804.873	640.828
400.307	28.008	804.089	639.399
401.321	27.768	802.864	637.530
402.336	27.723	803.304	637.666
403.350	27.741	803.374	637.729
404.365	28.716	802.779	640.602
405.380	28.852	802.433	640.744
406.394	29.147	802.316	641.621
407.409	29.230	802.097	641.679
408.423	29.087	801.718	640.821
409.438	28.597	802.312	639.531
410.453	29.047	800.676	639.737
411.467	29.180	800.315	639.853
412.482	28.815	800.240	638.469
413.496	29.251	798.474	638.513
414.511	29.234	798.574	638.480
415.526	29.129	798.077	637.662
416.540	29.216	798.532	638.271
417.555	29.247	798.022	637.912
418.569	28.917	796.991	635.893
419.584	29.048	796.042	635.530
420.599	29.536	794.709	636.091
421.613	158.990	1370.065	1791.833
422.628	137.784	1453.928	1791.949
