DTS Sentinel unit serial number:	SN413079Multiplexer serial number:	ORYXHardware model number:	OX4-SRSoftware version number:	ORYX F/W v4.00 Oryx Data Collector v3.7.2.0data status	okinstallation	princeton_trtdifferential loss correction	single-endedforward channel	channel 3reverse channel	N/Adate	2019/09/18time	15:16:35forward acquisition time	60.00reverse acquisition time	0.00gamma	496.2192k internal	0.2302k external	0.2302temperature offset calibration	0.9984default loss term (dB/km)	0.3790temperature slope calibration	1.0000multiplexer offset coefficient	1.0000multiplexer slope coefficient	1.0000fibre end	0.00T internal ref (°C)	35.59T ext. ref 1 (°C)	0.75T ext. ref 2 (°C)	32.63length (m)	temperature (°C)	Stokes	anti-Stokes-747.200	-36.832	0.277	-0.151
-746.185	-155.173	-0.290	-0.019
-745.171	-115.325	0.137	0.026
-744.156	670.564	-0.132	0.347
-743.142	800.000	0.054	-0.192
-742.127	-145.324	-0.048	0.004
-741.112	128.673	-0.077	0.099
-740.098	-95.580	-0.287	-0.078
-739.083	-73.860	-0.058	-0.022
-738.069	-153.548	-0.124	0.009
-737.054	236.718	0.186	-0.314
-736.039	10.225	-0.290	0.224
-735.025	498.510	-0.057	0.135
-734.010	-100.448	-0.192	-0.048
-732.996	85.524	-0.258	-0.289
-731.981	-147.878	-0.379	0.032
-730.966	-150.460	0.201	0.016
-729.952	800.000	-0.046	-0.194
-728.937	142.885	0.383	-0.519
-727.923	43.705	-0.299	-0.279
-726.908	115.064	-0.115	-0.143
-725.894	234.322	-0.155	0.261
-724.879	-135.756	0.033	0.004
-723.864	-164.357	-0.188	0.009
-722.850	-31.982	-0.126	0.072
-721.835	-141.442	0.065	0.007
-720.821	-200.000	0.015	-0.119
-719.806	167.035	-0.220	-0.319
-718.791	135.665	0.090	-0.119
-717.777	-42.949	-0.401	-0.207
-716.762	-200.000	-0.020	0.169
-715.748	-39.124	0.248	0.132
-714.733	-110.975	-0.186	-0.039
-713.718	77.164	0.076	-0.082
-712.704	184.726	-0.047	0.071
-711.689	-200.000	-0.041	0.470
-710.675	511.192	-0.001	0.002
-709.660	-200.000	0.001	-0.089
-708.645	101.868	0.123	0.146
-707.631	164.843	-0.304	-0.437
-706.616	800.000	0.019	-0.063
-705.602	-57.621	-0.285	0.127
-704.587	69.352	0.126	-0.132
-703.572	-5.531	-0.151	0.106
-702.558	-97.457	0.149	-0.039
-701.543	96.159	-0.205	-0.239
-700.529	-200.000	0.042	-0.650
-699.514	-28.864	-0.202	0.118
-698.499	127.087	-0.270	-0.348
-697.485	317.369	-0.034	-0.065
-696.470	-200.000	0.013	0.167
-695.456	-200.000	0.014	0.117
-694.441	59.878	-0.136	-0.137
-693.426	-26.654	-0.169	-0.100
-692.412	502.140	0.070	-0.165
-691.397	-200.000	0.021	-0.171
-690.383	-20.506	0.263	-0.164
-689.368	-200.000	0.037	-0.377
-688.354	-103.344	0.140	0.034
-687.339	800.000	-0.045	0.184
-686.324	224.258	0.122	0.201
-685.310	350.987	-0.056	0.113
-684.295	-200.000	-0.013	-0.224
-683.281	-200.000	-0.009	-0.043
-682.266	800.000	-0.044	-0.135
-681.251	-85.423	0.110	0.035
-680.237	59.739	-0.219	0.220
-679.222	-85.411	0.222	0.070
-678.208	103.738	0.125	0.149
-677.193	-46.248	-0.277	0.138
-676.178	107.444	-0.184	0.223
-675.164	-28.017	-0.177	0.104
-674.149	71.951	-0.117	-0.123
-673.135	39.707	-0.048	-0.044
-672.120	800.000	-0.068	0.216
-671.105	0.635	-0.241	-0.175
-670.091	-130.175	0.112	-0.015
-669.076	138.141	0.159	-0.212
-668.062	9.487	-0.218	0.168
-667.047	-149.171	-0.276	-0.022
-666.032	106.767	-0.138	-0.166
-665.018	6.697	0.205	-0.155
-664.003	27.697	-0.371	-0.317
-662.989	-127.154	0.090	0.013
-661.974	-200.000	0.003	0.089
-660.959	-108.563	-0.243	-0.053
-659.945	79.563	0.140	0.153
-658.930	183.897	0.264	-0.397
-657.916	599.339	0.101	-0.253
-656.901	-112.770	-0.118	0.024
-655.886	-167.424	0.201	-0.008
-654.872	-200.000	0.007	-0.266
-653.857	-91.835	-0.298	-0.086
-652.843	238.623	-0.157	0.265
-651.828	376.005	-0.095	-0.198
-650.814	-200.000	-0.043	-0.310
-649.799	-69.642	0.117	0.046
-648.784	-87.728	-0.134	-0.041
-647.770	-143.188	-0.100	0.010
-646.755	-46.728	-0.243	-0.121
-645.741	412.032	-0.082	-0.176
-644.726	800.000	0.078	-0.244
-643.711	60.116	-0.046	-0.047
-642.697	-39.501	0.029	0.015
-641.682	-78.730	0.529	0.183
-640.668	-57.484	-0.274	0.122
-639.653	-106.532	0.181	0.041
-638.638	-132.033	0.231	0.031
-637.624	-149.685	-0.215	0.017
-636.609	153.284	0.091	0.127
-635.595	-200.000	-0.008	-0.116
-634.580	520.754	-0.087	-0.208
-633.565	-57.818	-0.345	-0.153
-632.551	800.000	-0.100	-0.411
-631.536	-66.549	0.201	-0.081
-630.522	-200.000	0.042	0.244
-629.507	16.354	0.128	-0.103
-628.492	-126.372	0.159	0.024
-627.478	-20.087	0.204	0.128
-626.463	-185.969	0.209	-0.003
-625.449	161.617	-0.144	0.204
-624.434	-200.000	0.010	-0.268
-623.419	-169.175	0.075	0.003
-622.405	800.000	-0.065	-0.231
-621.390	53.514	0.224	-0.218
-620.376	166.488	0.137	-0.198
-619.361	-200.000	0.011	-0.096
-618.346	279.443	-0.141	-0.256
-617.332	-83.185	-0.256	-0.084
-616.317	118.536	-0.063	-0.079
-615.303	-83.325	0.083	0.027
-614.288	-89.232	-0.242	0.072
-613.273	-200.000	-0.008	0.164
-612.259	39.521	-0.109	0.099
-611.244	-176.532	0.279	-0.007
-610.230	800.000	-0.017	-0.053
-609.215	670.972	-0.169	0.443
-608.201	348.234	0.091	0.181
-607.186	-200.000	0.022	-0.207
-606.171	67.293	-0.281	-0.291
-605.157	76.108	-0.226	0.243
-604.142	328.491	0.110	-0.215
-603.128	-200.000	0.017	-0.249
-602.113	-60.615	0.119	0.051
-601.098	84.085	-0.158	-0.175
-600.084	252.325	0.011	0.019
-599.069	-124.556	-0.042	0.007
-598.055	800.000	0.082	0.285
-597.040	-48.289	-0.113	0.055
-596.025	800.000	-0.056	0.228
-595.011	-95.921	-0.212	-0.057
-593.996	-6.142	-0.077	-0.054
-592.982	800.000	0.086	-0.304
-591.967	481.752	0.073	0.169
-590.952	-75.173	-0.046	0.017
-589.938	-200.000	0.019	0.165
-588.923	-5.050	-0.382	-0.266
-587.909	-73.864	-0.144	-0.053
-586.894	-200.000	0.022	0.135
-585.879	800.000	0.056	-0.161
-584.865	-176.036	-0.204	0.005
-583.850	199.215	0.040	-0.063
-582.836	800.000	-0.055	0.173
-581.821	424.890	0.148	0.323
-580.806	-71.378	-0.230	-0.087
-579.792	529.255	-0.077	0.183
-578.777	-79.468	0.019	-0.006
-577.763	800.000	0.039	0.170
-576.748	204.384	0.108	0.169
-575.733	6.146	0.148	-0.111
-574.719	99.374	-0.142	0.166
-573.704	74.709	-0.135	-0.144
-572.690	-164.626	0.156	-0.007
-571.675	177.999	0.133	-0.196
-570.661	-200.000	-0.005	-0.048
-569.646	-24.808	-0.161	-0.097
-568.631	360.991	-0.043	-0.087
-567.617	112.359	-0.050	0.062
-566.602	-118.727	0.198	-0.035
-565.588	278.323	0.077	0.139
-564.573	333.798	-0.162	-0.317
-563.558	-33.047	-0.341	-0.191
-562.544	-92.541	-0.182	-0.052
-561.529	-141.089	0.283	0.029
-560.515	426.858	0.047	-0.103
-559.500	800.000	-0.045	-0.159
-558.485	60.735	-0.255	-0.256
-557.471	39.611	-0.095	-0.086
-556.456	-82.576	-0.183	-0.060
-555.442	-200.000	-0.015	-0.310
-554.427	14.620	0.235	0.185
-553.412	-200.000	0.038	-0.178
-552.398	-200.000	0.006	-0.052
-551.383	-200.000	-0.091	0.538
-550.369	575.024	0.092	0.226
-549.354	24.132	0.103	0.086
-548.339	800.000	0.112	-0.339
-547.325	-59.280	0.165	0.072
-546.310	-61.893	-0.279	-0.118
-545.296	-123.185	-0.360	-0.058
-544.281	-200.000	-0.004	0.063
-543.266	-75.794	-0.198	0.071
-542.252	-69.028	-0.171	-0.067
-541.237	-131.060	0.041	-0.006
-540.223	-200.000	0.079	0.473
-539.208	800.000	0.050	0.215
-538.193	-53.188	-0.024	-0.011
-537.179	-113.209	-0.286	-0.057
-536.164	800.000	0.043	0.164
-535.150	-150.882	-0.204	-0.016
-534.135	800.000	0.093	0.265
-533.121	-36.760	-0.133	-0.072
-532.106	-58.592	0.358	0.157
-531.091	-60.669	0.339	0.145
-530.077	-69.252	-0.258	-0.100
-529.062	737.773	-0.058	0.156
-528.048	-61.765	0.139	-0.059
-527.033	-12.010	0.211	-0.140
-526.018	-172.492	0.191	-0.006
-525.004	-2.928	-0.173	0.122
-523.989	-67.979	0.074	-0.029
-522.975	-200.000	-0.062	0.342
-521.960	156.262	0.071	-0.098
-520.945	-139.286	0.153	0.017
-519.931	-24.525	0.214	0.129
-518.916	174.465	-0.135	0.198
-517.902	26.246	0.345	0.291
-516.887	51.322	-0.246	0.236
-515.872	-103.592	-0.239	0.057
-514.858	-174.726	0.072	0.002
-513.843	800.000	-0.108	-0.399
-512.829	348.743	-0.127	-0.253
-511.814	182.976	-0.114	-0.170
-510.799	-200.000	0.004	-0.172
-509.785	800.000	0.087	0.377
-508.770	-200.000	-0.021	0.123
-507.756	163.818	-0.120	0.171
-506.741	85.784	-0.022	0.024
-505.726	-30.481	0.239	0.137
-504.712	-200.000	0.008	-0.108
-503.697	-200.000	-0.018	-0.083
-502.683	800.000	0.039	-0.135
-501.668	-135.916	-0.431	-0.051
-500.653	-200.000	0.005	-0.045
-499.639	-139.188	0.186	-0.020
-498.624	40.307	-0.011	-0.010
-497.610	-200.000	-0.066	-0.294
-496.595	800.000	0.099	0.288
-495.581	143.593	0.163	0.219
-494.566	-200.000	-0.016	-0.229
-493.551	542.145	-0.026	0.061
-492.537	48.190	-0.111	0.105
-491.522	-51.414	-0.304	-0.144
-490.508	78.104	0.097	-0.104
-489.493	-200.000	-0.014	0.298
-488.478	-200.000	0.047	-0.333
-487.464	214.337	0.080	0.127
-486.449	-200.000	0.054	0.275
-485.435	-54.900	0.424	-0.193
-484.420	40.305	-0.027	-0.024
-483.405	-68.821	-0.309	0.120
-482.391	-114.003	-0.169	-0.033
-481.376	-140.908	0.073	-0.008
-480.362	81.425	0.113	-0.123
-479.347	-80.065	-0.014	-0.005
-478.332	-57.969	-0.159	0.070
-477.318	288.502	-0.135	-0.247
-476.303	229.678	0.215	-0.353
-475.289	38.630	-0.161	-0.145
-474.274	24.855	-0.312	-0.261
-473.259	-88.396	0.041	-0.012
-472.245	-200.000	0.163	-0.001
-471.230	-88.065	-0.168	0.051
-470.216	-200.000	-0.005	-0.204
-469.201	-23.525	0.226	-0.137
-468.186	-102.949	0.153	-0.037
-467.172	-118.069	0.441	-0.079
-466.157	4.817	0.102	0.075
-465.143	302.678	-0.087	0.162
-464.128	-200.000	0.229	-0.000
-463.113	-140.372	0.512	0.054
-462.099	-200.000	-0.091	0.508
-461.084	390.780	0.139	0.291
-460.070	-200.000	0.014	-0.323
-459.055	-131.654	0.100	-0.013
-458.040	64.451	0.264	0.268
-457.026	-91.460	0.302	-0.087
-456.011	800.000	-0.081	-0.332
-454.997	800.000	-0.031	0.095
-453.982	-200.000	-0.021	-0.141
-452.968	-85.651	0.674	0.211
-451.953	-87.933	-0.080	-0.024
-450.938	465.751	0.017	0.039
-449.924	26.517	-0.166	0.140
-448.909	-45.734	0.065	-0.033
-447.895	-11.146	0.102	0.068
-446.880	19.766	0.161	-0.131
-445.865	-200.000	-0.009	0.122
-444.851	570.097	0.122	0.298
-443.836	-57.200	-0.231	0.102
-442.822	281.529	-0.009	0.017
-441.807	-56.732	0.179	-0.080
-440.792	-62.225	0.268	-0.113
-439.778	800.000	0.032	0.115
-438.763	-22.396	-0.142	0.086
-437.749	682.328	0.141	-0.369
-436.734	80.217	0.285	-0.309
-435.719	212.531	-0.026	0.041
-434.705	762.348	-0.167	0.455
-433.690	800.000	0.107	-0.357
-432.676	-7.836	0.131	0.089
-431.661	-99.591	-0.152	-0.038
-430.646	199.706	-0.029	-0.044
-429.632	-82.548	-0.314	-0.103
-428.617	-110.943	0.078	0.016
-427.603	598.805	-0.073	-0.181
-426.588	-200.000	-0.010	0.049
-425.573	-11.211	0.089	0.059
-424.559	261.766	0.104	-0.182
-423.544	45.456	-0.035	-0.032
-422.530	800.000	0.058	0.164
-421.515	-77.227	-0.204	0.071
-420.500	447.144	-0.043	-0.095
-419.486	49.898	0.216	-0.205
-418.471	180.832	-0.132	0.196
-417.457	400.395	0.023	0.049
-416.442	224.084	-0.065	-0.106
-415.428	174.412	0.080	-0.116
-414.413	688.205	-0.141	-0.372
-413.398	-200.000	0.030	0.178
-412.384	680.644	0.014	0.037
-411.369	499.964	0.217	0.504
-410.355	-200.000	-0.068	0.314
-409.340	416.322	-0.116	-0.248
-408.325	-136.527	0.240	-0.028
-407.311	101.480	0.142	-0.167
-406.296	-200.000	0.003	-0.044
-405.282	-173.739	0.268	-0.008
-404.267	-200.000	-0.039	-0.274
-403.252	-200.000	-0.006	-0.178
-402.238	-46.942	-0.196	-0.096
-401.223	96.848	0.089	-0.103
-400.209	800.000	0.103	-0.288
-399.194	800.000	0.009	0.028
-398.179	-47.895	-0.097	0.047
-397.165	-149.752	-0.309	-0.024
-396.150	-66.549	-0.422	-0.168
-395.136	-38.413	0.096	0.051
-394.121	180.953	-0.228	-0.337
-393.106	-200.000	-0.019	-0.285
-392.092	121.808	-0.212	0.266
-391.077	-186.632	0.241	-0.003
-390.063	44.766	-0.231	0.214
-389.048	800.000	-0.068	-0.194
-388.033	13.405	0.308	-0.240
-387.019	-200.000	0.059	-0.399
-386.004	292.640	0.218	-0.400
-384.990	800.000	-0.108	0.385
-383.975	800.000	0.041	0.150
-382.960	-5.532	0.231	0.159
-381.946	224.168	-0.146	0.236
-380.931	281.463	-0.161	-0.290
-379.917	664.107	0.030	-0.077
-378.902	-131.709	0.118	-0.016
-377.888	-4.298	-0.328	0.228
-376.873	140.362	-0.094	0.124
-375.858	-89.922	-0.135	-0.040
-374.844	-200.000	0.071	0.370
-373.829	96.945	0.355	0.408
-372.815	-122.903	0.156	0.025
-371.800	800.000	-0.026	0.112
-370.785	129.137	-0.078	0.100
-369.771	800.000	-0.046	0.153
-368.756	132.629	-0.063	0.082
-367.742	318.554	0.076	0.145
-366.727	88.976	0.167	-0.187
-365.712	215.358	-0.257	-0.410
-364.698	800.000	0.068	-0.239
-363.683	-200.000	-0.001	-0.178
-362.669	-200.000	0.008	-0.138
-361.654	202.112	-0.048	0.075
-360.639	19.518	0.135	0.109
-359.625	-122.617	0.212	0.034
-358.610	97.451	-0.056	0.064
-357.596	-71.266	0.130	-0.049
-356.581	373.563	-0.154	-0.315
-355.566	20.961	-0.161	0.131
-354.552	-200.000	0.005	0.132
-353.537	33.646	-0.078	0.068
-352.523	-177.619	-0.200	0.005
-351.508	-148.979	-0.162	-0.013
-350.493	203.945	0.160	0.249
-349.479	800.000	-0.033	0.126
-348.464	110.861	0.011	-0.013
-347.450	-200.000	-0.031	0.285
-346.435	390.080	-0.106	0.220
-345.420	-86.883	0.457	0.140
-344.406	-92.790	0.467	0.131
-343.391	-200.000	0.058	-0.329
-342.377	-11.985	0.072	-0.047
-341.362	92.741	0.098	0.112
-340.348	280.811	0.098	0.176
-339.333	97.346	0.202	0.232
-338.318	-33.076	-0.116	0.065
-337.304	-200.000	-0.001	0.388
-336.289	167.374	-0.050	0.071
-335.275	-200.000	-0.014	0.119
-334.260	800.000	0.067	0.289
-333.245	-160.021	-0.142	-0.008
-332.231	-200.000	-0.024	0.110
-331.216	-64.202	-0.185	-0.075
-330.202	110.818	0.061	-0.074
-329.187	90.045	-0.216	-0.242
-328.172	-126.850	-0.188	-0.028
-327.158	800.000	0.036	-0.120
-326.143	-200.000	0.001	0.199
-325.129	-18.256	-0.144	0.090
-324.114	13.347	0.212	-0.165
-323.099	-11.936	0.291	0.191
-322.085	-45.899	0.192	0.095
-321.070	-47.166	-0.107	0.052
-320.056	-200.000	0.011	0.068
-319.041	-12.935	0.071	-0.047
-318.026	-192.172	0.203	-0.002
-317.012	79.833	-0.219	-0.236
-315.997	-200.000	-0.008	-0.088
-314.983	94.918	0.214	0.245
-313.968	-200.000	-0.087	0.444
-312.953	-48.375	0.274	0.132
-311.939	-200.000	-0.009	-0.152
-310.924	-4.405	-0.224	-0.155
-309.910	-151.687	-0.153	0.011
-308.895	39.768	-0.193	-0.173
-307.880	43.516	-0.281	-0.257
-306.866	-137.743	0.383	0.043
-305.851	-200.000	0.015	0.210
-304.837	-15.908	-0.107	-0.068
-303.822	136.012	-0.073	-0.096
-302.807	342.587	0.192	-0.376
-301.793	-16.004	-0.165	0.105
-300.778	-179.525	0.170	-0.004
-299.764	308.771	0.102	0.191
-298.749	151.592	-0.160	-0.218
-297.735	-47.152	0.064	-0.031
-296.720	64.097	0.194	0.195
-295.705	136.766	0.335	0.438
-294.691	242.607	0.062	-0.105
-293.676	268.233	0.141	0.247
-292.662	-200.000	0.008	-0.055
-291.647	-15.706	-0.215	0.137
-290.632	-200.000	-0.003	0.054
-289.618	-109.912	0.066	0.014
-288.603	15.890	-0.159	0.125
-287.589	-130.835	0.360	0.048
-286.574	-200.000	-0.014	-0.612
-285.559	-111.832	0.103	-0.021
-284.545	-18.282	0.081	-0.051
-283.530	29.825	0.013	0.011
-282.516	-87.551	0.312	-0.094
-281.501	-64.442	-0.320	0.130
-280.486	-23.143	0.246	0.148
-279.472	-67.298	-0.214	-0.084
-278.457	215.984	0.105	0.168
-277.443	800.000	0.058	0.195
-276.428	-14.245	-0.310	0.200
-275.413	-29.946	0.142	0.081
-274.399	195.042	0.247	0.375
-273.384	-180.911	-0.317	-0.006
-272.370	-80.655	-0.316	-0.105
-271.355	-55.292	0.341	-0.153
-270.340	295.029	-0.050	0.092
-269.326	77.740	0.202	0.216
-268.311	67.275	-0.139	-0.142
-267.297	1.712	0.240	-0.173
-266.282	82.984	-0.216	-0.235
-265.267	-173.491	-0.408	0.012
-264.253	278.196	0.022	-0.039
-263.238	-200.000	0.006	-0.321
-262.224	681.096	-0.046	0.119
-261.209	20.741	-0.210	0.170
-260.195	-110.865	-0.498	0.102
-259.180	5.877	0.065	0.048
-258.165	-15.192	0.285	0.183
-257.151	-200.000	-0.042	-0.187
-256.136	198.705	-0.068	-0.105
-255.122	-49.139	0.241	-0.115
-254.107	534.565	0.097	0.229
-253.092	-72.673	-0.053	-0.019
-252.078	80.152	-0.136	-0.146
-251.063	-9.216	-0.125	0.084
-250.049	-17.924	0.063	0.039
-249.034	761.292	-0.097	-0.262
-248.019	490.996	0.106	-0.243
-247.005	19.595	0.089	0.072
-245.990	50.697	0.036	-0.034
-244.976	-9.300	-0.276	0.184
-243.961	-200.000	-0.024	-0.149
-242.946	-1.208	0.133	-0.094
-241.932	792.966	0.019	0.052
-240.917	-167.605	0.161	-0.006
-239.903	-200.000	0.020	0.353
-238.888	499.426	-0.107	-0.246
-237.873	3.301	0.112	0.082
-236.859	7.405	0.150	-0.112
-235.844	-139.919	-0.169	0.018
-234.830	124.504	0.205	-0.257
-233.815	358.134	0.078	-0.155
-232.800	-200.000	-0.009	0.117
-231.786	4.193	-0.169	0.123
-230.771	-83.077	-0.078	-0.025
-229.757	-200.000	-0.037	0.192
-228.742	-22.155	-0.041	0.025
-227.727	-93.021	0.349	0.097
-226.713	78.489	0.026	0.027
-225.698	-28.734	-0.134	0.077
-224.684	302.109	0.140	0.259
-223.669	-17.978	-0.248	0.155
-222.655	800.000	0.077	-0.253
-221.640	171.857	-0.150	-0.215
-220.625	72.742	-0.089	0.092
-219.611	800.000	-0.048	0.141
-218.596	-0.428	-0.065	-0.046
-217.582	800.000	-0.024	-0.072
-216.567	-29.607	0.167	-0.095
-215.552	-122.479	0.077	-0.012
-214.538	256.261	-0.130	0.222
-213.523	-200.000	-0.052	0.294
-212.509	143.622	-0.280	0.372
-211.494	-157.989	-0.230	0.013
-210.479	-64.197	-0.134	0.054
-209.465	222.073	-0.035	-0.056
-208.450	-200.000	0.245	-0.001
-207.436	70.546	0.038	-0.039
-206.421	381.516	-0.068	0.139
-205.406	-37.184	-0.176	-0.094
-204.392	280.230	0.114	0.204
-203.377	800.000	-0.107	-0.382
-202.363	3.793	0.192	-0.140
-201.348	-200.000	-0.014	0.127
-200.333	-12.746	0.365	0.237
-199.319	-200.000	-0.059	-0.338
-198.304	-54.066	0.162	0.074
-197.290	12.947	0.194	-0.150
-196.275	-129.552	-0.076	0.011
-195.260	-200.000	0.031	0.225
-194.246	67.208	0.135	0.137
-193.231	-1.859	0.090	-0.063
-192.217	-200.000	0.018	0.240
-191.202	339.247	-0.210	-0.409
-190.187	-107.230	0.268	0.059
-189.173	-200.000	-0.008	0.261
-188.158	-200.000	-0.027	-0.273
-187.144	63.190	0.180	-0.180
-186.129	-51.331	-0.283	-0.132
-185.114	220.689	-0.122	0.195
-184.100	30.221	0.151	0.129
-183.085	-148.402	0.249	0.020
-182.071	24.668	0.051	0.042
-181.056	-93.264	0.118	-0.033
-180.042	-53.104	-0.167	-0.077
-179.027	-155.572	-0.303	-0.019
-178.012	50.218	0.204	-0.192
-176.998	58.580	0.110	-0.108
-175.983	277.906	-0.040	-0.071
-174.969	203.908	-0.105	-0.162
-173.954	-13.624	-0.203	-0.131
-172.939	81.502	0.077	-0.083
-171.925	-92.848	0.038	-0.011
-170.910	154.006	0.090	0.123
-169.896	227.515	-0.099	-0.161
-168.881	-170.508	-0.167	-0.006
-167.866	-28.270	-0.038	0.022
-166.852	146.526	-0.160	-0.215
-165.837	-86.996	-0.228	-0.069
-164.823	171.140	-0.070	0.100
-163.808	10.309	-0.166	-0.126
-162.793	316.282	0.050	-0.094
-161.779	63.659	-0.179	-0.179
-160.764	-28.171	-0.202	-0.116
-159.750	6.161	-0.090	0.066
-158.735	800.000	0.059	0.220
-157.720	-200.000	-0.014	-0.100
-156.706	-200.000	0.044	-0.364
-155.691	2.164	-0.062	0.045
-154.677	-200.000	-0.012	0.216
-153.662	-59.447	-0.285	0.122
-152.647	-189.754	-0.286	0.003
-151.633	197.334	-0.130	0.198
-150.618	800.000	-0.075	0.284
-149.604	10.795	0.110	0.083
-148.589	-168.607	0.227	0.009
-147.574	729.354	0.055	-0.147
-146.560	-53.654	0.092	-0.042
-145.545	94.595	-0.313	-0.354
-144.531	-127.613	0.173	-0.025
-143.516	-200.000	-0.013	-0.362
-142.502	-200.000	0.081	0.379
-141.487	498.162	0.099	0.228
-140.472	-200.000	-0.181	0.001
-139.458	58.112	-0.345	0.337
-138.443	800.000	-0.121	0.387
-137.429	489.521	0.072	0.164
-136.414	800.000	-0.041	0.138
-135.399	13.009	0.236	-0.182
-134.385	167.359	0.152	0.215
-133.370	800.000	-0.070	0.214
-132.356	66.286	-0.082	0.083
-131.341	99.649	0.192	-0.221
-130.326	-200.000	-0.006	0.164
-129.312	-29.649	-0.190	-0.108
-128.297	-200.000	-0.008	0.098
-127.283	-42.671	0.100	0.051
-126.268	314.917	-0.070	-0.131
-125.253	-31.904	-0.378	-0.211
-124.239	-200.000	-0.015	-0.240
-123.224	800.000	-0.086	0.313
-122.210	-70.087	0.421	0.159
-121.195	800.000	-0.051	-0.173
-120.180	186.892	-0.098	-0.145
-119.166	800.000	0.037	-0.155
-118.151	-200.000	-0.028	0.166
-117.137	-176.998	0.225	0.006
-116.122	11.570	0.134	-0.102
-115.107	-95.068	0.426	0.115
-114.093	273.595	-0.155	-0.272
-113.078	-114.208	0.029	0.006
-112.064	800.000	0.101	-0.330
-111.049	-24.276	-0.384	0.228
-110.034	-165.082	-0.154	0.007
-109.020	-146.299	-0.295	-0.026
-108.005	-17.279	-0.308	-0.193
-106.991	-77.951	0.337	0.115
-105.976	-6.497	0.089	-0.060
-104.962	-92.072	0.173	0.049
-103.947	47.713	-0.150	-0.139
-102.932	800.000	-0.142	-0.455
-101.918	-200.000	0.055	0.469
-100.903	56.181	0.390	0.376
-99.889	239.406	0.102	-0.170
-98.874	-28.703	-0.225	-0.129
-97.859	-0.375	0.290	0.205
-96.845	434.555	-0.105	0.226
-95.830	-78.528	-0.238	-0.081
-94.816	-91.958	-0.092	0.026
-93.801	800.000	0.113	-0.384
-92.786	-56.739	0.311	-0.137
-91.772	-200.000	-0.005	0.178
-90.757	-60.111	-0.033	-0.014
-89.743	3.486	0.146	0.106
-88.728	-90.000	0.232	0.067
-87.713	511.015	-0.068	-0.157
-86.699	785.073	-0.069	0.189
-85.684	-200.000	-0.064	-0.331
-84.670	-117.223	-0.235	-0.043
-83.655	-138.070	0.127	-0.014
-82.640	-155.759	-0.096	0.006
-81.626	-200.000	-0.023	0.472
-80.611	-129.432	0.429	0.059
-79.597	-107.826	-0.238	0.051
-78.582	-121.360	-0.094	0.016
-77.567	-75.730	-0.205	0.072
-76.553	-96.642	0.270	-0.071
-75.538	-109.257	0.497	-0.105
-74.524	-90.280	-0.261	-0.075
-73.509	800.000	0.040	0.160
-72.494	-120.935	-0.078	-0.013
-71.480	155.775	-0.101	0.139
-70.465	-142.293	0.186	-0.018
-69.451	336.587	0.129	0.249
-68.436	-179.696	0.130	0.003
-67.422	-200.000	0.034	-0.195
-66.407	-10.730	0.322	0.212
-65.392	176.443	-0.215	0.310
-64.378	-31.765	0.069	0.038
-63.363	360.703	0.034	-0.068
-62.349	23.792	0.085	-0.069
-61.334	118.069	-0.704	-0.861
-60.319	107.772	0.253	0.299
-59.305	-200.000	-0.130	-0.871
-58.290	129.540	0.574	0.727
-57.276	335.557	0.789	1.518
-56.261	-200.000	92.562	545.746
-55.246	491.786	1418.139	3222.363
-54.232	144.530	2631.401	3486.562
-53.217	110.941	2246.106	2682.275
-52.203	45.792	1768.763	1622.245
-51.188	38.575	1575.724	1394.009
-50.173	36.128	1547.938	1352.233
-49.159	53.740	1596.008	1520.048
-48.144	56.951	1615.700	1561.630
-47.130	39.114	1571.743	1394.094
-46.115	35.814	1556.405	1357.202
-45.100	35.562	1553.280	1352.645
-44.086	35.585	1551.393	1351.112
-43.071	35.641	1548.714	1349.115
-42.057	35.687	1547.255	1348.114
-41.042	35.520	1546.301	1346.057
-40.027	35.579	1544.918	1345.215
-39.013	35.678	1542.883	1344.083
-37.998	35.562	1542.108	1342.544
-36.984	35.575	1540.926	1341.555
-35.969	35.517	1539.182	1339.578
-34.954	35.567	1537.480	1338.391
-33.940	35.523	1536.375	1337.069
-32.925	35.540	1535.165	1336.082
-31.911	35.535	1534.084	1335.055
-30.896	35.676	1531.797	1333.990
-29.881	35.637	1530.896	1332.878
-28.867	35.603	1529.733	1331.577
-27.852	35.668	1528.105	1330.560
-26.838	35.652	1526.621	1329.101
-25.823	35.620	1525.218	1327.607
-24.809	35.674	1522.757	1325.784
-23.794	35.635	1521.814	1324.642
-22.779	35.675	1520.288	1323.534
-21.765	35.676	1519.250	1322.591
-20.750	35.711	1518.119	1321.794
-19.736	35.630	1517.533	1320.672
-18.721	35.684	1516.430	1320.033
-17.706	35.582	1515.091	1318.113
-16.692	35.697	1513.820	1317.743
-15.677	35.448	1513.409	1315.626
-14.663	35.591	1512.087	1315.402
-13.648	35.546	1510.730	1313.862
-12.633	35.635	1509.817	1313.627
-11.619	35.572	1509.056	1312.483
-10.604	35.493	1508.192	1311.139
-9.590	35.610	1507.268	1311.084
-8.575	35.587	1506.201	1309.942
-7.560	35.548	1506.028	1309.479
-6.546	35.475	1504.819	1307.878
-5.531	35.606	1503.545	1307.611
-4.517	35.448	1503.017	1306.019
-3.502	35.473	1501.864	1305.139
-2.487	35.504	1500.891	1304.450
-1.473	35.551	1499.838	1303.806
-0.458	35.571	1498.072	1302.353
0.556	34.721	1489.223	1292.981
1.571	32.399	1461.922	1253.712
2.586	28.546	1397.268	1173.566
3.600	25.874	1310.081	1084.186
4.615	23.437	1261.859	1030.046
5.629	19.740	1202.884	961.301
6.644	10.396	1112.887	841.010
7.659	2.398	1068.046	767.084
8.673	0.941	1062.454	755.727
9.688	0.709	1059.678	752.531
10.702	0.715	1058.233	751.469
11.717	0.616	1056.055	749.364
12.731	3.413	1059.141	765.393
13.746	11.999	1070.807	816.707
14.761	17.787	1077.694	850.835
15.775	17.865	1076.530	850.232
16.790	17.019	1075.152	844.856
17.804	16.100	1072.330	837.999
18.819	15.185	1070.940	832.297
19.834	14.701	1069.430	828.647
20.848	14.404	1067.939	825.948
21.863	14.020	1067.700	823.785
22.877	13.833	1066.719	822.031
23.892	13.614	1066.543	820.738
24.907	13.509	1065.384	819.253
25.921	13.539	1064.504	818.652
26.936	13.559	1063.880	818.197
27.950	13.762	1062.796	818.293
28.965	13.633	1062.250	817.166
29.980	13.655	1061.146	816.355
30.994	13.669	1060.361	815.744
32.009	13.824	1059.086	815.452
33.023	13.782	1058.722	814.896
34.038	13.807	1057.921	814.331
35.053	13.746	1057.023	813.268
36.067	13.645	1056.270	812.120
37.082	13.661	1054.989	811.145
38.096	13.701	1054.490	810.882
39.111	13.720	1054.040	810.558
40.126	13.802	1052.713	809.866
41.140	13.730	1051.549	808.548
42.155	13.624	1050.820	807.399
43.169	13.580	1050.166	806.612
44.184	13.535	1048.799	805.273
45.199	13.506	1047.783	804.276
46.213	13.648	1046.427	803.855
47.228	13.670	1045.642	803.288
48.242	13.678	1044.468	802.354
49.257	13.639	1043.515	801.363
50.271	13.681	1042.652	800.831
51.286	13.576	1041.887	799.665
52.301	13.611	1041.035	799.110
53.315	13.620	1040.231	798.468
54.330	13.615	1039.118	797.514
55.344	13.621	1038.351	796.884
56.359	13.542	1037.513	795.795
57.374	13.690	1036.121	795.367
58.388	13.550	1035.875	794.435
59.403	13.582	1034.804	793.697
60.417	13.574	1034.256	793.169
61.432	13.521	1032.955	791.848
62.447	13.502	1032.570	791.391
63.461	13.498	1031.480	790.468
64.476	13.492	1030.308	789.467
65.490	13.531	1029.585	789.030
66.505	13.495	1028.916	788.275
67.520	13.446	1028.349	787.540
68.534	13.417	1027.527	786.701
69.549	13.539	1026.933	786.756
70.563	13.651	1025.955	786.473
71.578	13.656	1025.211	785.854
72.593	13.540	1024.606	784.772
73.607	13.525	1023.247	783.591
74.622	13.333	1022.917	782.359
75.636	13.504	1021.247	781.822
76.651	13.416	1020.347	780.647
77.666	13.515	1019.645	780.507
78.680	13.482	1019.393	780.090
79.695	13.356	1019.062	779.176
80.709	13.488	1018.191	779.060
81.724	13.483	1017.007	778.064
82.739	13.524	1016.390	777.715
83.753	13.498	1015.833	777.099
84.768	13.491	1015.069	776.411
85.782	13.624	1013.916	776.083
86.797	13.829	1012.953	776.237
87.812	13.652	1012.611	775.077
88.826	13.466	1012.075	773.732
89.841	13.364	1011.184	772.506
90.855	13.732	1009.730	773.042
91.870	13.590	1009.253	771.946
92.884	13.663	1008.656	771.759
93.899	13.678	1007.949	771.223
94.914	13.692	1006.935	770.444
95.928	13.662	1006.569	769.954
96.943	13.712	1006.036	769.710
97.957	13.739	1004.942	768.933
98.972	13.715	1003.781	767.862
99.987	13.779	1003.075	767.550
101.001	13.702	1002.587	766.752
102.016	13.780	1001.632	766.318
103.030	13.614	1000.882	764.909
104.045	13.748	999.712	764.565
105.060	13.678	998.987	763.621
106.074	13.609	998.416	762.798
107.089	13.565	997.126	761.541
108.103	13.767	996.253	761.738
109.118	13.514	995.250	759.742
110.133	13.507	994.665	759.197
111.147	13.553	994.186	758.974
112.162	13.544	992.996	757.957
113.176	13.408	992.029	756.531
114.191	13.728	990.570	756.809
115.206	13.666	990.259	756.224
116.220	13.560	989.497	755.091
117.235	13.562	988.526	754.291
118.249	13.691	987.680	754.169
119.264	13.604	987.047	753.222
120.279	13.467	986.425	752.059
121.293	13.575	985.100	751.473
122.308	13.668	984.262	751.189
123.322	13.584	983.637	750.262
124.337	13.542	982.528	749.159
125.352	13.515	981.214	747.970
126.366	13.545	980.143	747.223
127.381	13.581	979.302	746.677
128.395	13.594	978.120	745.769
129.410	13.668	977.248	745.371
130.424	13.717	976.299	744.802
131.439	13.628	975.707	743.885
132.454	13.589	974.815	742.965
133.468	13.743	973.547	742.621
134.483	13.769	973.194	742.404
135.497	13.751	972.628	741.828
136.512	13.667	971.682	740.661
137.527	13.759	970.682	740.244
138.541	13.709	969.977	739.421
139.556	13.655	969.408	738.678
140.570	13.729	968.596	738.327
141.585	13.784	967.804	737.902
142.600	13.717	967.443	737.260
143.614	13.761	966.673	736.804
144.629	13.767	965.732	736.049
145.643	13.870	964.728	735.677
146.658	13.893	963.913	735.090
147.673	13.805	963.087	734.009
148.687	13.735	962.246	732.992
149.702	13.788	960.934	732.162
150.716	13.732	960.283	731.356
151.731	13.708	959.280	730.422
152.746	13.708	958.730	729.935
153.760	13.645	958.509	729.424
154.775	13.616	957.620	728.558
155.789	13.788	956.687	728.541
156.804	13.854	955.984	728.226
157.819	13.842	955.153	727.477
158.833	13.779	954.486	726.631
159.848	14.003	953.724	726.968
160.862	13.931	952.996	726.030
161.877	13.912	952.246	725.312
162.892	13.874	951.513	724.525
163.906	13.825	950.310	723.331
164.921	13.734	950.074	722.689
165.935	13.815	948.734	721.958
166.950	13.846	947.965	721.448
167.964	13.924	947.101	721.064
168.979	13.899	945.800	719.901
169.994	13.786	944.961	718.709
171.008	13.933	944.297	718.776
172.023	13.965	943.352	718.133
173.037	14.022	942.568	717.718
174.052	14.084	941.790	717.330
175.067	14.101	940.671	716.487
176.081	13.890	940.520	715.401
177.096	13.897	939.627	714.685
178.110	13.995	938.693	714.336
179.125	14.061	937.937	713.978
180.140	13.853	937.230	712.486
181.154	13.921	936.621	712.252
182.169	13.968	935.857	711.809
183.183	14.004	935.263	711.450
184.198	14.124	934.302	711.168
185.213	14.050	933.881	710.466
186.227	14.048	933.502	710.107
187.242	14.223	932.728	710.202
188.256	14.090	931.854	708.910
189.271	14.150	931.129	708.548
190.286	14.209	930.070	707.932
191.300	14.128	929.637	707.194
192.315	14.068	928.637	706.114
193.329	13.913	928.138	705.016
194.344	13.926	927.738	704.706
195.359	13.964	927.235	704.424
196.373	14.014	926.646	704.126
197.388	14.034	926.061	703.702
198.402	14.210	925.238	703.758
199.417	14.209	925.114	703.597
200.432	14.438	924.233	703.834
201.446	14.222	923.763	702.501
202.461	14.387	923.573	702.990
203.475	14.411	922.884	702.506
204.490	14.488	922.143	702.204
205.504	14.294	921.618	700.924
206.519	14.284	920.733	700.148
207.534	14.292	920.089	699.629
208.548	14.407	919.269	699.427
209.563	14.314	918.385	698.301
210.577	14.517	917.281	698.250
211.592	14.351	917.086	697.347
212.607	14.387	916.553	697.028
213.621	14.564	915.748	697.095
214.636	14.560	915.150	696.561
215.650	14.505	914.316	695.637
216.665	14.569	913.885	695.512
217.680	14.533	913.483	694.996
218.694	14.654	912.877	694.979
219.709	14.604	912.257	694.234
220.723	14.615	911.638	693.748
221.738	14.639	910.789	693.143
222.753	14.507	910.150	692.045
223.767	14.655	909.138	691.831
224.782	14.662	908.470	691.289
225.796	14.676	907.791	690.767
226.811	14.671	907.344	690.346
227.826	14.665	906.746	689.805
228.840	14.598	905.973	688.881
229.855	14.584	905.311	688.257
230.869	14.738	904.370	688.115
231.884	14.609	904.026	687.263
232.899	14.508	904.024	686.782
233.913	14.628	903.087	686.504
234.928	14.634	901.954	685.607
235.942	14.708	901.019	685.141
236.957	14.612	900.670	684.422
237.972	14.676	899.710	683.891
238.986	14.686	899.438	683.667
240.001	14.710	898.519	683.007
241.015	14.713	897.723	682.352
242.030	14.702	897.095	681.770
243.045	14.848	896.440	681.806
244.059	14.708	896.172	680.970
245.074	14.872	895.279	680.901
246.088	14.791	894.778	680.131
247.103	14.839	894.245	679.862
248.117	14.929	893.442	679.556
249.132	14.902	892.994	679.043
250.147	15.112	892.297	679.305
251.161	15.020	891.764	678.469
252.176	15.089	890.748	677.913
253.190	15.062	890.347	677.439
254.205	15.131	889.871	677.296
255.220	15.020	889.367	676.405
256.234	15.242	888.086	676.267
257.249	15.145	887.892	675.668
258.263	15.145	887.495	675.305
259.278	15.167	886.877	674.865
260.293	15.288	886.237	674.806
261.307	15.288	885.543	674.217
262.322	15.289	885.231	673.922
263.336	15.334	884.394	673.408
264.351	15.325	883.577	672.690
265.366	15.342	883.305	672.489
266.380	15.333	882.493	671.774
267.395	15.339	882.013	671.376
268.409	15.285	881.095	670.401
269.424	15.462	880.080	670.276
270.439	15.352	879.795	669.560
271.453	15.457	878.674	669.070
272.468	15.381	878.010	668.201
273.482	15.297	877.666	667.543
274.497	15.327	876.966	667.073
275.512	15.474	876.200	667.015
276.526	15.504	875.436	666.492
277.541	15.575	874.612	666.088
278.555	15.620	873.949	665.703
279.570	15.551	873.791	665.249
280.585	15.465	873.128	664.345
281.599	15.586	872.593	664.361
282.614	15.644	871.842	663.958
283.628	15.698	871.237	663.653
284.643	15.580	870.766	662.767
285.657	15.641	870.269	662.571
286.672	15.640	870.191	662.449
287.687	15.567	869.480	661.564
288.701	15.536	869.087	661.085
289.716	15.602	868.410	660.769
290.730	15.579	867.698	660.079
291.745	15.674	866.901	659.786
292.760	15.752	865.962	659.321
293.774	15.669	865.914	658.898
294.789	15.651	865.152	658.189
295.803	15.909	864.067	658.317
296.818	15.769	863.679	657.414
297.833	15.792	863.031	656.952
298.847	15.925	862.052	656.667
299.862	15.802	861.935	656.042
300.876	15.869	861.403	655.840
301.891	15.901	860.290	655.058
302.906	15.873	859.759	654.487
303.920	15.926	859.103	654.139
304.935	15.941	858.358	653.571
305.949	16.064	857.914	653.652
306.964	16.012	857.468	653.050
307.979	15.964	856.751	652.263
308.993	15.913	856.283	651.652
310.008	15.987	855.973	651.644
311.022	16.034	855.214	651.189
312.037	16.056	854.741	650.857
313.052	16.104	854.232	650.596
314.066	15.943	853.818	649.601
315.081	16.035	852.806	649.130
316.095	16.038	852.190	648.614
317.110	16.110	851.536	648.337
318.125	16.163	851.135	648.179
319.139	16.080	850.669	647.448
320.154	16.158	850.602	647.639
321.168	16.020	849.718	646.377
322.183	16.134	848.875	646.115
323.197	16.176	848.853	646.204
324.212	16.162	848.029	645.466
325.227	16.266	847.443	645.359
326.241	16.200	846.547	644.369
327.256	16.119	846.364	643.861
328.270	16.230	845.773	643.781
329.285	16.209	844.989	643.048
330.300	16.174	844.672	642.616
331.314	16.137	844.251	642.095
332.329	16.109	843.339	641.240
333.343	16.218	842.713	641.122
334.358	16.360	842.149	641.176
335.373	16.407	841.589	640.868
336.387	16.350	841.149	640.263
337.402	16.381	840.285	639.663
338.416	16.243	840.002	638.869
339.431	16.292	839.711	638.779
340.446	16.373	838.815	638.345
341.460	16.503	837.867	638.060
342.475	16.509	837.520	637.761
343.489	16.500	837.074	637.331
344.504	16.508	836.641	636.976
345.519	16.808	835.887	637.474
346.533	16.595	835.700	636.473
347.548	16.661	835.019	636.148
348.562	16.664	834.065	635.375
349.577	16.615	833.767	634.909
350.592	16.519	833.408	634.218
351.606	16.633	832.913	634.213
352.621	16.517	832.660	633.529
353.635	16.528	832.227	633.185
354.650	16.494	831.899	632.753
355.665	16.620	830.924	632.426
356.679	16.648	830.625	632.245
357.694	16.709	830.141	632.050
358.708	16.706	829.619	631.585
359.723	16.757	829.086	631.315
360.738	16.691	828.374	630.470
361.752	16.703	828.243	630.360
362.767	16.621	827.852	629.701
363.781	16.883	827.234	630.147
364.796	16.790	826.724	629.358
365.810	16.799	826.178	628.921
366.825	16.783	825.904	628.596
367.840	16.821	825.653	628.491
368.854	16.953	824.772	628.255
369.869	16.933	824.450	627.881
370.883	16.917	823.965	627.395
371.898	16.964	823.271	626.984
372.913	16.976	822.888	626.684
373.927	16.978	821.940	625.913
374.942	16.815	821.809	625.157
375.956	17.030	820.782	625.112
376.971	17.059	820.312	624.803
377.986	17.093	819.762	624.454
379.000	17.194	818.979	624.175
380.015	17.265	818.570	624.069
381.029	17.077	818.382	623.182
382.044	17.048	817.715	622.512
383.059	17.212	817.410	622.825
384.073	17.042	816.895	621.755
385.088	17.148	816.348	621.672
386.102	17.112	815.730	621.012
387.117	17.186	814.954	620.639
388.132	17.125	814.747	620.203
389.146	17.145	814.226	619.825
390.161	17.233	813.819	619.779
391.175	17.351	813.143	619.641
392.190	17.336	812.920	619.360
393.205	17.264	812.369	618.624
394.219	17.325	811.849	618.395
395.234	17.496	811.115	618.403
396.248	17.173	810.773	616.916
397.263	17.229	810.380	616.764
398.278	17.155	810.300	616.379
399.292	17.144	809.956	616.025
400.307	17.258	809.130	615.755
401.321	17.371	808.906	615.940
402.336	17.227	808.516	615.065
403.350	17.161	808.250	614.569
404.365	17.301	807.746	614.641
405.380	17.352	807.374	614.487
406.394	17.412	806.921	614.305
407.409	17.406	806.356	613.798
408.423	17.572	805.376	613.594
409.438	17.670	805.075	613.667
410.453	17.527	804.930	612.985
411.467	17.470	804.399	612.321
412.482	17.550	804.044	612.286
413.496	17.604	803.220	611.797
414.511	17.744	803.119	612.167
415.526	17.658	802.435	611.283
416.540	17.800	801.791	611.250
417.555	17.661	801.985	610.843
418.569	17.663	801.313	610.285
419.584	17.707	800.910	610.082
420.599	17.776	800.214	609.743
421.613	103.205	1281.936	1438.513
422.628	88.623	1352.122	1438.619
