DTS Sentinel unit serial number:	SN413079Multiplexer serial number:	ORYXHardware model number:	OX4-SRSoftware version number:	ORYX F/W v4.00 Oryx Data Collector v3.7.2.0data status	okinstallation	princeton_trtdifferential loss correction	single-endedforward channel	channel 3reverse channel	N/Adate	2019/09/14time	19:20:35forward acquisition time	60.00reverse acquisition time	0.00gamma	496.2192k internal	0.2310k external	0.2310temperature offset calibration	1.0013default loss term (dB/km)	0.3790temperature slope calibration	1.0000multiplexer offset coefficient	1.0000multiplexer slope coefficient	1.0000fibre end	0.00T internal ref (°C)	35.02T ext. ref 1 (°C)	4.89T ext. ref 2 (°C)	29.08length (m)	temperature (°C)	Stokes	anti-Stokes-747.200	-82.138	-0.457	0.151
-746.185	39.477	0.037	0.033
-745.171	57.022	-0.152	0.150
-744.156	-7.977	-0.286	0.196
-743.142	141.086	-0.106	-0.142
-742.127	-26.710	-0.258	-0.153
-741.112	-88.246	0.318	0.097
-740.098	-7.607	0.266	0.182
-739.083	349.986	0.096	-0.193
-738.069	526.390	0.056	-0.135
-737.054	800.000	-0.031	-0.134
-736.039	47.874	-0.160	-0.151
-735.025	-82.899	0.306	0.100
-734.010	-31.151	-0.160	0.092
-732.996	-113.832	0.284	0.056
-731.981	258.401	-0.147	0.258
-730.966	45.260	0.129	-0.121
-729.952	44.304	0.193	0.180
-728.937	51.088	-0.273	-0.263
-727.923	159.055	-0.209	-0.294
-726.908	34.050	0.114	0.101
-725.894	-200.000	0.018	-0.088
-724.879	-109.069	0.096	-0.021
-723.864	79.867	-0.167	-0.182
-722.850	-109.257	-0.373	0.080
-721.835	-71.715	0.193	0.073
-720.821	-130.907	-0.081	0.011
-719.806	-200.000	-0.073	0.361
-718.791	202.062	-0.118	-0.184
-717.777	-39.282	-0.169	0.090
-716.762	-33.124	-0.233	-0.131
-715.748	-98.171	-0.053	-0.014
-714.733	321.181	0.179	0.345
-713.718	235.222	0.266	-0.445
-712.704	701.722	0.049	0.131
-711.689	176.997	0.260	-0.384
-710.675	-23.247	0.148	-0.090
-709.660	-155.178	0.170	0.011
-708.645	106.918	0.136	0.164
-707.631	-200.000	0.029	-0.198
-706.616	463.524	0.182	-0.412
-705.602	249.877	-0.019	0.033
-704.587	134.226	-0.099	-0.130
-703.572	-78.285	-0.159	-0.055
-702.558	-75.398	0.515	0.186
-701.543	248.247	0.058	-0.099
-700.529	-1.061	0.353	-0.253
-699.514	686.846	0.050	-0.131
-698.499	102.196	0.195	-0.230
-697.485	256.380	0.127	-0.222
-696.470	-47.495	0.220	-0.108
-695.456	-200.000	-0.019	-0.142
-694.441	-59.581	-0.193	-0.084
-693.426	47.895	-0.133	0.126
-692.412	79.949	0.038	0.042
-691.397	215.521	0.041	0.067
-690.383	800.000	-0.033	-0.135
-689.368	-35.023	-0.087	-0.048
-688.354	-43.102	-0.179	-0.092
-687.339	-38.284	-0.417	-0.224
-686.324	-200.000	0.020	0.136
-685.310	-15.999	-0.138	0.089
-684.295	800.000	-0.047	0.147
-683.281	196.321	0.269	-0.414
-682.266	-150.863	-0.425	-0.033
-681.251	-200.000	0.027	-0.391
-680.237	237.186	-0.128	-0.215
-679.222	-141.783	0.186	0.019
-678.208	155.303	-0.116	-0.161
-677.193	205.836	-0.194	-0.305
-676.178	-82.523	-0.213	0.070
-675.164	-200.000	0.005	0.319
-674.149	-73.083	0.094	-0.035
-673.135	177.781	-0.114	-0.168
-672.120	374.152	0.077	0.158
-671.105	-200.000	-0.098	0.000
-670.091	800.000	0.048	-0.152
-669.076	314.311	-0.072	0.138
-668.062	-200.000	-0.021	-0.229
-667.047	88.769	0.041	-0.046
-666.032	-153.893	-0.312	0.022
-665.018	16.659	-0.361	0.289
-664.003	140.625	0.064	-0.085
-662.989	95.595	-0.164	0.190
-661.974	-200.000	0.014	-0.342
-660.959	283.937	-0.160	-0.290
-659.945	94.245	0.073	-0.084
-658.930	-31.631	0.289	-0.164
-657.916	226.067	-0.240	0.394
-656.901	8.953	-0.088	0.067
-655.886	-57.443	-0.385	0.171
-654.872	155.753	-0.040	-0.055
-653.857	-200.000	-0.021	-0.128
-652.843	-200.000	0.020	0.149
-651.828	633.320	0.175	-0.449
-650.814	-18.540	0.142	-0.090
-649.799	-0.731	-0.105	-0.076
-648.784	-144.417	0.273	0.026
-647.770	-200.000	-0.004	0.340
-646.755	-70.855	0.158	0.060
-645.741	800.000	0.086	-0.273
-644.726	195.866	0.093	0.144
-643.711	-15.035	-0.163	0.106
-642.697	-65.562	-0.207	0.084
-641.682	580.813	-0.081	0.201
-640.668	-200.000	-0.033	0.154
-639.653	80.744	0.160	-0.174
-638.638	-200.000	0.004	0.033
-637.624	74.306	-0.083	-0.089
-636.609	-140.573	-0.354	0.037
-635.595	-41.409	-0.154	-0.080
-634.580	-200.000	0.003	0.112
-633.565	-77.022	-0.090	0.032
-632.551	117.447	-0.115	-0.143
-631.536	-200.000	0.071	-0.338
-630.522	-200.000	0.035	0.317
-629.507	-139.284	-0.213	0.023
-628.492	800.000	-0.039	0.157
-627.478	-35.005	0.067	0.037
-626.463	74.353	0.050	-0.053
-625.449	-90.806	0.165	0.048
-624.434	-59.960	0.133	-0.057
-623.419	-59.299	-0.308	0.134
-622.405	-200.000	-0.005	-0.037
-621.390	130.016	-0.149	-0.192
-620.376	-58.237	0.266	-0.117
-619.361	-41.805	-0.172	-0.089
-618.346	772.391	-0.065	-0.179
-617.332	257.570	0.165	0.286
-616.317	-92.294	-0.139	0.039
-615.303	22.196	0.164	0.135
-614.288	-26.897	-0.214	-0.126
-613.273	87.995	0.051	-0.057
-612.259	29.923	-0.124	-0.106
-611.244	-121.375	0.133	0.022
-610.230	-47.460	-0.255	-0.125
-609.215	-117.230	-0.249	0.046
-608.201	56.959	0.048	-0.048
-607.186	-89.959	0.563	0.166
-606.171	-121.615	-0.378	-0.063
-605.157	-100.637	0.047	0.012
-604.142	21.383	-0.161	0.132
-603.128	190.042	-0.091	-0.138
-602.113	586.522	-0.118	-0.294
-601.098	800.000	-0.085	-0.286
-600.084	364.693	0.210	0.428
-599.069	-127.719	0.149	0.022
-598.055	65.742	-0.213	0.218
-597.040	-4.203	0.163	0.114
-596.025	-110.871	-0.239	-0.050
-595.011	-200.000	-0.024	0.130
-593.996	105.783	0.154	0.184
-592.982	290.963	0.106	-0.195
-591.967	-1.840	0.005	0.004
-590.952	-90.024	-0.219	0.064
-589.938	578.872	-0.190	0.470
-588.923	145.357	0.052	0.070
-587.909	-70.699	0.058	0.022
-586.894	62.706	0.021	-0.021
-585.879	452.749	-0.012	0.027
-584.865	282.322	-0.126	-0.228
-583.850	98.752	0.201	-0.234
-582.836	-200.000	0.046	0.250
-581.821	-117.999	0.309	-0.056
-580.806	-127.335	0.267	0.039
-579.792	535.891	-0.065	-0.155
-578.777	305.051	-0.175	0.329
-577.763	-120.639	-0.319	0.054
-576.748	68.539	-0.176	-0.182
-575.733	800.000	0.157	-0.607
-574.719	181.575	0.242	-0.360
-573.704	-200.000	-0.139	0.001
-572.690	-29.455	-0.271	0.156
-571.675	166.073	0.130	-0.186
-570.661	38.191	0.076	-0.069
-569.646	-172.642	-0.454	0.014
-568.631	800.000	0.033	0.129
-567.617	81.798	-0.110	-0.120
-566.602	62.437	-0.166	-0.167
-565.588	-31.699	0.244	-0.138
-564.573	51.746	0.218	0.209
-563.558	-137.227	-0.308	0.035
-562.544	-165.634	-0.409	-0.018
-561.529	38.473	0.216	0.194
-560.515	-120.557	-0.136	0.023
-559.500	-200.000	0.038	0.242
-558.485	-76.725	0.181	-0.064
-557.471	-75.557	0.335	-0.120
-556.456	371.042	-0.085	-0.173
-555.442	-90.184	-0.176	-0.052
-554.427	800.000	-0.013	-0.036
-553.412	-130.560	0.345	-0.047
-552.398	-168.261	0.086	-0.003
-551.383	-62.861	0.120	-0.050
-550.369	-114.373	-0.268	-0.052
-549.354	388.701	0.077	0.160
-548.339	5.180	-0.160	-0.119
-547.325	-200.000	-0.015	-0.269
-546.310	90.438	0.110	-0.124
-545.296	39.428	0.172	0.156
-544.281	800.000	0.049	-0.139
-543.266	-200.000	-0.022	0.279
-542.252	800.000	0.102	-0.286
-541.237	-32.757	0.155	0.087
-540.223	-200.000	-0.005	0.137
-539.208	247.167	0.139	0.236
-538.193	681.116	0.051	-0.133
-537.179	800.000	-0.091	-0.264
-536.164	-39.332	-0.041	-0.021
-535.150	-160.941	-0.132	-0.007
-534.135	-200.000	0.001	0.069
-533.121	27.744	-0.022	0.019
-532.106	800.000	-0.039	-0.157
-531.091	-112.714	0.180	-0.036
-530.077	-200.000	0.012	-0.196
-529.062	74.068	-0.118	0.125
-528.048	269.764	-0.095	-0.168
-527.033	-200.000	-0.017	0.152
-526.018	101.275	0.109	-0.128
-525.004	-200.000	0.020	-0.104
-523.989	800.000	-0.040	0.138
-522.975	65.805	0.152	0.155
-521.960	800.000	0.031	-0.119
-520.945	193.470	0.188	-0.286
-519.931	-16.619	0.062	-0.040
-518.916	800.000	0.072	0.237
-517.902	-57.800	0.338	-0.149
-516.887	-200.000	-0.001	0.141
-515.872	-36.580	0.238	0.129
-514.858	313.232	-0.056	-0.106
-513.843	354.794	-0.069	-0.138
-512.829	-55.539	-0.214	0.097
-511.814	-148.338	0.118	-0.010
-510.799	18.287	-0.244	-0.196
-509.785	76.065	0.157	-0.167
-508.770	-141.573	0.213	0.022
-507.756	-87.334	0.222	0.068
-506.741	129.718	0.084	-0.109
-505.726	-107.415	0.090	-0.020
-504.712	-200.000	0.014	-0.151
-503.697	-81.665	0.114	0.038
-502.683	-106.352	0.203	-0.046
-501.668	-200.000	-0.002	-0.387
-500.653	358.727	-0.035	0.070
-499.639	-59.441	-0.101	-0.044
-498.624	660.919	-0.041	-0.106
-497.610	9.928	0.175	-0.134
-496.595	-119.060	-0.450	0.079
-495.581	-69.717	-0.290	-0.112
-494.566	230.832	0.136	-0.223
-493.551	-200.000	0.032	0.312
-492.537	-113.711	-0.117	-0.023
-491.522	-54.841	-0.230	-0.104
-490.508	78.522	0.211	0.227
-489.493	-128.353	0.106	0.015
-488.478	-140.194	-0.059	0.006
-487.464	137.606	0.312	0.411
-486.449	-200.000	-0.015	0.155
-485.435	-144.554	-0.036	-0.003
-484.420	296.712	-0.090	-0.166
-483.405	180.419	-0.054	0.079
-482.391	800.000	-0.068	-0.191
-481.376	800.000	-0.136	-0.405
-480.362	-53.277	0.084	-0.039
-479.347	124.254	-0.015	-0.019
-478.332	135.398	-0.134	0.176
-477.318	19.927	0.090	-0.073
-476.303	-39.519	0.177	0.093
-475.289	-58.938	-0.391	0.170
-474.274	-144.123	-0.229	-0.022
-473.259	-182.749	-0.177	-0.003
-472.245	35.361	-0.340	0.300
-471.230	117.246	-0.145	0.178
-470.216	-27.779	0.184	-0.107
-469.201	255.023	0.137	0.236
-468.186	787.532	-0.063	-0.174
-467.172	-168.907	0.474	0.018
-466.157	-61.096	-0.273	0.116
-465.143	-152.362	-0.282	-0.020
-464.128	-121.767	0.183	0.030
-463.113	33.686	-0.169	-0.147
-462.099	800.000	0.053	-0.173
-461.084	-30.850	-0.057	-0.032
-460.070	24.986	-0.222	0.185
-459.055	-200.000	-0.033	-0.557
-458.040	-174.401	-0.308	-0.009
-457.026	193.215	-0.200	0.303
-456.011	-59.655	-0.320	0.138
-454.997	161.034	-0.057	-0.080
-453.982	260.482	-0.089	-0.154
-452.968	282.027	-0.073	0.132
-451.953	800.000	0.099	-0.396
-450.938	-200.000	-0.058	0.271
-449.924	-26.005	0.268	0.158
-448.909	533.853	0.137	0.326
-447.895	271.692	-0.085	-0.150
-446.880	-142.679	0.128	0.013
-445.865	-148.607	0.241	-0.020
-444.851	11.711	-0.096	0.074
-443.836	128.709	-0.231	0.296
-442.822	-200.000	-0.028	-0.214
-441.807	143.544	0.162	0.216
-440.792	89.884	-0.335	0.376
-439.778	-49.545	0.115	0.055
-438.763	410.713	-0.093	-0.198
-437.749	518.897	-0.076	0.178
-436.734	-200.000	-0.001	-0.077
-435.719	-94.060	-0.075	0.021
-434.705	-43.529	-0.309	-0.156
-433.690	-51.815	-0.236	-0.110
-432.676	800.000	-0.040	0.145
-431.661	800.000	0.011	0.034
-430.646	404.736	-0.099	0.210
-429.632	800.000	-0.046	0.201
-428.617	-126.189	-0.244	-0.037
-427.603	-84.167	0.400	0.127
-426.588	-200.000	0.003	-0.076
-425.573	-75.851	-0.366	-0.130
-424.559	35.429	-0.155	-0.136
-423.544	-200.000	0.014	-0.229
-422.530	41.282	-0.263	0.238
-421.515	477.610	0.087	0.198
-420.500	-59.271	-0.241	0.104
-419.486	36.664	-0.223	0.197
-418.471	-86.290	0.265	-0.082
-417.457	63.340	-0.087	0.088
-416.442	-100.079	-0.331	-0.083
-415.428	-12.896	0.155	-0.101
-414.413	614.142	0.046	-0.115
-413.398	115.866	0.286	0.351
-412.384	-126.332	-0.154	-0.023
-411.369	611.286	0.141	0.354
-410.355	684.901	-0.126	-0.329
-409.340	800.000	-0.097	-0.402
-408.325	-54.906	-0.355	-0.160
-407.311	6.077	-0.138	-0.102
-406.296	-97.290	0.494	0.129
-405.282	-137.732	0.362	-0.041
-404.267	122.470	0.056	0.070
-403.252	-52.963	0.269	0.124
-402.238	-28.580	-0.210	0.121
-401.223	83.822	-0.107	-0.117
-400.209	-77.241	-0.208	0.072
-399.194	-28.715	0.165	0.095
-398.179	-38.194	-0.097	-0.051
-397.165	-200.000	0.039	0.237
-396.150	-200.000	-0.069	-0.387
-395.136	165.151	-0.089	-0.126
-394.121	41.326	-0.065	-0.059
-393.106	-200.000	0.058	-0.397
-392.092	55.563	0.112	-0.108
-391.077	-156.278	0.172	-0.011
-390.063	-200.000	-0.012	0.195
-389.048	800.000	0.043	-0.158
-388.033	800.000	0.118	0.348
-387.019	233.469	0.025	0.042
-386.004	800.000	0.103	0.298
-384.990	-100.110	0.219	-0.055
-383.975	-9.299	0.157	-0.105
-382.960	-53.691	0.124	0.057
-381.946	-200.000	-0.022	0.115
-380.931	111.900	0.082	0.099
-379.917	-67.864	-0.258	-0.101
-378.902	275.007	0.130	0.231
-377.888	49.403	0.181	0.170
-376.873	518.720	-0.101	-0.237
-375.858	7.246	0.140	-0.104
-374.844	93.656	0.029	0.033
-373.829	361.500	0.068	-0.137
-372.815	74.940	0.107	0.112
-371.800	4.676	0.204	0.150
-370.785	331.288	-0.060	0.117
-369.771	-116.583	-0.201	-0.037
-368.756	-121.886	0.166	-0.027
-367.742	50.229	-0.068	0.065
-366.727	-86.942	-0.333	-0.102
-365.712	-200.000	-0.001	0.036
-364.698	-200.000	-0.002	0.017
-363.683	79.333	0.084	0.090
-362.669	-200.000	-0.016	0.175
-361.654	-200.000	-0.014	0.178
-360.639	674.370	0.142	-0.368
-359.625	-31.291	0.119	0.067
-358.610	800.000	0.027	0.107
-357.596	65.020	-0.227	0.229
-356.581	175.438	0.271	0.393
-355.566	-200.000	0.070	0.313
-354.552	789.799	0.075	-0.207
-353.537	-165.538	0.282	-0.012
-352.523	17.096	0.122	0.097
-351.508	563.461	-0.173	0.418
-350.493	33.888	-0.078	0.068
-349.479	162.131	0.048	-0.067
-348.464	-200.000	-0.032	-0.156
-347.450	-127.272	-0.142	-0.021
-346.435	232.558	-0.131	0.216
-345.420	-113.153	0.022	-0.004
-344.406	52.975	0.239	0.229
-343.391	323.755	-0.101	0.192
-342.377	54.810	0.206	0.199
-341.362	252.707	0.067	-0.114
-340.348	800.000	0.031	-0.124
-339.333	-101.947	-0.160	0.038
-338.318	52.683	0.340	-0.324
-337.304	-78.872	0.274	-0.093
-336.289	323.189	-0.106	-0.202
-335.275	-200.000	0.004	0.212
-334.260	256.121	0.151	-0.260
-333.245	800.000	0.116	-0.335
-332.231	287.778	0.132	0.239
-331.216	258.149	-0.098	0.169
-330.202	17.477	0.110	0.087
-329.187	-180.293	-0.066	0.001
-328.172	196.087	0.167	-0.253
-327.158	238.821	0.086	0.143
-326.143	406.192	0.037	0.077
-325.129	800.000	0.040	-0.127
-324.114	41.588	0.344	-0.311
-323.099	-200.000	-0.031	-0.176
-322.085	-70.783	-0.190	0.072
-321.070	191.528	0.082	0.124
-320.056	-200.000	-0.008	0.428
-319.041	-200.000	0.040	0.329
-318.026	-118.454	-0.356	-0.063
-317.012	-132.743	0.619	-0.079
-315.997	-72.158	0.273	-0.101
-314.983	-49.486	0.260	0.124
-313.968	-27.878	-0.102	0.059
-312.953	-200.000	-0.030	0.134
-311.939	547.983	0.092	-0.220
-310.924	47.584	-0.213	-0.199
-309.910	145.397	-0.175	-0.234
-308.895	-31.203	0.110	0.062
-307.880	-200.000	0.086	0.434
-306.866	-36.123	0.298	-0.161
-305.851	-200.000	0.006	-0.080
-304.837	-98.311	-0.414	0.106
-303.822	152.681	0.099	-0.135
-302.807	800.000	-0.096	-0.334
-301.793	11.166	-0.056	0.043
-300.778	-162.397	0.314	-0.016
-299.764	487.913	-0.083	0.190
-298.749	128.843	-0.090	-0.114
-297.735	-86.623	-0.098	-0.030
-296.720	171.038	-0.094	0.135
-295.705	-181.210	-0.240	0.005
-294.691	-43.224	0.116	-0.059
-293.676	-52.126	0.052	-0.024
-292.662	-200.000	0.014	0.131
-291.647	-125.258	-0.214	0.033
-290.632	31.276	0.127	-0.109
-289.618	-24.194	-0.183	-0.109
-288.603	410.666	-0.049	0.104
-287.589	800.000	-0.052	-0.192
-286.574	-124.219	0.248	-0.039
-285.559	35.429	-0.307	-0.268
-284.545	36.163	-0.282	-0.248
-283.530	-119.086	-0.092	0.016
-282.516	800.000	0.050	0.171
-281.501	800.000	0.083	0.234
-280.486	-200.000	-0.051	-0.389
-279.472	425.849	-0.096	-0.207
-278.457	-62.689	-0.034	0.014
-277.443	800.000	-0.109	0.350
-276.428	-122.085	0.243	0.040
-275.413	502.599	0.044	-0.101
-274.399	173.350	-0.124	0.178
-273.384	-200.000	-0.035	-0.182
-272.370	800.000	0.045	0.132
-271.355	362.778	0.074	-0.149
-270.340	67.333	-0.342	-0.348
-269.326	535.292	-0.003	-0.008
-268.311	-200.000	0.016	0.275
-267.297	393.097	-0.122	0.252
-266.282	-97.329	-0.014	0.004
-265.267	593.557	-0.013	0.032
-264.253	-106.922	0.421	0.093
-263.238	-18.950	-0.130	0.081
-262.224	-200.000	-0.027	0.211
-261.209	73.346	-0.196	-0.204
-260.195	-200.000	0.026	-0.123
-259.180	-80.461	-0.089	-0.030
-258.165	213.285	-0.086	0.135
-257.151	187.062	-0.116	-0.173
-256.136	-193.295	-0.227	0.002
-255.122	660.901	-0.028	-0.072
-254.107	-136.537	0.108	-0.012
-253.092	-139.352	0.126	-0.014
-252.078	-24.352	0.319	0.189
-251.063	-200.000	0.043	-0.433
-250.049	504.597	0.042	0.096
-249.034	-200.000	0.001	0.031
-248.019	373.707	-0.041	-0.084
-247.005	-84.832	-0.135	-0.042
-245.990	-64.172	0.209	-0.085
-244.976	-4.056	-0.150	0.103
-243.961	51.725	-0.115	-0.109
-242.946	-200.000	0.026	0.143
-241.932	37.127	-0.180	-0.159
-240.917	-116.550	-0.177	-0.033
-239.903	-200.000	0.036	0.331
-238.888	-107.062	0.460	0.101
-237.873	195.399	-0.066	-0.100
-236.859	203.433	0.091	-0.140
-235.844	442.551	0.104	-0.226
-234.830	41.268	0.178	0.160
-233.815	114.166	-0.208	-0.252
-232.800	299.103	0.200	-0.367
-231.786	-131.224	0.214	-0.028
-230.771	-30.196	-0.059	-0.033
-229.757	-200.000	0.086	-0.393
-228.742	282.381	0.155	0.277
-227.727	31.544	-0.135	0.115
-226.713	800.000	0.048	-0.148
-225.698	-5.805	0.132	-0.090
-224.684	-117.723	-0.151	-0.027
-223.669	-5.124	0.242	-0.165
-222.655	-40.221	0.103	0.053
-221.640	201.625	0.121	0.186
-220.625	21.256	-0.272	-0.220
-219.611	-200.000	0.005	0.263
-218.596	-104.334	-0.164	-0.038
-217.582	-83.255	0.162	-0.052
-216.567	-80.393	-0.164	0.054
-215.552	-3.194	-0.120	0.083
-214.538	-150.544	0.109	-0.008
-213.523	800.000	0.038	0.158
-212.509	800.000	-0.045	0.142
-211.494	-200.000	0.001	-0.011
-210.479	-200.000	-0.003	0.227
-209.465	-200.000	0.017	0.170
-208.450	37.639	0.077	0.068
-207.436	1.054	-0.258	-0.184
-206.421	9.906	0.035	0.026
-205.406	224.975	-0.305	-0.490
-204.392	91.507	0.199	0.222
-203.377	56.719	-0.117	0.113
-202.363	219.979	-0.040	0.063
-201.348	-200.000	-0.027	0.148
-200.333	-200.000	-0.023	-0.383
-199.319	21.415	0.081	-0.065
-198.304	-200.000	-0.000	-0.253
-197.290	5.246	0.189	0.139
-196.275	-200.000	-0.022	0.122
-195.260	194.210	-0.070	0.106
-194.246	-101.795	-0.158	0.038
-193.231	244.974	-0.143	-0.239
-192.217	446.257	-0.020	-0.043
-191.202	-200.000	0.078	0.435
-190.187	-200.000	0.041	-0.218
-189.173	-200.000	0.007	-0.112
-188.158	99.842	0.325	-0.375
-187.144	-35.872	-0.196	-0.105
-186.129	-134.585	0.107	-0.013
-185.114	-107.788	0.366	-0.079
-184.100	-126.055	0.146	0.022
-183.085	-13.726	-0.282	-0.181
-182.071	50.383	0.093	0.087
-181.056	6.283	0.168	0.124
-180.042	214.734	0.036	0.056
-179.027	800.000	-0.037	0.132
-178.012	-200.000	0.060	0.478
-176.998	-32.442	0.065	-0.036
-175.983	-119.479	0.196	0.034
-174.969	730.673	-0.017	-0.046
-173.954	70.773	-0.075	0.077
-172.939	-181.094	-0.160	0.003
-171.925	-49.564	0.139	-0.066
-170.910	800.000	0.161	-0.447
-169.896	78.541	-0.171	-0.181
-168.881	-34.086	0.146	0.080
-167.866	-105.954	-0.101	-0.023
-166.852	44.921	0.162	0.148
-165.837	20.220	0.055	-0.044
-164.823	-17.768	0.137	0.085
-163.808	-127.396	-0.243	0.035
-162.793	-23.632	-0.070	0.042
-161.779	-179.315	-0.101	0.002
-160.764	32.158	0.205	0.176
-159.750	21.422	-0.209	-0.168
-158.735	53.546	0.152	0.144
-157.720	-112.826	0.069	0.014
-156.706	-200.000	-0.027	-0.206
-155.691	146.089	-0.053	-0.071
-154.677	27.597	0.389	0.325
-153.662	-46.508	-0.230	-0.112
-152.647	-87.803	-0.219	0.066
-151.633	111.251	0.216	0.258
-150.618	69.676	-0.118	0.120
-149.604	-200.000	0.038	-0.323
-148.589	800.000	-0.117	0.351
-147.574	3.041	0.090	0.065
-146.560	-92.268	0.375	0.105
-145.545	-9.249	-0.316	-0.209
-144.531	-20.050	0.125	0.076
-143.516	-113.474	0.135	-0.026
-142.502	-67.750	-0.229	0.089
-141.487	-187.337	0.411	-0.005
-140.472	213.138	0.181	-0.283
-139.458	188.487	0.076	-0.113
-138.443	186.208	-0.138	0.204
-137.429	419.665	-0.085	0.180
-136.414	-91.626	0.214	0.060
-135.399	-125.713	0.313	-0.047
-134.385	-15.204	-0.152	-0.096
-133.370	-165.818	0.278	-0.012
-132.356	-83.370	0.088	-0.028
-131.341	12.669	0.491	0.376
-130.326	-200.000	0.051	-0.235
-129.312	27.064	-0.337	0.280
-128.297	-61.485	-0.287	-0.119
-127.283	57.999	0.106	-0.103
-126.268	-62.484	-0.306	-0.126
-125.253	150.865	-0.202	-0.272
-124.239	-62.840	0.438	0.180
-123.224	-148.706	0.162	0.013
-122.210	-79.515	-0.253	0.085
-121.195	800.000	-0.095	0.287
-120.180	-200.000	0.011	0.230
-119.166	198.613	-0.253	0.384
-118.151	57.466	0.171	0.165
-117.137	-81.004	0.060	0.020
-116.122	536.326	-0.060	-0.141
-115.107	476.003	0.106	0.238
-114.093	800.000	-0.015	0.061
-113.078	480.018	-0.103	0.232
-112.064	-200.000	-0.286	0.001
-111.049	-200.000	-0.034	-0.221
-110.034	118.694	0.086	0.106
-109.020	302.496	0.083	0.152
-108.005	328.776	0.049	-0.093
-106.991	800.000	0.045	-0.160
-105.976	-104.023	0.170	-0.039
-104.962	-200.000	-0.171	0.000
-103.947	-188.411	-0.450	-0.006
-102.932	-200.000	0.013	0.404
-101.918	-141.450	0.457	0.046
-100.903	-156.467	-0.334	-0.021
-99.889	-112.877	0.223	0.044
-98.874	3.323	0.146	0.105
-97.859	13.087	-0.099	-0.076
-96.845	91.893	-0.115	-0.128
-95.830	-130.008	0.197	0.027
-94.816	-53.041	0.239	0.109
-93.801	-136.954	0.289	-0.033
-92.786	800.000	-0.113	0.311
-91.772	145.187	-0.126	0.167
-90.757	6.334	-0.028	0.021
-89.743	-151.690	-0.130	-0.009
-88.728	-40.671	-0.051	0.026
-87.713	-107.495	-0.230	-0.050
-86.699	-120.291	-0.158	-0.027
-85.684	-3.767	-0.035	-0.024
-84.670	-131.088	0.080	0.011
-83.655	-156.904	0.157	0.010
-82.640	800.000	-0.089	0.332
-81.626	-43.960	0.191	0.095
-80.611	-60.313	0.172	-0.073
-79.597	-95.115	-0.139	0.037
-78.582	221.484	0.172	0.273
-77.567	-83.045	0.105	0.034
-76.553	72.854	0.184	-0.190
-75.538	800.000	-0.152	-0.448
-74.524	-200.000	-0.023	0.350
-73.509	154.939	0.288	0.391
-72.494	-69.850	0.329	-0.124
-71.480	17.424	-0.030	-0.023
-70.465	-82.636	0.093	0.030
-69.451	381.011	0.065	-0.133
-68.436	68.714	-0.201	-0.204
-67.422	-200.000	0.010	-0.110
-66.407	800.000	0.044	0.129
-65.392	164.481	-0.165	-0.229
-64.378	530.091	-0.022	-0.052
-63.363	-100.468	-0.255	-0.062
-62.349	-152.282	-0.197	0.014
-61.334	74.944	-0.859	-0.894
-60.319	120.065	0.311	0.382
-59.305	-200.000	-0.081	-0.574
-58.290	800.000	0.319	1.008
-57.276	403.434	0.807	1.679
-56.261	-200.000	97.210	583.296
-55.246	660.591	1386.624	3529.663
-54.232	189.933	2587.861	3838.181
-53.217	123.439	2185.360	2708.096
-52.203	45.789	1721.670	1573.172
-51.188	38.201	1533.160	1348.742
-50.173	35.684	1505.487	1307.257
-49.159	54.949	1556.525	1485.236
-48.144	58.942	1575.649	1531.010
-47.130	38.473	1530.418	1347.989
-46.115	35.218	1514.701	1311.859
-45.100	35.098	1511.188	1307.941
-44.086	35.076	1509.429	1306.219
-43.071	34.980	1507.887	1304.179
-42.057	34.944	1506.579	1302.752
-41.042	34.933	1504.893	1301.165
-40.027	34.921	1503.335	1299.683
-39.013	35.019	1501.556	1298.758
-37.998	35.101	1500.477	1298.332
-36.984	35.002	1499.891	1297.102
-35.969	35.005	1498.393	1295.775
-34.954	35.013	1496.681	1294.296
-33.940	34.903	1495.534	1292.508
-32.925	34.923	1494.292	1291.523
-31.911	35.012	1492.936	1290.898
-30.896	35.049	1491.919	1290.216
-29.881	35.046	1490.419	1288.851
-28.867	35.078	1488.956	1287.746
-27.852	35.156	1487.256	1286.750
-26.838	35.117	1485.967	1285.320
-25.823	35.082	1484.245	1283.547
-24.809	35.110	1482.467	1282.145
-23.794	35.076	1480.884	1280.496
-22.779	34.940	1480.481	1279.187
-21.765	35.182	1478.715	1279.230
-20.750	34.991	1477.864	1277.166
-19.736	35.097	1477.048	1277.120
-18.721	35.015	1476.049	1275.660
-17.706	34.894	1474.958	1273.856
-16.692	35.048	1473.556	1273.620
-15.677	35.034	1472.718	1272.754
-14.663	35.065	1471.792	1272.110
-13.648	35.029	1470.745	1270.913
-12.633	35.031	1469.386	1269.704
-11.619	35.018	1468.688	1268.964
-10.604	35.012	1467.899	1268.193
-9.590	34.931	1466.971	1266.800
-8.575	34.974	1466.524	1266.651
-7.560	34.907	1465.428	1265.211
-6.546	34.918	1465.006	1264.868
-5.531	35.001	1463.669	1264.213
-4.517	35.006	1462.528	1263.212
-3.502	34.973	1461.667	1262.198
-2.487	34.936	1460.530	1260.921
-1.473	34.916	1459.853	1260.159
-0.458	34.946	1458.390	1259.040
0.556	34.369	1448.808	1247.295
1.571	31.060	1421.550	1202.431
2.586	27.087	1358.912	1124.804
3.600	25.166	1275.379	1044.394
4.615	23.597	1228.905	997.437
5.629	20.245	1172.791	933.796
6.644	12.152	1088.434	825.959
7.659	5.827	1047.883	764.374
8.673	4.958	1041.891	755.724
9.688	4.872	1039.317	753.374
10.702	4.844	1037.894	752.141
11.717	4.866	1035.837	750.687
12.731	6.982	1037.967	762.377
13.746	14.406	1047.557	805.350
14.761	19.544	1054.432	835.494
15.775	19.317	1053.233	833.373
16.790	18.236	1050.883	826.226
17.804	17.135	1048.838	819.237
18.819	16.256	1046.770	813.312
19.834	15.867	1045.570	810.438
20.848	15.512	1044.319	807.688
21.863	15.403	1043.575	806.519
22.877	15.120	1042.552	804.296
23.892	15.038	1041.600	803.096
24.907	14.802	1041.559	801.862
25.921	14.878	1040.499	801.338
26.936	14.907	1039.758	800.836
27.950	14.904	1038.495	799.778
28.965	15.005	1037.816	799.670
29.980	14.907	1036.197	797.884
30.994	15.061	1035.346	797.890
32.009	15.146	1034.609	797.657
33.023	15.253	1033.727	797.414
34.038	15.278	1032.910	796.835
35.053	15.001	1032.599	795.206
36.067	15.100	1031.073	794.433
37.082	14.884	1030.608	792.977
38.096	15.079	1029.599	793.055
39.111	15.089	1028.917	792.507
40.126	15.102	1027.911	791.725
41.140	15.078	1026.889	790.752
42.155	14.967	1025.427	789.033
43.169	14.748	1024.991	787.596
44.184	14.859	1023.698	787.054
45.199	14.700	1022.969	785.677
46.213	14.725	1021.994	784.977
47.228	14.810	1020.825	784.410
48.242	14.989	1019.924	784.486
49.257	14.960	1018.939	783.525
50.271	14.982	1018.546	783.255
51.286	15.007	1017.147	782.228
52.301	15.008	1016.781	781.880
53.315	14.976	1015.977	781.044
54.330	14.892	1015.114	779.919
55.344	14.989	1013.977	779.430
56.359	14.858	1012.762	777.818
57.374	14.789	1012.694	777.372
58.388	14.770	1011.889	776.599
59.403	14.716	1010.995	775.592
60.417	14.707	1010.296	774.949
61.432	14.856	1009.238	774.757
62.447	14.745	1008.486	773.597
63.461	14.682	1007.783	772.699
64.476	14.643	1006.900	771.772
65.490	14.548	1006.487	770.948
66.505	14.600	1005.238	770.164
67.520	14.629	1004.338	769.539
68.534	14.844	1003.293	769.662
69.549	14.791	1002.863	769.020
70.563	14.722	1002.211	768.135
71.578	14.777	1001.506	767.776
72.593	14.618	1000.509	766.213
73.607	14.709	998.900	765.332
74.622	14.623	998.667	764.694
75.636	14.614	997.854	763.960
76.651	14.693	996.809	763.454
77.666	14.506	996.882	762.587
78.680	14.550	995.922	761.989
79.695	14.612	995.078	761.557
80.709	14.697	994.492	761.428
81.724	14.705	993.937	760.974
82.739	14.873	992.710	760.729
83.753	14.796	992.427	760.096
84.768	14.974	991.589	760.198
85.782	15.105	990.910	760.204
86.797	15.142	990.377	759.895
87.812	15.193	989.776	759.600
88.826	15.009	988.722	757.890
89.841	14.952	987.739	756.811
90.855	15.060	986.466	756.258
91.870	15.076	986.526	756.308
92.884	15.152	985.855	756.067
93.899	15.117	985.068	755.241
94.914	15.082	984.647	754.692
95.928	15.163	983.701	754.266
96.943	15.208	983.291	754.087
97.957	15.135	982.239	752.886
98.972	15.101	981.114	751.805
99.987	15.052	980.467	751.022
101.001	15.102	979.977	750.806
102.016	15.166	978.968	750.251
103.030	15.057	978.123	749.048
104.045	15.142	976.972	748.483
105.060	15.126	976.042	747.631
106.074	15.114	974.876	746.620
107.089	14.950	974.432	745.482
108.103	14.773	973.628	744.012
109.118	14.751	972.029	742.627
110.133	14.828	971.343	742.378
111.147	14.793	970.396	741.436
112.162	14.752	969.533	740.527
113.176	14.832	969.052	740.451
114.191	14.905	968.486	740.275
115.206	14.976	967.317	739.630
116.220	14.929	966.585	738.795
117.235	14.780	965.671	737.377
118.249	14.676	965.222	736.507
119.264	14.895	963.897	736.395
120.279	14.907	962.786	735.536
121.293	14.855	962.211	734.804
122.308	14.809	961.621	734.087
123.322	14.683	960.885	732.905
124.337	14.717	960.320	732.559
125.352	14.666	958.784	731.099
126.366	14.553	957.880	729.852
127.381	14.591	957.126	729.377
128.395	14.796	955.819	729.211
129.410	14.832	955.133	728.780
130.424	14.676	954.483	727.540
131.439	14.767	953.595	727.197
132.454	14.891	952.608	726.919
133.468	14.896	952.080	726.471
134.483	14.945	951.421	726.119
135.497	14.917	950.736	725.409
136.512	14.911	949.951	724.720
137.527	14.856	949.545	724.110
138.541	15.053	948.333	723.973
139.556	14.942	947.747	722.981
140.570	14.912	946.828	722.085
141.585	14.979	946.473	722.039
142.600	15.049	945.640	721.642
143.614	15.228	944.935	721.813
144.629	15.088	944.407	720.745
145.643	15.312	943.082	720.629
146.658	15.160	942.532	719.492
147.673	14.939	941.753	717.889
148.687	15.146	940.513	717.767
149.702	15.070	939.807	716.838
150.716	14.840	939.131	715.276
151.731	14.979	937.950	714.907
152.746	14.908	937.661	714.319
153.760	15.032	936.456	713.868
154.775	14.967	936.191	713.325
155.789	15.147	934.996	713.119
156.804	15.125	934.479	712.568
157.819	15.011	933.561	711.318
158.833	15.101	933.213	711.373
159.848	15.172	932.549	711.105
160.862	15.202	931.696	710.519
161.877	15.308	930.884	710.287
162.892	15.255	930.034	709.352
163.906	15.021	929.300	707.737
164.921	15.032	928.176	706.865
165.935	14.969	927.499	706.020
166.950	15.010	926.632	705.474
167.964	15.246	925.622	705.633
168.979	15.037	924.818	704.080
169.994	15.102	923.568	703.339
171.008	15.045	923.086	702.671
172.023	15.206	921.924	702.400
173.037	15.259	921.703	702.389
174.052	15.266	920.753	701.633
175.067	15.244	920.199	701.058
176.081	15.125	919.224	699.757
177.096	15.082	918.195	698.730
178.110	14.954	917.692	697.752
179.125	14.960	917.328	697.439
180.140	15.152	916.264	697.370
181.154	15.086	915.869	696.730
182.169	15.231	914.989	696.604
183.183	15.215	914.581	696.163
184.198	15.217	914.149	695.782
185.213	15.366	912.831	695.335
186.227	15.205	912.462	694.323
187.242	15.358	912.089	694.612
188.256	15.433	911.050	694.071
189.271	15.469	910.668	693.868
190.286	15.470	909.920	693.240
191.300	15.445	908.755	692.186
192.315	15.135	907.985	690.263
193.329	15.009	907.579	689.374
194.344	14.927	907.106	688.616
195.359	15.116	906.161	688.617
196.373	15.270	905.945	689.022
197.388	15.387	905.298	688.951
198.402	15.339	904.913	688.399
199.417	15.554	904.464	688.881
200.432	15.576	904.364	688.832
201.446	15.693	903.674	688.727
202.461	15.848	902.918	688.721
203.475	15.714	902.907	688.104
204.490	15.901	901.569	687.789
205.504	15.786	900.674	686.573
206.519	15.774	899.916	685.886
207.534	15.527	899.787	684.719
208.548	15.543	898.659	683.867
209.563	15.620	897.893	683.536
210.577	15.596	897.279	682.913
211.592	15.620	896.920	682.674
212.607	15.756	896.508	682.856
213.621	15.881	895.584	682.595
214.636	15.724	895.031	681.479
215.650	15.765	894.470	681.157
216.665	15.767	893.815	680.608
217.680	15.880	893.863	681.037
218.694	15.904	893.008	680.425
219.709	15.968	892.558	680.278
220.723	15.943	891.667	679.439
221.738	15.978	891.384	679.306
222.753	15.954	890.294	678.318
223.767	15.865	889.548	677.331
224.782	15.990	888.487	676.964
225.796	16.020	888.227	676.827
226.811	15.998	887.934	676.457
227.826	16.035	887.030	675.855
228.840	16.011	886.178	675.050
229.855	15.962	885.445	674.237
230.869	15.985	884.997	673.929
231.884	15.984	884.089	673.173
232.899	15.741	883.705	671.849
233.913	15.778	883.355	671.672
234.928	15.832	882.082	670.862
235.942	15.729	881.488	669.940
236.957	15.772	880.555	669.344
237.972	15.853	879.839	669.061
238.986	15.927	879.225	668.828
240.001	15.901	878.694	668.262
241.015	15.947	878.263	668.059
242.030	15.981	877.151	667.289
243.045	15.998	876.989	667.171
244.059	16.127	876.046	666.907
245.074	16.024	875.756	666.220
246.088	16.034	875.318	665.866
247.103	15.943	875.086	665.273
248.117	16.179	873.857	665.210
249.132	16.221	873.404	664.972
250.147	16.350	873.146	665.223
251.161	16.598	872.375	665.553
252.176	16.484	871.915	664.697
253.190	16.500	871.287	664.220
254.205	16.594	870.841	664.190
255.220	16.676	870.086	663.880
256.234	16.646	869.275	663.081
257.249	16.476	869.037	662.179
258.263	16.675	868.086	662.172
259.278	16.625	867.849	661.738
260.293	16.730	867.469	661.798
261.307	16.691	866.615	660.936
262.322	16.567	866.241	660.111
263.336	16.730	865.740	660.303
264.351	16.790	865.082	659.978
265.366	16.836	864.436	659.607
266.380	16.865	863.490	658.940
267.395	16.743	862.889	657.947
268.409	16.672	862.124	657.031
269.424	16.777	861.400	656.830
270.439	16.710	860.722	655.992
271.453	16.777	859.923	655.586
272.468	16.645	859.365	654.590
273.482	16.606	858.770	653.929
274.497	16.646	858.232	653.615
275.512	16.735	857.549	653.383
276.526	16.602	857.085	652.460
277.541	16.660	856.241	651.983
278.555	16.632	855.740	651.433
279.570	16.752	855.291	651.497
280.585	16.898	854.738	651.578
281.599	16.848	854.410	651.081
282.614	16.908	853.542	650.589
283.628	16.769	852.870	649.487
284.643	16.747	852.363	648.958
285.657	16.796	851.817	648.675
286.672	16.922	851.240	648.659
287.687	16.919	850.790	648.248
288.701	17.062	849.911	648.067
289.716	16.902	849.946	647.427
290.730	16.897	848.993	646.624
291.745	16.969	848.456	646.430
292.760	17.136	847.588	646.349
293.774	17.036	847.489	645.834
294.789	17.141	846.644	645.532
295.803	17.156	845.997	645.040
296.818	16.989	845.390	643.886
297.833	16.825	845.051	642.947
298.847	16.910	844.057	642.458
299.862	17.011	843.566	642.411
300.876	17.191	842.785	642.439
301.891	17.228	842.138	642.030
302.906	17.106	841.912	641.338
303.920	17.172	841.070	640.891
304.935	17.263	840.774	640.951
305.949	17.424	839.675	640.661
306.964	17.325	839.053	639.757
307.979	17.463	838.296	639.641
308.993	17.287	838.222	638.870
310.008	17.358	837.428	638.475
311.022	17.398	837.202	638.395
312.037	17.426	836.557	637.953
313.052	17.292	836.209	637.126
314.066	17.320	835.093	636.326
315.081	17.128	834.587	635.164
316.095	17.066	834.121	634.523
317.110	17.207	833.402	634.447
318.125	17.181	833.138	634.091
319.139	17.048	833.022	633.451
320.154	17.274	832.084	633.526
321.168	17.173	831.689	632.790
322.183	17.313	831.305	632.964
323.197	17.249	830.493	632.051
324.212	17.379	829.748	631.913
325.227	17.267	829.576	631.308
326.241	17.410	828.837	631.221
327.256	17.201	828.666	630.260
328.270	17.328	828.031	630.191
329.285	17.280	827.463	629.525
330.300	17.320	826.691	629.032
331.314	17.401	825.740	628.551
332.329	17.401	825.161	628.055
333.343	17.411	824.734	627.713
334.358	17.472	824.522	627.719
335.373	17.621	823.819	627.677
336.387	17.476	823.457	626.814
337.402	17.514	822.833	626.422
338.416	17.667	822.166	626.420
339.431	17.674	821.797	626.110
340.446	17.729	821.410	625.961
341.460	17.755	820.744	625.495
342.475	17.925	820.445	625.836
343.489	17.781	819.930	624.859
344.504	17.802	819.591	624.623
345.519	17.717	819.124	623.901
346.533	18.086	818.265	624.539
347.548	17.778	818.305	623.388
348.562	17.855	817.403	622.928
349.577	17.663	816.829	621.734
350.592	17.607	815.992	620.839
351.606	17.736	815.445	620.835
352.621	17.534	815.360	619.983
353.635	17.624	814.809	619.835
354.650	17.751	814.344	619.888
355.665	17.768	813.670	619.381
356.679	17.714	813.270	618.827
357.694	17.835	813.009	619.013
358.708	17.895	812.567	618.839
359.723	17.957	811.524	618.213
360.738	17.817	811.701	617.787
361.752	17.828	810.655	616.978
362.767	17.860	810.557	616.962
363.781	17.992	810.214	617.126
364.796	18.028	810.018	617.051
365.810	18.061	809.348	616.605
366.825	18.242	808.933	616.885
367.840	18.281	808.347	616.526
368.854	18.230	807.999	616.022
369.869	18.142	807.502	615.272
370.883	18.028	807.129	614.523
371.898	18.013	806.421	613.877
372.913	18.252	805.652	614.094
373.927	18.168	805.483	613.609
374.942	18.159	804.572	612.829
375.956	18.116	803.805	612.036
376.971	18.295	803.501	612.390
377.986	18.396	802.732	612.112
379.000	18.460	802.830	612.361
380.015	18.407	802.160	611.608
381.029	18.555	801.275	611.406
382.044	18.378	801.137	610.616
383.059	18.414	800.402	610.128
384.073	18.370	800.152	609.729
385.088	18.542	799.208	609.567
386.102	18.458	798.554	608.714
387.117	18.456	797.910	608.162
388.132	18.274	797.806	607.383
389.146	18.371	797.421	607.381
390.161	18.300	796.958	606.722
391.175	18.287	796.652	606.389
392.190	18.465	796.352	606.740
393.205	18.509	795.948	606.533
394.219	18.577	795.154	606.114
395.234	18.436	794.616	605.154
396.248	18.352	794.324	604.580
397.263	18.310	793.790	603.974
398.278	18.347	792.911	603.380
399.292	18.384	792.385	603.058
400.307	18.289	792.453	602.721
401.321	18.379	791.915	602.575
402.336	18.383	791.386	602.135
403.350	18.390	791.238	601.994
404.365	18.311	791.226	601.652
405.380	18.609	790.437	602.045
406.394	18.567	790.035	601.537
407.409	18.688	789.517	601.513
408.423	18.648	789.099	601.003
409.438	18.595	788.905	600.614
410.453	18.659	788.458	600.447
411.467	18.741	788.072	600.387
412.482	18.810	787.549	600.175
413.496	18.779	787.169	599.727
414.511	18.933	786.715	599.863
415.526	19.014	786.529	599.952
416.540	18.888	785.914	598.989
417.555	18.816	785.669	598.500
418.569	18.732	785.052	597.685
419.584	18.938	784.495	597.922
420.599	18.862	784.046	597.264
421.613	155.257	1368.465	1790.535
422.628	134.086	1453.620	1790.649
