DTS Sentinel unit serial number:	SN413079Multiplexer serial number:	ORYXHardware model number:	OX4-SRSoftware version number:	ORYX F/W v4.00 Oryx Data Collector v3.7.2.0data status	okinstallation	princeton_trtdifferential loss correction	single-endedforward channel	channel 3reverse channel	N/Adate	2019/09/13time	22:20:35forward acquisition time	60.00reverse acquisition time	0.00gamma	496.2192k internal	0.2335k external	0.2335temperature offset calibration	1.0060default loss term (dB/km)	0.3790temperature slope calibration	1.0000multiplexer offset coefficient	1.0000multiplexer slope coefficient	1.0000fibre end	0.00T internal ref (°C)	27.87T ext. ref 1 (°C)	3.24T ext. ref 2 (°C)	22.52length (m)	temperature (°C)	Stokes	anti-Stokes-747.200	99.418	-0.091	0.105
-746.185	-137.229	0.087	-0.010
-745.171	171.112	-0.123	0.178
-744.156	-142.393	-0.178	-0.018
-743.142	116.440	0.174	-0.214
-742.127	516.935	-0.039	0.091
-741.112	-200.000	0.069	-0.413
-740.098	-92.103	0.033	0.009
-739.083	-31.717	0.219	-0.123
-738.069	94.718	-0.219	0.250
-737.054	-95.915	-0.112	0.030
-736.039	-86.548	-0.085	-0.026
-735.025	-120.264	0.551	0.094
-734.010	-137.822	-0.111	0.012
-732.996	-200.000	-0.028	-0.393
-731.981	117.678	-0.210	-0.260
-730.966	121.516	-0.011	0.013
-729.952	-31.205	0.356	0.201
-728.937	-5.760	-0.276	-0.190
-727.923	-72.034	-0.656	-0.245
-726.908	59.672	0.093	-0.092
-725.894	-64.903	-0.064	-0.026
-724.879	53.816	-0.062	0.060
-723.864	-193.186	0.167	0.001
-722.850	-0.475	0.176	-0.125
-721.835	-200.000	-0.077	-0.384
-720.821	95.812	-0.247	-0.283
-719.806	557.770	-0.093	-0.226
-718.791	-200.000	0.015	-0.277
-717.777	171.095	0.184	0.264
-716.762	-87.162	0.100	0.030
-715.748	-107.822	-0.301	-0.066
-714.733	-200.000	0.007	-0.595
-713.718	-165.336	-0.061	0.003
-712.704	-67.436	-0.225	-0.089
-711.689	37.878	0.280	-0.249
-710.675	800.000	0.080	-0.232
-709.660	-95.422	-0.428	-0.115
-708.645	-64.424	0.378	-0.154
-707.631	800.000	0.077	-0.288
-706.616	247.646	-0.219	-0.372
-705.602	356.279	0.119	0.238
-704.587	-151.434	-0.049	0.004
-703.572	177.143	-0.236	-0.344
-702.558	-37.747	0.080	0.043
-701.543	73.537	-0.146	-0.153
-700.529	800.000	0.077	0.224
-699.514	115.874	0.160	-0.196
-698.499	-200.000	0.010	-0.382
-697.485	-119.609	0.297	-0.051
-696.470	-42.445	-0.062	-0.032
-695.456	262.822	-0.107	-0.186
-694.441	-200.000	-0.049	-0.342
-693.426	-26.801	-0.239	-0.140
-692.412	311.595	-0.076	-0.143
-691.397	-170.768	0.262	0.009
-690.383	313.351	0.096	-0.181
-689.368	-100.713	-0.088	0.022
-688.354	-126.966	-0.169	-0.025
-687.339	-200.000	-0.022	0.195
-686.324	486.794	0.173	-0.396
-685.310	195.580	0.063	0.096
-684.295	-200.000	-0.034	-0.215
-683.281	-200.000	0.054	-0.359
-682.266	614.680	0.119	-0.299
-681.251	-84.510	0.169	-0.054
-680.237	312.762	0.056	0.106
-679.222	800.000	-0.023	-0.087
-678.208	-143.076	-0.304	-0.029
-677.193	-200.000	-0.007	0.156
-676.178	-192.004	-0.390	-0.004
-675.164	-173.735	0.204	0.006
-674.149	-121.509	-0.182	0.030
-673.135	382.008	-0.070	-0.145
-672.120	138.192	-0.185	0.244
-671.105	93.287	0.208	0.236
-670.091	-200.000	0.005	0.109
-669.076	18.420	-0.380	-0.304
-668.062	-101.445	-0.204	-0.050
-667.047	-158.841	0.187	0.011
-666.032	-26.488	-0.151	0.088
-665.018	-172.361	0.149	-0.005
-664.003	-178.671	0.203	0.005
-662.989	-126.755	-0.170	0.025
-661.974	-200.000	0.004	0.269
-660.959	-200.000	-0.015	-0.166
-659.945	195.960	-0.205	-0.312
-658.930	-200.000	0.012	-0.131
-657.916	-40.623	-0.264	-0.137
-656.901	-19.529	0.179	0.111
-655.886	157.175	-0.068	0.094
-654.872	800.000	-0.104	0.417
-653.857	-200.000	0.023	-0.145
-652.843	800.000	-0.132	-0.377
-651.828	604.083	0.012	-0.029
-650.814	-167.034	-0.349	-0.014
-649.799	-7.346	0.115	0.078
-648.784	51.233	0.105	0.099
-647.770	800.000	-0.053	-0.191
-646.755	-200.000	-0.005	-0.159
-645.741	-168.219	-0.289	0.011
-644.726	-156.362	0.185	0.012
-643.711	1.586	-0.334	0.241
-642.697	96.363	-0.134	-0.153
-641.682	-36.205	-0.508	-0.274
-640.668	377.097	0.042	0.086
-639.653	-61.809	0.118	-0.050
-638.638	19.090	0.033	0.026
-637.624	239.629	-0.217	-0.361
-636.609	4.586	0.054	-0.039
-635.595	194.078	0.132	-0.201
-634.580	-20.736	0.286	-0.175
-633.565	277.217	-0.110	-0.197
-632.551	76.077	0.172	-0.182
-631.536	61.328	0.024	-0.024
-630.522	-200.000	-0.018	0.083
-629.507	206.141	0.081	-0.127
-628.492	-52.804	0.287	-0.132
-627.478	-90.294	-0.110	-0.032
-626.463	70.204	0.048	0.050
-625.449	142.667	0.156	0.208
-624.434	800.000	0.049	-0.179
-623.419	-180.151	0.222	-0.005
-622.405	-137.461	-0.232	-0.026
-621.390	-200.000	-0.097	-0.576
-620.376	-117.734	-0.185	-0.033
-619.361	423.499	-0.105	0.226
-618.346	-9.633	0.219	-0.146
-617.332	-46.148	-0.469	-0.231
-616.317	-3.836	0.252	-0.175
-615.303	475.708	-0.147	-0.332
-614.288	-40.839	-0.040	0.020
-613.273	-200.000	0.046	0.266
-612.259	45.166	-0.246	0.227
-611.244	-200.000	-0.017	-0.271
-610.230	-51.812	-0.187	-0.087
-609.215	-80.842	-0.180	0.060
-608.201	-194.795	0.058	-0.000
-607.186	-200.000	0.029	0.133
-606.171	-200.000	0.027	0.299
-605.157	-89.096	0.420	0.124
-604.142	632.826	-0.018	-0.045
-603.128	-82.412	0.295	-0.096
-602.113	-200.000	-0.019	-0.121
-601.098	-28.837	-0.227	0.131
-600.084	-200.000	0.042	0.308
-599.069	112.222	0.119	-0.143
-598.055	0.275	-0.163	-0.116
-597.040	-96.276	-0.173	0.046
-596.025	-200.000	-0.019	0.199
-595.011	-78.549	-0.236	0.081
-593.996	-200.000	0.034	0.242
-592.982	-6.936	-0.504	-0.342
-591.967	-107.352	0.049	-0.011
-590.952	-200.000	-0.005	0.142
-589.938	679.005	0.148	0.386
-588.923	800.000	0.152	-0.445
-587.909	-91.239	-0.157	-0.045
-586.894	-50.682	0.295	-0.139
-585.879	61.879	-0.243	-0.242
-584.865	-101.198	-0.275	-0.067
-583.850	800.000	-0.131	-0.379
-582.836	76.962	0.074	-0.079
-581.821	800.000	0.026	0.110
-580.806	-134.665	-0.082	-0.010
-579.792	156.147	-0.016	-0.022
-578.777	-38.116	-0.232	0.123
-577.763	4.485	0.178	-0.130
-576.748	-8.117	-0.141	-0.095
-575.733	16.523	0.153	0.121
-574.719	102.529	0.089	0.104
-573.704	15.616	0.097	0.076
-572.690	-60.361	-0.234	0.099
-571.675	-182.236	0.223	-0.004
-570.661	276.508	0.029	-0.051
-569.646	-61.647	-0.190	-0.080
-568.631	-11.213	-0.430	0.283
-567.617	3.106	-0.099	-0.072
-566.602	-200.000	-0.009	0.097
-565.588	800.000	0.055	-0.201
-564.573	142.589	0.026	-0.035
-563.558	-40.841	0.245	-0.126
-562.544	-95.588	-0.266	-0.071
-561.529	-74.511	0.041	-0.015
-560.515	800.000	-0.022	0.081
-559.500	800.000	-0.121	-0.348
-558.485	292.068	0.088	-0.159
-557.471	-52.679	-0.119	0.055
-556.456	408.478	-0.092	0.195
-555.442	-108.425	0.311	0.067
-554.427	-94.944	-0.158	-0.043
-553.412	727.441	-0.080	-0.213
-552.398	-48.725	-0.177	0.085
-551.383	-115.275	0.293	0.055
-550.369	800.000	-0.041	-0.170
-549.354	27.870	0.139	-0.116
-548.339	158.611	-0.192	-0.266
-547.325	-200.000	0.019	0.317
-546.310	-31.917	0.205	0.115
-545.296	459.381	0.102	0.227
-544.281	-59.227	-0.133	-0.057
-543.266	-132.280	-0.158	-0.020
-542.252	-38.618	-0.355	0.187
-541.237	-78.088	-0.301	0.103
-540.223	3.401	-0.018	0.013
-539.208	337.883	-0.134	-0.259
-538.193	-76.637	0.229	0.080
-537.179	-61.502	-0.116	-0.048
-536.164	618.574	-0.118	0.295
-535.150	-81.113	0.249	-0.082
-534.135	384.832	0.225	0.463
-533.121	236.959	0.150	-0.247
-532.106	-96.218	-0.231	-0.061
-531.091	-200.000	-0.003	-0.226
-530.077	-200.000	0.011	0.192
-529.062	-47.446	0.224	-0.108
-528.048	72.603	-0.068	0.071
-527.033	-200.000	0.027	0.271
-526.018	53.096	-0.067	-0.064
-525.004	10.470	-0.166	-0.126
-523.989	-200.000	-0.020	0.195
-522.975	310.913	0.036	0.067
-521.960	39.559	0.133	0.118
-520.945	800.000	-0.025	0.083
-519.931	-3.860	-0.250	0.173
-518.916	37.265	-0.049	0.043
-517.902	29.899	0.092	0.078
-516.887	-200.000	-0.005	0.202
-515.872	26.050	0.196	-0.162
-514.858	-123.144	-0.210	0.034
-513.843	-62.789	0.225	0.093
-512.829	-136.652	-0.413	-0.047
-511.814	-3.740	-0.187	-0.129
-510.799	-3.202	0.213	0.148
-509.785	-41.812	-0.220	0.112
-508.770	192.487	-0.088	-0.132
-507.756	-67.500	0.290	-0.113
-506.741	28.762	-0.390	0.329
-505.726	132.166	-0.228	0.292
-504.712	-200.000	0.051	0.366
-503.697	800.000	-0.103	0.341
-502.683	-73.086	-0.181	0.066
-501.668	-200.000	-0.021	-0.114
-500.653	800.000	-0.056	0.173
-499.639	114.276	0.126	0.152
-498.624	800.000	0.050	0.142
-497.610	-104.240	0.048	0.011
-496.595	-61.713	0.072	0.030
-495.581	-161.572	0.275	-0.014
-494.566	212.334	0.105	0.165
-493.551	568.497	-0.087	0.209
-492.537	-38.334	0.274	-0.144
-491.522	-200.000	0.016	0.296
-490.508	142.841	-0.069	-0.092
-489.493	134.872	0.066	-0.085
-488.478	-118.514	-0.224	0.039
-487.464	-125.260	0.331	-0.050
-486.449	516.496	-0.090	0.209
-485.435	99.864	-0.166	0.191
-484.420	-128.339	-0.182	0.026
-483.405	-157.887	-0.329	0.019
-482.391	-69.160	-0.073	0.028
-481.376	296.423	-0.122	0.223
-480.362	-84.470	0.103	0.032
-479.347	393.146	-0.081	0.167
-478.332	-15.886	-0.054	0.034
-477.318	-10.717	-0.068	-0.044
-476.303	-49.364	0.385	0.183
-475.289	151.940	-0.157	-0.213
-474.274	800.000	-0.067	-0.225
-473.259	-71.732	-0.230	0.085
-472.245	420.452	-0.085	-0.182
-471.230	800.000	-0.009	0.034
-470.216	14.502	-0.057	-0.045
-469.201	483.845	0.074	-0.168
-468.186	191.348	-0.040	-0.060
-467.172	-3.401	0.223	0.154
-466.157	-165.222	-0.115	-0.005
-465.143	224.696	-0.061	-0.099
-464.128	605.420	-0.079	0.195
-463.113	-137.717	-0.134	0.015
-462.099	482.570	-0.018	-0.041
-461.084	-200.000	-0.003	0.069
-460.070	7.385	-0.044	-0.032
-459.055	-13.620	0.187	-0.120
-458.040	-72.222	0.254	-0.094
-457.026	749.061	-0.104	-0.280
-456.011	-200.000	0.002	-0.254
-454.997	94.886	0.152	0.171
-453.982	28.747	-0.284	0.239
-452.968	288.605	-0.039	0.070
-451.953	-200.000	0.055	-0.287
-450.938	261.005	0.134	-0.231
-449.924	141.309	-0.152	0.200
-448.909	-200.000	-0.003	0.126
-447.895	-127.049	-0.156	0.023
-446.880	-68.057	0.272	0.105
-445.865	800.000	-0.026	-0.078
-444.851	215.013	0.218	-0.344
-443.836	800.000	0.097	0.276
-442.822	-125.481	0.189	-0.029
-441.807	-126.176	0.219	-0.033
-440.792	800.000	0.004	-0.012
-439.778	231.558	-0.175	0.285
-438.763	-152.269	-0.084	0.006
-437.749	118.976	0.149	-0.183
-436.734	-117.951	-0.182	0.032
-435.719	25.337	-0.262	-0.216
-434.705	158.766	-0.176	-0.242
-433.690	-200.000	-0.031	-0.198
-432.676	-200.000	-0.004	0.062
-431.661	-69.576	0.193	-0.073
-430.646	-72.218	0.074	-0.027
-429.632	-129.826	0.311	0.042
-428.617	-103.643	0.160	0.037
-427.603	-117.285	0.128	0.023
-426.588	139.471	-0.057	0.075
-425.573	91.854	0.127	-0.142
-424.559	-150.406	0.285	-0.022
-423.544	-0.620	-0.098	0.069
-422.530	515.313	-0.027	0.062
-421.515	232.370	-0.204	0.332
-420.500	-107.483	-0.303	-0.066
-419.486	-78.645	-0.063	0.022
-418.471	800.000	-0.025	-0.087
-417.457	-22.279	-0.138	0.083
-416.442	-200.000	0.017	-0.181
-415.428	34.558	0.127	0.110
-414.413	800.000	-0.012	-0.051
-413.398	-45.394	0.248	0.122
-412.384	192.564	0.164	-0.245
-411.369	85.479	-0.104	-0.113
-410.355	-133.986	-0.247	0.030
-409.340	239.231	0.099	-0.163
-408.325	-29.098	-0.362	-0.206
-407.311	51.522	-0.122	-0.115
-406.296	299.558	-0.109	-0.199
-405.282	34.026	-0.210	0.181
-404.267	-15.380	0.116	-0.073
-403.252	-107.610	0.164	-0.036
-402.238	-92.345	-0.174	-0.048
-401.223	0.966	-0.139	-0.099
-400.209	387.275	-0.154	-0.315
-399.194	800.000	-0.105	0.349
-398.179	-47.002	-0.077	0.037
-397.165	126.833	-0.249	0.313
-396.150	800.000	0.111	-0.319
-395.136	250.911	-0.079	-0.133
-394.121	-200.000	-0.034	0.401
-393.106	-200.000	0.009	-0.218
-392.092	-72.968	-0.208	-0.076
-391.077	-30.134	0.120	0.068
-390.063	-200.000	-0.021	0.148
-389.048	-77.635	-0.149	0.051
-388.033	-43.350	0.119	0.059
-387.019	-62.794	-0.302	-0.124
-386.004	-51.377	-0.298	0.138
-384.990	-133.239	0.100	0.012
-383.975	-27.885	-0.039	-0.022
-382.960	92.000	-0.292	-0.325
-381.946	-8.020	0.154	0.103
-380.931	800.000	-0.031	-0.126
-379.917	-161.235	0.261	-0.013
-378.902	28.157	0.101	-0.084
-377.888	161.997	0.065	-0.090
-376.873	-147.174	-0.355	-0.030
-375.858	-200.000	-0.077	-0.384
-374.844	-88.188	0.340	0.101
-373.829	800.000	-0.060	0.192
-372.815	-200.000	0.026	0.201
-371.800	-200.000	-0.026	0.280
-370.785	-200.000	0.019	0.334
-369.771	-107.408	-0.222	-0.048
-368.756	-7.905	-0.175	-0.117
-367.742	-157.849	0.267	-0.016
-366.727	194.112	-0.041	0.062
-365.712	76.808	-0.135	0.142
-364.698	800.000	-0.148	-0.474
-363.683	800.000	-0.059	-0.202
-362.669	-131.921	0.177	-0.023
-361.654	-95.587	0.315	-0.084
-360.639	800.000	0.078	0.251
-359.625	-98.658	0.243	-0.061
-358.610	69.126	-0.122	0.125
-357.596	301.518	-0.127	0.232
-356.581	-165.287	0.163	0.007
-355.566	-90.314	0.246	0.071
-354.552	-167.218	0.452	0.018
-353.537	800.000	-0.047	-0.157
-352.523	174.041	0.211	-0.302
-351.508	17.112	-0.058	-0.045
-350.493	117.246	-0.200	0.243
-349.479	516.652	0.085	0.196
-348.464	-124.718	-0.173	-0.026
-347.450	-190.397	-0.268	0.003
-346.435	800.000	-0.077	-0.225
-345.420	-29.394	0.274	-0.155
-344.406	-200.000	-0.046	0.319
-343.391	-200.000	-0.017	0.106
-342.377	800.000	0.065	-0.185
-341.362	192.588	0.079	-0.118
-340.348	-102.734	-0.272	-0.064
-339.333	154.387	-0.079	-0.108
-338.318	76.231	0.091	0.095
-337.304	-187.036	0.354	0.005
-336.289	-99.136	0.367	-0.092
-335.275	-29.732	0.189	0.107
-334.260	-150.942	-0.368	0.027
-333.245	-18.369	-0.134	-0.083
-332.231	-52.008	0.258	0.118
-331.216	599.339	-0.041	-0.102
-330.202	800.000	0.048	-0.205
-329.187	800.000	0.024	0.094
-328.172	-166.588	0.112	-0.005
-327.158	-71.874	0.123	-0.045
-326.143	-168.544	-0.153	0.006
-325.129	-180.155	0.388	-0.008
-324.114	509.099	0.096	0.220
-323.099	73.303	-0.162	-0.168
-322.085	-42.054	0.319	0.161
-321.070	-10.766	0.090	-0.059
-320.056	178.915	-0.120	-0.174
-319.041	70.726	0.118	0.121
-318.026	178.842	-0.206	0.297
-317.012	37.111	0.373	0.326
-315.997	-192.508	0.129	-0.001
-314.983	49.597	0.311	-0.289
-313.968	59.467	-0.145	-0.141
-312.953	-157.265	0.187	0.011
-311.939	140.155	0.094	-0.122
-310.924	-107.576	0.252	-0.055
-309.910	-47.046	-0.061	-0.029
-308.895	-200.000	0.000	-0.010
-307.880	-37.792	-0.138	0.072
-306.866	11.218	0.121	-0.091
-305.851	-138.112	0.345	-0.038
-304.837	-200.000	0.021	-0.195
-303.822	36.529	-0.187	-0.163
-302.807	55.065	-0.316	-0.301
-301.793	-200.000	0.026	-0.214
-300.778	-106.972	0.158	0.035
-299.764	-49.271	0.300	0.142
-298.749	-23.826	-0.084	0.050
-297.735	800.000	-0.031	-0.094
-296.720	-200.000	0.007	-0.105
-295.705	-32.151	0.025	0.014
-294.691	-147.784	-0.310	-0.026
-293.676	-200.000	-0.040	-0.346
-292.662	-22.392	0.279	-0.167
-291.647	17.213	-0.036	-0.028
-290.632	18.632	-0.035	-0.028
-289.618	-83.190	0.411	0.130
-288.603	-117.090	-0.190	-0.034
-287.589	87.187	-0.111	0.122
-286.574	-71.844	-0.129	0.047
-285.559	-200.000	-0.030	0.211
-284.545	128.068	0.192	0.241
-283.530	-120.792	-0.110	0.018
-282.516	290.226	0.092	0.165
-281.501	31.771	-0.289	0.245
-280.486	192.128	0.107	-0.159
-279.472	16.682	0.346	0.270
-278.457	28.381	-0.228	0.190
-277.443	-98.965	-0.143	0.036
-276.428	800.000	0.072	0.209
-275.413	31.178	-0.203	-0.172
-274.399	-200.000	-0.027	0.156
-273.384	-200.000	-0.058	0.397
-272.370	-51.870	0.127	0.058
-271.355	68.436	-0.140	0.142
-270.340	-52.520	0.086	-0.039
-269.326	-119.274	0.158	-0.027
-268.311	-200.000	-0.015	0.164
-267.297	-200.000	-0.013	0.059
-266.282	-61.739	-0.134	0.055
-265.267	-115.892	-0.043	0.008
-264.253	-106.595	0.238	-0.052
-263.238	64.790	0.094	-0.093
-262.224	196.114	-0.099	-0.148
-261.209	181.121	0.097	0.141
-260.195	115.518	0.156	0.189
-259.180	-200.000	0.024	-0.219
-258.165	-200.000	0.011	0.101
-257.151	728.104	-0.047	0.123
-256.136	-200.000	-0.049	0.533
-255.122	-161.628	-0.177	-0.009
-254.107	338.849	0.098	0.189
-253.092	585.685	0.031	0.076
-252.078	800.000	-0.070	0.238
-251.063	45.176	0.132	0.120
-250.049	-9.558	0.205	-0.135
-249.034	-70.378	0.195	-0.073
-248.019	-101.818	-0.066	-0.016
-247.005	49.783	-0.051	-0.048
-245.990	800.000	-0.074	0.219
-244.976	-152.192	-0.052	-0.004
-243.961	264.602	0.233	0.400
-242.946	136.083	0.161	-0.207
-241.932	70.544	0.111	-0.113
-240.917	60.240	0.105	-0.103
-239.903	339.850	-0.219	-0.420
-238.888	120.705	0.081	-0.099
-237.873	800.000	0.028	-0.082
-236.859	-146.690	0.186	0.016
-235.844	-200.000	-0.085	0.417
-234.830	-109.952	-0.265	0.055
-233.815	105.789	0.188	-0.219
-232.800	69.061	-0.201	-0.204
-231.786	-37.463	-0.258	0.135
-230.771	-8.354	-0.198	0.131
-229.757	-200.000	-0.037	-0.165
-228.742	-67.754	0.396	0.152
-227.727	-93.662	0.168	0.046
-226.713	127.519	-0.131	-0.164
-225.698	236.076	-0.066	0.108
-224.684	-167.698	0.156	0.006
-223.669	-40.639	0.218	-0.111
-222.655	-94.296	0.254	0.068
-221.640	-84.589	-0.174	-0.054
-220.625	778.075	0.119	0.319
-219.611	410.617	0.055	0.116
-218.596	353.755	0.202	-0.395
-217.582	-88.401	0.232	-0.068
-216.567	-200.000	0.013	-0.227
-215.552	-72.353	-0.123	-0.045
-214.538	-200.000	-0.027	-0.133
-213.523	439.473	0.090	-0.194
-212.509	-146.391	-0.269	0.023
-211.494	-38.268	0.190	0.099
-210.479	-55.483	-0.090	-0.040
-209.465	800.000	0.046	-0.129
-208.450	-74.136	0.064	0.023
-207.436	215.280	0.072	-0.112
-206.421	-67.884	0.239	0.092
-205.406	321.901	0.176	0.329
-204.392	-44.079	-0.118	-0.058
-203.377	-84.356	0.147	0.046
-202.363	-81.780	0.303	0.098
-201.348	612.672	0.140	0.344
-200.333	-200.000	-0.008	-0.102
-199.319	-200.000	0.015	0.203
-198.304	139.993	0.121	-0.156
-197.290	800.000	0.081	-0.348
-196.275	-65.003	0.151	-0.060
-195.260	255.212	0.135	0.227
-194.246	-200.000	0.007	0.206
-193.231	498.704	0.039	-0.088
-192.217	800.000	0.036	0.120
-191.202	7.446	-0.212	0.156
-190.187	-45.174	-0.296	-0.145
-189.173	-200.000	-0.067	0.306
-188.158	176.806	0.174	0.249
-187.144	122.600	0.229	-0.281
-186.129	-8.534	-0.258	-0.171
-185.114	179.015	-0.126	0.181
-184.100	-200.000	-0.018	0.408
-183.085	-111.291	-0.081	-0.016
-182.071	-60.836	0.124	-0.051
-181.056	-94.574	0.284	-0.076
-180.042	-126.494	-0.304	0.044
-179.027	495.566	0.046	-0.105
-178.012	-200.000	0.005	0.155
-176.998	800.000	-0.062	-0.243
-175.983	-116.647	-0.304	-0.055
-174.969	-200.000	0.003	0.150
-173.954	142.707	-0.104	-0.135
-172.939	-111.366	-0.236	-0.047
-171.925	-15.599	-0.048	-0.030
-170.910	-200.000	0.043	-0.218
-169.896	-173.193	-0.029	0.001
-168.881	3.387	0.174	-0.125
-167.866	800.000	0.076	-0.270
-166.852	-63.788	-0.060	-0.024
-165.837	-138.390	-0.302	-0.033
-164.823	-200.000	0.040	0.210
-163.808	85.374	-0.080	-0.087
-162.793	119.197	0.024	-0.029
-161.779	-58.921	-0.208	-0.088
-160.764	-67.988	-0.052	-0.020
-159.750	1.491	0.209	-0.148
-158.735	-81.403	0.080	-0.026
-157.720	-200.000	0.005	-0.109
-156.706	-80.882	0.232	-0.076
-155.691	150.903	0.091	0.122
-154.677	90.863	0.118	-0.130
-153.662	28.324	0.092	0.076
-152.647	483.527	0.047	-0.105
-151.633	87.723	0.096	-0.105
-150.618	53.394	0.108	0.102
-149.604	51.529	0.202	0.188
-148.589	-95.540	0.383	0.101
-147.574	800.000	0.034	-0.130
-146.560	175.487	0.221	-0.315
-145.545	461.606	-0.054	0.118
-144.531	120.498	-0.142	0.173
-143.516	-34.086	0.097	0.052
-142.502	53.436	-0.156	-0.146
-141.487	-141.025	-0.195	0.020
-140.472	-19.085	0.287	-0.175
-139.458	-200.000	0.018	0.138
-138.443	-200.000	0.037	-0.212
-137.429	800.000	-0.023	-0.073
-136.414	-97.059	0.086	-0.022
-135.399	-55.102	-0.203	0.089
-134.385	800.000	-0.053	0.186
-133.370	800.000	0.057	0.204
-132.356	-47.365	-0.139	0.066
-131.341	42.767	-0.281	0.251
-130.326	800.000	-0.080	-0.250
-129.312	51.141	0.114	0.106
-128.297	-60.959	0.363	-0.151
-127.283	-66.090	0.136	-0.053
-126.268	-200.000	0.052	0.537
-125.253	-120.876	-0.122	-0.020
-124.239	8.075	0.179	-0.132
-123.224	-48.069	0.270	-0.128
-122.210	-106.436	0.063	-0.014
-121.195	-130.916	0.235	0.031
-120.180	-200.000	0.047	-0.291
-119.166	800.000	-0.176	0.532
-118.151	-200.000	-0.004	0.076
-117.137	-178.814	0.260	-0.006
-116.122	781.770	-0.114	-0.307
-115.107	57.318	0.094	0.090
-114.093	-25.937	-0.040	-0.023
-113.078	-49.596	0.329	-0.153
-112.064	-141.023	-0.231	-0.023
-111.049	36.230	-0.091	0.079
-110.034	-36.774	-0.248	0.130
-109.020	-17.935	0.257	-0.158
-108.005	484.169	-0.080	-0.178
-106.991	-23.501	-0.233	0.137
-105.976	563.112	0.112	0.266
-104.962	-81.449	-0.273	-0.088
-103.947	-102.405	0.626	-0.147
-102.932	800.000	-0.093	-0.296
-101.918	-200.000	0.022	-0.107
-100.903	800.000	0.057	-0.219
-99.889	-95.893	0.188	0.049
-98.874	-200.000	-0.079	-0.399
-97.859	-200.000	0.073	-0.473
-96.845	247.699	-0.137	0.227
-95.830	-163.787	-0.082	-0.004
-94.816	147.135	0.076	-0.101
-93.801	-200.000	0.041	0.320
-92.786	-200.000	-0.009	-0.130
-91.772	-196.376	0.343	0.002
-90.757	-102.835	0.131	-0.030
-89.743	800.000	0.047	-0.172
-88.728	277.742	0.133	0.232
-87.713	124.059	0.179	0.221
-86.699	-109.181	-0.152	0.032
-85.684	673.598	-0.101	0.257
-84.670	-200.000	-0.000	0.051
-83.655	-200.000	-0.109	-0.515
-82.640	-148.156	0.159	0.013
-81.626	49.537	0.310	0.286
-80.611	505.953	-0.105	0.239
-79.597	8.910	0.145	-0.107
-78.582	153.437	0.219	-0.294
-77.567	800.000	0.064	-0.187
-76.553	-200.000	0.046	0.331
-75.538	-200.000	0.058	0.314
-74.524	63.175	0.171	0.167
-73.509	-12.700	-0.209	0.134
-72.494	230.038	0.095	-0.152
-71.480	118.098	-0.027	-0.032
-70.465	-48.253	-0.179	-0.085
-69.451	-200.000	-0.004	-0.080
-68.436	-24.819	0.118	0.069
-67.422	-30.836	-0.329	0.182
-66.407	-74.045	0.378	0.134
-65.392	135.880	0.224	0.285
-64.378	800.000	0.047	0.174
-63.363	210.731	-0.271	-0.417
-62.349	-112.757	-0.228	0.044
-61.334	99.576	-0.819	-0.927
-60.319	253.311	0.310	0.517
-59.305	-200.000	-0.206	-0.924
-58.290	800.000	0.372	1.170
-57.276	390.224	0.874	1.773
-56.261	-200.000	113.503	661.424
-55.246	551.623	1515.310	3557.363
-54.232	180.145	2679.317	3841.534
-53.217	110.866	2169.571	2553.106
-52.203	38.593	1697.806	1480.681
-51.188	30.970	1516.981	1271.189
-50.173	28.663	1492.865	1235.425
-49.159	52.812	1550.742	1449.496
-48.144	51.783	1566.220	1456.868
-47.130	31.110	1522.795	1276.813
-46.115	28.079	1507.806	1243.616
-45.100	28.001	1503.825	1239.761
-44.086	27.960	1501.971	1237.903
-43.071	27.851	1500.127	1235.598
-42.057	27.860	1498.855	1234.558
-41.042	27.898	1497.542	1233.685
-40.027	27.854	1496.342	1232.352
-39.013	27.887	1493.877	1230.493
-37.998	27.896	1492.896	1229.700
-36.984	27.808	1491.891	1228.228
-35.969	27.835	1490.821	1227.483
-34.954	27.868	1489.194	1226.314
-33.940	27.816	1488.010	1224.939
-32.925	27.889	1486.476	1224.121
-31.911	28.007	1484.785	1223.467
-30.896	27.903	1483.970	1222.051
-29.881	27.893	1482.759	1220.938
-28.867	27.927	1481.555	1220.131
-27.852	27.924	1480.374	1219.087
-26.838	27.872	1479.331	1217.834
-25.823	27.895	1477.134	1216.130
-24.809	27.926	1475.625	1215.043
-23.794	27.857	1474.348	1213.486
-22.779	27.891	1473.971	1213.355
-21.765	27.913	1472.684	1212.390
-20.750	27.907	1471.247	1211.119
-19.736	27.942	1469.893	1210.193
-18.721	27.918	1468.449	1208.793
-17.706	27.855	1468.001	1207.964
-16.692	27.834	1467.310	1207.203
-15.677	27.870	1465.991	1206.311
-14.663	27.901	1464.589	1205.316
-13.648	27.917	1463.674	1204.617
-12.633	27.866	1462.778	1203.499
-11.619	27.901	1461.787	1202.866
-10.604	27.799	1461.660	1202.043
-9.590	27.826	1460.688	1201.369
-8.575	27.844	1459.779	1200.693
-7.560	27.920	1458.213	1199.857
-6.546	27.856	1458.305	1199.467
-5.531	27.826	1457.391	1198.471
-4.517	27.844	1456.146	1197.518
-3.502	27.819	1455.445	1196.728
-2.487	27.776	1454.297	1195.457
-1.473	27.811	1453.193	1194.730
-0.458	27.812	1451.524	1193.316
0.556	28.149	1441.566	1182.032
1.571	25.064	1416.277	1141.580
2.586	21.453	1354.291	1069.481
3.600	19.774	1270.476	993.568
4.615	18.527	1226.282	952.002
5.629	15.907	1170.251	894.521
6.644	9.055	1088.923	798.306
7.659	3.868	1051.706	745.981
8.673	3.270	1046.161	739.110
9.688	3.146	1043.207	736.368
10.702	3.294	1041.037	735.475
11.717	3.271	1039.447	734.177
12.731	5.132	1040.980	744.076
13.746	11.966	1050.579	783.659
14.761	18.363	1058.670	820.367
15.775	19.977	1059.729	828.844
16.790	19.426	1058.220	824.957
17.804	18.583	1056.090	819.199
18.819	17.561	1054.416	812.952
19.834	17.176	1052.981	809.938
20.848	16.963	1052.703	808.640
21.863	16.817	1051.883	807.240
22.877	16.625	1051.076	805.636
23.892	16.495	1050.370	804.406
24.907	16.449	1049.830	803.703
25.921	16.510	1048.371	802.804
26.936	16.349	1047.958	801.651
27.950	16.536	1046.717	801.521
28.965	16.360	1046.005	800.067
29.980	16.515	1044.598	799.657
30.994	16.639	1043.742	799.515
32.009	16.855	1042.807	799.748
33.023	16.797	1042.161	798.906
34.038	16.795	1041.235	798.116
35.053	16.666	1040.722	797.046
36.067	16.719	1039.219	796.073
37.082	16.569	1038.343	794.630
38.096	16.583	1037.610	794.062
39.111	16.656	1037.591	794.322
40.126	16.731	1036.191	793.529
41.140	16.611	1035.065	792.036
42.155	16.317	1033.805	789.628
43.169	16.024	1033.411	787.886
44.184	16.196	1031.866	787.441
45.199	16.106	1030.726	786.080
46.213	16.052	1030.169	785.336
47.228	16.200	1029.137	785.170
48.242	16.428	1028.148	785.404
49.257	16.516	1027.100	784.944
50.271	16.580	1026.131	784.429
51.286	16.493	1025.548	783.511
52.301	16.532	1024.978	783.187
53.315	16.636	1023.852	782.738
54.330	16.368	1022.934	780.728
55.344	16.429	1021.943	780.186
56.359	16.328	1021.031	778.956
57.374	16.398	1020.135	778.524
58.388	16.232	1019.686	777.346
59.403	16.220	1018.680	776.459
60.417	16.200	1017.522	775.415
61.432	16.196	1017.056	774.973
62.447	16.242	1016.367	774.589
63.461	16.130	1015.917	773.663
64.476	16.062	1014.652	772.319
65.490	16.126	1013.807	771.900
66.505	16.101	1012.784	770.941
67.520	16.162	1012.138	770.657
68.534	16.156	1011.327	769.947
69.549	16.180	1010.395	769.279
70.563	16.236	1009.769	768.988
71.578	16.129	1008.985	767.834
72.593	16.068	1007.938	766.693
73.607	15.866	1007.332	765.250
74.622	16.084	1005.967	765.133
75.636	15.957	1005.553	764.172
76.651	16.013	1004.721	763.726
77.666	15.960	1004.316	763.112
78.680	15.934	1003.551	762.347
79.695	16.102	1002.696	762.390
80.709	16.029	1002.481	761.827
81.724	16.082	1001.262	761.073
82.739	16.114	1000.988	760.941
83.753	16.289	999.780	760.742
84.768	16.447	999.207	760.955
85.782	16.712	998.866	761.818
86.797	16.739	998.527	761.615
87.812	16.796	997.448	760.981
88.826	16.593	996.457	759.247
89.841	16.575	995.517	758.382
90.855	16.737	994.394	758.183
91.870	16.766	994.298	758.174
92.884	16.750	993.656	757.545
93.899	16.663	992.674	756.341
94.914	16.833	992.132	756.618
95.928	16.750	991.492	755.695
96.943	16.793	990.285	754.899
97.957	16.713	989.411	753.810
98.972	16.679	988.549	752.936
99.987	16.681	987.979	752.445
101.001	16.676	987.533	752.014
102.016	16.753	986.237	751.301
103.030	16.616	985.795	750.292
104.045	16.679	984.600	749.594
105.060	16.773	983.522	749.123
106.074	16.699	982.280	747.786
107.089	16.430	981.207	745.717
108.103	16.276	980.613	744.520
109.118	16.114	979.819	743.137
110.133	15.995	978.906	741.856
111.147	16.142	978.063	741.795
112.162	16.124	977.090	740.914
113.176	16.207	976.291	740.606
114.191	16.211	976.010	740.345
115.206	16.200	974.896	739.387
116.220	16.361	973.931	739.295
117.235	16.253	973.244	738.234
118.249	16.237	972.674	737.668
119.264	16.195	971.346	736.410
120.279	16.215	970.291	735.632
121.293	16.116	970.049	734.953
122.308	16.087	969.172	734.096
123.322	16.081	968.001	733.120
124.337	15.853	967.455	731.651
125.352	16.006	966.097	731.224
126.366	15.877	965.093	729.840
127.381	15.852	964.205	728.995
128.395	15.801	963.137	727.902
129.410	16.012	962.239	728.070
130.424	16.070	961.137	727.422
131.439	16.127	960.044	726.778
132.454	16.162	959.564	726.502
133.468	16.195	959.412	726.465
134.483	16.270	958.486	726.021
135.497	16.246	957.703	725.259
136.512	16.259	956.766	724.540
137.527	16.362	955.958	724.305
138.541	16.078	955.594	722.749
139.556	16.269	954.845	722.939
140.570	16.194	954.007	721.919
141.585	16.385	952.970	721.888
142.600	16.490	952.759	722.112
143.614	16.769	951.889	722.579
144.629	16.787	951.169	722.044
145.643	16.714	950.655	721.279
146.658	16.663	949.872	720.403
147.673	16.606	948.672	719.188
148.687	16.450	948.050	717.991
149.702	16.467	946.890	717.119
150.716	16.346	945.884	715.782
151.731	16.398	944.989	715.263
152.746	16.343	944.807	714.826
153.760	16.431	943.798	714.375
154.775	16.451	942.916	713.725
155.789	16.432	942.510	713.275
156.804	16.557	941.524	712.993
157.819	16.588	940.636	712.390
158.833	16.529	940.369	711.875
159.848	16.590	940.162	711.914
160.862	16.728	939.324	711.796
161.877	16.804	937.944	711.004
162.892	16.723	936.941	709.843
163.906	16.393	936.259	707.880
164.921	16.413	935.211	707.111
165.935	16.406	934.390	706.397
166.950	16.506	933.451	706.044
167.964	16.486	932.523	705.194
168.979	16.532	931.616	704.637
169.994	16.512	930.408	703.578
171.008	16.404	929.765	702.580
172.023	16.491	929.095	702.372
173.037	16.745	928.164	702.660
174.052	16.834	927.486	702.454
175.067	16.683	927.191	701.545
176.081	16.640	925.790	700.243
177.096	16.617	924.755	699.306
178.110	16.390	924.092	697.803
179.125	16.514	923.460	697.778
180.140	16.489	922.877	697.173
181.154	16.616	921.902	696.896
182.169	16.632	921.718	696.761
183.183	16.782	921.028	696.794
184.198	16.845	920.195	696.361
185.213	16.953	919.612	696.303
186.227	16.740	918.875	694.809
187.242	16.760	918.787	694.763
188.256	16.950	918.110	694.970
189.271	17.047	916.964	694.437
190.286	17.030	916.296	693.800
191.300	16.885	915.471	692.523
192.315	16.545	914.531	690.361
193.329	16.188	914.189	688.587
194.344	16.324	913.159	688.302
195.359	16.406	912.755	688.273
196.373	16.634	912.143	688.678
197.388	16.835	911.741	689.129
198.402	16.951	911.198	689.129
199.417	16.976	910.826	688.889
200.432	17.043	910.511	688.861
201.446	17.165	909.930	688.858
202.461	17.183	909.922	688.863
203.475	17.276	909.096	688.554
204.490	17.284	908.181	687.830
205.504	17.122	907.457	686.567
206.519	17.017	906.438	685.310
207.534	16.914	905.699	684.278
208.548	16.894	905.305	683.837
209.563	17.006	904.319	683.482
210.577	16.918	903.836	682.702
211.592	17.010	903.085	682.446
212.607	17.110	902.768	682.548
213.621	17.260	902.009	682.516
214.636	17.196	901.543	681.847
215.650	17.117	900.821	680.923
216.665	17.272	899.882	680.775
217.680	17.273	899.747	680.617
218.694	17.285	899.717	680.578
219.709	17.428	898.648	680.285
220.723	17.220	898.279	679.112
221.738	17.324	897.557	678.923
222.753	17.314	896.378	677.930
223.767	17.303	895.757	677.357
224.782	17.406	895.151	677.248
225.796	17.401	894.784	676.891
226.811	17.478	894.162	676.668
227.826	17.418	893.796	676.093
228.840	17.296	892.676	674.699
229.855	17.254	891.808	673.818
230.869	17.183	891.487	673.233
231.884	17.282	890.553	672.861
232.899	17.361	889.491	672.313
233.913	17.332	888.857	671.659
234.928	17.151	888.478	670.598
235.942	17.116	887.885	669.955
236.957	17.111	886.845	669.092
237.972	17.191	886.436	669.038
238.986	17.057	886.147	668.231
240.001	17.285	884.913	668.137
241.015	17.113	884.573	667.148
242.030	17.176	884.136	667.004
243.045	17.281	883.297	666.724
244.059	17.251	882.694	666.094
245.074	17.348	882.082	665.955
246.088	17.524	881.161	665.889
247.103	17.503	880.947	665.583
248.117	17.605	880.393	665.507
249.132	17.562	880.081	665.044
250.147	17.783	879.547	665.442
251.161	17.974	878.688	665.480
252.176	18.070	878.310	665.507
253.190	18.052	877.467	664.741
254.205	18.049	877.289	664.534
255.220	18.217	876.436	664.480
256.234	18.211	875.780	663.901
257.249	18.096	875.179	662.941
258.263	18.024	874.902	662.395
259.278	18.129	874.140	662.167
260.293	18.177	873.477	661.789
261.307	18.089	873.410	661.340
262.322	18.194	872.801	661.225
263.336	18.199	872.197	660.730
264.351	18.195	871.574	660.185
265.366	18.150	871.286	659.734
266.380	18.283	870.464	659.565
267.395	18.342	869.543	659.035
268.409	18.260	868.707	658.030
269.424	18.222	867.990	657.282
270.439	18.196	867.077	656.432
271.453	18.188	866.371	655.809
272.468	18.028	865.989	654.849
273.482	17.995	865.133	654.018
274.497	18.067	864.866	654.033
275.512	18.157	863.807	653.518
276.526	18.096	863.311	652.853
277.541	17.961	862.737	651.846
278.555	18.063	862.345	651.882
279.570	18.257	861.639	652.031
280.585	18.443	861.492	652.567
281.599	18.441	860.802	651.979
282.614	18.370	860.155	651.162
283.628	18.189	859.273	649.750
284.643	18.275	858.527	649.455
285.657	18.227	858.282	649.029
286.672	18.164	857.733	648.318
287.687	18.263	857.000	648.081
288.701	18.226	856.932	647.834
289.716	18.303	856.454	647.706
290.730	18.326	855.579	647.073
291.745	18.338	855.109	646.707
292.760	18.352	854.122	645.955
293.774	18.477	853.594	645.970
294.789	18.492	853.570	645.949
295.803	18.512	852.729	645.333
296.818	18.477	851.823	644.459
297.833	18.416	851.173	643.682
298.847	18.319	850.731	642.923
299.862	18.318	850.155	642.427
300.876	18.366	849.541	642.090
301.891	18.535	848.898	642.177
302.906	18.645	848.108	641.936
303.920	18.602	847.652	641.374
304.935	18.770	847.184	641.590
305.949	18.805	847.027	641.543
306.964	18.779	846.311	640.847
307.979	18.759	845.608	640.185
308.993	18.620	845.177	639.285
310.008	18.676	844.674	639.054
311.022	18.897	843.772	639.137
312.037	18.610	843.716	637.973
313.052	18.782	842.696	637.783
314.066	18.531	842.077	636.329
315.081	18.503	841.090	635.420
316.095	18.476	840.985	635.186
317.110	18.445	840.436	634.598
318.125	18.472	839.861	634.209
319.139	18.479	839.198	633.677
320.154	18.672	838.854	634.078
321.168	18.452	838.525	632.957
322.183	18.438	838.239	632.634
323.197	18.679	837.464	632.883
324.212	18.666	836.492	632.046
325.227	18.588	836.181	631.466
326.241	18.624	835.772	631.235
327.256	18.585	835.104	630.530
328.270	18.720	834.383	630.427
329.285	18.630	833.655	629.489
330.300	18.635	833.428	629.281
331.314	18.612	832.578	628.501
332.329	18.540	832.631	628.220
333.343	18.610	831.706	627.721
334.358	18.882	831.341	628.385
335.373	18.867	830.724	627.810
336.387	18.830	830.370	627.352
337.402	18.903	829.870	627.185
338.416	18.905	829.302	626.708
339.431	19.022	828.643	626.580
340.446	19.155	828.329	626.771
341.460	19.298	827.782	626.823
342.475	19.282	827.313	626.352
343.489	19.148	826.863	625.470
344.504	19.360	825.918	625.470
345.519	19.450	825.488	625.416
346.533	19.385	825.144	624.862
347.548	19.261	824.926	624.194
348.562	19.291	823.843	623.428
349.577	19.135	823.120	622.261
350.592	19.037	822.579	621.444
351.606	19.002	821.920	620.764
352.621	18.821	821.801	619.967
353.635	18.959	821.558	620.224
354.650	19.130	821.075	620.422
355.665	19.230	820.418	620.230
356.679	19.150	819.788	619.410
357.694	19.119	819.828	619.276
358.708	19.235	818.819	618.877
359.723	19.377	818.207	618.869
360.738	19.123	817.946	617.704
361.752	19.269	817.156	617.577
362.767	19.208	816.959	617.155
363.781	19.296	816.983	617.434
364.796	19.529	816.201	617.621
365.810	19.632	815.998	617.784
366.825	19.563	815.966	617.455
367.840	19.634	815.436	617.256
368.854	19.754	814.691	617.066
369.869	19.632	814.357	616.323
370.883	19.569	813.560	615.439
371.898	19.536	812.990	614.834
372.913	19.592	812.346	614.493
373.927	19.784	811.860	614.755
374.942	19.697	810.951	613.704
375.956	19.645	810.605	613.203
376.971	19.636	810.305	612.888
377.986	19.738	809.842	612.847
379.000	19.733	809.487	612.505
380.015	19.922	808.786	612.588
381.029	19.833	807.968	611.602
382.044	19.823	807.504	611.161
383.059	19.918	807.089	611.127
384.073	19.943	806.262	610.536
385.088	19.909	805.660	609.904
386.102	19.796	805.236	609.133
387.117	19.525	805.103	608.026
388.132	19.596	804.302	607.616
389.146	19.733	803.766	607.637
390.161	19.765	802.996	607.114
391.175	19.802	803.211	607.352
392.190	19.835	803.247	607.441
393.205	19.780	802.278	606.464
394.219	19.733	801.866	605.933
395.234	19.606	801.563	605.208
396.248	19.618	800.851	604.657
397.263	19.566	800.120	603.869
398.278	19.580	799.539	603.428
399.292	19.411	799.297	602.599
400.307	19.582	798.919	602.859
401.321	19.485	798.571	602.206
402.336	19.715	797.889	602.440
403.350	19.793	797.651	602.479
404.365	19.742	797.256	601.947
405.380	19.949	796.645	602.152
406.394	19.961	796.815	602.270
407.409	20.250	796.078	602.663
408.423	20.070	795.635	601.650
409.438	20.180	795.305	601.729
410.453	20.210	794.930	601.498
411.467	20.189	794.529	601.067
412.482	20.271	793.857	600.789
413.496	20.274	793.375	600.382
414.511	20.351	793.237	600.489
415.526	20.379	792.706	600.131
416.540	20.173	792.530	599.233
417.555	20.322	791.681	599.052
418.569	20.313	791.232	598.628
419.584	20.413	790.727	598.539
420.599	20.486	790.472	598.543
421.613	161.135	1371.392	1794.827
422.628	139.561	1456.013	1794.936
