DTS Sentinel unit serial number:	SN413079Multiplexer serial number:	ORYXHardware model number:	OX4-SRSoftware version number:	ORYX F/W v4.00 Oryx Data Collector v3.7.2.0data status	okinstallation	princeton_trtdifferential loss correction	single-endedforward channel	channel 3reverse channel	N/Adate	2019/09/13time	03:56:35forward acquisition time	60.00reverse acquisition time	0.00gamma	496.2192k internal	0.2336k external	0.2336temperature offset calibration	1.0132default loss term (dB/km)	0.3790temperature slope calibration	1.0000multiplexer offset coefficient	1.0000multiplexer slope coefficient	1.0000fibre end	0.00T internal ref (°C)	27.06T ext. ref 1 (°C)	4.06T ext. ref 2 (°C)	21.32length (m)	temperature (°C)	Stokes	anti-Stokes-747.200	-80.160	0.285	0.096
-746.185	50.421	-0.193	0.183
-745.171	118.776	0.206	0.256
-744.156	115.342	-0.132	0.162
-743.142	-200.000	0.046	-0.244
-742.127	-200.000	0.014	-0.092
-741.112	44.276	0.076	-0.070
-740.098	-56.101	-0.159	0.071
-739.083	800.000	-0.029	0.089
-738.069	-200.000	-0.129	0.590
-737.054	-200.000	0.002	0.011
-736.039	341.172	-0.158	0.309
-735.025	9.531	0.115	-0.088
-734.010	38.155	-0.325	0.291
-732.996	-130.283	-0.017	-0.002
-731.981	89.560	-0.168	-0.188
-730.966	-43.673	-0.385	0.195
-729.952	395.665	-0.097	-0.203
-728.937	200.098	-0.167	0.257
-727.923	800.000	0.034	0.128
-726.908	40.816	0.173	-0.156
-725.894	22.562	-0.170	-0.140
-724.879	5.760	0.211	-0.157
-723.864	-200.000	-0.026	-0.187
-722.850	800.000	-0.072	-0.279
-721.835	161.694	0.081	-0.114
-720.821	800.000	-0.055	-0.242
-719.806	-200.000	-0.017	0.226
-718.791	-54.583	0.074	-0.033
-717.777	314.140	-0.090	-0.169
-716.762	800.000	-0.028	-0.109
-715.748	-108.002	-0.175	-0.038
-714.733	144.502	-0.044	0.059
-713.718	-67.592	-0.167	-0.066
-712.704	-74.267	-0.093	0.034
-711.689	236.949	0.161	-0.267
-710.675	-138.085	0.283	0.032
-709.660	93.660	-0.254	-0.288
-708.645	-129.976	-0.112	0.015
-707.631	-77.767	0.208	-0.072
-706.616	83.732	-0.056	0.061
-705.602	28.719	-0.146	-0.124
-704.587	-88.094	0.284	-0.085
-703.572	-200.000	-0.017	-0.206
-702.558	800.000	-0.148	-0.558
-701.543	-200.000	-0.067	-0.582
-700.529	800.000	0.080	-0.236
-699.514	407.456	0.153	-0.325
-698.499	697.968	-0.096	-0.252
-697.485	-117.596	0.117	0.021
-696.470	214.814	0.143	-0.227
-695.456	116.096	0.175	0.215
-694.441	25.010	-0.090	-0.075
-693.426	-7.029	0.136	0.093
-692.412	19.759	0.352	-0.284
-691.397	-200.000	-0.036	-0.274
-690.383	-200.000	0.091	0.479
-689.368	-200.000	-0.013	0.139
-688.354	741.808	-0.118	-0.317
-687.339	-200.000	0.028	-0.336
-686.324	800.000	0.015	-0.053
-685.310	-162.072	0.114	0.006
-684.295	164.497	0.142	-0.200
-683.281	-11.429	-0.231	0.152
-682.266	85.275	-0.053	0.058
-681.251	-114.718	-0.228	-0.044
-680.237	-22.592	-0.218	-0.132
-679.222	-200.000	-0.004	0.158
-678.208	-200.000	0.014	-0.401
-677.193	-34.030	0.208	0.115
-676.178	702.245	0.140	-0.369
-675.164	-114.243	0.126	0.024
-674.149	-115.247	-0.272	-0.051
-673.135	-89.010	0.141	-0.042
-672.120	130.413	-0.161	-0.206
-671.105	95.216	-0.208	-0.237
-670.091	800.000	0.038	-0.131
-669.076	43.105	-0.123	0.113
-668.062	74.103	-0.058	-0.061
-667.047	-200.000	-0.015	0.190
-666.032	69.512	-0.391	-0.403
-665.018	-101.727	-0.283	0.069
-664.003	172.356	-0.091	0.131
-662.989	-43.357	0.176	-0.089
-661.974	-51.873	0.106	0.049
-660.959	245.845	0.113	0.190
-659.945	-143.430	-0.255	0.024
-658.930	-200.000	0.034	-0.253
-657.916	-172.880	-0.314	-0.010
-656.901	-136.791	0.224	0.026
-655.886	-200.000	-0.038	-0.199
-654.872	-111.199	0.428	0.088
-653.857	-9.186	0.207	-0.138
-652.843	59.509	-0.348	0.343
-651.828	-200.000	0.002	-0.012
-650.814	-200.000	0.031	0.315
-649.799	-122.592	-0.444	0.072
-648.784	-108.571	-0.307	-0.066
-647.770	26.264	-0.100	0.083
-646.755	358.013	-0.245	0.489
-645.741	146.541	0.182	-0.244
-644.726	129.830	-0.126	0.161
-643.711	800.000	0.123	-0.381
-642.697	-200.000	-0.038	-0.366
-641.682	-200.000	-0.011	0.159
-640.668	-96.978	-0.181	0.047
-639.653	-200.000	-0.032	-0.184
-638.638	-200.000	0.006	0.039
-637.624	138.569	0.133	-0.175
-636.609	-200.000	-0.015	-0.156
-635.595	-81.538	-0.199	-0.065
-634.580	-200.000	0.049	-0.323
-633.565	-19.449	-0.101	-0.063
-632.551	-50.817	0.034	-0.016
-631.536	-87.566	-0.317	-0.096
-630.522	5.306	0.470	-0.346
-629.507	-200.000	-0.001	-0.227
-628.492	475.097	-0.136	0.308
-627.478	597.327	0.160	-0.397
-626.463	800.000	0.039	-0.117
-625.449	-40.476	-0.179	-0.093
-624.434	707.838	0.087	-0.229
-623.419	335.698	0.061	0.117
-622.405	-72.189	-0.325	-0.120
-621.390	-93.031	0.212	-0.059
-620.376	386.577	-0.043	-0.089
-619.361	-29.702	-0.065	-0.037
-618.346	0.276	-0.176	-0.126
-617.332	-4.810	0.479	0.330
-616.317	-2.054	0.200	0.141
-615.303	100.380	-0.176	-0.204
-614.288	-135.444	0.064	-0.008
-613.273	-200.000	0.008	0.141
-612.259	800.000	0.071	0.234
-611.244	-137.215	-0.191	0.022
-610.230	29.853	-0.140	0.119
-609.215	800.000	-0.050	-0.161
-608.201	-97.546	-0.059	0.015
-607.186	138.879	-0.204	0.268
-606.171	412.603	-0.047	0.099
-605.157	800.000	-0.037	0.132
-604.142	108.975	-0.072	0.086
-603.128	242.432	0.091	-0.151
-602.113	58.253	-0.232	-0.227
-601.098	-53.584	0.225	0.103
-600.084	-72.583	-0.181	-0.067
-599.069	-154.982	-0.135	-0.009
-598.055	-13.508	0.342	-0.221
-597.040	-85.127	-0.202	0.063
-596.025	800.000	0.055	-0.233
-595.011	134.666	-0.189	0.245
-593.996	-200.000	0.046	0.271
-592.982	550.515	-0.109	-0.262
-591.967	-173.622	0.101	-0.003
-590.952	114.631	-0.053	0.065
-589.938	-200.000	0.010	-0.182
-588.923	310.483	-0.124	-0.232
-587.909	800.000	0.036	-0.101
-586.894	17.985	-0.064	0.051
-585.879	-157.454	-0.390	-0.023
-584.865	-12.339	0.165	-0.108
-583.850	800.000	0.038	0.149
-582.836	-110.394	0.219	0.045
-581.821	-112.415	0.422	-0.084
-580.806	-92.222	-0.137	-0.039
-579.792	800.000	0.078	-0.257
-578.777	-73.052	0.194	0.071
-577.763	800.000	0.019	0.069
-576.748	-125.652	-0.185	-0.028
-575.733	-116.016	0.322	0.060
-574.719	-200.000	-0.041	-0.283
-573.704	61.083	0.336	-0.333
-572.690	24.512	-0.331	-0.273
-571.675	-130.091	-0.173	-0.024
-570.661	-200.000	0.039	0.209
-569.646	34.406	0.115	-0.100
-568.631	-79.674	-0.258	0.087
-567.617	-31.432	0.235	0.132
-566.602	-200.000	0.025	0.171
-565.588	-200.000	0.013	0.189
-564.573	-99.462	-0.311	0.078
-563.558	111.895	0.202	0.244
-562.544	800.000	-0.065	0.247
-561.529	-8.382	0.388	0.260
-560.515	38.570	-0.066	-0.058
-559.500	-68.254	0.322	0.125
-558.485	-128.307	0.201	0.029
-557.471	-116.590	-0.053	-0.010
-556.456	98.042	-0.117	0.135
-555.442	800.000	-0.095	0.348
-554.427	65.037	0.218	0.219
-553.412	25.093	0.104	-0.086
-552.398	7.333	-0.174	-0.130
-551.383	73.039	-0.233	-0.242
-550.369	329.377	-0.134	-0.257
-549.354	-60.197	-0.268	-0.114
-548.339	-200.000	0.007	-0.043
-547.325	331.085	-0.126	-0.242
-546.310	-200.000	0.051	-0.280
-545.296	-67.526	0.262	-0.102
-544.281	61.773	-0.113	-0.112
-543.266	800.000	0.011	-0.046
-542.252	-111.305	-0.295	-0.060
-541.237	-35.221	-0.208	-0.113
-540.223	76.489	0.212	-0.224
-539.208	-66.244	-0.308	0.122
-538.193	56.283	0.464	0.449
-537.179	-103.805	0.704	-0.164
-536.164	-200.000	-0.092	-0.423
-535.150	-95.622	-0.214	0.057
-534.135	103.383	0.360	0.421
-533.121	-48.264	0.067	-0.032
-532.106	800.000	0.037	0.135
-531.091	70.717	-0.131	0.136
-530.077	523.894	0.092	0.215
-529.062	0.469	-0.183	0.130
-528.048	800.000	0.072	0.258
-527.033	-91.015	0.168	-0.048
-526.018	250.057	0.147	-0.248
-525.004	-194.333	0.340	-0.003
-523.989	800.000	-0.012	-0.043
-522.975	-13.912	-0.047	0.030
-521.960	800.000	-0.032	-0.104
-520.945	18.173	-0.125	-0.099
-519.931	-106.840	0.274	-0.060
-518.916	-49.049	-0.240	0.114
-517.902	-200.000	-0.021	0.197
-516.887	-200.000	0.006	0.085
-515.872	49.365	-0.118	0.110
-514.858	27.503	0.276	0.231
-513.843	2.690	-0.078	-0.057
-512.829	-26.250	0.148	-0.087
-511.814	800.000	-0.093	0.299
-510.799	-54.521	-0.208	-0.094
-509.785	6.367	0.078	0.057
-508.770	-36.983	-0.039	-0.021
-507.756	800.000	0.043	0.132
-506.741	-200.000	0.023	0.198
-505.726	-53.087	-0.141	0.064
-504.712	800.000	-0.058	0.224
-503.697	-63.291	0.411	-0.168
-502.683	94.117	-0.307	-0.347
-501.668	-123.885	0.187	0.029
-500.653	27.384	-0.102	0.085
-499.639	-46.721	0.324	0.158
-498.624	-54.151	-0.232	-0.105
-497.610	-16.193	-0.264	0.166
-496.595	-39.640	-0.126	0.066
-495.581	-77.349	0.073	-0.025
-494.566	-200.000	-0.018	-0.186
-493.551	-200.000	-0.003	0.087
-492.537	-200.000	-0.043	-0.198
-491.522	-200.000	0.032	-0.349
-490.508	-72.433	0.164	-0.060
-489.493	526.726	0.070	-0.165
-488.478	88.762	0.100	-0.110
-487.464	-200.000	-0.001	-0.105
-486.449	800.000	0.107	-0.360
-485.435	508.413	-0.128	0.295
-484.420	-30.423	-0.430	-0.242
-483.405	159.035	0.196	0.271
-482.391	-145.643	-0.215	0.019
-481.376	-200.000	-0.035	-0.204
-480.362	-105.158	-0.315	-0.071
-479.347	-0.932	0.246	0.173
-478.332	167.947	-0.099	0.140
-477.318	-131.226	-0.355	0.047
-476.303	-158.431	0.164	-0.009
-475.289	29.682	0.235	0.199
-474.274	-55.138	0.326	-0.146
-473.259	73.242	-0.131	0.136
-472.245	-200.000	-0.013	-0.181
-471.230	-78.073	-0.210	0.072
-470.216	-117.791	0.224	-0.040
-469.201	273.807	0.129	-0.226
-468.186	-200.000	0.076	0.350
-467.172	456.409	-0.048	0.107
-466.157	117.117	-0.135	0.165
-465.143	-47.691	0.162	0.078
-464.128	46.598	0.186	0.172
-463.113	72.162	0.164	-0.169
-462.099	-52.855	-0.315	-0.144
-461.084	638.184	-0.014	-0.036
-460.070	-95.996	0.203	-0.054
-459.055	-62.495	0.267	-0.110
-458.040	264.631	-0.199	0.344
-457.026	121.408	0.108	0.134
-456.011	800.000	-0.073	-0.276
-454.997	-200.000	0.050	-0.311
-453.982	-93.828	0.336	-0.092
-452.968	-63.288	-0.048	-0.020
-451.953	-200.000	0.023	0.155
-450.938	-200.000	-0.001	0.147
-449.924	-200.000	-0.123	0.555
-448.909	164.042	0.367	0.513
-447.895	-200.000	0.016	0.230
-446.880	800.000	-0.091	-0.345
-445.865	79.266	-0.147	-0.156
-444.851	800.000	-0.050	0.194
-443.836	785.202	-0.068	-0.185
-442.822	-200.000	-0.000	-0.175
-441.807	390.593	0.100	-0.205
-440.792	44.475	0.353	-0.322
-439.778	65.743	0.195	0.196
-438.763	-200.000	0.013	0.263
-437.749	273.612	-0.138	-0.242
-436.734	225.246	-0.090	0.145
-435.719	800.000	-0.037	-0.128
-434.705	180.930	0.070	-0.102
-433.690	-200.000	0.021	-0.220
-432.676	-200.000	-0.028	-0.226
-431.661	531.055	0.052	0.122
-430.646	-200.000	-0.030	0.178
-429.632	-109.273	-0.213	-0.045
-428.617	-121.265	-0.328	0.054
-427.603	-200.000	0.050	-0.419
-426.588	77.790	-0.197	-0.208
-425.573	-13.346	-0.451	-0.290
-424.559	51.407	0.170	-0.160
-423.544	216.307	-0.071	0.111
-422.530	-32.675	-0.159	0.087
-421.515	800.000	-0.056	0.190
-420.500	385.854	0.040	-0.082
-419.486	-200.000	-0.005	0.077
-418.471	66.171	0.037	-0.037
-417.457	-151.792	0.199	-0.014
-416.442	279.252	0.050	0.088
-415.428	-200.000	0.026	0.349
-414.413	800.000	-0.060	0.185
-413.398	298.303	0.087	0.159
-412.384	-67.682	-0.340	-0.132
-411.369	-28.753	-0.114	0.065
-410.355	484.567	-0.073	0.166
-409.340	-162.229	0.128	0.006
-408.325	517.494	-0.068	0.158
-407.311	209.064	-0.066	0.102
-406.296	-200.000	-0.028	-0.195
-405.282	336.835	0.084	0.161
-404.267	-63.042	0.147	0.060
-403.252	-40.328	-0.241	-0.124
-402.238	-79.193	0.145	-0.049
-401.223	-200.000	0.137	0.001
-400.209	247.258	-0.107	-0.180
-399.194	-200.000	0.067	-0.476
-398.179	800.000	0.074	-0.296
-397.165	82.323	0.179	0.193
-396.150	15.697	0.106	0.083
-395.136	515.894	0.071	0.165
-394.121	40.951	-0.140	-0.125
-393.106	67.598	-0.334	0.338
-392.092	-52.116	0.040	0.018
-391.077	695.911	0.052	-0.135
-390.063	24.765	0.171	-0.140
-389.048	6.529	0.172	0.127
-388.033	-77.676	-0.040	-0.014
-387.019	28.171	0.147	-0.123
-386.004	-200.000	-0.004	-0.129
-384.990	241.390	-0.077	-0.128
-383.975	4.700	0.137	0.099
-382.960	30.144	-0.371	-0.314
-381.946	36.375	0.285	0.249
-380.931	30.429	0.125	-0.106
-379.917	198.780	-0.167	0.253
-378.902	-73.619	-0.228	0.082
-377.888	-58.935	-0.399	0.171
-376.873	-200.000	0.020	0.105
-375.858	-200.000	-0.030	0.268
-374.844	284.271	-0.075	-0.133
-373.829	63.009	0.164	0.162
-372.815	770.798	-0.106	-0.287
-371.800	-191.121	0.200	-0.002
-370.785	262.845	0.122	-0.210
-369.771	-116.287	0.143	0.026
-368.756	-174.320	0.050	0.001
-367.742	4.973	0.045	0.033
-366.727	-17.402	0.212	-0.132
-365.712	52.159	-0.185	-0.174
-364.698	216.266	-0.132	-0.208
-363.683	32.795	0.338	-0.289
-362.669	31.121	0.076	0.065
-361.654	-126.151	-0.538	-0.080
-360.639	543.600	-0.050	-0.119
-359.625	630.926	0.080	-0.201
-358.610	-200.000	0.022	0.145
-357.596	371.937	0.033	0.066
-356.581	426.466	-0.138	-0.294
-355.566	-149.434	-0.318	0.025
-354.552	800.000	0.094	0.364
-353.537	800.000	-0.046	0.145
-352.523	-81.899	-0.216	0.070
-351.508	28.873	0.144	-0.121
-350.493	26.688	0.210	0.174
-349.479	49.858	-0.046	-0.043
-348.464	-32.263	0.041	0.023
-347.450	217.005	-0.140	-0.220
-346.435	729.424	0.027	0.072
-345.420	800.000	-0.067	0.272
-344.406	-117.881	-0.224	-0.040
-343.391	182.460	-0.061	-0.088
-342.377	-148.848	-0.031	-0.002
-341.362	116.775	0.152	-0.184
-340.348	-131.318	0.405	-0.053
-339.333	800.000	0.051	-0.143
-338.318	146.414	-0.088	0.117
-337.304	5.247	0.115	-0.083
-336.289	218.356	0.127	0.200
-335.275	-151.620	0.286	-0.021
-334.260	-200.000	0.001	-0.124
-333.245	800.000	0.011	-0.042
-332.231	-24.952	-0.053	-0.031
-331.216	119.759	0.012	0.015
-330.202	-200.000	0.001	0.053
-329.187	-123.159	-0.296	0.047
-328.172	800.000	-0.078	0.267
-327.158	-150.710	0.196	0.015
-326.143	190.214	0.087	-0.129
-325.129	-200.000	0.003	-0.457
-324.114	800.000	0.050	-0.184
-323.099	-200.000	-0.041	-0.378
-322.085	-200.000	-0.046	0.312
-321.070	542.818	0.077	-0.182
-320.056	-200.000	-0.033	-0.296
-319.041	-69.547	-0.203	-0.077
-318.026	-90.820	0.170	0.048
-317.012	116.412	-0.026	0.032
-315.997	11.611	-0.246	-0.186
-314.983	-155.307	-0.269	0.017
-313.968	-4.313	-0.127	-0.087
-312.953	-68.601	-0.158	-0.060
-311.939	-62.390	0.368	0.151
-310.924	-200.000	-0.006	0.030
-309.910	291.690	-0.114	-0.204
-308.895	800.000	-0.071	0.216
-307.880	72.438	0.153	-0.158
-306.866	-39.352	0.218	-0.113
-305.851	-11.459	-0.116	-0.075
-304.837	137.423	-0.099	0.127
-303.822	-36.216	-0.122	-0.065
-302.807	-200.000	0.006	-0.308
-301.793	-105.649	-0.190	-0.043
-300.778	-200.000	-0.006	0.366
-299.764	196.916	0.108	0.163
-298.749	441.924	-0.021	-0.045
-297.735	-177.693	-0.071	-0.002
-296.720	-106.682	-0.431	0.094
-295.705	-200.000	0.024	0.406
-294.691	93.132	0.109	-0.121
-293.676	475.764	-0.190	0.422
-292.662	80.270	-0.092	-0.097
-291.647	-200.000	0.007	0.042
-290.632	292.620	-0.168	-0.302
-289.618	15.570	-0.067	-0.052
-288.603	-164.461	-0.377	0.017
-287.589	-13.032	0.193	0.124
-286.574	431.558	0.113	-0.242
-285.559	-6.075	-0.098	0.066
-284.545	-68.767	0.154	-0.059
-283.530	-171.709	0.080	0.003
-282.516	264.382	0.038	-0.065
-281.501	-47.831	-0.351	-0.168
-280.486	-37.537	0.279	0.147
-279.472	300.924	-0.056	0.103
-278.457	-200.000	-0.003	0.163
-277.443	-146.495	-0.061	-0.005
-276.428	-169.256	-0.115	0.004
-275.413	-91.180	0.238	0.067
-274.399	71.681	-0.161	0.165
-273.384	86.354	0.241	0.262
-272.370	104.758	0.164	0.191
-271.355	287.669	0.094	-0.168
-270.340	8.776	-0.287	0.213
-269.326	-46.287	-0.205	0.099
-268.311	-83.421	-0.196	0.062
-267.297	-125.737	-0.367	-0.055
-266.282	50.057	0.271	-0.252
-265.267	606.808	-0.162	0.398
-264.253	800.000	-0.161	-0.456
-263.238	-130.717	-0.195	-0.026
-262.224	12.498	-0.076	0.058
-261.209	-139.918	0.535	-0.056
-260.195	-107.459	0.164	0.036
-259.180	-64.698	0.171	-0.068
-258.165	-78.682	-0.060	0.020
-257.151	-102.709	-0.448	0.105
-256.136	-200.000	0.010	0.350
-255.122	800.000	0.061	0.203
-254.107	-87.486	-0.080	0.024
-253.092	-200.000	0.054	0.491
-252.078	-200.000	0.007	-0.045
-251.063	353.041	-0.149	0.291
-250.049	67.163	-0.052	0.052
-249.034	-166.968	0.282	0.011
-248.019	800.000	0.091	-0.263
-247.005	800.000	-0.051	0.152
-245.990	-142.157	-0.171	0.017
-244.976	-59.991	-0.111	-0.047
-243.961	-200.000	-0.003	-0.147
-242.946	-139.317	-0.111	-0.012
-241.932	800.000	-0.020	0.060
-240.917	268.409	0.085	-0.146
-239.903	46.231	-0.268	0.245
-238.888	800.000	0.042	-0.176
-237.873	-170.802	-0.207	0.007
-236.859	-97.307	0.080	-0.021
-235.844	275.605	-0.210	-0.366
-234.830	-21.873	0.118	0.071
-233.815	-116.100	-0.141	0.026
-232.800	20.157	-0.009	-0.007
-231.786	-167.530	0.113	-0.004
-230.771	134.538	-0.083	0.106
-229.757	-44.357	-0.265	0.131
-228.742	-23.117	-0.191	0.113
-227.727	-200.000	0.024	0.333
-226.713	114.073	-0.040	0.048
-225.698	-91.901	-0.215	0.060
-224.684	355.557	-0.066	-0.128
-223.669	-65.923	0.299	0.117
-222.655	-12.543	-0.149	-0.095
-221.640	452.123	0.099	-0.215
-220.625	-57.842	0.115	0.050
-219.611	-200.000	0.019	-0.132
-218.596	338.218	0.044	0.084
-217.582	16.411	0.225	0.175
-216.567	-200.000	-0.037	-0.213
-215.552	47.777	-0.098	-0.090
-214.538	-131.131	0.100	-0.013
-213.523	54.346	0.084	0.080
-212.509	-143.992	-0.055	-0.005
-211.494	-200.000	0.006	0.135
-210.479	9.188	0.179	0.133
-209.465	-114.968	-0.203	0.038
-208.450	-41.768	0.189	0.095
-207.436	-200.000	-0.008	0.170
-206.421	-45.933	0.032	0.015
-205.406	-98.560	0.294	-0.074
-204.392	-54.760	0.050	-0.022
-203.377	-127.909	0.040	0.006
-202.363	143.806	-0.148	0.194
-201.348	-129.880	0.180	-0.024
-200.333	-124.338	0.367	-0.056
-199.319	-111.379	0.390	0.078
-198.304	59.281	0.236	0.229
-197.290	-200.000	-0.033	-0.147
-196.275	-53.799	-0.345	-0.154
-195.260	-200.000	0.040	0.212
-194.246	-125.643	0.443	-0.066
-193.231	-125.984	0.293	-0.043
-192.217	108.543	-0.059	0.069
-191.202	-79.345	0.046	0.015
-190.187	-200.000	-0.043	-0.202
-189.173	-8.806	0.168	0.111
-188.158	-70.829	-0.434	-0.161
-187.144	-77.327	0.182	-0.062
-186.129	-32.947	-0.198	-0.108
-185.114	800.000	0.115	0.385
-184.100	800.000	0.009	0.035
-183.085	-113.159	-0.073	0.014
-182.071	-84.450	-0.172	-0.054
-181.056	704.430	0.144	0.372
-180.042	-54.162	0.066	-0.029
-179.027	-26.959	0.093	0.053
-178.012	-40.128	0.200	-0.102
-176.998	148.964	0.106	0.141
-175.983	458.305	-0.142	0.310
-174.969	-200.000	-0.012	0.090
-173.954	-39.493	0.192	0.099
-172.939	-200.000	0.049	-0.253
-171.925	-156.879	-0.115	0.007
-170.910	51.085	0.175	0.163
-169.896	-93.882	0.068	0.018
-168.881	-32.923	0.078	-0.042
-167.866	-174.626	0.348	0.010
-166.852	1.910	-0.136	-0.096
-165.837	-162.432	0.283	0.014
-164.823	7.084	0.166	-0.122
-163.808	629.462	-0.105	-0.261
-162.793	800.000	0.098	0.287
-161.779	-135.768	0.378	-0.044
-160.764	-200.000	0.001	0.327
-159.750	-97.063	-0.159	-0.041
-158.735	-68.071	0.072	0.028
-157.720	800.000	-0.036	0.136
-156.706	-200.000	-0.046	-0.205
-155.691	-19.386	-0.118	0.072
-154.677	141.209	-0.018	-0.023
-153.662	-151.325	0.281	0.021
-152.647	-99.511	-0.250	0.062
-151.633	-26.902	0.118	-0.068
-150.618	-114.045	0.105	0.020
-149.604	-5.565	0.045	0.031
-148.589	-7.180	-0.264	-0.176
-147.574	-200.000	0.056	0.447
-146.560	-112.544	0.178	-0.035
-145.545	-32.541	-0.057	0.031
-144.531	87.884	0.146	0.159
-143.516	3.524	-0.171	-0.123
-142.502	-153.076	0.061	0.004
-141.487	-15.653	0.208	-0.130
-140.472	-200.000	-0.003	0.155
-139.458	-147.991	0.141	0.012
-138.443	800.000	-0.134	-0.440
-137.429	-200.000	-0.012	0.082
-136.414	18.692	0.222	-0.174
-135.399	89.801	0.163	0.179
-134.385	800.000	0.142	0.545
-133.370	13.946	-0.066	0.051
-132.356	9.580	0.199	-0.148
-131.341	8.814	-0.207	-0.153
-130.326	78.952	0.015	0.016
-129.312	800.000	-0.018	-0.064
-128.297	387.903	-0.090	0.183
-127.283	-31.433	0.110	0.060
-126.268	-200.000	-0.035	-0.173
-125.253	581.113	0.101	0.243
-124.239	-200.000	-0.034	-0.149
-123.224	-200.000	0.071	0.382
-122.210	-59.839	0.221	0.093
-121.195	-59.674	0.256	0.107
-120.180	53.785	0.230	-0.217
-119.166	800.000	-0.054	-0.199
-118.151	-154.264	-0.116	-0.008
-117.137	800.000	0.017	-0.059
-116.122	-106.456	0.230	0.050
-115.107	108.133	0.099	-0.115
-114.093	-200.000	-0.012	0.127
-113.078	-151.479	0.475	0.035
-112.064	-132.283	0.319	0.040
-111.049	-200.000	-0.031	0.181
-110.034	281.362	-0.131	-0.230
-109.020	-141.880	-0.231	-0.023
-108.005	-200.000	-0.027	0.130
-106.991	-200.000	0.001	0.204
-105.976	-200.000	0.040	-0.290
-104.962	-92.421	0.193	0.053
-103.947	219.655	0.219	-0.343
-102.932	4.764	-0.291	-0.210
-101.918	703.983	-0.098	-0.252
-100.903	-29.448	0.191	-0.107
-99.889	396.168	0.052	-0.106
-98.874	24.063	-0.162	-0.131
-97.859	72.636	-0.267	0.272
-96.845	-44.209	-0.350	0.172
-95.830	127.308	0.118	0.146
-94.816	-43.795	-0.174	-0.086
-93.801	64.484	-0.296	-0.292
-92.786	329.920	-0.151	0.285
-91.772	-83.237	0.207	-0.065
-90.757	-200.000	-0.019	-0.140
-89.743	7.443	-0.234	-0.171
-88.728	-140.533	0.360	-0.037
-87.713	-117.759	-0.385	0.068
-86.699	-200.000	0.072	0.413
-85.684	19.544	-0.282	-0.222
-84.670	-39.484	0.155	0.079
-83.655	-64.920	0.293	-0.116
-82.640	668.284	-0.117	0.297
-81.626	525.622	-0.111	-0.255
-80.611	-86.073	0.132	-0.040
-79.597	83.984	-0.094	-0.100
-78.582	76.883	0.096	-0.100
-77.567	433.381	-0.022	0.048
-76.553	184.229	0.165	0.238
-75.538	171.293	0.059	0.082
-74.524	-200.000	-0.013	-0.218
-73.509	-69.705	-0.211	0.079
-72.494	204.009	0.159	0.240
-71.480	-72.482	0.133	0.048
-70.465	-24.033	0.287	0.168
-69.451	-88.667	0.517	0.150
-68.436	800.000	-0.066	0.213
-67.422	-95.831	-0.085	0.022
-66.407	10.769	0.100	0.075
-65.392	-92.137	-0.200	-0.055
-64.378	-105.305	-0.351	0.078
-63.363	-92.449	0.386	-0.106
-62.349	-65.382	-0.230	-0.090
-61.334	177.756	-0.807	-1.151
-60.319	75.738	0.486	0.502
-59.305	-200.000	-0.148	-1.263
-58.290	549.706	0.564	1.321
-57.276	382.235	0.748	1.502
-56.261	-200.000	116.651	660.308
-55.246	529.171	1532.590	3536.112
-54.232	177.440	2700.098	3844.065
-53.217	107.369	2171.266	2523.686
-52.203	37.663	1694.434	1469.994
-51.188	30.120	1511.784	1260.425
-50.173	27.992	1487.405	1225.800
-49.159	52.342	1546.773	1441.897
-48.144	50.354	1561.451	1441.953
-47.130	30.404	1516.772	1266.319
-46.115	27.263	1502.302	1232.937
-45.100	27.050	1498.850	1228.614
-44.086	27.060	1496.968	1227.090
-43.071	27.038	1494.806	1225.122
-42.057	27.062	1493.214	1223.930
-41.042	27.010	1492.049	1222.575
-40.027	27.050	1490.326	1221.384
-39.013	27.078	1488.784	1220.258
-37.998	26.987	1487.921	1218.895
-36.984	26.996	1486.615	1217.838
-35.969	27.023	1485.771	1217.274
-34.954	27.085	1484.118	1216.291
-33.940	27.060	1482.569	1214.806
-32.925	27.016	1480.972	1213.153
-31.911	26.981	1480.120	1212.176
-30.896	27.096	1478.516	1211.577
-29.881	27.088	1477.211	1210.406
-28.867	27.135	1476.275	1209.909
-27.852	27.102	1475.149	1208.715
-26.838	27.052	1473.759	1207.194
-25.823	27.084	1472.132	1206.030
-24.809	27.232	1469.795	1205.046
-23.794	27.036	1469.170	1203.186
-22.779	27.061	1467.965	1202.322
-21.765	27.151	1466.555	1201.713
-20.750	27.175	1465.146	1200.669
-19.736	27.103	1464.896	1199.939
-18.721	27.194	1463.598	1199.428
-17.706	27.002	1462.479	1197.199
-16.692	27.110	1460.972	1196.628
-15.677	27.075	1460.902	1196.295
-14.663	27.001	1459.431	1194.552
-13.648	27.030	1458.891	1194.258
-12.633	27.093	1457.697	1193.648
-11.619	26.966	1457.613	1192.693
-10.604	27.101	1455.769	1192.024
-9.590	26.895	1455.789	1190.643
-8.575	27.160	1454.137	1190.984
-7.560	27.097	1453.359	1189.883
-6.546	27.075	1452.290	1188.819
-5.531	27.009	1451.528	1187.717
-4.517	26.898	1450.841	1186.379
-3.502	27.072	1449.507	1186.381
-2.487	27.092	1448.355	1185.519
-1.473	27.005	1447.588	1184.278
-0.458	27.014	1446.208	1183.156
0.556	28.564	1436.611	1171.682
1.571	25.434	1411.569	1131.478
2.586	21.754	1352.531	1061.807
3.600	19.985	1269.940	986.810
4.615	18.739	1224.461	944.540
5.629	16.610	1168.564	890.151
6.644	10.141	1087.381	796.470
7.659	4.939	1050.410	744.523
8.673	4.278	1045.027	737.500
9.688	3.979	1042.330	734.114
10.702	3.946	1040.135	732.349
11.717	4.028	1037.944	731.129
12.731	6.363	1040.140	743.651
13.746	13.564	1050.200	785.010
14.761	20.167	1059.195	823.113
15.775	22.453	1060.913	835.232
16.790	22.007	1059.822	832.184
17.804	21.136	1057.545	826.205
18.819	20.492	1055.795	821.718
19.834	20.015	1054.784	818.603
20.848	19.941	1054.256	817.774
21.863	20.041	1053.996	817.972
22.877	19.884	1053.140	816.496
23.892	19.721	1052.180	814.911
24.907	19.682	1051.221	813.908
25.921	19.518	1050.927	812.839
26.936	19.571	1049.753	812.110
27.950	19.436	1048.859	810.709
28.965	19.515	1047.546	809.994
29.980	19.610	1046.636	809.665
30.994	19.727	1045.820	809.507
32.009	19.825	1045.043	809.296
33.023	20.017	1043.919	809.249
34.038	19.846	1043.764	808.260
35.053	19.852	1042.756	807.436
36.067	19.784	1041.059	805.733
37.082	19.615	1040.722	804.613
38.096	19.571	1039.698	803.547
39.111	19.802	1039.195	804.163
40.126	19.893	1038.087	803.654
41.140	19.609	1037.024	801.443
42.155	19.468	1035.265	799.362
43.169	19.273	1034.524	797.816
44.184	19.160	1033.325	796.298
45.199	19.088	1032.612	795.344
46.213	19.147	1031.754	794.886
47.228	19.188	1030.848	794.308
48.242	19.491	1030.414	795.297
49.257	19.773	1029.826	796.071
50.271	19.641	1028.560	794.416
51.286	19.698	1027.877	794.080
52.301	19.782	1027.059	793.766
53.315	19.781	1026.384	793.169
54.330	19.597	1025.782	791.790
55.344	19.384	1024.909	790.067
56.359	19.392	1023.177	788.699
57.374	19.336	1023.006	788.242
58.388	19.368	1021.539	787.188
59.403	19.171	1021.028	785.824
60.417	19.195	1020.021	785.090
61.432	19.121	1019.749	784.475
62.447	18.996	1018.910	783.193
63.461	19.007	1017.786	782.307
64.476	18.905	1017.343	781.435
65.490	18.867	1016.087	780.230
66.505	18.964	1014.839	779.640
67.520	18.837	1015.074	779.178
68.534	18.990	1014.130	779.074
69.549	19.034	1012.900	778.258
70.563	18.967	1012.164	777.323
71.578	18.840	1011.805	776.408
72.593	18.690	1010.333	774.529
73.607	18.655	1009.561	773.712
74.622	18.616	1008.465	772.627
75.636	18.619	1007.496	771.832
76.651	18.764	1007.135	772.136
77.666	18.769	1006.457	771.574
78.680	18.704	1005.621	770.571
79.695	18.730	1005.493	770.521
80.709	18.671	1004.941	769.765
81.724	19.008	1003.915	770.421
82.739	19.101	1003.363	770.348
83.753	19.050	1003.186	769.912
84.768	19.402	1001.914	770.443
85.782	19.763	1001.726	771.839
86.797	20.015	1001.327	772.588
87.812	20.175	1000.504	772.599
88.826	19.913	999.595	770.661
89.841	19.681	998.810	768.956
90.855	19.778	998.013	768.708
91.870	19.856	997.296	768.431
92.884	20.051	996.850	768.885
93.899	19.983	995.436	767.424
94.914	19.847	995.074	766.475
95.928	19.960	994.430	766.412
96.943	19.986	993.370	765.646
97.957	19.916	992.586	764.664
98.972	19.841	991.679	763.566
99.987	19.910	990.999	763.278
101.001	19.883	990.679	762.845
102.016	19.826	989.666	761.749
103.030	19.817	988.162	760.484
104.045	19.793	987.669	759.928
105.060	19.904	986.548	759.487
106.074	19.873	985.295	758.320
107.089	19.516	984.643	756.189
108.103	19.106	983.919	753.769
109.118	19.135	982.418	752.678
110.133	18.962	981.686	751.297
111.147	18.962	980.634	750.424
112.162	18.874	979.619	749.199
113.176	19.004	979.149	749.337
114.191	19.154	978.651	749.544
115.206	19.261	978.067	749.495
116.220	19.251	976.820	748.431
117.235	19.157	975.924	747.270
118.249	19.015	975.381	746.171
119.264	19.049	974.348	745.463
120.279	18.952	973.375	744.236
121.293	18.944	972.599	743.539
122.308	18.767	972.378	742.538
123.322	18.713	970.902	741.112
124.337	18.566	969.815	739.583
125.352	18.621	968.533	738.778
126.366	18.546	967.636	737.705
127.381	18.628	966.321	736.992
128.395	18.695	965.708	736.747
129.410	18.684	965.221	736.263
130.424	18.709	963.929	735.318
131.439	18.797	963.312	735.157
132.454	18.944	962.685	735.246
133.468	19.024	962.293	735.222
134.483	19.060	961.557	734.746
135.497	19.245	960.575	734.723
136.512	19.182	960.119	734.040
137.527	19.195	959.040	733.206
138.541	19.091	958.698	732.436
139.556	19.059	958.133	731.802
140.570	19.196	957.296	731.681
141.585	19.304	956.950	731.812
142.600	19.595	956.638	732.744
143.614	19.707	955.366	732.176
144.629	19.778	954.861	732.027
145.643	19.938	954.241	732.162
146.658	19.820	953.531	731.055
147.673	19.741	951.738	729.282
148.687	19.587	950.739	727.801
149.702	19.306	950.143	726.098
150.716	19.177	949.357	724.890
151.731	19.144	948.153	723.768
152.746	19.265	947.429	723.658
153.760	19.332	946.232	722.963
154.775	19.423	946.020	723.120
155.789	19.498	945.249	722.781
156.804	19.415	944.906	722.105
157.819	19.558	943.796	721.793
158.833	19.417	943.560	720.958
159.848	19.699	942.577	721.320
160.862	19.827	942.312	721.589
161.877	19.866	941.512	721.075
162.892	19.475	939.848	718.110
163.906	19.199	938.875	716.155
164.921	19.119	938.174	715.223
165.935	19.206	936.802	714.477
166.950	19.251	936.081	714.047
167.964	19.416	935.326	714.095
168.979	19.544	933.963	713.518
169.994	19.447	932.565	711.985
171.008	19.206	932.168	710.626
172.023	19.396	931.766	711.041
173.037	19.597	931.368	711.503
174.052	19.685	930.794	711.363
175.067	19.651	929.831	710.424
176.081	19.239	928.908	707.963
177.096	19.074	927.808	706.386
178.110	19.096	926.992	705.791
179.125	19.167	926.252	705.457
180.140	19.224	925.558	705.099
181.154	19.299	924.796	704.764
182.169	19.488	924.542	705.279
183.183	19.703	924.074	705.736
184.198	19.629	923.677	705.072
185.213	19.632	923.002	704.504
186.227	19.704	922.301	704.200
187.242	19.775	921.732	703.993
188.256	19.872	920.961	703.736
189.271	20.041	920.494	704.005
190.286	20.144	919.706	703.757
191.300	19.775	918.823	701.523
192.315	19.311	917.583	698.636
193.329	18.997	916.581	696.538
194.344	18.981	915.843	695.850
195.359	19.141	915.458	696.143
196.373	19.428	915.173	697.025
197.388	19.504	914.374	696.662
198.402	19.655	914.076	696.984
199.417	19.949	913.751	697.857
200.432	20.125	913.734	698.494
201.446	20.286	913.546	698.935
202.461	20.366	913.087	698.846
203.475	20.389	913.128	698.908
204.490	20.319	911.789	697.540
205.504	20.079	910.446	695.486
206.519	19.871	909.431	693.816
207.534	19.763	909.011	693.002
208.548	19.706	908.159	692.061
209.563	19.775	907.668	691.901
210.577	19.883	906.420	691.321
211.592	19.811	906.248	690.842
212.607	20.115	906.081	691.865
213.621	20.125	905.461	691.371
214.636	20.231	904.728	691.174
215.650	20.052	904.276	690.056
216.665	20.112	903.520	689.657
217.680	20.134	903.082	689.349
218.694	20.200	903.165	689.613
219.709	20.376	902.670	689.871
220.723	20.193	901.648	688.305
221.738	20.086	901.177	687.458
222.753	20.181	899.835	686.750
223.767	20.026	899.570	685.873
224.782	20.228	898.393	685.714
225.796	20.351	898.023	685.860
226.811	20.476	897.372	685.795
227.826	20.401	896.466	684.744
228.840	20.088	895.655	682.831
229.855	20.041	894.986	682.076
230.869	20.029	894.405	681.524
231.884	20.065	893.725	681.087
232.899	19.982	892.954	680.115
233.913	19.898	892.197	679.150
234.928	19.685	891.440	677.678
235.942	19.602	891.128	677.053
236.957	19.647	890.004	676.317
237.972	19.572	889.710	675.738
238.986	19.746	888.773	675.650
240.001	19.740	887.742	674.782
241.015	19.721	887.378	674.370
242.030	19.850	886.839	674.405
243.045	19.902	886.341	674.170
244.059	19.955	886.113	674.140
245.074	20.073	885.417	674.011
246.088	20.128	884.792	673.691
247.103	20.122	884.459	673.354
248.117	20.337	884.010	673.787
249.132	20.533	883.311	673.955
250.147	20.888	883.152	675.149
251.161	21.061	882.883	675.554
252.176	21.192	882.083	675.389
253.190	21.356	881.434	675.467
254.205	21.198	881.505	674.850
255.220	21.287	880.453	674.328
256.234	21.220	879.837	673.537
257.249	21.190	879.421	673.044
258.263	21.197	878.333	672.178
259.278	21.128	878.117	671.692
260.293	20.951	877.968	670.835
261.307	21.197	876.882	670.891
262.322	21.313	876.665	671.110
263.336	21.213	876.045	670.194
264.351	21.222	875.629	669.851
265.366	21.285	874.701	669.324
266.380	21.347	874.244	669.152
267.395	21.333	873.196	668.238
268.409	21.244	872.059	666.967
269.424	21.119	871.504	666.007
270.439	21.194	870.926	665.792
271.453	20.950	870.389	664.394
272.468	21.102	869.168	663.980
273.482	20.891	868.758	662.804
274.497	20.917	868.468	662.626
275.512	20.990	867.178	661.861
276.526	20.802	867.192	661.098
277.541	20.947	866.228	660.853
278.555	21.048	865.681	660.760
279.570	21.044	865.620	660.641
280.585	21.472	865.312	661.967
281.599	21.309	864.928	660.998
282.614	21.281	863.776	659.954
283.628	21.052	863.227	658.613
284.643	20.912	862.550	657.509
285.657	20.884	862.068	656.977
286.672	21.002	861.615	657.017
287.687	20.976	860.857	656.285
288.701	20.956	860.751	656.071
289.716	21.032	859.548	655.381
290.730	21.054	859.158	655.110
291.745	21.119	858.504	654.795
292.760	21.110	858.249	654.508
293.774	21.302	857.185	654.358
294.789	21.495	857.137	654.986
295.803	21.565	856.225	654.494
296.818	21.116	855.878	652.492
297.833	21.132	854.560	651.491
298.847	20.975	854.459	650.768
299.862	21.168	853.630	650.801
300.876	21.252	852.800	650.421
301.891	21.341	852.635	650.569
302.906	21.373	852.080	650.208
303.920	21.502	851.600	650.262
304.935	21.713	851.386	650.826
305.949	21.837	850.810	650.787
306.964	21.871	849.880	650.147
307.979	21.555	849.093	648.315
308.993	21.524	848.536	647.720
310.008	21.569	848.386	647.712
311.022	21.736	848.053	648.021
312.037	21.622	847.667	647.246
313.052	21.387	846.744	645.617
314.066	21.204	845.570	643.990
315.081	21.135	844.676	642.997
316.095	21.089	844.346	642.521
317.110	20.986	844.483	642.187
318.125	21.170	843.024	641.697
319.139	20.992	843.158	641.087
320.154	21.011	842.320	640.463
321.168	20.872	842.253	639.845
322.183	21.203	841.126	640.148
323.197	21.401	840.590	640.407
324.212	21.242	840.367	639.600
325.227	21.254	839.687	639.070
326.241	21.305	839.020	638.691
327.256	21.306	838.535	638.270
328.270	21.176	837.861	637.225
329.285	21.185	837.352	636.814
330.300	21.041	836.701	635.737
331.314	20.996	836.432	635.313
332.329	21.178	835.599	635.286
333.343	21.383	835.085	635.584
334.358	21.617	834.541	635.966
335.373	21.442	834.573	635.298
336.387	21.620	833.551	635.110
337.402	21.706	833.362	635.219
338.416	21.763	833.189	635.240
339.431	21.905	832.209	634.948
340.446	22.162	832.138	635.768
341.460	22.266	831.567	635.652
342.475	22.052	831.612	634.858
343.489	22.246	830.746	634.838
344.504	22.225	830.184	634.279
345.519	22.440	829.786	634.694
346.533	22.363	829.552	634.181
347.548	22.442	828.773	633.815
348.562	22.029	828.068	631.733
349.577	21.867	826.987	630.270
350.592	21.753	826.463	629.407
351.606	21.479	825.897	627.938
352.621	21.618	825.425	628.021
353.635	21.588	824.885	627.447
354.650	21.632	824.456	627.221
355.665	21.785	824.272	627.575
356.679	21.879	823.571	627.321
357.694	21.760	823.634	626.888
358.708	21.940	822.389	626.527
359.723	21.843	822.305	626.061
360.738	21.947	821.706	625.923
361.752	21.973	821.128	625.517
362.767	21.964	821.081	625.394
363.781	22.145	820.491	625.534
364.796	22.218	820.136	625.468
365.810	22.618	819.858	626.623
366.825	22.648	819.836	626.657
367.840	22.678	819.577	626.510
368.854	22.649	818.951	625.872
369.869	22.478	817.981	624.472
370.883	22.251	817.591	623.313
371.898	22.273	817.224	623.056
372.913	22.373	816.149	622.534
373.927	22.546	815.891	622.896
374.942	22.385	815.215	621.755
375.956	22.373	814.465	621.086
376.971	22.614	814.152	621.642
377.986	22.589	813.705	621.158
379.000	22.870	813.177	621.688
380.015	22.816	812.765	621.131
381.029	22.729	811.959	620.153
382.044	22.609	811.511	619.333
383.059	22.746	810.450	618.952
384.073	22.708	810.536	618.827
385.088	22.793	809.774	618.487
386.102	22.378	808.865	616.287
387.117	22.306	808.342	615.583
388.132	22.297	807.771	615.063
389.146	22.103	807.440	614.076
390.161	22.205	807.184	614.183
391.175	22.399	806.839	614.544
392.190	22.496	806.705	614.725
393.205	22.585	805.721	614.233
394.219	22.295	805.378	612.906
395.234	22.182	804.655	611.909
396.248	22.165	804.051	611.335
397.263	22.106	803.721	610.826
398.278	21.953	803.122	609.783
399.292	21.991	802.620	609.482
400.307	21.995	802.214	609.133
401.321	21.963	801.713	608.588
402.336	21.952	801.387	608.250
403.350	22.196	800.858	608.638
404.365	22.406	800.557	609.082
405.380	22.463	800.219	608.969
406.394	22.624	799.941	609.261
407.409	22.766	799.720	609.527
408.423	22.867	799.474	609.637
409.438	23.166	798.302	609.718
410.453	22.962	798.457	609.078
411.467	22.978	798.327	608.983
412.482	23.098	797.850	608.977
413.496	23.091	797.313	608.490
414.511	23.459	796.884	609.374
415.526	23.328	796.395	608.497
416.540	23.179	795.949	607.588
417.555	23.153	795.371	607.005
418.569	22.976	795.331	606.313
419.584	23.061	794.596	605.990
420.599	23.175	794.078	605.933
421.613	164.918	1370.867	1798.182
422.628	143.108	1454.919	1798.300
