DTS Sentinel unit serial number:	SN413079Multiplexer serial number:	ORYXHardware model number:	OX4-SRSoftware version number:	ORYX F/W v4.00 Oryx Data Collector v3.7.2.0data status	okinstallation	princeton_trtdifferential loss correction	single-endedforward channel	channel 3reverse channel	N/Adate	2019/09/10time	23:34:10forward acquisition time	60.00reverse acquisition time	0.00gamma	496.2192k internal	0.2330k external	0.2330temperature offset calibration	0.9922default loss term (dB/km)	0.3790temperature slope calibration	1.0000multiplexer offset coefficient	1.0000multiplexer slope coefficient	1.0000fibre end	0.00T internal ref (°C)	29.64T ext. ref 1 (°C)	-0.31T ext. ref 2 (°C)	23.11length (m)	temperature (°C)	Stokes	anti-Stokes-747.200	-200.000	-0.026	0.201
-746.185	-106.978	-0.167	0.037
-745.171	-200.000	-0.027	0.285
-744.156	-200.000	-0.048	0.216
-743.142	-200.000	0.077	0.429
-742.127	-149.741	-0.282	-0.022
-741.112	24.251	-0.111	-0.092
-740.098	-200.000	0.001	0.057
-739.083	216.390	0.078	0.124
-738.069	-200.000	0.021	0.289
-737.054	-158.491	0.342	-0.020
-736.039	-29.259	-0.136	-0.078
-735.025	-111.055	-0.142	-0.029
-734.010	-64.822	-0.388	-0.158
-732.996	-54.338	-0.193	0.088
-731.981	148.863	-0.192	-0.261
-730.966	-48.059	-0.181	-0.088
-729.952	285.779	-0.041	-0.073
-728.937	-57.902	-0.444	-0.195
-727.923	-48.379	-0.257	-0.125
-726.908	386.246	-0.164	0.340
-725.894	-200.000	0.051	-0.240
-724.879	-105.111	-0.360	-0.083
-723.864	-123.370	0.312	0.050
-722.850	-15.624	-0.260	0.167
-721.835	-200.000	0.020	-0.223
-720.821	-19.578	-0.167	-0.104
-719.806	387.310	0.056	-0.116
-718.791	-61.969	0.183	-0.077
-717.777	-45.177	-0.344	-0.172
-716.762	-135.237	0.261	-0.031
-715.748	246.327	0.093	-0.157
-714.733	252.860	-0.205	0.352
-713.718	615.414	-0.045	-0.114
-712.704	150.442	0.188	0.257
-711.689	149.994	0.202	0.276
-710.675	-159.626	-0.054	-0.003
-709.660	-200.000	0.028	-0.139
-708.645	-50.482	-0.328	0.155
-707.631	44.033	-0.237	-0.219
-706.616	-125.476	0.152	0.023
-705.602	800.000	0.048	-0.202
-704.587	-200.000	0.004	-0.212
-703.572	-195.161	0.145	0.001
-702.558	-126.997	-0.223	0.033
-701.543	-26.710	-0.146	0.086
-700.529	-123.585	0.502	0.080
-699.514	800.000	0.016	0.060
-698.499	-39.838	0.189	0.099
-697.485	90.422	-0.080	-0.090
-696.470	-200.000	0.005	-0.140
-695.456	800.000	0.096	0.266
-694.441	-200.000	-0.009	-0.241
-693.426	-127.124	-0.181	0.027
-692.412	58.182	-0.103	-0.101
-691.397	-200.000	-0.020	-0.254
-690.383	544.251	0.030	-0.072
-689.368	-200.000	-0.062	0.437
-688.354	587.775	-0.033	0.081
-687.339	167.528	0.173	0.247
-686.324	77.397	-0.242	0.259
-685.310	-200.000	-0.002	0.078
-684.295	60.223	-0.046	0.046
-683.281	169.973	-0.039	-0.055
-682.266	540.653	-0.135	-0.324
-681.251	-163.846	-0.327	0.015
-680.237	-170.349	-0.222	0.008
-679.222	800.000	0.068	-0.235
-678.208	-175.918	-0.262	-0.007
-677.193	800.000	0.032	0.093
-676.178	-68.190	0.374	-0.146
-675.164	118.106	0.143	-0.177
-674.149	-200.000	-0.014	0.444
-673.135	12.202	-0.100	-0.077
-672.120	368.939	0.108	0.220
-671.105	-119.600	0.259	0.045
-670.091	499.952	-0.034	0.080
-669.076	19.876	-0.096	-0.077
-668.062	-155.487	-0.229	-0.015
-667.047	17.105	0.088	-0.070
-666.032	251.440	-0.193	-0.330
-665.018	800.000	-0.054	0.170
-664.003	800.000	-0.097	-0.332
-662.989	-63.692	-0.113	-0.047
-661.974	-63.293	-0.083	0.034
-660.959	-32.079	0.157	0.088
-659.945	-53.718	0.068	0.031
-658.930	282.861	0.074	0.133
-657.916	108.488	-0.059	0.071
-656.901	32.649	-0.094	0.081
-655.886	-38.855	0.417	0.220
-654.872	-131.791	0.208	-0.027
-653.857	194.264	-0.018	0.027
-652.843	-200.000	-0.030	0.241
-651.828	105.334	0.292	-0.346
-650.814	684.781	0.091	-0.238
-649.799	-54.616	0.088	-0.040
-648.784	-148.939	-0.237	0.019
-647.770	800.000	-0.035	-0.138
-646.755	-120.603	0.021	0.004
-645.741	126.341	0.062	0.079
-644.726	-200.000	-0.017	-0.226
-643.711	-79.793	-0.044	-0.015
-642.697	-155.405	-0.257	-0.017
-641.682	107.722	0.194	-0.231
-640.668	-84.699	0.040	-0.013
-639.653	141.374	-0.235	-0.311
-638.638	97.198	0.219	0.252
-637.624	800.000	-0.051	-0.187
-636.609	-200.000	0.013	-0.068
-635.595	-109.975	-0.450	-0.094
-634.580	-62.234	-0.053	0.022
-633.565	-132.834	-0.087	0.011
-632.551	-200.000	-0.003	-0.020
-631.536	-71.236	0.357	-0.134
-630.522	274.543	-0.076	-0.134
-629.507	72.037	0.082	0.085
-628.492	-78.556	0.098	-0.033
-627.478	-47.774	-0.142	-0.069
-626.463	-200.000	0.021	-0.247
-625.449	240.829	0.084	-0.141
-624.434	106.778	0.155	0.184
-623.419	216.361	-0.013	0.021
-622.405	-200.000	-0.017	-0.281
-621.390	193.402	0.131	0.198
-620.376	-94.914	0.187	0.051
-619.361	-119.398	0.142	0.025
-618.346	-200.000	-0.021	0.227
-617.332	-70.992	0.489	-0.185
-616.317	-91.169	-0.226	-0.065
-615.303	-116.463	0.081	0.015
-614.288	800.000	0.020	-0.058
-613.273	-100.797	0.166	-0.041
-612.259	-147.193	-0.188	0.016
-611.244	-186.106	-0.170	0.002
-610.230	380.037	-0.186	-0.383
-609.215	534.634	0.091	-0.217
-608.201	-200.000	0.002	-0.188
-607.186	317.167	-0.023	-0.043
-606.171	-78.814	-0.093	0.032
-605.157	90.676	-0.146	0.164
-604.142	-187.635	0.342	-0.005
-603.128	800.000	-0.092	0.386
-602.113	-49.719	0.141	-0.067
-601.098	601.828	0.092	-0.228
-600.084	800.000	0.023	-0.076
-599.069	76.282	0.128	0.135
-598.055	-145.868	-0.089	0.008
-597.040	-200.000	-0.007	-0.314
-596.025	-200.000	0.004	0.187
-595.011	24.704	0.134	-0.111
-593.996	-139.618	-0.183	-0.020
-592.982	-162.494	-0.240	-0.012
-591.967	22.415	0.195	-0.160
-590.952	17.974	0.338	0.269
-589.938	-91.705	0.239	-0.068
-588.923	-121.893	-0.332	0.055
-587.909	121.696	-0.242	-0.301
-586.894	-136.730	-0.229	0.026
-585.879	-200.000	0.017	-0.085
-584.865	532.053	-0.081	-0.193
-583.850	800.000	-0.058	-0.190
-582.836	22.066	0.259	-0.211
-581.821	-10.209	-0.167	0.111
-580.806	81.054	0.171	-0.185
-579.792	327.659	0.158	-0.302
-578.777	-128.153	0.055	0.008
-577.763	-112.896	-0.148	-0.029
-576.748	-0.805	0.142	-0.101
-575.733	355.492	-0.102	0.202
-574.719	164.925	0.074	0.105
-573.704	105.953	0.140	-0.165
-572.690	-192.651	0.068	-0.001
-571.675	-50.297	-0.288	-0.136
-570.661	101.858	-0.167	0.195
-569.646	-80.176	-0.084	-0.028
-568.631	380.191	-0.051	0.104
-567.617	43.810	0.083	0.076
-566.602	-200.000	-0.008	0.124
-565.588	-72.339	-0.174	0.064
-564.573	-71.412	0.108	0.040
-563.558	-200.000	-0.009	0.307
-562.544	54.078	-0.083	-0.080
-561.529	291.269	-0.234	-0.425
-560.515	103.159	0.197	-0.231
-559.500	-56.392	0.063	0.028
-558.485	-58.530	0.323	0.140
-557.471	64.451	-0.155	0.156
-556.456	112.419	0.120	-0.145
-555.442	277.159	-0.026	-0.047
-554.427	-133.853	-0.319	-0.040
-553.412	249.293	0.095	0.162
-552.398	87.963	0.189	0.210
-551.383	-105.383	-0.243	0.055
-550.369	77.918	0.074	0.079
-549.354	68.666	-0.097	-0.100
-548.339	-36.045	-0.282	-0.152
-547.325	-200.000	-0.064	0.347
-546.310	67.209	0.061	0.062
-545.296	-200.000	-0.010	-0.134
-544.281	277.854	0.108	-0.193
-543.266	201.088	0.169	-0.260
-542.252	207.083	-0.150	-0.233
-541.237	-114.440	0.472	0.091
-540.223	-200.000	-0.034	0.167
-539.208	-98.035	0.142	0.037
-538.193	285.506	0.022	-0.039
-537.179	-200.000	0.015	-0.153
-536.164	-137.719	-0.293	0.033
-535.150	-39.299	-0.307	0.161
-534.135	-106.158	0.279	0.063
-533.121	-70.933	0.034	0.013
-532.106	23.200	0.095	0.078
-531.091	527.441	-0.084	0.198
-530.077	-30.360	-0.439	0.249
-529.062	-63.739	0.305	-0.125
-528.048	80.228	-0.246	0.264
-527.033	-200.000	-0.017	0.117
-526.018	-59.281	-0.218	-0.094
-525.004	320.927	-0.165	-0.313
-523.989	-47.070	0.261	0.127
-522.975	-70.248	0.138	0.052
-521.960	-200.000	-0.039	0.258
-520.945	-104.023	-0.169	0.039
-519.931	-200.000	0.023	0.208
-518.916	800.000	0.049	-0.167
-517.902	-196.989	-0.028	-0.000
-516.887	-200.000	-0.056	0.302
-515.872	15.236	-0.115	-0.090
-514.858	-11.849	-0.154	0.101
-513.843	-35.632	0.238	-0.129
-512.829	38.379	-0.026	0.023
-511.814	-200.000	-0.083	0.443
-510.799	-8.513	-0.089	-0.060
-509.785	120.878	-0.155	0.192
-508.770	49.125	-0.252	0.236
-507.756	130.479	0.117	-0.150
-506.741	-200.000	-0.017	0.245
-505.726	-176.627	-0.111	-0.003
-504.712	800.000	-0.013	0.053
-503.697	-125.891	-0.309	0.046
-502.683	-118.698	-0.041	-0.007
-501.668	-24.231	0.378	0.225
-500.653	169.922	0.071	-0.102
-499.639	-121.889	-0.514	0.085
-498.624	67.858	-0.193	-0.197
-497.610	800.000	0.086	-0.259
-496.595	15.724	0.214	-0.168
-495.581	135.752	0.063	-0.081
-494.566	800.000	-0.011	-0.033
-493.551	-19.436	-0.072	-0.045
-492.537	127.905	0.076	-0.097
-491.522	6.901	0.037	-0.028
-490.508	-108.516	-0.256	0.055
-489.493	-66.046	0.164	0.065
-488.478	-81.854	-0.386	0.126
-487.464	-200.000	-0.009	-0.205
-486.449	6.028	-0.181	-0.134
-485.435	-98.136	-0.330	0.085
-484.420	800.000	-0.022	-0.085
-483.405	-71.698	0.099	0.037
-482.391	370.614	0.102	0.206
-481.376	249.373	0.161	0.272
-480.362	338.850	0.073	0.142
-479.347	717.192	-0.050	0.131
-478.332	94.828	0.181	0.205
-477.318	-163.637	-0.042	-0.002
-476.303	-102.116	-0.257	0.062
-475.289	-37.400	-0.273	-0.145
-474.274	-106.059	-0.214	-0.048
-473.259	-143.346	0.146	-0.014
-472.245	-72.311	-0.045	-0.017
-471.230	143.524	0.056	-0.075
-470.216	-44.462	0.223	0.111
-469.201	-137.126	0.174	-0.020
-468.186	800.000	0.047	0.188
-467.172	46.809	-0.350	0.324
-466.157	390.207	0.043	-0.088
-465.143	-23.220	-0.408	0.245
-464.128	61.473	0.066	-0.065
-463.113	717.729	-0.043	-0.113
-462.099	-171.934	0.492	0.016
-461.084	-200.000	-0.068	-0.455
-460.070	150.694	0.197	0.266
-459.055	800.000	-0.130	-0.362
-458.040	76.767	0.057	0.060
-457.026	-153.435	-0.049	0.003
-456.011	115.590	-0.011	-0.013
-454.997	-200.000	-0.028	0.236
-453.982	-200.000	-0.040	-0.211
-452.968	291.562	0.090	0.163
-451.953	-9.173	-0.087	0.058
-450.938	-141.790	0.069	-0.007
-449.924	-75.508	-0.329	-0.117
-448.909	279.517	-0.070	0.124
-447.895	-121.421	0.255	-0.042
-446.880	254.584	-0.139	0.236
-445.865	-63.045	0.111	-0.046
-444.851	800.000	0.069	0.273
-443.836	-73.949	-0.238	-0.086
-442.822	-95.162	0.028	-0.007
-441.807	-194.437	-0.362	0.003
-440.792	186.011	0.225	-0.332
-439.778	-81.920	-0.148	0.048
-438.763	-164.304	-0.124	-0.006
-437.749	-163.389	0.180	-0.009
-436.734	26.214	0.250	0.208
-435.719	274.301	-0.095	0.167
-434.705	-21.926	-0.047	0.029
-433.690	-30.382	-0.427	0.241
-432.676	39.527	-0.252	-0.225
-431.661	69.241	-0.178	-0.182
-430.646	88.955	0.270	0.299
-429.632	112.687	-0.102	-0.123
-428.617	-73.712	0.112	-0.040
-427.603	291.444	0.063	0.114
-426.588	-70.308	-0.285	0.107
-425.573	-77.858	0.117	0.040
-424.559	-32.468	0.301	-0.167
-423.544	55.156	-0.094	0.090
-422.530	-200.000	0.036	0.226
-421.515	521.963	-0.099	0.232
-420.500	-83.073	-0.072	-0.023
-419.486	256.795	0.140	-0.238
-418.471	245.810	-0.096	-0.161
-417.457	-45.222	-0.133	0.066
-416.442	-18.556	0.164	-0.102
-415.428	-22.376	0.092	-0.055
-414.413	-42.645	0.108	0.055
-413.398	1.306	-0.199	0.142
-412.384	-110.530	0.295	0.061
-411.369	13.558	0.179	-0.138
-410.355	-7.710	-0.121	0.081
-409.340	-139.930	-0.138	-0.014
-408.325	116.497	-0.217	0.264
-407.311	-112.706	0.092	0.018
-406.296	-200.000	0.006	0.091
-405.282	-38.611	-0.264	-0.138
-404.267	293.295	-0.031	-0.055
-403.252	401.913	0.034	-0.071
-402.238	-1.186	0.190	-0.133
-401.223	-200.000	-0.051	-0.421
-400.209	-42.806	0.131	0.066
-399.194	-200.000	-0.013	-0.257
-398.179	541.638	0.103	-0.244
-397.165	-38.738	0.242	-0.127
-396.150	-200.000	0.022	0.242
-395.136	297.655	-0.107	0.195
-394.121	-191.934	-0.150	0.001
-393.106	-144.694	0.175	-0.016
-392.092	-56.283	0.202	0.089
-391.077	18.073	0.141	-0.112
-390.063	800.000	-0.140	-0.433
-389.048	-3.093	-0.144	-0.099
-388.033	59.280	0.259	-0.253
-387.019	800.000	0.042	0.130
-386.004	-200.000	-0.003	-0.131
-384.990	800.000	0.059	-0.256
-383.975	7.664	-0.114	0.085
-382.960	-58.666	-0.100	-0.043
-381.946	-114.141	0.286	-0.055
-380.931	78.367	0.226	0.240
-379.917	206.486	0.136	-0.210
-378.902	369.754	0.011	0.021
-377.888	800.000	-0.181	-0.495
-376.873	341.735	-0.076	-0.147
-375.858	-200.000	-0.025	-0.152
-374.844	148.982	0.302	0.405
-373.829	-129.784	-0.051	0.007
-372.815	389.181	0.077	0.158
-371.800	-86.302	-0.310	-0.095
-370.785	-127.520	-0.516	0.074
-369.771	-200.000	-0.056	-0.283
-368.756	800.000	-0.056	0.243
-367.742	-167.136	0.172	0.007
-366.727	800.000	-0.049	-0.172
-365.712	179.165	0.145	-0.210
-364.698	42.023	-0.039	-0.036
-363.683	-14.311	0.080	-0.051
-362.669	-138.837	0.470	-0.051
-361.654	800.000	0.066	0.181
-360.639	800.000	0.074	0.299
-359.625	475.519	0.061	-0.136
-358.610	-137.588	-0.176	0.020
-357.596	-163.737	-0.169	-0.008
-356.581	551.946	-0.040	-0.096
-355.566	75.878	0.054	0.057
-354.552	185.051	0.256	-0.377
-353.537	115.814	0.218	-0.264
-352.523	-31.663	0.269	0.150
-351.508	222.808	-0.043	-0.068
-350.493	-200.000	0.024	0.201
-349.479	-59.853	0.075	0.032
-348.464	-51.515	0.276	0.128
-347.450	-162.535	-0.186	-0.009
-346.435	-200.000	-0.011	0.308
-345.420	56.316	-0.177	0.171
-344.406	-102.961	0.113	0.027
-343.391	279.445	-0.070	0.124
-342.377	-47.998	-0.114	-0.055
-341.362	34.501	-0.234	-0.203
-340.348	-139.183	-0.409	-0.044
-339.333	224.043	0.097	-0.155
-338.318	-200.000	0.067	-0.415
-337.304	23.384	0.159	-0.129
-336.289	787.843	0.066	-0.180
-335.275	65.585	0.171	0.172
-334.260	-38.693	0.053	-0.028
-333.245	138.828	-0.177	0.231
-332.231	603.058	-0.153	0.376
-331.216	-175.843	0.201	0.005
-330.202	17.274	0.238	-0.187
-329.187	31.615	-0.055	0.047
-328.172	8.496	0.100	0.075
-327.158	22.715	-0.119	-0.097
-326.143	800.000	-0.036	-0.107
-325.129	-200.000	0.004	-0.022
-324.114	148.369	-0.243	-0.325
-323.099	-35.017	-0.383	0.207
-322.085	-123.689	0.076	0.012
-321.070	30.562	-0.104	-0.088
-320.056	-200.000	-0.024	-0.254
-319.041	-198.867	-0.033	-0.000
-318.026	19.010	0.171	0.136
-317.012	-200.000	0.004	-0.032
-315.997	329.903	-0.042	-0.079
-314.983	-19.197	0.258	-0.159
-313.968	-200.000	-0.015	0.089
-312.953	260.957	-0.300	0.513
-311.939	-116.297	0.305	-0.056
-310.924	31.840	0.157	0.134
-309.910	687.673	-0.054	-0.139
-308.895	482.678	0.206	0.464
-307.880	148.805	-0.042	0.057
-306.866	-200.000	0.006	-0.085
-305.851	-200.000	0.083	0.406
-304.837	-200.000	-0.007	0.091
-303.822	-114.419	-0.309	-0.059
-302.807	-200.000	-0.062	-0.424
-301.793	-77.195	-0.155	0.053
-300.778	-89.889	0.284	0.082
-299.764	-70.734	0.178	-0.067
-298.749	-55.583	-0.287	0.127
-297.735	800.000	-0.035	0.100
-296.720	335.932	-0.163	-0.312
-295.705	-200.000	-0.003	0.022
-294.691	99.575	-0.151	0.172
-293.676	-200.000	0.003	0.268
-292.662	-200.000	-0.013	0.264
-291.647	599.577	0.062	-0.152
-290.632	-43.666	-0.184	-0.092
-289.618	-112.971	0.427	-0.084
-288.603	-5.159	-0.167	-0.114
-287.589	-49.953	-0.257	-0.120
-286.574	-170.496	0.078	-0.003
-285.559	289.440	0.084	0.151
-284.545	-126.749	-0.146	-0.021
-283.530	364.350	-0.093	0.185
-282.516	800.000	-0.082	-0.271
-281.501	-200.000	0.006	-0.109
-280.486	800.000	0.094	-0.394
-279.472	-164.094	0.073	-0.003
-278.457	394.948	0.162	0.334
-277.443	109.753	-0.158	-0.187
-276.428	-146.107	-0.381	0.033
-275.413	23.692	0.215	0.175
-274.399	2.835	-0.261	-0.187
-273.384	-161.092	0.268	0.014
-272.370	126.947	0.096	-0.120
-271.355	138.481	0.216	-0.281
-270.340	117.269	-0.063	0.077
-269.326	48.956	0.101	0.094
-268.311	-200.000	0.015	0.195
-267.297	-7.074	0.082	0.055
-266.282	-133.206	0.256	0.032
-265.267	-3.466	-0.127	-0.087
-264.253	-66.575	0.183	0.072
-263.238	150.732	0.159	0.213
-262.224	70.403	0.029	-0.029
-261.209	-99.532	-0.245	-0.061
-260.195	-39.591	0.236	0.122
-259.180	120.199	0.089	-0.109
-258.165	591.883	0.060	0.147
-257.151	-155.670	-0.158	-0.010
-256.136	66.386	0.046	-0.046
-255.122	-200.000	-0.025	0.205
-254.107	37.161	-0.151	-0.132
-253.092	218.451	-0.076	0.119
-252.078	226.001	0.107	-0.171
-251.063	-62.449	-0.196	-0.080
-250.049	-200.000	0.017	-0.170
-249.034	-200.000	-0.045	-0.234
-248.019	491.741	0.112	0.254
-247.005	-200.000	0.301	0.001
-245.990	-85.705	0.452	-0.138
-244.976	384.148	0.164	0.333
-243.961	580.642	0.023	-0.056
-242.946	36.245	-0.184	-0.160
-241.932	181.018	0.152	-0.221
-240.917	-200.000	-0.020	-0.113
-239.903	44.879	0.129	0.117
-238.888	-116.179	0.069	-0.013
-237.873	-62.920	-0.099	-0.040
-236.859	800.000	-0.054	-0.157
-235.844	-143.723	-0.041	0.004
-234.830	386.066	0.084	-0.170
-233.815	-47.674	-0.370	0.177
-232.800	13.533	-0.202	0.155
-231.786	141.081	-0.247	-0.322
-230.771	-2.491	0.329	-0.227
-229.757	-155.750	-0.261	-0.016
-228.742	32.447	-0.295	0.251
-227.727	29.489	-0.206	-0.173
-226.713	-142.616	0.187	-0.018
-225.698	-200.000	-0.012	0.092
-224.684	-94.446	0.304	0.082
-223.669	-22.699	0.076	0.045
-222.655	18.709	0.295	-0.233
-221.640	-52.307	0.244	-0.111
-220.625	685.945	-0.091	-0.235
-219.611	-133.618	0.320	-0.039
-218.596	800.000	-0.040	-0.131
-217.582	209.271	0.219	-0.338
-216.567	-55.056	0.150	0.067
-215.552	156.974	-0.077	-0.104
-214.538	486.816	-0.078	0.174
-213.523	-47.917	-0.089	0.042
-212.509	-72.074	0.285	-0.104
-211.494	307.784	0.190	0.349
-210.479	800.000	0.177	0.541
-209.465	-143.366	0.130	0.012
-208.450	800.000	-0.041	0.168
-207.436	-31.048	0.360	-0.200
-206.421	-16.347	0.123	0.077
-205.406	246.472	0.131	0.217
-204.392	800.000	0.223	0.625
-203.377	-33.188	-0.208	-0.114
-202.363	-200.000	0.027	0.289
-201.348	16.996	0.174	0.136
-200.333	-73.612	-0.350	-0.126
-199.319	129.430	0.119	-0.149
-198.304	-200.000	-0.037	0.254
-197.290	-33.165	0.112	0.061
-196.275	-0.330	0.107	-0.075
-195.260	786.151	0.053	0.144
-194.246	101.205	0.157	-0.180
-193.231	-27.379	-0.284	0.163
-192.217	102.105	0.078	0.090
-191.202	236.716	-0.082	0.134
-190.187	-57.795	-0.290	-0.125
-189.173	-200.000	-0.021	0.243
-188.158	-65.173	-0.290	-0.115
-187.144	800.000	-0.041	-0.141
-186.129	7.709	-0.206	0.152
-185.114	36.667	-0.352	-0.306
-184.100	-200.000	-0.023	-0.186
-183.085	137.818	-0.138	0.179
-182.071	19.908	-0.022	-0.017
-181.056	-121.205	0.229	0.038
-180.042	271.247	-0.037	-0.064
-179.027	-102.716	-0.057	0.013
-178.012	-125.065	0.279	0.042
-176.998	-200.000	0.009	0.102
-175.983	-191.558	0.114	-0.001
-174.969	-200.000	-0.002	-0.209
-173.954	-200.000	-0.019	0.221
-172.939	236.165	-0.215	0.349
-171.925	42.024	0.270	-0.242
-170.910	-149.973	0.037	-0.003
-169.896	69.653	0.049	-0.050
-168.881	-35.044	0.303	0.162
-167.866	800.000	0.084	0.361
-166.852	800.000	-0.070	0.247
-165.837	74.907	-0.132	-0.137
-164.823	-136.007	-0.130	0.015
-163.808	541.334	-0.117	-0.274
-162.793	-200.000	0.008	0.192
-161.779	685.239	0.134	-0.344
-160.764	-52.816	-0.127	-0.057
-159.750	104.718	-0.202	0.234
-158.735	-200.000	-0.037	0.285
-157.720	-82.401	0.220	0.070
-156.706	-0.709	-0.197	0.137
-155.691	-19.051	0.047	-0.029
-154.677	301.155	-0.080	0.145
-153.662	171.249	-0.198	0.280
-152.647	-57.511	0.230	-0.099
-151.633	258.655	0.126	0.214
-150.618	-137.266	-0.116	-0.013
-149.604	767.374	-0.040	-0.106
-148.589	-74.647	-0.122	-0.043
-147.574	128.401	-0.146	0.183
-146.560	-17.092	0.145	0.090
-145.545	-115.068	0.360	0.067
-144.531	56.041	-0.127	0.121
-143.516	238.075	0.113	-0.184
-142.502	-22.508	0.191	0.114
-141.487	-115.233	0.087	-0.016
-140.472	-88.388	-0.220	0.065
-139.458	-18.756	0.339	-0.208
-138.443	30.751	0.109	-0.092
-137.429	-200.000	-0.007	-0.118
-136.414	-168.273	0.227	-0.009
-135.399	-116.677	0.138	-0.025
-134.385	-90.358	0.169	-0.048
-133.370	-198.357	-0.119	-0.001
-132.356	67.801	0.034	-0.034
-131.341	-1.391	0.260	0.180
-130.326	-49.103	0.302	0.142
-129.312	227.132	0.169	0.270
-128.297	117.572	0.149	0.180
-127.283	126.171	-0.203	0.252
-126.268	-87.761	-0.209	-0.062
-125.253	97.443	-0.166	-0.187
-124.239	800.000	0.051	0.196
-123.224	418.427	0.144	0.302
-122.210	754.196	-0.066	-0.176
-121.195	234.104	0.037	-0.059
-120.180	800.000	-0.114	-0.323
-119.166	800.000	0.101	-0.330
-118.151	-111.632	-0.275	0.055
-117.137	800.000	0.063	0.261
-116.122	393.831	-0.206	0.422
-115.107	-110.269	-0.171	0.035
-114.093	26.451	0.048	-0.039
-113.078	342.361	-0.124	-0.239
-112.064	-200.000	0.035	0.300
-111.049	-200.000	0.010	-0.179
-110.034	565.138	-0.071	0.170
-109.020	800.000	0.071	-0.207
-108.005	-113.849	-0.176	-0.034
-106.991	-159.491	0.384	0.021
-105.976	68.650	0.316	0.318
-104.962	-200.000	0.021	-0.216
-103.947	73.777	-0.241	-0.248
-102.932	-178.252	0.152	-0.003
-101.918	-57.407	-0.259	-0.112
-100.903	-41.821	-0.227	0.114
-99.889	-200.000	-0.077	-0.380
-98.874	211.179	0.315	-0.487
-97.859	34.449	-0.078	0.067
-96.845	-128.476	-0.245	-0.034
-95.830	191.519	-0.079	-0.117
-94.816	-157.072	-0.314	-0.019
-93.801	398.673	0.082	-0.168
-92.786	-104.372	-0.025	0.006
-91.772	9.645	0.174	-0.129
-90.757	-72.603	-0.182	0.066
-89.743	16.999	-0.156	0.121
-88.728	-200.000	-0.064	-0.282
-87.713	-200.000	0.063	-0.383
-86.699	37.790	0.110	0.096
-85.684	-17.491	0.112	0.069
-84.670	589.398	-0.009	-0.021
-83.655	-31.259	-0.291	-0.161
-82.640	800.000	0.061	-0.167
-81.626	-25.584	-0.085	-0.049
-80.611	800.000	-0.130	0.515
-79.597	800.000	0.011	0.031
-78.582	547.211	-0.084	0.198
-77.567	-30.296	-0.196	0.109
-76.553	-64.352	0.180	0.072
-75.538	364.463	-0.061	0.120
-74.524	-78.069	-0.254	0.086
-73.509	-5.710	0.152	0.102
-72.494	75.729	-0.076	-0.078
-71.480	324.685	0.095	0.179
-70.465	18.499	-0.183	0.143
-69.451	-200.000	0.008	0.141
-68.436	-50.674	0.215	0.099
-67.422	-151.513	-0.317	-0.023
-66.407	-151.613	0.288	-0.021
-65.392	-8.191	0.271	-0.179
-64.378	-105.924	0.216	0.048
-63.363	-200.000	-0.059	-0.277
-62.349	-200.000	0.058	-0.263
-61.334	66.863	-0.780	-0.779
-60.319	74.185	0.757	0.779
-59.305	-200.000	-0.130	-0.671
-58.290	158.650	0.781	1.062
-57.276	800.000	0.578	1.711
-56.261	-200.000	105.883	621.444
-55.246	523.437	1499.541	3453.436
-54.232	178.160	2689.608	3845.828
-53.217	112.152	2175.865	2576.977
-52.203	40.317	1698.136	1497.132
-51.188	32.882	1508.979	1280.124
-50.173	30.485	1481.970	1241.171
-49.159	51.736	1538.017	1433.380
-48.144	52.000	1554.396	1450.384
-47.130	32.909	1510.920	1281.745
-46.115	29.889	1495.650	1248.408
-45.100	29.723	1492.079	1244.262
-44.086	29.784	1489.665	1242.611
-43.071	29.650	1487.905	1240.190
-42.057	29.565	1486.265	1238.207
-41.042	29.639	1485.076	1237.664
-40.027	29.732	1483.356	1236.800
-39.013	29.610	1482.091	1234.881
-37.998	29.540	1481.116	1233.556
-36.984	29.609	1480.007	1233.041
-35.969	29.593	1478.064	1231.265
-34.954	29.505	1476.993	1229.740
-33.940	29.597	1475.529	1229.082
-32.925	29.655	1473.804	1227.981
-31.911	29.629	1472.566	1226.728
-30.896	29.723	1471.666	1226.554
-29.881	29.663	1470.062	1224.773
-28.867	29.616	1469.511	1223.956
-27.852	29.757	1467.533	1223.188
-26.838	29.676	1466.409	1221.668
-25.823	29.734	1464.794	1220.661
-24.809	29.691	1463.129	1218.940
-23.794	29.680	1461.574	1217.523
-22.779	29.643	1460.875	1216.646
-21.765	29.711	1459.653	1216.031
-20.750	29.723	1458.819	1215.364
-19.736	29.720	1457.657	1214.332
-18.721	29.741	1456.018	1213.054
-17.706	29.724	1454.959	1212.013
-16.692	29.639	1453.857	1210.490
-15.677	29.715	1452.847	1210.098
-14.663	29.699	1451.909	1209.163
-13.648	29.622	1451.341	1208.138
-12.633	29.634	1450.355	1207.350
-11.619	29.546	1449.409	1205.941
-10.604	29.632	1448.279	1205.515
-9.590	29.503	1447.980	1204.375
-8.575	29.619	1446.791	1204.091
-7.560	29.634	1445.993	1203.476
-6.546	29.606	1445.155	1202.552
-5.531	29.634	1444.402	1202.060
-4.517	29.658	1443.411	1201.344
-3.502	29.559	1442.576	1199.953
-2.487	29.613	1441.521	1199.384
-1.473	29.579	1440.184	1198.000
-0.458	29.676	1438.902	1197.514
0.556	27.380	1429.709	1186.032
1.571	24.461	1404.032	1145.917
2.586	20.884	1344.397	1075.120
3.600	19.294	1263.560	1001.156
4.615	18.307	1218.480	959.820
5.629	15.749	1164.135	903.213
6.644	7.738	1080.775	798.376
7.659	0.802	1041.741	735.815
8.673	-0.135	1036.052	727.198
9.688	-0.295	1032.697	724.006
10.702	-0.519	1031.820	722.247
11.717	-0.270	1029.008	721.414
12.731	2.539	1031.808	736.841
13.746	11.149	1044.340	787.499
14.761	18.053	1052.894	827.421
15.775	19.750	1054.589	836.903
16.790	19.968	1053.781	837.239
17.804	19.691	1052.817	835.064
18.819	19.439	1052.850	833.796
19.834	19.628	1051.887	833.874
20.848	19.645	1051.382	833.483
21.863	19.645	1051.118	833.200
22.877	19.659	1050.864	832.991
23.892	19.761	1049.675	832.465
24.907	19.612	1049.162	831.269
25.921	19.655	1048.552	830.920
26.936	19.612	1047.456	829.770
27.950	19.696	1046.460	829.309
28.965	19.624	1045.384	828.040
29.980	19.545	1043.400	826.016
30.994	19.499	1041.922	824.552
32.009	19.669	1041.376	824.863
33.023	19.791	1040.598	824.752
34.038	19.641	1039.135	822.804
35.053	19.577	1038.737	822.115
36.067	19.727	1038.165	822.301
37.082	19.693	1037.534	821.569
38.096	19.738	1036.706	821.054
39.111	19.808	1035.817	820.609
40.126	19.989	1034.878	820.652
41.140	19.909	1033.417	819.039
42.155	19.615	1032.132	816.561
43.169	19.342	1030.767	814.118
44.184	19.345	1029.690	813.211
45.199	19.553	1028.535	813.205
46.213	19.411	1027.556	811.693
47.228	19.426	1026.503	810.857
48.242	19.548	1025.413	810.496
49.257	19.661	1024.411	810.164
50.271	19.563	1023.884	809.214
51.286	19.814	1022.863	809.514
52.301	19.830	1022.454	809.190
53.315	19.789	1021.403	808.099
54.330	19.754	1020.932	807.491
55.344	19.591	1020.009	805.928
56.359	19.765	1018.914	805.803
57.374	19.656	1018.211	804.667
58.388	19.647	1016.712	803.372
59.403	19.617	1015.705	802.364
60.417	19.446	1015.591	801.408
61.432	19.366	1014.626	800.207
62.447	19.517	1013.750	800.142
63.461	19.658	1013.302	800.373
64.476	19.687	1012.104	799.489
65.490	19.514	1011.798	798.376
66.505	19.587	1009.771	797.044
67.520	19.496	1009.443	796.294
68.534	19.540	1009.077	796.137
69.549	19.551	1007.474	794.856
70.563	19.266	1006.300	792.546
71.578	19.035	1005.883	791.084
72.593	19.089	1005.475	790.943
73.607	18.897	1003.861	788.722
74.622	19.128	1002.756	788.842
75.636	19.309	1002.061	789.057
76.651	19.506	1001.118	789.143
77.666	19.415	999.888	787.687
78.680	19.193	999.562	786.351
79.695	19.252	999.078	786.168
80.709	19.343	998.386	785.969
81.724	19.543	997.369	786.009
82.739	19.318	996.763	784.438
83.753	19.286	996.265	783.830
84.768	19.487	995.099	783.760
85.782	19.927	994.491	785.206
86.797	20.081	993.441	785.006
87.812	19.841	992.977	783.483
88.826	19.907	991.662	782.674
89.841	19.954	990.872	782.194
90.855	20.025	990.251	781.956
91.870	19.911	989.843	781.047
92.884	20.010	988.686	780.514
93.899	19.842	987.392	778.668
94.914	19.831	986.476	777.825
95.928	19.966	985.678	777.734
96.943	19.884	984.840	776.635
97.957	19.555	984.060	774.477
98.972	19.459	982.320	772.610
99.987	19.173	981.531	770.641
101.001	19.362	980.990	770.990
102.016	19.488	980.675	771.237
103.030	19.548	979.665	770.647
104.045	19.570	978.479	769.743
105.060	19.438	977.006	767.930
106.074	19.255	975.896	766.175
107.089	19.283	975.453	765.884
108.103	19.584	975.256	766.996
109.118	19.766	974.159	766.873
110.133	19.483	973.311	764.886
111.147	19.583	972.184	764.372
112.162	19.536	970.675	762.911
113.176	19.197	969.461	760.394
114.191	19.252	968.884	760.115
115.206	19.495	967.387	759.943
116.220	19.135	966.585	757.665
117.235	19.001	965.564	756.206
118.249	19.225	964.586	756.360
119.264	19.216	963.680	755.543
120.279	19.185	962.625	754.513
121.293	19.095	962.226	753.737
122.308	19.291	961.399	753.879
123.322	19.358	960.555	753.447
124.337	19.273	959.314	752.034
125.352	19.119	958.014	750.279
126.366	18.872	956.344	747.827
127.381	18.553	954.905	745.251
128.395	19.051	954.366	746.926
129.410	19.597	953.943	748.898
130.424	19.626	953.679	748.752
131.439	19.775	952.217	748.181
132.454	19.659	951.041	746.689
133.468	19.665	950.345	746.105
134.483	19.575	949.518	745.000
135.497	19.673	948.456	744.522
136.512	19.828	948.014	744.777
137.527	19.805	947.617	744.299
138.541	19.970	946.553	744.110
139.556	19.983	945.661	743.397
140.570	19.956	944.733	742.485
141.585	19.900	944.101	741.684
142.600	19.902	943.212	740.928
143.614	19.880	942.239	740.006
144.629	19.904	941.907	739.780
145.643	20.150	941.003	740.054
146.658	20.000	939.776	738.384
147.673	19.766	938.878	736.617
148.687	19.739	937.685	735.503
149.702	19.865	936.262	734.855
150.716	19.651	935.200	733.047
151.731	19.676	934.458	732.507
152.746	19.841	933.587	732.460
153.760	20.075	932.938	732.873
154.775	20.081	932.269	732.309
155.789	20.074	931.638	731.721
156.804	20.049	930.316	730.513
157.819	19.982	929.163	729.260
158.833	19.991	928.875	729.009
159.848	20.094	928.003	728.691
160.862	20.082	927.105	727.873
161.877	20.131	926.028	727.169
162.892	20.050	925.381	726.257
163.906	20.187	924.747	726.268
164.921	20.126	923.787	725.194
165.935	20.102	922.094	723.699
166.950	20.106	921.035	722.822
167.964	20.044	920.741	722.268
168.979	20.071	919.625	721.443
169.994	19.939	918.609	720.033
171.008	19.820	917.891	718.909
172.023	20.032	917.038	719.060
173.037	20.190	916.007	718.843
174.052	19.850	914.787	716.414
175.067	19.784	913.610	715.157
176.081	19.851	912.885	714.802
177.096	19.831	912.263	714.170
178.110	19.969	911.585	714.146
179.125	19.609	910.206	711.519
180.140	19.343	909.221	709.590
181.154	19.354	908.741	709.196
182.169	19.505	908.128	709.276
183.183	19.699	908.090	709.980
184.198	19.979	907.407	710.533
185.213	19.975	906.604	709.826
186.227	19.838	905.913	708.661
187.242	19.992	905.508	708.912
188.256	19.968	904.997	708.351
189.271	20.049	903.857	707.729
190.286	20.056	903.264	707.231
191.300	19.959	902.229	705.959
192.315	19.578	901.085	703.453
193.329	18.792	899.787	699.180
194.344	18.605	898.592	697.426
195.359	19.075	898.780	699.422
196.373	19.855	898.919	702.638
197.388	20.134	898.344	703.258
198.402	19.875	897.925	701.818
199.417	19.917	896.931	701.148
200.432	19.792	896.886	700.543
201.446	19.747	895.901	699.533
202.461	19.382	895.153	697.408
203.475	19.528	894.907	697.746
204.490	19.076	892.981	694.359
205.504	17.910	891.337	688.323
206.519	18.493	891.439	690.689
207.534	19.591	891.062	694.757
208.548	19.649	890.707	694.653
209.563	19.891	890.858	695.680
210.577	19.858	889.908	694.746
211.592	19.673	889.163	693.357
212.607	19.988	888.968	694.409
213.621	20.117	888.514	694.509
214.636	20.074	887.855	693.760
215.650	20.078	887.193	693.198
216.665	20.086	886.310	692.479
217.680	20.019	886.114	691.995
218.694	20.196	885.473	692.142
219.709	19.774	884.363	689.529
220.723	19.431	883.451	687.392
221.738	19.774	882.811	688.196
222.753	19.903	882.563	688.456
223.767	19.856	881.896	687.689
224.782	20.004	881.004	687.520
225.796	20.040	880.540	687.239
226.811	20.216	879.811	687.306
227.826	19.704	878.841	684.462
228.840	19.009	877.388	680.521
229.855	18.945	877.026	679.926
230.869	19.318	876.316	680.789
231.884	18.991	875.299	678.652
232.899	19.028	874.966	678.477
233.913	19.806	875.343	681.777
234.928	20.084	874.364	682.049
235.942	19.962	873.589	680.905
236.957	20.016	873.104	680.678
237.972	19.717	872.027	678.607
238.986	19.583	871.342	677.487
240.001	19.808	870.723	677.827
241.015	19.609	870.216	676.593
242.030	19.553	869.537	675.785
243.045	19.839	868.833	676.298
244.059	19.804	868.596	675.918
245.074	20.100	868.188	676.695
246.088	19.970	867.257	675.402
247.103	19.608	866.022	672.971
248.117	19.799	865.066	672.911
249.132	20.238	865.293	674.735
250.147	20.464	865.041	675.360
251.161	20.433	864.589	674.827
252.176	20.577	864.106	674.947
253.190	20.660	863.192	674.498
254.205	20.496	862.935	673.599
255.220	20.982	862.220	674.864
256.234	20.902	861.748	674.124
257.249	20.739	860.949	672.811
258.263	20.532	860.371	671.501
259.278	20.779	859.776	671.928
260.293	20.757	859.369	671.467
261.307	20.920	858.501	671.359
262.322	20.752	857.682	670.013
263.336	20.588	856.755	668.596
264.351	20.067	855.648	665.674
265.366	19.061	853.521	660.103
266.380	18.594	852.829	657.718
267.395	19.536	853.373	661.692
268.409	20.197	853.696	664.418
269.424	20.251	852.854	663.908
270.439	20.352	852.276	663.786
271.453	20.639	851.429	664.165
272.468	20.492	851.090	663.282
273.482	20.745	850.577	663.788
274.497	20.749	850.221	663.465
275.512	20.702	848.873	662.176
276.526	20.071	847.248	658.453
277.541	20.185	847.040	658.665
278.555	20.690	846.974	660.474
279.570	20.388	846.078	658.571
280.585	20.277	845.071	657.310
281.599	20.334	844.706	657.183
282.614	20.527	844.122	657.399
283.628	19.990	843.073	654.497
284.643	19.810	842.392	653.229
285.657	20.188	841.982	654.282
286.672	20.072	841.685	653.555
287.687	19.542	840.522	650.596
288.701	19.756	840.612	651.415
289.716	20.365	839.883	653.087
290.730	19.807	839.517	650.644
291.745	19.777	838.393	649.602
292.760	19.570	837.620	648.171
293.774	19.551	837.044	647.595
294.789	20.444	837.537	651.270
295.803	21.019	837.234	653.131
296.818	21.125	837.145	653.397
297.833	21.352	836.270	653.507
298.847	20.907	835.300	651.029
299.862	20.561	834.317	648.915
300.876	20.876	833.463	649.366
301.891	20.990	833.449	649.724
302.906	21.034	833.097	649.556
303.920	20.656	831.652	646.966
304.935	20.594	831.191	646.318
305.949	20.806	831.029	646.923
306.964	20.931	830.327	646.782
307.979	20.776	829.838	645.771
308.993	20.690	829.115	644.832
310.008	21.118	828.948	646.233
311.022	21.358	828.352	646.599
312.037	20.899	828.403	644.882
313.052	20.802	827.368	643.660
314.066	20.923	826.557	643.420
315.081	20.113	824.802	639.010
316.095	19.460	824.261	636.127
317.110	20.118	824.091	638.366
318.125	20.967	824.034	641.389
319.139	20.466	823.075	638.746
320.154	19.436	821.176	633.436
321.168	19.037	820.588	631.462
322.183	19.648	820.882	633.875
323.197	20.501	821.241	637.223
324.212	20.711	820.736	637.547
325.227	20.762	820.650	637.609
326.241	20.820	820.236	637.445
327.256	20.834	819.303	636.715
328.270	20.656	818.763	635.587
329.285	20.663	818.151	635.083
330.300	20.706	817.156	634.411
331.314	20.367	816.456	632.576
332.329	20.431	816.032	632.422
333.343	20.816	815.557	633.400
334.358	20.974	815.350	633.758
335.373	21.088	814.793	633.682
336.387	21.239	813.774	633.382
337.402	21.296	813.784	633.540
338.416	21.484	813.407	633.871
339.431	21.456	812.356	632.894
340.446	21.347	812.460	632.525
341.460	21.622	811.721	632.890
342.475	21.570	810.846	631.962
343.489	21.111	810.181	629.734
344.504	21.288	809.480	629.768
345.519	21.455	809.836	630.594
346.533	21.734	808.884	630.802
347.548	21.687	809.013	630.676
348.562	21.733	808.435	630.336
349.577	21.754	807.943	629.972
350.592	21.780	807.441	629.618
351.606	21.774	806.780	629.024
352.621	21.762	806.044	628.351
353.635	21.547	805.710	627.266
354.650	21.650	805.181	627.167
355.665	21.187	804.721	625.096
356.679	20.274	802.587	620.122
357.694	20.096	802.093	619.050
358.708	20.805	802.067	621.507
359.723	20.781	801.326	620.793
360.738	20.932	801.238	621.208
361.752	21.373	800.878	622.443
362.767	21.473	800.837	622.711
363.781	21.706	800.507	623.229
364.796	22.009	800.043	623.889
365.810	21.932	799.829	623.394
366.825	22.065	799.208	623.327
367.840	22.140	798.991	623.368
368.854	21.813	798.492	621.767
369.869	21.456	797.999	620.060
370.883	21.418	797.213	619.260
371.898	21.511	796.514	618.991
372.913	21.647	795.310	618.481
373.927	21.421	795.026	617.409
374.942	21.571	794.845	617.741
375.956	21.678	794.140	617.516
376.971	21.844	793.998	617.936
377.986	21.933	793.039	617.449
379.000	22.061	792.884	617.724
380.015	22.006	792.401	617.098
381.029	21.821	791.618	615.787
382.044	21.785	791.253	615.322
383.059	21.868	790.471	614.948
384.073	21.907	790.543	615.089
385.088	21.965	789.908	614.742
386.102	21.983	788.856	613.932
387.117	21.963	788.447	613.491
388.132	21.920	787.761	612.752
389.146	21.695	787.410	611.639
390.161	21.107	786.568	608.881
391.175	21.201	786.041	608.747
392.190	21.725	785.943	610.442
393.205	21.725	785.399	609.966
394.219	20.725	783.976	605.330
395.234	19.307	781.815	598.688
396.248	18.702	780.798	595.756
397.263	19.657	781.794	599.781
398.278	21.342	783.226	606.678
399.292	21.932	782.863	608.391
400.307	21.276	782.485	605.769
401.321	21.521	781.480	605.786
402.336	21.399	781.555	605.368
403.350	21.810	781.211	606.471
404.365	22.116	781.223	607.483
405.380	22.403	780.921	608.188
406.394	22.611	780.337	608.397
407.409	22.805	780.067	608.802
408.423	22.610	779.525	607.652
409.438	22.597	778.860	607.034
410.453	22.691	778.724	607.199
411.467	22.775	778.246	607.061
412.482	22.662	777.613	606.127
413.496	22.680	776.801	605.501
414.511	22.714	776.510	605.339
415.526	22.870	776.047	605.458
416.540	22.784	775.865	604.968
417.555	22.680	775.500	604.274
418.569	22.290	774.994	602.489
419.584	22.250	774.123	601.623
420.599	22.472	773.449	601.803
421.613	158.881	1361.332	1799.365
422.628	137.127	1446.983	1799.415
