DTS Sentinel unit serial number:	SN413079Multiplexer serial number:	ORYXHardware model number:	OX4-SRSoftware version number:	ORYX F/W v4.00 Oryx Data Collector v3.7.2.0data status	okinstallation	princeton_trtdifferential loss correction	single-endedforward channel	channel 3reverse channel	N/Adate	2019/09/13time	15:12:35forward acquisition time	60.00reverse acquisition time	0.00gamma	496.2192k internal	0.2302k external	0.2302temperature offset calibration	1.0144default loss term (dB/km)	0.3790temperature slope calibration	1.0000multiplexer offset coefficient	1.0000multiplexer slope coefficient	1.0000fibre end	0.00T internal ref (°C)	35.56T ext. ref 1 (°C)	4.72T ext. ref 2 (°C)	30.44length (m)	temperature (°C)	Stokes	anti-Stokes-747.200	800.000	0.083	-0.337
-746.185	3.456	0.311	0.231
-745.171	-200.000	0.028	0.198
-744.156	800.000	0.058	0.248
-743.142	101.733	0.113	0.135
-742.127	-94.488	0.243	0.068
-741.112	97.495	-0.101	-0.118
-740.098	-48.769	-0.161	-0.079
-739.083	-200.000	0.008	-0.171
-738.069	-35.028	-0.123	0.068
-737.054	-107.429	-0.201	-0.045
-736.039	-200.000	-0.012	-0.148
-735.025	326.407	0.123	0.241
-734.010	179.986	0.093	-0.139
-732.996	-35.726	-0.038	0.021
-731.981	-53.572	0.127	-0.059
-730.966	-66.548	-0.413	0.167
-729.952	-106.307	-0.257	-0.059
-728.937	-97.437	-0.118	0.031
-727.923	23.180	0.070	-0.059
-726.908	-200.000	-0.015	0.096
-725.894	-113.581	-0.334	0.067
-724.879	46.295	0.183	-0.173
-723.864	-25.809	0.331	0.199
-722.850	49.233	0.202	0.193
-721.835	223.645	-0.115	0.189
-720.821	81.505	0.249	0.274
-719.806	800.000	0.048	-0.204
-718.791	-69.648	0.055	-0.022
-717.777	-200.000	0.037	0.185
-716.762	-200.000	-0.030	-0.235
-715.748	492.594	-0.039	-0.090
-714.733	-200.000	0.025	0.124
-713.718	267.018	-0.253	-0.450
-712.704	-71.577	-0.163	0.062
-711.689	234.218	0.088	-0.148
-710.675	-86.901	-0.140	-0.043
-709.660	42.773	-0.151	-0.140
-708.645	6.934	-0.307	-0.233
-707.631	392.700	0.102	-0.216
-706.616	-30.510	0.125	-0.072
-705.602	-58.023	-0.228	-0.101
-704.587	480.445	0.140	0.323
-703.572	216.683	-0.108	-0.175
-702.558	33.474	-0.083	0.073
-701.543	185.545	0.102	-0.154
-700.529	31.167	-0.258	-0.225
-699.514	800.000	0.087	0.346
-698.499	-148.748	0.432	-0.036
-697.485	27.895	0.192	-0.165
-696.470	-200.000	-0.029	-0.287
-695.456	-56.221	-0.296	-0.134
-694.441	36.510	0.290	-0.260
-693.426	-11.999	0.110	-0.073
-692.412	242.412	-0.164	0.279
-691.397	0.253	-0.154	-0.111
-690.383	-183.637	-0.174	-0.003
-689.368	-13.868	-0.211	-0.139
-688.354	467.375	0.119	0.271
-687.339	-163.218	-0.355	0.017
-686.324	-200.000	0.058	-0.281
-685.310	-125.473	-0.224	-0.035
-684.295	113.406	-0.123	0.152
-683.281	307.820	-0.056	-0.106
-682.266	-200.000	0.000	0.027
-681.251	-5.304	-0.259	-0.181
-680.237	-72.123	-0.441	-0.166
-679.222	800.000	0.072	0.299
-678.208	-47.520	0.263	0.130
-677.193	-200.000	0.038	0.187
-676.178	-102.882	-0.082	-0.020
-675.164	-91.814	0.333	0.096
-674.149	-94.679	0.168	0.046
-673.135	7.747	0.222	-0.169
-672.120	220.907	0.272	0.443
-671.105	-37.550	-0.128	-0.069
-670.091	800.000	-0.109	0.375
-669.076	800.000	0.136	-0.443
-668.062	181.162	0.267	-0.399
-667.047	-100.389	-0.292	-0.073
-666.032	97.620	-0.036	0.042
-665.018	-44.198	-0.156	-0.079
-664.003	-39.207	0.232	0.124
-662.989	-200.000	-0.009	-0.130
-661.974	45.197	0.335	-0.314
-660.959	800.000	-0.052	-0.185
-659.945	342.367	0.031	-0.061
-658.930	-142.923	0.123	0.012
-657.916	390.972	0.081	-0.172
-656.901	-71.011	0.090	-0.034
-655.886	-13.489	-0.253	0.167
-654.872	70.364	-0.027	-0.029
-653.857	-59.495	-0.124	-0.054
-652.843	-32.529	0.304	0.172
-651.828	-43.646	0.138	-0.071
-650.814	-115.808	0.322	0.061
-649.799	-34.470	-0.153	0.085
-648.784	20.399	0.044	-0.036
-647.770	-28.696	0.166	-0.097
-646.755	208.363	-0.143	-0.228
-645.741	516.041	0.044	0.105
-644.726	-200.000	-0.006	0.077
-643.711	-3.807	-0.050	-0.035
-642.697	167.936	-0.125	-0.180
-641.682	-18.446	-0.120	-0.076
-640.668	341.222	0.175	-0.346
-639.653	-200.000	0.013	-0.309
-638.638	800.000	0.062	-0.246
-637.624	800.000	0.059	-0.182
-636.609	457.950	-0.032	-0.073
-635.595	495.573	-0.036	0.084
-634.580	-43.514	0.159	-0.081
-633.565	-62.243	-0.199	-0.084
-632.551	-17.243	-0.359	-0.229
-631.536	-36.824	0.245	-0.133
-630.522	25.140	-0.249	0.210
-629.507	-200.000	0.031	-0.214
-628.492	-61.750	0.119	0.051
-627.478	-115.853	-0.049	-0.009
-626.463	-100.817	0.008	-0.002
-625.449	-108.466	-0.320	-0.070
-624.434	5.357	0.065	-0.049
-623.419	-171.538	-0.386	-0.013
-622.405	468.512	0.075	0.171
-621.390	-43.559	-0.159	-0.081
-620.376	-175.241	0.166	-0.005
-619.361	708.153	0.060	0.160
-618.346	57.258	0.017	0.016
-617.332	436.586	-0.079	-0.173
-616.317	70.916	-0.112	-0.118
-615.303	800.000	-0.010	0.041
-614.288	195.208	-0.224	0.344
-613.273	-141.399	0.076	-0.008
-612.259	-72.358	-0.232	0.087
-611.244	-200.000	0.026	0.334
-610.230	-107.426	0.218	0.048
-609.215	585.225	0.033	-0.083
-608.201	-16.957	0.223	0.143
-607.186	652.206	-0.058	-0.150
-606.171	-200.000	-0.022	0.105
-605.157	-93.061	-0.094	-0.027
-604.142	-91.595	-0.114	-0.033
-603.128	-77.486	-0.278	-0.098
-602.113	-55.713	-0.128	0.058
-601.098	-200.000	-0.008	0.167
-600.084	-63.933	0.132	0.055
-599.069	-200.000	-0.077	0.475
-598.055	285.704	-0.076	-0.140
-597.040	61.859	-0.201	-0.203
-596.025	-134.792	-0.438	0.054
-595.011	-172.103	-0.365	-0.012
-593.996	-35.269	-0.103	0.057
-592.982	382.299	-0.049	-0.103
-591.967	-88.182	-0.061	0.019
-590.952	61.747	0.034	0.034
-589.938	-21.620	0.101	-0.063
-588.923	126.551	-0.113	-0.145
-587.909	800.000	-0.052	-0.183
-586.894	11.862	0.165	-0.128
-585.879	307.112	0.071	-0.133
-584.865	-200.000	-0.055	0.472
-583.850	-42.797	-0.288	0.148
-582.836	30.991	-0.126	0.109
-581.821	-76.271	-0.150	-0.054
-580.806	-200.000	0.010	0.244
-579.792	-188.115	0.421	0.005
-578.777	421.155	-0.045	-0.097
-577.763	-116.701	0.123	-0.023
-576.748	-200.000	-0.017	-0.224
-575.733	800.000	0.020	-0.071
-574.719	-64.846	0.109	0.045
-573.704	-116.606	0.109	0.020
-572.690	61.147	-0.191	0.192
-571.675	66.689	-0.245	0.253
-570.661	-200.000	0.069	0.455
-569.646	-200.000	0.055	-0.247
-568.631	191.783	0.173	-0.263
-567.617	41.320	-0.082	-0.075
-566.602	55.987	0.099	0.097
-565.588	258.489	0.150	-0.262
-564.573	-104.334	-0.134	-0.031
-563.558	281.636	-0.180	0.327
-562.544	-48.620	-0.150	0.073
-561.529	-35.877	-0.047	-0.026
-560.515	67.233	0.181	-0.186
-559.500	-130.465	0.229	0.031
-558.485	-163.033	0.226	0.011
-557.471	800.000	-0.064	-0.250
-556.456	-42.339	-0.110	-0.057
-555.442	32.437	-0.149	0.130
-554.427	-200.000	0.024	0.208
-553.412	-76.959	-0.285	-0.101
-552.398	-111.664	0.149	0.031
-551.383	-82.556	-0.275	-0.090
-550.369	120.866	0.118	0.149
-549.354	-98.826	0.148	-0.038
-548.339	126.455	0.023	0.029
-547.325	-57.090	0.065	0.029
-546.310	213.666	0.219	-0.350
-545.296	-98.645	-0.227	-0.058
-544.281	-200.000	-0.007	0.083
-543.266	-25.368	-0.067	0.040
-542.252	-200.000	-0.002	-0.102
-541.237	-200.000	-0.014	-0.175
-540.223	-200.000	0.020	0.105
-539.208	-200.000	0.066	-0.337
-538.193	800.000	0.060	-0.214
-537.179	-45.041	-0.295	-0.148
-536.164	-64.122	0.167	-0.069
-535.150	-42.135	-0.429	0.222
-534.135	-200.000	-0.015	0.120
-533.121	-200.000	0.046	-0.356
-532.106	-127.155	-0.261	0.039
-531.091	800.000	-0.116	-0.446
-530.077	79.440	-0.208	-0.225
-529.062	-71.515	0.195	0.074
-528.048	-200.000	-0.005	-0.239
-527.033	-143.365	0.275	-0.027
-526.018	-200.000	0.015	-0.374
-525.004	296.196	0.041	-0.076
-523.989	158.790	-0.121	-0.170
-522.975	-91.005	-0.164	-0.048
-521.960	219.384	-0.162	0.262
-520.945	-200.000	0.000	0.091
-519.931	-111.811	-0.251	-0.051
-518.916	-136.678	0.202	0.024
-517.902	800.000	-0.053	-0.231
-516.887	17.873	0.125	0.101
-515.872	-2.647	-0.190	-0.134
-514.858	469.360	0.039	0.089
-513.843	293.083	0.122	-0.225
-512.829	-129.844	-0.147	-0.020
-511.814	-38.799	-0.122	0.065
-510.799	800.000	-0.071	-0.211
-509.785	33.174	-0.209	-0.183
-508.770	-171.372	-0.017	0.001
-507.756	-89.364	-0.036	0.011
-506.741	-39.212	-0.217	-0.115
-505.726	72.506	0.123	0.130
-504.712	800.000	-0.036	0.157
-503.697	1.386	0.271	0.197
-502.683	88.420	-0.350	0.393
-501.668	102.845	-0.042	-0.050
-500.653	800.000	0.060	-0.235
-499.639	-61.558	0.322	0.137
-498.624	107.289	0.140	0.168
-497.610	414.752	-0.108	-0.233
-496.595	-200.000	0.031	-0.262
-495.581	67.214	0.456	0.469
-494.566	800.000	-0.055	0.221
-493.551	-75.069	0.453	0.164
-492.537	800.000	-0.054	-0.165
-491.522	800.000	-0.080	-0.230
-490.508	-200.000	-0.025	-0.174
-489.493	239.087	0.118	-0.199
-488.478	-84.324	0.047	-0.015
-487.464	-90.414	-0.055	0.016
-486.449	-200.000	0.001	0.128
-485.435	313.137	-0.107	0.202
-484.420	87.544	0.129	0.144
-483.405	-97.422	0.186	0.049
-482.391	58.018	-0.183	-0.181
-481.376	-110.702	-0.153	0.032
-480.362	-90.171	0.342	0.101
-479.347	270.291	0.029	0.052
-478.332	-100.399	0.180	-0.045
-477.318	-200.000	0.000	0.196
-476.303	173.395	-0.158	0.230
-475.289	-66.965	-0.125	0.050
-474.274	-129.146	0.196	-0.028
-473.259	-98.979	0.161	-0.041
-472.245	113.547	0.239	0.293
-471.230	-65.214	-0.176	0.072
-470.216	-68.477	0.221	0.086
-469.201	-55.223	0.141	-0.064
-468.186	-200.000	0.013	-0.084
-467.172	-56.794	0.129	0.058
-466.157	-106.845	-0.262	0.059
-465.143	457.824	0.081	-0.182
-464.128	-56.840	0.170	-0.076
-463.113	-72.037	-0.208	0.078
-462.099	-142.529	0.285	-0.028
-461.084	33.875	0.221	0.194
-460.070	-200.000	0.061	-0.285
-459.055	-15.267	-0.051	-0.033
-458.040	-106.975	-0.063	-0.014
-457.026	102.408	0.166	0.196
-456.011	392.595	0.148	-0.310
-454.997	-200.000	-0.019	-0.130
-453.982	-58.119	0.218	-0.096
-452.968	800.000	0.045	-0.185
-451.953	27.704	0.289	0.245
-450.938	500.924	0.064	0.148
-449.924	-56.481	0.132	0.059
-448.909	800.000	0.038	-0.125
-447.895	800.000	-0.058	-0.234
-446.880	776.094	0.023	0.064
-445.865	-84.034	0.208	0.067
-444.851	-200.000	0.001	-0.028
-443.836	-77.897	0.044	-0.015
-442.822	45.913	-0.233	-0.217
-441.807	-200.000	0.006	0.149
-440.792	-169.841	0.162	-0.006
-439.778	800.000	0.071	-0.252
-438.763	-112.257	-0.332	0.067
-437.749	433.031	0.086	0.189
-436.734	58.322	0.238	0.235
-435.719	223.569	0.053	-0.086
-434.705	-27.072	-0.220	0.129
-433.690	-164.641	0.214	0.010
-432.676	800.000	0.032	-0.133
-431.661	-59.837	0.229	0.099
-430.646	506.259	0.236	0.551
-429.632	-200.000	-0.001	0.257
-428.617	-112.462	0.320	-0.064
-427.603	166.204	-0.047	0.066
-426.588	54.173	0.231	-0.224
-425.573	219.557	-0.068	-0.110
-424.559	240.346	0.083	0.139
-423.544	-200.000	0.008	-0.050
-422.530	405.397	-0.073	-0.155
-421.515	-200.000	0.072	0.521
-420.500	75.858	0.190	0.202
-419.486	-148.844	-0.127	0.010
-418.471	27.102	-0.237	0.200
-417.457	-200.000	-0.003	-0.226
-416.442	-128.584	0.147	0.021
-415.428	29.045	-0.098	0.084
-414.413	763.795	-0.057	-0.156
-413.398	800.000	-0.027	0.101
-412.384	169.278	0.041	0.059
-411.369	-69.361	-0.183	0.071
-410.355	-125.775	-0.229	0.035
-409.340	236.333	-0.064	0.107
-408.325	800.000	-0.083	-0.298
-407.311	21.621	0.312	-0.256
-406.296	46.864	0.148	-0.138
-405.282	-200.000	-0.024	-0.315
-404.267	2.516	-0.214	-0.156
-403.252	8.031	-0.162	0.122
-402.238	-200.000	-0.006	-0.405
-401.223	5.674	0.278	-0.206
-400.209	-102.296	0.119	-0.029
-399.194	292.129	-0.141	0.259
-398.179	15.357	0.190	0.150
-397.165	12.411	0.120	-0.093
-396.150	248.568	0.160	0.272
-395.136	800.000	-0.018	-0.076
-394.121	183.461	0.204	-0.302
-393.106	-200.000	0.003	-0.076
-392.092	260.575	-0.095	-0.165
-391.077	-12.863	0.144	-0.094
-390.063	136.420	0.060	0.078
-389.048	800.000	0.036	-0.142
-388.033	17.509	-0.015	-0.012
-387.019	800.000	-0.062	0.195
-386.004	800.000	-0.091	-0.292
-384.990	800.000	0.089	0.249
-383.975	-142.855	-0.156	0.015
-382.960	-130.753	-0.110	0.015
-381.946	800.000	0.124	0.360
-380.931	-200.000	-0.040	-0.232
-379.917	644.445	-0.106	-0.273
-378.902	229.542	0.211	0.347
-377.888	-200.000	-0.031	0.444
-376.873	-56.484	-0.155	0.069
-375.858	-200.000	-0.067	-0.431
-374.844	-71.530	0.245	0.092
-373.829	-37.386	-0.131	0.070
-372.815	64.784	0.068	-0.069
-371.800	83.016	0.206	-0.225
-370.785	414.033	-0.078	0.167
-369.771	185.863	-0.250	-0.373
-368.756	213.020	0.242	-0.384
-367.742	-200.000	0.041	0.255
-366.727	-168.035	0.190	-0.007
-365.712	-200.000	0.036	0.243
-364.698	314.202	0.024	0.046
-363.683	155.519	0.132	0.182
-362.669	-200.000	0.039	0.320
-361.654	114.682	0.137	0.168
-360.639	-42.218	0.134	0.069
-359.625	557.351	0.118	-0.286
-358.610	77.902	-0.135	-0.145
-357.596	-55.261	0.351	-0.158
-356.581	238.160	0.016	-0.026
-355.566	-35.085	0.216	0.118
-354.552	-200.000	-0.006	0.334
-353.537	-200.000	-0.022	-0.308
-352.523	800.000	-0.013	-0.057
-351.508	-19.382	0.102	-0.064
-350.493	40.164	-0.400	0.361
-349.479	800.000	-0.096	-0.319
-348.464	31.969	0.228	-0.197
-347.450	306.495	-0.062	0.116
-346.435	173.811	0.053	-0.076
-345.420	800.000	-0.119	-0.456
-344.406	-200.000	-0.003	-0.032
-343.391	-65.979	-0.180	0.072
-342.377	6.660	-0.174	-0.130
-341.362	282.234	-0.067	-0.120
-340.348	18.474	-0.043	0.034
-339.333	31.513	0.115	-0.099
-338.318	-74.741	-0.270	0.097
-337.304	-79.714	-0.285	-0.096
-336.289	-82.077	-0.115	0.038
-335.275	-72.753	-0.354	-0.131
-334.260	-62.514	-0.269	0.112
-333.245	-58.849	-0.210	0.091
-332.231	-200.000	0.003	0.123
-331.216	509.514	0.154	-0.360
-330.202	23.445	0.417	0.344
-329.187	-103.478	-0.230	-0.054
-328.172	128.572	-0.176	0.224
-327.158	-200.000	0.034	0.241
-326.143	-102.514	0.123	0.029
-325.129	-200.000	0.046	0.310
-324.114	276.667	-0.109	-0.195
-323.099	143.834	-0.073	0.097
-322.085	-31.725	-0.066	0.037
-321.070	-5.326	-0.122	0.084
-320.056	58.115	0.081	-0.079
-319.041	23.658	-0.323	-0.266
-318.026	128.266	-0.134	0.171
-317.012	116.782	0.316	-0.389
-315.997	-57.672	0.018	-0.008
-314.983	657.647	0.025	-0.063
-313.968	139.052	-0.097	0.128
-312.953	232.887	0.124	0.204
-311.939	63.204	0.167	0.168
-310.924	-155.288	0.122	-0.008
-309.910	-21.908	-0.131	-0.080
-308.895	-44.719	0.211	-0.105
-307.880	577.616	0.073	-0.179
-306.866	-162.271	-0.070	0.003
-305.851	-2.525	-0.163	-0.114
-304.837	-200.000	0.022	-0.124
-303.822	-48.876	0.239	-0.115
-302.807	-162.878	-0.324	-0.016
-301.793	288.519	0.064	-0.115
-300.778	-104.713	-0.024	-0.006
-299.764	-6.976	0.117	0.080
-298.749	-103.261	-0.202	-0.048
-297.735	-200.000	-0.004	-0.423
-296.720	800.000	0.049	-0.200
-295.705	1.355	0.286	0.206
-294.691	-200.000	0.018	0.086
-293.676	464.860	-0.036	-0.082
-292.662	-106.601	0.142	0.032
-291.647	-200.000	0.041	0.498
-290.632	-200.000	0.008	0.165
-289.618	308.993	0.126	-0.235
-288.603	-200.000	-0.008	0.140
-287.589	-200.000	-0.039	-0.239
-286.574	269.741	0.036	-0.063
-285.559	-103.600	-0.446	-0.105
-284.545	-18.043	-0.143	-0.090
-283.530	-200.000	0.071	0.346
-282.516	-94.197	0.234	-0.064
-281.501	-137.837	0.370	0.041
-280.486	800.000	-0.141	0.435
-279.472	79.147	-0.135	0.145
-278.457	170.173	0.069	0.099
-277.443	-200.000	-0.025	0.192
-276.428	-15.464	-0.132	0.085
-275.413	-200.000	0.013	-0.122
-274.399	242.714	-0.105	0.176
-273.384	-200.000	0.017	-0.146
-272.370	74.061	-0.240	-0.252
-271.355	-102.877	0.256	-0.061
-270.340	-118.108	0.337	0.060
-269.326	-200.000	0.022	-0.136
-268.311	154.524	-0.180	0.247
-267.297	-200.000	0.016	-0.176
-266.282	283.263	0.092	-0.166
-265.267	-41.792	0.379	-0.194
-264.253	75.653	0.168	0.177
-263.238	410.450	0.190	-0.402
-262.224	-132.330	-0.099	0.013
-261.209	129.463	0.162	-0.207
-260.195	-70.813	0.105	0.040
-259.180	-79.208	-0.399	-0.135
-258.165	-179.187	0.137	0.003
-257.151	800.000	-0.074	-0.228
-256.136	-27.533	-0.113	-0.066
-255.122	32.556	-0.210	0.182
-254.107	142.631	-0.092	0.122
-253.092	572.026	-0.086	0.210
-252.078	87.940	-0.236	0.262
-251.063	-54.658	-0.200	0.091
-250.049	-121.894	0.145	0.024
-249.034	-200.000	-0.001	-0.037
-248.019	-128.357	-0.114	-0.016
-247.005	-147.940	-0.085	0.007
-245.990	-32.032	-0.082	-0.046
-244.976	800.000	0.010	-0.040
-243.961	377.239	-0.090	0.184
-242.946	10.183	0.041	-0.031
-241.932	-5.539	-0.118	-0.081
-240.917	-54.978	-0.301	0.136
-239.903	-128.625	-0.386	0.055
-238.888	-44.024	-0.225	-0.113
-237.873	400.573	0.096	0.202
-236.859	124.160	0.172	0.216
-235.844	800.000	-0.089	-0.262
-234.830	-151.250	0.129	-0.010
-233.815	61.132	0.169	0.168
-232.800	-136.204	-0.095	0.011
-231.786	-130.447	0.147	-0.020
-230.771	-200.000	-0.020	0.335
-229.757	-161.435	0.445	-0.023
-228.742	-138.025	0.490	0.055
-227.727	-103.962	0.110	-0.026
-226.713	-102.564	0.327	0.078
-225.698	323.379	-0.029	-0.055
-224.684	147.086	0.157	0.211
-223.669	-149.792	0.419	-0.033
-222.655	-144.540	0.279	0.026
-221.640	-200.000	-0.003	0.334
-220.625	85.605	-0.086	-0.094
-219.611	-200.000	0.006	-0.163
-218.596	-31.039	0.171	-0.096
-217.582	641.905	-0.040	0.102
-216.567	-7.748	-0.268	0.180
-215.552	800.000	-0.040	-0.132
-214.538	-200.000	-0.027	-0.215
-213.523	-200.000	0.019	0.356
-212.509	170.358	0.021	-0.030
-211.494	800.000	-0.062	-0.270
-210.479	-78.877	-0.281	0.096
-209.465	-36.686	-0.113	0.061
-208.450	800.000	0.032	0.100
-207.436	22.118	0.070	0.057
-206.421	129.882	-0.143	0.183
-205.406	653.137	0.093	-0.239
-204.392	-149.030	0.295	0.024
-203.377	-70.743	0.284	-0.107
-202.363	80.589	-0.134	-0.144
-201.348	-200.000	-0.032	0.271
-200.333	764.565	-0.005	-0.012
-199.319	43.193	0.148	0.135
-198.304	294.464	-0.079	-0.144
-197.290	-200.000	0.042	0.307
-196.275	-57.243	-0.204	0.089
-195.260	800.000	-0.034	0.137
-194.246	-200.000	-0.042	-0.300
-193.231	-2.733	-0.160	-0.112
-192.217	-200.000	-0.016	-0.147
-191.202	19.631	-0.134	-0.107
-190.187	337.656	-0.114	0.220
-189.173	57.304	-0.073	-0.071
-188.158	-0.244	0.224	-0.159
-187.144	-78.683	0.366	-0.125
-186.129	-23.824	-0.107	0.064
-185.114	563.775	-0.070	0.170
-184.100	-58.727	0.056	-0.024
-183.085	-41.091	0.082	-0.042
-182.071	800.000	0.092	0.299
-181.056	224.147	-0.350	0.564
-180.042	-200.000	0.057	0.393
-179.027	-31.402	0.343	-0.192
-178.012	-53.696	0.193	-0.088
-176.998	102.009	0.014	-0.016
-175.983	-15.241	-0.150	-0.096
-174.969	-73.215	-0.111	0.040
-173.954	18.449	-0.061	-0.049
-172.939	-65.075	0.087	0.035
-171.925	-106.326	-0.320	0.071
-170.910	-111.307	-0.412	-0.084
-169.896	324.420	-0.217	0.413
-168.881	800.000	-0.088	-0.248
-167.866	-12.796	-0.101	-0.065
-166.852	2.260	0.199	0.143
-165.837	433.285	-0.096	-0.207
-164.823	104.581	0.097	0.114
-163.808	-59.614	-0.176	0.075
-162.793	-200.000	-0.010	0.263
-161.779	-19.309	0.223	0.138
-160.764	29.880	0.262	0.222
-159.750	-144.932	-0.136	-0.012
-158.735	-200.000	-0.019	-0.111
-157.720	-91.171	-0.251	-0.072
-156.706	-57.404	0.221	0.097
-155.691	-88.748	0.206	0.061
-154.677	-114.505	0.010	-0.002
-153.662	-200.000	0.004	0.197
-152.647	-11.784	-0.294	0.192
-151.633	-137.020	-0.341	0.039
-150.618	-2.212	-0.100	0.070
-149.604	-200.000	-0.031	0.206
-148.589	422.156	-0.105	0.225
-147.574	800.000	0.105	-0.358
-146.560	-128.570	-0.070	-0.010
-145.545	-69.260	0.223	-0.085
-144.531	-200.000	0.031	-0.193
-143.516	-57.731	0.288	-0.126
-142.502	138.266	0.242	0.315
-141.487	-84.223	0.099	0.031
-140.472	93.988	-0.204	-0.230
-139.458	223.297	0.110	0.176
-138.443	-44.880	-0.161	-0.080
-137.429	121.187	-0.039	-0.049
-136.414	-82.520	0.223	0.072
-135.399	603.345	-0.250	-0.620
-134.385	226.261	0.146	-0.236
-133.370	69.406	-0.239	-0.245
-132.356	-39.003	0.261	0.137
-131.341	467.483	-0.106	-0.236
-130.326	-22.738	-0.259	-0.156
-129.312	-200.000	0.093	-0.608
-128.297	-200.000	-0.017	-0.219
-127.283	-115.231	0.286	0.054
-126.268	173.517	0.128	0.183
-125.253	221.501	0.093	0.149
-124.239	-130.043	0.318	-0.043
-123.224	-108.135	-0.052	-0.011
-122.210	-200.000	0.023	-0.105
-121.195	-6.363	-0.118	0.080
-120.180	-118.984	0.278	-0.048
-119.166	-55.725	0.271	-0.120
-118.151	-200.000	-0.011	0.147
-117.137	-189.594	0.604	0.007
-116.122	-13.869	-0.272	0.175
-115.107	50.951	0.159	-0.150
-114.093	54.178	-0.165	0.158
-113.078	-4.184	0.191	0.131
-112.064	-112.188	-0.173	0.034
-111.049	321.815	0.149	-0.283
-110.034	133.505	0.250	-0.321
-109.020	-110.582	0.230	-0.047
-108.005	175.625	-0.222	0.320
-106.991	-62.094	0.262	-0.109
-105.976	800.000	0.014	-0.041
-104.962	-200.000	-0.018	-0.161
-103.947	-158.895	-0.156	0.009
-102.932	136.020	0.237	-0.307
-101.918	-200.000	-0.036	-0.379
-100.903	297.908	0.122	-0.223
-99.889	300.857	0.250	-0.458
-98.874	-49.067	0.245	-0.116
-97.859	-166.137	-0.216	0.009
-96.845	105.280	0.177	0.208
-95.830	-33.590	-0.309	0.169
-94.816	-37.233	-0.207	0.110
-93.801	-151.034	-0.397	0.030
-92.786	257.153	-0.028	-0.048
-91.772	25.304	-0.416	0.343
-90.757	662.987	0.042	0.107
-89.743	646.096	0.059	-0.149
-88.728	-34.387	-0.398	-0.217
-87.713	222.135	0.041	0.066
-86.699	6.086	0.047	0.035
-85.684	-200.000	0.001	0.065
-84.670	15.774	-0.235	-0.184
-83.655	-87.735	-0.263	-0.079
-82.640	18.533	-0.275	-0.218
-81.626	-200.000	-0.331	-0.001
-80.611	3.396	0.056	-0.040
-79.597	-32.485	-0.156	0.086
-78.582	-3.889	0.235	0.162
-77.567	109.910	-0.086	0.103
-76.553	-82.416	0.140	-0.045
-75.538	-79.172	-0.110	0.037
-74.524	-35.586	-0.240	-0.129
-73.509	-200.000	-0.032	0.177
-72.494	62.143	-0.090	-0.089
-71.480	-15.112	-0.220	-0.140
-70.465	50.747	0.155	-0.146
-69.451	-38.463	-0.153	0.080
-68.436	51.013	-0.053	-0.049
-67.422	-94.675	-0.148	0.040
-66.407	81.791	0.275	-0.295
-65.392	86.708	-0.079	0.087
-64.378	-200.000	0.001	-0.136
-63.363	-34.579	-0.114	0.062
-62.349	-93.370	0.208	0.057
-61.334	51.841	-0.959	-0.906
-60.319	19.582	0.474	0.378
-59.305	-200.000	-0.102	-0.834
-58.290	467.266	0.382	0.850
-57.276	800.000	0.419	1.386
-56.261	-200.000	93.987	556.199
-55.246	620.156	1384.179	3452.712
-54.232	185.828	2600.877	3835.146
-53.217	121.219	2214.822	2735.650
-52.203	46.115	1746.417	1604.369
-51.188	38.769	1555.387	1377.465
-50.173	36.203	1527.916	1335.343
-49.159	54.459	1577.523	1507.551
-48.144	58.118	1596.614	1551.474
-47.130	39.109	1552.309	1376.902
-46.115	35.779	1537.286	1340.370
-45.100	35.709	1533.320	1336.370
-44.086	35.624	1532.131	1334.692
-43.071	35.530	1530.227	1332.327
-42.057	35.460	1528.216	1330.034
-41.042	35.485	1526.975	1329.080
-40.027	35.515	1525.281	1327.756
-39.013	35.563	1523.727	1326.684
-37.998	35.495	1522.920	1325.461
-36.984	35.523	1521.379	1324.257
-35.969	35.532	1520.180	1323.225
-34.954	35.532	1518.600	1321.793
-33.940	35.569	1517.454	1321.002
-32.925	35.496	1516.305	1319.443
-31.911	35.587	1514.451	1318.404
-30.896	35.673	1513.194	1317.850
-29.881	35.654	1511.731	1316.393
-28.867	35.608	1510.058	1314.570
-27.852	35.610	1509.031	1313.634
-26.838	35.631	1507.381	1312.294
-25.823	35.664	1506.079	1311.328
-24.809	35.664	1504.214	1309.655
-23.794	35.540	1503.258	1307.926
-22.779	35.560	1501.910	1306.837
-21.765	35.641	1500.856	1306.417
-20.750	35.617	1499.562	1305.076
-19.736	35.593	1498.409	1303.858
-18.721	35.550	1497.432	1302.667
-17.706	35.652	1495.845	1301.921
-16.692	35.512	1495.443	1300.575
-15.677	35.564	1494.292	1299.876
-14.663	35.506	1493.018	1298.322
-13.648	35.607	1492.071	1298.129
-12.633	35.521	1491.193	1296.735
-11.619	35.504	1490.593	1296.046
-10.604	35.578	1489.134	1295.226
-9.590	35.461	1489.092	1294.345
-8.575	35.515	1487.911	1293.634
-7.560	35.575	1486.788	1293.007
-6.546	35.579	1485.973	1292.275
-5.531	35.483	1485.022	1290.753
-4.517	35.516	1484.195	1290.206
-3.502	35.412	1483.670	1288.995
-2.487	35.417	1482.264	1287.756
-1.473	35.506	1481.306	1287.474
-0.458	35.461	1479.660	1285.692
0.556	37.448	1469.993	1274.104
1.571	33.962	1442.276	1227.511
2.586	29.366	1377.870	1144.158
3.600	26.884	1293.764	1059.740
4.615	24.591	1245.069	1006.860
5.629	21.038	1187.968	941.454
6.644	12.856	1101.582	831.797
7.659	5.901	1060.281	766.662
8.673	4.904	1054.243	757.380
9.688	4.782	1050.516	754.047
10.702	4.434	1049.307	751.428
11.717	4.771	1047.729	751.862
12.731	7.865	1051.133	769.207
13.746	16.042	1062.384	817.171
14.761	21.698	1069.172	849.837
15.775	22.123	1068.931	851.631
16.790	21.408	1067.235	846.742
17.804	20.393	1065.054	840.032
18.819	19.470	1063.469	834.247
19.834	19.018	1061.642	830.556
20.848	18.834	1060.944	829.053
21.863	18.724	1060.448	828.058
22.877	18.589	1060.034	827.014
23.892	18.391	1058.568	824.843
24.907	18.461	1057.829	824.530
25.921	18.319	1057.231	823.306
26.936	18.237	1056.567	822.323
27.950	18.317	1055.410	821.732
28.965	18.269	1054.456	820.689
29.980	18.282	1053.520	819.952
30.994	18.538	1052.463	820.278
32.009	18.596	1051.711	819.901
33.023	18.808	1050.549	819.931
34.038	18.802	1049.918	819.337
35.053	18.651	1048.984	817.817
36.067	18.380	1048.079	815.748
37.082	18.478	1046.858	815.194
38.096	18.520	1046.515	815.055
39.111	18.478	1046.110	814.466
40.126	18.613	1044.929	814.115
41.140	18.535	1043.837	812.824
42.155	18.183	1043.038	810.459
43.169	17.999	1041.687	808.470
44.184	18.022	1040.291	807.421
45.199	18.004	1039.236	806.445
46.213	18.055	1038.036	805.685
47.228	18.153	1037.453	805.622
48.242	18.298	1036.836	805.754
49.257	18.373	1036.026	805.407
50.271	18.380	1034.916	804.505
51.286	18.561	1033.397	804.104
52.301	18.532	1033.570	804.029
53.315	18.462	1033.169	803.322
54.330	18.266	1032.236	801.603
55.344	18.239	1030.438	800.011
56.359	18.229	1029.539	799.197
57.374	18.313	1028.508	798.718
58.388	18.160	1027.939	797.492
59.403	18.103	1027.002	796.428
60.417	17.928	1026.408	795.084
61.432	17.988	1025.414	794.520
62.447	17.992	1024.651	793.877
63.461	17.823	1024.306	792.755
64.476	17.866	1023.339	792.138
65.490	17.810	1022.050	790.809
66.505	17.868	1021.369	790.478
67.520	17.897	1020.402	789.797
68.534	17.959	1019.664	789.441
69.549	17.812	1019.659	788.688
70.563	17.688	1018.562	787.200
71.578	17.798	1017.598	786.889
72.593	17.768	1016.781	786.049
73.607	17.634	1015.951	784.723
74.622	17.565	1014.780	783.431
75.636	17.557	1013.664	782.465
76.651	17.564	1013.206	782.071
77.666	17.648	1012.325	781.711
78.680	17.667	1011.976	781.459
79.695	17.757	1011.112	781.133
80.709	17.778	1010.361	780.580
81.724	18.020	1009.479	780.936
82.739	18.052	1009.329	780.897
83.753	18.126	1008.348	780.407
84.768	18.157	1007.980	780.196
85.782	18.481	1007.066	780.895
86.797	18.643	1006.703	781.283
87.812	18.623	1005.876	780.481
88.826	18.436	1004.822	778.742
89.841	18.311	1004.155	777.589
90.855	18.528	1002.917	777.544
91.870	18.610	1002.134	777.244
92.884	18.760	1001.122	777.069
93.899	18.498	1001.001	775.721
94.914	18.589	999.821	775.148
95.928	18.660	999.440	775.102
96.943	18.659	998.705	774.462
97.957	18.523	997.779	773.058
98.972	18.582	996.563	772.316
99.987	18.542	996.075	771.691
101.001	18.616	995.278	771.336
102.016	18.595	994.512	770.581
103.030	18.563	993.600	769.662
104.045	18.399	992.937	768.345
105.060	18.567	991.713	768.084
106.074	18.437	990.464	766.465
107.089	18.274	989.993	765.305
108.103	17.876	988.712	762.467
109.118	17.919	987.863	761.939
110.133	17.889	987.093	761.143
111.147	17.842	986.161	760.148
112.162	17.757	985.439	759.147
113.176	17.885	984.414	758.856
114.191	17.946	983.838	758.616
115.206	18.135	982.586	758.422
116.220	18.080	981.993	757.657
117.235	17.979	980.955	756.338
118.249	17.934	980.233	755.516
119.264	17.938	979.318	754.762
120.279	17.767	978.607	753.391
121.293	17.960	977.688	753.472
122.308	17.873	976.560	752.151
123.322	17.782	975.936	751.205
124.337	17.615	974.966	749.654
125.352	17.695	973.851	749.084
126.366	17.749	972.313	748.070
127.381	17.705	971.569	747.238
128.395	17.825	970.494	746.873
129.410	17.649	969.940	745.609
130.424	17.643	969.662	745.303
131.439	17.897	968.129	745.169
132.454	18.060	967.231	745.121
133.468	18.006	966.874	744.544
134.483	18.011	966.228	744.004
135.497	18.052	965.565	743.607
136.512	18.060	965.117	743.231
137.527	18.143	964.078	742.727
138.541	18.104	963.317	741.903
139.556	17.967	962.903	740.924
140.570	18.113	962.154	740.917
141.585	18.269	961.041	740.668
142.600	18.460	960.638	741.118
143.614	18.441	960.061	740.527
144.629	18.601	959.427	740.661
145.643	18.663	958.599	740.225
146.658	18.513	957.893	738.966
147.673	18.470	956.399	737.565
148.687	18.328	955.502	736.198
149.702	18.155	954.560	734.663
150.716	18.067	953.641	733.511
151.731	18.053	952.624	732.604
152.746	18.143	951.942	732.403
153.760	18.068	951.372	731.576
154.775	18.176	950.761	731.505
155.789	18.343	949.735	731.363
156.804	18.223	949.290	730.442
157.819	18.376	948.289	730.264
158.833	18.493	947.335	729.961
159.848	18.461	947.282	729.720
160.862	18.456	946.821	729.279
161.877	18.535	946.372	729.202
162.892	18.363	944.668	727.096
163.906	18.144	943.192	724.969
164.921	18.187	942.705	724.712
165.935	18.134	941.747	723.686
166.950	18.160	940.672	722.905
167.964	18.327	939.904	722.957
168.979	18.396	938.713	722.268
169.994	18.139	938.109	720.654
171.008	18.154	936.945	719.761
172.023	18.285	936.215	719.689
173.037	18.443	935.495	719.736
174.052	18.648	934.799	719.996
175.067	18.457	934.234	718.698
176.081	18.156	933.071	716.478
177.096	17.993	932.269	715.114
178.110	18.171	930.978	714.807
179.125	18.107	930.864	714.388
180.140	18.140	929.911	713.733
181.154	18.192	929.120	713.278
182.169	18.323	928.708	713.444
183.183	18.453	928.448	713.725
184.198	18.538	927.590	713.352
185.213	18.573	926.954	712.946
186.227	18.556	926.247	712.269
187.242	18.621	925.881	712.195
188.256	18.557	925.454	711.539
189.271	18.828	924.573	711.920
190.286	18.771	923.751	710.991
191.300	18.568	922.812	709.362
192.315	18.200	921.727	706.946
193.329	18.015	920.746	705.369
194.344	17.860	920.077	704.154
195.359	18.112	919.775	704.897
196.373	18.362	919.633	705.758
197.388	18.511	918.556	705.481
198.402	18.588	918.785	705.913
199.417	18.753	918.298	706.156
200.432	18.993	917.426	706.406
201.446	19.074	917.350	706.618
202.461	19.173	916.734	706.490
203.475	19.070	916.666	705.951
204.490	19.156	915.924	705.671
205.504	18.930	914.880	703.877
206.519	18.655	913.832	701.885
207.534	18.529	913.217	700.835
208.548	18.618	912.235	700.381
209.563	18.787	911.436	700.398
210.577	18.542	911.338	699.262
211.592	18.626	910.374	698.802
212.607	18.919	909.932	699.590
213.621	19.070	909.482	699.798
214.636	18.956	908.556	698.561
215.650	18.884	908.040	697.808
216.665	18.813	907.649	697.159
217.680	18.908	907.092	697.057
218.694	19.202	906.232	697.522
219.709	19.256	906.126	697.600
220.723	19.172	905.171	696.461
221.738	19.003	904.759	695.401
222.753	19.132	904.125	695.372
223.767	19.017	903.222	694.151
224.782	19.070	902.849	694.017
225.796	19.173	901.840	693.596
226.811	19.283	901.446	693.675
227.826	19.380	900.511	693.283
228.840	19.091	899.758	691.480
229.855	19.043	899.188	690.789
230.869	18.978	898.810	690.178
231.884	18.976	897.800	689.333
232.899	19.059	896.789	688.828
233.913	18.898	896.040	687.549
234.928	18.859	895.498	686.916
235.942	18.903	894.451	686.226
236.957	18.853	894.084	685.685
237.972	18.680	894.014	684.881
238.986	18.882	892.625	684.561
240.001	18.867	892.397	684.265
241.015	18.808	891.817	683.525
242.030	18.853	891.157	683.139
243.045	19.024	890.339	683.128
244.059	19.006	890.164	682.863
245.074	19.125	888.988	682.373
246.088	18.979	889.091	681.814
247.103	19.212	888.389	682.137
248.117	19.320	887.991	682.199
249.132	19.393	887.083	681.729
250.147	19.710	886.936	682.808
251.161	19.711	886.650	682.529
252.176	19.871	885.935	682.549
253.190	19.904	885.071	681.955
254.205	19.988	884.450	681.748
255.220	19.990	884.072	681.405
256.234	19.848	883.573	680.402
257.249	19.891	882.680	679.821
258.263	19.895	881.781	679.086
259.278	19.948	881.313	678.871
260.293	19.874	880.837	678.155
261.307	19.884	880.633	677.978
262.322	20.034	879.860	677.910
263.336	20.057	879.469	677.638
264.351	19.856	879.039	676.462
265.366	20.145	877.850	676.613
266.380	20.055	877.576	675.992
267.395	20.078	877.074	675.636
268.409	19.887	876.076	674.063
269.424	19.899	874.953	673.186
270.439	19.858	874.429	672.564
271.453	19.860	873.875	672.086
272.468	19.849	872.994	671.305
273.482	19.812	872.093	670.412
274.497	19.699	872.051	669.882
275.512	19.897	870.767	669.603
276.526	19.781	870.431	668.836
277.541	19.858	869.852	668.629
278.555	19.809	869.157	667.846
279.570	20.044	868.467	668.162
280.585	20.057	868.634	668.283
281.599	20.261	867.652	668.255
282.614	20.054	866.888	666.811
283.628	19.784	866.646	665.528
284.643	19.847	865.726	665.002
285.657	19.962	865.442	665.168
286.672	19.854	864.897	664.275
287.687	19.991	863.994	664.047
288.701	20.100	864.000	664.413
289.716	20.034	863.317	663.575
290.730	19.987	862.865	662.989
291.745	19.977	861.995	662.223
292.760	20.195	861.270	662.442
293.774	20.165	860.654	661.793
294.789	20.340	860.589	662.352
295.803	20.238	859.961	661.421
296.818	20.121	858.997	660.177
297.833	19.905	858.471	658.893
298.847	20.015	857.560	658.554
299.862	19.913	856.984	657.665
300.876	20.142	856.486	658.093
301.891	20.177	855.955	657.761
302.906	20.256	855.226	657.443
303.920	20.353	854.795	657.420
304.935	20.487	854.102	657.334
305.949	20.765	853.457	657.831
306.964	20.432	853.128	656.261
307.979	20.423	852.123	655.397
308.993	20.396	851.873	655.043
310.008	20.528	851.288	655.034
311.022	20.476	851.005	654.560
312.037	20.600	850.052	654.236
313.052	20.204	850.163	652.775
314.066	20.164	849.025	651.695
315.081	19.965	848.179	650.239
316.095	20.153	847.371	650.268
317.110	20.190	847.171	650.195
318.125	20.242	846.554	649.858
319.139	20.162	846.151	649.192
320.154	20.195	845.707	648.916
321.168	20.076	845.000	647.872
322.183	20.254	844.545	648.132
323.197	20.233	844.028	647.601
324.212	20.201	843.296	646.861
325.227	20.273	843.225	647.019
326.241	20.315	842.450	646.522
327.256	20.227	841.960	645.761
328.270	20.252	841.210	645.222
329.285	20.254	840.341	644.504
330.300	20.203	840.025	644.017
331.314	20.336	839.455	644.018
332.329	20.325	838.736	643.365
333.343	20.386	838.677	643.492
334.358	20.428	838.220	643.238
335.373	20.594	837.656	643.364
336.387	20.484	837.223	642.569
337.402	20.646	836.236	642.351
338.416	20.731	835.761	642.243
339.431	20.737	835.463	641.978
340.446	20.861	834.715	641.804
341.460	20.890	834.459	641.657
342.475	20.878	834.017	641.216
343.489	21.118	833.110	641.346
344.504	21.060	832.725	640.780
345.519	21.117	832.517	640.771
346.533	21.301	831.581	640.668
347.548	21.257	831.240	640.187
348.562	21.225	830.478	639.427
349.577	20.929	829.920	637.858
350.592	20.813	829.151	636.788
351.606	20.633	828.827	635.823
352.621	20.533	828.527	635.170
353.635	20.576	828.114	634.955
354.650	20.772	827.732	635.322
355.665	20.754	827.457	634.989
356.679	20.814	826.889	634.714
357.694	20.880	826.294	634.442
358.708	20.923	825.588	634.000
359.723	20.937	825.126	633.642
360.738	20.972	824.500	633.233
361.752	20.906	824.268	632.757
362.767	20.895	823.588	632.142
363.781	21.120	823.225	632.623
364.796	21.285	822.893	632.906
365.810	21.286	822.634	632.655
366.825	21.480	822.120	632.907
367.840	21.479	822.249	632.947
368.854	21.560	821.329	632.473
369.869	21.359	820.743	631.241
370.883	21.247	820.388	630.510
371.898	21.091	819.988	629.583
372.913	21.496	818.442	629.800
373.927	21.444	818.299	629.445
374.942	21.485	817.684	629.063
375.956	21.314	817.120	627.961
376.971	21.376	816.854	627.925
377.986	21.586	816.288	628.185
379.000	21.667	815.663	627.939
380.015	21.753	815.508	628.073
381.029	21.702	814.733	627.239
382.044	21.662	814.321	626.724
383.059	21.769	813.194	626.183
384.073	21.743	812.878	625.791
385.088	21.641	812.469	625.057
386.102	21.439	811.680	623.672
387.117	21.378	811.046	622.915
388.132	21.435	810.538	622.672
389.146	21.280	810.615	622.124
390.161	21.451	809.871	622.105
391.175	21.464	809.778	622.025
392.190	21.560	809.494	622.094
393.205	21.613	808.815	621.704
394.219	21.401	808.340	620.531
395.234	21.460	807.545	620.078
396.248	21.253	807.048	618.906
397.263	21.277	806.430	618.461
398.278	21.187	805.922	617.702
399.292	21.168	805.604	617.335
400.307	21.122	805.308	616.891
401.321	21.110	804.617	616.264
402.336	21.236	804.472	616.543
403.350	21.211	804.350	616.306
404.365	21.369	803.828	616.408
405.380	21.536	803.526	616.712
406.394	21.659	802.749	616.495
407.409	21.839	802.273	616.707
408.423	21.739	802.387	616.390
409.438	21.833	801.820	616.228
410.453	21.926	801.375	616.160
411.467	22.085	801.202	616.529
412.482	21.924	800.607	615.452
413.496	22.160	799.920	615.697
414.511	22.091	799.797	615.307
415.526	22.059	799.417	614.846
416.540	21.955	799.146	614.220
417.555	21.985	798.416	613.709
418.569	22.140	797.638	613.599
419.584	22.135	796.933	612.984
420.599	22.115	796.692	612.674
421.613	158.404	1367.282	1787.556
422.628	137.374	1450.452	1787.659
