DTS Sentinel unit serial number:	SN413079Multiplexer serial number:	ORYXHardware model number:	OX4-SRSoftware version number:	ORYX F/W v4.00 Oryx Data Collector v3.7.2.0data status	okinstallation	princeton_trtdifferential loss correction	single-endedforward channel	channel 3reverse channel	N/Adate	2019/09/14time	01:28:35forward acquisition time	60.00reverse acquisition time	0.00gamma	496.2192k internal	0.2340k external	0.2340temperature offset calibration	1.0054default loss term (dB/km)	0.3790temperature slope calibration	1.0000multiplexer offset coefficient	1.0000multiplexer slope coefficient	1.0000fibre end	0.00T internal ref (°C)	26.42T ext. ref 1 (°C)	3.20T ext. ref 2 (°C)	21.46length (m)	temperature (°C)	Stokes	anti-Stokes-747.200	445.467	-0.055	-0.122
-746.185	800.000	-0.042	-0.181
-745.171	-59.746	-0.254	0.109
-744.156	627.472	0.086	-0.217
-743.142	156.468	-0.093	0.129
-742.127	-78.890	-0.250	-0.085
-741.112	24.173	-0.170	0.141
-740.098	-91.627	-0.283	0.081
-739.083	800.000	-0.117	0.410
-738.069	-200.000	0.071	0.435
-737.054	74.011	0.147	0.155
-736.039	-178.916	0.195	0.004
-735.025	195.253	-0.110	-0.167
-734.010	45.795	-0.385	-0.357
-732.996	179.755	-0.209	-0.307
-731.981	-31.330	-0.146	-0.082
-730.966	238.886	-0.167	0.279
-729.952	-92.733	0.234	-0.066
-728.937	800.000	0.069	0.197
-727.923	33.791	-0.225	0.196
-726.908	20.183	-0.245	-0.198
-725.894	-200.000	0.003	0.254
-724.879	-200.000	0.024	-0.148
-723.864	101.789	0.099	-0.116
-722.850	-128.598	0.175	-0.025
-721.835	-81.344	-0.179	0.059
-720.821	406.248	0.017	0.036
-719.806	-200.000	0.011	-0.346
-718.791	104.054	0.079	0.093
-717.777	-121.605	-0.580	0.096
-716.762	380.317	0.050	0.103
-715.748	800.000	0.061	0.178
-714.733	-143.592	-0.114	-0.011
-713.718	155.689	-0.068	-0.093
-712.704	-200.000	-0.027	-0.178
-711.689	-80.001	-0.192	0.065
-710.675	-14.054	-0.269	0.174
-709.660	632.020	-0.144	0.364
-708.645	-0.154	0.324	-0.231
-707.631	800.000	-0.025	0.097
-706.616	-144.697	0.296	0.027
-705.602	-200.000	-0.026	-0.207
-704.587	-177.708	0.143	-0.003
-703.572	-200.000	0.023	-0.114
-702.558	-200.000	0.044	0.216
-701.543	-91.701	-0.337	-0.096
-700.529	-108.146	-0.213	0.046
-699.514	199.577	0.239	-0.367
-698.499	345.285	0.175	-0.344
-697.485	-113.821	0.363	-0.071
-696.470	179.718	-0.249	0.364
-695.456	800.000	-0.024	-0.097
-694.441	97.278	-0.150	-0.173
-693.426	63.040	-0.061	-0.061
-692.412	-44.371	-0.103	0.052
-691.397	800.000	0.100	-0.339
-690.383	-70.786	-0.205	0.077
-689.368	-160.128	-0.310	0.017
-688.354	11.341	0.169	0.130
-687.339	-85.253	0.157	-0.049
-686.324	-200.000	0.002	0.080
-685.310	-200.000	-0.006	-0.065
-684.295	45.695	-0.134	0.124
-683.281	-94.120	-0.085	0.023
-682.266	-200.000	-0.087	-0.478
-681.251	296.271	-0.060	-0.110
-680.237	87.853	-0.186	0.206
-679.222	-36.102	-0.354	0.191
-678.208	-141.166	-0.040	-0.004
-677.193	29.521	-0.272	-0.231
-676.178	63.459	-0.130	0.131
-675.164	522.313	-0.072	0.170
-674.149	-32.825	-0.168	0.094
-673.135	-7.934	0.184	-0.124
-672.120	103.658	-0.076	-0.090
-671.105	800.000	-0.043	0.173
-670.091	38.038	-0.393	0.349
-669.076	119.655	-0.074	-0.092
-668.062	-200.000	-0.019	-0.377
-667.047	-200.000	-0.002	-0.015
-666.032	-200.000	-0.058	-0.360
-665.018	115.966	0.100	-0.122
-664.003	36.398	0.191	0.168
-662.989	88.523	-0.315	0.350
-661.974	37.241	0.227	0.201
-660.959	-200.000	0.009	0.095
-659.945	290.791	0.124	0.226
-658.930	420.811	0.192	-0.412
-657.916	58.631	0.253	-0.248
-656.901	-137.137	0.335	-0.038
-655.886	800.000	0.053	0.204
-654.872	-133.371	-0.041	0.005
-653.857	228.829	-0.141	-0.229
-652.843	730.150	-0.021	0.057
-651.828	-171.677	-0.080	0.003
-650.814	8.710	0.205	0.154
-649.799	800.000	0.056	0.213
-648.784	180.429	0.051	0.074
-647.770	328.723	-0.134	-0.258
-646.755	-72.720	0.270	-0.100
-645.741	-100.440	-0.500	-0.124
-644.726	58.783	0.099	-0.097
-643.711	521.824	0.100	0.235
-642.697	800.000	-0.077	-0.225
-641.682	-105.983	-0.341	0.077
-640.668	-165.947	0.211	0.009
-639.653	14.546	0.210	-0.164
-638.638	-113.211	0.095	0.019
-637.624	-59.105	0.109	0.047
-636.609	273.826	-0.133	0.235
-635.595	-118.694	0.317	-0.056
-634.580	-79.663	0.025	0.008
-633.565	-163.098	0.205	0.010
-632.551	-200.000	-0.052	-0.296
-631.536	-200.000	0.015	0.177
-630.522	-159.509	0.073	-0.004
-629.507	-98.755	0.199	0.051
-628.492	65.386	-0.058	-0.059
-627.478	374.357	-0.077	-0.156
-626.463	-63.643	0.316	0.129
-625.449	456.299	-0.098	-0.217
-624.434	-38.978	-0.120	-0.063
-623.419	144.258	0.203	-0.271
-622.405	800.000	-0.040	0.135
-621.390	-200.000	-0.067	-0.443
-620.376	-200.000	0.008	0.105
-619.361	-115.582	-0.105	-0.020
-618.346	-167.912	0.217	-0.008
-617.332	112.661	-0.170	-0.205
-616.317	217.211	-0.058	0.092
-615.303	115.025	0.116	0.141
-614.288	4.886	-0.093	0.068
-613.273	106.555	0.179	0.212
-612.259	-200.000	0.017	0.334
-611.244	28.442	-0.077	-0.065
-610.230	-140.589	0.234	-0.024
-609.215	63.883	-0.170	0.170
-608.201	14.255	-0.217	-0.169
-607.186	800.000	0.103	-0.287
-606.171	70.327	0.083	0.086
-605.157	523.192	-0.137	-0.321
-604.142	16.664	-0.240	0.189
-603.128	418.188	-0.140	0.298
-602.113	99.284	0.139	0.160
-601.098	-123.633	-0.127	-0.020
-600.084	-134.225	0.457	-0.056
-599.069	430.758	-0.077	-0.167
-598.055	304.861	-0.134	0.247
-597.040	-20.445	-0.358	0.220
-596.025	800.000	0.095	0.307
-595.011	-45.865	-0.077	-0.038
-593.996	-140.042	0.275	0.029
-592.982	-200.000	-0.067	0.370
-591.967	244.271	-0.222	0.371
-590.952	252.681	0.209	0.356
-589.938	27.966	-0.225	-0.189
-588.923	-76.570	0.059	-0.021
-587.909	153.223	-0.167	0.228
-586.894	647.076	-0.089	-0.227
-585.879	372.820	-0.070	0.142
-584.865	103.068	0.145	-0.170
-583.850	-13.072	-0.064	0.042
-582.836	-200.000	-0.004	-0.207
-581.821	-65.569	0.086	0.034
-580.806	-43.021	-0.179	-0.091
-579.792	-90.556	-0.217	-0.062
-578.777	-92.172	-0.149	0.042
-577.763	60.335	0.123	0.122
-576.748	151.981	0.087	0.118
-575.733	180.599	-0.066	0.096
-574.719	87.182	0.498	-0.549
-573.704	477.366	-0.081	-0.182
-572.690	-200.000	-0.012	-0.070
-571.675	-200.000	0.001	-0.224
-570.661	16.060	0.032	-0.025
-569.646	-200.000	-0.033	-0.255
-568.631	-61.681	-0.071	0.029
-567.617	-29.668	0.214	-0.122
-566.602	-7.549	0.246	0.166
-565.588	-67.681	0.191	-0.074
-564.573	-51.609	-0.209	-0.097
-563.558	-200.000	-0.056	-0.321
-562.544	-61.919	0.225	-0.094
-561.529	188.560	0.092	-0.137
-560.515	-200.000	-0.049	0.271
-559.500	-46.455	0.047	0.023
-558.485	14.815	0.073	0.057
-557.471	-200.000	0.020	0.238
-556.456	27.570	-0.072	0.060
-555.442	44.939	-0.062	-0.057
-554.427	-84.993	-0.520	-0.162
-553.412	110.470	-0.097	0.116
-552.398	-83.581	-0.290	-0.092
-551.383	-46.754	-0.373	0.182
-550.369	-21.100	0.312	-0.190
-549.354	556.548	0.165	0.395
-548.339	-99.005	0.160	-0.040
-547.325	-121.437	0.138	0.023
-546.310	18.512	-0.113	0.090
-545.296	-200.000	-0.018	0.116
-544.281	-149.639	-0.123	-0.010
-543.266	-38.752	-0.114	-0.060
-542.252	142.559	0.024	0.032
-541.237	-63.105	0.239	-0.098
-540.223	-29.769	-0.206	0.117
-539.208	800.000	-0.054	0.197
-538.193	774.253	0.134	0.363
-537.179	-113.022	0.256	0.050
-536.164	-200.000	-0.054	-0.305
-535.150	-102.135	0.222	0.053
-534.135	162.836	0.226	-0.316
-533.121	-0.538	-0.056	-0.039
-532.106	-125.080	-0.086	0.013
-531.091	204.667	0.073	-0.112
-530.077	-191.647	-0.100	0.001
-529.062	-80.622	-0.456	-0.151
-528.048	800.000	-0.073	0.282
-527.033	800.000	0.029	0.100
-526.018	-62.762	-0.074	0.031
-525.004	224.181	-0.195	0.313
-523.989	-57.693	0.248	-0.108
-522.975	-32.161	-0.168	0.093
-521.960	-133.542	-0.218	-0.027
-520.945	-141.468	-0.158	-0.016
-519.931	-200.000	0.022	0.181
-518.916	-17.009	-0.383	-0.240
-517.902	245.184	0.274	0.458
-516.887	-62.217	-0.148	0.061
-515.872	800.000	-0.051	0.162
-514.858	19.790	-0.130	0.104
-513.843	29.256	-0.142	0.119
-512.829	746.831	0.102	-0.273
-511.814	31.200	0.313	-0.267
-510.799	-163.787	0.271	-0.013
-509.785	-131.839	-0.253	0.033
-508.770	-76.686	0.299	-0.104
-507.756	800.000	-0.043	-0.170
-506.741	-200.000	0.036	-0.263
-505.726	-200.000	-0.016	0.199
-504.712	-180.182	0.406	-0.008
-503.697	-77.774	-0.278	0.096
-502.683	-152.255	-0.172	-0.012
-501.668	162.304	-0.153	-0.213
-500.653	387.407	-0.028	0.057
-499.639	10.229	-0.257	0.194
-498.624	-95.446	0.061	0.016
-497.610	-200.000	-0.010	-0.303
-496.595	1.568	0.101	0.072
-495.581	67.086	-0.291	-0.294
-494.566	-200.000	0.057	-0.260
-493.551	-200.000	0.025	0.119
-492.537	54.518	-0.210	-0.201
-491.522	-72.371	-0.186	0.068
-490.508	-52.378	0.180	0.083
-489.493	-87.144	0.059	-0.018
-488.478	31.217	0.152	-0.129
-487.464	800.000	0.027	-0.115
-486.449	-200.000	0.015	0.183
-485.435	131.450	0.076	-0.097
-484.420	517.826	-0.069	0.161
-483.405	-198.806	0.279	-0.002
-482.391	495.012	-0.048	-0.108
-481.376	573.068	-0.096	0.232
-480.362	24.760	-0.093	-0.077
-479.347	800.000	-0.085	-0.265
-478.332	347.999	0.156	0.306
-477.318	186.047	-0.067	0.098
-476.303	-189.706	-0.114	0.001
-475.289	-102.013	0.125	-0.030
-474.274	-200.000	-0.052	-0.325
-473.259	-200.000	0.035	0.329
-472.245	231.103	-0.111	-0.181
-471.230	800.000	-0.067	-0.214
-470.216	-55.633	-0.376	0.167
-469.201	-200.000	-0.036	-0.183
-468.186	-200.000	-0.013	-0.084
-467.172	-12.237	0.220	-0.143
-466.157	-200.000	-0.005	-0.033
-465.143	123.676	-0.213	-0.265
-464.128	800.000	0.107	0.297
-463.113	146.087	0.067	0.089
-462.099	79.035	0.083	-0.088
-461.084	-32.409	0.341	-0.189
-460.070	56.812	0.032	-0.031
-459.055	800.000	0.060	0.224
-458.040	-75.413	-0.431	0.152
-457.026	28.440	-0.062	0.052
-456.011	-200.000	0.029	0.332
-454.997	-200.000	0.074	-0.436
-453.982	-200.000	0.043	-0.218
-452.968	-200.000	-0.005	0.032
-451.953	46.723	0.095	0.088
-450.938	800.000	0.141	0.458
-449.924	43.765	0.088	0.080
-448.909	-97.643	-0.111	0.029
-447.895	-37.683	-0.232	-0.122
-446.880	186.722	0.154	0.227
-445.865	800.000	-0.059	0.238
-444.851	-11.105	0.415	-0.271
-443.836	-13.988	-0.183	-0.117
-442.822	363.595	-0.094	-0.187
-441.807	-200.000	-0.007	-0.064
-440.792	769.078	0.018	0.049
-439.778	56.699	-0.249	0.240
-438.763	749.338	0.101	0.270
-437.749	170.552	-0.093	-0.132
-436.734	197.142	-0.164	0.248
-435.719	-121.390	-0.357	0.059
-434.705	231.839	0.226	-0.367
-433.690	-6.311	0.152	-0.103
-432.676	-200.000	0.007	-0.145
-431.661	-200.000	-0.017	0.149
-430.646	54.041	0.061	0.058
-429.632	-148.713	-0.118	-0.010
-428.617	441.789	-0.067	-0.145
-427.603	76.300	0.310	0.325
-426.588	133.715	0.099	0.127
-425.573	-150.310	0.096	-0.007
-424.559	-71.715	0.020	-0.007
-423.544	-90.330	0.449	0.129
-422.530	-200.000	-0.034	-0.172
-421.515	-200.000	0.005	0.157
-420.500	-181.040	0.227	-0.004
-419.486	-107.204	0.158	0.034
-418.471	434.448	-0.105	0.226
-417.457	-138.122	0.271	0.030
-416.442	112.877	-0.170	0.204
-415.428	-59.395	0.213	0.091
-414.413	-7.212	0.082	0.055
-413.398	-200.000	0.023	0.557
-412.384	-98.691	-0.663	0.167
-411.369	-32.210	-0.161	0.089
-410.355	-163.442	0.235	0.011
-409.340	800.000	-0.075	-0.260
-408.325	-67.939	0.239	0.092
-407.311	-189.228	-0.326	0.004
-406.296	-200.000	-0.037	0.234
-405.282	-7.937	0.170	0.114
-404.267	574.301	0.152	-0.367
-403.252	-47.598	-0.143	0.069
-402.238	569.772	-0.063	0.151
-401.223	216.097	0.022	-0.035
-400.209	213.533	-0.069	-0.108
-399.194	28.112	-0.207	0.173
-398.179	158.427	-0.097	-0.132
-397.165	376.645	-0.102	-0.206
-396.150	-8.571	0.200	-0.133
-395.136	-200.000	0.027	0.373
-394.121	520.557	-0.078	-0.182
-393.106	-200.000	0.049	0.309
-392.092	127.176	0.267	-0.336
-391.077	-1.577	-0.242	-0.169
-390.063	-200.000	0.012	0.093
-389.048	437.683	-0.182	-0.393
-388.033	-200.000	-0.021	-0.146
-387.019	378.159	-0.116	-0.235
-386.004	441.314	0.064	-0.139
-384.990	62.650	-0.097	0.096
-383.975	800.000	-0.064	0.177
-382.960	12.162	-0.231	0.175
-381.946	111.384	0.099	0.117
-380.931	282.246	0.129	0.228
-379.917	-130.160	0.145	0.020
-378.902	-52.945	-0.099	-0.045
-377.888	-161.177	0.284	0.015
-376.873	800.000	-0.070	-0.218
-375.858	160.575	0.093	-0.129
-374.844	-200.000	0.027	-0.120
-373.829	-200.000	0.006	-0.096
-372.815	-140.891	0.368	-0.037
-371.800	58.657	-0.138	-0.134
-370.785	-200.000	-0.021	0.162
-369.771	-86.147	0.025	0.008
-368.756	800.000	0.042	0.154
-367.742	-95.301	0.376	-0.100
-366.727	-200.000	0.010	-0.221
-365.712	91.651	0.020	-0.022
-364.698	10.881	0.184	-0.139
-363.683	-108.632	-0.302	0.064
-362.669	-36.826	-0.337	0.179
-361.654	408.140	0.082	0.171
-360.639	306.705	0.078	-0.143
-359.625	-155.677	-0.098	0.006
-358.610	14.220	0.158	-0.122
-357.596	65.239	-0.324	0.324
-356.581	-144.760	-0.287	0.026
-355.566	200.260	-0.045	-0.069
-354.552	800.000	-0.040	-0.168
-353.537	-148.408	0.054	0.004
-352.523	-127.592	-0.176	0.025
-351.508	-200.000	0.039	-0.284
-350.493	226.619	-0.145	-0.233
-349.479	12.555	0.256	0.195
-348.464	-169.310	0.083	-0.003
-347.450	800.000	0.051	0.210
-346.435	-65.088	0.182	-0.072
-345.420	759.297	-0.054	0.144
-344.406	62.199	0.313	0.308
-343.391	-158.462	-0.137	0.008
-342.377	-200.000	-0.009	0.097
-341.362	496.644	-0.036	-0.082
-340.348	74.159	-0.171	-0.178
-339.333	-200.000	0.021	0.348
-338.318	512.043	-0.111	0.256
-337.304	626.993	-0.075	0.187
-336.289	490.576	-0.092	-0.208
-335.275	-20.733	-0.257	-0.155
-334.260	-23.659	-0.159	-0.094
-333.245	-29.127	0.203	-0.115
-332.231	800.000	-0.061	-0.195
-331.216	788.142	0.088	0.237
-330.202	-200.000	-0.008	0.472
-329.187	-200.000	-0.026	-0.264
-328.172	800.000	0.100	-0.309
-327.158	-200.000	-0.005	0.127
-326.143	-12.233	0.069	0.045
-325.129	572.937	-0.094	-0.226
-324.114	297.384	0.063	-0.114
-323.099	-200.000	-0.003	0.017
-322.085	9.723	-0.256	-0.192
-321.070	98.308	-0.193	0.219
-320.056	-16.638	0.345	0.215
-319.041	-55.921	-0.030	0.013
-318.026	142.631	0.179	-0.235
-317.012	-83.662	-0.172	-0.054
-315.997	-200.000	0.055	-0.245
-314.983	292.588	0.047	-0.084
-313.968	-200.000	0.010	0.201
-312.953	-52.306	-0.170	0.078
-311.939	112.521	-0.272	-0.324
-310.924	27.497	0.090	-0.075
-309.910	-184.178	0.207	0.003
-308.895	252.412	0.036	-0.060
-307.880	-49.287	-0.172	0.081
-306.866	-58.026	-0.054	-0.023
-305.851	134.419	0.206	-0.263
-304.837	800.000	0.045	0.195
-303.822	-200.000	-0.009	0.077
-302.807	13.056	-0.118	0.090
-301.793	18.209	0.164	-0.129
-300.778	0.059	-0.152	-0.107
-299.764	-112.306	0.282	-0.056
-298.749	83.103	-0.122	-0.131
-297.735	-32.998	0.290	0.158
-296.720	-33.752	-0.241	0.131
-295.705	800.000	-0.021	-0.074
-294.691	40.505	0.148	0.131
-293.676	567.526	-0.131	-0.313
-292.662	800.000	0.052	0.197
-291.647	800.000	0.147	0.460
-290.632	89.457	0.190	0.209
-289.618	-200.000	0.007	0.132
-288.603	-83.785	-0.253	0.080
-287.589	37.606	0.217	-0.190
-286.574	-112.541	0.180	-0.035
-285.559	800.000	0.109	-0.327
-284.545	-4.149	0.178	0.121
-283.530	0.980	0.267	0.189
-282.516	-118.590	0.324	0.056
-281.501	-200.000	0.048	-0.304
-280.486	91.823	-0.197	-0.219
-279.472	128.277	-0.280	-0.351
-278.457	-24.276	0.310	-0.182
-277.443	-57.642	-0.106	0.046
-276.428	104.283	-0.101	-0.117
-275.413	-200.000	-0.180	-0.000
-274.399	-145.647	0.434	-0.038
-273.384	800.000	0.086	-0.295
-272.370	800.000	-0.069	-0.209
-271.355	19.843	0.212	-0.168
-270.340	800.000	0.169	0.500
-269.326	111.234	0.281	-0.333
-268.311	408.400	-0.189	-0.394
-267.297	800.000	0.016	-0.059
-266.282	-79.381	0.219	-0.073
-265.267	-200.000	0.001	0.082
-264.253	-114.905	0.162	-0.030
-263.238	-107.395	-0.424	-0.092
-262.224	130.132	-0.076	0.096
-261.209	800.000	0.052	0.163
-260.195	6.812	-0.212	-0.155
-259.180	587.843	0.088	-0.213
-258.165	-35.871	0.330	-0.175
-257.151	-64.072	-0.056	0.023
-256.136	-16.185	-0.316	0.197
-255.122	362.715	-0.107	0.211
-254.107	223.713	-0.091	0.144
-253.092	-159.388	-0.347	0.019
-252.078	800.000	0.089	0.316
-251.063	-32.097	0.111	-0.061
-250.049	461.297	-0.090	0.198
-249.034	-200.000	-0.025	0.135
-248.019	634.931	0.066	-0.165
-247.005	-197.214	-0.208	0.001
-245.990	-55.566	-0.248	-0.109
-244.976	-57.526	0.348	0.150
-243.961	40.791	-0.172	-0.153
-242.946	-200.000	0.017	-0.235
-241.932	59.808	0.272	-0.264
-240.917	-69.754	-0.243	-0.091
-239.903	-42.598	0.254	0.127
-238.888	30.820	-0.117	-0.099
-237.873	246.202	0.066	-0.109
-236.859	800.000	-0.029	-0.111
-235.844	-24.763	-0.169	0.099
-234.830	113.442	-0.237	0.282
-233.815	18.757	-0.058	0.045
-232.800	-155.110	-0.367	-0.024
-231.786	800.000	0.058	-0.184
-230.771	179.554	0.105	-0.151
-229.757	800.000	-0.102	-0.412
-228.742	-50.332	-0.200	0.093
-227.727	50.852	-0.108	-0.101
-226.713	-200.000	0.021	-0.105
-225.698	-9.218	-0.174	0.114
-224.684	394.630	-0.106	0.217
-223.669	449.597	0.156	-0.337
-222.655	-200.000	0.001	0.011
-221.640	509.850	-0.157	0.358
-220.625	-200.000	0.036	0.330
-219.611	-58.228	-0.169	0.072
-218.596	309.725	-0.170	-0.312
-217.582	670.618	-0.148	0.375
-216.567	-200.000	0.048	0.296
-215.552	14.910	0.048	0.037
-214.538	-73.328	-0.397	0.143
-213.523	800.000	0.014	0.039
-212.509	-138.953	0.333	-0.035
-211.494	-200.000	0.036	0.348
-210.479	-196.122	0.178	-0.001
-209.465	-200.000	0.025	-0.111
-208.450	-136.431	-0.146	-0.017
-207.436	383.637	0.034	-0.069
-206.421	114.962	-0.055	-0.066
-205.406	-81.338	0.396	-0.128
-204.392	444.972	-0.144	0.311
-203.377	-200.000	0.049	0.415
-202.363	-140.020	-0.146	0.015
-201.348	-200.000	0.016	-0.191
-200.333	-143.197	0.166	0.016
-199.319	-50.362	-0.301	0.140
-198.304	-102.823	-0.196	-0.046
-197.290	800.000	-0.070	0.267
-196.275	11.189	-0.077	-0.058
-195.260	12.400	-0.060	0.045
-194.246	-27.794	0.253	-0.144
-193.231	-108.668	0.311	0.065
-192.217	466.142	0.020	-0.045
-191.202	76.877	0.204	0.213
-190.187	800.000	0.072	-0.291
-189.173	25.493	0.137	0.112
-188.158	-5.062	-0.154	-0.104
-187.144	-200.000	0.078	0.367
-186.129	25.758	-0.024	-0.019
-185.114	71.154	-0.109	-0.110
-184.100	220.746	-0.082	0.129
-183.085	483.212	-0.160	0.356
-182.071	596.743	-0.090	0.218
-181.056	-109.042	0.167	-0.035
-180.042	-83.655	0.471	-0.148
-179.027	-91.729	0.070	0.020
-178.012	13.916	0.463	0.353
-176.998	1.684	0.048	-0.034
-175.983	80.024	0.146	-0.154
-174.969	46.480	-0.125	0.114
-173.954	-200.000	-0.049	0.286
-172.939	-26.027	-0.174	-0.100
-171.925	395.030	-0.132	-0.270
-170.910	-172.360	0.315	-0.010
-169.896	-16.144	0.049	0.030
-168.881	5.112	-0.366	0.264
-167.866	800.000	-0.107	0.331
-166.852	-2.507	-0.120	-0.082
-165.837	-200.000	-0.023	-0.220
-164.823	-128.882	-0.221	0.031
-163.808	103.708	0.109	0.126
-162.793	800.000	-0.084	-0.295
-161.779	189.232	-0.142	-0.209
-160.764	337.774	0.024	-0.046
-159.750	-200.000	-0.001	0.014
-158.735	-139.927	0.416	-0.043
-157.720	-58.369	0.196	-0.083
-156.706	337.418	-0.139	-0.265
-155.691	-200.000	0.066	-0.611
-154.677	-40.073	0.224	-0.115
-153.662	92.163	0.234	-0.258
-152.647	-47.849	-0.099	-0.047
-151.633	50.173	0.239	0.222
-150.618	-200.000	0.006	0.382
-149.604	299.405	-0.157	-0.284
-148.589	480.268	-0.101	0.223
-147.574	19.131	-0.236	-0.185
-146.560	82.133	-0.133	-0.141
-145.545	-72.642	-0.073	-0.026
-144.531	167.329	-0.110	0.153
-143.516	-8.910	-0.090	-0.059
-142.502	-92.149	-0.289	-0.080
-141.487	177.176	-0.174	-0.248
-140.472	120.771	-0.110	0.134
-139.458	-67.743	-0.125	0.048
-138.443	144.928	-0.169	-0.221
-137.429	-27.567	0.080	-0.045
-136.414	-29.285	-0.051	-0.029
-135.399	-94.499	0.147	0.039
-134.385	-200.000	-0.042	-0.206
-133.370	-131.781	0.163	0.021
-132.356	122.520	0.092	0.112
-131.341	33.868	0.193	0.165
-130.326	70.567	-0.197	-0.199
-129.312	-64.367	-0.135	0.054
-128.297	-200.000	0.001	-0.284
-127.283	-200.000	-0.006	-0.277
-126.268	-151.067	-0.080	0.006
-125.253	-200.000	-0.007	-0.082
-124.239	215.871	0.174	0.270
-123.224	800.000	-0.030	0.099
-122.210	-99.157	-0.158	-0.039
-121.195	-200.000	0.015	0.090
-120.180	800.000	0.087	0.278
-119.166	-152.443	0.065	0.005
-118.151	104.743	-0.162	0.186
-117.137	-82.882	0.145	0.046
-116.122	53.934	0.064	0.060
-115.107	358.479	-0.106	0.208
-114.093	498.080	0.169	0.381
-113.078	800.000	0.066	-0.212
-112.064	-200.000	0.019	0.092
-111.049	-200.000	0.073	0.350
-110.034	233.580	0.004	0.007
-109.020	-141.339	-0.171	0.017
-108.005	-16.647	0.047	0.029
-106.991	176.165	0.095	-0.135
-105.976	800.000	0.063	0.255
-104.962	64.172	0.196	0.193
-103.947	-200.000	0.049	0.218
-102.932	12.251	0.258	0.194
-101.918	-200.000	-0.002	-0.066
-100.903	-140.630	-0.012	-0.001
-99.889	-141.224	0.075	-0.007
-98.874	-116.351	0.146	0.026
-97.859	-141.083	0.104	-0.010
-96.845	-170.730	-0.364	0.012
-95.830	-200.000	-0.007	-0.117
-94.816	-62.958	0.159	-0.064
-93.801	-200.000	-0.005	0.109
-92.786	-200.000	-0.020	-0.167
-91.772	80.327	0.148	-0.156
-90.757	-98.997	-0.340	0.084
-89.743	800.000	-0.032	-0.115
-88.728	166.154	0.035	-0.049
-87.713	-128.651	0.098	-0.014
-86.699	89.204	0.029	-0.032
-85.684	-200.000	-0.034	-0.176
-84.670	205.575	-0.233	-0.354
-83.655	800.000	0.073	-0.283
-82.640	31.697	-0.062	-0.053
-81.626	-137.133	-0.285	-0.032
-80.611	331.799	-0.167	-0.315
-79.597	-66.516	0.228	-0.088
-78.582	-200.000	0.055	-0.284
-77.567	-136.383	0.068	-0.008
-76.553	-27.730	-0.138	-0.078
-75.538	2.771	-0.222	-0.157
-74.524	-18.068	-0.321	-0.196
-73.509	-93.930	-0.226	-0.061
-72.494	478.983	0.103	-0.229
-71.480	-200.000	0.047	0.250
-70.465	-5.431	-0.233	-0.156
-69.451	800.000	-0.035	-0.119
-68.436	529.214	-0.122	-0.280
-67.422	-200.000	0.005	-0.133
-66.407	-114.919	0.287	-0.053
-65.392	-156.427	-0.422	-0.026
-64.378	408.538	-0.016	0.033
-63.363	31.560	-0.320	-0.269
-62.349	-200.000	0.051	0.316
-61.334	227.656	-0.706	-1.121
-60.319	-6.073	0.686	0.458
-59.305	800.000	-0.297	-1.020
-58.290	293.370	0.694	1.235
-57.276	800.000	0.631	1.700
-56.261	-200.000	116.181	643.197
-55.246	502.976	1539.123	3473.016
-54.232	176.231	2710.319	3841.882
-53.217	104.309	2174.697	2497.638
-52.203	36.970	1691.054	1459.812
-51.188	29.590	1506.006	1250.289
-50.173	27.289	1481.113	1214.232
-49.159	49.851	1540.682	1417.470
-48.144	48.230	1556.111	1420.562
-47.130	29.540	1511.541	1254.345
-46.115	26.662	1496.201	1222.178
-45.100	26.468	1492.702	1217.967
-44.086	26.461	1490.684	1216.222
-43.071	26.415	1488.753	1214.293
-42.057	26.350	1487.014	1212.387
-41.042	26.463	1485.493	1211.861
-40.027	26.317	1484.787	1210.255
-39.013	26.330	1483.169	1208.980
-37.998	26.315	1481.741	1207.663
-36.984	26.370	1480.892	1207.292
-35.969	26.496	1479.067	1206.599
-34.954	26.481	1477.912	1205.509
-33.940	26.430	1476.432	1203.910
-32.925	26.388	1474.901	1202.335
-31.911	26.385	1473.701	1201.288
-30.896	26.436	1472.850	1200.888
-29.881	26.498	1471.287	1199.976
-28.867	26.610	1469.908	1199.544
-27.852	26.462	1468.783	1197.604
-26.838	26.545	1467.223	1196.831
-25.823	26.457	1465.890	1195.117
-24.809	26.549	1464.463	1194.507
-23.794	26.421	1463.069	1192.480
-22.779	26.478	1462.115	1192.033
-21.765	26.475	1460.876	1190.954
-20.750	26.507	1459.622	1190.098
-19.736	26.378	1458.843	1188.565
-18.721	26.527	1457.587	1188.475
-17.706	26.509	1455.956	1186.980
-16.692	26.399	1455.042	1185.468
-15.677	26.404	1454.326	1184.870
-14.663	26.395	1453.072	1183.743
-13.648	26.397	1452.166	1182.968
-12.633	26.407	1451.365	1182.332
-11.619	26.414	1450.728	1181.815
-10.604	26.298	1449.935	1180.364
-9.590	26.333	1449.007	1179.788
-8.575	26.353	1447.871	1178.949
-7.560	26.457	1446.934	1178.820
-6.546	26.354	1446.228	1177.527
-5.531	26.308	1445.592	1176.661
-4.517	26.400	1444.405	1176.246
-3.502	26.357	1443.425	1175.120
-2.487	26.337	1442.494	1174.189
-1.473	26.347	1441.767	1173.615
-0.458	26.317	1440.058	1171.981
0.556	26.574	1430.451	1161.298
1.571	23.765	1405.832	1123.472
2.586	20.466	1345.325	1055.028
3.600	18.810	1264.559	982.138
4.615	17.695	1220.686	941.824
5.629	15.161	1164.587	885.091
6.644	8.584	1083.888	791.247
7.659	3.769	1047.438	741.510
8.673	3.239	1042.099	735.133
9.688	3.230	1038.939	732.799
10.702	3.095	1037.585	731.137
11.717	3.226	1035.277	730.065
12.731	5.103	1036.112	739.495
13.746	11.568	1045.529	776.982
14.761	17.949	1053.691	813.471
15.775	19.825	1054.921	823.285
16.790	19.316	1053.589	819.751
17.804	18.231	1051.911	813.221
18.819	17.373	1050.122	807.693
19.834	16.985	1048.566	804.585
20.848	16.725	1047.965	802.820
21.863	16.525	1047.592	801.517
22.877	16.414	1046.371	799.985
23.892	16.271	1045.589	798.640
24.907	16.124	1044.868	797.322
25.921	16.256	1044.075	797.274
26.936	16.126	1043.655	796.264
27.950	16.229	1042.114	795.507
28.965	16.279	1041.122	794.914
29.980	16.415	1040.376	794.912
30.994	16.540	1038.846	794.263
32.009	16.521	1038.047	793.491
33.023	16.538	1037.507	793.085
34.038	16.571	1036.528	792.423
35.053	16.491	1035.613	791.278
36.067	16.469	1034.705	790.411
37.082	16.228	1033.743	788.485
38.096	16.356	1033.032	788.469
39.111	16.557	1032.037	788.578
40.126	16.491	1031.432	787.736
41.140	16.203	1030.668	785.741
42.155	16.248	1028.957	784.577
43.169	16.075	1027.922	782.915
44.184	15.988	1026.757	781.558
45.199	15.904	1025.654	780.257
46.213	16.026	1024.380	779.785
47.228	16.105	1024.459	780.139
48.242	16.253	1022.975	779.624
49.257	16.377	1022.187	779.526
50.271	16.256	1021.399	778.299
51.286	16.382	1019.888	777.661
52.301	16.340	1019.557	777.144
53.315	16.336	1018.616	776.342
54.330	16.190	1017.749	774.941
55.344	16.298	1016.639	774.523
56.359	16.119	1015.914	773.081
57.374	16.151	1015.369	772.747
58.388	16.170	1014.380	772.013
59.403	16.051	1013.624	770.824
60.417	15.917	1012.658	769.405
61.432	15.929	1012.046	768.929
62.447	15.964	1011.512	768.614
63.461	15.965	1010.756	767.976
64.476	15.852	1009.661	766.562
65.490	15.773	1008.992	765.629
66.505	15.832	1008.255	765.271
67.520	15.860	1007.340	764.632
68.534	16.008	1006.003	764.221
69.549	16.045	1005.505	763.944
70.563	16.015	1005.062	763.404
71.578	15.898	1004.044	762.035
72.593	15.906	1003.318	761.450
73.607	15.684	1002.349	759.645
74.622	15.690	1001.467	758.940
75.636	15.747	1000.640	758.502
76.651	15.723	999.939	757.795
77.666	15.793	998.932	757.280
78.680	15.839	998.147	756.826
79.695	15.806	997.382	756.031
80.709	15.884	997.229	756.195
81.724	15.817	996.812	755.511
82.739	16.146	995.558	755.971
83.753	16.066	994.928	755.067
84.768	16.151	993.826	754.543
85.782	16.380	993.530	755.276
86.797	16.480	993.125	755.348
87.812	16.470	992.418	754.697
88.826	16.501	990.575	753.367
89.841	16.396	990.093	752.468
90.855	16.586	989.196	752.563
91.870	16.411	988.623	751.283
92.884	16.509	988.277	751.390
93.899	16.552	987.444	750.880
94.914	16.510	986.784	750.126
95.928	16.642	986.106	750.131
96.943	16.657	985.373	749.572
97.957	16.653	984.136	748.549
98.972	16.507	983.807	747.585
99.987	16.520	982.964	746.936
101.001	16.561	982.045	746.354
102.016	16.499	981.461	745.571
103.030	16.366	980.956	744.533
104.045	16.534	979.238	743.905
105.060	16.506	978.629	743.252
106.074	16.443	977.332	741.925
107.089	16.386	976.200	740.752
108.103	16.023	975.977	738.922
109.118	15.912	975.215	737.795
110.133	15.930	974.075	736.946
111.147	15.873	973.272	736.021
112.162	16.019	971.977	735.615
113.176	16.013	971.370	735.066
114.191	16.083	971.073	735.080
115.206	16.220	969.972	734.780
116.220	16.092	969.210	733.579
117.235	16.153	967.988	732.856
118.249	16.099	967.263	732.009
119.264	16.068	966.093	730.924
120.279	15.934	966.055	730.247
121.293	16.041	964.701	729.624
122.308	15.886	964.060	728.403
123.322	15.898	963.111	727.675
124.337	15.933	962.196	727.068
125.352	15.880	961.126	725.966
126.366	15.766	960.211	724.721
127.381	15.910	958.869	724.263
128.395	15.776	958.087	723.032
129.410	15.877	957.099	722.657
130.424	15.899	956.057	721.900
131.439	15.977	955.471	721.730
132.454	15.905	954.700	720.775
133.468	16.026	953.829	720.571
134.483	15.953	953.787	720.165
135.497	16.136	952.853	720.177
136.512	16.174	951.840	719.508
137.527	16.099	951.099	718.567
138.541	16.144	950.169	717.990
139.556	16.171	949.666	717.664
140.570	16.170	948.995	717.089
141.585	16.142	948.606	716.612
142.600	16.391	947.666	716.894
143.614	16.415	947.002	716.430
144.629	16.509	946.388	716.300
145.643	16.457	945.957	715.691
146.658	16.552	945.194	715.451
147.673	16.496	943.753	714.062
148.687	16.220	943.263	712.460
149.702	16.257	942.247	711.786
150.716	16.262	941.152	710.919
151.731	16.136	940.314	709.692
152.746	16.184	939.177	708.973
153.760	16.178	939.062	708.799
154.775	16.271	938.167	708.453
155.789	16.236	937.885	708.030
156.804	16.407	937.141	708.121
157.819	16.498	935.778	707.411
158.833	16.475	935.276	706.871
159.848	16.548	934.854	706.793
160.862	16.651	933.936	706.467
161.877	16.662	933.330	705.992
162.892	16.460	931.900	704.008
163.906	16.255	931.637	702.891
164.921	16.197	930.512	701.740
165.935	16.219	929.311	700.866
166.950	16.243	928.856	700.557
167.964	16.345	927.924	700.216
168.979	16.515	926.647	699.896
169.994	16.324	925.947	698.512
171.008	16.358	925.166	698.003
172.023	16.414	923.938	697.247
173.037	16.476	923.720	697.278
174.052	16.493	923.475	697.098
175.067	16.640	922.071	696.584
176.081	16.460	921.401	695.275
177.096	16.212	920.588	693.582
178.110	16.353	919.640	693.384
179.125	16.410	919.041	693.106
180.140	16.354	918.276	692.237
181.154	16.294	917.704	691.498
182.169	16.508	917.149	691.895
183.183	16.413	916.997	691.331
184.198	16.658	916.003	691.519
185.213	16.724	915.400	691.275
186.227	16.649	914.673	690.359
187.242	16.720	914.471	690.436
188.256	16.781	913.731	690.062
189.271	16.776	912.834	689.304
190.286	16.909	912.246	689.342
191.300	16.758	911.385	688.013
192.315	16.298	910.226	685.213
193.329	16.223	909.403	684.226
194.344	16.199	909.160	683.887
195.359	16.305	908.162	683.506
196.373	16.511	907.737	683.960
197.388	16.532	907.665	683.929
198.402	16.814	907.070	684.560
199.417	16.837	906.974	684.519
200.432	16.981	906.445	684.639
201.446	17.097	905.882	684.621
202.461	17.105	905.869	684.586
203.475	17.183	905.006	684.186
204.490	17.151	904.013	683.246
205.504	16.872	903.293	681.521
206.519	16.806	902.441	680.554
207.534	16.769	902.349	680.274
208.548	16.778	901.280	679.445
209.563	16.918	900.321	679.222
210.577	16.943	899.622	678.734
211.592	16.896	899.294	678.237
212.607	17.004	898.716	678.174
213.621	17.159	897.905	678.121
214.636	17.210	897.315	677.818
215.650	17.106	896.767	676.929
216.665	17.040	896.163	676.153
217.680	16.943	896.235	675.758
218.694	17.199	895.489	676.157
219.709	17.248	894.942	675.880
220.723	17.170	894.174	674.928
221.738	17.105	893.360	673.996
222.753	17.102	892.802	673.505
223.767	17.203	891.831	673.112
224.782	17.250	891.215	672.773
225.796	17.396	890.349	672.638
226.811	17.413	889.801	672.231
227.826	17.348	889.347	671.572
228.840	17.143	888.558	670.107
229.855	17.090	888.057	669.461
230.869	17.093	887.400	668.921
231.884	17.040	886.724	668.141
232.899	17.193	885.680	667.897
233.913	17.023	885.136	666.761
234.928	17.080	884.435	666.397
235.942	17.098	884.023	666.098
236.957	17.083	882.953	665.174
237.972	16.993	882.361	664.317
238.986	16.997	881.986	663.994
240.001	17.046	881.226	663.554
241.015	17.166	880.585	663.481
242.030	17.156	879.909	662.874
243.045	17.337	879.195	662.981
244.059	17.224	878.756	662.151
245.074	17.243	878.008	661.604
246.088	17.136	877.416	660.682
247.103	17.270	877.157	660.952
248.117	17.397	876.429	660.837
249.132	17.558	875.929	661.025
250.147	17.776	875.196	661.259
251.161	17.954	875.097	661.817
252.176	17.796	874.608	660.776
253.190	18.006	873.453	660.659
254.205	17.951	873.064	660.093
255.220	18.118	872.439	660.208
256.234	17.857	872.057	658.849
257.249	18.001	871.294	658.772
258.263	18.002	870.389	658.035
259.278	17.958	870.198	657.660
260.293	18.120	869.092	657.390
261.307	18.050	868.831	656.867
262.322	17.987	868.687	656.456
263.336	18.028	868.254	656.227
264.351	18.158	867.168	655.848
265.366	18.257	866.430	655.609
266.380	18.044	866.320	654.655
267.395	18.165	865.603	654.516
268.409	18.060	864.542	653.256
269.424	18.058	863.805	652.631
270.439	18.115	863.167	652.312
271.453	18.054	862.432	651.467
272.468	17.821	861.684	649.957
273.482	17.927	860.857	649.679
274.497	17.854	860.695	649.221
275.512	17.925	859.878	648.815
276.526	17.927	859.014	648.113
277.541	17.938	858.573	647.766
278.555	18.038	857.964	647.627
279.570	18.181	857.551	647.803
280.585	18.286	857.031	647.748
281.599	18.333	856.713	647.627
282.614	18.228	855.780	646.468
283.628	18.221	854.980	645.781
284.643	18.066	854.433	644.725
285.657	18.161	853.983	644.689
286.672	18.012	853.927	644.026
287.687	18.137	853.400	644.044
288.701	18.059	852.662	643.137
289.716	18.065	852.140	642.707
290.730	18.257	851.598	642.963
291.745	18.145	850.873	641.938
292.760	18.248	849.919	641.549
293.774	18.343	849.182	641.292
294.789	18.447	848.907	641.414
295.803	18.351	848.582	640.755
296.818	18.214	847.597	639.440
297.833	18.169	846.830	638.637
298.847	18.249	846.565	638.679
299.862	18.316	845.060	637.737
300.876	18.349	845.157	637.880
301.891	18.333	844.761	637.464
302.906	18.320	844.267	636.987
303.920	18.553	843.353	637.105
304.935	18.699	842.698	637.097
305.949	18.718	842.352	636.850
306.964	18.704	841.513	636.107
307.979	18.638	840.683	635.178
308.993	18.439	840.572	634.302
310.008	18.658	839.922	634.565
311.022	18.675	839.519	634.268
312.037	18.711	838.964	633.925
313.052	18.573	838.743	633.190
314.066	18.517	837.307	631.845
315.081	18.379	836.773	630.877
316.095	18.425	836.146	630.519
317.110	18.285	836.133	629.937
318.125	18.474	835.200	629.876
319.139	18.415	834.743	629.258
320.154	18.421	834.514	629.050
321.168	18.309	833.964	628.169
322.183	18.504	833.398	628.404
323.197	18.539	832.521	627.815
324.212	18.538	832.034	627.388
325.227	18.602	831.696	627.311
326.241	18.383	831.607	626.387
327.256	18.520	830.751	626.188
328.270	18.429	830.099	625.307
329.285	18.471	829.487	624.945
330.300	18.464	829.027	624.521
331.314	18.522	828.374	624.183
332.329	18.490	828.063	623.777
333.343	18.587	827.734	623.825
334.358	18.756	827.116	623.918
335.373	18.739	826.396	623.260
336.387	18.733	825.599	622.583
337.402	18.863	825.034	622.573
338.416	18.885	824.574	622.250
339.431	18.826	824.274	621.752
340.446	18.956	824.010	621.970
341.460	19.123	823.295	621.977
342.475	19.040	822.822	621.266
343.489	19.094	822.346	621.048
344.504	19.296	821.902	621.387
345.519	19.137	821.382	620.363
346.533	19.326	820.586	620.388
347.548	19.268	820.146	619.794
348.562	18.913	819.910	618.283
349.577	19.057	818.743	617.863
350.592	19.009	818.397	617.379
351.606	18.991	817.878	616.867
352.621	18.981	817.326	616.358
353.635	18.934	816.597	615.586
354.650	19.122	816.450	616.095
355.665	18.987	816.116	615.305
356.679	19.142	815.798	615.565
357.694	19.203	814.848	615.013
358.708	19.270	814.269	614.759
359.723	19.080	814.028	613.846
360.738	19.022	813.797	613.410
361.752	19.017	812.806	612.589
362.767	19.080	812.764	612.730
363.781	19.219	812.358	612.863
364.796	19.384	811.806	612.979
365.810	19.330	811.722	612.671
366.825	19.555	811.145	612.979
367.840	19.505	811.320	612.879
368.854	19.604	810.375	612.464
369.869	19.542	809.593	611.596
370.883	19.517	809.064	611.055
371.898	19.466	808.488	610.386
372.913	19.459	808.265	610.140
373.927	19.568	807.787	610.109
374.942	19.592	806.702	609.321
375.956	19.462	806.378	608.563
376.971	19.774	805.539	608.975
377.986	19.735	805.225	608.548
379.000	19.753	804.968	608.362
380.015	19.884	804.647	608.526
381.029	19.755	804.135	607.631
382.044	19.763	803.292	606.969
383.059	19.852	802.323	606.496
384.073	19.795	801.977	605.981
385.088	19.816	801.774	605.848
386.102	19.666	801.060	604.728
387.117	19.551	800.476	603.831
388.132	19.455	800.003	603.085
389.146	19.421	799.827	602.780
390.161	19.512	799.255	602.615
391.175	19.652	798.909	602.788
392.190	19.845	798.361	602.995
393.205	19.790	798.116	602.564
394.219	19.704	797.513	601.757
395.234	19.519	797.161	600.793
396.248	19.584	796.227	600.262
397.263	19.548	795.733	599.714
398.278	19.328	795.377	598.628
399.292	19.464	794.930	598.711
400.307	19.499	794.749	598.643
401.321	19.331	794.550	597.857
402.336	19.461	793.959	597.810
403.350	19.472	793.715	597.611
404.365	19.553	793.277	597.507
405.380	19.678	792.721	597.470
406.394	19.870	792.350	597.800
407.409	19.986	791.388	597.420
408.423	19.999	791.284	597.335
409.438	19.936	791.132	596.951
410.453	20.063	790.531	596.881
411.467	20.156	790.057	596.791
412.482	20.226	789.682	596.694
413.496	20.124	789.412	596.087
414.511	20.112	789.300	595.909
415.526	20.263	788.838	596.025
416.540	20.299	788.290	595.685
417.555	20.334	787.317	595.016
418.569	20.135	787.089	594.110
419.584	20.181	787.086	594.212
420.599	20.155	786.277	593.460
421.613	162.397	1370.528	1797.299
422.628	140.557	1455.666	1797.361
