DTS Sentinel unit serial number:	SN413079Multiplexer serial number:	ORYXHardware model number:	OX4-SRSoftware version number:	ORYX F/W v4.00 Oryx Data Collector v3.7.2.0data status	okinstallation	princeton_trtdifferential loss correction	single-endedforward channel	channel 3reverse channel	N/Adate	2019/09/18time	04:56:35forward acquisition time	60.00reverse acquisition time	0.00gamma	496.2192k internal	0.2343k external	0.2343temperature offset calibration	0.9949default loss term (dB/km)	0.3790temperature slope calibration	1.0000multiplexer offset coefficient	1.0000multiplexer slope coefficient	1.0000fibre end	0.00T internal ref (°C)	23.50T ext. ref 1 (°C)	0.19T ext. ref 2 (°C)	17.93length (m)	temperature (°C)	Stokes	anti-Stokes-747.200	-200.000	-0.030	0.216
-746.185	15.965	0.068	0.054
-745.171	221.670	-0.096	0.154
-744.156	-200.000	-0.006	-0.082
-743.142	-10.118	-0.063	0.042
-742.127	-83.913	-0.378	0.121
-741.112	566.886	0.068	0.166
-740.098	735.202	-0.037	-0.100
-739.083	-74.385	-0.394	0.143
-738.069	105.054	-0.125	0.148
-737.054	-8.667	-0.058	-0.039
-736.039	-12.745	-0.218	0.142
-735.025	-21.390	0.262	0.160
-734.010	-162.404	0.054	-0.003
-732.996	61.300	-0.125	-0.125
-731.981	398.338	0.037	0.078
-730.966	-53.444	-0.172	-0.079
-729.952	-105.900	-0.106	0.024
-728.937	243.476	0.174	0.292
-727.923	702.307	-0.049	-0.128
-726.908	-177.176	-0.179	0.004
-725.894	81.106	-0.386	-0.417
-724.879	105.283	-0.038	0.045
-723.864	178.406	-0.108	0.157
-722.850	141.703	-0.160	0.212
-721.835	-155.191	0.198	-0.013
-720.821	-4.937	0.046	-0.031
-719.806	-73.366	-0.450	0.165
-718.791	-48.851	-0.288	0.138
-717.777	587.819	0.050	-0.123
-716.762	-120.597	-0.127	0.022
-715.748	-54.906	0.140	0.063
-714.733	-29.438	-0.188	-0.108
-713.718	111.648	0.033	-0.040
-712.704	-142.507	0.062	-0.006
-711.689	-104.179	0.322	-0.075
-710.675	-124.191	-0.130	0.020
-709.660	-106.302	-0.134	-0.030
-708.645	-194.347	-0.203	-0.002
-707.631	-184.554	-0.347	0.006
-706.616	72.627	-0.294	0.307
-705.602	-92.675	-0.241	0.068
-704.587	101.561	-0.254	-0.296
-703.572	-98.676	-0.221	0.056
-702.558	55.871	-0.212	-0.205
-701.543	-200.000	-0.009	0.400
-700.529	-82.391	-0.274	-0.089
-699.514	-200.000	0.046	-0.224
-698.499	-21.497	0.428	-0.261
-697.485	480.680	-0.108	-0.246
-696.470	-200.000	0.039	-0.234
-695.456	-98.890	0.166	-0.042
-694.441	95.082	0.164	-0.187
-693.426	-75.364	0.313	0.112
-692.412	-101.929	0.253	0.061
-691.397	-200.000	-0.008	-0.130
-690.383	56.912	-0.183	0.179
-689.368	-85.567	-0.192	-0.060
-688.354	772.544	-0.045	-0.124
-687.339	-54.183	-0.281	-0.127
-686.324	370.904	0.022	0.044
-685.310	-87.790	-0.182	-0.055
-684.295	-69.282	-0.226	-0.087
-683.281	18.009	0.065	-0.052
-682.266	-25.690	0.136	0.080
-681.251	195.056	-0.081	-0.123
-680.237	5.799	0.356	-0.263
-679.222	-133.451	0.177	-0.022
-678.208	-200.000	-0.006	0.383
-677.193	31.964	-0.144	0.124
-676.178	-200.000	0.026	0.140
-675.164	88.364	0.063	-0.070
-674.149	800.000	-0.024	-0.091
-673.135	-15.490	-0.105	0.067
-672.120	-157.377	0.131	-0.008
-671.105	481.062	0.028	0.063
-670.091	580.539	0.022	0.054
-669.076	-85.750	0.156	-0.048
-668.062	-103.217	-0.096	0.023
-667.047	35.991	-0.038	-0.033
-666.032	48.975	-0.298	0.279
-665.018	391.974	0.071	0.148
-664.003	-60.934	-0.145	0.061
-662.989	-15.860	-0.020	-0.013
-661.974	-45.420	0.347	0.172
-660.959	460.782	0.145	0.323
-659.945	-200.000	-0.042	0.529
-658.930	179.911	-0.103	-0.150
-657.916	423.106	-0.140	0.300
-656.901	800.000	-0.079	-0.343
-655.886	89.203	-0.138	-0.153
-654.872	-200.000	0.015	-0.289
-653.857	-13.038	0.283	0.184
-652.843	-99.070	0.230	0.058
-651.828	-38.116	-0.241	0.128
-650.814	143.133	-0.112	0.149
-649.799	-200.000	-0.022	-0.357
-648.784	69.248	-0.220	0.225
-647.770	120.637	0.110	0.136
-646.755	796.677	0.056	-0.154
-645.741	361.349	0.081	0.162
-644.726	277.374	0.025	-0.044
-643.711	267.383	-0.070	-0.123
-642.697	-18.041	0.081	0.051
-641.682	-126.858	-0.089	0.013
-640.668	75.504	0.148	0.156
-639.653	-142.309	-0.282	0.028
-638.638	-141.611	0.384	-0.039
-637.624	5.248	-0.178	-0.131
-636.609	800.000	-0.025	-0.077
-635.595	90.205	0.151	0.169
-634.580	203.587	-0.137	-0.212
-633.565	-15.536	0.232	0.148
-632.551	800.000	-0.041	-0.149
-631.536	171.238	-0.287	0.410
-630.522	800.000	0.096	0.299
-629.507	149.651	-0.218	-0.295
-628.492	-200.000	0.015	-0.330
-627.478	-200.000	0.005	-0.119
-626.463	5.911	-0.316	0.233
-625.449	-11.954	-0.141	-0.092
-624.434	-127.436	-0.027	0.004
-623.419	800.000	0.058	-0.236
-622.405	210.538	0.075	-0.118
-621.390	52.320	0.119	0.113
-620.376	800.000	-0.072	-0.262
-619.361	165.869	0.090	0.127
-618.346	769.855	0.050	-0.136
-617.332	21.178	0.185	-0.149
-616.317	-200.000	-0.061	-0.325
-615.303	800.000	0.097	0.293
-614.288	-70.300	0.243	0.092
-613.273	470.479	-0.058	-0.131
-612.259	-50.861	0.325	-0.152
-611.244	39.947	0.237	-0.212
-610.230	17.588	-0.315	-0.249
-609.215	800.000	0.069	-0.276
-608.201	231.963	0.085	0.139
-607.186	80.401	0.118	0.126
-606.171	492.454	-0.123	-0.280
-605.157	164.107	-0.150	-0.211
-604.142	800.000	-0.102	-0.413
-603.128	102.406	0.062	-0.072
-602.113	-200.000	-0.004	-0.037
-601.098	-200.000	-0.021	-0.105
-600.084	-200.000	0.009	-0.148
-599.069	104.536	0.080	0.094
-598.055	-200.000	-0.007	-0.297
-597.040	-32.763	0.124	-0.068
-596.025	-200.000	0.011	0.066
-595.011	540.841	-0.070	0.167
-593.996	-200.000	0.004	0.188
-592.982	-142.412	0.448	0.044
-591.967	84.605	-0.232	-0.253
-590.952	325.771	0.058	0.110
-589.938	95.875	-0.294	-0.335
-588.923	-98.700	-0.359	-0.091
-587.909	-200.000	0.061	-0.309
-586.894	-146.916	0.210	0.018
-585.879	-200.000	0.005	-0.050
-584.865	147.431	-0.024	0.032
-583.850	-80.249	0.187	-0.062
-582.836	-89.665	-0.257	0.075
-581.821	-133.887	0.248	-0.031
-580.806	-200.000	0.022	0.118
-579.792	339.726	0.124	-0.240
-578.777	-200.000	0.012	-0.098
-577.763	-9.982	-0.197	-0.131
-576.748	119.038	-0.142	-0.174
-575.733	59.196	0.136	-0.133
-574.719	196.246	-0.136	0.207
-573.704	24.077	0.353	0.290
-572.690	7.125	0.192	0.142
-571.675	-200.000	0.006	0.074
-570.661	302.002	-0.128	-0.236
-569.646	-54.660	-0.155	-0.070
-568.631	-23.943	-0.126	-0.075
-567.617	-123.533	-0.064	0.010
-566.602	-103.776	0.311	0.072
-565.588	246.760	0.019	0.033
-564.573	-7.872	0.141	-0.094
-563.558	-87.991	0.201	0.060
-562.544	73.122	-0.149	0.155
-561.529	-200.000	0.012	0.324
-560.515	-200.000	-0.011	0.132
-559.500	161.534	-0.043	-0.060
-558.485	413.249	-0.116	0.245
-557.471	43.286	-0.034	-0.030
-556.456	-85.442	-0.230	0.071
-555.442	-127.484	-0.398	-0.057
-554.427	278.244	-0.174	-0.308
-553.412	99.996	-0.094	0.108
-552.398	-200.000	0.034	-0.377
-551.383	800.000	-0.111	0.407
-550.369	284.470	0.076	-0.136
-549.354	-138.471	0.238	-0.026
-548.339	587.908	0.132	0.323
-547.325	-200.000	0.004	-0.141
-546.310	-3.287	-0.195	0.135
-545.296	-62.627	0.159	-0.066
-544.281	741.369	-0.160	-0.428
-543.266	45.352	-0.078	-0.072
-542.252	-66.867	0.066	-0.026
-541.237	72.024	-0.117	0.121
-540.223	-137.994	-0.103	-0.011
-539.208	79.916	0.221	0.236
-538.193	495.431	-0.124	0.283
-537.179	488.440	-0.121	0.276
-536.164	71.271	-0.086	-0.088
-535.150	-74.186	0.067	0.024
-534.135	566.545	-0.081	0.196
-533.121	-78.796	-0.060	-0.020
-532.106	352.959	0.060	0.119
-531.091	-65.397	-0.264	0.106
-530.077	-7.452	-0.320	-0.215
-529.062	-116.356	0.170	0.031
-528.048	-200.000	-0.041	0.624
-527.033	-69.736	-0.299	-0.113
-526.018	-155.347	0.106	0.007
-525.004	-99.271	0.144	-0.036
-523.989	191.791	-0.146	0.219
-522.975	-200.000	-0.018	0.151
-521.960	-60.106	0.170	0.072
-520.945	-52.910	0.326	-0.149
-519.931	108.727	0.230	-0.273
-518.916	-128.717	0.540	-0.076
-517.902	115.121	-0.042	0.051
-516.887	800.000	-0.072	-0.237
-515.872	-8.797	0.094	-0.063
-514.858	-165.619	0.094	-0.004
-513.843	-200.000	-0.005	-0.355
-512.829	-178.256	0.148	-0.003
-511.814	800.000	-0.118	-0.440
-510.799	-36.415	0.233	-0.124
-509.785	-88.786	0.193	0.057
-508.770	-45.634	0.201	0.099
-507.756	800.000	-0.086	-0.322
-506.741	-139.357	0.174	-0.019
-505.726	15.640	-0.148	-0.115
-504.712	800.000	0.032	-0.110
-503.697	84.800	0.247	-0.269
-502.683	39.072	-0.269	-0.239
-501.668	267.173	0.085	0.147
-500.653	800.000	-0.049	0.206
-499.639	-200.000	0.014	-0.146
-498.624	181.877	-0.108	0.157
-497.610	-40.194	-0.148	-0.076
-496.595	-75.684	-0.196	0.069
-495.581	-200.000	-0.016	0.169
-494.566	16.055	-0.116	0.091
-493.551	-200.000	-0.021	0.136
-492.537	-200.000	-0.028	-0.253
-491.522	-52.153	-0.146	0.067
-490.508	-118.908	-0.300	-0.052
-489.493	800.000	0.061	0.214
-488.478	-118.476	-0.433	-0.076
-487.464	283.858	0.126	0.224
-486.449	800.000	-0.015	-0.055
-485.435	800.000	0.067	-0.186
-484.420	516.768	0.093	-0.216
-483.405	-61.031	-0.333	-0.139
-482.391	249.937	0.098	0.164
-481.376	-77.431	0.062	-0.021
-480.362	45.701	0.105	0.096
-479.347	114.369	-0.162	0.195
-478.332	195.946	-0.111	0.167
-477.318	237.866	0.111	-0.183
-476.303	-102.638	-0.224	-0.053
-475.289	-114.397	-0.322	-0.061
-474.274	-78.768	0.025	0.009
-473.259	5.886	0.165	0.121
-472.245	-200.000	-0.020	0.096
-471.230	-0.287	0.086	0.061
-470.216	-18.166	0.123	0.076
-469.201	131.615	-0.114	0.145
-468.186	-200.000	0.000	0.182
-467.172	-86.895	0.190	0.057
-466.157	47.897	-0.125	-0.116
-465.143	-77.828	0.222	-0.076
-464.128	-114.445	-0.151	-0.029
-463.113	73.483	0.282	0.293
-462.099	89.989	-0.184	-0.204
-461.084	643.660	0.086	0.218
-460.070	-200.000	0.006	0.041
-459.055	-100.169	-0.250	-0.061
-458.040	93.651	-0.172	0.193
-457.026	161.118	0.047	-0.064
-456.011	642.982	0.087	0.220
-454.997	-18.044	0.177	0.110
-453.982	73.535	0.121	-0.126
-452.968	468.651	0.026	0.058
-451.953	130.523	-0.078	-0.099
-450.938	104.885	-0.138	-0.161
-449.924	-127.012	-0.189	0.027
-448.909	800.000	-0.161	-0.466
-447.895	80.837	0.198	-0.211
-446.880	800.000	0.045	-0.157
-445.865	501.369	0.066	-0.150
-444.851	-145.416	-0.438	0.039
-443.836	132.364	0.183	-0.234
-442.822	-89.673	0.114	0.033
-441.807	-110.366	-0.260	0.054
-440.792	13.178	0.263	-0.202
-439.778	184.461	0.100	-0.147
-438.763	362.523	0.089	0.177
-437.749	-53.083	0.172	-0.078
-436.734	-9.589	0.195	0.129
-435.719	-61.000	0.308	-0.129
-434.705	-135.412	0.229	-0.027
-433.690	27.759	-0.223	0.186
-432.676	159.512	0.194	0.267
-431.661	77.470	0.081	0.085
-430.646	615.462	-0.045	0.111
-429.632	-200.000	0.014	0.187
-428.617	200.898	-0.150	0.229
-427.603	-200.000	-0.022	-0.174
-426.588	439.108	-0.152	-0.329
-425.573	80.236	-0.067	0.071
-424.559	-99.282	0.071	0.018
-423.544	-76.956	-0.223	-0.077
-422.530	800.000	-0.052	0.177
-421.515	-20.768	-0.423	0.257
-420.500	-200.000	-0.033	0.596
-419.486	-160.606	-0.048	-0.003
-418.471	-123.938	0.088	0.014
-417.457	-200.000	0.008	0.211
-416.442	-2.664	0.317	0.219
-415.428	20.772	0.117	-0.094
-414.413	85.725	-0.216	0.235
-413.398	-53.436	-0.241	0.109
-412.384	265.998	0.085	-0.147
-411.369	-170.895	-0.170	0.006
-410.355	360.837	-0.103	-0.204
-409.340	800.000	-0.115	0.470
-408.325	-131.470	0.198	0.026
-407.311	800.000	0.101	0.330
-406.296	372.467	-0.060	-0.121
-405.282	800.000	-0.058	0.250
-404.267	-92.134	-0.203	0.057
-403.252	-200.000	-0.048	-0.314
-402.238	-156.927	-0.137	0.008
-401.223	-112.154	-0.288	-0.057
-400.209	-200.000	-0.000	0.185
-399.194	349.174	-0.114	0.223
-398.179	-200.000	0.056	-0.246
-397.165	-200.000	-0.004	-0.450
-396.150	-123.939	-0.283	0.044
-395.136	250.680	0.193	0.324
-394.121	581.915	-0.230	-0.556
-393.106	784.989	0.098	-0.264
-392.092	592.390	-0.098	0.240
-391.077	-68.637	0.442	0.169
-390.063	-200.000	0.039	-0.237
-389.048	-200.000	0.005	0.214
-388.033	247.936	0.129	0.215
-387.019	150.459	0.079	-0.106
-386.004	-97.585	-0.336	-0.086
-384.990	-200.000	0.019	-0.134
-383.975	145.168	-0.048	0.063
-382.960	-118.051	-0.472	0.083
-381.946	-65.996	-0.082	0.033
-380.931	293.033	0.319	0.574
-379.917	800.000	0.117	-0.361
-378.902	-200.000	-0.011	0.205
-377.888	-73.828	0.082	0.030
-376.873	222.933	0.113	0.180
-375.858	800.000	-0.090	0.376
-374.844	-88.900	0.263	-0.077
-373.829	-59.458	-0.283	0.120
-372.815	800.000	-0.088	0.318
-371.800	91.477	-0.138	-0.154
-370.785	-109.337	0.180	0.038
-369.771	-200.000	0.014	-0.225
-368.756	-3.370	-0.117	-0.081
-367.742	658.728	0.075	-0.190
-366.727	800.000	0.086	-0.252
-365.712	-200.000	0.045	0.285
-364.698	-59.200	0.204	-0.087
-363.683	53.337	-0.157	-0.148
-362.669	-200.000	0.060	-0.269
-361.654	-106.480	-0.048	0.011
-360.639	56.469	-0.043	-0.041
-359.625	99.993	0.250	-0.286
-358.610	-40.192	-0.078	-0.040
-357.596	761.820	-0.115	0.308
-356.581	-41.011	0.331	-0.169
-355.566	800.000	0.176	-0.493
-354.552	-200.000	-0.044	-0.210
-353.537	57.523	-0.088	0.084
-352.523	52.494	0.215	-0.203
-351.508	-200.000	0.059	-0.293
-350.493	-156.898	0.135	-0.008
-349.479	499.778	0.079	0.180
-348.464	210.441	0.034	-0.053
-347.450	78.862	0.136	0.143
-346.435	800.000	0.067	0.210
-345.420	-61.607	-0.192	-0.080
-344.406	12.315	0.168	0.128
-343.391	-200.000	-0.004	0.197
-342.377	-67.384	0.331	0.128
-341.362	87.435	0.059	0.065
-340.348	-94.068	0.466	0.126
-339.333	-98.358	-0.108	-0.027
-338.318	-98.207	0.169	-0.043
-337.304	-200.000	-0.031	-0.141
-336.289	800.000	-0.081	0.235
-335.275	42.013	0.075	0.067
-334.260	-28.501	-0.075	-0.042
-333.245	18.087	0.135	0.106
-332.231	199.659	0.185	-0.280
-331.216	-200.000	0.051	-0.365
-330.202	774.965	0.067	0.179
-329.187	-61.430	0.302	0.125
-328.172	19.084	0.134	0.106
-327.158	-78.255	-0.182	-0.061
-326.143	197.981	0.043	-0.065
-325.129	47.215	0.102	0.093
-324.114	11.584	0.082	0.062
-323.099	5.156	-0.397	0.288
-322.085	-86.318	0.217	-0.066
-321.070	-105.926	0.233	-0.052
-320.056	-80.605	-0.280	-0.092
-319.041	-200.000	-0.000	0.054
-318.026	-200.000	0.018	0.202
-317.012	42.881	0.279	0.251
-315.997	-99.684	0.200	-0.049
-314.983	-6.733	-0.269	0.180
-313.968	91.193	0.067	0.075
-312.953	800.000	-0.005	-0.015
-311.939	-177.734	-0.357	-0.008
-310.924	361.022	-0.081	-0.160
-309.910	-74.325	-0.241	-0.086
-308.895	357.056	-0.088	-0.172
-307.880	-138.745	-0.099	0.011
-306.866	-17.337	0.254	0.157
-305.851	-158.995	-0.208	-0.012
-304.837	-166.932	-0.155	0.006
-303.822	-154.130	-0.080	0.005
-302.807	331.010	0.144	-0.274
-301.793	800.000	0.049	-0.198
-300.778	22.286	0.334	-0.269
-299.764	28.383	0.259	-0.216
-298.749	70.632	-0.176	0.179
-297.735	180.291	-0.096	0.139
-296.720	-130.235	0.243	0.033
-295.705	-38.638	0.406	-0.211
-294.691	-119.460	0.189	0.032
-293.676	93.576	-0.050	0.056
-292.662	-26.069	0.173	-0.100
-291.647	332.042	0.148	-0.281
-290.632	-200.000	0.001	0.210
-289.618	800.000	0.078	0.259
-288.603	800.000	0.024	-0.095
-287.589	-200.000	0.032	-0.373
-286.574	92.543	0.259	-0.288
-285.559	37.150	0.153	-0.133
-284.545	-92.172	-0.259	0.072
-283.530	-90.438	0.110	0.031
-282.516	430.548	0.110	0.235
-281.501	-81.207	0.143	0.046
-280.486	-153.476	0.102	-0.007
-279.472	680.931	-0.060	0.154
-278.457	100.775	-0.136	0.155
-277.443	141.726	0.123	-0.160
-276.428	221.825	0.087	0.138
-275.413	800.000	0.049	-0.199
-274.399	-170.625	-0.279	0.010
-273.384	-72.173	0.048	0.017
-272.370	-41.577	-0.186	0.094
-271.355	800.000	0.138	0.466
-270.340	-23.716	-0.269	-0.159
-269.326	-75.164	-0.205	-0.072
-268.311	327.679	0.060	0.113
-267.297	449.727	-0.099	0.214
-266.282	92.730	-0.193	0.214
-265.267	-48.681	0.282	-0.133
-264.253	800.000	0.038	0.108
-263.238	192.826	-0.109	-0.162
-262.224	-121.396	-0.294	0.048
-261.209	215.057	-0.151	-0.235
-260.195	-2.451	-0.023	-0.016
-259.180	-38.596	-0.329	0.171
-258.165	-16.206	-0.087	-0.054
-257.151	-0.156	-0.181	-0.126
-256.136	7.040	-0.158	-0.116
-255.122	114.905	-0.111	0.133
-254.107	-51.433	0.126	-0.058
-253.092	-39.137	0.146	-0.075
-252.078	124.268	-0.114	-0.140
-251.063	-140.682	0.247	0.025
-250.049	175.906	-0.270	-0.385
-249.034	109.725	-0.374	-0.440
-248.019	800.000	-0.067	-0.216
-247.005	47.954	-0.227	-0.208
-245.990	-85.388	0.690	-0.211
-244.976	-146.145	0.211	0.018
-243.961	93.742	0.203	0.226
-242.946	152.693	-0.132	-0.177
-241.932	130.749	0.075	-0.095
-240.917	800.000	-0.025	0.105
-239.903	39.354	-0.120	-0.105
-238.888	-186.352	0.212	-0.003
-237.873	101.185	-0.136	0.155
-236.859	-51.063	0.087	0.040
-235.844	-30.522	-0.238	0.132
-234.830	798.361	-0.102	0.277
-233.815	-200.000	0.038	0.296
-232.800	503.382	0.146	0.330
-231.786	-140.310	0.069	0.007
-230.771	31.555	0.332	0.280
-229.757	192.960	0.135	-0.201
-228.742	185.889	-0.218	0.318
-227.727	193.458	0.076	-0.113
-226.713	-200.000	-0.016	0.074
-225.698	-64.235	0.247	-0.099
-224.684	-200.000	-0.064	-0.595
-223.669	7.030	-0.168	0.123
-222.655	-102.620	-0.074	-0.017
-221.640	77.399	0.208	-0.217
-220.625	-200.000	-0.019	-0.117
-219.611	-200.000	0.028	-0.158
-218.596	35.621	0.198	-0.170
-217.582	-78.949	-0.314	-0.105
-216.567	-114.788	-0.480	0.090
-215.552	-28.744	0.271	0.153
-214.538	71.067	-0.052	0.053
-213.523	-62.742	-0.208	-0.084
-212.509	-136.762	-0.421	-0.048
-211.494	-200.000	0.054	-0.341
-210.479	800.000	-0.045	0.133
-209.465	170.246	0.205	0.288
-208.450	1.848	0.083	-0.058
-207.436	422.969	-0.007	0.015
-206.421	-127.279	-0.319	-0.046
-205.406	-200.000	-0.065	-0.293
-204.392	121.525	0.059	0.073
-203.377	221.287	0.079	0.124
-202.363	749.642	0.053	0.141
-201.348	-200.000	0.005	-0.065
-200.333	-200.000	-0.056	0.324
-199.319	-18.047	0.158	0.097
-198.304	-87.666	-0.304	0.090
-197.290	-200.000	-0.034	0.284
-196.275	-126.677	-0.211	-0.031
-195.260	34.652	-0.068	0.058
-194.246	-11.571	-0.253	0.163
-193.231	162.972	0.219	0.301
-192.217	0.186	0.267	-0.187
-191.202	-30.647	-0.128	0.071
-190.187	-200.000	0.047	0.270
-189.173	-97.117	0.188	-0.048
-188.158	-200.000	-0.006	0.272
-187.144	-111.796	-0.260	-0.052
-186.129	188.695	0.122	-0.179
-185.114	-154.971	0.574	-0.037
-184.100	372.109	-0.083	-0.165
-183.085	5.736	-0.083	0.060
-182.071	-33.317	-0.112	-0.060
-181.056	-104.652	-0.189	0.043
-180.042	-168.064	-0.540	0.021
-179.027	-72.895	-0.167	0.060
-178.012	194.690	0.025	-0.037
-176.998	2.932	-0.164	0.117
-175.983	173.806	-0.257	0.363
-174.969	9.501	-0.147	0.109
-173.954	244.244	-0.120	0.197
-172.939	55.185	0.177	-0.168
-171.925	53.102	-0.048	0.045
-170.910	24.149	-0.127	0.103
-169.896	761.266	0.053	0.140
-168.881	-31.952	0.239	0.131
-167.866	-80.399	-0.281	-0.092
-166.852	263.661	0.183	0.311
-165.837	294.694	0.157	0.281
-164.823	384.180	-0.038	0.076
-163.808	338.264	-0.061	0.117
-162.793	109.101	0.132	-0.155
-161.779	-104.073	0.323	-0.074
-160.764	17.413	-0.197	-0.153
-159.750	-200.000	-0.013	0.111
-158.735	-121.581	0.078	-0.013
-157.720	-200.000	0.003	0.029
-156.706	-76.057	0.136	0.047
-155.691	43.451	0.136	-0.122
-154.677	66.582	-0.168	-0.167
-153.662	252.690	0.124	0.207
-152.647	-109.639	0.112	0.023
-151.633	-200.000	-0.004	0.269
-150.618	1.437	0.257	-0.181
-149.604	800.000	0.060	0.212
-148.589	-110.867	0.088	0.018
-147.574	-147.282	-0.091	0.008
-146.560	221.858	0.144	0.227
-145.545	334.504	0.055	0.104
-144.531	-200.000	-0.019	0.212
-143.516	-86.676	-0.285	0.085
-142.502	-26.489	-0.247	-0.142
-141.487	800.000	-0.036	0.152
-140.472	-31.395	0.618	0.340
-139.458	29.766	-0.302	0.252
-138.443	-163.287	-0.200	0.009
-137.429	46.205	-0.119	0.108
-136.414	800.000	0.020	0.055
-135.399	800.000	0.092	0.290
-134.385	60.135	-0.145	0.140
-133.370	-94.283	-0.145	-0.039
-132.356	-143.473	0.059	-0.005
-131.341	800.000	-0.109	0.311
-130.326	-64.962	0.152	-0.060
-129.312	47.368	0.082	0.075
-128.297	7.633	-0.191	0.139
-127.283	-103.415	-0.255	0.059
-126.268	-106.980	0.162	-0.035
-125.253	585.089	-0.050	-0.120
-124.239	133.971	-0.138	-0.174
-123.224	-200.000	-0.034	0.245
-122.210	88.765	-0.073	-0.079
-121.195	-200.000	0.037	-0.262
-120.180	120.917	0.066	-0.080
-119.166	800.000	0.128	0.456
-118.151	13.424	-0.284	0.215
-117.137	66.508	-0.117	0.116
-116.122	197.490	0.142	0.212
-115.107	-3.414	-0.203	0.138
-114.093	-154.115	0.251	0.017
-113.078	-200.000	0.038	-0.302
-112.064	-3.934	0.237	-0.161
-111.049	-102.670	0.204	-0.048
-110.034	461.455	0.115	0.250
-109.020	29.912	-0.329	0.274
-108.005	-7.300	-0.104	0.069
-106.991	-53.172	-0.181	-0.081
-105.976	48.310	-0.272	0.249
-104.962	225.632	0.189	0.298
-103.947	47.746	-0.149	-0.135
-102.932	604.979	0.124	-0.302
-101.918	-116.111	-0.220	0.040
-100.903	-160.651	0.088	0.005
-99.889	-43.084	0.128	0.063
-98.874	39.343	-0.175	0.153
-97.859	-200.000	0.014	-0.066
-96.845	217.861	-0.131	-0.205
-95.830	-200.000	0.087	0.404
-94.816	45.185	0.260	-0.234
-93.801	19.328	-0.106	0.083
-92.786	-99.510	-0.006	0.001
-91.772	179.590	0.097	-0.138
-90.757	102.240	-0.157	-0.179
-89.743	-159.461	0.167	-0.009
-88.728	-62.932	-0.212	-0.086
-87.713	-200.000	0.078	-0.494
-86.699	-200.000	0.078	0.381
-85.684	34.671	0.092	0.078
-84.670	19.958	0.318	0.250
-83.655	26.645	0.183	0.150
-82.640	-90.267	-0.343	-0.097
-81.626	-200.000	0.056	0.265
-80.611	-146.740	0.062	-0.005
-79.597	-33.695	0.290	-0.156
-78.582	96.865	0.037	0.042
-77.567	-73.063	0.356	0.127
-76.553	-200.000	-0.054	-0.274
-75.538	-200.000	0.049	-0.231
-74.524	473.988	-0.053	0.116
-73.509	291.586	0.196	0.349
-72.494	155.637	0.301	0.405
-71.480	-187.954	0.282	0.004
-70.465	7.944	-0.334	-0.244
-69.451	82.335	0.078	-0.082
-68.436	-200.000	0.041	0.339
-67.422	-82.820	0.320	0.101
-66.407	121.921	-0.255	0.310
-65.392	792.226	0.069	-0.185
-64.378	-41.114	0.308	-0.155
-63.363	-120.296	0.096	-0.016
-62.349	-200.000	0.049	0.257
-61.334	48.074	-1.208	-1.101
-60.319	9.974	0.938	0.694
-59.305	137.636	-0.823	-1.050
-58.290	193.886	0.801	1.183
-57.276	356.905	0.850	1.652
-56.261	-200.000	124.012	642.476
-55.246	416.072	1561.083	3245.727
-54.232	143.870	2719.580	3534.069
-53.217	95.663	2184.330	2429.561
-52.203	34.020	1703.087	1445.996
-51.188	26.546	1521.061	1240.403
-50.173	24.690	1497.160	1208.333
-49.159	47.849	1568.404	1427.451
-48.144	45.622	1581.133	1423.522
-47.130	26.645	1530.046	1248.215
-46.115	23.793	1513.753	1215.400
-45.100	23.533	1511.117	1211.458
-44.086	23.514	1509.547	1210.024
-43.071	23.594	1506.768	1208.289
-42.057	23.493	1505.326	1206.398
-41.042	23.447	1503.825	1204.839
-40.027	23.479	1502.261	1203.752
-39.013	23.530	1500.713	1202.811
-37.998	23.430	1499.629	1201.217
-36.984	23.456	1499.210	1201.013
-35.969	23.598	1496.608	1199.838
-34.954	23.516	1495.404	1198.268
-33.940	23.489	1493.835	1196.780
-32.925	23.481	1492.523	1195.632
-31.911	23.440	1491.852	1194.770
-30.896	23.526	1490.386	1194.131
-29.881	23.540	1488.995	1193.062
-28.867	23.656	1487.242	1192.389
-27.852	23.460	1486.594	1190.507
-26.838	23.571	1484.858	1189.814
-25.823	23.574	1483.134	1188.399
-24.809	23.507	1481.614	1186.691
-23.794	23.477	1480.170	1185.285
-22.779	23.528	1478.867	1184.539
-21.765	23.486	1478.430	1183.859
-20.750	23.479	1476.810	1182.469
-19.736	23.584	1475.527	1182.093
-18.721	23.512	1474.642	1180.854
-17.706	23.496	1473.724	1179.969
-16.692	23.449	1472.594	1178.707
-15.677	23.459	1471.491	1177.844
-14.663	23.499	1470.871	1177.561
-13.648	23.480	1469.727	1176.477
-12.633	23.535	1468.515	1175.823
-11.619	23.535	1467.782	1175.187
-10.604	23.480	1466.734	1173.938
-9.590	23.480	1466.060	1173.352
-8.575	23.515	1465.051	1172.728
-7.560	23.457	1464.733	1172.049
-6.546	23.516	1463.262	1171.214
-5.531	23.488	1462.758	1170.580
-4.517	23.437	1461.852	1169.472
-3.502	23.520	1460.874	1169.191
-2.487	23.540	1459.770	1168.392
-1.473	23.432	1458.926	1166.954
-0.458	23.455	1457.035	1165.551
0.556	21.827	1447.678	1155.077
1.571	18.893	1423.594	1116.731
2.586	15.635	1362.092	1048.107
3.600	14.282	1278.585	975.837
4.615	13.442	1235.777	938.322
5.629	11.683	1179.273	885.816
6.644	5.730	1097.720	794.385
7.659	0.941	1061.596	744.661
8.673	0.376	1056.011	737.914
9.688	0.122	1053.061	734.545
10.702	0.063	1051.625	733.194
11.717	0.189	1049.494	732.257
12.731	2.094	1050.508	742.165
13.746	8.425	1059.345	779.296
14.761	14.487	1067.078	814.620
15.775	16.728	1068.869	826.866
16.790	16.489	1067.551	824.609
17.804	15.602	1065.485	818.619
18.819	14.640	1064.088	812.793
19.834	14.184	1062.703	809.446
20.848	13.888	1061.613	807.107
21.863	13.743	1060.890	805.779
22.877	13.427	1059.856	803.392
23.892	13.418	1058.582	802.310
24.907	13.122	1058.013	800.370
25.921	13.096	1057.413	799.720
26.936	13.172	1056.825	799.575
27.950	13.176	1056.295	799.120
28.965	13.306	1055.267	798.901
29.980	13.315	1054.495	798.289
30.994	13.287	1053.416	797.266
32.009	13.371	1052.835	797.161
33.023	13.470	1052.201	797.089
34.038	13.409	1051.458	796.163
35.053	13.409	1050.361	795.260
36.067	13.438	1049.201	794.452
37.082	13.320	1048.727	793.458
38.096	13.482	1047.765	793.432
39.111	13.440	1046.994	792.577
40.126	13.451	1046.297	792.035
41.140	13.312	1045.443	790.650
42.155	13.358	1043.738	789.512
43.169	13.160	1043.660	788.440
44.184	13.291	1042.136	787.840
45.199	13.292	1041.015	786.930
46.213	13.243	1040.002	785.861
47.228	13.206	1039.594	785.307
48.242	13.321	1037.850	784.467
49.257	13.222	1037.612	783.747
50.271	13.355	1036.313	783.324
51.286	13.324	1035.268	782.322
52.301	13.363	1034.719	782.020
53.315	13.324	1033.816	781.087
54.330	13.314	1033.031	780.377
55.344	13.213	1032.114	779.139
56.359	13.238	1031.110	778.428
57.374	13.229	1030.093	777.549
58.388	13.164	1029.622	776.818
59.403	13.174	1028.667	776.076
60.417	13.305	1027.802	775.969
61.432	13.197	1027.231	774.967
62.447	13.289	1025.858	774.292
63.461	13.117	1025.461	773.117
64.476	13.175	1024.165	772.346
65.490	13.079	1023.572	771.381
66.505	13.110	1022.503	770.651
67.520	13.220	1021.960	770.688
68.534	13.241	1020.958	769.963
69.549	13.191	1020.428	769.261
70.563	13.243	1019.510	768.739
71.578	13.166	1019.060	767.974
72.593	13.208	1018.148	767.416
73.607	13.082	1017.418	766.212
74.622	13.221	1016.143	765.830
75.636	13.127	1015.676	764.974
76.651	13.289	1014.091	764.462
77.666	13.124	1014.026	763.582
78.680	13.129	1013.406	763.072
79.695	13.152	1012.798	762.652
80.709	13.134	1012.229	762.074
81.724	13.212	1011.397	761.738
82.739	13.161	1010.593	760.829
83.753	13.357	1009.261	760.660
84.768	13.306	1008.906	760.092
85.782	13.323	1008.540	759.826
86.797	13.298	1007.737	759.040
87.812	13.385	1006.459	758.410
88.826	13.287	1005.861	757.443
89.841	13.277	1005.332	756.933
90.855	13.293	1003.866	755.833
91.870	13.393	1003.219	755.737
92.884	13.539	1002.372	755.697
93.899	13.473	1001.739	754.853
94.914	13.333	1001.047	753.627
95.928	13.496	1000.247	753.700
96.943	13.479	999.667	753.118
97.957	13.451	998.772	752.252
98.972	13.341	998.232	751.278
99.987	13.442	997.257	750.937
101.001	13.380	996.836	750.270
102.016	13.326	995.833	749.208
103.030	13.326	995.064	748.560
104.045	13.477	993.408	747.930
105.060	13.480	992.933	747.520
106.074	13.483	991.857	746.660
107.089	13.298	990.899	745.038
108.103	13.306	990.213	744.494
109.118	13.261	989.581	743.749
110.133	13.367	988.668	743.475
111.147	13.218	988.187	742.374
112.162	13.269	987.002	741.650
113.176	13.305	985.957	740.959
114.191	13.353	985.090	740.459
115.206	13.401	984.527	740.182
116.220	13.444	983.454	739.505
117.235	13.322	982.967	738.527
118.249	13.429	981.853	738.102
119.264	13.326	981.021	736.951
120.279	13.253	980.360	736.063
121.293	13.280	979.299	735.322
122.308	13.393	978.397	735.085
123.322	13.278	977.589	733.899
124.337	13.386	976.538	733.526
125.352	13.301	975.509	732.313
126.366	13.406	974.024	731.597
127.381	13.269	973.529	730.555
128.395	13.217	972.666	729.612
129.410	13.315	971.313	728.964
130.424	13.211	970.691	727.974
131.439	13.240	970.057	727.565
132.454	13.350	968.929	727.137
133.468	13.258	968.227	726.143
134.483	13.317	967.686	725.930
135.497	13.464	966.740	725.802
136.512	13.309	966.296	724.722
137.527	13.425	965.364	724.467
138.541	13.371	964.359	723.415
139.556	13.422	963.737	723.105
140.570	13.421	962.787	722.327
141.585	13.413	962.405	721.941
142.600	13.514	961.499	721.636
143.614	13.475	960.677	720.784
144.629	13.430	960.465	720.366
145.643	13.601	959.166	720.073
146.658	13.581	958.226	719.217
147.673	13.651	957.387	718.828
148.687	13.532	956.458	717.551
149.702	13.322	956.412	716.545
150.716	13.445	955.116	716.042
151.731	13.483	954.424	715.623
152.746	13.539	953.313	714.967
153.760	13.479	953.056	714.453
154.775	13.405	952.583	713.717
155.789	13.478	951.749	713.343
156.804	13.497	950.823	712.665
157.819	13.574	949.774	712.147
158.833	13.647	949.323	712.062
159.848	13.644	948.629	711.464
160.862	13.708	948.182	711.339
161.877	13.707	947.274	710.594
162.892	13.618	946.268	709.395
163.906	13.556	945.376	708.398
164.921	13.699	944.373	708.196
165.935	13.613	943.268	706.937
166.950	13.613	942.377	706.205
167.964	13.701	941.407	705.790
168.979	13.756	940.462	705.254
169.994	13.619	940.043	704.294
171.008	13.637	939.068	703.580
172.023	13.709	938.459	703.365
173.037	13.680	937.463	702.434
174.052	13.835	936.544	702.341
175.067	13.710	936.142	701.449
176.081	13.639	935.805	700.831
177.096	13.756	934.459	700.255
178.110	13.633	933.594	699.025
179.125	13.826	932.984	699.322
180.140	13.701	932.071	698.050
181.154	13.738	931.080	697.403
182.169	13.821	930.866	697.528
183.183	13.771	930.047	696.642
184.198	13.792	929.511	696.268
185.213	13.894	928.677	696.010
186.227	13.783	928.500	695.350
187.242	13.894	927.603	695.082
188.256	14.014	926.750	694.883
189.271	14.006	926.128	694.319
190.286	13.983	925.334	693.569
191.300	13.869	924.433	692.357
192.315	13.778	924.262	691.787
193.329	13.885	923.045	691.259
194.344	13.703	922.689	690.174
195.359	13.787	922.302	690.174
196.373	13.803	921.496	689.576
197.388	13.973	920.676	689.606
198.402	14.117	920.250	689.824
199.417	14.151	920.021	689.734
200.432	13.961	919.797	688.715
201.446	14.058	919.338	688.713
202.461	14.149	918.957	688.745
203.475	14.296	918.212	688.733
204.490	14.185	917.445	687.639
205.504	14.177	916.349	686.723
206.519	14.195	915.666	686.224
207.534	14.317	915.023	686.186
208.548	14.036	914.062	684.248
209.563	14.212	913.425	684.434
210.577	14.205	912.943	683.983
211.592	14.060	912.436	682.948
212.607	14.225	911.964	683.212
213.621	14.266	910.977	682.578
214.636	14.266	910.830	682.407
215.650	14.251	910.116	681.751
216.665	14.443	909.072	681.694
217.680	14.458	908.625	681.362
218.694	14.369	908.510	680.850
219.709	14.410	907.498	680.198
220.723	14.457	907.198	680.105
221.738	14.499	906.337	679.570
222.753	14.311	906.108	678.570
223.767	14.536	904.490	678.215
224.782	14.552	903.800	677.705
225.796	14.550	902.936	676.987
226.811	14.511	902.844	676.699
227.826	14.424	902.040	675.685
228.840	14.538	901.082	675.369
229.855	14.546	900.411	674.838
230.869	14.516	900.110	674.434
231.884	14.314	899.439	673.054
232.899	14.440	898.570	672.852
233.913	14.414	897.900	672.188
234.928	14.523	897.200	672.042
235.942	14.471	896.667	671.375
236.957	14.557	895.687	670.925
237.972	14.505	895.172	670.273
238.986	14.589	894.180	669.810
240.001	14.544	894.094	669.504
241.015	14.558	893.151	668.795
242.030	14.546	892.215	667.986
243.045	14.555	892.047	667.838
244.059	14.584	891.289	667.327
245.074	14.739	890.386	667.209
246.088	14.600	889.829	666.179
247.103	14.642	889.627	666.137
248.117	14.729	889.003	665.958
249.132	14.660	888.021	664.888
250.147	14.773	887.671	665.017
251.161	14.760	887.287	664.618
252.176	14.906	886.351	664.441
253.190	14.963	885.552	664.008
254.205	14.907	884.884	663.226
255.220	14.988	884.575	663.257
256.234	15.043	883.806	662.838
257.249	15.100	883.634	662.877
258.263	14.944	883.000	661.725
259.278	15.024	882.339	661.489
260.293	15.092	881.773	661.273
261.307	15.000	881.231	660.448
262.322	15.196	880.587	660.677
263.336	15.123	879.733	659.691
264.351	15.269	878.941	659.615
265.366	15.084	878.649	658.608
266.380	15.144	878.120	658.391
267.395	15.181	877.447	657.971
268.409	15.249	876.311	657.329
269.424	15.239	875.471	656.603
270.439	15.180	875.227	656.129
271.453	15.205	874.040	655.279
272.468	15.124	873.970	654.854
273.482	15.081	873.031	653.922
274.497	15.218	872.398	653.926
275.512	15.253	871.394	653.251
276.526	15.151	871.213	652.659
277.541	15.162	870.647	652.220
278.555	15.207	869.871	651.756
279.570	15.355	869.196	651.770
280.585	15.382	868.997	651.665
281.599	15.473	867.704	650.993
282.614	15.481	867.455	650.780
283.628	15.387	866.935	649.968
284.643	15.331	866.394	649.288
285.657	15.473	865.729	649.282
286.672	15.565	865.238	649.210
287.687	15.408	864.830	648.240
288.701	15.550	864.218	648.273
289.716	15.506	863.658	647.625
290.730	15.492	863.155	647.137
291.745	15.598	862.458	646.966
292.760	15.455	861.759	645.833
293.774	15.582	861.223	645.863
294.789	15.705	860.568	645.787
295.803	15.608	859.894	644.852
296.818	15.522	859.615	644.254
297.833	15.500	858.927	643.598
298.847	15.724	857.839	643.585
299.862	15.691	857.157	642.891
300.876	15.598	856.349	641.871
301.891	15.627	855.767	641.487
302.906	15.670	855.419	641.335
303.920	15.802	854.302	640.946
304.935	15.804	853.776	640.498
305.949	15.923	852.888	640.229
306.964	16.016	852.539	640.263
307.979	15.799	852.457	639.321
308.993	15.838	851.909	639.004
310.008	15.837	851.264	638.460
311.022	15.852	850.984	638.249
312.037	15.934	850.293	637.985
313.052	15.871	849.976	637.450
314.066	15.737	849.498	636.529
315.081	15.858	848.420	636.122
316.095	15.704	848.289	635.388
317.110	15.811	847.405	635.073
318.125	15.943	846.832	635.085
319.139	15.909	846.176	634.408
320.154	15.968	845.784	634.279
321.168	16.058	845.035	634.000
322.183	15.911	844.655	633.107
323.197	16.013	844.516	633.331
324.212	16.068	843.536	632.743
325.227	15.982	843.027	631.984
326.241	15.940	842.932	631.700
327.256	16.024	841.954	631.226
328.270	16.030	841.399	630.777
329.285	16.052	840.946	630.463
330.300	16.042	840.253	629.852
331.314	16.058	839.757	629.482
332.329	16.063	839.014	628.891
333.343	16.019	838.400	628.210
334.358	16.126	838.120	628.344
335.373	16.095	837.569	627.759
336.387	16.194	836.681	627.406
337.402	16.161	836.482	627.079
338.416	16.254	835.671	626.759
339.431	16.299	834.986	626.356
340.446	16.254	834.794	625.990
341.460	16.205	834.442	625.490
342.475	16.377	833.680	625.503
343.489	16.275	833.126	624.654
344.504	16.359	832.412	624.373
345.519	16.444	832.026	624.341
346.533	16.431	831.526	623.862
347.548	16.503	830.483	623.293
348.562	16.364	830.768	622.936
349.577	16.386	830.069	622.438
350.592	16.328	829.235	621.546
351.606	16.535	828.637	621.802
352.621	16.406	828.549	621.207
353.635	16.258	828.134	620.299
354.650	16.344	827.873	620.362
355.665	16.356	827.101	619.773
356.679	16.666	826.573	620.460
357.694	16.481	826.554	619.712
358.708	16.535	825.552	619.105
359.723	16.564	824.799	618.591
360.738	16.588	824.337	618.279
361.752	16.563	823.946	617.838
362.767	16.562	823.754	617.636
363.781	16.589	823.362	617.387
364.796	16.682	822.617	617.112
365.810	16.666	822.113	616.622
366.825	16.598	822.024	616.250
367.840	16.782	821.611	616.556
368.854	16.787	821.045	616.094
369.869	16.821	820.575	615.813
370.883	16.814	819.983	615.289
371.898	16.948	818.786	614.820
372.913	16.705	818.958	614.015
373.927	16.852	818.280	613.984
374.942	16.831	817.563	613.316
375.956	16.824	817.357	613.082
376.971	16.944	816.399	612.742
377.986	16.832	815.916	611.924
379.000	17.102	815.117	612.242
380.015	16.988	815.248	611.875
381.029	17.029	814.590	611.473
382.044	17.067	813.969	611.092
383.059	17.084	813.033	610.397
384.073	17.104	812.418	609.953
385.088	17.176	811.948	609.803
386.102	17.051	811.992	609.336
387.117	17.154	811.191	609.050
388.132	16.902	810.851	607.836
389.146	16.958	810.824	607.961
390.161	17.034	809.894	607.485
391.175	17.124	809.760	607.652
392.190	17.078	809.276	607.069
393.205	16.987	808.992	606.476
394.219	17.082	808.413	606.330
395.234	17.143	807.835	606.060
396.248	17.138	807.206	605.517
397.263	17.119	806.923	605.184
398.278	17.002	806.258	604.216
399.292	16.955	805.929	603.749
400.307	17.110	805.125	603.641
401.321	17.013	804.875	603.058
402.336	17.114	804.676	603.212
403.350	17.143	804.232	602.930
404.365	17.215	803.737	602.759
405.380	17.375	803.134	602.822
406.394	17.308	802.740	602.234
407.409	17.331	802.374	601.991
408.423	17.421	801.884	601.886
409.438	17.261	801.466	600.953
410.453	17.399	800.940	600.996
411.467	17.457	800.619	600.903
412.482	17.567	799.920	600.716
413.496	17.451	799.616	600.025
414.511	17.573	799.185	600.079
415.526	17.548	798.917	599.734
416.540	17.599	798.422	599.489
417.555	17.552	798.250	599.141
418.569	17.378	797.739	598.093
419.584	17.413	797.333	597.861
420.599	17.579	796.665	597.890
421.613	113.536	1297.262	1486.893
422.628	97.774	1370.151	1486.957
