DTS Sentinel unit serial number:	SN413079Multiplexer serial number:	ORYXHardware model number:	OX4-SRSoftware version number:	ORYX F/W v4.00 Oryx Data Collector v3.7.2.0data status	okinstallation	princeton_trtdifferential loss correction	single-endedforward channel	channel 3reverse channel	N/Adate	2019/09/18time	19:44:35forward acquisition time	60.00reverse acquisition time	0.00gamma	496.2192k internal	0.2327k external	0.2327temperature offset calibration	1.0003default loss term (dB/km)	0.3790temperature slope calibration	1.0000multiplexer offset coefficient	1.0000multiplexer slope coefficient	1.0000fibre end	0.00T internal ref (°C)	31.61T ext. ref 1 (°C)	1.02T ext. ref 2 (°C)	22.09length (m)	temperature (°C)	Stokes	anti-Stokes-747.200	-13.310	-0.150	0.098
-746.185	44.172	0.195	0.180
-745.171	-147.247	0.204	-0.017
-744.156	258.533	0.174	0.302
-743.142	-152.589	-0.381	0.027
-742.127	-200.000	0.048	0.289
-741.112	-97.417	0.317	0.083
-740.098	-66.497	0.264	0.106
-739.083	-200.000	-0.014	-0.197
-738.069	488.952	0.117	0.269
-737.054	260.458	-0.220	0.384
-736.039	-104.435	-0.193	-0.045
-735.025	-200.000	-0.025	0.349
-734.010	105.853	0.247	-0.295
-732.996	-200.000	-0.025	0.147
-731.981	-200.000	-0.025	0.165
-730.966	-100.485	0.091	-0.023
-729.952	38.786	-0.191	-0.172
-728.937	-48.500	-0.072	0.035
-727.923	-154.810	-0.257	-0.017
-726.908	-4.276	0.264	-0.184
-725.894	186.129	-0.065	0.097
-724.879	-140.467	0.215	0.023
-723.864	-200.000	-0.003	-0.073
-722.850	-67.808	-0.221	-0.087
-721.835	-200.000	0.053	-0.278
-720.821	800.000	-0.085	-0.284
-719.806	-200.000	0.009	-0.085
-718.791	-12.200	0.098	0.065
-717.777	-48.985	-0.076	-0.037
-716.762	81.428	-0.084	0.092
-715.748	-200.000	-0.025	0.298
-714.733	-143.181	-0.087	0.008
-713.718	21.829	0.082	0.068
-712.704	-35.621	0.311	0.170
-711.689	308.302	-0.025	0.047
-710.675	363.684	-0.076	-0.155
-709.660	181.691	0.129	-0.191
-708.645	-200.000	-0.060	0.285
-707.631	417.999	-0.071	0.153
-706.616	226.133	0.085	-0.139
-705.602	800.000	0.017	-0.057
-704.587	448.589	-0.132	0.292
-703.572	203.095	0.092	-0.143
-702.558	-75.174	-0.209	0.075
-701.543	301.890	0.069	-0.128
-700.529	150.166	0.064	-0.087
-699.514	-75.835	0.317	-0.113
-698.499	-200.000	-0.027	-0.184
-697.485	-89.784	0.025	0.007
-696.470	-21.675	0.310	-0.190
-695.456	-36.199	0.024	-0.013
-694.441	48.343	-0.336	0.317
-693.426	22.829	-0.301	-0.248
-692.412	34.173	-0.095	-0.083
-691.397	-6.173	-0.063	0.043
-690.383	38.246	-0.018	0.016
-689.368	60.079	-0.101	0.101
-688.354	-61.170	-0.043	0.018
-687.339	143.228	-0.080	-0.107
-686.324	-47.790	-0.088	-0.043
-685.310	-108.892	-0.004	-0.001
-684.295	800.000	-0.090	-0.295
-683.281	-200.000	-0.053	-0.350
-682.266	87.360	0.311	0.346
-681.251	22.256	-0.224	0.184
-680.237	-200.000	-0.023	-0.396
-679.222	21.754	-0.242	0.198
-678.208	-19.435	0.069	0.043
-677.193	78.552	0.180	-0.194
-676.178	-79.402	0.184	-0.063
-675.164	-31.584	-0.110	0.062
-674.149	204.641	-0.156	0.243
-673.135	183.312	-0.174	-0.259
-672.120	-52.294	-0.270	0.126
-671.105	-200.000	0.028	-0.263
-670.091	-200.000	0.014	0.122
-669.076	-99.402	-0.265	0.067
-668.062	-200.000	-0.027	-0.265
-667.047	249.822	-0.043	0.072
-666.032	-111.284	-0.138	-0.028
-665.018	555.044	0.081	0.196
-664.003	20.882	0.120	-0.098
-662.989	-2.308	0.173	-0.122
-661.974	-45.263	-0.121	0.061
-660.959	-126.658	0.087	0.013
-659.945	13.634	-0.175	0.136
-658.930	-88.019	-0.119	-0.036
-657.916	341.553	0.141	0.278
-656.901	-25.989	0.216	-0.128
-655.886	-72.081	-0.240	-0.089
-654.872	215.967	0.081	0.130
-653.857	-183.997	0.211	-0.004
-652.843	-98.310	0.110	-0.028
-651.828	-39.306	-0.416	-0.219
-650.814	107.883	-0.102	-0.122
-649.799	159.363	0.034	-0.047
-648.784	800.000	0.079	0.269
-647.770	107.643	0.107	-0.128
-646.755	4.354	0.224	-0.165
-645.741	-112.238	-0.173	0.035
-644.726	-127.565	-0.310	-0.045
-643.711	500.414	0.076	0.175
-642.697	345.579	0.083	0.164
-641.682	-55.797	0.182	0.082
-640.668	-200.000	0.022	-0.329
-639.653	-200.000	-0.012	-0.157
-638.638	-43.717	0.013	0.006
-637.624	-29.173	-0.317	-0.183
-636.609	379.930	0.032	-0.066
-635.595	-64.211	-0.394	0.161
-634.580	-89.592	-0.397	0.117
-633.565	108.137	-0.050	-0.060
-632.551	124.140	0.229	-0.288
-631.536	-10.093	0.080	-0.053
-630.522	234.381	-0.220	0.364
-629.507	42.605	-0.025	-0.023
-628.492	194.191	-0.088	0.133
-627.478	-200.000	0.003	-0.534
-626.463	45.531	0.211	-0.195
-625.449	260.176	0.110	-0.190
-624.434	800.000	-0.049	-0.207
-623.419	-200.000	0.045	-0.251
-622.405	225.760	-0.075	-0.121
-621.390	800.000	0.075	0.225
-620.376	-78.744	-0.123	0.042
-619.361	-14.698	-0.014	0.009
-618.346	-7.685	0.224	0.152
-617.332	167.261	-0.050	-0.071
-616.317	-200.000	-0.045	0.256
-615.303	-200.000	-0.011	-0.118
-614.288	-150.329	0.008	-0.001
-613.273	154.968	0.106	0.147
-612.259	800.000	0.116	-0.348
-611.244	97.331	0.096	-0.110
-610.230	-129.888	0.397	-0.055
-609.215	28.733	0.117	-0.100
-608.201	-14.626	0.145	0.093
-607.186	185.259	-0.093	-0.138
-606.171	249.308	0.154	-0.262
-605.157	-32.915	0.052	-0.029
-604.142	1.176	-0.453	-0.326
-603.128	800.000	0.033	0.105
-602.113	-200.000	-0.029	0.200
-601.098	266.201	-0.122	0.214
-600.084	-177.636	-0.193	0.005
-599.069	95.121	-0.031	-0.035
-598.055	-130.984	-0.326	-0.044
-597.040	-10.774	0.520	-0.344
-596.025	-200.000	0.030	0.133
-595.011	-53.356	-0.213	0.098
-593.996	-49.388	0.383	0.183
-592.982	130.503	-0.226	0.291
-591.967	-150.960	0.324	-0.025
-590.952	217.113	-0.113	-0.180
-589.938	800.000	-0.095	-0.281
-588.923	372.633	0.105	0.214
-587.909	-105.655	0.142	0.032
-586.894	-105.606	0.336	-0.076
-585.879	497.821	-0.035	0.081
-584.865	-200.000	-0.037	-0.207
-583.850	-81.827	-0.131	-0.043
-582.836	231.797	0.052	0.086
-581.821	800.000	-0.116	-0.400
-580.806	-52.464	-0.149	-0.069
-579.792	37.347	0.256	0.227
-578.777	46.116	0.144	-0.134
-577.763	121.858	-0.081	-0.101
-576.748	197.125	0.096	-0.147
-575.733	-200.000	-0.017	-0.203
-574.719	-44.302	-0.566	0.284
-573.704	-200.000	-0.097	0.509
-572.690	-68.229	-0.048	-0.019
-571.675	182.917	0.074	0.109
-570.661	80.876	-0.307	-0.332
-569.646	-32.534	-0.275	0.153
-568.631	44.651	0.236	-0.217
-567.617	-200.000	0.036	-0.369
-566.602	-200.000	-0.012	-0.058
-565.588	49.405	0.210	-0.198
-564.573	147.245	-0.109	0.147
-563.558	-200.000	0.018	0.192
-562.544	-141.935	0.092	0.009
-561.529	-75.105	-0.145	-0.052
-560.515	-200.000	-0.038	-0.235
-559.500	110.648	-0.213	-0.256
-558.485	-28.347	-0.244	-0.141
-557.471	135.385	0.148	-0.193
-556.456	-169.096	0.056	0.002
-555.442	58.845	-0.162	0.160
-554.427	-68.660	0.255	0.099
-553.412	376.822	0.095	0.194
-552.398	7.236	0.202	0.151
-551.383	-96.659	0.232	-0.061
-550.369	790.595	0.123	-0.337
-549.354	25.279	0.068	0.057
-548.339	-26.920	0.070	-0.041
-547.325	-49.122	-0.248	-0.119
-546.310	-200.000	0.011	-0.383
-545.296	48.067	-0.174	0.162
-544.281	184.392	-0.253	0.374
-543.266	401.412	-0.061	-0.128
-542.252	767.938	-0.099	-0.268
-541.237	-179.483	-0.160	0.004
-540.223	800.000	0.060	-0.195
-539.208	4.254	0.102	-0.075
-538.193	-80.682	0.249	-0.083
-537.179	800.000	0.025	0.107
-536.164	749.505	0.042	-0.113
-535.150	-53.139	0.144	0.066
-534.135	-153.077	-0.190	0.013
-533.121	425.866	-0.032	-0.069
-532.106	-7.697	-0.155	-0.105
-531.091	-200.000	0.057	-0.253
-530.077	-21.349	-0.054	0.033
-529.062	-143.123	-0.317	-0.031
-528.048	-137.624	-0.250	0.028
-527.033	112.928	-0.356	0.431
-526.018	-200.000	0.005	-0.160
-525.004	318.935	-0.117	0.222
-523.989	706.227	0.088	0.231
-522.975	-35.552	0.129	-0.070
-521.960	-200.000	0.000	0.271
-520.945	34.670	0.192	0.168
-519.931	-172.547	0.178	-0.006
-518.916	236.029	0.035	-0.058
-517.902	-200.000	-0.041	-0.238
-516.887	478.175	-0.160	0.362
-515.872	-106.329	0.154	-0.034
-514.858	107.722	0.249	-0.297
-513.843	-63.006	-0.144	-0.059
-512.829	-114.419	-0.102	0.020
-511.814	176.022	0.144	0.209
-510.799	-200.000	0.006	-0.083
-509.785	-200.000	0.006	0.081
-508.770	52.203	0.046	0.044
-507.756	-200.000	0.001	-0.092
-506.741	-112.179	0.242	-0.049
-505.726	-155.434	0.133	-0.009
-504.712	-19.773	-0.245	0.151
-503.697	77.010	-0.137	0.146
-502.683	800.000	-0.010	0.035
-501.668	-31.304	0.082	0.046
-500.653	216.452	-0.071	-0.112
-499.639	61.826	0.226	0.225
-498.624	800.000	0.073	0.234
-497.610	-46.026	-0.224	0.110
-496.595	-200.000	-0.022	-0.141
-495.581	-69.417	0.258	0.099
-494.566	33.945	-0.197	0.172
-493.551	-200.000	0.001	0.159
-492.537	-200.000	-0.034	0.155
-491.522	-200.000	-0.027	0.123
-490.508	329.718	-0.033	0.063
-489.493	-124.058	-0.493	-0.077
-488.478	-132.447	0.198	0.025
-487.464	800.000	0.007	-0.021
-486.449	461.009	-0.094	-0.209
-485.435	-200.000	-0.045	0.240
-484.420	333.384	0.043	-0.083
-483.405	-200.000	0.025	0.362
-482.391	800.000	-0.056	0.171
-481.376	215.456	-0.144	0.229
-480.362	-200.000	-0.032	-0.170
-479.347	62.108	0.009	-0.009
-478.332	56.427	0.164	-0.159
-477.318	13.778	0.116	-0.090
-476.303	61.170	0.213	-0.211
-475.289	198.365	-0.181	-0.276
-474.274	-65.662	0.407	-0.163
-473.259	489.128	-0.062	-0.142
-472.245	325.895	0.109	0.209
-471.230	-200.000	0.021	0.110
-470.216	-47.889	-0.459	-0.222
-469.201	212.978	0.090	-0.143
-468.186	390.008	-0.178	0.368
-467.172	-38.023	0.243	0.129
-466.157	-26.382	0.126	0.074
-465.143	-200.000	-0.024	0.238
-464.128	800.000	-0.040	0.154
-463.113	-200.000	0.005	0.048
-462.099	310.306	-0.019	-0.035
-461.084	-161.296	0.316	0.016
-460.070	710.555	0.052	-0.138
-459.055	14.690	-0.330	-0.257
-458.040	-10.695	0.259	0.171
-457.026	-88.111	-0.177	-0.053
-456.011	-124.473	0.051	-0.008
-454.997	-145.134	0.480	-0.043
-453.982	-40.021	-0.056	0.029
-452.968	-97.210	-0.355	-0.092
-451.953	-118.973	0.297	-0.052
-450.938	-119.455	-0.358	-0.062
-449.924	384.682	-0.040	0.082
-448.909	-200.000	0.002	0.132
-447.895	-107.146	0.230	0.051
-446.880	557.677	0.131	-0.314
-445.865	262.012	-0.037	0.063
-444.851	-64.340	0.269	-0.109
-443.836	-156.554	-0.252	-0.016
-442.822	741.144	-0.070	0.187
-441.807	-25.976	-0.312	-0.183
-440.792	-10.215	0.071	-0.047
-439.778	-99.632	-0.399	-0.100
-438.763	-8.073	0.180	-0.121
-437.749	-200.000	0.001	-0.103
-436.734	800.000	-0.032	0.092
-435.719	224.470	0.109	0.176
-434.705	547.233	0.044	0.105
-433.690	-99.221	0.016	-0.004
-432.676	88.118	-0.079	-0.088
-431.661	800.000	0.031	-0.088
-430.646	-61.563	-0.268	0.112
-429.632	-33.934	-0.163	0.089
-428.617	229.670	-0.152	-0.248
-427.603	-49.838	-0.203	0.096
-426.588	505.802	0.102	0.234
-425.573	-145.037	0.099	0.009
-424.559	-200.000	0.021	-0.254
-423.544	-87.043	-0.612	-0.186
-422.530	56.487	0.089	0.086
-421.515	-7.903	0.429	0.288
-420.500	637.265	0.094	0.239
-419.486	7.154	-0.214	0.159
-418.471	-33.308	-0.290	0.160
-417.457	-28.671	-0.242	0.138
-416.442	22.265	0.233	0.190
-415.428	-65.289	-0.144	0.058
-414.413	90.729	0.155	-0.173
-413.398	-164.822	0.203	-0.009
-412.384	-43.005	-0.267	0.135
-411.369	158.154	0.097	-0.134
-410.355	-200.000	0.072	-0.386
-409.340	-49.612	-0.211	-0.100
-408.325	800.000	0.044	0.186
-407.311	-22.378	-0.383	-0.231
-406.296	-70.197	0.233	-0.088
-405.282	64.180	-0.194	-0.194
-404.267	-54.865	0.196	0.088
-403.252	-83.371	-0.382	0.122
-402.238	-14.479	0.157	0.100
-401.223	265.313	0.113	0.197
-400.209	-8.189	-0.104	0.069
-399.194	-86.744	-0.319	-0.097
-398.179	273.694	0.062	0.110
-397.165	-123.901	-0.058	0.009
-396.150	-200.000	-0.028	-0.147
-395.136	800.000	0.073	-0.261
-394.121	-200.000	0.007	-0.199
-393.106	-167.888	0.438	-0.017
-392.092	-112.445	0.110	0.022
-391.077	586.655	-0.153	0.374
-390.063	685.870	-0.060	-0.157
-389.048	82.117	-0.155	0.167
-388.033	485.927	0.011	-0.025
-387.019	-65.732	0.253	0.101
-386.004	155.537	0.086	-0.118
-384.990	33.252	-0.162	0.139
-383.975	10.444	-0.065	-0.049
-382.960	-107.692	0.313	-0.068
-381.946	180.092	-0.042	0.061
-380.931	585.758	0.155	-0.380
-379.917	304.401	-0.170	0.314
-378.902	165.025	-0.174	-0.244
-377.888	70.416	-0.290	0.298
-376.873	19.546	-0.259	-0.207
-375.858	-200.000	0.021	0.102
-374.844	-35.530	0.066	-0.036
-373.829	800.000	-0.020	0.060
-372.815	92.541	-0.124	0.139
-371.800	136.530	-0.277	-0.359
-370.785	50.222	-0.107	-0.100
-369.771	111.573	0.307	0.368
-368.756	-200.000	-0.024	0.271
-367.742	137.267	-0.181	0.235
-366.727	-200.000	-0.028	0.124
-365.712	-127.909	0.313	0.045
-364.698	-118.322	-0.330	0.058
-363.683	-36.810	0.182	-0.097
-362.669	96.042	-0.149	-0.169
-361.654	7.506	0.102	-0.075
-360.639	-200.000	-0.008	0.247
-359.625	-47.620	0.278	-0.134
-358.610	-200.000	-0.012	0.221
-357.596	-200.000	-0.032	-0.272
-356.581	-45.340	-0.338	0.167
-355.566	-200.000	0.029	0.172
-354.552	283.949	0.089	-0.160
-353.537	127.010	0.159	0.200
-352.523	66.861	-0.274	0.277
-351.508	-95.756	-0.125	0.033
-350.493	43.153	0.202	0.183
-349.479	-59.904	0.251	-0.106
-348.464	72.498	-0.134	-0.139
-347.450	-200.000	-0.052	-0.280
-346.435	208.089	0.184	-0.285
-345.420	79.930	0.044	-0.047
-344.406	-98.553	0.182	0.046
-343.391	267.026	-0.089	0.155
-342.377	-130.159	0.099	-0.013
-341.362	-200.000	-0.031	0.143
-340.348	-69.060	0.456	-0.174
-339.333	85.782	-0.139	0.151
-338.318	101.748	0.133	0.154
-337.304	-76.376	0.193	0.067
-336.289	39.335	-0.232	0.206
-335.275	-118.122	-0.163	0.029
-334.260	800.000	-0.087	-0.257
-333.245	-37.374	0.069	-0.036
-332.231	-200.000	-0.020	-0.156
-331.216	-10.261	0.331	0.218
-330.202	-56.203	-0.314	-0.138
-329.187	39.496	0.039	0.035
-328.172	-73.199	-0.207	0.075
-327.158	73.636	-0.209	-0.217
-326.143	225.503	-0.098	-0.157
-325.129	-67.253	0.199	0.078
-324.114	-200.000	0.014	0.181
-323.099	57.781	0.120	0.116
-322.085	-200.000	0.331	0.000
-321.070	228.051	0.193	-0.312
-320.056	138.079	0.209	0.272
-319.041	-37.509	0.031	0.016
-318.026	80.705	-0.151	0.161
-317.012	800.000	-0.105	0.457
-315.997	-168.891	-0.106	0.004
-314.983	-36.413	0.161	0.086
-313.968	417.086	0.041	-0.087
-312.953	-154.961	0.014	0.001
-311.939	800.000	-0.112	-0.327
-310.924	-30.127	-0.262	-0.148
-309.910	-41.325	-0.310	0.158
-308.895	-138.563	-0.113	0.012
-307.880	-153.258	-0.493	-0.034
-306.866	-124.083	-0.126	0.020
-305.851	63.725	0.087	0.087
-304.837	-133.484	0.466	-0.058
-303.822	-200.000	-0.030	-0.170
-302.807	116.677	-0.197	-0.240
-301.793	800.000	-0.113	-0.450
-300.778	-200.000	0.009	-0.117
-299.764	563.304	-0.040	-0.096
-298.749	-33.984	-0.266	-0.145
-297.735	-200.000	0.036	0.238
-296.720	57.697	-0.202	0.196
-295.705	-35.528	0.220	0.118
-294.691	92.902	-0.133	0.148
-293.676	-30.342	0.143	-0.080
-292.662	-67.250	-0.073	-0.028
-291.647	16.982	0.130	0.102
-290.632	-13.172	0.304	-0.196
-289.618	-200.000	-0.023	0.275
-288.603	-103.522	0.075	0.018
-287.589	-19.959	-0.099	0.061
-286.574	247.459	0.069	-0.116
-285.559	-118.450	0.304	0.053
-284.545	343.179	-0.200	-0.389
-283.530	-53.698	-0.478	0.216
-282.516	-67.761	0.332	-0.129
-281.501	54.030	0.189	-0.180
-280.486	-200.000	-0.003	-0.053
-279.472	-35.482	0.185	0.099
-278.457	98.628	-0.115	0.132
-277.443	800.000	0.103	0.412
-276.428	-200.000	-0.079	0.364
-275.413	-200.000	0.002	0.095
-274.399	-200.000	0.080	0.408
-273.384	1.425	0.066	0.047
-272.370	800.000	0.056	-0.177
-271.355	-33.302	0.376	-0.206
-270.340	64.331	0.229	0.229
-269.326	11.758	-0.288	0.219
-268.311	529.280	0.112	0.261
-267.297	31.712	-0.111	0.094
-266.282	-45.247	0.044	0.022
-265.267	-61.054	0.028	0.012
-264.253	-200.000	-0.004	0.285
-263.238	19.284	0.096	0.077
-262.224	-86.860	-0.513	-0.155
-261.209	-200.000	-0.064	-0.284
-260.195	28.850	0.073	-0.061
-259.180	72.132	0.233	-0.240
-258.165	-143.796	0.066	-0.006
-257.151	13.681	0.242	-0.186
-256.136	142.903	0.177	0.232
-255.122	-79.396	-0.233	-0.078
-254.107	-55.299	0.130	-0.058
-253.092	-114.253	-0.058	0.011
-252.078	-103.921	0.044	0.010
-251.063	-127.837	0.023	-0.003
-250.049	-116.052	-0.326	-0.060
-249.034	-38.551	0.174	0.091
-248.019	-87.015	0.181	-0.055
-247.005	264.661	-0.096	-0.166
-245.990	450.063	-0.013	-0.027
-244.976	-71.487	0.434	-0.160
-243.961	-200.000	0.008	-0.179
-242.946	-200.000	-0.029	-0.249
-241.932	-200.000	-0.017	0.200
-240.917	-78.580	0.039	0.013
-239.903	-70.169	0.147	0.055
-238.888	-46.429	-0.401	0.195
-237.873	135.772	-0.079	0.101
-236.859	4.297	0.207	0.150
-235.844	284.576	-0.107	-0.190
-234.830	-151.447	0.212	0.016
-233.815	203.335	0.084	-0.129
-232.800	-144.463	-0.130	-0.012
-231.786	800.000	0.051	-0.217
-230.771	37.670	0.296	-0.260
-229.757	110.677	-0.047	0.055
-228.742	795.543	0.074	0.202
-227.727	-200.000	-0.043	-0.234
-226.713	-20.905	-0.082	0.049
-225.698	-64.732	0.210	0.084
-224.684	-113.410	0.218	-0.042
-223.669	101.100	0.163	0.187
-222.655	800.000	-0.068	0.258
-221.640	307.330	0.078	-0.143
-220.625	143.840	0.105	0.138
-219.611	-3.917	-0.310	-0.212
-218.596	-200.000	0.037	0.162
-217.582	62.559	0.251	0.248
-216.567	-200.000	-0.061	-0.357
-215.552	377.372	-0.087	0.176
-214.538	-200.000	-0.004	-0.045
-213.523	-95.106	0.126	0.034
-212.509	96.821	-0.111	-0.126
-211.494	214.693	-0.149	0.234
-210.479	-167.120	-0.136	0.005
-209.465	-176.799	-0.196	0.005
-208.450	-165.374	0.361	-0.016
-207.436	-36.973	-0.112	-0.059
-206.421	-14.888	-0.153	-0.097
-205.406	800.000	0.022	-0.074
-204.392	800.000	0.111	-0.453
-203.377	-123.111	-0.436	0.069
-202.363	-12.006	0.342	0.221
-201.348	800.000	-0.059	0.163
-200.333	198.923	0.136	0.206
-199.319	-150.044	0.118	-0.009
-198.304	-86.942	0.143	-0.043
-197.290	-40.027	0.130	-0.067
-196.275	-56.076	0.151	-0.066
-195.260	233.655	-0.101	-0.164
-194.246	11.354	-0.230	-0.174
-193.231	-135.098	0.238	-0.028
-192.217	-200.000	-0.002	0.090
-191.202	-200.000	-0.005	0.258
-190.187	-200.000	0.040	-0.194
-189.173	-75.437	-0.387	-0.136
-188.158	-133.383	0.276	-0.034
-187.144	360.875	0.058	0.115
-186.129	-132.220	-0.253	0.032
-185.114	-200.000	0.045	-0.246
-184.100	800.000	0.080	0.244
-183.085	214.644	-0.103	0.161
-182.071	-138.461	0.173	0.019
-181.056	800.000	-0.105	0.293
-180.042	46.981	0.388	0.355
-179.027	99.093	0.221	0.252
-178.012	24.975	-0.184	-0.151
-176.998	-200.000	-0.024	-0.121
-175.983	-141.470	0.275	-0.027
-174.969	152.453	0.241	0.325
-173.954	484.193	-0.089	0.199
-172.939	800.000	0.051	0.152
-171.925	-64.524	0.214	0.086
-170.910	430.322	0.034	-0.072
-169.896	16.952	0.144	-0.113
-168.881	81.779	-0.060	0.064
-167.866	-65.670	0.335	-0.132
-166.852	14.380	0.043	-0.033
-165.837	-81.073	-0.128	-0.042
-164.823	-16.367	-0.289	-0.181
-163.808	-53.329	0.132	-0.060
-162.793	333.137	-0.172	-0.328
-161.779	-44.745	0.207	0.102
-160.764	800.000	-0.044	0.142
-159.750	433.427	0.081	0.173
-158.735	-141.303	-0.127	-0.013
-157.720	-48.773	-0.183	-0.087
-156.706	65.809	-0.201	-0.201
-155.691	203.898	-0.162	-0.247
-154.677	-79.576	-0.097	0.032
-153.662	-25.777	0.101	-0.059
-152.647	-145.700	-0.100	0.009
-151.633	-200.000	0.018	-0.108
-150.618	197.135	0.042	0.063
-149.604	-3.058	0.182	0.125
-148.589	-200.000	0.007	0.158
-147.574	-200.000	-0.011	-0.072
-146.560	-200.000	0.005	0.022
-145.545	-49.260	0.275	-0.129
-144.531	32.379	-0.079	0.067
-143.516	797.109	-0.021	-0.057
-142.502	16.980	-0.168	-0.131
-141.487	-64.477	-0.300	-0.120
-140.472	231.128	0.193	-0.311
-139.458	-133.758	0.041	-0.005
-138.443	-100.293	-0.196	0.048
-137.429	6.602	-0.111	0.081
-136.414	-200.000	-0.015	0.185
-135.399	-200.000	0.083	-0.400
-134.385	-124.258	-0.341	0.053
-133.370	800.000	-0.056	-0.210
-132.356	225.635	-0.170	-0.271
-131.341	800.000	-0.073	-0.200
-130.326	-200.000	-0.006	-0.262
-129.312	-200.000	-0.007	-0.186
-128.297	599.954	-0.081	0.198
-127.283	-200.000	-0.002	-0.205
-126.268	800.000	-0.071	-0.209
-125.253	-200.000	0.000	-0.176
-124.239	-129.888	0.134	0.018
-123.224	-120.119	0.097	0.016
-122.210	5.635	-0.319	0.232
-121.195	-200.000	0.053	-0.355
-120.180	-200.000	-0.005	0.213
-119.166	105.971	-0.105	-0.123
-118.151	10.800	-0.041	0.031
-117.137	-84.774	0.213	0.066
-116.122	-48.743	0.030	-0.014
-115.107	-200.000	0.022	0.094
-114.093	-159.568	0.169	0.009
-113.078	-87.001	-0.093	0.028
-112.064	-200.000	0.022	-0.122
-111.049	235.460	-0.195	0.317
-110.034	132.010	-0.152	0.193
-109.020	61.638	-0.223	0.218
-108.005	800.000	-0.137	0.435
-106.991	251.730	0.267	-0.447
-105.976	220.927	-0.047	-0.074
-104.962	431.876	0.163	-0.348
-103.947	-134.101	-0.076	-0.009
-102.932	-183.646	0.161	-0.003
-101.918	629.380	-0.121	-0.301
-100.903	-200.000	0.033	0.161
-99.889	-200.000	-0.000	0.044
-98.874	434.208	-0.145	-0.311
-97.859	207.079	-0.056	-0.085
-96.845	455.099	0.174	-0.378
-95.830	97.867	-0.247	-0.279
-94.816	800.000	-0.048	-0.186
-93.801	-67.864	-0.466	0.179
-92.786	-141.970	0.181	0.018
-91.772	-200.000	0.002	-0.171
-90.757	564.174	0.080	-0.192
-89.743	-18.164	-0.129	0.079
-88.728	598.557	0.054	-0.133
-87.713	222.831	-0.223	0.353
-86.699	-134.248	-0.136	0.016
-85.684	166.421	-0.196	0.272
-84.670	108.140	0.040	-0.046
-83.655	-159.648	-0.442	0.024
-82.640	73.793	0.255	0.262
-81.626	-134.268	0.314	0.038
-80.611	-186.752	0.207	-0.003
-79.597	-200.000	-0.029	0.409
-78.582	699.685	-0.078	-0.201
-77.567	309.979	0.051	0.093
-76.553	-1.396	-0.097	0.067
-75.538	28.987	0.355	-0.296
-74.524	21.706	0.186	0.149
-73.509	400.572	-0.023	-0.048
-72.494	-158.313	-0.330	-0.019
-71.480	-59.456	-0.115	-0.048
-70.465	23.071	-0.175	-0.141
-69.451	21.723	0.095	-0.076
-68.436	399.878	0.015	0.031
-67.422	653.610	0.087	-0.219
-66.407	-83.236	0.172	0.054
-65.392	-17.348	-0.111	0.068
-64.378	-37.744	-0.177	0.092
-63.363	800.000	0.066	0.205
-62.349	29.599	-0.147	-0.123
-61.334	23.176	-0.938	-0.756
-60.319	612.250	0.271	0.667
-59.305	800.000	-0.327	-1.040
-58.290	182.157	0.785	1.136
-57.276	800.000	0.470	1.672
-56.261	-200.000	105.134	594.798
-55.246	469.834	1460.836	3221.180
-54.232	150.548	2637.766	3516.061
-53.217	109.170	2173.133	2551.771
-52.203	42.190	1706.727	1521.153
-51.188	34.922	1519.538	1304.909
-50.173	32.323	1493.464	1265.014
-49.159	53.014	1545.595	1451.219
-48.144	54.207	1562.627	1475.311
-47.130	34.900	1520.552	1305.427
-46.115	31.898	1505.747	1272.335
-45.100	31.739	1502.151	1268.168
-44.086	31.629	1500.744	1266.188
-43.071	31.648	1498.137	1264.062
-42.057	31.555	1497.077	1262.490
-41.042	31.578	1495.864	1261.571
-40.027	31.617	1494.309	1260.475
-39.013	31.536	1492.528	1258.376
-37.998	31.583	1491.356	1257.652
-36.984	31.517	1490.657	1256.573
-35.969	31.586	1488.886	1255.492
-34.954	31.570	1487.559	1254.215
-33.940	31.529	1486.278	1252.809
-32.925	31.706	1484.852	1252.743
-31.911	31.660	1483.313	1251.088
-30.896	31.659	1482.313	1250.191
-29.881	31.679	1481.080	1249.231
-28.867	31.598	1480.179	1247.883
-27.852	31.665	1478.648	1246.988
-26.838	31.607	1477.116	1245.259
-25.823	31.646	1475.731	1244.305
-24.809	31.732	1473.745	1243.152
-23.794	31.727	1472.252	1241.806
-22.779	31.609	1471.459	1240.311
-21.765	31.679	1469.906	1239.415
-20.750	31.623	1469.172	1238.377
-19.736	31.650	1467.790	1237.337
-18.721	31.576	1466.858	1236.018
-17.706	31.606	1465.619	1235.119
-16.692	31.719	1464.451	1234.835
-15.677	31.591	1463.654	1233.270
-14.663	31.688	1462.712	1233.066
-13.648	31.648	1461.698	1231.901
-12.633	31.650	1461.070	1231.330
-11.619	31.592	1459.806	1229.836
-10.604	31.671	1458.792	1229.454
-9.590	31.542	1458.154	1228.021
-8.575	31.565	1457.826	1227.844
-7.560	31.508	1456.630	1226.418
-6.546	31.479	1455.859	1225.527
-5.531	31.566	1454.835	1225.189
-4.517	31.662	1453.643	1224.760
-3.502	31.567	1452.740	1223.334
-2.487	31.512	1451.462	1221.849
-1.473	31.561	1450.612	1221.406
-0.458	31.545	1449.397	1220.226
0.556	30.410	1438.278	1204.983
1.571	25.944	1410.348	1152.990
2.586	20.788	1346.253	1068.927
3.600	18.132	1262.476	987.013
4.615	16.604	1218.120	943.733
5.629	14.470	1163.284	889.790
6.644	7.914	1080.755	793.986
7.659	2.005	1041.617	736.699
8.673	1.075	1035.807	728.056
9.688	1.066	1032.598	725.696
10.702	0.951	1031.631	724.403
11.717	0.978	1029.418	722.909
12.731	3.147	1031.084	734.378
13.746	10.125	1040.074	774.222
14.761	16.116	1047.896	808.791
15.775	17.656	1048.874	816.863
16.790	17.227	1047.562	813.714
17.804	16.204	1045.522	807.166
18.819	15.483	1043.485	802.078
19.834	15.067	1042.231	799.060
20.848	14.732	1041.058	796.491
21.863	14.443	1040.252	794.428
22.877	14.238	1039.880	793.096
23.892	13.938	1038.832	790.799
24.907	13.957	1037.662	789.929
25.921	13.596	1037.767	788.225
26.936	13.967	1036.311	788.811
27.950	13.923	1035.965	788.265
28.965	13.800	1035.462	787.229
29.980	14.109	1034.422	787.833
30.994	14.195	1032.945	787.045
32.009	14.103	1032.714	786.365
33.023	14.188	1031.955	786.121
34.038	14.197	1030.598	785.058
35.053	14.147	1030.303	784.530
36.067	14.003	1029.749	783.359
37.082	14.118	1028.484	782.871
38.096	14.078	1027.987	782.231
39.111	14.091	1026.813	781.333
40.126	14.111	1025.917	780.673
41.140	14.075	1024.915	779.675
42.155	14.018	1023.989	778.632
43.169	13.958	1022.846	777.414
44.184	13.870	1022.265	776.492
45.199	13.917	1020.819	775.546
46.213	13.940	1020.050	774.999
47.228	14.017	1018.974	774.472
48.242	13.851	1018.805	773.501
49.257	14.041	1016.986	772.935
50.271	14.007	1016.233	772.140
51.286	14.006	1015.740	771.691
52.301	14.074	1014.793	771.220
53.315	13.922	1013.839	769.719
54.330	14.064	1013.265	769.875
55.344	13.927	1012.475	768.571
56.359	13.997	1011.311	767.945
57.374	13.991	1010.379	767.142
58.388	13.885	1009.950	766.257
59.403	13.927	1008.747	765.473
60.417	13.890	1008.134	764.766
61.432	13.921	1007.569	764.416
62.447	13.956	1006.753	763.888
63.461	13.884	1006.079	762.977
64.476	13.781	1005.288	761.837
65.490	13.831	1003.876	760.929
66.505	13.813	1003.398	760.418
67.520	13.903	1002.331	759.952
68.534	13.914	1001.733	759.483
69.549	13.942	1001.235	759.165
70.563	13.910	1000.357	758.290
71.578	13.990	999.458	757.906
72.593	13.922	998.595	756.875
73.607	13.786	997.994	755.729
74.622	13.890	997.063	755.433
75.636	13.878	996.190	754.647
76.651	13.855	995.361	753.849
77.666	13.931	994.464	753.448
78.680	13.804	993.918	752.391
79.695	13.867	993.615	752.384
80.709	13.934	992.839	752.034
81.724	13.896	992.170	751.285
82.739	13.884	991.677	750.792
83.753	13.944	990.620	750.199
84.768	13.982	989.788	749.673
85.782	13.977	989.204	749.139
86.797	14.104	988.226	748.907
87.812	14.047	987.586	748.098
88.826	13.993	986.731	747.139
89.841	14.083	985.897	746.850
90.855	13.972	985.042	745.636
91.870	14.130	984.245	745.676
92.884	14.041	983.721	744.813
93.899	13.988	983.064	744.013
94.914	14.108	981.910	743.612
95.928	14.130	981.352	743.219
96.943	14.162	981.069	743.085
97.957	14.209	979.699	742.188
98.972	14.065	979.451	741.293
99.987	13.994	978.898	740.495
101.001	13.949	978.380	739.835
102.016	14.076	976.570	738.967
103.030	14.122	976.297	738.897
104.045	14.126	974.906	737.795
105.060	14.041	974.182	736.807
106.074	14.156	972.997	736.355
107.089	14.066	972.459	735.483
108.103	13.998	971.481	734.380
109.118	13.989	970.467	733.506
110.133	13.903	969.854	732.599
111.147	14.017	968.770	732.218
112.162	14.018	968.201	731.727
113.176	13.905	967.474	730.618
114.191	14.036	966.367	730.294
115.206	14.138	965.836	730.273
116.220	14.022	964.840	728.949
117.235	14.071	964.303	728.694
118.249	13.975	963.676	727.736
119.264	14.025	962.229	726.795
120.279	14.179	961.356	726.747
121.293	14.081	961.119	726.075
122.308	14.031	960.342	725.206
123.322	13.959	959.554	724.231
124.337	14.048	958.291	723.601
125.352	13.952	957.266	722.346
126.366	14.074	956.361	722.130
127.381	14.010	954.989	720.750
128.395	14.117	953.615	720.113
129.410	13.920	953.292	718.953
130.424	14.014	952.120	718.414
131.439	13.983	951.570	717.800
132.454	14.010	950.734	717.224
133.468	14.086	950.126	717.028
134.483	14.028	949.247	716.052
135.497	14.067	948.315	715.455
136.512	14.049	947.759	714.891
137.527	14.027	947.011	714.170
138.541	14.106	946.005	713.690
139.556	14.008	945.684	712.964
140.570	14.095	944.725	712.549
141.585	14.132	944.002	712.100
142.600	14.045	943.207	711.062
143.614	14.098	942.506	710.701
144.629	14.224	941.566	710.465
145.643	14.246	940.746	709.880
146.658	14.352	939.801	709.555
147.673	14.206	939.274	708.471
148.687	14.226	937.978	707.516
149.702	14.215	937.250	706.857
150.716	14.038	936.552	705.517
151.731	14.145	935.748	705.304
152.746	14.090	935.110	704.525
153.760	14.096	934.632	704.128
154.775	14.111	933.837	703.531
155.789	14.250	932.897	703.351
156.804	14.153	932.442	702.536
157.819	14.279	931.334	702.167
158.833	14.379	930.484	701.886
159.848	14.363	929.944	701.349
160.862	14.390	929.436	701.017
161.877	14.381	928.905	700.516
162.892	14.375	927.971	699.726
163.906	14.297	927.558	699.027
164.921	14.187	926.508	697.711
165.935	14.296	925.379	697.255
166.950	14.295	924.734	696.703
167.964	14.289	923.332	695.563
168.979	14.433	922.217	695.260
169.994	14.329	921.689	694.366
171.008	14.364	920.865	693.830
172.023	14.322	920.177	693.078
173.037	14.287	919.771	692.562
174.052	14.414	918.330	691.946
175.067	14.376	918.164	691.602
176.081	14.382	917.327	690.932
177.096	14.323	916.495	690.003
178.110	14.372	915.428	689.341
179.125	14.406	914.604	688.798
180.140	14.371	914.052	688.178
181.154	14.526	912.997	687.964
182.169	14.447	912.826	687.448
183.183	14.471	911.949	686.824
184.198	14.488	911.329	686.368
185.213	14.540	910.534	685.920
186.227	14.541	909.909	685.393
187.242	14.489	909.580	684.872
188.256	14.649	908.974	685.011
189.271	14.715	907.838	684.363
190.286	14.614	907.572	683.691
191.300	14.502	906.773	682.569
192.315	14.398	906.099	681.576
193.329	14.469	905.397	681.278
194.344	14.386	904.667	680.330
195.359	14.535	904.058	680.421
196.373	14.523	903.407	679.818
197.388	14.463	902.871	679.112
198.402	14.604	902.698	679.498
199.417	14.701	902.157	679.423
200.432	14.849	901.615	679.558
201.446	14.748	901.112	678.707
202.461	14.894	900.339	678.660
203.475	14.910	900.352	678.671
204.490	14.906	899.453	677.921
205.504	14.805	898.671	676.861
206.519	14.904	897.505	676.323
207.534	14.807	897.061	675.536
208.548	14.762	896.053	674.536
209.563	14.903	895.634	674.730
210.577	14.901	894.991	674.177
211.592	14.809	894.537	673.405
212.607	14.955	894.166	673.652
213.621	14.932	893.112	672.706
214.636	14.773	892.729	671.722
215.650	14.819	891.909	671.230
216.665	14.777	891.328	670.564
217.680	15.067	890.618	671.131
218.694	14.999	890.265	670.537
219.709	15.016	889.575	670.022
220.723	15.188	888.589	669.909
221.738	15.118	888.080	669.188
222.753	15.065	887.141	668.207
223.767	15.160	886.737	668.225
224.782	15.088	886.291	667.541
225.796	15.175	885.290	667.075
226.811	15.258	884.462	666.723
227.826	15.238	883.825	666.105
228.840	14.992	883.357	664.716
229.855	15.139	882.739	664.775
230.869	15.135	881.866	664.045
231.884	15.203	881.654	664.094
232.899	15.237	880.703	663.453
233.913	15.117	879.814	662.250
234.928	15.148	879.224	661.870
235.942	15.132	878.650	661.314
236.957	15.218	877.584	660.793
237.972	15.169	877.124	660.195
238.986	15.206	876.900	660.116
240.001	15.181	875.868	659.183
241.015	15.163	875.386	658.689
242.030	15.299	874.950	658.839
243.045	15.343	873.871	658.141
244.059	15.195	873.571	657.275
245.074	15.285	872.900	657.065
246.088	15.308	872.327	656.666
247.103	15.320	871.556	656.073
248.117	15.396	871.167	656.020
249.132	15.493	870.503	655.841
250.147	15.391	870.140	655.111
251.161	15.519	869.484	655.059
252.176	15.499	868.610	654.263
253.190	15.676	867.732	654.233
254.205	15.501	867.525	653.341
255.220	15.609	867.015	653.316
256.234	15.477	866.152	652.097
257.249	15.653	865.428	652.177
258.263	15.701	864.741	651.788
259.278	15.716	863.757	651.046
260.293	15.783	864.061	651.478
261.307	15.799	863.311	650.916
262.322	15.842	862.697	650.562
263.336	15.742	862.441	649.923
264.351	15.810	861.750	649.608
265.366	15.811	860.990	648.981
266.380	15.956	860.188	648.878
267.395	15.799	859.463	647.670
268.409	15.895	858.744	647.441
269.424	15.882	858.369	647.051
270.439	15.837	857.458	646.133
271.453	15.768	856.803	645.318
272.468	15.803	856.110	644.874
273.482	16.010	855.037	644.801
274.497	15.874	854.690	643.961
275.512	15.893	854.269	643.660
276.526	15.934	853.447	643.140
277.541	15.924	852.977	642.692
278.555	16.002	852.188	642.337
279.570	15.899	851.723	641.538
280.585	16.102	851.006	641.713
281.599	16.024	850.646	641.087
282.614	15.903	850.577	640.519
283.628	16.010	849.569	640.109
284.643	16.094	848.775	639.775
285.657	16.041	848.442	639.264
286.672	15.965	848.195	638.735
287.687	16.055	847.472	638.474
288.701	16.143	846.747	638.204
289.716	16.170	846.197	637.835
290.730	16.079	845.726	637.082
291.745	16.255	844.951	637.105
292.760	16.198	844.241	636.299
293.774	16.068	844.050	635.608
294.789	16.134	843.037	635.036
295.803	16.274	842.336	634.978
296.818	16.112	842.192	634.207
297.833	16.099	841.518	633.593
298.847	16.193	840.754	633.313
299.862	16.263	839.643	632.686
300.876	16.344	839.534	632.851
301.891	16.383	838.794	632.383
302.906	16.393	838.096	631.835
303.920	16.373	837.359	631.152
304.935	16.358	837.162	630.891
305.949	16.474	836.161	630.514
306.964	16.392	835.776	629.860
307.979	16.482	835.163	629.678
308.993	16.469	834.884	629.362
310.008	16.361	834.585	628.681
311.022	16.543	833.505	628.490
312.037	16.491	833.297	628.083
313.052	16.544	832.715	627.787
314.066	16.593	831.865	627.271
315.081	16.416	831.906	626.590
316.095	16.426	831.093	625.960
317.110	16.448	830.476	625.521
318.125	16.549	829.568	625.153
319.139	16.504	829.422	624.823
320.154	16.467	828.808	624.168
321.168	16.459	828.270	623.680
322.183	16.462	827.842	623.312
323.197	16.731	826.993	623.609
324.212	16.616	826.689	622.900
325.227	16.620	826.083	622.402
326.241	16.617	825.583	621.960
327.256	16.645	824.945	621.529
328.270	16.664	824.309	621.063
329.285	16.705	823.612	620.635
330.300	16.633	823.576	620.286
331.314	16.557	822.729	619.317
332.329	16.716	822.360	619.565
333.343	16.818	821.525	619.256
334.358	16.784	821.051	618.717
335.373	16.652	820.728	617.939
336.387	16.855	819.823	617.944
337.402	16.729	819.417	617.122
338.416	16.742	819.193	616.946
339.431	16.856	818.535	616.810
340.446	16.834	817.989	616.267
341.460	17.032	817.085	616.251
342.475	17.083	816.445	615.897
343.489	17.015	816.080	615.319
344.504	17.118	815.789	615.419
345.519	17.070	815.422	614.913
346.533	17.123	814.280	614.192
347.548	17.015	814.188	613.678
348.562	17.223	813.517	613.868
349.577	17.053	813.089	612.875
350.592	17.012	812.664	612.355
351.606	17.172	811.774	612.207
352.621	17.048	811.663	611.622
353.635	17.020	811.577	611.403
354.650	17.099	811.121	611.289
355.665	17.050	810.575	610.646
356.679	17.105	810.002	610.358
357.694	17.273	809.309	610.385
358.708	17.198	808.715	609.615
359.723	17.201	808.394	609.330
360.738	17.178	807.910	608.830
361.752	17.251	807.310	608.585
362.767	17.255	806.913	608.245
363.781	17.266	806.650	608.032
364.796	17.336	805.921	607.680
365.810	17.274	805.912	607.396
366.825	17.383	805.465	607.395
367.840	17.323	805.006	606.782
368.854	17.299	804.751	606.452
369.869	17.376	804.159	606.223
370.883	17.379	803.585	605.749
371.898	17.473	802.936	605.541
372.913	17.369	802.596	604.860
373.927	17.429	801.751	604.385
374.942	17.497	801.146	604.115
375.956	17.379	800.781	603.369
376.971	17.623	799.913	603.525
377.986	17.679	799.355	603.247
379.000	17.594	799.216	602.791
380.015	17.629	798.463	602.292
381.029	17.679	797.989	602.057
382.044	17.563	798.106	601.682
383.059	17.644	797.011	601.088
384.073	17.671	796.451	600.711
385.088	17.771	795.883	600.581
386.102	17.632	795.741	599.932
387.117	17.653	794.907	599.323
388.132	17.697	794.445	599.076
389.146	17.674	794.059	598.651
390.161	17.547	793.878	598.016
391.175	17.722	793.220	598.080
392.190	17.767	792.854	597.910
393.205	17.743	792.291	597.348
394.219	17.897	791.735	597.414
395.234	17.765	791.198	596.494
396.248	17.704	790.813	595.941
397.263	17.751	790.307	595.668
398.278	17.887	790.029	595.881
399.292	17.671	789.653	594.792
400.307	17.622	789.551	594.491
401.321	17.765	788.744	594.331
402.336	17.842	788.408	594.291
403.350	17.835	788.513	594.294
404.365	17.699	787.738	593.184
405.380	17.935	786.886	593.311
406.394	17.962	786.449	593.023
407.409	17.954	786.224	592.770
408.423	18.090	785.893	592.943
409.438	18.068	785.201	592.291
410.453	17.953	784.868	591.588
411.467	18.133	784.309	591.740
412.482	18.041	783.859	591.030
413.496	18.215	783.206	591.084
414.511	18.198	782.857	590.710
415.526	18.102	783.172	590.563
416.540	18.068	782.332	589.760
417.555	18.155	782.055	589.801
418.569	18.228	781.297	589.429
419.584	18.379	780.759	589.491
420.599	18.238	780.561	588.804
421.613	111.270	1288.996	1468.116
422.628	95.365	1363.040	1468.194
