DTS Sentinel unit serial number:	SN413079Multiplexer serial number:	ORYXHardware model number:	OX4-SRSoftware version number:	ORYX F/W v4.00 Oryx Data Collector v3.7.2.0data status	okinstallation	princeton_trtdifferential loss correction	single-endedforward channel	channel 3reverse channel	N/Adate	2019/09/12time	02:46:10forward acquisition time	60.00reverse acquisition time	0.00gamma	496.2192k internal	0.2321k external	0.2321temperature offset calibration	1.0065default loss term (dB/km)	0.3790temperature slope calibration	1.0000multiplexer offset coefficient	1.0000multiplexer slope coefficient	1.0000fibre end	0.00T internal ref (°C)	32.37T ext. ref 1 (°C)	2.09T ext. ref 2 (°C)	27.03length (m)	temperature (°C)	Stokes	anti-Stokes-747.200	-29.281	0.236	0.137
-746.185	318.337	0.119	-0.229
-745.171	31.859	0.055	0.048
-744.156	-48.082	-0.072	0.035
-743.142	800.000	-0.056	-0.188
-742.127	-200.000	0.020	-0.101
-741.112	507.780	0.115	-0.271
-740.098	-119.801	-0.202	0.035
-739.083	-158.288	0.140	0.008
-738.069	-137.806	0.190	-0.021
-737.054	-135.824	0.168	-0.020
-736.039	153.328	0.082	0.114
-735.025	-200.000	0.045	-0.264
-734.010	410.276	-0.013	0.028
-732.996	-200.000	-0.053	-0.383
-731.981	-200.000	-0.067	-0.421
-730.966	42.923	0.190	-0.175
-729.952	154.782	-0.092	0.128
-728.937	-200.000	0.013	-0.238
-727.923	800.000	-0.009	0.028
-726.908	-62.755	-0.052	-0.022
-725.894	800.000	0.053	0.214
-724.879	610.882	0.059	-0.149
-723.864	-69.599	0.129	-0.050
-722.850	-200.000	0.005	0.048
-721.835	201.829	-0.056	-0.088
-720.821	-61.920	0.008	-0.003
-719.806	-200.000	0.004	0.026
-718.791	800.000	0.084	-0.340
-717.777	177.728	-0.112	0.166
-716.762	13.363	0.302	-0.237
-715.748	-66.630	-0.034	-0.014
-714.733	-151.324	-0.105	-0.008
-713.718	-73.186	-0.162	-0.060
-712.704	-200.000	-0.057	-0.266
-711.689	-200.000	0.003	0.195
-710.675	359.872	-0.046	0.093
-709.660	285.257	-0.205	-0.373
-708.645	353.301	-0.164	0.329
-707.631	377.778	0.088	0.183
-706.616	62.817	-0.160	-0.161
-705.602	-102.059	0.221	0.054
-704.587	-87.054	0.361	0.111
-703.572	-149.858	-0.298	-0.024
-702.558	-111.969	-0.266	0.054
-701.543	800.000	-0.065	-0.187
-700.529	-72.384	0.480	0.179
-699.514	-68.653	-0.284	-0.111
-698.499	800.000	-0.066	-0.197
-697.485	-200.000	0.032	-0.260
-696.470	170.209	-0.125	-0.180
-695.456	-66.136	-0.159	0.064
-694.441	800.000	-0.033	-0.135
-693.426	118.565	0.178	-0.222
-692.412	65.826	0.064	0.066
-691.397	-121.430	-0.324	-0.054
-690.383	-89.234	0.126	-0.037
-689.368	-200.000	-0.058	0.327
-688.354	648.945	0.118	0.305
-687.339	358.569	0.152	-0.306
-686.324	105.861	-0.085	0.102
-685.310	-200.000	0.085	-0.444
-684.295	59.263	-0.286	-0.284
-683.281	623.653	-0.028	-0.071
-682.266	-13.905	-0.065	0.043
-681.251	-122.542	0.141	0.023
-680.237	316.928	0.028	-0.054
-679.222	0.999	0.185	0.134
-678.208	506.220	0.073	0.170
-677.193	-46.593	-0.094	-0.046
-676.178	-200.000	0.046	0.301
-675.164	-125.916	0.151	-0.023
-674.149	-77.649	0.119	0.042
-673.135	-70.087	0.290	-0.111
-672.120	-171.437	0.435	-0.015
-671.105	42.682	-0.134	-0.123
-670.091	-3.279	0.104	0.073
-669.076	-178.700	-0.399	0.009
-668.062	252.434	0.088	-0.151
-667.047	-33.477	-0.157	0.088
-666.032	-200.000	0.021	-0.193
-665.018	-200.000	-0.007	-0.140
-664.003	-113.368	-0.079	0.016
-662.989	-28.176	-0.139	-0.081
-661.974	-200.000	-0.032	-0.265
-660.959	329.933	0.105	-0.203
-659.945	-200.000	0.010	-0.090
-658.930	266.277	-0.052	-0.091
-657.916	800.000	0.006	0.018
-656.901	-200.000	-0.354	-0.001
-655.886	-200.000	-0.012	-0.120
-654.872	-57.518	-0.498	-0.220
-653.857	45.409	-0.291	0.271
-652.843	540.930	0.060	0.144
-651.828	-200.000	-0.007	-0.161
-650.814	189.459	0.134	-0.202
-649.799	282.909	0.144	0.260
-648.784	101.889	-0.050	-0.058
-647.770	-200.000	0.040	-0.481
-646.755	248.043	0.044	-0.074
-645.741	-129.728	-0.091	0.013
-644.726	-200.000	-0.027	-0.233
-643.711	-200.000	0.006	-0.094
-642.697	46.330	0.157	-0.146
-641.682	-19.066	-0.246	0.154
-640.668	-32.851	0.120	-0.067
-639.653	-152.617	-0.280	-0.020
-638.638	236.401	0.084	0.140
-637.624	-200.000	-0.003	-0.022
-636.609	-200.000	-0.006	-0.279
-635.595	116.424	-0.288	-0.356
-634.580	-133.830	-0.092	0.012
-633.565	-72.621	0.301	-0.112
-632.551	-17.078	-0.142	-0.090
-631.536	-59.372	0.141	0.061
-630.522	-200.000	0.053	0.349
-629.507	5.634	0.126	-0.093
-628.492	117.119	-0.232	0.286
-627.478	-40.426	-0.169	0.088
-626.463	151.374	-0.092	-0.126
-625.449	124.565	0.104	-0.132
-624.434	-97.276	-0.390	0.102
-623.419	50.825	0.070	0.067
-622.405	311.338	0.043	-0.082
-621.390	95.436	0.195	-0.223
-620.376	6.407	0.179	-0.134
-619.361	-37.852	-0.279	-0.149
-618.346	-73.818	0.314	0.115
-617.332	-200.000	-0.017	0.194
-616.317	-200.000	-0.040	0.284
-615.303	54.339	0.072	0.069
-614.288	38.599	0.109	0.098
-613.273	-109.189	-0.443	-0.095
-612.259	-128.246	-0.099	0.014
-611.244	-200.000	0.003	0.194
-610.230	-200.000	-0.029	-0.156
-609.215	-45.174	-0.260	0.130
-608.201	-59.830	-0.054	0.023
-607.186	-200.000	-0.023	-0.112
-606.171	187.516	0.066	-0.099
-605.157	800.000	0.097	-0.352
-604.142	14.944	-0.159	-0.125
-603.128	142.484	-0.072	-0.095
-602.113	-200.000	0.018	-0.130
-601.098	-41.007	-0.325	-0.169
-600.084	-200.000	0.011	0.072
-599.069	200.897	-0.080	0.123
-598.055	-141.147	0.134	0.014
-597.040	-200.000	0.010	-0.242
-596.025	800.000	-0.074	-0.250
-595.011	30.074	0.122	-0.104
-593.996	-70.140	0.083	-0.032
-592.982	-200.000	0.060	-0.375
-591.967	-115.967	-0.398	0.075
-590.952	632.964	-0.057	0.144
-589.938	-200.000	-0.037	0.272
-588.923	760.270	-0.159	-0.432
-587.909	129.893	0.049	0.062
-586.894	374.580	0.078	-0.159
-585.879	-82.231	0.086	-0.028
-584.865	-200.000	0.002	-0.067
-583.850	-1.131	-0.037	0.026
-582.836	301.651	-0.072	-0.134
-581.821	406.677	-0.117	0.249
-580.806	261.057	0.110	0.191
-579.792	142.409	-0.246	-0.327
-578.777	130.814	-0.162	0.209
-577.763	187.765	-0.082	0.122
-576.748	109.011	-0.180	0.216
-575.733	233.358	0.021	-0.035
-574.719	-47.169	0.147	0.072
-573.704	-88.417	-0.279	0.083
-572.690	-200.000	0.013	0.223
-571.675	-151.895	-0.246	0.018
-570.661	187.488	-0.085	-0.127
-569.646	-165.151	-0.394	-0.017
-568.631	498.985	-0.025	0.057
-567.617	28.939	-0.175	-0.149
-566.602	-102.794	0.390	0.093
-565.588	207.325	-0.119	-0.186
-564.573	800.000	-0.031	0.120
-563.558	58.173	-0.315	0.310
-562.544	39.375	0.027	-0.024
-561.529	54.564	0.220	0.213
-560.515	-120.783	-0.134	0.023
-559.500	-82.138	-0.198	-0.065
-558.485	800.000	-0.064	0.214
-557.471	-167.750	-0.295	0.012
-556.456	-120.078	0.431	-0.074
-555.442	-76.227	0.095	-0.034
-554.427	72.837	0.321	-0.336
-553.412	36.169	0.145	0.128
-552.398	800.000	0.086	0.301
-551.383	-200.000	-0.003	-0.148
-550.369	156.700	-0.178	0.246
-549.354	226.129	0.052	0.085
-548.339	-8.259	0.136	-0.092
-547.325	-200.000	0.013	0.277
-546.310	53.353	-0.110	0.106
-545.296	-200.000	0.047	0.222
-544.281	70.438	-0.066	0.068
-543.266	-95.305	0.327	0.088
-542.252	121.358	-0.218	0.272
-541.237	17.994	-0.228	0.182
-540.223	49.424	0.187	-0.176
-539.208	-45.730	0.181	-0.090
-538.193	-108.629	-0.217	0.047
-537.179	-115.732	0.197	-0.037
-536.164	-145.619	-0.116	0.010
-535.150	-91.323	0.242	-0.069
-534.135	-143.330	-0.343	0.033
-533.121	-200.000	0.017	-0.343
-532.106	83.575	-0.108	-0.118
-531.091	-98.920	0.061	0.016
-530.077	-134.931	0.185	0.022
-529.062	800.000	0.138	0.389
-528.048	-153.448	0.076	0.005
-527.033	158.072	-0.092	0.127
-526.018	800.000	-0.041	-0.138
-525.004	-129.136	0.262	0.037
-523.989	-37.832	-0.524	-0.279
-522.975	-66.261	0.162	0.065
-521.960	-129.401	-0.142	-0.020
-520.945	-23.728	-0.173	0.104
-519.931	264.046	-0.033	-0.057
-518.916	-200.000	-0.018	-0.126
-517.902	64.298	0.184	-0.186
-516.887	-57.351	0.190	-0.083
-515.872	-83.812	0.285	-0.091
-514.858	-79.939	0.070	0.023
-513.843	-200.000	-0.006	-0.074
-512.829	50.033	-0.074	0.070
-511.814	-29.373	-0.127	0.073
-510.799	800.000	0.090	0.252
-509.785	-54.264	-0.218	-0.099
-508.770	-60.701	-0.247	0.105
-507.756	48.434	-0.102	-0.095
-506.741	8.561	0.079	-0.059
-505.726	-72.822	0.141	0.052
-504.712	-48.688	-0.187	0.090
-503.697	-15.745	-0.057	-0.036
-502.683	800.000	0.028	0.089
-501.668	-6.435	0.265	0.181
-500.653	-38.458	0.210	0.111
-499.639	25.791	-0.150	-0.125
-498.624	800.000	-0.027	0.085
-497.610	800.000	-0.020	0.055
-496.595	-127.957	0.192	0.028
-495.581	-87.932	0.097	0.029
-494.566	14.674	-0.370	-0.289
-493.551	245.053	-0.059	-0.099
-492.537	-156.696	0.391	-0.024
-491.522	98.565	0.170	0.196
-490.508	503.084	-0.144	-0.333
-489.493	163.780	0.062	-0.088
-488.478	-7.628	0.351	-0.237
-487.464	-200.000	-0.006	-0.035
-486.449	39.242	0.053	0.048
-485.435	-56.049	-0.166	0.074
-484.420	-46.718	0.217	-0.106
-483.405	-73.473	-0.182	0.066
-482.391	707.860	0.099	0.261
-481.376	800.000	-0.067	0.278
-480.362	800.000	0.043	0.124
-479.347	-33.345	-0.109	-0.061
-478.332	-200.000	-0.018	0.260
-477.318	-200.000	0.033	0.187
-476.303	1.484	-0.275	0.198
-475.289	-130.400	0.123	0.017
-474.274	-200.000	0.023	0.257
-473.259	75.925	-0.150	0.159
-472.245	-45.624	-0.061	0.030
-471.230	-60.101	-0.050	0.021
-470.216	472.602	-0.084	-0.190
-469.201	800.000	-0.055	0.237
-468.186	-200.000	0.001	-0.061
-467.172	-109.907	0.189	-0.040
-466.157	-103.244	0.359	0.085
-465.143	-2.516	0.103	0.072
-464.128	16.372	0.111	-0.087
-463.113	57.144	0.245	0.239
-462.099	-47.729	-0.431	0.209
-461.084	-128.003	-0.321	0.046
-460.070	-48.084	-0.262	-0.127
-459.055	-191.385	0.140	-0.001
-458.040	-200.000	-0.006	-0.310
-457.026	208.037	-0.066	0.102
-456.011	178.551	0.167	0.244
-454.997	44.591	0.157	-0.144
-453.982	800.000	-0.041	-0.143
-452.968	800.000	-0.044	-0.142
-451.953	-91.270	-0.251	0.072
-450.938	-14.729	-0.204	0.131
-449.924	-0.123	-0.108	0.077
-448.909	-73.620	0.167	-0.061
-447.895	-135.237	-0.346	-0.042
-446.880	-82.614	0.226	-0.073
-445.865	-121.076	0.092	-0.015
-444.851	-129.961	-0.190	-0.026
-443.836	-200.000	-0.106	0.550
-442.822	-200.000	0.045	-0.196
-441.807	800.000	-0.122	-0.379
-440.792	-131.844	0.108	0.014
-439.778	-49.382	-0.331	0.158
-438.763	625.737	0.149	0.376
-437.749	-200.000	0.011	0.144
-436.734	-154.067	0.215	0.015
-435.719	178.801	-0.221	-0.322
-434.705	599.255	0.071	-0.175
-433.690	-156.980	-0.233	-0.014
-432.676	46.425	-0.132	0.122
-431.661	350.556	-0.096	0.189
-430.646	-200.000	0.012	0.195
-429.632	162.437	0.194	-0.272
-428.617	-200.000	0.046	-0.274
-427.603	-155.653	-0.118	0.008
-426.588	121.086	0.062	0.077
-425.573	-165.193	-0.074	0.003
-424.559	800.000	-0.023	-0.098
-423.544	800.000	-0.033	-0.113
-422.530	17.344	0.112	0.088
-421.515	-200.000	-0.021	-0.177
-420.500	-133.428	-0.189	-0.024
-419.486	-200.000	0.025	-0.199
-418.471	117.457	-0.335	0.411
-417.457	-39.282	-0.239	0.125
-416.442	-103.705	0.247	0.058
-415.428	309.189	0.076	0.141
-414.413	-77.881	-0.140	0.048
-413.398	257.936	-0.095	0.164
-412.384	-179.177	-0.430	-0.010
-411.369	-200.000	-0.003	-0.068
-410.355	75.526	-0.107	0.112
-409.340	-85.431	-0.372	-0.116
-408.325	-16.701	-0.326	-0.206
-407.311	-200.000	-0.039	0.185
-406.296	-22.885	-0.237	0.142
-405.282	166.687	-0.060	-0.084
-404.267	-179.622	0.223	-0.005
-403.252	-63.934	-0.086	0.035
-402.238	800.000	-0.015	-0.052
-401.223	800.000	0.069	-0.196
-400.209	-70.672	-0.401	-0.151
-399.194	40.696	-0.097	-0.087
-398.179	326.633	-0.147	-0.280
-397.165	-169.048	-0.120	-0.004
-396.150	800.000	-0.013	0.041
-395.136	-11.469	0.038	-0.025
-394.121	-5.450	0.030	0.021
-393.106	104.255	0.272	-0.319
-392.092	-59.794	-0.250	0.107
-391.077	-18.354	0.317	-0.197
-390.063	-77.361	-0.218	-0.076
-389.048	-170.416	-0.234	-0.008
-388.033	-120.745	0.341	0.057
-387.019	-122.469	-0.204	0.033
-386.004	-141.324	0.080	0.008
-384.990	-160.865	-0.307	-0.016
-383.975	-126.339	0.395	-0.059
-382.960	-104.508	0.168	0.039
-381.946	91.658	-0.243	-0.273
-380.931	-128.294	-0.064	-0.009
-379.917	773.605	0.095	-0.258
-378.902	-200.000	-0.025	-0.159
-377.888	12.204	0.043	-0.033
-376.873	601.360	-0.005	-0.013
-375.858	159.177	-0.113	-0.157
-374.844	537.139	0.084	0.199
-373.829	372.626	0.117	0.236
-372.815	163.653	-0.105	0.147
-371.800	-80.473	-0.158	-0.052
-370.785	131.816	0.047	-0.060
-369.771	-55.954	0.208	-0.093
-368.756	-19.296	0.124	-0.077
-367.742	-71.120	0.284	-0.106
-366.727	-47.391	-0.058	0.028
-365.712	-143.198	-0.194	0.019
-364.698	-40.379	0.162	0.084
-363.683	405.180	-0.123	0.257
-362.669	37.225	-0.247	-0.217
-361.654	-37.592	-0.064	0.034
-360.639	800.000	-0.043	-0.154
-359.625	-200.000	0.019	-0.200
-358.610	800.000	0.025	-0.080
-357.596	188.970	-0.076	0.113
-356.581	-156.173	0.125	-0.008
-355.566	-53.533	-0.150	-0.068
-354.552	-41.884	0.329	0.168
-353.537	-37.068	-0.132	0.070
-352.523	800.000	-0.048	0.176
-351.508	-15.516	0.257	0.163
-350.493	219.273	0.176	-0.280
-349.479	800.000	-0.133	0.473
-348.464	-98.262	-0.374	0.096
-347.450	-54.199	-0.078	0.035
-346.435	-200.000	0.014	-0.092
-345.420	311.079	-0.126	0.235
-344.406	99.166	0.156	0.179
-343.391	114.610	0.090	0.109
-342.377	436.490	-0.146	0.316
-341.362	154.187	-0.073	0.099
-340.348	468.672	-0.075	0.168
-339.333	-35.685	0.106	-0.057
-338.318	-128.181	-0.440	-0.063
-337.304	-137.769	0.232	-0.026
-336.289	90.780	0.213	0.237
-335.275	280.084	0.073	-0.130
-334.260	-95.799	0.230	0.061
-333.245	592.618	-0.106	0.261
-332.231	743.577	0.122	0.327
-331.216	-160.634	-0.349	0.018
-330.202	-43.558	0.174	-0.087
-329.187	143.020	-0.208	-0.275
-328.172	39.111	-0.149	-0.133
-327.158	2.461	0.138	-0.099
-326.143	800.000	0.117	-0.364
-325.129	519.046	-0.040	-0.093
-324.114	-35.199	0.069	-0.037
-323.099	628.803	-0.080	0.202
-322.085	86.286	-0.162	0.177
-321.070	-2.322	-0.135	0.094
-320.056	-21.953	-0.153	0.092
-319.041	-94.075	-0.099	0.027
-318.026	-200.000	-0.004	0.131
-317.012	714.830	0.088	-0.231
-315.997	-200.000	0.042	0.229
-314.983	-54.832	0.380	0.171
-313.968	800.000	-0.022	-0.070
-312.953	154.436	0.031	-0.043
-311.939	192.043	0.094	-0.141
-310.924	307.567	0.074	-0.138
-309.910	146.409	-0.281	-0.375
-308.895	79.195	0.103	-0.109
-307.880	73.346	0.009	0.009
-306.866	-32.207	-0.258	0.143
-305.851	44.616	0.133	-0.121
-304.837	-200.000	0.032	-0.303
-303.822	800.000	0.110	0.332
-302.807	-200.000	0.043	-0.227
-301.793	-108.306	-0.142	-0.031
-300.778	226.486	0.095	-0.153
-299.764	-107.635	0.058	0.013
-298.749	-42.887	-0.215	0.108
-297.735	63.531	-0.195	-0.194
-296.720	800.000	0.029	-0.087
-295.705	-197.658	0.318	0.002
-294.691	-64.499	-0.238	-0.096
-293.676	116.369	-0.118	-0.144
-292.662	-125.195	-0.110	-0.017
-291.647	800.000	0.008	-0.031
-290.632	-30.896	0.186	0.104
-289.618	-40.801	0.466	-0.240
-288.603	-200.000	0.001	0.046
-287.589	-200.000	0.019	-0.324
-286.574	-63.464	0.230	-0.094
-285.559	-200.000	0.007	-0.246
-284.545	27.669	0.447	0.373
-283.530	138.587	-0.101	-0.131
-282.516	-145.619	-0.111	-0.010
-281.501	800.000	0.039	0.164
-280.486	-62.911	0.197	0.081
-279.472	735.094	0.020	-0.053
-278.457	-41.319	0.294	0.150
-277.443	-200.000	-0.036	0.261
-276.428	-200.000	-0.043	0.239
-275.413	304.520	0.178	0.328
-274.399	-116.930	-0.345	0.063
-273.384	236.091	0.204	0.335
-272.370	-149.289	0.036	0.003
-271.355	-200.000	-0.021	0.103
-270.340	134.033	-0.130	-0.167
-269.326	-129.892	0.141	-0.019
-268.311	-92.477	0.141	-0.039
-267.297	-99.075	0.360	-0.090
-266.282	800.000	0.063	-0.185
-265.267	293.678	0.057	-0.103
-264.253	-37.143	-0.122	0.065
-263.238	-101.087	-0.108	-0.026
-262.224	-200.000	-0.016	0.084
-261.209	-109.843	0.267	0.056
-260.195	-125.704	0.170	0.026
-259.180	-79.804	-0.205	-0.068
-258.165	-45.046	-0.181	-0.089
-257.151	-92.984	0.040	0.011
-256.136	-64.452	-0.313	0.126
-255.122	485.215	0.041	-0.092
-254.107	138.071	-0.206	-0.268
-253.092	-24.912	-0.038	0.023
-252.078	-200.000	-0.027	-0.137
-251.063	163.520	-0.259	-0.361
-250.049	485.794	-0.127	-0.287
-249.034	86.615	-0.115	-0.126
-248.019	-200.000	0.075	0.327
-247.005	-200.000	0.045	0.266
-245.990	60.592	0.419	0.411
-244.976	651.938	0.068	-0.174
-243.961	-68.940	0.335	-0.128
-242.946	-200.000	0.369	0.001
-241.932	-40.628	0.247	-0.127
-240.917	9.594	0.197	-0.148
-239.903	-102.152	0.298	0.071
-238.888	800.000	-0.113	-0.360
-237.873	592.368	0.109	-0.266
-236.859	-101.708	0.404	-0.097
-235.844	-68.584	-0.423	-0.162
-234.830	98.307	-0.186	0.213
-233.815	-117.716	0.147	0.026
-232.800	-200.000	0.010	0.243
-231.786	-181.389	0.385	-0.007
-230.771	800.000	0.056	0.213
-229.757	-24.551	0.267	0.158
-228.742	-59.744	0.382	0.162
-227.727	-18.260	0.087	0.054
-226.713	756.624	-0.089	0.240
-225.698	-200.000	-0.045	0.267
-224.684	-143.750	-0.139	-0.013
-223.669	-131.370	0.064	0.008
-222.655	-200.000	-0.018	0.094
-221.640	-19.672	0.512	0.314
-220.625	-134.431	0.216	0.026
-219.611	800.000	-0.049	-0.174
-218.596	-26.491	-0.090	-0.052
-217.582	3.835	0.218	0.157
-216.567	765.011	-0.083	-0.222
-215.552	800.000	0.037	0.160
-214.538	69.605	-0.080	-0.082
-213.523	-77.804	-0.098	0.033
-212.509	-87.975	0.189	0.056
-211.494	-93.820	-0.122	-0.033
-210.479	436.575	0.090	0.195
-209.465	-20.539	0.257	0.156
-208.450	-200.000	-0.007	-0.160
-207.436	573.524	0.128	-0.308
-206.421	-200.000	-0.110	-0.493
-205.406	171.668	0.064	-0.091
-204.392	323.700	0.180	-0.341
-203.377	-27.717	-0.191	-0.110
-202.363	-19.249	0.267	0.164
-201.348	-56.359	0.325	-0.143
-200.333	-47.287	0.336	0.162
-199.319	-200.000	0.026	-0.159
-198.304	-4.195	-0.192	-0.132
-197.290	-189.118	0.258	-0.003
-196.275	800.000	-0.027	-0.078
-195.260	455.781	-0.044	-0.096
-194.246	207.332	-0.062	0.096
-193.231	180.312	0.049	-0.071
-192.217	-200.000	0.014	0.164
-191.202	-40.019	0.095	0.049
-190.187	607.686	-0.084	0.208
-189.173	275.594	0.074	0.130
-188.158	800.000	-0.028	0.110
-187.144	319.657	-0.061	0.114
-186.129	30.153	-0.081	-0.068
-185.114	800.000	0.023	-0.088
-184.100	-10.414	0.155	-0.101
-183.085	800.000	-0.015	-0.047
-182.071	166.526	0.210	-0.295
-181.056	-35.984	0.114	-0.061
-180.042	176.676	-0.168	-0.242
-179.027	-200.000	-0.007	0.087
-178.012	164.254	0.161	0.224
-176.998	-200.000	-0.010	0.141
-175.983	-18.111	0.353	0.218
-174.969	113.222	-0.152	-0.183
-173.954	800.000	0.119	-0.414
-172.939	-200.000	0.006	0.224
-171.925	-200.000	0.057	-0.386
-170.910	147.566	0.229	0.305
-169.896	20.921	0.132	0.106
-168.881	346.283	0.081	0.158
-167.866	800.000	0.039	0.128
-166.852	307.088	0.040	0.074
-165.837	-87.464	-0.159	0.048
-164.823	32.432	-0.382	-0.326
-163.808	-114.677	-0.138	0.026
-162.793	-200.000	-0.271	-0.000
-161.779	-58.382	0.339	-0.146
-160.764	-116.442	-0.166	-0.030
-159.750	1.035	0.280	0.198
-158.735	-117.446	0.444	0.079
-157.720	3.653	-0.035	0.025
-156.706	800.000	0.076	-0.267
-155.691	-102.522	-0.252	0.060
-154.677	-105.095	-0.097	0.022
-153.662	-36.354	-0.245	0.131
-152.647	-200.000	0.009	0.133
-151.633	160.297	0.092	-0.126
-150.618	-127.047	-0.387	-0.056
-149.604	406.195	0.086	0.179
-148.589	-45.072	0.140	-0.069
-147.574	71.905	-0.395	-0.405
-146.560	-137.214	-0.255	0.029
-145.545	-14.498	0.253	-0.161
-144.531	-12.377	-0.124	0.080
-143.516	206.800	-0.089	0.138
-142.502	-200.000	-0.006	0.132
-141.487	119.196	0.161	0.197
-140.472	-1.289	0.135	-0.094
-139.458	379.540	-0.050	0.101
-138.443	-200.000	0.016	0.072
-137.429	150.260	0.106	-0.142
-136.414	385.573	0.053	0.109
-135.399	224.763	0.154	0.246
-134.385	47.111	0.149	-0.137
-133.370	-92.958	0.256	-0.071
-132.356	-200.000	0.008	-0.245
-131.341	-186.881	0.194	-0.003
-130.326	-107.938	0.273	0.059
-129.312	-193.782	0.250	0.002
-128.297	-200.000	0.033	0.235
-127.283	395.993	-0.053	-0.110
-126.268	-51.271	-0.124	-0.057
-125.253	-200.000	-0.020	-0.326
-124.239	-48.783	0.083	0.039
-123.224	36.462	-0.299	0.260
-122.210	-185.998	0.371	0.005
-121.195	-107.961	0.284	-0.061
-120.180	22.844	-0.158	-0.127
-119.166	11.705	0.139	0.106
-118.151	-166.070	0.217	0.009
-117.137	183.952	0.089	0.130
-116.122	59.609	0.105	0.102
-115.107	34.386	-0.186	0.160
-114.093	-117.190	0.239	0.043
-113.078	29.750	-0.102	0.086
-112.064	35.262	-0.124	0.108
-111.049	-187.102	-0.438	-0.006
-110.034	-78.695	0.394	0.133
-109.020	107.365	0.243	0.285
-108.005	-200.000	0.005	-0.140
-106.991	46.753	0.170	-0.156
-105.976	478.103	0.077	0.172
-104.962	1.053	0.127	-0.090
-103.947	12.312	-0.046	-0.035
-102.932	-177.308	0.122	-0.003
-101.918	136.412	0.053	-0.069
-100.903	-200.000	0.043	0.316
-99.889	-6.753	0.202	-0.135
-98.874	383.314	0.144	0.291
-97.859	-200.000	-0.009	0.112
-96.845	-142.523	-0.345	-0.033
-95.830	8.407	0.154	0.114
-94.816	157.119	-0.101	0.138
-93.801	-100.101	0.454	-0.111
-92.786	-0.473	0.284	0.198
-91.772	-120.426	-0.100	0.017
-90.757	800.000	0.024	0.097
-89.743	-200.000	0.034	0.195
-88.728	521.287	-0.119	-0.275
-87.713	258.976	-0.158	0.269
-86.699	-200.000	0.064	0.274
-85.684	800.000	0.013	0.041
-84.670	22.456	-0.291	-0.234
-83.655	800.000	-0.069	0.225
-82.640	-28.491	0.433	0.246
-81.626	18.484	-0.175	-0.137
-80.611	-200.000	0.000	-0.042
-79.597	800.000	-0.009	-0.030
-78.582	-200.000	-0.062	0.344
-77.567	-5.595	0.145	-0.098
-76.553	411.773	-0.010	0.022
-75.538	-85.743	-0.239	0.073
-74.524	283.285	-0.135	0.240
-73.509	21.005	-0.184	-0.147
-72.494	347.970	-0.150	0.292
-71.480	-24.127	0.047	0.028
-70.465	-149.903	0.297	0.023
-69.451	-200.000	0.004	-0.076
-68.436	476.721	0.076	-0.169
-67.422	-132.827	-0.264	0.033
-66.407	161.385	0.107	-0.147
-65.392	-48.679	-0.063	-0.030
-64.378	214.174	-0.098	-0.152
-63.363	800.000	-0.015	-0.044
-62.349	-71.304	-0.254	0.094
-61.334	95.551	-0.889	-0.998
-60.319	-200.000	0.068	0.320
-59.305	800.000	-0.298	-0.904
-58.290	343.563	0.553	1.067
-57.276	94.744	1.048	1.172
-56.261	-200.000	95.542	585.759
-55.246	562.915	1366.570	3253.795
-54.232	162.685	2539.595	3505.919
-53.217	112.651	2155.722	2567.356
-52.203	42.971	1703.760	1528.125
-51.188	35.639	1517.340	1311.080
-50.173	33.227	1490.858	1271.951
-49.159	51.944	1540.132	1442.355
-48.144	53.828	1557.427	1471.376
-47.130	35.684	1517.165	1311.023
-46.115	32.537	1502.635	1277.119
-45.100	32.418	1499.068	1273.232
-44.086	32.497	1497.077	1272.021
-43.071	32.418	1495.419	1270.029
-42.057	32.406	1493.696	1268.436
-41.042	32.386	1492.409	1267.156
-40.027	32.424	1490.894	1266.075
-39.013	32.389	1489.390	1264.513
-37.998	32.475	1488.173	1264.011
-36.984	32.380	1487.246	1262.534
-35.969	32.420	1485.634	1261.385
-34.954	32.307	1484.761	1259.838
-33.940	32.408	1482.988	1258.958
-32.925	32.402	1481.616	1257.698
-31.911	32.445	1480.094	1256.644
-30.896	32.409	1478.892	1255.334
-29.881	32.456	1477.527	1254.443
-28.867	32.521	1475.861	1253.411
-27.852	32.485	1474.715	1252.148
-26.838	32.462	1473.276	1250.722
-25.823	32.386	1471.738	1248.864
-24.809	32.441	1470.058	1247.750
-23.794	32.418	1468.667	1246.373
-22.779	32.505	1467.309	1245.746
-21.765	32.430	1466.231	1244.283
-20.750	32.340	1465.279	1242.829
-19.736	32.348	1464.398	1242.087
-18.721	32.366	1463.165	1241.111
-17.706	32.294	1462.004	1239.604
-16.692	32.329	1461.024	1238.954
-15.677	32.285	1460.253	1237.963
-14.663	32.314	1458.530	1236.640
-13.648	32.379	1457.579	1236.210
-12.633	32.362	1457.156	1235.692
-11.619	32.348	1455.927	1234.514
-10.604	32.360	1454.751	1233.541
-9.590	32.301	1454.398	1232.806
-8.575	32.263	1454.196	1232.339
-7.560	32.378	1452.972	1232.009
-6.546	32.278	1451.845	1230.344
-5.531	32.307	1450.968	1229.742
-4.517	32.178	1450.044	1228.071
-3.502	32.306	1448.659	1227.683
-2.487	32.266	1448.005	1226.818
-1.473	32.277	1446.720	1225.755
-0.458	32.305	1445.328	1224.705
0.556	32.811	1435.738	1213.852
1.571	29.953	1411.267	1174.947
2.586	26.772	1357.697	1110.791
3.600	25.230	1279.079	1037.472
4.615	23.782	1230.489	989.912
5.629	20.424	1173.216	925.883
6.644	10.595	1087.079	809.043
7.659	3.255	1044.524	742.030
8.673	2.309	1039.214	733.659
9.688	2.155	1036.098	730.655
10.702	2.014	1033.832	728.319
11.717	1.893	1032.544	726.770
12.731	5.493	1036.549	746.730
13.746	15.248	1050.347	803.580
14.761	23.124	1059.718	848.618
15.775	24.989	1062.217	859.500
16.790	25.318	1061.751	860.626
17.804	25.082	1061.207	858.980
18.819	25.057	1060.006	857.812
19.834	25.085	1059.644	857.576
20.848	25.167	1059.351	857.653
21.863	25.287	1059.019	857.885
22.877	25.258	1058.481	857.232
23.892	25.235	1057.996	856.653
24.907	25.141	1056.996	855.319
25.921	25.286	1056.476	855.516
26.936	25.174	1055.545	854.153
27.950	25.240	1054.436	853.495
28.965	25.313	1053.120	852.699
29.980	24.993	1052.107	850.284
30.994	25.093	1050.496	849.383
32.009	25.216	1049.887	849.397
33.023	25.440	1049.377	849.968
34.038	25.249	1047.611	847.564
35.053	25.179	1047.183	846.811
36.067	25.284	1046.741	846.873
37.082	25.237	1046.355	846.265
38.096	25.280	1045.350	845.578
39.111	25.359	1044.706	845.353
40.126	25.564	1043.907	845.597
41.140	25.560	1042.224	844.140
42.155	25.192	1040.941	841.300
43.169	24.827	1039.951	838.718
44.184	24.787	1038.968	837.661
45.199	24.918	1037.783	837.247
46.213	24.871	1037.086	836.390
47.228	24.898	1036.157	835.690
48.242	25.072	1035.661	836.030
49.257	25.083	1034.847	835.351
50.271	25.253	1033.786	835.211
51.286	25.285	1033.444	835.008
52.301	25.333	1032.555	834.441
53.315	25.442	1031.207	833.781
54.330	25.283	1031.103	832.889
55.344	25.256	1030.329	832.065
56.359	25.265	1029.259	831.165
57.374	25.223	1028.705	830.454
58.388	25.097	1027.220	828.597
59.403	25.006	1026.790	827.757
60.417	25.004	1026.091	827.111
61.432	24.872	1025.043	825.585
62.447	24.873	1024.801	825.323
63.461	24.962	1023.690	824.764
64.476	24.986	1023.253	824.447
65.490	24.978	1022.073	823.388
66.505	25.011	1021.072	822.661
67.520	24.880	1020.538	821.555
68.534	25.043	1019.957	821.766
69.549	24.913	1019.001	820.323
70.563	24.611	1017.935	818.010
71.578	24.480	1017.194	816.743
72.593	24.484	1016.452	816.093
73.607	24.379	1015.178	814.520
74.622	24.412	1013.930	813.598
75.636	24.731	1013.569	814.690
76.651	24.785	1013.320	814.662
77.666	24.728	1012.152	813.394
78.680	24.594	1011.800	812.428
79.695	24.730	1010.516	811.944
80.709	24.835	1009.952	811.895
81.724	24.912	1009.397	811.727
82.739	24.809	1008.712	810.636
83.753	24.723	1007.785	809.430
84.768	25.191	1007.122	810.941
85.782	25.474	1006.442	811.601
86.797	25.601	1005.958	811.715
87.812	25.505	1005.334	810.703
88.826	25.446	1003.785	809.116
89.841	25.604	1002.939	809.074
90.855	25.539	1002.704	808.522
91.870	25.535	1001.992	807.858
92.884	25.454	1001.263	806.835
93.899	25.469	999.795	805.647
94.914	25.299	998.805	804.019
95.928	25.474	997.871	803.977
96.943	25.512	997.386	803.688
97.957	25.110	996.444	801.061
98.972	24.947	995.260	799.310
99.987	24.755	993.959	797.338
101.001	24.861	993.654	797.497
102.016	25.118	993.593	798.522
103.030	25.296	992.051	798.001
104.045	25.152	991.071	796.504
105.060	25.057	989.924	795.090
106.074	24.826	988.646	792.969
107.089	24.929	988.339	793.111
108.103	25.145	987.840	793.594
109.118	25.430	986.613	793.798
110.133	25.000	985.736	791.125
111.147	25.024	984.705	790.332
112.162	24.803	983.935	788.672
113.176	24.643	982.463	786.717
114.191	24.873	981.779	787.111
115.206	24.915	981.306	786.846
116.220	24.689	979.766	784.549
117.235	24.454	979.224	783.017
118.249	24.633	978.850	783.434
119.264	24.619	977.826	782.484
120.279	24.626	976.877	781.683
121.293	24.658	976.205	781.218
122.308	24.670	975.681	780.780
123.322	24.663	974.910	780.064
124.337	24.540	973.588	778.402
125.352	24.596	972.316	777.558
126.366	24.234	970.763	774.678
127.381	23.867	969.342	771.879
128.395	24.354	969.284	773.881
129.410	25.132	968.897	776.875
130.424	25.078	968.558	776.301
131.439	25.279	967.177	775.994
132.454	25.109	966.244	774.442
133.468	25.150	965.925	774.295
134.483	25.150	964.837	773.357
135.497	25.221	963.919	772.854
136.512	25.272	963.947	773.028
137.527	25.389	962.541	772.336
138.541	25.403	962.209	772.064
139.556	25.429	960.940	771.088
140.570	25.310	960.585	770.224
141.585	25.433	959.710	769.982
142.600	25.568	958.892	769.835
143.614	25.271	958.357	768.068
144.629	25.508	957.158	768.050
145.643	25.701	957.061	768.729
146.658	25.493	956.063	766.971
147.673	25.395	954.588	765.306
148.687	25.347	953.499	764.157
149.702	25.237	952.410	762.752
150.716	25.038	951.730	761.293
151.731	25.197	950.428	760.858
152.746	25.228	949.480	760.166
153.760	25.375	949.802	760.979
154.775	25.332	949.223	760.265
155.789	25.541	948.029	760.125
156.804	25.546	946.921	759.191
157.819	25.575	945.886	758.417
158.833	25.431	945.668	757.566
159.848	25.701	944.411	757.630
160.862	25.580	943.698	756.479
161.877	25.576	942.751	755.637
162.892	25.432	942.096	754.440
163.906	25.608	941.055	754.278
164.921	25.509	940.460	753.318
165.935	25.572	939.379	752.653
166.950	25.574	938.001	751.490
167.964	25.540	937.579	750.944
168.979	25.495	936.348	749.703
169.994	25.359	935.618	748.487
171.008	25.214	934.740	747.114
172.023	25.514	933.623	747.404
173.037	25.684	932.907	747.468
174.052	25.621	931.964	746.386
175.067	25.243	930.923	743.917
176.081	25.261	930.475	743.571
177.096	25.489	929.290	743.500
178.110	25.485	928.725	742.964
179.125	25.155	927.842	740.829
180.140	24.984	926.357	738.874
181.154	24.846	926.232	738.139
182.169	25.148	925.517	738.748
183.183	25.306	925.428	739.264
184.198	25.715	924.649	740.258
185.213	25.545	924.176	739.113
186.227	25.343	923.808	737.924
187.242	25.561	923.476	738.491
188.256	25.424	922.862	737.372
189.271	25.448	921.832	736.582
190.286	25.615	921.182	736.683
191.300	25.620	919.643	735.407
192.315	24.925	918.666	731.721
193.329	24.167	916.876	727.137
194.344	23.597	916.107	724.139
195.359	24.317	916.263	727.133
196.373	25.194	916.693	730.987
197.388	25.585	916.336	732.229
198.402	25.295	916.262	730.926
199.417	25.285	915.438	730.161
200.432	25.324	914.865	729.798
201.446	25.260	914.450	729.145
202.461	25.058	913.023	727.123
203.475	25.254	912.776	727.655
204.490	24.678	911.453	724.205
205.504	23.567	909.172	717.835
206.519	23.942	909.238	719.341
207.534	24.950	909.494	723.556
208.548	25.040	908.957	723.426
209.563	25.335	909.051	724.629
210.577	25.260	908.000	723.423
211.592	25.155	907.609	722.624
212.607	25.576	907.091	723.845
213.621	25.673	906.856	723.984
214.636	25.651	905.834	723.013
215.650	25.615	905.426	722.481
216.665	25.638	904.478	721.753
217.680	25.620	904.112	721.322
218.694	25.772	903.683	721.526
219.709	25.348	902.880	719.125
220.723	24.968	901.744	716.637
221.738	25.233	901.315	717.289
222.753	25.577	900.672	718.089
223.767	25.362	900.113	716.720
224.782	25.579	899.497	717.034
225.796	25.619	898.926	716.675
226.811	25.778	898.513	716.914
227.826	25.083	897.963	713.645
228.840	24.354	896.239	709.315
229.855	24.355	895.446	708.629
230.869	24.796	894.752	709.767
231.884	24.431	893.859	707.550
232.899	24.237	893.834	706.698
233.913	25.012	893.882	709.744
234.928	25.326	893.452	710.585
235.942	25.241	892.720	709.602
236.957	25.305	891.675	708.961
237.972	25.018	890.955	707.192
238.986	24.908	890.362	706.227
240.001	25.026	890.210	706.510
241.015	25.072	889.150	705.786
242.030	25.236	888.474	705.832
243.045	25.339	888.248	705.996
244.059	25.307	888.379	705.909
245.074	25.523	887.200	705.761
246.088	25.488	886.458	704.969
247.103	25.122	885.530	702.735
248.117	25.190	884.651	702.244
249.132	25.794	885.154	704.944
250.147	26.011	884.996	705.606
251.161	26.224	883.989	705.571
252.176	26.296	883.577	705.459
253.190	26.322	883.307	705.286
254.205	26.404	883.004	705.300
255.220	26.584	882.293	705.373
256.234	26.612	881.285	704.612
257.249	26.414	880.878	703.454
258.263	26.256	880.355	702.360
259.278	26.124	879.996	701.499
260.293	26.368	879.531	702.014
261.307	26.451	878.969	701.823
262.322	26.380	878.209	700.883
263.336	26.209	877.368	699.484
264.351	25.496	876.440	695.922
265.366	24.560	874.527	690.725
266.380	24.291	873.511	688.822
267.395	25.211	873.702	692.466
268.409	25.851	874.035	695.137
269.424	25.894	873.284	694.646
270.439	26.005	872.957	694.752
271.453	26.181	871.854	694.489
272.468	26.050	871.918	693.976
273.482	26.265	871.380	694.312
274.497	26.486	870.710	694.564
275.512	26.086	869.912	692.334
276.526	25.633	868.416	689.344
277.541	25.832	868.236	689.905
278.555	26.244	867.727	691.014
279.570	26.104	867.047	689.876
280.585	25.788	866.436	688.123
281.599	26.004	865.495	688.140
282.614	26.139	865.328	688.458
283.628	25.629	864.249	685.597
284.643	25.281	863.542	683.650
285.657	25.733	863.135	684.988
286.672	25.525	862.865	683.922
287.687	25.086	861.833	681.375
288.701	25.578	861.762	683.129
289.716	25.906	861.459	684.073
290.730	25.549	860.413	681.828
291.745	25.409	859.707	680.677
292.760	25.179	858.958	679.153
293.774	24.995	858.357	677.922
294.789	26.145	858.578	682.386
295.803	26.726	858.795	684.694
296.818	26.669	858.491	684.175
297.833	26.659	858.211	683.855
298.847	26.442	856.961	681.981
299.862	26.172	855.955	680.102
300.876	26.250	855.708	680.141
301.891	26.701	854.899	681.133
302.906	26.867	854.508	681.386
303.920	26.373	853.298	678.506
304.935	26.139	852.786	677.160
305.949	26.543	852.604	678.473
306.964	26.616	852.316	678.456
307.979	26.384	851.633	676.984
308.993	26.276	851.092	676.088
310.008	26.617	850.867	677.128
311.022	26.848	850.494	677.632
312.037	26.651	849.937	676.392
313.052	26.405	849.177	674.811
314.066	26.203	848.539	673.489
315.081	25.586	846.891	669.824
316.095	24.816	845.914	666.127
317.110	25.333	846.141	668.172
318.125	26.384	845.989	671.902
319.139	25.953	845.165	669.588
320.154	24.817	843.001	663.605
321.168	24.251	842.157	660.781
322.183	24.962	842.369	663.524
323.197	25.892	843.156	667.533
324.212	26.211	842.843	668.408
325.227	26.297	842.583	668.460
326.241	26.462	841.996	668.545
327.256	26.334	841.401	667.542
328.270	26.251	840.315	666.314
329.285	26.298	839.981	666.163
330.300	26.088	839.114	664.643
331.314	25.853	838.581	663.298
332.329	26.006	837.703	663.108
333.343	26.462	837.469	664.539
334.358	26.576	837.621	665.021
335.373	26.546	836.779	664.182
336.387	26.560	836.038	663.587
337.402	26.834	835.907	664.426
338.416	26.907	835.823	664.568
339.431	26.905	835.518	664.259
340.446	26.967	834.736	663.808
341.460	27.222	834.472	664.472
342.475	27.229	833.573	663.721
343.489	26.977	832.971	662.264
344.504	26.878	832.528	661.491
345.519	27.114	832.347	662.150
346.533	27.419	831.822	662.784
347.548	27.565	831.227	662.782
348.562	27.420	830.895	661.930
349.577	27.374	830.405	661.316
350.592	27.329	829.885	660.678
351.606	27.217	829.177	659.652
352.621	27.176	829.048	659.343
353.635	27.239	828.258	658.883
354.650	26.946	828.141	657.670
355.665	26.726	826.878	655.813
356.679	25.670	825.211	650.618
357.694	25.703	824.846	650.390
358.708	26.510	824.352	652.856
359.723	26.226	823.982	651.483
360.738	26.480	823.887	652.265
361.752	26.872	823.917	653.644
362.767	27.065	823.256	653.758
363.781	27.372	822.819	654.455
364.796	27.512	823.085	655.112
365.810	27.559	822.632	654.862
366.825	27.674	822.587	655.181
367.840	27.792	821.963	655.049
368.854	27.731	820.931	653.951
369.869	27.169	820.184	651.287
370.883	26.929	819.825	650.082
371.898	27.030	819.292	649.966
372.913	27.020	818.361	649.133
373.927	27.116	817.507	648.742
374.942	27.279	816.988	648.852
375.956	27.136	816.965	648.268
376.971	27.334	816.270	648.365
377.986	27.511	815.695	648.481
379.000	27.735	815.515	649.077
380.015	27.583	815.116	648.160
381.029	27.433	814.528	647.103
382.044	27.399	813.715	646.281
383.059	27.672	813.106	646.708
384.073	27.688	812.915	646.554
385.088	27.739	812.030	645.976
386.102	27.827	811.390	645.718
387.117	27.588	810.579	644.171
388.132	27.235	810.427	642.745
389.146	27.211	809.629	641.974
390.161	26.695	808.434	639.149
391.175	26.744	808.671	639.451
392.190	27.275	808.434	641.079
393.205	27.279	808.085	640.761
394.219	26.319	806.203	635.835
395.234	24.714	804.212	628.572
396.248	23.872	802.882	624.520
397.263	25.034	803.799	629.264
398.278	26.922	805.026	636.800
399.292	27.301	805.054	638.095
400.307	26.994	804.360	636.412
401.321	26.874	804.077	635.713
402.336	26.892	803.567	635.314
403.350	27.153	803.814	636.368
404.365	27.696	803.848	638.240
405.380	27.996	803.295	638.792
406.394	28.378	802.939	639.788
407.409	28.462	802.699	639.832
408.423	28.489	801.923	639.253
409.438	28.425	801.402	638.557
410.453	28.495	800.843	638.299
411.467	28.389	800.512	637.611
412.482	28.393	800.024	637.180
413.496	28.416	799.499	636.782
414.511	28.293	799.606	636.387
415.526	28.463	798.808	636.284
416.540	28.365	798.412	635.574
417.555	28.285	797.799	634.750
418.569	28.112	797.170	633.595
419.584	27.988	797.059	633.021
420.599	28.024	796.428	632.589
421.613	111.345	1284.560	1457.983
422.628	95.980	1355.666	1458.081
