DTS Sentinel unit serial number:	SN413079Multiplexer serial number:	ORYXHardware model number:	OX4-SRSoftware version number:	ORYX F/W v4.00 Oryx Data Collector v3.7.2.0data status	okinstallation	princeton_trtdifferential loss correction	single-endedforward channel	channel 3reverse channel	N/Adate	2019/09/11time	05:58:10forward acquisition time	60.00reverse acquisition time	0.00gamma	496.2192k internal	0.2331k external	0.2331temperature offset calibration	0.9901default loss term (dB/km)	0.3790temperature slope calibration	1.0000multiplexer offset coefficient	1.0000multiplexer slope coefficient	1.0000fibre end	0.00T internal ref (°C)	29.44T ext. ref 1 (°C)	-0.23T ext. ref 2 (°C)	23.54length (m)	temperature (°C)	Stokes	anti-Stokes-747.200	191.740	-0.111	0.168
-746.185	-140.677	-0.398	-0.041
-745.171	-55.021	-0.231	-0.105
-744.156	67.031	0.102	0.104
-743.142	-130.363	0.145	-0.020
-742.127	-25.535	0.358	-0.213
-741.112	190.435	-0.291	0.439
-740.098	-18.332	-0.043	-0.027
-739.083	-153.293	0.234	-0.016
-738.069	-16.693	-0.121	0.077
-737.054	-31.484	0.120	-0.068
-736.039	-118.803	-0.554	-0.098
-735.025	-142.928	-0.288	-0.028
-734.010	-123.656	-0.195	0.031
-732.996	58.940	-0.188	-0.186
-731.981	-102.009	0.385	-0.093
-730.966	-104.368	-0.332	0.077
-729.952	665.063	0.043	-0.110
-728.937	-200.000	0.049	0.332
-727.923	202.887	-0.181	-0.282
-726.908	-160.326	-0.292	-0.016
-725.894	3.129	-0.084	-0.061
-724.879	-48.956	0.362	-0.175
-723.864	178.235	-0.131	-0.192
-722.850	-200.000	-0.024	0.196
-721.835	800.000	0.003	-0.012
-720.821	-102.708	0.333	-0.080
-719.806	154.551	-0.109	-0.150
-718.791	800.000	0.047	-0.172
-717.777	147.768	-0.135	-0.182
-716.762	800.000	0.007	0.029
-715.748	-27.182	-0.288	0.169
-714.733	-29.414	0.212	-0.122
-713.718	-31.224	0.056	0.031
-712.704	-200.000	-0.050	0.249
-711.689	685.863	0.038	0.101
-710.675	502.147	-0.182	0.422
-709.660	79.950	0.218	-0.235
-708.645	-141.292	0.358	-0.037
-707.631	152.499	0.048	-0.066
-706.616	-200.000	-0.000	-0.289
-705.602	92.704	0.103	0.117
-704.587	-154.165	-0.053	0.004
-703.572	295.025	-0.226	0.416
-702.558	30.612	-0.066	-0.057
-701.543	800.000	-0.091	0.386
-700.529	-4.451	0.216	-0.150
-699.514	722.055	-0.055	0.148
-698.499	229.905	0.123	-0.201
-697.485	-94.177	-0.128	0.035
-696.470	-169.554	0.157	-0.006
-695.456	-107.391	-0.460	-0.102
-694.441	79.692	-0.100	0.108
-693.426	-147.675	0.115	0.010
-692.412	-71.896	-0.371	-0.139
-691.397	-9.991	-0.133	0.089
-690.383	-88.024	-0.345	-0.104
-689.368	-41.506	0.212	-0.110
-688.354	258.309	-0.132	0.229
-687.339	410.175	-0.077	0.163
-686.324	511.169	-0.112	0.261
-685.310	800.000	-0.050	-0.209
-684.295	39.921	-0.436	0.393
-683.281	800.000	0.121	0.337
-682.266	-200.000	-0.004	-0.096
-681.251	800.000	-0.010	-0.039
-680.237	49.743	-0.194	-0.184
-679.222	88.084	-0.217	-0.242
-678.208	-11.515	0.236	0.156
-677.193	69.541	0.096	-0.099
-676.178	198.318	0.095	-0.146
-675.164	26.583	0.393	-0.330
-674.149	263.142	-0.100	-0.175
-673.135	253.624	-0.284	-0.487
-672.120	764.792	0.191	0.520
-671.105	-115.345	-0.062	0.012
-670.091	34.371	-0.167	0.146
-669.076	-99.596	-0.299	-0.075
-668.062	231.067	-0.080	0.132
-667.047	55.690	-0.333	0.324
-666.032	-200.000	0.056	-0.294
-665.018	-155.772	-0.115	-0.007
-664.003	-200.000	0.103	-0.515
-662.989	800.000	-0.078	0.260
-661.974	-177.319	-0.327	-0.008
-660.959	800.000	0.010	-0.039
-659.945	800.000	0.027	0.093
-658.930	-58.194	-0.053	0.023
-657.916	-74.413	-0.285	0.103
-656.901	-43.236	0.407	-0.207
-655.886	800.000	0.062	-0.215
-654.872	800.000	0.059	-0.238
-653.857	-9.247	0.172	-0.115
-652.843	0.719	-0.169	-0.121
-651.828	-21.220	0.082	0.050
-650.814	131.734	-0.144	0.185
-649.799	-200.000	0.008	-0.279
-648.784	44.114	-0.229	0.210
-647.770	-24.735	0.045	0.027
-646.755	149.591	0.181	0.245
-645.741	-200.000	0.003	-0.132
-644.726	163.450	-0.061	-0.086
-643.711	381.175	-0.147	-0.302
-642.697	152.338	-0.237	-0.324
-641.682	800.000	-0.145	0.408
-640.668	800.000	-0.050	0.152
-639.653	-200.000	0.017	-0.093
-638.638	-72.367	-0.356	0.132
-637.624	800.000	-0.064	0.204
-636.609	-200.000	-0.014	-0.152
-635.595	45.241	-0.347	-0.321
-634.580	-53.681	-0.105	-0.048
-633.565	60.092	-0.055	-0.054
-632.551	-200.000	0.004	-0.265
-631.536	-27.735	-0.237	0.138
-630.522	800.000	-0.102	0.305
-629.507	-163.485	0.070	0.003
-628.492	-62.061	0.171	-0.072
-627.478	60.397	-0.189	-0.187
-626.463	6.770	0.090	-0.067
-625.449	-152.346	-0.040	0.003
-624.434	-21.463	0.343	0.210
-623.419	-97.585	0.191	0.050
-622.405	28.363	0.143	-0.121
-621.390	97.052	0.201	0.231
-620.376	7.472	-0.166	0.124
-619.361	242.092	0.104	-0.175
-618.346	-173.554	0.307	0.009
-617.332	800.000	0.071	-0.206
-616.317	-104.537	0.172	0.040
-615.303	200.635	0.200	0.307
-614.288	-46.923	0.058	-0.028
-613.273	800.000	-0.041	-0.120
-612.259	-182.371	0.166	-0.003
-611.244	-200.000	0.002	-0.128
-610.230	-200.000	-0.057	0.263
-609.215	-27.192	-0.234	0.137
-608.201	20.491	-0.248	-0.201
-607.186	-200.000	-0.020	0.000
-606.171	704.891	0.076	0.200
-605.157	317.404	-0.206	-0.391
-604.142	329.755	-0.088	-0.169
-603.128	-167.995	-0.146	-0.006
-602.113	-200.000	-0.022	-0.218
-601.098	-122.627	0.222	-0.036
-600.084	609.667	0.047	0.119
-599.069	300.739	-0.036	0.066
-598.055	800.000	-0.025	0.105
-597.040	316.494	-0.087	-0.165
-596.025	-31.766	-0.310	0.174
-595.011	33.564	0.105	0.092
-593.996	-22.524	-0.064	-0.039
-592.982	800.000	0.056	-0.241
-591.967	168.548	0.146	0.208
-590.952	-200.000	-0.039	0.298
-589.938	-200.000	-0.002	-0.079
-588.923	76.298	0.116	0.122
-587.909	-49.285	-0.136	0.065
-586.894	18.539	0.276	-0.221
-585.879	53.874	0.101	0.097
-584.865	800.000	0.045	-0.168
-583.850	-18.490	-0.351	-0.219
-582.836	62.415	-0.104	0.104
-581.821	-15.955	-0.142	-0.090
-580.806	-200.000	-0.052	0.361
-579.792	-112.289	-0.135	0.027
-578.777	60.710	0.123	-0.122
-577.763	-101.556	-0.098	0.024
-576.748	-183.134	0.120	0.002
-575.733	-39.367	-0.076	0.040
-574.719	-127.019	-0.389	0.057
-573.704	581.707	-0.108	0.264
-572.690	-200.000	0.024	0.244
-571.675	81.246	-0.247	-0.267
-570.661	-200.000	0.010	0.209
-569.646	-182.409	-0.179	0.003
-568.631	52.738	-0.239	0.228
-567.617	104.586	0.067	-0.079
-566.602	-200.000	0.008	-0.176
-565.588	-200.000	0.024	-0.158
-564.573	-110.420	0.358	-0.074
-563.558	51.194	-0.262	0.248
-562.544	12.589	0.136	-0.105
-561.529	-200.000	-0.005	-0.104
-560.515	-64.908	-0.433	-0.175
-559.500	50.775	0.030	-0.029
-558.485	280.596	-0.178	0.319
-557.471	195.849	-0.080	-0.122
-556.456	164.764	0.051	-0.071
-555.442	49.036	0.277	-0.260
-554.427	-72.692	0.215	-0.079
-553.412	215.608	0.224	-0.356
-552.398	-93.285	0.212	-0.059
-551.383	210.306	0.140	0.220
-550.369	-200.000	-0.015	0.074
-549.354	312.299	-0.176	-0.330
-548.339	800.000	-0.033	-0.142
-547.325	761.885	-0.121	-0.328
-546.310	140.724	-0.102	0.134
-545.296	6.304	0.208	-0.154
-544.281	406.730	0.105	0.222
-543.266	-200.000	-0.043	0.473
-542.252	25.826	0.283	0.236
-541.237	-155.089	-0.240	-0.016
-540.223	-155.342	0.157	-0.010
-539.208	-0.902	0.198	0.140
-538.193	15.569	0.128	0.100
-537.179	307.557	-0.010	0.019
-536.164	-200.000	-0.002	-0.169
-535.150	120.098	-0.070	0.086
-534.135	9.148	0.129	-0.097
-533.121	-33.472	-0.139	-0.077
-532.106	-21.554	-0.124	-0.075
-531.091	6.914	0.036	0.026
-530.077	-26.836	0.158	-0.092
-529.062	57.553	-0.208	-0.203
-528.048	-200.000	0.056	-0.375
-527.033	-200.000	0.019	0.096
-526.018	-9.381	0.167	0.111
-525.004	-200.000	-0.009	-0.256
-523.989	152.172	-0.085	-0.115
-522.975	-70.630	0.130	-0.049
-521.960	422.803	0.055	0.119
-520.945	-112.352	0.280	0.056
-519.931	137.880	0.093	-0.121
-518.916	-181.645	-0.198	-0.004
-517.902	29.692	0.124	0.105
-516.887	409.126	-0.168	-0.354
-515.872	-67.699	-0.242	-0.094
-514.858	-200.000	0.004	0.057
-513.843	197.409	-0.154	-0.234
-512.829	-30.248	0.124	-0.070
-511.814	800.000	0.030	-0.130
-510.799	63.320	0.036	-0.036
-509.785	-80.895	0.489	-0.162
-508.770	800.000	-0.014	-0.045
-507.756	-200.000	-0.040	-0.329
-506.741	-28.496	0.158	0.091
-505.726	800.000	-0.031	-0.101
-504.712	621.433	-0.138	-0.345
-503.697	132.512	0.108	-0.139
-502.683	800.000	0.054	-0.177
-501.668	800.000	-0.024	0.075
-500.653	-177.899	0.352	-0.008
-499.639	-200.000	0.025	-0.256
-498.624	-22.383	0.285	0.172
-497.610	-23.542	-0.195	-0.117
-496.595	-200.000	-0.040	0.230
-495.581	-119.465	-0.309	0.053
-494.566	-104.013	0.178	0.041
-493.551	-77.215	-0.285	0.099
-492.537	-3.885	-0.171	-0.119
-491.522	800.000	0.055	-0.215
-490.508	-200.000	0.024	0.302
-489.493	-132.337	0.109	0.014
-488.478	-81.685	-0.181	-0.059
-487.464	-53.734	-0.218	0.099
-486.449	332.332	0.088	0.169
-485.435	52.567	0.287	0.273
-484.420	-140.104	0.058	-0.006
-483.405	52.058	0.097	-0.092
-482.391	-146.344	0.188	-0.016
-481.376	-82.010	-0.266	-0.087
-480.362	800.000	0.064	0.208
-479.347	-5.392	0.063	-0.043
-478.332	112.286	-0.089	-0.107
-477.318	-92.394	0.191	-0.054
-476.303	-7.498	-0.268	0.181
-475.289	277.082	0.173	0.307
-474.274	-66.017	-0.414	-0.165
-473.259	-200.000	-0.007	-0.033
-472.245	14.184	0.125	0.097
-471.230	-99.377	0.133	-0.033
-470.216	471.702	0.157	-0.352
-469.201	800.000	-0.074	-0.280
-468.186	83.181	0.116	0.125
-467.172	248.622	0.045	-0.076
-466.157	28.995	-0.290	0.245
-465.143	-110.590	-0.281	0.058
-464.128	-26.496	-0.148	-0.086
-463.113	-200.000	-0.003	0.173
-462.099	102.715	-0.056	-0.065
-461.084	-77.085	0.351	0.122
-460.070	362.095	0.061	0.122
-459.055	180.897	0.088	0.129
-458.040	-106.348	-0.179	0.040
-457.026	-131.266	-0.066	-0.009
-456.011	-103.534	0.154	-0.036
-454.997	-56.501	0.125	-0.055
-453.982	-55.366	-0.053	0.023
-452.968	-84.968	0.135	-0.042
-451.953	800.000	0.065	-0.194
-450.938	-200.000	0.024	0.130
-449.924	-200.000	0.017	0.082
-448.909	122.617	-0.139	0.173
-447.895	181.991	0.233	-0.342
-446.880	213.341	0.121	-0.190
-445.865	-119.283	0.007	0.001
-444.851	106.927	0.058	-0.068
-443.836	70.994	-0.067	0.069
-442.822	209.600	0.096	0.150
-441.807	800.000	0.034	0.141
-440.792	144.724	-0.104	-0.138
-439.778	-46.338	-0.291	0.142
-438.763	-69.615	-0.201	-0.076
-437.749	30.362	-0.400	0.339
-436.734	-122.783	-0.046	0.007
-435.719	434.791	-0.138	-0.299
-434.705	84.853	0.039	-0.043
-433.690	-51.028	0.145	0.068
-432.676	-200.000	0.026	0.171
-431.661	-200.000	-0.042	-0.248
-430.646	800.000	-0.027	0.116
-429.632	-73.056	-0.305	0.111
-428.617	800.000	0.040	-0.121
-427.603	-57.744	0.218	0.095
-426.588	113.937	0.090	-0.109
-425.573	-65.116	0.297	-0.119
-424.559	202.993	-0.137	-0.211
-423.544	-63.579	0.128	0.052
-422.530	-3.090	0.127	-0.088
-421.515	-57.595	-0.231	-0.101
-420.500	25.605	0.084	-0.070
-419.486	72.872	0.045	0.047
-418.471	-32.952	0.359	0.198
-417.457	-101.049	-0.409	0.100
-416.442	-200.000	0.008	0.103
-415.428	311.508	0.066	0.124
-414.413	84.535	0.150	0.163
-413.398	-48.294	0.257	-0.123
-412.384	283.086	-0.056	0.100
-411.369	145.533	-0.106	0.141
-410.355	-83.281	0.438	-0.140
-409.340	179.841	0.078	0.113
-408.325	-145.590	-0.274	-0.024
-407.311	125.977	-0.210	-0.264
-406.296	-101.221	-0.200	0.049
-405.282	43.528	-0.148	-0.134
-404.267	-84.840	0.219	-0.068
-403.252	174.968	0.031	0.044
-402.238	24.963	-0.190	-0.156
-401.223	19.966	-0.201	-0.161
-400.209	19.846	-0.155	0.124
-399.194	-200.000	-0.001	-0.097
-398.179	166.969	-0.234	-0.330
-397.165	800.000	-0.016	-0.055
-396.150	-46.077	-0.137	-0.067
-395.136	-142.055	-0.292	-0.029
-394.121	-200.000	-0.016	-0.161
-393.106	574.775	-0.066	-0.159
-392.092	101.445	0.184	-0.213
-391.077	-52.254	0.352	-0.162
-390.063	-105.282	0.177	-0.040
-389.048	-90.442	-0.165	-0.047
-388.033	800.000	0.081	0.250
-387.019	19.791	-0.176	-0.140
-386.004	-37.078	0.312	0.166
-384.990	238.053	0.110	0.182
-383.975	-78.534	-0.022	-0.008
-382.960	800.000	-0.113	0.341
-381.946	-110.372	-0.155	0.032
-380.931	-93.907	-0.306	0.083
-379.917	-200.000	-0.002	-0.252
-378.902	-146.508	0.146	0.013
-377.888	-57.599	-0.446	-0.194
-376.873	52.738	-0.118	0.112
-375.858	230.003	-0.088	0.143
-374.844	-200.000	-0.027	0.179
-373.829	-53.482	-0.043	-0.020
-372.815	-52.065	-0.141	0.065
-371.800	592.053	0.156	0.381
-370.785	135.331	-0.092	-0.119
-369.771	-90.285	0.213	-0.061
-368.756	19.090	0.098	0.078
-367.742	-200.000	-0.087	0.681
-366.727	87.095	-0.125	0.137
-365.712	800.000	0.027	0.087
-364.698	101.994	-0.087	0.100
-363.683	-25.162	0.267	-0.157
-362.669	-113.390	0.296	-0.057
-361.654	-154.954	0.179	-0.012
-360.639	800.000	0.043	-0.151
-359.625	800.000	-0.077	-0.230
-358.610	-200.000	-0.010	0.227
-357.596	-57.253	-0.171	0.075
-356.581	-10.333	0.074	0.049
-355.566	800.000	-0.114	-0.344
-354.552	33.410	0.172	0.148
-353.537	-99.012	0.290	-0.073
-352.523	336.790	-0.119	-0.229
-351.508	-156.603	-0.085	0.005
-350.493	-200.000	-0.012	-0.250
-349.479	-200.000	0.010	0.058
-348.464	-131.969	0.124	-0.016
-347.450	-36.327	0.054	0.029
-346.435	147.141	-0.216	0.288
-345.420	-11.245	0.068	-0.044
-344.406	359.838	0.044	0.087
-343.391	-63.977	-0.129	0.052
-342.377	10.960	-0.095	0.072
-341.362	-22.756	-0.397	0.237
-340.348	-120.734	0.066	0.011
-339.333	382.211	0.043	0.088
-338.318	-130.417	-0.131	0.018
-337.304	-200.000	0.060	-0.415
-336.289	-10.239	-0.282	-0.185
-335.275	-114.020	0.200	0.038
-334.260	142.731	-0.191	-0.251
-333.245	95.772	-0.252	-0.285
-332.231	656.544	0.028	0.071
-331.216	-107.226	0.142	0.031
-330.202	-101.182	0.100	-0.024
-329.187	389.157	-0.122	-0.251
-328.172	-200.000	0.010	-0.106
-327.158	70.497	0.269	0.275
-326.143	202.784	-0.152	0.232
-325.129	249.545	-0.209	0.351
-324.114	-200.000	-0.005	0.260
-323.099	-200.000	0.017	0.079
-322.085	124.349	-0.219	-0.273
-321.070	-137.809	-0.411	0.046
-320.056	281.129	0.029	0.051
-319.041	-200.000	0.001	-0.095
-318.026	287.804	0.159	-0.285
-317.012	-43.801	-0.226	-0.113
-315.997	800.000	-0.043	-0.184
-314.983	-81.759	-0.095	0.031
-313.968	-148.434	0.351	0.029
-312.953	-77.304	0.156	0.054
-311.939	800.000	0.091	0.250
-310.924	800.000	-0.029	0.084
-309.910	232.629	-0.092	0.150
-308.895	-200.000	0.027	-0.355
-307.880	77.341	-0.147	0.155
-306.866	19.507	0.053	0.042
-305.851	-97.480	-0.194	-0.050
-304.837	-200.000	0.032	-0.201
-303.822	-200.000	-0.003	0.199
-302.807	-145.337	0.159	-0.014
-301.793	323.485	-0.058	0.110
-300.778	417.097	0.101	0.214
-299.764	-113.301	-0.222	-0.043
-298.749	-17.905	-0.316	0.196
-297.735	-18.678	0.287	0.177
-296.720	-40.174	0.112	0.058
-295.705	297.452	0.074	0.135
-294.691	-200.000	0.018	0.094
-293.676	438.882	0.104	-0.225
-292.662	-200.000	-0.036	0.178
-291.647	-200.000	-0.010	0.457
-290.632	264.686	0.084	0.145
-289.618	352.002	-0.074	0.144
-288.603	-127.413	-0.419	0.060
-287.589	-200.000	0.032	-0.168
-286.574	-79.223	0.154	0.052
-285.559	-48.885	-0.142	0.067
-284.545	-200.000	-0.075	0.422
-283.530	-75.857	0.173	0.061
-282.516	48.299	-0.114	-0.105
-281.501	34.070	-0.159	-0.137
-280.486	-200.000	-0.027	-0.213
-279.472	-77.527	0.111	0.038
-278.457	-130.775	0.298	0.040
-277.443	-172.123	0.087	-0.003
-276.428	122.463	0.084	0.104
-275.413	355.151	0.048	0.095
-274.399	64.610	-0.188	-0.188
-273.384	-66.851	0.284	-0.111
-272.370	194.407	-0.186	0.278
-271.355	-14.847	0.154	-0.097
-270.340	-123.060	-0.057	-0.009
-269.326	-72.004	0.246	0.090
-268.311	-200.000	-0.032	-0.307
-267.297	152.095	0.118	-0.159
-266.282	-200.000	0.028	0.282
-265.267	342.010	0.144	-0.277
-264.253	80.555	0.059	0.062
-263.238	64.339	0.086	-0.086
-262.224	-200.000	-0.059	0.662
-261.209	63.787	-0.050	-0.050
-260.195	800.000	-0.047	-0.184
-259.180	-5.436	0.062	0.042
-258.165	-44.991	0.100	0.049
-257.151	713.870	0.101	-0.264
-256.136	-170.131	-0.222	0.008
-255.122	800.000	0.117	0.356
-254.107	205.713	0.084	-0.128
-253.092	94.426	0.020	-0.022
-252.078	-70.008	0.353	-0.133
-251.063	-159.743	0.348	-0.019
-250.049	-200.000	0.021	0.101
-249.034	57.373	-0.165	0.159
-248.019	-81.653	-0.354	0.115
-247.005	-200.000	-0.042	-0.268
-245.990	13.610	0.074	-0.057
-244.976	-154.567	0.269	0.018
-243.961	21.597	0.116	-0.093
-242.946	109.319	-0.127	-0.150
-241.932	-116.364	0.379	-0.069
-240.917	84.770	0.124	0.134
-239.903	-121.080	0.037	0.006
-238.888	-200.000	0.019	0.127
-237.873	80.482	-0.086	-0.092
-236.859	498.115	0.021	0.048
-235.844	-130.560	-0.280	0.037
-234.830	-71.071	0.102	0.038
-233.815	-40.995	-0.358	-0.183
-232.800	-41.528	0.357	0.181
-231.786	1.633	0.071	-0.051
-230.771	28.727	0.181	0.152
-229.757	133.822	-0.166	0.211
-228.742	220.767	0.116	0.183
-227.727	-200.000	-0.014	0.115
-226.713	-130.372	0.060	0.008
-225.698	800.000	0.030	-0.103
-224.684	43.136	-0.077	-0.069
-223.669	59.679	0.167	-0.162
-222.655	800.000	-0.069	0.288
-221.640	46.383	-0.175	0.160
-220.625	30.957	0.179	-0.151
-219.611	-168.299	-0.127	-0.005
-218.596	16.116	-0.206	0.160
-217.582	-0.467	-0.265	0.186
-216.567	-143.097	0.074	0.007
-215.552	-100.688	-0.107	0.026
-214.538	-132.160	-0.265	0.034
-213.523	192.485	0.003	-0.004
-212.509	-73.295	-0.056	-0.020
-211.494	-60.342	-0.147	-0.062
-210.479	-115.291	0.304	0.057
-209.465	664.333	-0.146	-0.371
-208.450	130.659	0.327	-0.413
-207.436	-200.000	-0.026	-0.145
-206.421	-200.000	0.024	-0.390
-205.406	-200.000	0.001	-0.214
-204.392	-41.213	0.203	0.103
-203.377	595.010	0.121	0.295
-202.363	83.658	-0.124	-0.133
-201.348	-10.280	0.115	-0.075
-200.333	222.300	0.101	-0.161
-199.319	-200.000	-0.004	0.279
-198.304	-155.615	0.513	0.033
-197.290	115.982	0.254	0.306
-196.275	-170.570	0.196	0.007
-195.260	93.966	0.237	0.265
-194.246	173.706	-0.230	0.327
-193.231	-104.586	-0.165	0.037
-192.217	-99.323	0.094	-0.023
-191.202	177.289	0.009	0.013
-190.187	64.459	-0.140	0.139
-189.173	556.895	0.049	0.115
-188.158	-16.252	0.158	0.099
-187.144	112.896	-0.094	0.112
-186.129	-47.341	-0.200	-0.096
-185.114	-101.406	0.216	-0.052
-184.100	-200.000	0.021	-0.290
-183.085	-182.584	-0.104	-0.002
-182.071	152.172	0.074	-0.100
-181.056	-200.000	0.066	0.284
-180.042	71.704	0.227	0.232
-179.027	53.664	0.090	-0.085
-178.012	383.271	-0.116	-0.236
-176.998	-191.662	0.187	0.002
-175.983	-157.453	-0.272	-0.016
-174.969	-4.594	-0.489	-0.333
-173.954	76.437	-0.017	0.018
-172.939	184.108	0.055	0.081
-171.925	-56.390	-0.214	0.094
-170.910	-112.694	0.207	-0.040
-169.896	800.000	0.025	0.090
-168.881	162.179	-0.064	-0.088
-167.866	-200.000	0.005	0.199
-166.852	-125.112	-0.199	-0.030
-165.837	240.597	-0.024	-0.039
-164.823	-200.000	0.004	-0.284
-163.808	-127.327	-0.191	0.027
-162.793	-69.389	0.531	0.201
-161.779	-34.634	-0.399	-0.215
-160.764	-200.000	-0.009	0.087
-159.750	181.111	-0.072	0.104
-158.735	-60.115	-0.344	0.144
-157.720	-111.408	0.407	-0.082
-156.706	122.223	-0.044	0.054
-155.691	15.304	0.305	0.236
-154.677	151.054	-0.071	0.095
-153.662	-200.000	0.088	-0.389
-152.647	-119.903	0.154	0.026
-151.633	-139.167	0.333	-0.035
-150.618	-200.000	0.034	0.410
-149.604	166.078	0.156	-0.217
-148.589	-118.652	0.211	-0.037
-147.574	32.466	0.222	-0.188
-146.560	46.966	0.231	0.212
-145.545	-200.000	-0.052	0.374
-144.531	-200.000	0.007	0.050
-143.516	-28.579	0.176	-0.100
-142.502	223.226	-0.046	0.074
-141.487	-163.957	0.403	0.018
-140.472	-100.923	-0.107	-0.026
-139.458	-154.113	-0.229	-0.015
-138.443	176.155	0.237	0.338
-137.429	158.518	-0.029	-0.039
-136.414	777.733	-0.149	-0.400
-135.399	726.608	-0.019	-0.049
-134.385	800.000	0.119	-0.325
-133.370	-196.853	0.075	0.000
-132.356	329.935	-0.137	-0.259
-131.341	-116.970	0.074	-0.013
-130.326	-60.381	0.071	0.030
-129.312	505.609	0.105	-0.238
-128.297	198.195	-0.118	-0.177
-127.283	215.742	0.072	-0.112
-126.268	800.000	0.029	0.079
-125.253	-177.648	-0.135	-0.003
-124.239	-200.000	0.000	0.220
-123.224	-76.477	-0.064	0.022
-122.210	-72.275	-0.026	-0.009
-121.195	205.646	0.045	-0.069
-120.180	-57.795	0.398	-0.171
-119.166	128.390	0.169	0.212
-118.151	-200.000	-0.053	-0.433
-117.137	-33.578	0.255	0.138
-116.122	-137.740	-0.130	0.014
-115.107	103.775	-0.043	-0.049
-114.093	123.511	-0.228	-0.281
-113.078	71.447	-0.110	-0.112
-112.064	51.194	-0.180	0.168
-111.049	225.268	-0.142	-0.226
-110.034	-51.387	-0.189	0.087
-109.020	-164.749	0.277	-0.012
-108.005	-57.497	-0.285	0.123
-106.991	-77.233	0.297	-0.102
-105.976	-14.425	0.333	0.210
-104.962	-200.000	0.003	0.055
-103.947	282.201	-0.163	-0.287
-102.932	-200.000	0.023	0.168
-101.918	192.618	-0.194	0.287
-100.903	31.629	-0.240	-0.202
-99.889	-182.717	-0.105	-0.002
-98.874	54.491	0.145	-0.137
-97.859	-83.109	-0.054	-0.017
-96.845	-200.000	-0.050	-0.263
-95.830	-160.887	-0.213	0.011
-94.816	786.764	0.100	0.270
-93.801	59.140	0.250	0.241
-92.786	332.494	0.023	0.043
-91.772	-114.668	-0.215	-0.040
-90.757	88.746	-0.025	-0.027
-89.743	-157.567	0.373	-0.022
-88.728	300.023	-0.068	-0.123
-87.713	-15.074	0.264	-0.166
-86.699	-45.029	-0.358	-0.175
-85.684	-200.000	0.027	-0.156
-84.670	-26.879	0.142	0.081
-83.655	349.767	0.070	-0.135
-82.640	-91.027	-0.155	-0.044
-81.626	-97.419	0.416	0.106
-80.611	-89.786	-0.037	0.011
-79.597	796.553	0.127	-0.343
-78.582	82.958	0.114	-0.121
-77.567	-200.000	-0.001	-0.156
-76.553	-45.842	-0.211	0.102
-75.538	66.380	-0.059	-0.059
-74.524	-200.000	0.032	-0.323
-73.509	-16.382	0.128	0.080
-72.494	157.365	0.133	0.180
-71.480	-64.958	-0.058	0.023
-70.465	18.034	-0.182	-0.142
-69.451	654.539	-0.070	0.177
-68.436	-21.171	0.247	-0.148
-67.422	-155.416	0.109	-0.007
-66.407	800.000	-0.100	0.360
-65.392	618.447	0.033	0.080
-64.378	-200.000	0.006	-0.627
-63.363	-24.075	0.084	-0.049
-62.349	-200.000	0.006	0.093
-61.334	-7.563	-1.297	-0.860
-60.319	52.676	0.603	0.564
-59.305	-200.000	-0.058	-0.825
-58.290	482.448	0.544	1.211
-57.276	793.372	0.556	1.500
-56.261	-200.000	106.505	615.109
-55.246	503.229	1510.972	3423.478
-54.232	176.123	2702.292	3844.397
-53.217	110.331	2186.004	2572.969
-52.203	40.076	1704.826	1501.063
-51.188	32.521	1515.503	1283.078
-50.173	30.226	1488.683	1244.940
-49.159	51.406	1544.616	1437.162
-48.144	51.620	1561.000	1453.814
-47.130	32.847	1516.844	1286.229
-46.115	29.689	1502.219	1252.420
-45.100	29.588	1498.123	1248.273
-44.086	29.578	1496.040	1246.421
-43.071	29.441	1493.752	1243.543
-42.057	29.458	1492.396	1242.476
-41.042	29.389	1491.415	1241.149
-40.027	29.334	1489.895	1239.464
-39.013	29.388	1488.304	1238.454
-37.998	29.329	1487.216	1237.101
-36.984	29.502	1485.457	1236.749
-35.969	29.434	1484.515	1235.463
-34.954	29.450	1482.707	1234.014
-33.940	29.422	1481.713	1232.950
-32.925	29.396	1479.941	1231.257
-31.911	29.360	1479.129	1230.293
-30.896	29.468	1477.673	1229.749
-29.881	29.468	1476.653	1228.855
-28.867	29.526	1475.096	1227.894
-27.852	29.472	1473.669	1226.300
-26.838	29.437	1472.545	1225.085
-25.823	29.500	1470.518	1223.765
-24.809	29.489	1469.356	1222.673
-23.794	29.532	1467.577	1221.431
-22.779	29.581	1466.326	1220.663
-21.765	29.544	1465.572	1219.748
-20.750	29.519	1464.511	1218.652
-19.736	29.504	1463.383	1217.565
-18.721	29.534	1462.218	1216.745
-17.706	29.415	1461.157	1215.027
-16.692	29.430	1460.084	1214.190
-15.677	29.509	1458.457	1213.306
-14.663	29.432	1458.091	1212.447
-13.648	29.387	1456.941	1211.146
-12.633	29.343	1456.444	1210.398
-11.619	29.452	1455.168	1210.004
-10.604	29.385	1454.772	1209.183
-9.590	29.376	1453.807	1208.278
-8.575	29.361	1452.941	1207.410
-7.560	29.412	1451.716	1206.677
-6.546	29.385	1451.212	1206.035
-5.531	29.356	1450.107	1204.876
-4.517	29.350	1449.359	1204.170
-3.502	29.398	1448.562	1203.771
-2.487	29.446	1446.913	1202.671
-1.473	29.428	1445.937	1201.694
-0.458	29.425	1444.888	1200.755
0.556	26.877	1435.472	1189.996
1.571	24.040	1410.552	1150.919
2.586	20.779	1352.584	1083.266
3.600	19.482	1271.564	1010.699
4.615	18.175	1227.752	968.394
5.629	16.181	1172.600	914.018
6.644	8.162	1088.864	808.182
7.659	1.093	1048.487	743.552
8.673	-0.077	1042.542	733.560
9.688	-0.231	1039.330	730.491
10.702	-0.325	1037.916	728.975
11.717	-0.287	1036.036	727.773
12.731	2.921	1039.675	745.859
13.746	11.653	1052.490	797.760
14.761	18.557	1061.021	838.008
15.775	20.500	1063.096	849.079
16.790	20.826	1062.962	850.488
17.804	20.550	1062.048	848.338
18.819	20.463	1060.895	846.913
19.834	20.533	1060.433	846.814
20.848	20.658	1060.394	847.314
21.863	20.750	1059.810	847.223
22.877	20.760	1059.503	846.949
23.892	20.750	1058.489	846.013
24.907	20.589	1057.647	844.488
25.921	20.728	1057.093	844.641
26.936	20.690	1056.251	843.713
27.950	20.601	1054.705	841.973
28.965	20.646	1053.794	841.386
29.980	20.534	1052.032	839.364
30.994	20.534	1050.755	838.274
32.009	20.611	1050.112	838.055
33.023	20.714	1049.278	837.813
34.038	20.508	1047.518	835.344
35.053	20.553	1046.825	834.932
36.067	20.714	1046.719	835.546
37.082	20.767	1045.438	834.703
38.096	20.752	1044.841	834.083
39.111	20.881	1043.906	833.878
40.126	21.071	1042.477	833.571
41.140	20.967	1041.731	832.406
42.155	20.677	1040.064	829.618
43.169	20.338	1039.325	827.337
44.184	20.351	1037.923	826.209
45.199	20.370	1037.475	825.872
46.213	20.293	1035.897	824.177
47.228	20.258	1035.115	823.317
48.242	20.412	1034.415	823.417
49.257	20.504	1033.287	822.879
50.271	20.591	1032.569	822.647
51.286	20.756	1031.787	822.735
52.301	20.775	1031.030	822.146
53.315	20.679	1030.596	821.273
54.330	20.780	1029.697	820.963
55.344	20.669	1028.576	819.473
56.359	20.836	1027.833	819.593
57.374	20.749	1026.965	818.421
58.388	20.466	1026.388	816.559
59.403	20.515	1025.218	815.783
60.417	20.597	1024.133	815.234
61.432	20.279	1023.722	813.345
62.447	20.420	1023.040	813.389
63.461	20.531	1022.323	813.266
64.476	20.628	1021.649	813.115
65.490	20.623	1020.713	812.273
66.505	20.333	1019.855	810.163
67.520	20.372	1019.132	809.700
68.534	20.480	1018.061	809.283
69.549	20.559	1016.946	808.692
70.563	20.214	1015.831	806.132
71.578	19.983	1015.197	804.480
72.593	20.101	1014.397	804.322
73.607	20.009	1013.487	803.105
74.622	19.998	1012.350	802.082
75.636	20.284	1011.762	802.868
76.651	20.357	1011.106	802.613
77.666	20.233	1010.294	801.326
78.680	20.012	1009.419	799.544
79.695	19.971	1008.993	798.943
80.709	20.206	1008.157	799.294
81.724	20.236	1007.658	798.966
82.739	20.269	1006.388	798.042
83.753	20.387	1005.312	797.661
84.768	20.690	1004.648	798.452
85.782	20.821	1004.528	798.887
86.797	20.953	1003.715	798.773
87.812	20.922	1002.889	797.903
88.826	20.819	1001.696	796.413
89.841	20.733	1000.984	795.385
90.855	20.883	1000.127	795.318
91.870	20.883	999.880	795.050
92.884	20.929	998.794	794.329
93.899	20.906	997.558	793.170
94.914	20.744	996.420	791.457
95.928	20.830	996.323	791.701
96.943	20.908	994.829	790.797
97.957	20.571	993.831	788.406
98.972	20.462	992.318	786.641
99.987	20.250	991.690	785.119
101.001	20.307	991.147	784.875
102.016	20.663	990.316	785.758
103.030	20.698	989.359	785.084
104.045	20.617	988.262	783.781
105.060	20.443	987.244	782.121
106.074	20.330	986.230	780.738
107.089	20.317	985.866	780.321
108.103	20.724	985.412	781.722
109.118	20.899	984.178	781.461
110.133	20.585	982.706	778.818
111.147	20.540	981.853	777.869
112.162	20.347	980.978	776.243
113.176	20.172	979.631	774.329
114.191	20.335	978.870	774.386
115.206	20.428	978.231	774.227
116.220	20.213	976.693	771.984
117.235	20.103	975.990	770.869
118.249	20.156	975.312	770.501
119.264	20.223	974.436	770.038
120.279	20.112	973.435	768.690
121.293	19.965	973.018	767.638
122.308	20.233	972.412	768.280
123.322	20.130	971.500	767.036
124.337	20.115	970.355	765.998
125.352	20.090	968.773	764.571
126.366	19.667	967.544	761.672
127.381	19.446	965.625	759.122
128.395	19.985	965.842	761.597
129.410	20.558	965.125	763.477
130.424	20.666	964.568	763.447
131.439	20.657	963.014	762.108
132.454	20.632	961.981	761.112
133.468	20.545	961.573	760.343
134.483	20.541	960.511	759.418
135.497	20.469	959.981	758.616
136.512	20.814	959.193	759.431
137.527	20.873	958.318	758.928
138.541	20.901	957.485	758.323
139.556	20.967	956.846	758.040
140.570	20.851	956.151	756.918
141.585	20.901	955.351	756.434
142.600	20.917	954.406	755.689
143.614	20.755	953.654	754.323
144.629	20.870	953.076	754.296
145.643	21.208	952.306	755.082
146.658	21.044	950.825	753.136
147.673	20.988	949.336	751.648
148.687	20.841	948.547	750.320
149.702	20.594	947.884	748.669
150.716	20.606	946.689	747.711
151.731	20.539	945.874	746.714
152.746	20.675	944.765	746.352
153.760	20.823	944.623	746.812
154.775	20.992	943.744	746.772
155.789	21.090	942.690	746.294
156.804	21.027	941.546	745.052
157.819	20.949	940.667	743.957
158.833	20.941	939.913	743.261
159.848	21.061	939.463	743.352
160.862	21.189	938.481	743.055
161.877	21.023	937.376	741.406
162.892	21.023	936.556	740.694
163.906	21.145	935.965	740.679
164.921	20.990	935.605	739.670
165.935	21.013	934.017	738.446
166.950	21.055	933.063	737.805
167.964	21.069	932.219	737.130
168.979	20.878	931.200	735.453
169.994	20.899	930.137	734.639
171.008	20.815	929.169	733.453
172.023	20.867	928.781	733.304
173.037	21.086	927.639	733.256
174.052	20.905	926.718	731.701
175.067	20.747	925.377	729.917
176.081	20.776	924.894	729.594
177.096	20.799	923.894	728.834
178.110	20.665	923.599	727.977
179.125	20.657	922.317	726.870
180.140	20.397	921.135	724.789
181.154	20.438	920.385	724.306
182.169	20.578	920.000	724.523
183.183	20.801	919.850	725.269
184.198	20.934	919.694	725.634
185.213	20.991	918.643	724.979
186.227	20.855	918.097	723.919
187.242	20.964	917.403	723.760
188.256	20.992	916.383	723.008
189.271	20.973	915.700	722.326
190.286	21.231	914.887	722.689
191.300	21.083	913.937	721.263
192.315	20.654	912.318	718.149
193.329	19.848	911.355	714.003
194.344	19.558	910.205	711.846
195.359	20.077	910.505	714.156
196.373	20.884	910.702	717.570
197.388	21.043	910.479	717.985
198.402	20.869	909.678	716.578
199.417	20.874	908.835	715.868
200.432	20.920	908.619	715.824
201.446	20.760	907.716	714.393
202.461	20.450	907.027	712.518
203.475	20.559	906.527	712.506
204.490	20.108	904.991	709.392
205.504	19.009	902.967	703.252
206.519	19.472	903.600	705.575
207.534	20.337	903.654	709.090
208.548	20.613	902.431	709.194
209.563	20.943	902.475	710.511
210.577	20.876	902.125	709.901
211.592	20.774	900.599	708.223
212.607	20.995	900.915	709.307
213.621	21.202	900.217	709.536
214.636	20.963	899.801	708.173
215.650	21.184	898.983	708.365
216.665	20.957	898.351	706.882
217.680	21.101	897.789	706.961
218.694	21.188	897.345	706.901
219.709	20.856	896.291	704.667
220.723	20.396	895.617	702.213
221.738	20.501	895.188	702.241
222.753	20.884	894.244	702.985
223.767	20.786	893.568	701.995
224.782	20.999	892.758	702.153
225.796	21.105	892.647	702.432
226.811	21.247	891.682	702.183
227.826	20.750	890.843	699.460
228.840	19.960	889.234	694.965
229.855	19.931	888.600	694.291
230.869	20.295	888.131	695.324
231.884	19.860	887.277	692.854
232.899	19.964	886.776	692.816
233.913	20.810	887.076	696.375
234.928	21.019	886.311	696.546
235.942	20.937	885.716	695.689
236.957	20.923	885.063	695.061
237.972	20.577	884.271	692.997
238.986	20.507	883.449	692.015
240.001	20.587	882.807	691.769
241.015	20.634	882.182	691.404
242.030	20.539	881.806	690.668
243.045	20.933	880.954	691.506
244.059	20.827	880.903	690.983
245.074	21.039	880.201	691.211
246.088	21.019	879.306	690.369
247.103	20.546	878.445	687.760
248.117	20.525	878.057	687.314
249.132	21.261	877.671	689.856
250.147	21.586	877.640	691.054
251.161	21.578	877.015	690.471
252.176	21.608	876.689	690.270
253.190	21.687	876.046	690.016
254.205	21.735	875.622	689.809
255.220	21.910	875.088	690.014
256.234	21.960	874.038	689.325
257.249	21.750	873.798	688.248
258.263	21.643	873.210	687.304
259.278	21.703	872.474	686.901
260.293	21.778	871.909	686.688
261.307	21.909	871.320	686.676
262.322	21.855	870.114	685.455
263.336	21.673	869.583	684.264
264.351	21.154	868.201	681.092
265.366	19.962	866.427	674.995
266.380	19.575	865.721	672.876
267.395	20.570	865.970	676.886
268.409	21.345	865.897	679.785
269.424	21.217	865.708	679.081
270.439	21.558	865.172	679.923
271.453	21.736	863.842	679.508
272.468	21.472	863.900	678.472
273.482	21.775	863.260	679.081
274.497	21.982	862.772	679.438
275.512	21.563	861.787	676.984
276.526	21.005	860.746	673.952
277.541	21.254	860.224	674.445
278.555	21.519	860.211	675.397
279.570	21.265	859.666	673.928
280.585	21.276	858.107	672.689
281.599	21.442	857.738	672.980
282.614	21.566	857.253	673.016
283.628	21.054	856.160	670.133
284.643	20.692	855.301	668.011
285.657	21.197	855.163	669.781
286.672	20.952	854.579	668.327
287.687	20.575	853.238	665.775
288.701	20.998	853.532	667.564
289.716	21.214	853.625	668.406
290.730	20.845	852.581	666.119
291.745	20.796	851.902	665.340
292.760	20.543	850.943	663.566
293.774	20.555	849.890	662.735
294.789	21.518	850.616	666.915
295.803	22.175	850.432	669.213
296.818	22.093	850.292	668.732
297.833	22.093	849.823	668.302
298.847	21.743	848.780	666.094
299.862	21.674	847.621	664.864
300.876	21.677	847.640	664.832
301.891	22.003	846.718	665.283
302.906	22.068	845.910	664.838
303.920	21.691	844.977	662.620
304.935	21.508	844.288	661.327
305.949	21.975	843.915	662.740
306.964	22.068	843.516	662.719
307.979	21.810	842.685	661.035
308.993	21.780	842.613	660.808
310.008	22.158	841.876	661.596
311.022	22.265	841.829	661.901
312.037	22.100	840.958	660.540
313.052	21.844	840.491	659.153
314.066	21.779	839.289	657.905
315.081	21.197	837.771	654.477
316.095	20.427	836.977	650.913
317.110	20.862	837.639	653.002
318.125	21.814	837.594	656.477
319.139	21.419	835.992	653.688
320.154	20.170	834.866	648.084
321.168	19.904	833.717	646.138
322.183	20.443	833.866	648.210
323.197	21.366	834.314	651.946
324.212	21.659	833.696	652.497
325.227	21.778	833.637	652.836
326.241	21.934	832.881	652.767
327.256	21.850	832.403	652.022
328.270	21.755	831.613	650.992
329.285	21.737	831.218	650.558
330.300	21.642	830.377	649.492
331.314	21.221	829.850	647.463
332.329	21.346	829.055	647.246
333.343	21.705	829.071	648.529
334.358	21.972	828.311	648.866
335.373	21.856	827.982	648.122
336.387	21.986	827.259	647.980
337.402	22.256	826.762	648.528
338.416	22.548	826.153	649.068
339.431	22.278	825.435	647.453
340.446	22.286	825.570	647.533
341.460	22.443	824.911	647.536
342.475	22.485	824.105	646.998
343.489	22.271	823.350	645.563
344.504	22.356	822.924	645.483
345.519	22.577	822.207	645.674
346.533	22.797	822.300	646.497
347.548	22.843	821.823	646.231
348.562	22.714	821.335	645.318
349.577	22.730	820.800	644.901
350.592	22.840	820.044	644.652
351.606	22.760	819.745	644.066
352.621	22.699	819.321	643.453
353.635	22.514	818.978	642.453
354.650	22.585	817.925	641.829
355.665	22.075	817.393	639.498
356.679	21.111	815.405	634.384
357.694	21.084	815.137	634.019
358.708	21.696	815.078	636.141
359.723	21.645	814.512	635.459
360.738	21.815	814.135	635.724
361.752	22.424	813.879	637.675
362.767	22.361	813.966	637.460
363.781	22.677	813.416	638.115
364.796	23.051	813.133	639.191
365.810	23.050	812.681	638.775
366.825	23.149	812.643	639.045
367.840	23.070	812.531	638.615
368.854	23.010	811.351	637.416
369.869	22.544	810.709	635.174
370.883	22.387	809.828	633.862
371.898	22.437	809.678	633.869
372.913	22.432	808.865	633.159
373.927	22.444	808.046	632.504
374.942	22.595	807.769	632.774
375.956	22.595	807.042	632.150
376.971	22.655	806.854	632.159
377.986	22.759	806.402	632.124
379.000	22.975	805.909	632.453
380.015	23.069	805.123	632.118
381.029	22.918	804.566	631.084
382.044	22.860	803.681	630.127
383.059	22.975	803.565	630.393
384.073	23.044	803.247	630.332
385.088	23.097	802.715	630.045
386.102	23.067	802.210	629.489
387.117	22.983	801.456	628.543
388.132	22.680	800.930	626.998
389.146	22.603	800.096	626.015
390.161	21.991	799.390	623.234
391.175	22.111	799.355	623.578
392.190	22.701	798.846	625.218
393.205	22.678	798.313	624.666
394.219	21.641	796.816	619.770
395.234	20.276	794.340	612.973
396.248	19.497	793.613	609.604
397.263	20.639	794.536	614.297
398.278	22.286	795.888	621.109
399.292	22.699	795.680	622.348
400.307	22.447	794.877	620.778
401.321	22.487	794.275	620.392
402.336	22.414	794.149	619.981
403.350	22.746	794.089	621.049
404.365	23.178	793.772	622.265
405.380	23.203	793.991	622.469
406.394	23.634	793.536	623.572
407.409	23.928	792.736	623.920
408.423	23.669	792.477	622.755
409.438	23.495	792.072	621.770
410.453	23.647	791.570	621.853
411.467	23.717	791.289	621.821
412.482	23.692	790.714	621.227
413.496	23.630	790.134	620.499
414.511	23.854	789.492	620.724
415.526	23.791	789.512	620.464
416.540	23.641	789.218	619.654
417.555	23.618	788.425	618.899
418.569	23.205	788.047	617.107
419.584	23.409	787.262	617.147
420.599	23.404	786.741	616.668
421.613	156.822	1365.095	1798.181
422.628	135.657	1449.352	1798.282
