DTS Sentinel unit serial number:	SN413079Multiplexer serial number:	ORYXHardware model number:	OX4-SRSoftware version number:	ORYX F/W v4.00 Oryx Data Collector v3.7.2.0data status	okinstallation	princeton_trtdifferential loss correction	single-endedforward channel	channel 3reverse channel	N/Adate	2019/09/18time	15:48:35forward acquisition time	60.00reverse acquisition time	0.00gamma	496.2192k internal	0.2297k external	0.2297temperature offset calibration	0.9982default loss term (dB/km)	0.3790temperature slope calibration	1.0000multiplexer offset coefficient	1.0000multiplexer slope coefficient	1.0000fibre end	0.00T internal ref (°C)	36.56T ext. ref 1 (°C)	0.79T ext. ref 2 (°C)	34.38length (m)	temperature (°C)	Stokes	anti-Stokes-747.200	-14.849	-0.041	-0.027
-746.185	-200.000	-0.049	0.292
-745.171	219.542	-0.233	0.380
-744.156	800.000	0.053	-0.221
-743.142	93.535	-0.085	0.098
-742.127	193.610	-0.110	-0.170
-741.112	313.872	0.127	0.245
-740.098	397.598	0.043	0.092
-739.083	-110.853	0.353	0.074
-738.069	-200.000	0.038	-0.236
-737.054	-32.333	-0.094	-0.053
-736.039	-109.521	-0.321	0.069
-735.025	-174.449	0.146	-0.004
-734.010	20.113	-0.115	-0.094
-732.996	-16.141	0.188	-0.122
-731.981	-57.688	0.104	0.047
-730.966	-200.000	-0.005	0.277
-729.952	-48.279	0.167	0.082
-728.937	800.000	0.022	-0.079
-727.923	215.914	0.030	0.049
-726.908	-200.000	0.033	-0.183
-725.894	74.379	0.136	-0.146
-724.879	79.908	-0.318	-0.349
-723.864	63.810	-0.142	0.146
-722.850	-110.966	-0.301	0.063
-721.835	121.087	-0.360	-0.458
-720.821	-136.915	0.100	0.012
-719.806	-200.000	-0.039	0.294
-718.791	-175.621	-0.356	0.010
-717.777	-50.822	-0.404	0.194
-716.762	-200.000	-0.012	0.279
-715.748	172.924	0.135	-0.198
-714.733	428.355	-0.158	-0.348
-713.718	-200.000	0.046	-0.544
-712.704	-130.215	-0.146	0.020
-711.689	800.000	-0.146	-0.479
-710.675	-56.561	0.195	-0.088
-709.660	16.578	-0.129	-0.104
-708.645	-200.000	-0.030	-0.214
-707.631	56.724	0.139	-0.138
-706.616	-56.136	0.077	-0.035
-705.602	132.768	-0.105	-0.138
-704.587	37.317	0.131	-0.118
-703.572	14.494	-0.091	-0.072
-702.558	-165.696	0.208	-0.009
-701.543	96.804	0.215	-0.252
-700.529	2.840	-0.399	0.295
-699.514	-16.564	0.112	-0.072
-698.499	-97.929	0.166	-0.044
-697.485	-71.073	-0.201	0.077
-696.470	-52.157	0.433	0.205
-695.456	-200.000	0.032	-0.198
-694.441	-43.416	0.116	0.060
-693.426	75.532	0.079	-0.085
-692.412	-200.000	0.010	-0.165
-691.397	42.113	-0.022	-0.020
-690.383	-200.000	-0.061	-0.304
-689.368	-85.672	0.219	-0.069
-688.354	214.576	-0.082	0.133
-687.339	-145.990	0.178	-0.016
-686.324	71.807	0.172	-0.183
-685.310	800.000	0.083	-0.304
-684.295	-23.103	0.176	0.108
-683.281	-200.000	0.048	0.477
-682.266	-200.000	-0.049	0.241
-681.251	-124.051	-0.170	-0.027
-680.237	354.049	0.135	-0.273
-679.222	274.160	0.069	0.125
-678.208	-180.867	0.087	0.002
-677.193	800.000	0.065	0.229
-676.178	-31.298	-0.155	0.089
-675.164	-200.000	-0.044	0.332
-674.149	-200.000	-0.078	0.392
-673.135	-96.288	0.123	-0.033
-672.120	-138.072	0.326	-0.037
-671.105	27.082	-0.097	-0.083
-670.091	-53.254	-0.227	0.106
-669.076	800.000	0.076	-0.225
-668.062	-9.792	0.245	-0.166
-667.047	-9.319	-0.156	-0.106
-666.032	-200.000	-0.089	0.443
-665.018	257.952	0.096	-0.169
-664.003	127.232	-0.072	0.093
-662.989	38.690	-0.172	-0.157
-661.974	113.891	0.157	-0.195
-660.959	545.264	-0.060	0.147
-659.945	58.423	0.092	-0.092
-658.930	-200.000	0.045	-0.243
-657.916	80.653	-0.166	0.182
-656.901	-84.818	-0.139	-0.045
-655.886	-103.561	-0.232	0.055
-654.872	-65.033	0.403	-0.166
-653.857	-57.645	-0.152	-0.068
-652.843	-78.381	-0.134	-0.047
-651.828	800.000	0.016	-0.056
-650.814	800.000	-0.037	-0.138
-649.799	-64.012	0.127	0.053
-648.784	-194.872	-0.392	0.003
-647.770	-200.000	-0.049	0.258
-646.755	800.000	-0.065	0.209
-645.741	-155.275	-0.114	-0.008
-644.726	-200.000	-0.029	-0.186
-643.711	-89.483	-0.105	-0.031
-642.697	-90.087	-0.144	-0.043
-641.682	-44.991	0.087	0.044
-640.668	-70.310	-0.314	0.121
-639.653	-200.000	0.045	0.301
-638.638	3.583	0.308	-0.228
-637.624	-81.748	-0.252	0.084
-636.609	-200.000	-0.002	-0.274
-635.595	124.542	-0.042	0.053
-634.580	-200.000	-0.002	-0.248
-633.565	-200.000	0.017	-0.101
-632.551	19.653	-0.224	0.183
-631.536	800.000	-0.050	-0.167
-630.522	499.831	-0.085	-0.198
-629.507	103.772	-0.154	0.184
-628.492	800.000	0.042	0.138
-627.478	65.533	0.087	-0.090
-626.463	-200.000	0.016	0.234
-625.449	-200.000	0.026	0.132
-624.434	-45.861	-0.119	-0.060
-623.419	75.701	-0.078	0.083
-622.405	760.005	-0.064	0.175
-621.390	-109.334	-0.185	0.040
-620.376	800.000	-0.023	-0.088
-619.361	-95.403	0.175	-0.048
-618.346	-101.442	0.084	0.021
-617.332	-92.749	-0.213	0.061
-616.317	17.932	0.134	0.109
-615.303	-38.791	0.122	-0.065
-614.288	-42.075	-0.263	-0.137
-613.273	-63.082	0.136	0.057
-612.259	800.000	-0.061	-0.221
-611.244	127.053	0.159	-0.205
-610.230	800.000	-0.069	0.222
-609.215	592.117	-0.162	-0.406
-608.201	-200.000	0.001	-0.319
-607.186	-200.000	-0.035	-0.355
-606.171	-200.000	0.040	-0.289
-605.157	-66.820	-0.160	0.064
-604.142	-189.455	0.148	0.002
-603.128	800.000	0.075	0.289
-602.113	-23.171	0.225	-0.137
-601.098	-200.000	-0.088	-0.456
-600.084	426.633	-0.059	0.129
-599.069	-66.074	-0.055	-0.022
-598.055	38.757	0.047	-0.043
-597.040	76.477	0.047	-0.051
-596.025	275.413	-0.154	0.277
-595.011	317.288	0.062	-0.119
-593.996	126.645	-0.231	-0.297
-592.982	402.748	0.149	0.318
-591.967	-110.356	0.351	-0.074
-590.952	-65.483	0.363	0.148
-589.938	143.041	-0.205	0.277
-588.923	7.978	-0.079	0.060
-587.909	535.267	-0.136	-0.327
-586.894	29.620	-0.243	0.210
-585.879	800.000	-0.026	-0.084
-584.865	-141.353	0.093	-0.010
-583.850	404.027	0.035	0.074
-582.836	-45.110	-0.184	0.093
-581.821	-34.633	0.275	-0.153
-580.806	800.000	0.074	0.276
-579.792	151.602	-0.056	-0.077
-578.777	-200.000	-0.050	0.270
-577.763	-175.978	-0.073	-0.002
-576.748	-49.628	-0.205	0.099
-575.733	-91.788	-0.201	-0.058
-574.719	472.218	0.140	-0.321
-573.704	-110.738	0.218	-0.046
-572.690	89.370	0.167	-0.189
-571.675	418.528	-0.061	-0.132
-570.661	-77.096	0.101	0.036
-569.646	-107.089	-0.251	-0.056
-568.631	-200.000	-0.053	-0.330
-567.617	-127.376	0.186	0.027
-566.602	304.176	0.145	-0.272
-565.588	180.761	-0.166	-0.247
-564.573	17.471	-0.166	0.134
-563.558	-200.000	-0.030	-0.359
-562.544	497.415	0.078	0.181
-561.529	248.559	0.093	0.159
-560.515	257.348	-0.165	-0.288
-559.500	800.000	-0.014	-0.047
-558.485	800.000	0.018	0.077
-557.471	354.229	-0.170	-0.342
-556.456	334.506	0.086	0.168
-555.442	-200.000	-0.155	0.001
-554.427	-200.000	-0.001	-0.099
-553.412	356.591	-0.097	0.197
-552.398	-125.662	0.090	-0.014
-551.383	800.000	-0.064	-0.214
-550.369	-142.590	-0.140	-0.014
-549.354	-151.302	-0.345	0.026
-548.339	263.998	-0.191	0.337
-547.325	16.982	0.019	-0.015
-546.310	-200.000	-0.014	-0.245
-545.296	54.145	0.089	0.087
-544.281	53.697	0.125	-0.122
-543.266	19.591	0.187	-0.152
-542.252	-200.000	0.001	-0.137
-541.237	730.363	0.076	-0.205
-540.223	506.745	-0.144	0.338
-539.208	800.000	-0.139	0.482
-538.193	-80.976	-0.083	0.028
-537.179	603.608	-0.168	-0.423
-536.164	-2.965	-0.265	0.187
-535.150	27.431	0.259	0.221
-534.135	768.260	-0.120	-0.331
-533.121	-200.000	0.013	-0.138
-532.106	800.000	0.043	-0.123
-531.091	800.000	0.097	0.381
-530.077	515.112	-0.072	-0.169
-529.062	171.829	-0.109	0.159
-528.048	345.010	-0.061	0.122
-527.033	34.882	0.146	-0.129
-526.018	-200.000	0.110	0.560
-525.004	615.106	-0.071	0.179
-523.989	-24.428	-0.112	-0.068
-522.975	168.066	0.066	0.096
-521.960	652.168	-0.041	0.108
-520.945	48.314	0.284	0.269
-519.931	-200.000	0.013	0.275
-518.916	-25.772	0.154	-0.092
-517.902	-64.582	-0.154	-0.063
-516.887	15.132	0.125	0.099
-515.872	-200.000	0.003	-0.286
-514.858	179.484	-0.079	0.117
-513.843	-200.000	0.005	0.033
-512.829	46.885	0.129	-0.122
-511.814	-18.333	-0.203	-0.128
-510.799	-200.000	0.061	-0.483
-509.785	-200.000	-0.013	-0.124
-508.770	158.011	-0.073	0.103
-507.756	253.343	-0.105	-0.181
-506.741	209.047	0.202	0.320
-505.726	-200.000	0.022	-0.174
-504.712	-46.291	0.315	-0.157
-503.697	313.232	-0.121	-0.231
-502.683	-67.388	0.361	0.143
-501.668	-64.042	0.084	-0.035
-500.653	-147.055	-0.219	0.019
-499.639	483.930	-0.035	0.081
-498.624	800.000	-0.036	0.134
-497.610	82.401	0.116	0.127
-496.595	800.000	0.076	0.222
-495.581	800.000	0.040	-0.127
-494.566	-109.636	0.278	0.059
-493.551	-200.000	0.060	0.381
-492.537	-200.000	-0.012	-0.179
-491.522	-66.584	0.114	0.046
-490.508	341.596	0.034	-0.068
-489.493	-27.868	0.328	0.192
-488.478	13.004	-0.180	-0.141
-487.464	542.357	0.067	0.161
-486.449	-200.000	-0.039	0.197
-485.435	-200.000	0.276	0.000
-484.420	-200.000	0.037	-0.253
-483.405	-200.000	-0.040	0.349
-482.391	-102.587	-0.377	-0.091
-481.376	800.000	-0.031	0.118
-480.362	-200.000	-0.019	0.114
-479.347	-91.207	-0.204	0.059
-478.332	205.063	0.047	0.074
-477.318	29.465	0.165	-0.142
-476.303	800.000	-0.060	0.171
-475.289	400.180	-0.101	-0.213
-474.274	589.149	-0.111	0.277
-473.259	189.503	0.171	-0.259
-472.245	502.025	0.081	-0.188
-471.230	-138.759	0.245	-0.027
-470.216	-200.000	-0.009	0.098
-469.201	296.043	-0.145	-0.269
-468.186	-100.372	0.415	-0.104
-467.172	-96.415	0.125	0.033
-466.157	-101.612	-0.185	0.045
-465.143	106.403	0.179	0.214
-464.128	156.985	0.216	-0.302
-463.113	-200.000	0.028	-0.147
-462.099	-200.000	0.022	0.406
-461.084	-95.547	-0.278	0.075
-460.070	-69.023	-0.110	0.043
-459.055	-50.536	0.202	0.096
-458.040	-79.856	0.168	0.057
-457.026	-200.000	0.034	0.290
-456.011	-73.407	-0.277	0.102
-454.997	-176.198	-0.218	-0.006
-453.982	21.560	0.275	0.226
-452.968	-135.013	-0.297	-0.036
-451.953	-200.000	0.027	0.289
-450.938	-80.279	-0.071	-0.024
-449.924	-200.000	0.002	0.056
-448.909	216.911	-0.120	0.192
-447.895	-84.860	-0.208	0.066
-446.880	-200.000	0.047	-0.353
-445.865	-22.292	0.042	-0.025
-444.851	-47.763	0.142	0.069
-443.836	-101.844	0.153	-0.037
-442.822	-69.783	0.279	-0.107
-441.807	-56.519	-0.306	0.137
-440.792	-49.501	-0.238	0.115
-439.778	-105.211	0.079	-0.018
-438.763	-5.120	0.207	-0.144
-437.749	-173.208	0.121	-0.004
-436.734	-106.175	-0.214	-0.048
-435.719	-116.625	0.103	-0.019
-434.705	669.809	0.089	0.233
-433.690	199.885	-0.119	-0.185
-432.676	100.446	-0.141	-0.166
-431.661	-7.205	-0.121	-0.083
-430.646	165.088	-0.180	0.256
-429.632	-115.361	0.120	-0.023
-428.617	-200.000	-0.024	-0.125
-427.603	376.628	0.131	-0.269
-426.588	90.306	0.173	-0.196
-425.573	800.000	0.059	0.211
-424.559	58.271	-0.182	-0.180
-423.544	-155.851	-0.460	-0.030
-422.530	-124.378	0.171	-0.027
-421.515	-139.979	-0.064	0.007
-420.500	337.360	-0.085	0.167
-419.486	-83.007	0.192	-0.062
-418.471	-200.000	-0.010	-0.046
-417.457	125.933	0.036	-0.046
-416.442	-81.393	0.270	-0.090
-415.428	-147.044	0.504	-0.044
-414.413	-53.987	-0.119	-0.055
-413.398	800.000	-0.075	0.214
-412.384	-200.000	0.035	0.183
-411.369	-137.906	-0.486	-0.055
-410.355	40.783	0.179	0.163
-409.340	-125.535	-0.038	0.006
-408.325	-74.414	0.034	-0.012
-407.311	-200.000	0.002	-0.018
-406.296	-200.000	0.033	-0.299
-405.282	66.970	0.196	-0.201
-404.267	-125.492	0.191	-0.029
-403.252	13.765	-0.146	0.115
-402.238	-76.945	-0.226	0.080
-401.223	259.622	0.123	0.213
-400.209	-65.249	-0.043	-0.017
-399.194	-200.000	0.017	0.117
-398.179	318.362	0.111	-0.211
-397.165	800.000	0.061	-0.241
-396.150	419.484	-0.086	0.186
-395.136	352.877	0.126	-0.252
-394.121	-166.085	-0.132	0.006
-393.106	234.798	0.034	-0.056
-392.092	315.622	0.041	-0.077
-391.077	-200.000	-0.053	0.251
-390.063	-127.227	0.269	-0.040
-389.048	95.730	0.120	-0.138
-388.033	-106.887	-0.175	-0.039
-387.019	-200.000	0.025	-0.441
-386.004	-200.000	-0.034	-0.505
-384.990	-43.181	0.087	0.044
-383.975	800.000	0.127	-0.389
-382.960	-26.251	0.174	0.103
-381.946	-59.425	-0.106	0.046
-380.931	84.118	-0.260	-0.287
-379.917	-200.000	-0.002	0.221
-378.902	-142.376	-0.183	-0.018
-377.888	83.321	-0.046	0.050
-376.873	97.537	0.154	0.178
-375.858	-91.321	-0.170	-0.049
-374.844	148.647	0.103	0.140
-373.829	-62.692	-0.056	0.023
-372.815	27.780	0.175	-0.149
-371.800	-39.506	0.109	-0.057
-370.785	-104.809	-0.493	-0.114
-369.771	14.938	-0.061	0.048
-368.756	232.807	-0.026	-0.043
-367.742	60.544	-0.264	-0.264
-366.727	5.773	-0.097	0.072
-365.712	207.487	-0.163	0.256
-364.698	-11.182	-0.092	0.061
-363.683	683.116	-0.009	-0.023
-362.669	24.428	-0.233	0.194
-361.654	488.379	0.057	-0.131
-360.639	-61.172	0.144	-0.061
-359.625	143.664	0.095	0.127
-358.610	18.750	-0.022	-0.018
-357.596	-70.768	-0.294	0.112
-356.581	800.000	-0.058	0.181
-355.566	430.555	-0.198	-0.431
-354.552	800.000	-0.061	0.225
-353.537	-200.000	-0.004	0.129
-352.523	-53.730	-0.378	-0.174
-351.508	-200.000	-0.025	-0.249
-350.493	-143.037	0.166	0.016
-349.479	-144.337	0.177	-0.017
-348.464	800.000	-0.018	-0.063
-347.450	800.000	0.072	0.311
-346.435	-28.354	-0.086	0.050
-345.420	-142.133	-0.265	0.026
-344.406	-200.000	-0.029	-0.212
-343.391	-12.754	0.216	-0.142
-342.377	-84.861	-0.300	0.095
-341.362	99.972	-0.278	0.324
-340.348	-200.000	0.033	0.268
-339.333	29.984	0.219	0.187
-338.318	800.000	-0.116	-0.335
-337.304	-17.798	-0.230	0.145
-336.289	-15.737	-0.094	0.060
-335.275	-200.000	-0.013	-0.360
-334.260	-23.673	-0.215	0.129
-333.245	-55.009	0.091	-0.041
-332.231	587.985	-0.098	0.241
-331.216	454.950	-0.090	0.201
-330.202	-133.215	0.147	-0.019
-329.187	-171.516	0.365	0.012
-328.172	32.501	-0.192	-0.166
-327.158	-68.082	0.092	-0.036
-326.143	-200.000	0.065	-0.400
-325.129	603.457	-0.081	-0.202
-324.114	163.497	0.212	-0.299
-323.099	800.000	-0.095	0.376
-322.085	-101.348	0.128	-0.031
-321.070	0.675	0.483	0.347
-320.056	164.862	-0.113	0.160
-319.041	66.240	0.239	0.244
-318.026	-22.801	-0.139	0.084
-317.012	-61.218	0.093	-0.039
-315.997	-75.973	0.135	-0.048
-314.983	-200.000	-0.016	0.000
-313.968	-200.000	0.028	0.204
-312.953	-77.571	0.037	-0.013
-311.939	92.140	-0.202	0.228
-310.924	-200.000	-0.056	-0.248
-309.910	800.000	0.153	0.456
-308.895	36.023	0.097	-0.086
-307.880	-8.808	0.217	-0.146
-306.866	163.993	0.092	0.130
-305.851	22.960	-0.171	0.141
-304.837	800.000	0.022	-0.077
-303.822	119.268	-0.083	-0.103
-302.807	-38.758	-0.066	-0.035
-301.793	-132.830	0.203	-0.026
-300.778	-175.486	-0.157	-0.004
-299.764	666.955	-0.034	-0.088
-298.749	800.000	-0.073	-0.221
-297.735	299.159	0.090	-0.167
-296.720	-147.558	0.048	0.004
-295.705	800.000	0.036	-0.157
-294.691	-106.873	-0.180	-0.040
-293.676	-200.000	-0.026	-0.128
-292.662	-27.523	-0.130	0.076
-291.647	-118.895	0.298	-0.053
-290.632	-200.000	0.040	-0.205
-289.618	-28.699	-0.100	0.058
-288.603	-120.915	-0.451	-0.076
-287.589	-200.000	0.022	-0.326
-286.574	-200.000	0.070	-0.377
-285.559	-200.000	0.028	-0.284
-284.545	66.412	-0.378	0.385
-283.530	38.702	0.003	0.002
-282.516	-56.326	0.184	0.082
-281.501	-141.960	0.266	-0.027
-280.486	495.734	0.040	-0.092
-279.472	58.158	-0.134	0.132
-278.457	-130.651	-0.299	0.040
-277.443	-126.022	-0.125	0.019
-276.428	-156.146	0.413	0.026
-275.413	365.272	-0.132	-0.266
-274.399	-46.222	0.167	-0.083
-273.384	114.674	0.123	0.150
-272.370	-98.114	0.060	-0.015
-271.355	-124.040	0.250	-0.039
-270.340	-89.199	0.028	0.008
-269.326	-35.851	0.235	-0.128
-268.311	-77.290	0.202	0.070
-267.297	-200.000	-0.012	0.282
-266.282	26.123	0.054	0.045
-265.267	-200.000	-0.017	0.256
-264.253	20.247	0.186	0.150
-263.238	38.806	0.336	-0.301
-262.224	65.862	0.259	-0.263
-261.209	800.000	0.051	0.221
-260.195	19.348	-0.057	-0.046
-259.180	5.596	0.111	-0.082
-258.165	-115.683	0.109	-0.020
-257.151	800.000	-0.116	-0.383
-256.136	-58.467	0.092	0.040
-255.122	-125.064	0.183	-0.028
-254.107	157.507	0.052	0.073
-253.092	-200.000	-0.029	-0.153
-252.078	-43.042	-0.117	0.060
-251.063	119.684	-0.116	0.144
-250.049	-35.425	-0.022	-0.012
-249.034	-10.791	0.137	0.090
-248.019	-200.000	0.021	-0.245
-247.005	-107.204	-0.035	0.008
-245.990	275.244	0.060	-0.107
-244.976	162.206	0.131	-0.183
-243.961	504.793	0.056	0.129
-242.946	-82.217	-0.343	-0.112
-241.932	800.000	-0.030	-0.100
-240.917	488.288	0.081	0.186
-239.903	24.667	0.077	-0.064
-238.888	-200.000	-0.035	0.200
-237.873	-88.230	0.552	0.166
-236.859	-129.668	-0.290	0.040
-235.844	-200.000	0.028	-0.366
-234.830	-92.463	-0.364	0.102
-233.815	-73.437	-0.359	0.131
-232.800	-51.602	0.199	0.093
-231.786	341.851	-0.044	0.087
-230.771	-16.049	-0.210	0.133
-229.757	-200.000	0.024	-0.344
-228.742	-98.447	0.264	-0.068
-227.727	-172.141	-0.165	-0.005
-226.713	-61.967	0.097	0.041
-225.698	-193.798	0.139	-0.001
-224.684	174.311	-0.026	-0.037
-223.669	-124.734	-0.317	-0.049
-222.655	-68.670	0.132	0.051
-221.640	-59.030	-0.249	0.108
-220.625	-141.814	-0.105	-0.011
-219.611	117.798	-0.120	-0.148
-218.596	-136.416	-0.041	0.005
-217.582	75.514	0.104	0.110
-216.567	-200.000	0.005	0.201
-215.552	-14.161	0.357	0.230
-214.538	-112.987	0.314	0.062
-213.523	213.893	-0.168	-0.267
-212.509	26.064	-0.183	-0.153
-211.494	-76.831	0.178	-0.062
-210.479	-86.682	-0.081	-0.025
-209.465	-102.981	0.153	0.036
-208.450	38.288	-0.198	0.176
-207.436	-104.089	0.093	0.022
-206.421	-7.962	0.154	0.104
-205.406	-200.000	-0.026	0.119
-204.392	534.386	-0.122	0.290
-203.377	800.000	0.063	-0.208
-202.363	124.577	-0.049	0.061
-201.348	18.068	0.164	0.130
-200.333	-41.339	-0.079	-0.041
-199.319	-20.681	0.202	0.124
-198.304	-105.050	0.299	0.069
-197.290	-200.000	-0.078	-0.364
-196.275	-116.409	0.218	-0.040
-195.260	110.064	0.049	0.058
-194.246	800.000	-0.085	-0.282
-193.231	582.248	-0.079	0.193
-192.217	146.202	-0.180	-0.241
-191.202	331.314	0.017	-0.033
-190.187	34.801	0.126	0.110
-189.173	99.675	-0.186	-0.216
-188.158	781.129	0.084	0.229
-187.144	254.949	0.222	0.380
-186.129	800.000	0.048	0.141
-185.114	-64.648	-0.128	0.052
-184.100	-22.422	0.126	0.076
-183.085	-200.000	-0.017	0.264
-182.071	-200.000	0.031	-0.153
-181.056	800.000	-0.017	-0.056
-180.042	-156.992	0.145	0.009
-179.027	800.000	-0.097	0.287
-178.012	-118.310	-0.430	-0.076
-176.998	8.514	-0.129	0.097
-175.983	-122.023	0.059	0.010
-174.969	85.117	-0.198	0.217
-173.954	-14.581	-0.164	0.106
-172.939	-51.339	0.296	0.138
-171.925	376.708	0.163	0.332
-170.910	233.003	-0.095	0.156
-169.896	-20.214	0.213	-0.131
-168.881	-98.982	-0.166	0.042
-167.866	500.490	-0.116	0.267
-166.852	-134.564	-0.164	0.020
-165.837	384.909	0.166	0.341
-164.823	-29.367	0.211	-0.120
-163.808	-45.374	-0.235	-0.116
-162.793	800.000	0.066	-0.192
-161.779	-200.000	0.063	0.467
-160.764	-117.686	0.156	-0.028
-159.750	-200.000	0.003	0.044
-158.735	346.071	-0.068	-0.133
-157.720	-20.251	0.383	-0.236
-156.706	46.107	-0.110	0.102
-155.691	104.972	-0.044	0.052
-154.677	-140.970	0.184	-0.019
-153.662	-200.000	0.005	0.219
-152.647	-200.000	-0.030	0.150
-151.633	-200.000	0.002	-0.371
-150.618	-84.971	-0.182	-0.057
-149.604	-114.120	-0.142	-0.027
-148.589	-72.296	0.142	-0.052
-147.574	-66.830	-0.341	-0.134
-146.560	-200.000	0.006	0.108
-145.545	14.495	-0.060	-0.047
-144.531	-54.448	0.217	-0.098
-143.516	-49.455	-0.027	-0.013
-142.502	511.358	0.157	-0.364
-141.487	-144.401	-0.051	0.005
-140.472	-161.983	0.059	0.003
-139.458	-179.086	0.313	-0.007
-138.443	-72.644	0.167	-0.062
-137.429	229.280	-0.227	-0.369
-136.414	69.295	-0.140	0.144
-135.399	-7.992	-0.115	0.078
-134.385	-120.033	-0.141	-0.024
-133.370	-21.597	0.370	0.225
-132.356	-200.000	-0.019	0.357
-131.341	-82.545	0.141	-0.046
-130.326	800.000	0.046	-0.154
-129.312	800.000	0.053	-0.187
-128.297	-200.000	0.083	0.522
-127.283	259.382	0.114	0.196
-126.268	800.000	0.118	0.362
-125.253	39.016	-0.107	0.095
-124.239	108.391	0.232	-0.276
-123.224	-99.906	-0.389	-0.097
-122.210	800.000	-0.069	0.231
-121.195	188.085	-0.059	-0.088
-120.180	-115.012	-0.165	0.031
-119.166	335.729	0.128	-0.247
-118.151	-200.000	-0.032	0.209
-117.137	145.228	-0.132	0.176
-116.122	132.901	-0.075	0.097
-115.107	-200.000	-0.018	0.121
-114.093	503.389	-0.053	0.122
-113.078	-122.242	0.140	0.023
-112.064	28.339	0.122	0.102
-111.049	-200.000	-0.004	0.084
-110.034	-99.661	0.185	-0.046
-109.020	267.037	0.041	-0.072
-108.005	-200.000	0.009	-0.124
-106.991	423.931	-0.085	-0.183
-105.976	-16.299	0.271	-0.171
-104.962	20.919	-0.142	-0.115
-103.947	-96.220	0.386	0.102
-102.932	-77.308	0.204	-0.071
-101.918	163.175	0.090	-0.126
-100.903	49.238	0.091	0.085
-99.889	-111.936	0.061	0.012
-98.874	110.266	0.116	-0.139
-97.859	-67.279	0.148	-0.058
-96.845	9.828	0.158	0.119
-95.830	-200.000	-0.035	0.298
-94.816	-200.000	-0.038	0.393
-93.801	800.000	-0.068	0.207
-92.786	-200.000	-0.034	0.183
-91.772	-200.000	0.017	0.236
-90.757	-200.000	-0.020	0.129
-89.743	-200.000	0.039	0.220
-88.728	-200.000	-0.006	-0.174
-87.713	-85.479	0.064	-0.020
-86.699	-5.457	-0.118	0.081
-85.684	-3.866	-0.242	0.168
-84.670	59.612	0.298	-0.293
-83.655	710.075	-0.101	-0.265
-82.640	-200.000	0.008	-0.065
-81.626	99.014	-0.141	0.162
-80.611	43.529	0.161	-0.146
-79.597	123.810	0.086	-0.107
-78.582	-110.836	0.143	-0.029
-77.567	-34.044	0.036	-0.020
-76.553	206.252	0.303	0.469
-75.538	231.815	0.145	0.237
-74.524	9.463	0.269	-0.202
-73.509	739.949	0.070	-0.187
-72.494	23.130	0.257	-0.210
-71.480	6.500	-0.217	0.160
-70.465	175.706	0.229	0.331
-69.451	656.432	0.139	0.356
-68.436	-91.065	0.340	0.097
-67.422	108.197	-0.074	-0.088
-66.407	-200.000	0.000	-0.044
-65.392	342.099	0.183	0.356
-64.378	-200.000	0.012	-0.108
-63.363	800.000	-0.090	-0.266
-62.349	-138.503	0.194	-0.021
-61.334	4.119	-1.262	-0.918
-60.319	88.226	0.313	0.346
-59.305	127.841	-0.487	-0.615
-58.290	374.808	0.408	0.827
-57.276	800.000	0.520	1.776
-56.261	-200.000	89.362	499.877
-55.246	429.575	1425.855	3065.932
-54.232	141.556	2638.992	3474.726
-53.217	107.817	2261.247	2677.885
-52.203	46.027	1775.998	1634.398
-51.188	39.468	1577.673	1405.239
-50.173	37.079	1549.134	1363.002
-49.159	53.793	1595.039	1522.906
-48.144	57.296	1615.696	1567.591
-47.130	40.103	1573.087	1405.441
-46.115	36.756	1557.361	1367.737
-45.100	36.713	1553.862	1364.305
-44.086	36.638	1551.692	1361.820
-43.071	36.532	1549.778	1359.342
-42.057	36.523	1547.879	1357.558
-41.042	36.529	1546.362	1356.217
-40.027	36.532	1545.605	1355.522
-39.013	36.562	1543.952	1354.223
-37.998	36.541	1542.410	1352.675
-36.984	36.610	1541.341	1352.167
-35.969	36.416	1540.150	1349.710
-34.954	36.569	1538.125	1348.950
-33.940	36.601	1536.696	1347.868
-32.925	36.559	1536.023	1346.932
-31.911	36.543	1534.533	1345.458
-30.896	36.690	1532.951	1345.038
-29.881	36.647	1531.422	1343.344
-28.867	36.701	1529.805	1342.250
-27.852	36.616	1528.833	1340.750
-26.838	36.641	1527.067	1339.322
-25.823	36.629	1525.350	1337.682
-24.809	36.512	1524.353	1335.946
-23.794	36.589	1522.553	1334.845
-22.779	36.578	1521.593	1333.878
-21.765	36.560	1520.385	1332.640
-20.750	36.691	1518.237	1331.609
-19.736	36.550	1517.864	1330.255
-18.721	36.560	1516.677	1329.231
-17.706	36.595	1515.511	1328.397
-16.692	36.545	1514.574	1327.178
-15.677	36.549	1513.527	1326.236
-14.663	36.641	1512.233	1325.683
-13.648	36.486	1511.454	1323.884
-12.633	36.645	1510.307	1323.915
-11.619	36.545	1509.248	1322.249
-10.604	36.413	1508.774	1320.878
-9.590	36.522	1507.855	1320.767
-8.575	36.483	1506.773	1319.501
-7.560	36.474	1505.955	1318.670
-6.546	36.545	1505.083	1318.343
-5.531	36.554	1503.884	1317.297
-4.517	36.406	1503.539	1315.935
-3.502	36.488	1502.067	1315.155
-2.487	36.526	1500.543	1314.023
-1.473	36.489	1499.834	1313.099
-0.458	36.576	1498.201	1312.209
0.556	35.839	1490.046	1304.392
1.571	33.820	1463.758	1267.805
2.586	30.310	1398.993	1189.155
3.600	27.468	1311.030	1097.192
4.615	24.828	1260.854	1039.792
5.629	20.506	1201.766	966.984
6.644	10.407	1111.077	841.721
7.659	2.440	1065.528	767.321
8.673	0.973	1059.616	755.683
9.688	0.653	1056.844	752.046
10.702	0.754	1055.168	751.290
11.717	0.760	1053.210	749.856
12.731	3.331	1056.257	764.735
13.746	11.776	1068.347	815.679
14.761	17.535	1074.919	849.428
15.775	17.666	1074.041	849.312
16.790	16.956	1072.157	844.214
17.804	15.926	1069.765	837.139
18.819	15.138	1068.329	832.027
19.834	14.602	1067.112	828.349
20.848	14.207	1065.588	825.132
21.863	14.071	1064.574	823.604
22.877	13.796	1064.180	821.860
23.892	13.550	1063.448	820.009
24.907	13.474	1062.319	818.689
25.921	13.422	1061.486	817.714
26.936	13.400	1060.532	816.801
27.950	13.488	1060.270	816.961
28.965	13.536	1059.164	816.271
29.980	13.655	1058.351	816.161
30.994	13.811	1057.409	816.127
32.009	13.723	1056.430	814.870
33.023	13.711	1055.869	814.306
34.038	13.837	1054.979	814.162
35.053	13.798	1053.859	813.035
36.067	13.677	1053.112	811.799
37.082	13.658	1052.395	811.081
38.096	13.671	1051.715	810.548
39.111	13.727	1050.766	810.015
40.126	13.721	1050.167	809.453
41.140	13.534	1049.311	807.811
42.155	13.650	1047.867	807.193
43.169	13.656	1046.373	806.001
44.184	13.516	1045.817	804.819
45.199	13.488	1044.905	803.910
46.213	13.509	1043.920	803.184
47.228	13.460	1043.093	802.241
48.242	13.537	1041.921	801.638
49.257	13.598	1040.906	801.084
50.271	13.542	1039.658	799.780
51.286	13.591	1039.242	799.625
52.301	13.599	1038.364	798.919
53.315	13.578	1037.365	797.979
54.330	13.671	1036.620	797.781
55.344	13.636	1035.693	796.827
56.359	13.624	1034.363	795.678
57.374	13.447	1033.821	794.344
58.388	13.552	1032.649	793.874
59.403	13.567	1031.966	793.350
60.417	13.465	1031.495	792.430
61.432	13.532	1030.619	792.007
62.447	13.494	1029.454	790.863
63.461	13.449	1029.017	790.238
64.476	13.465	1027.920	789.406
65.490	13.437	1026.971	788.474
66.505	13.443	1026.130	787.783
67.520	13.475	1025.280	787.213
68.534	13.502	1024.666	786.800
69.549	13.590	1023.660	786.377
70.563	13.501	1022.979	785.365
71.578	13.412	1022.451	784.467
72.593	13.470	1021.394	783.862
73.607	13.349	1020.712	782.697
74.622	13.390	1019.665	782.017
75.636	13.518	1018.639	781.766
76.651	13.424	1017.806	780.612
77.666	13.446	1017.145	780.140
78.680	13.374	1016.242	779.040
79.695	13.405	1015.738	778.733
80.709	13.317	1015.502	778.066
81.724	13.499	1014.700	778.238
82.739	13.432	1013.926	777.262
83.753	13.477	1012.738	776.494
84.768	13.473	1012.234	776.022
85.782	13.542	1011.444	775.670
86.797	13.667	1010.537	775.487
87.812	13.563	1009.924	774.465
88.826	13.642	1008.826	773.923
89.841	13.542	1008.011	772.761
90.855	13.622	1007.286	772.511
91.870	13.629	1006.412	771.803
92.884	13.592	1005.646	770.979
93.899	13.686	1004.750	770.658
94.914	13.801	1003.532	770.193
95.928	13.614	1003.654	769.348
96.943	13.721	1002.312	768.749
97.957	13.650	1002.026	768.130
98.972	13.749	1000.992	767.730
99.987	13.675	1000.197	766.709
101.001	13.635	999.795	766.146
102.016	13.603	998.755	765.136
103.030	13.575	997.706	764.134
104.045	13.488	996.939	763.079
105.060	13.590	995.956	762.727
106.074	13.524	995.038	761.654
107.089	13.476	994.162	760.697
108.103	13.472	993.365	760.002
109.118	13.531	992.307	759.392
110.133	13.630	991.158	758.903
111.147	13.474	990.773	757.824
112.162	13.566	989.524	757.225
113.176	13.512	988.776	756.337
114.191	13.545	988.406	756.137
115.206	13.661	987.081	755.584
116.220	13.576	986.172	754.435
117.235	13.642	985.533	754.183
118.249	13.630	984.473	753.249
119.264	13.635	983.941	752.799
120.279	13.561	983.052	751.717
121.293	13.506	982.291	750.820
122.308	13.569	981.381	750.343
123.322	13.635	980.358	749.792
124.337	13.564	979.709	748.909
125.352	13.375	978.857	747.338
126.366	13.447	977.523	746.577
127.381	13.550	976.474	746.172
128.395	13.505	975.487	745.152
129.410	13.580	974.525	744.686
130.424	13.503	973.944	743.832
131.439	13.603	972.660	743.231
132.454	13.556	972.165	742.577
133.468	13.551	971.173	741.732
134.483	13.678	970.570	741.777
135.497	13.668	969.577	740.904
136.512	13.683	969.084	740.532
137.527	13.689	968.146	739.776
138.541	13.699	966.956	738.846
139.556	13.622	966.695	738.236
140.570	13.678	965.808	737.745
141.585	13.653	965.085	737.014
142.600	13.817	964.346	737.113
143.614	13.775	963.476	736.198
144.629	13.741	962.802	735.467
145.643	13.793	962.076	735.077
146.658	13.762	961.385	734.345
147.673	13.752	960.479	733.543
148.687	13.641	959.434	732.193
149.702	13.715	958.428	731.685
150.716	13.588	957.759	730.551
151.731	13.581	956.981	729.863
152.746	13.675	956.004	729.466
153.760	13.696	955.343	728.988
154.775	13.597	954.845	728.108
155.789	13.608	953.799	727.294
156.804	13.656	952.987	726.821
157.819	13.774	952.510	726.910
158.833	13.759	951.865	726.289
159.848	13.912	950.716	726.017
160.862	13.870	950.330	725.475
161.877	13.866	950.048	725.178
162.892	13.848	948.901	724.158
163.906	13.823	947.880	723.208
164.921	13.708	947.332	722.225
165.935	13.660	946.276	721.146
166.950	13.845	945.306	721.146
167.964	13.785	944.410	720.138
168.979	13.822	943.149	719.275
169.994	13.832	942.151	718.494
171.008	13.783	941.764	717.923
172.023	13.909	940.520	717.455
173.037	13.985	939.870	717.227
174.052	14.017	938.929	716.582
175.067	13.807	939.064	715.717
176.081	13.942	937.975	715.404
177.096	13.900	937.142	714.524
178.110	13.980	936.155	714.052
179.125	13.938	935.441	713.265
180.140	13.956	934.471	712.539
181.154	13.982	933.886	712.138
182.169	13.946	933.351	711.515
183.183	14.030	932.657	711.284
184.198	13.977	932.146	710.604
185.213	14.052	931.332	710.240
186.227	14.099	930.585	709.809
187.242	14.076	930.264	709.403
188.256	14.138	929.496	709.019
189.271	14.115	928.822	708.342
190.286	14.121	927.723	707.469
191.300	14.057	927.506	706.970
192.315	14.041	926.239	705.872
193.329	14.030	925.533	705.226
194.344	13.885	925.408	704.452
195.359	14.031	924.797	704.545
196.373	14.123	923.759	704.080
197.388	14.026	923.529	703.434
198.402	14.113	922.999	703.336
199.417	14.220	922.521	703.358
200.432	14.183	922.273	702.952
201.446	14.347	921.259	702.808
202.461	14.194	921.254	702.097
203.475	14.452	920.509	702.555
204.490	14.427	919.577	701.678
205.504	14.128	919.372	700.199
206.519	14.217	918.388	699.761
207.534	14.407	917.612	699.907
208.548	14.501	916.280	699.222
209.563	14.292	915.902	697.999
210.577	14.298	915.407	697.583
211.592	14.420	915.085	697.787
212.607	14.436	913.906	696.893
213.621	14.445	913.563	696.607
214.636	14.487	912.620	696.000
215.650	14.364	912.378	695.243
216.665	14.564	911.423	695.288
217.680	14.523	910.969	694.708
218.694	14.471	910.592	694.144
219.709	14.519	909.361	693.344
220.723	14.592	909.285	693.526
221.738	14.629	908.465	692.993
222.753	14.531	907.774	691.998
223.767	14.500	907.118	691.308
224.782	14.653	906.058	691.074
225.796	14.793	905.233	690.961
226.811	14.564	905.410	690.089
227.826	14.681	904.107	689.519
228.840	14.687	903.568	689.072
229.855	14.628	902.805	688.183
230.869	14.488	902.774	687.524
231.884	14.635	901.758	687.292
232.899	14.589	901.421	686.788
233.913	14.774	900.249	686.595
234.928	14.652	899.567	685.512
235.942	14.628	898.838	684.798
236.957	14.644	897.811	684.020
237.972	14.666	897.755	684.007
238.986	14.634	896.983	683.228
240.001	14.734	895.944	682.782
241.015	14.661	895.383	681.997
242.030	14.661	895.157	681.763
243.045	14.741	894.240	681.334
244.059	14.913	893.395	681.330
245.074	14.857	892.847	680.623
246.088	14.855	892.529	680.314
247.103	14.786	892.214	679.731
248.117	15.047	890.988	679.795
249.132	14.772	890.814	678.489
250.147	14.689	890.411	677.784
251.161	15.007	889.275	678.149
252.176	15.008	888.736	677.682
253.190	15.039	887.931	677.132
254.205	15.044	887.581	676.826
255.220	15.190	886.744	676.717
256.234	14.993	886.195	675.443
257.249	15.082	885.658	675.334
258.263	15.171	884.837	675.005
259.278	15.168	884.191	674.442
260.293	15.083	883.983	673.881
261.307	15.153	883.457	673.702
262.322	15.258	882.608	673.417
263.336	15.361	881.748	673.116
264.351	15.353	881.086	672.518
265.366	15.350	880.829	672.251
266.380	15.418	879.680	671.587
267.395	15.271	879.416	670.737
268.409	15.169	879.011	669.960
269.424	15.285	877.790	669.433
270.439	15.198	877.604	668.885
271.453	15.311	876.571	668.488
272.468	15.385	875.809	668.146
273.482	15.227	875.135	666.943
274.497	15.319	874.716	666.929
275.512	15.282	874.151	666.291
276.526	15.256	873.629	665.732
277.541	15.392	872.569	665.405
278.555	15.484	871.897	665.197
279.570	15.412	871.374	664.456
280.585	15.514	871.010	664.523
281.599	15.521	870.622	664.197
282.614	15.539	869.621	663.445
283.628	15.404	869.145	662.488
284.643	15.514	868.438	662.326
285.657	15.501	868.184	662.024
286.672	15.724	867.010	661.946
287.687	15.513	866.931	660.996
288.701	15.651	866.402	661.079
289.716	15.573	865.807	660.259
290.730	15.601	865.207	659.852
291.745	15.771	864.526	659.942
292.760	15.618	863.902	658.807
293.774	15.645	863.381	658.457
294.789	15.734	862.571	658.131
295.803	15.699	862.166	657.628
296.818	15.777	861.352	657.251
297.833	15.701	860.769	656.454
298.847	15.733	859.927	655.877
299.862	15.706	859.654	655.505
300.876	15.685	858.890	654.781
301.891	15.872	857.824	654.640
302.906	15.827	857.344	654.040
303.920	15.929	856.589	653.803
304.935	15.772	856.270	652.891
305.949	15.856	855.775	652.781
306.964	15.935	854.667	652.184
307.979	15.934	854.447	651.958
308.993	15.887	853.871	651.279
310.008	15.982	853.328	651.173
311.022	15.984	853.035	650.899
312.037	15.920	852.636	650.289
313.052	15.850	852.236	649.657
314.066	15.899	850.912	648.780
315.081	15.896	850.220	648.182
316.095	15.864	850.017	647.845
317.110	15.942	849.347	647.579
318.125	16.048	848.882	647.575
319.139	16.123	848.247	647.319
320.154	16.124	847.880	646.989
321.168	15.999	847.051	645.818
322.183	16.029	846.525	645.476
323.197	16.043	846.308	645.307
324.212	16.142	845.262	644.828
325.227	16.156	844.825	644.494
326.241	16.183	844.566	644.341
327.256	15.986	843.990	643.093
328.270	16.108	843.541	643.160
329.285	16.175	842.615	642.653
330.300	16.126	842.252	642.130
331.314	16.135	841.591	641.605
332.329	16.112	841.198	641.160
333.343	16.217	840.727	641.145
334.358	16.170	840.008	640.361
335.373	16.236	839.262	639.987
336.387	16.173	839.027	639.510
337.402	16.304	838.563	639.598
338.416	16.345	837.817	639.127
339.431	16.354	836.977	638.461
340.446	16.203	836.891	637.771
341.460	16.327	836.207	637.662
342.475	16.464	835.595	637.656
343.489	16.414	834.784	636.793
344.504	16.513	834.261	636.707
345.519	16.511	833.841	636.326
346.533	16.706	832.935	636.310
347.548	16.738	832.369	635.940
348.562	16.552	832.239	635.088
349.577	16.547	831.802	634.679
350.592	16.480	831.247	633.947
351.606	16.616	830.439	633.786
352.621	16.506	830.378	633.269
353.635	16.534	829.963	633.004
354.650	16.547	829.661	632.764
355.665	16.621	829.056	632.525
356.679	16.541	828.573	631.800
357.694	16.460	828.288	631.225
358.708	16.579	827.680	631.151
359.723	16.601	827.153	630.775
360.738	16.627	826.343	630.198
361.752	16.666	826.019	630.038
362.767	16.709	825.571	629.801
363.781	16.769	824.931	629.482
364.796	16.714	824.604	628.974
365.810	16.705	824.351	628.691
366.825	16.823	823.701	628.577
367.840	16.881	823.449	628.542
368.854	16.968	822.900	628.390
369.869	16.749	822.551	627.257
370.883	16.825	822.111	627.147
371.898	16.917	821.465	626.939
372.913	16.909	820.793	626.341
373.927	17.058	819.740	626.032
374.942	16.961	819.356	625.327
375.956	17.066	818.857	625.279
376.971	17.030	818.428	624.763
377.986	17.097	817.769	624.451
379.000	17.123	817.104	623.984
380.015	16.983	816.898	623.255
381.029	17.062	816.096	622.880
382.044	17.127	815.815	622.846
383.059	16.963	815.521	621.967
384.073	17.079	814.935	621.891
385.088	17.243	814.002	621.722
386.102	16.972	813.660	620.413
387.117	17.137	813.163	620.584
388.132	17.157	812.570	620.149
389.146	17.027	812.273	619.392
390.161	17.155	811.764	619.419
391.175	17.085	811.701	619.059
392.190	17.200	811.068	618.940
393.205	17.167	810.592	618.402
394.219	17.200	810.295	618.241
395.234	17.132	809.828	617.582
396.248	17.311	808.897	617.468
397.263	17.226	808.604	616.881
398.278	17.126	808.162	616.128
399.292	17.213	807.484	615.872
400.307	17.124	807.129	615.224
401.321	17.215	806.986	615.389
402.336	17.242	806.458	615.032
403.350	17.346	805.756	614.817
404.365	17.198	805.777	614.241
405.380	17.381	804.919	614.196
406.394	17.467	804.511	614.140
407.409	17.478	803.997	613.733
408.423	17.583	803.808	613.914
409.438	17.657	803.063	613.558
410.453	17.515	802.736	612.740
411.467	17.665	802.374	612.950
412.482	17.475	802.070	611.982
413.496	17.602	801.347	611.830
414.511	17.592	801.135	611.578
415.526	17.570	800.854	611.233
416.540	17.429	800.395	610.321
417.555	17.656	799.881	610.688
418.569	17.703	799.281	610.344
419.584	17.679	798.994	609.986
420.599	17.736	798.167	609.504
421.613	100.574	1280.249	1426.769
422.628	86.157	1350.509	1426.862
