DTS Sentinel unit serial number:	SN413079Multiplexer serial number:	ORYXHardware model number:	OX4-SRSoftware version number:	ORYX F/W v4.00 Oryx Data Collector v3.7.2.0data status	okinstallation	princeton_trtdifferential loss correction	single-endedforward channel	channel 3reverse channel	N/Adate	2019/09/13time	16:16:35forward acquisition time	60.00reverse acquisition time	0.00gamma	496.2192k internal	0.2302k external	0.2302temperature offset calibration	1.0143default loss term (dB/km)	0.3790temperature slope calibration	1.0000multiplexer offset coefficient	1.0000multiplexer slope coefficient	1.0000fibre end	0.00T internal ref (°C)	34.87T ext. ref 1 (°C)	4.86T ext. ref 2 (°C)	31.59length (m)	temperature (°C)	Stokes	anti-Stokes-747.200	-200.000	-0.016	-0.251
-746.185	142.564	0.078	0.105
-745.171	-150.073	0.140	0.011
-744.156	319.391	-0.184	0.355
-743.142	209.203	0.247	0.394
-742.127	-200.000	0.024	0.338
-741.112	-61.288	0.102	-0.044
-740.098	109.111	0.145	-0.176
-739.083	80.423	0.073	-0.080
-738.069	-126.062	0.260	0.040
-737.054	-81.261	0.087	-0.029
-736.039	518.768	-0.095	0.226
-735.025	80.474	0.296	0.325
-734.010	-27.239	-0.182	-0.108
-732.996	-200.000	-0.018	-0.231
-731.981	261.772	-0.225	-0.398
-730.966	-111.000	0.270	-0.057
-729.952	-200.000	-0.022	0.242
-728.937	61.983	-0.203	0.206
-727.923	672.799	0.037	0.099
-726.908	411.697	0.116	-0.251
-725.894	393.219	-0.048	0.101
-724.879	800.000	-0.044	-0.166
-723.864	-111.039	-0.257	-0.054
-722.850	800.000	-0.017	-0.072
-721.835	-75.381	0.141	-0.051
-720.821	-200.000	-0.009	-0.197
-719.806	157.578	0.253	-0.357
-718.791	-200.000	-0.022	0.232
-717.777	800.000	-0.024	-0.104
-716.762	-121.801	-0.055	0.009
-715.748	187.546	0.110	-0.167
-714.733	58.139	-0.126	0.126
-713.718	-141.195	-0.316	0.033
-712.704	-200.000	-0.000	-0.283
-711.689	-102.659	-0.360	-0.087
-710.675	-123.423	0.028	-0.004
-709.660	-92.633	0.100	0.029
-708.645	378.450	-0.038	-0.080
-707.631	-200.000	-0.045	0.219
-706.616	-79.403	-0.286	0.098
-705.602	-8.857	0.212	-0.145
-704.587	-52.715	-0.149	-0.070
-703.572	-92.146	-0.085	-0.024
-702.558	-57.696	0.176	-0.078
-701.543	-41.544	-0.254	-0.133
-700.529	246.894	-0.087	-0.149
-699.514	-30.953	-0.089	0.051
-698.499	-60.236	0.036	0.016
-697.485	-59.409	-0.198	-0.087
-696.470	42.331	-0.161	-0.148
-695.456	26.201	-0.137	-0.117
-694.441	-200.000	0.004	-0.065
-693.426	141.645	0.167	-0.225
-692.412	-66.173	-0.263	0.106
-691.397	-77.935	-0.199	-0.070
-690.383	144.876	0.058	-0.078
-689.368	-200.000	-0.021	-0.108
-688.354	800.000	-0.017	0.052
-687.339	627.547	-0.032	-0.082
-686.324	-200.000	-0.000	-0.425
-685.310	-200.000	0.049	0.235
-684.295	213.117	-0.120	0.192
-683.281	-101.969	-0.338	-0.083
-682.266	-38.658	-0.124	0.067
-681.251	-44.039	-0.155	-0.079
-680.237	-46.529	0.226	-0.113
-679.222	328.868	-0.215	-0.420
-678.208	494.294	-0.041	0.096
-677.193	320.749	-0.098	0.190
-676.178	20.234	-0.145	0.119
-675.164	-200.000	0.030	-0.453
-674.149	-31.082	-0.210	-0.120
-673.135	800.000	0.068	-0.223
-672.120	-180.668	0.337	-0.007
-671.105	-121.960	-0.417	-0.070
-670.091	199.577	-0.148	-0.231
-669.076	28.749	0.133	0.115
-668.062	80.490	-0.005	-0.006
-667.047	61.776	-0.196	-0.198
-666.032	800.000	0.081	-0.264
-665.018	-46.396	-0.268	-0.133
-664.003	-200.000	-0.037	-0.311
-662.989	-200.000	-0.039	-0.211
-661.974	424.179	0.108	0.235
-660.959	172.678	0.181	0.264
-659.945	194.129	0.088	0.135
-658.930	-89.385	-0.234	0.070
-657.916	-83.648	-0.145	-0.047
-656.901	-181.259	0.127	0.003
-655.886	510.080	-0.004	0.010
-654.872	-6.074	-0.233	-0.161
-653.857	-53.686	0.261	0.121
-652.843	-200.000	-0.018	-0.370
-651.828	70.000	-0.150	-0.157
-650.814	9.268	0.075	-0.058
-649.799	-92.329	-0.071	-0.020
-648.784	385.861	0.113	0.236
-647.770	-21.446	-0.264	0.163
-646.755	-107.944	-0.064	0.014
-645.741	800.000	-0.011	0.049
-644.726	267.663	-0.075	-0.133
-643.711	432.107	0.037	0.081
-642.697	-13.028	-0.145	0.095
-641.682	328.119	0.245	-0.477
-640.668	111.014	-0.019	0.023
-639.653	5.548	0.268	0.201
-638.638	668.814	-0.078	0.205
-637.624	321.392	0.145	-0.279
-636.609	-200.000	0.024	-0.407
-635.595	154.116	-0.062	0.086
-634.580	-78.615	0.128	-0.044
-633.565	132.009	0.220	-0.287
-632.551	-200.000	0.004	0.244
-631.536	-49.956	-0.242	-0.117
-630.522	197.865	-0.166	0.258
-629.507	42.567	0.157	-0.145
-628.492	120.456	0.235	0.296
-627.478	800.000	0.101	0.298
-626.463	-166.454	-0.164	-0.007
-625.449	111.990	-0.098	-0.120
-624.434	-142.120	-0.182	-0.018
-623.419	-17.449	0.341	0.218
-622.405	-137.445	0.110	0.013
-621.390	13.230	-0.185	-0.145
-620.376	-126.611	-0.176	-0.027
-619.361	-39.095	-0.394	-0.210
-618.346	-13.598	0.042	0.028
-617.332	8.625	-0.123	-0.094
-616.317	146.962	0.206	0.281
-615.303	-94.883	-0.275	-0.075
-614.288	800.000	-0.030	-0.112
-613.273	-63.936	-0.105	-0.044
-612.259	316.305	0.123	-0.235
-611.244	-97.839	-0.532	0.139
-610.230	-200.000	-0.021	0.175
-609.215	88.414	-0.183	-0.206
-608.201	-16.446	0.398	-0.256
-607.186	-177.288	0.102	-0.003
-606.171	13.441	0.263	-0.206
-605.157	-109.808	-0.493	-0.105
-604.142	167.282	-0.042	-0.061
-603.128	-57.123	0.139	-0.062
-602.113	268.633	0.105	-0.187
-601.098	125.398	0.279	-0.357
-600.084	250.977	0.052	-0.090
-599.069	-50.844	0.334	0.159
-598.055	-45.261	-0.076	-0.038
-597.040	-83.888	0.146	0.047
-596.025	-200.000	0.006	0.110
-595.011	97.327	0.212	0.246
-593.996	-59.253	-0.407	0.178
-592.982	-200.000	-0.009	0.202
-591.967	52.087	-0.095	0.091
-590.952	27.367	0.139	0.118
-589.938	259.110	0.060	0.105
-588.923	-35.473	0.266	0.146
-587.909	-135.077	-0.086	-0.011
-586.894	-111.984	0.226	0.046
-585.879	-3.903	0.151	0.106
-584.865	800.000	-0.018	0.068
-583.850	-86.722	-0.214	-0.066
-582.836	800.000	0.098	0.368
-581.821	396.617	-0.218	0.460
-580.806	683.360	0.088	0.231
-579.792	606.704	-0.109	0.276
-578.777	-200.000	0.013	-0.331
-577.763	146.291	-0.207	-0.281
-576.748	-200.000	-0.007	0.034
-575.733	597.529	-0.045	0.112
-574.719	307.873	-0.095	0.179
-573.704	-200.000	-0.045	-0.210
-572.690	-200.000	0.027	-0.249
-571.675	272.957	-0.092	-0.165
-570.661	-95.391	0.226	0.062
-569.646	-116.542	-0.382	0.071
-568.631	-200.000	-0.060	-0.384
-567.617	800.000	-0.077	0.245
-566.602	484.083	-0.095	-0.219
-565.588	3.197	-0.218	-0.161
-564.573	312.685	-0.158	-0.300
-563.558	242.312	-0.106	0.180
-562.544	-200.000	0.006	0.168
-561.529	-23.985	-0.122	-0.074
-560.515	-200.000	-0.004	-0.037
-559.500	-200.000	-0.024	-0.174
-558.485	8.023	0.084	0.064
-557.471	800.000	0.042	-0.142
-556.456	-109.191	-0.230	-0.049
-555.442	-200.000	0.041	-0.000
-554.427	-200.000	-0.032	0.284
-553.412	-143.617	-0.312	0.030
-552.398	-63.986	-0.101	0.042
-551.383	209.363	0.159	0.252
-550.369	205.065	0.130	0.205
-549.354	116.761	-0.103	-0.128
-548.339	189.930	0.192	-0.292
-547.325	2.899	0.154	0.113
-546.310	-200.000	0.005	-0.049
-545.296	-150.821	0.099	0.008
-544.281	-61.914	-0.116	0.049
-543.266	343.649	-0.049	-0.097
-542.252	163.470	0.079	-0.112
-541.237	80.889	0.342	0.373
-540.223	-200.000	0.034	-0.197
-539.208	-79.930	0.181	-0.061
-538.193	-181.262	0.154	0.003
-537.179	42.784	-0.201	0.185
-536.164	168.274	-0.076	-0.110
-535.150	-9.378	0.130	0.088
-534.135	131.662	0.204	0.265
-533.121	100.791	-0.222	0.260
-532.106	-16.242	-0.088	-0.056
-531.091	107.109	0.164	0.197
-530.077	-67.054	0.068	0.027
-529.062	-89.902	0.168	0.050
-528.048	411.875	0.052	0.111
-527.033	-200.000	-0.019	-0.414
-526.018	67.043	-0.210	0.216
-525.004	-157.844	-0.295	0.018
-523.989	-200.000	-0.076	-0.360
-522.975	109.100	-0.176	-0.213
-521.960	800.000	-0.082	-0.347
-520.945	-73.397	-0.413	-0.153
-519.931	-110.791	0.325	-0.068
-518.916	50.025	0.289	0.275
-517.902	308.439	-0.131	0.248
-516.887	40.279	-0.115	-0.104
-515.872	-200.000	0.020	-0.150
-514.858	43.705	0.244	-0.225
-513.843	205.723	-0.255	-0.401
-512.829	322.490	-0.226	-0.435
-511.814	-73.300	-0.129	-0.048
-510.799	-200.000	-0.031	0.418
-509.785	699.266	-0.089	0.235
-508.770	705.124	0.029	0.078
-507.756	-200.000	-0.087	-0.443
-506.741	800.000	0.115	-0.345
-505.726	-193.097	-0.523	0.005
-504.712	-200.000	0.009	-0.164
-503.697	-116.222	-0.492	-0.092
-502.683	-200.000	0.001	-0.121
-501.668	-98.502	-0.175	-0.045
-500.653	-200.000	0.033	0.431
-499.639	-17.500	0.278	0.176
-498.624	515.664	-0.055	0.128
-497.610	800.000	0.080	0.234
-496.595	0.228	0.161	0.116
-495.581	-180.280	-0.290	-0.006
-494.566	366.987	-0.044	-0.090
-493.551	78.265	-0.143	-0.154
-492.537	-118.394	0.301	0.054
-491.522	-36.312	-0.163	-0.089
-490.508	-197.841	-0.288	-0.002
-489.493	-200.000	-0.010	0.264
-488.478	271.506	0.082	-0.146
-487.464	800.000	-0.062	-0.256
-486.449	-125.406	-0.043	0.007
-485.435	-57.805	-0.334	-0.147
-484.420	-108.262	0.382	-0.083
-483.405	535.601	0.086	0.207
-482.391	-99.824	-0.132	0.033
-481.376	668.285	0.068	0.178
-480.362	-126.477	-0.051	-0.008
-479.347	193.789	0.052	-0.080
-478.332	-200.000	0.007	-0.158
-477.318	-200.000	0.046	-0.280
-476.303	-200.000	-0.046	-0.260
-475.289	-31.868	-0.402	-0.227
-474.274	-116.192	0.096	-0.018
-473.259	-129.257	-0.474	-0.067
-472.245	29.364	-0.313	-0.268
-471.230	-121.401	0.128	0.021
-470.216	-120.843	-0.156	-0.027
-469.201	-35.733	-0.097	-0.053
-468.186	-200.000	-0.019	0.250
-467.172	-200.000	0.026	-0.213
-466.157	-200.000	0.018	-0.421
-465.143	256.916	-0.266	-0.461
-464.128	-80.079	0.236	-0.080
-463.113	197.766	-0.149	0.229
-462.099	-28.970	0.095	-0.055
-461.084	7.547	0.348	0.263
-460.070	-145.208	-0.113	-0.010
-459.055	-200.000	-0.182	0.001
-458.040	-34.770	0.010	0.006
-457.026	-200.000	0.004	-0.160
-456.011	-161.079	-0.198	0.010
-454.997	242.837	-0.092	0.156
-453.982	-156.323	0.141	0.009
-452.968	192.746	-0.059	0.090
-451.953	182.946	0.040	-0.059
-450.938	21.957	0.404	-0.332
-449.924	-162.505	-0.414	-0.021
-448.909	-200.000	-0.011	0.123
-447.895	216.676	-0.272	-0.437
-446.880	800.000	0.067	-0.236
-445.865	-200.000	-0.010	-0.203
-444.851	-11.730	0.379	-0.250
-443.836	800.000	-0.053	-0.230
-442.822	685.203	0.072	0.190
-441.807	-200.000	0.012	0.302
-440.792	-128.819	-0.080	0.011
-439.778	-200.000	0.034	0.254
-438.763	149.001	0.128	0.174
-437.749	-106.547	-0.345	0.077
-436.734	422.642	0.024	0.051
-435.719	800.000	-0.119	-0.383
-434.705	-118.674	0.104	-0.018
-433.690	-3.603	0.253	0.177
-432.676	-124.018	0.124	-0.020
-431.661	-123.734	-0.153	-0.024
-430.646	20.137	0.146	-0.118
-429.632	-95.006	0.158	0.043
-428.617	-99.067	0.134	0.034
-427.603	800.000	0.071	-0.244
-426.588	-58.589	0.214	0.094
-425.573	35.484	-0.063	-0.056
-424.559	-88.660	0.137	-0.041
-423.544	86.619	-0.019	-0.021
-422.530	-200.000	-0.001	0.218
-421.515	180.410	-0.146	-0.215
-420.500	-200.000	0.002	-0.112
-419.486	65.491	-0.189	-0.193
-418.471	-40.302	0.241	-0.126
-417.457	-96.421	0.200	0.053
-416.442	-200.000	0.023	0.235
-415.428	201.227	-0.118	0.182
-414.413	-200.000	0.011	0.063
-413.398	-200.000	0.034	0.285
-412.384	-200.000	-0.066	0.334
-411.369	-107.654	0.163	0.036
-410.355	-65.727	0.320	-0.129
-409.340	320.930	0.046	-0.087
-408.325	279.841	-0.026	-0.047
-407.311	115.860	-0.221	0.272
-406.296	-45.956	0.251	0.124
-405.282	49.366	0.350	-0.331
-404.267	-2.168	-0.263	0.186
-403.252	-80.991	0.161	0.054
-402.238	-131.380	-0.409	-0.054
-401.223	-200.000	-0.022	-0.334
-400.209	43.588	0.269	0.248
-399.194	-112.391	-0.153	-0.031
-398.179	107.336	0.044	-0.053
-397.165	-60.298	0.246	-0.105
-396.150	199.818	0.108	0.166
-395.136	-103.853	0.203	0.048
-394.121	-0.518	0.247	0.176
-393.106	-167.527	0.237	0.010
-392.092	-55.706	0.290	0.130
-391.077	180.698	-0.205	-0.303
-390.063	59.538	-0.184	0.182
-389.048	38.747	-0.154	0.139
-388.033	-49.048	-0.135	0.065
-387.019	133.871	0.249	0.324
-386.004	361.705	-0.225	0.454
-384.990	-200.000	-0.005	-0.062
-383.975	-100.798	-0.046	0.011
-382.960	-58.571	-0.080	-0.035
-381.946	415.153	0.179	-0.383
-380.931	800.000	-0.061	-0.175
-379.917	800.000	-0.073	-0.290
-378.902	-110.352	-0.173	-0.036
-377.888	178.201	-0.186	0.273
-376.873	-169.998	0.249	0.009
-375.858	-142.653	-0.297	-0.029
-374.844	-105.028	0.187	0.043
-373.829	-116.485	0.160	-0.030
-372.815	34.338	0.133	-0.116
-371.800	-200.000	-0.002	-0.125
-370.785	-198.652	0.206	-0.001
-369.771	86.104	-0.122	0.135
-368.756	-129.287	0.221	0.031
-367.742	72.725	0.181	-0.190
-366.727	800.000	0.046	-0.155
-365.712	93.860	-0.153	0.174
-364.698	174.809	-0.178	0.259
-363.683	-200.000	-0.021	-0.142
-362.669	-99.475	0.067	-0.017
-361.654	-116.054	0.290	0.054
-360.639	-140.320	-0.237	-0.025
-359.625	-33.740	0.124	-0.069
-358.610	-10.011	-0.253	0.169
-357.596	-55.810	0.327	-0.146
-356.581	-200.000	0.080	-0.374
-355.566	161.132	0.047	0.066
-354.552	-200.000	0.060	-0.343
-353.537	24.873	0.233	0.194
-352.523	-50.542	-0.133	0.063
-351.508	9.324	0.290	-0.220
-350.493	-112.928	-0.271	0.054
-349.479	-19.514	-0.266	0.165
-348.464	467.724	0.080	0.180
-347.450	41.320	0.144	0.131
-346.435	-86.127	0.156	-0.048
-345.420	800.000	-0.093	0.261
-344.406	35.834	0.240	0.211
-343.391	-126.698	-0.439	-0.065
-342.377	104.762	-0.268	-0.317
-341.362	22.687	-0.275	-0.226
-340.348	-175.105	0.448	0.012
-339.333	-172.598	-0.208	-0.007
-338.318	-94.287	-0.306	0.084
-337.304	-200.000	0.007	0.143
-336.289	55.951	-0.162	-0.157
-335.275	40.361	-0.198	0.179
-334.260	-200.000	0.025	-0.470
-333.245	-115.807	0.216	0.040
-332.231	76.650	-0.218	-0.232
-331.216	-38.168	-0.144	-0.077
-330.202	-41.731	-0.182	0.094
-329.187	-81.505	0.331	0.109
-328.172	-111.707	-0.080	0.016
-327.158	-66.517	-0.220	0.087
-326.143	189.798	-0.124	-0.187
-325.129	-19.361	0.272	0.169
-324.114	-46.817	-0.054	0.027
-323.099	129.676	-0.157	0.201
-322.085	383.975	-0.111	-0.230
-321.070	-200.000	0.012	-0.301
-320.056	-91.374	0.255	-0.073
-319.041	-200.000	0.012	-0.174
-318.026	104.098	0.140	0.165
-317.012	-84.079	0.254	0.081
-315.997	-78.727	-0.227	-0.078
-314.983	-200.000	0.215	-0.000
-313.968	-75.530	-0.127	0.045
-312.953	714.609	0.116	-0.308
-311.939	-200.000	0.023	0.482
-310.924	53.561	-0.125	-0.120
-309.910	-67.820	0.060	-0.024
-308.895	800.000	-0.089	0.369
-307.880	194.968	-0.246	0.373
-306.866	45.818	-0.130	-0.121
-305.851	-200.000	0.002	0.271
-304.837	-200.000	0.014	-0.237
-303.822	233.047	0.099	-0.163
-302.807	29.282	-0.034	-0.029
-301.793	-84.350	0.069	-0.022
-300.778	251.487	0.117	-0.199
-299.764	67.172	0.101	-0.103
-298.749	358.562	-0.115	-0.230
-297.735	8.943	0.408	-0.308
-296.720	-37.084	0.075	-0.040
-295.705	708.908	-0.070	0.185
-294.691	10.177	0.228	0.174
-293.676	-200.000	-0.025	-0.455
-292.662	-200.000	0.045	0.292
-291.647	-70.452	0.284	0.108
-290.632	800.000	0.075	-0.321
-289.618	157.384	-0.088	0.123
-288.603	45.469	0.116	0.107
-287.589	70.573	0.228	-0.236
-286.574	-200.000	0.008	-0.122
-285.559	-92.492	-0.107	0.030
-284.545	-200.000	-0.025	0.171
-283.530	175.312	0.124	0.180
-282.516	136.197	0.079	-0.103
-281.501	608.614	-0.111	-0.277
-280.486	-11.891	0.231	-0.151
-279.472	627.539	-0.100	-0.252
-278.457	-200.000	-0.027	0.232
-277.443	-64.953	-0.123	0.050
-276.428	23.830	-0.278	-0.229
-275.413	-154.484	0.151	0.010
-274.399	351.281	-0.207	-0.410
-273.384	-51.500	0.039	0.018
-272.370	800.000	-0.020	0.073
-271.355	-53.294	0.108	-0.049
-270.340	58.133	0.219	-0.215
-269.326	117.300	-0.126	0.155
-268.311	7.020	-0.222	0.166
-267.297	-200.000	-0.015	-0.228
-266.282	-70.097	0.402	-0.153
-265.267	-200.000	-0.015	0.194
-264.253	-102.578	0.159	-0.038
-263.238	-138.915	0.158	-0.017
-262.224	599.421	0.047	0.117
-261.209	36.647	-0.297	0.262
-260.195	4.584	0.144	-0.105
-259.180	333.175	0.106	-0.205
-258.165	125.784	0.161	0.203
-257.151	-118.466	-0.360	-0.064
-256.136	171.046	0.288	0.413
-255.122	-57.556	0.196	-0.086
-254.107	-81.617	0.018	0.006
-253.092	-200.000	-0.083	-0.428
-252.078	-49.544	-0.157	0.075
-251.063	-22.523	-0.118	0.071
-250.049	-200.000	0.000	-0.136
-249.034	-200.000	0.016	0.291
-248.019	-29.875	-0.225	0.128
-247.005	150.435	0.032	0.044
-245.990	800.000	-0.094	0.322
-244.976	212.495	0.166	0.261
-243.961	60.911	-0.176	0.174
-242.946	-183.782	0.168	0.003
-241.932	-98.086	-0.104	-0.027
-240.917	800.000	-0.079	0.226
-239.903	315.892	0.058	0.110
-238.888	103.233	-0.091	-0.107
-237.873	640.647	-0.135	0.342
-236.859	25.426	0.184	0.153
-235.844	566.529	0.068	0.165
-234.830	-34.432	0.153	0.084
-233.815	-200.000	0.041	-0.285
-232.800	-200.000	0.003	0.207
-231.786	-2.485	0.054	0.038
-230.771	-6.278	0.151	0.103
-229.757	800.000	-0.107	0.333
-228.742	607.386	0.094	-0.233
-227.727	-200.000	0.005	-0.163
-226.713	-83.542	0.199	0.064
-225.698	-132.908	0.264	-0.034
-224.684	-164.673	0.165	0.007
-223.669	-200.000	0.003	0.240
-222.655	193.329	-0.181	0.273
-221.640	60.975	0.193	0.192
-220.625	-86.229	0.371	-0.114
-219.611	312.234	0.200	-0.375
-218.596	170.733	-0.171	0.244
-217.582	87.905	-0.185	0.204
-216.567	-200.000	-0.033	-0.240
-215.552	-200.000	0.027	0.327
-214.538	-200.000	-0.002	0.113
-213.523	208.005	0.045	0.070
-212.509	16.471	0.134	0.106
-211.494	-111.951	0.059	0.012
-210.479	330.947	-0.087	-0.167
-209.465	0.990	0.194	-0.139
-208.450	722.621	0.177	0.471
-207.436	800.000	-0.031	0.133
-206.421	10.398	0.139	0.106
-205.406	-200.000	-0.012	-0.162
-204.392	392.186	0.222	0.461
-203.377	-200.000	0.093	0.474
-202.363	800.000	0.095	0.335
-201.348	-62.408	-0.092	0.038
-200.333	-140.501	-0.074	-0.008
-199.319	187.800	-0.124	0.185
-198.304	215.968	-0.212	0.336
-197.290	800.000	0.061	0.191
-196.275	-190.722	-0.254	0.003
-195.260	-200.000	-0.043	0.196
-194.246	81.543	-0.250	-0.270
-193.231	800.000	-0.123	-0.390
-192.217	226.373	-0.157	-0.255
-191.202	-138.557	0.155	0.017
-190.187	800.000	-0.041	0.137
-189.173	51.629	-0.095	0.090
-188.158	-49.894	0.180	0.085
-187.144	236.373	-0.125	0.206
-186.129	-27.193	-0.086	0.050
-185.114	-133.671	-0.359	0.045
-184.100	800.000	0.137	-0.518
-183.085	-26.614	-0.318	0.186
-182.071	-17.266	0.041	-0.025
-181.056	586.755	-0.026	-0.064
-180.042	-80.018	-0.312	0.104
-179.027	-200.000	-0.030	0.366
-178.012	174.133	-0.252	-0.362
-176.998	79.910	0.164	-0.176
-175.983	800.000	0.040	-0.145
-174.969	800.000	0.026	-0.089
-173.954	-96.752	0.291	-0.076
-172.939	68.382	-0.079	-0.080
-171.925	138.889	0.053	0.069
-170.910	22.377	-0.224	-0.182
-169.896	-14.517	-0.051	0.032
-168.881	61.197	0.151	-0.149
-167.866	800.000	-0.086	0.356
-166.852	-138.514	-0.089	0.010
-165.837	148.680	0.196	0.263
-164.823	800.000	0.106	-0.410
-163.808	-200.000	-0.001	-0.172
-162.793	-1.995	0.200	-0.140
-161.779	-54.485	0.313	0.141
-160.764	22.552	-0.328	-0.268
-159.750	98.718	0.207	0.238
-158.735	-14.323	0.066	0.043
-157.720	-200.000	0.017	0.193
-156.706	-200.000	-0.003	-0.056
-155.691	10.641	0.045	0.034
-154.677	681.609	-0.031	0.079
-153.662	-45.133	0.448	0.222
-152.647	335.541	-0.096	-0.185
-151.633	-106.092	0.123	-0.028
-150.618	-162.601	0.343	-0.017
-149.604	144.145	0.216	-0.287
-148.589	-11.162	-0.263	-0.172
-147.574	-83.931	0.036	0.011
-146.560	-35.590	0.223	0.120
-145.545	-158.637	-0.216	0.012
-144.531	-200.000	0.000	-0.024
-143.516	-115.365	-0.274	-0.051
-142.502	-101.423	-0.031	0.008
-141.487	-108.804	-0.306	-0.065
-140.472	724.803	0.109	-0.289
-139.458	-111.870	0.098	0.020
-138.443	111.331	0.047	-0.057
-137.429	25.284	-0.359	-0.297
-136.414	-200.000	0.011	0.339
-135.399	29.874	-0.201	0.170
-134.385	800.000	0.034	0.121
-133.370	-56.179	-0.238	-0.105
-132.356	-96.982	-0.491	-0.128
-131.341	-0.133	-0.275	0.195
-130.326	-7.095	-0.259	0.175
-129.312	-61.404	-0.133	-0.055
-128.297	-200.000	0.256	-0.001
-127.283	-35.870	-0.073	0.039
-126.268	-63.885	0.176	0.071
-125.253	44.737	0.044	0.040
-124.239	-200.000	-0.027	-0.129
-123.224	66.376	-0.167	0.169
-122.210	-120.458	0.281	0.047
-121.195	-200.000	-0.031	0.190
-120.180	292.101	-0.120	0.218
-119.166	-127.606	0.344	-0.050
-118.151	10.840	-0.145	0.110
-117.137	286.104	-0.106	0.191
-116.122	-9.269	0.103	0.068
-115.107	238.523	0.198	0.326
-114.093	-200.000	-0.000	0.493
-113.078	800.000	-0.051	-0.188
-112.064	-20.152	-0.213	0.131
-111.049	99.654	-0.073	-0.084
-110.034	-200.000	0.014	0.206
-109.020	40.049	0.066	-0.059
-108.005	-55.912	-0.425	0.189
-106.991	144.116	-0.172	0.229
-105.976	-200.000	0.001	0.073
-104.962	-102.149	0.387	-0.093
-103.947	127.986	-0.234	-0.296
-102.932	-173.150	0.169	-0.005
-101.918	-152.563	0.335	0.024
-100.903	-153.925	-0.254	0.017
-99.889	800.000	-0.056	0.207
-98.874	40.527	0.286	0.256
-97.859	-200.000	0.017	0.109
-96.845	800.000	-0.071	-0.296
-95.830	-114.996	-0.156	0.029
-94.816	-151.856	0.212	0.015
-93.801	3.808	0.214	-0.155
-92.786	-200.000	-0.019	-0.364
-91.772	-193.383	-0.142	-0.001
-90.757	-61.100	-0.099	0.042
-89.743	-153.960	0.091	0.006
-88.728	-116.257	0.146	-0.027
-87.713	3.973	0.305	0.221
-86.699	42.778	0.167	0.151
-85.684	-13.392	0.056	0.036
-84.670	-77.740	-0.331	0.114
-83.655	9.326	0.317	-0.238
-82.640	800.000	0.067	-0.225
-81.626	127.415	0.133	0.167
-80.611	25.266	0.103	0.085
-79.597	800.000	0.047	0.160
-78.582	-45.572	-0.304	-0.149
-77.567	-121.415	0.107	-0.018
-76.553	-140.105	-0.269	0.028
-75.538	97.454	-0.087	-0.099
-74.524	218.035	-0.130	-0.205
-73.509	-6.661	-0.186	-0.126
-72.494	26.661	0.262	0.217
-71.480	149.326	-0.066	-0.088
-70.465	-146.511	0.185	-0.016
-69.451	34.285	-0.360	0.312
-68.436	-164.173	0.214	0.010
-67.422	-128.633	-0.284	0.040
-66.407	-44.650	0.154	0.076
-65.392	23.257	-0.182	0.148
-64.378	84.984	-0.260	0.283
-63.363	-159.563	0.144	-0.008
-62.349	257.546	0.175	0.298
-61.334	76.979	-0.956	-1.007
-60.319	-130.449	0.422	0.057
-59.305	647.206	-0.373	-0.945
-58.290	176.042	0.804	1.157
-57.276	-200.000	0.386	1.708
-56.261	-200.000	95.284	563.119
-55.246	632.027	1381.523	3470.131
-54.232	186.778	2596.475	3835.946
-53.217	121.310	2204.018	2722.193
-52.203	45.419	1739.716	1592.265
-51.188	37.950	1550.198	1366.680
-50.173	35.609	1522.036	1325.667
-49.159	53.683	1572.522	1496.882
-48.144	57.447	1591.364	1541.171
-47.130	38.395	1546.726	1366.513
-46.115	35.151	1531.223	1330.275
-45.100	34.977	1527.712	1325.968
-44.086	35.028	1525.898	1324.697
-43.071	34.919	1524.053	1322.284
-42.057	34.855	1522.536	1320.479
-41.042	34.841	1521.338	1319.288
-40.027	34.913	1519.579	1318.206
-39.013	34.917	1518.202	1316.989
-37.998	34.898	1516.809	1315.597
-36.984	34.833	1516.197	1314.570
-35.969	34.944	1514.358	1313.682
-34.954	34.880	1512.969	1311.983
-33.940	34.832	1512.257	1310.989
-32.925	34.901	1510.051	1309.497
-31.911	34.884	1508.992	1308.412
-30.896	34.928	1507.494	1307.362
-29.881	34.975	1506.365	1306.649
-28.867	34.920	1504.449	1304.558
-27.852	34.831	1503.344	1302.940
-26.838	34.896	1501.902	1302.083
-25.823	34.983	1500.045	1301.013
-24.809	34.919	1498.482	1299.171
-23.794	34.784	1497.724	1297.549
-22.779	34.945	1496.012	1297.105
-21.765	34.895	1494.994	1295.833
-20.750	34.990	1494.006	1295.568
-19.736	34.946	1492.866	1294.231
-18.721	34.901	1491.675	1292.841
-17.706	34.911	1490.473	1291.814
-16.692	34.872	1489.426	1290.591
-15.677	34.846	1488.315	1289.407
-14.663	34.794	1488.106	1288.823
-13.648	34.895	1486.274	1287.865
-12.633	34.820	1485.661	1286.774
-11.619	34.803	1484.933	1285.980
-10.604	34.899	1483.986	1285.757
-9.590	34.803	1483.558	1284.686
-8.575	34.823	1482.390	1283.759
-7.560	34.843	1481.855	1283.382
-6.546	34.841	1480.466	1282.111
-5.531	34.845	1479.644	1281.378
-4.517	34.912	1478.313	1280.621
-3.502	34.871	1477.536	1279.622
-2.487	34.825	1476.832	1278.652
-1.473	34.841	1475.647	1277.684
-0.458	34.874	1474.486	1276.853
0.556	37.181	1465.079	1267.796
1.571	34.205	1438.619	1225.663
2.586	30.075	1374.878	1145.781
3.600	27.768	1289.830	1061.407
4.615	25.364	1241.862	1008.363
5.629	21.389	1184.677	940.509
6.644	13.019	1099.149	830.576
7.659	6.197	1057.200	765.686
8.673	5.043	1051.940	756.216
9.688	4.879	1048.118	752.613
10.702	4.598	1047.171	750.511
11.717	4.931	1045.177	750.616
12.731	7.886	1049.016	767.577
13.746	16.081	1060.032	815.356
14.761	21.615	1066.495	847.102
15.775	21.919	1066.346	848.383
16.790	21.298	1064.023	843.460
17.804	20.161	1062.475	836.675
18.819	19.390	1060.275	831.154
19.834	18.873	1059.354	827.868
20.848	18.753	1058.424	826.492
21.863	18.581	1057.654	824.989
22.877	18.559	1056.548	823.950
23.892	18.355	1055.530	822.101
24.907	18.232	1055.233	821.209
25.921	18.214	1054.235	820.273
26.936	18.195	1053.619	819.628
27.950	18.178	1052.758	818.805
28.965	18.188	1051.587	817.870
29.980	18.217	1050.753	817.288
30.994	18.358	1049.361	816.805
32.009	18.491	1048.523	816.714
33.023	18.437	1048.166	816.106
34.038	18.527	1047.041	815.586
35.053	18.470	1045.801	814.280
36.067	18.356	1044.818	812.901
37.082	18.202	1044.529	811.875
38.096	18.293	1043.672	811.565
39.111	18.377	1043.034	811.394
40.126	18.522	1042.002	811.209
41.140	18.369	1040.700	809.398
42.155	18.050	1039.804	807.125
43.169	17.939	1038.442	805.472
44.184	17.792	1037.602	804.057
45.199	17.842	1036.221	803.149
46.213	17.782	1035.516	802.250
47.228	17.956	1034.765	802.415
48.242	18.148	1033.599	802.343
49.257	18.362	1032.795	802.650
50.271	18.320	1031.983	801.749
51.286	18.213	1030.934	800.364
52.301	18.422	1030.281	800.765
53.315	18.226	1029.393	799.086
54.330	18.209	1028.672	798.377
55.344	18.199	1027.538	797.379
56.359	17.893	1026.892	795.381
57.374	18.099	1025.714	795.359
58.388	18.061	1024.958	794.527
59.403	17.982	1023.816	793.202
60.417	17.829	1023.312	792.030
61.432	17.775	1023.023	791.486
62.447	17.811	1021.833	790.666
63.461	17.746	1021.065	789.701
64.476	17.813	1019.716	788.896
65.490	17.731	1018.822	787.757
66.505	17.594	1018.509	786.811
67.520	17.692	1017.425	786.355
68.534	17.786	1016.617	786.096
69.549	17.714	1016.174	785.352
70.563	17.725	1015.472	784.791
71.578	17.800	1014.338	784.188
72.593	17.607	1013.586	782.653
73.607	17.596	1012.545	781.729
74.622	17.476	1011.585	780.367
75.636	17.527	1010.844	779.961
76.651	17.523	1009.866	779.117
77.666	17.630	1009.158	778.995
78.680	17.555	1008.681	778.214
79.695	17.676	1008.051	778.210
80.709	17.767	1007.092	777.815
81.724	17.786	1006.777	777.591
82.739	17.859	1006.173	777.390
83.753	17.897	1005.477	776.956
84.768	18.061	1004.744	777.063
85.782	18.463	1004.374	778.535
86.797	18.450	1003.861	778.013
87.812	18.446	1002.947	777.215
88.826	18.321	1001.562	775.508
89.841	18.296	1000.500	774.503
90.855	18.490	999.774	774.748
91.870	18.510	999.441	774.513
92.884	18.662	998.310	774.256
93.899	18.547	997.748	773.231
94.914	18.528	996.826	772.365
95.928	18.480	996.366	771.724
96.943	18.551	995.637	771.408
97.957	18.395	994.725	769.932
98.972	18.359	993.794	768.984
99.987	18.362	992.913	768.244
101.001	18.403	992.143	767.767
102.016	18.423	991.796	767.520
103.030	18.354	991.026	766.546
104.045	18.420	989.792	765.819
105.060	18.540	988.765	765.491
106.074	18.364	987.733	763.840
107.089	18.178	986.584	762.059
108.103	17.986	985.324	760.160
109.118	17.755	984.831	758.689
110.133	17.734	983.795	757.729
111.147	17.844	983.030	757.558
112.162	17.724	981.978	756.148
113.176	17.811	981.202	755.872
114.191	17.901	980.383	755.572
115.206	17.997	979.670	755.380
116.220	17.984	978.999	754.739
117.235	17.902	978.050	753.580
118.249	17.940	977.110	752.956
119.264	17.892	976.240	752.007
120.279	17.834	975.306	750.964
121.293	17.700	974.775	749.900
122.308	17.775	973.475	749.161
123.322	17.703	972.761	748.231
124.337	17.643	971.314	746.789
125.352	17.602	970.542	745.951
126.366	17.622	969.389	745.085
127.381	17.507	968.776	744.047
128.395	17.649	967.652	743.737
129.410	17.581	966.682	742.627
130.424	17.707	965.475	742.184
131.439	17.759	965.024	742.000
132.454	17.871	964.410	741.946
133.468	18.115	963.176	741.992
134.483	18.018	963.057	741.415
135.497	17.951	962.473	740.606
136.512	17.888	961.686	739.663
137.527	17.915	960.899	739.112
138.541	17.987	960.004	738.668
139.556	17.984	959.504	738.203
140.570	18.074	958.498	737.753
141.585	18.094	958.287	737.611
142.600	18.290	957.532	737.812
143.614	18.379	956.897	737.640
144.629	18.450	956.115	737.277
145.643	18.455	955.306	736.608
146.658	18.424	954.243	735.591
147.673	18.339	953.348	734.473
148.687	18.238	952.259	733.134
149.702	18.086	951.409	731.765
150.716	17.999	950.178	730.381
151.731	18.019	949.363	729.777
152.746	18.077	948.870	729.582
153.760	17.978	948.316	728.669
154.775	17.955	947.583	727.940
155.789	18.194	947.128	728.544
156.804	18.198	946.149	727.746
157.819	18.303	944.938	727.194
158.833	18.223	944.757	726.651
159.848	18.313	944.299	726.616
160.862	18.434	943.579	726.511
161.877	18.543	942.791	726.301
162.892	18.293	941.719	724.357
163.906	17.908	940.897	722.029
164.921	17.940	939.854	721.300
165.935	17.772	938.911	719.806
166.950	17.930	937.818	719.570
167.964	18.213	936.718	719.854
168.979	18.209	935.918	719.157
169.994	18.126	934.493	717.649
171.008	18.027	933.939	716.748
172.023	18.108	933.166	716.430
173.037	18.282	932.520	716.600
174.052	18.447	931.668	716.572
175.067	18.361	930.914	715.567
176.081	18.177	930.080	714.095
177.096	18.068	929.032	712.771
178.110	17.979	928.500	711.933
179.125	17.978	928.014	711.491
180.140	18.086	927.028	711.121
181.154	18.214	926.574	711.242
182.169	18.270	925.789	710.808
183.183	18.357	925.500	710.884
184.198	18.523	924.678	710.878
185.213	18.482	924.203	710.281
186.227	18.352	923.854	709.414
187.242	18.487	923.185	709.396
188.256	18.557	922.555	709.139
189.271	18.585	921.776	708.594
190.286	18.628	921.123	708.204
191.300	18.453	920.068	706.609
192.315	18.079	919.056	704.228
193.329	17.880	918.300	702.768
194.344	17.877	917.685	702.222
195.359	18.000	917.417	702.462
196.373	18.286	916.657	702.993
197.388	18.319	916.399	702.866
198.402	18.469	915.777	702.945
199.417	18.650	915.787	703.632
200.432	18.683	915.348	703.365
201.446	18.837	915.015	703.682
202.461	18.966	914.458	703.715
203.475	19.011	914.056	703.530
204.490	19.100	913.215	703.185
205.504	18.735	912.489	701.072
206.519	18.740	911.235	700.066
207.534	18.623	910.623	699.058
208.548	18.540	909.904	698.107
209.563	18.619	909.345	697.937
210.577	18.704	908.541	697.605
211.592	18.491	908.210	696.424
212.607	18.719	907.891	697.043
213.621	18.928	907.174	697.278
214.636	18.813	906.472	696.209
215.650	18.730	906.049	695.487
216.665	18.773	905.362	695.072
217.680	18.867	904.954	695.078
218.694	18.941	904.415	694.900
219.709	19.078	903.945	695.034
220.723	19.015	903.465	694.348
221.738	18.884	902.323	692.881
222.753	18.934	901.791	692.613
223.767	18.847	900.948	691.553
224.782	19.031	899.988	691.497
225.796	19.071	899.643	691.331
226.811	19.248	898.658	691.220
227.826	19.142	898.225	690.401
228.840	18.968	897.419	689.024
229.855	18.822	896.868	687.957
230.869	18.879	896.204	687.612
231.884	18.914	895.291	686.993
232.899	18.885	894.435	686.160
233.913	18.731	894.094	685.222
234.928	18.699	893.471	684.558
235.942	18.743	892.412	683.860
236.957	18.581	892.106	682.918
237.972	18.574	891.302	682.217
238.986	18.630	890.614	681.850
240.001	18.665	889.967	681.436
241.015	18.788	888.858	681.014
242.030	18.845	888.513	680.916
243.045	18.744	888.223	680.231
244.059	18.885	887.729	680.351
245.074	18.827	887.038	679.532
246.088	18.938	886.242	679.301
247.103	19.069	885.900	679.496
248.117	19.038	885.777	679.219
249.132	19.308	884.926	679.572
250.147	19.516	884.439	679.957
251.161	19.707	884.051	680.349
252.176	19.670	883.584	679.785
253.190	19.781	882.723	679.497
254.205	19.791	882.010	678.927
255.220	19.908	881.668	679.065
256.234	19.987	880.534	678.439
257.249	19.787	879.956	677.153
258.263	19.934	879.783	677.535
259.278	19.725	879.616	676.527
260.293	19.712	878.842	675.820
261.307	19.847	878.146	675.755
262.322	20.000	877.183	675.552
263.336	19.875	877.045	674.896
264.351	19.983	876.767	675.044
265.366	19.893	876.095	674.117
266.380	20.044	875.200	673.956
267.395	19.989	874.588	673.213
268.409	19.840	873.755	671.933
269.424	19.710	873.246	670.978
270.439	19.779	872.257	670.425
271.453	19.798	871.446	669.815
272.468	19.561	870.867	668.392
273.482	19.753	870.065	668.463
274.497	19.790	869.606	668.193
275.512	19.757	868.972	667.518
276.526	19.701	868.379	666.789
277.541	19.714	867.603	666.184
278.555	19.747	866.908	665.717
279.570	19.869	866.536	665.843
280.585	20.066	865.923	666.070
281.599	20.150	865.485	665.998
282.614	20.007	864.884	664.928
283.628	19.831	864.091	663.582
284.643	19.803	863.999	663.345
285.657	19.772	863.317	662.644
286.672	19.797	862.814	662.296
287.687	19.799	862.304	661.855
288.701	20.001	861.563	662.001
289.716	19.888	861.379	661.369
290.730	20.023	860.335	661.022
291.745	19.933	859.812	660.219
292.760	19.915	859.119	659.559
293.774	20.134	858.478	659.844
294.789	20.178	857.818	659.443
295.803	20.222	857.645	659.420
296.818	20.060	856.765	658.070
297.833	20.120	856.060	657.697
298.847	19.929	855.456	656.451
299.862	20.010	854.613	656.053
300.876	19.961	854.311	655.579
301.891	20.069	853.617	655.398
302.906	20.174	853.348	655.530
303.920	20.331	852.315	655.272
304.935	20.446	851.914	655.339
305.949	20.556	851.198	655.142
306.964	20.493	850.742	654.496
307.979	20.355	849.919	653.288
308.993	20.290	849.630	652.763
310.008	20.303	849.182	652.407
311.022	20.314	848.979	652.237
312.037	20.372	848.256	651.843
313.052	20.301	847.425	650.879
314.066	20.158	846.667	649.702
315.081	20.070	846.289	649.027
316.095	19.974	845.849	648.272
317.110	20.123	845.113	648.209
318.125	20.071	844.357	647.378
319.139	20.140	844.084	647.368
320.154	20.111	843.317	646.615
321.168	20.075	842.968	646.155
322.183	20.150	842.451	645.982
323.197	20.186	842.152	645.829
324.212	20.084	841.790	645.115
325.227	20.214	841.043	644.969
326.241	20.312	840.106	644.556
327.256	20.274	839.701	644.048
328.270	20.123	839.393	643.195
329.285	20.129	838.494	642.470
330.300	20.186	838.063	642.294
331.314	20.080	837.888	641.712
332.329	20.200	837.006	641.421
333.343	20.309	836.299	641.228
334.358	20.456	835.733	641.277
335.373	20.509	835.354	641.125
336.387	20.419	834.955	640.434
337.402	20.448	834.512	640.144
338.416	20.535	833.994	640.008
339.431	20.686	833.595	640.199
340.446	20.874	832.674	640.128
341.460	20.766	832.412	639.475
342.475	20.958	831.583	639.485
343.489	20.981	831.200	639.218
344.504	20.845	831.067	638.560
345.519	21.000	830.179	638.390
346.533	21.097	829.343	638.043
347.548	21.229	829.443	638.548
348.562	20.835	828.669	636.456
349.577	20.670	827.900	635.207
350.592	20.577	827.570	634.556
351.606	20.498	826.898	633.697
352.621	20.447	826.352	633.037
353.635	20.433	826.068	632.713
354.650	20.633	825.391	632.866
355.665	20.878	824.925	633.344
356.679	20.703	824.669	632.454
357.694	20.818	824.331	632.557
358.708	20.788	823.877	632.045
359.723	20.755	823.028	631.216
360.738	20.736	822.521	630.705
361.752	20.829	822.148	630.700
362.767	20.886	821.871	630.636
363.781	20.996	821.205	630.468
364.796	21.073	821.077	630.590
365.810	21.225	820.753	630.836
366.825	21.222	820.285	630.410
367.840	21.248	820.000	630.227
368.854	21.381	819.573	630.323
369.869	21.237	818.916	629.247
370.883	21.156	818.482	628.566
371.898	21.206	817.795	628.160
372.913	21.215	817.042	627.558
373.927	21.254	816.728	627.404
374.942	21.364	815.848	627.066
375.956	21.286	815.252	626.272
376.971	21.409	814.950	626.427
377.986	21.413	813.980	625.640
379.000	21.478	813.989	625.824
380.015	21.521	813.494	625.542
381.029	21.585	812.957	625.303
382.044	21.538	812.035	624.371
383.059	21.514	811.696	623.966
384.073	21.445	811.192	623.279
385.088	21.421	810.607	622.691
386.102	21.457	809.374	621.815
387.117	21.300	808.899	620.837
388.132	21.176	808.893	620.338
389.146	21.160	808.386	619.835
390.161	21.220	807.736	619.496
391.175	21.476	807.733	620.349
392.190	21.521	807.214	620.054
393.205	21.442	806.952	619.519
394.219	21.424	806.284	618.886
395.234	21.304	805.917	618.123
396.248	21.190	805.263	617.165
397.263	21.069	804.548	616.136
398.278	20.984	804.415	615.677
399.292	21.138	803.525	615.488
400.307	21.133	802.897	614.934
401.321	21.070	802.962	614.708
402.336	21.242	802.440	614.859
403.350	21.221	802.258	614.592
404.365	21.428	801.593	614.756
405.380	21.390	801.185	614.253
406.394	21.539	800.890	614.496
407.409	21.766	800.732	615.118
408.423	21.636	800.414	614.364
409.438	21.730	799.940	614.275
410.453	21.751	799.295	613.796
411.467	21.887	799.117	614.084
412.482	21.786	798.868	613.484
413.496	21.823	798.276	613.103
414.511	22.011	798.031	613.518
415.526	22.109	797.309	613.252
416.540	21.912	796.848	612.157
417.555	21.935	796.556	611.958
418.569	21.989	795.744	611.468
419.584	21.842	795.788	610.936
420.599	22.005	795.118	610.934
421.613	158.391	1368.247	1788.322
422.628	137.301	1451.757	1788.454
