DTS Sentinel unit serial number:	SN413079Multiplexer serial number:	ORYXHardware model number:	OX4-SRSoftware version number:	ORYX F/W v4.00 Oryx Data Collector v3.7.2.0data status	okinstallation	princeton_trtdifferential loss correction	single-endedforward channel	channel 3reverse channel	N/Adate	2019/09/18time	14:16:35forward acquisition time	60.00reverse acquisition time	0.00gamma	496.2192k internal	0.2311k external	0.2311temperature offset calibration	0.9977default loss term (dB/km)	0.3790temperature slope calibration	1.0000multiplexer offset coefficient	1.0000multiplexer slope coefficient	1.0000fibre end	0.00T internal ref (°C)	34.31T ext. ref 1 (°C)	0.68T ext. ref 2 (°C)	29.05length (m)	temperature (°C)	Stokes	anti-Stokes-747.200	116.549	-0.101	-0.126
-746.185	324.410	-0.031	-0.060
-745.171	-58.021	-0.198	-0.088
-744.156	-200.000	-0.034	0.273
-743.142	27.059	-0.157	-0.133
-742.127	242.836	0.181	0.308
-741.112	45.349	0.086	0.080
-740.098	9.731	-0.069	-0.053
-739.083	22.944	-0.037	-0.031
-738.069	367.431	-0.153	0.314
-737.054	-200.000	0.027	0.246
-736.039	708.414	-0.030	0.080
-735.025	-131.044	0.086	0.012
-734.010	-200.000	-0.042	-0.265
-732.996	64.123	-0.170	0.174
-731.981	-200.000	-0.016	0.080
-730.966	-35.126	-0.248	-0.137
-729.952	-3.535	0.224	0.158
-728.937	34.935	-0.032	-0.029
-727.923	320.746	0.039	0.076
-726.908	71.424	0.110	0.116
-725.894	-81.967	0.324	0.108
-724.879	800.000	0.114	-0.339
-723.864	53.278	-0.455	-0.442
-722.850	800.000	0.081	-0.270
-721.835	-104.753	-0.149	-0.035
-720.821	-200.000	0.040	-0.328
-719.806	638.991	0.055	-0.142
-718.791	-55.793	0.285	-0.129
-717.777	95.022	-0.104	-0.120
-716.762	63.314	-0.148	-0.150
-715.748	-18.626	-0.248	-0.157
-714.733	-200.000	0.014	0.222
-713.718	-92.952	-0.256	0.072
-712.704	-71.768	0.214	-0.081
-711.689	-200.000	-0.001	-0.186
-710.675	10.849	-0.234	0.181
-709.660	-17.890	-0.120	-0.076
-708.645	-200.000	0.002	0.231
-707.631	82.993	-0.164	-0.181
-706.616	-61.567	-0.287	0.122
-705.602	-200.000	0.003	-0.029
-704.587	15.046	0.393	-0.312
-703.572	-97.182	0.118	0.031
-702.558	60.630	-0.177	0.178
-701.543	-23.599	0.107	0.065
-700.529	34.843	0.105	-0.093
-699.514	2.152	-0.206	0.151
-698.499	-171.738	0.324	0.011
-697.485	-200.000	-0.023	0.149
-696.470	-148.180	-0.187	-0.016
-695.456	-158.841	-0.051	0.003
-694.441	-200.000	0.034	0.216
-693.426	-174.272	0.177	0.005
-692.412	-17.511	-0.138	0.088
-691.397	635.426	-0.012	0.030
-690.383	-16.670	-0.310	0.199
-689.368	-200.000	0.017	-0.125
-688.354	-200.000	0.008	0.039
-687.339	-200.000	0.030	-0.273
-686.324	390.452	0.195	-0.410
-685.310	107.608	0.069	-0.084
-684.295	-101.801	0.296	0.073
-683.281	-173.686	-0.241	0.007
-682.266	800.000	0.069	0.227
-681.251	-200.000	0.017	-0.102
-680.237	282.850	0.011	0.021
-679.222	-102.777	-0.170	-0.041
-678.208	0.595	0.200	-0.145
-677.193	-200.000	-0.008	-0.106
-676.178	-20.371	0.129	0.080
-675.164	-161.538	-0.051	0.003
-674.149	-52.904	-0.139	0.065
-673.135	-200.000	0.045	-0.377
-672.120	800.000	0.113	-0.320
-671.105	-34.225	0.243	0.135
-670.091	-200.000	-0.030	-0.220
-669.076	-40.331	0.186	0.098
-668.062	235.082	-0.122	-0.204
-667.047	293.247	-0.044	0.080
-666.032	-200.000	0.024	-0.166
-665.018	-54.585	-0.323	0.148
-664.003	7.402	-0.239	-0.181
-662.989	-120.292	0.103	0.018
-661.974	-120.799	-0.124	-0.021
-660.959	-200.000	-0.026	-0.138
-659.945	-52.339	-0.333	-0.156
-658.930	800.000	-0.052	-0.163
-657.916	-200.000	0.047	-0.416
-656.901	-194.090	-0.463	0.004
-655.886	65.069	0.056	0.058
-654.872	270.045	0.057	-0.101
-653.857	70.096	-0.168	0.175
-652.843	-9.749	0.090	0.060
-651.828	107.352	0.129	0.155
-650.814	187.923	0.081	0.123
-649.799	135.837	-0.128	-0.169
-648.784	338.597	0.077	-0.152
-647.770	28.827	-0.086	0.074
-646.755	-200.000	0.025	0.243
-645.741	-38.287	-0.185	-0.099
-644.726	-96.509	-0.013	0.003
-643.711	800.000	0.054	0.227
-642.697	-200.000	-0.000	0.242
-641.682	133.214	0.087	0.114
-640.668	-200.000	0.018	0.175
-639.653	-200.000	-0.003	0.284
-638.638	-200.000	0.024	-0.225
-637.624	-78.499	-0.303	-0.105
-636.609	-70.364	0.340	0.130
-635.595	3.532	0.140	0.103
-634.580	24.731	-0.108	0.090
-633.565	88.798	-0.182	0.204
-632.551	-200.000	0.004	-0.220
-631.536	70.484	-0.032	-0.033
-630.522	-162.019	0.254	-0.013
-629.507	-39.458	-0.069	0.037
-628.492	641.265	0.127	0.327
-627.478	111.813	-0.250	-0.305
-626.463	-119.617	-0.161	0.028
-625.449	722.334	-0.127	0.342
-624.434	800.000	0.048	0.173
-623.419	800.000	0.041	0.169
-622.405	800.000	0.033	-0.131
-621.390	-130.011	-0.212	-0.029
-620.376	-17.988	-0.288	0.182
-619.361	-88.471	-0.415	0.125
-618.346	-200.000	-0.034	-0.224
-617.332	-200.000	-0.012	-0.183
-616.317	-200.000	-0.054	-0.366
-615.303	15.471	-0.241	-0.191
-614.288	800.000	-0.144	0.419
-613.273	-123.894	-0.126	-0.020
-612.259	357.981	0.064	0.129
-611.244	-78.461	-0.398	0.138
-610.230	89.202	-0.098	-0.110
-609.215	41.462	0.111	0.102
-608.201	-85.838	0.174	-0.054
-607.186	419.998	0.109	0.236
-606.171	-200.000	0.018	-0.318
-605.157	800.000	-0.022	-0.063
-604.142	404.994	-0.050	-0.107
-603.128	-200.000	-0.031	-0.221
-602.113	349.493	-0.045	0.090
-601.098	169.296	-0.157	0.226
-600.084	-51.448	0.176	0.083
-599.069	40.270	-0.306	-0.278
-598.055	39.865	-0.198	0.179
-597.040	53.183	0.248	0.240
-596.025	-63.112	-0.259	0.108
-595.011	-8.796	-0.205	0.139
-593.996	39.018	0.076	0.069
-592.982	800.000	0.042	-0.135
-591.967	-135.306	0.052	-0.006
-590.952	-200.000	-0.065	-0.317
-589.938	-200.000	-0.001	-0.039
-588.923	-149.334	-0.097	0.008
-587.909	456.888	0.136	-0.305
-586.894	-114.875	0.249	0.048
-585.879	-140.227	-0.087	-0.009
-584.865	-200.000	0.016	-0.249
-583.850	124.730	-0.033	-0.041
-582.836	90.226	-0.197	-0.222
-581.821	-175.406	-0.103	-0.003
-580.806	-200.000	-0.005	0.357
-579.792	-45.132	-0.198	0.099
-578.777	96.810	0.157	-0.181
-577.763	610.171	-0.122	-0.306
-576.748	-66.644	-0.097	0.039
-575.733	-200.000	0.011	-0.192
-574.719	-39.426	0.226	-0.119
-573.704	-200.000	-0.002	-0.138
-572.690	-148.643	0.339	-0.028
-571.675	23.683	0.305	0.253
-570.661	60.851	-0.126	0.126
-569.646	278.735	-0.053	-0.096
-568.631	192.096	0.053	-0.081
-567.617	-200.000	0.001	-0.256
-566.602	-131.433	0.134	-0.018
-565.588	-200.000	0.006	-0.270
-564.573	-114.988	-0.182	-0.035
-563.558	-92.929	0.180	0.051
-562.544	-200.000	-0.001	0.400
-561.529	21.910	-0.280	0.230
-560.515	800.000	-0.099	-0.353
-559.500	-116.307	0.133	-0.025
-558.485	-200.000	-0.011	-0.154
-557.471	-136.488	0.182	0.021
-556.456	66.684	-0.253	0.259
-555.442	-139.093	0.457	0.050
-554.427	180.404	-0.092	0.136
-553.412	32.064	-0.278	0.242
-552.398	-200.000	0.037	0.223
-551.383	79.972	-0.049	-0.053
-550.369	45.061	0.231	0.214
-549.354	-1.006	-0.134	-0.096
-548.339	-200.000	-0.013	-0.115
-547.325	430.898	0.123	0.268
-546.310	-112.053	-0.316	0.064
-545.296	-86.998	-0.327	0.100
-544.281	228.347	-0.049	-0.080
-543.266	12.988	-0.159	0.124
-542.252	384.891	0.042	-0.088
-541.237	203.802	-0.191	0.298
-540.223	-106.789	-0.164	0.037
-539.208	-0.192	-0.079	0.056
-538.193	193.469	-0.182	-0.278
-537.179	299.253	0.097	-0.180
-536.164	-175.319	0.224	0.006
-535.150	-90.091	0.093	0.027
-534.135	57.735	-0.120	-0.118
-533.121	-136.257	0.142	-0.017
-532.106	-200.000	-0.068	0.378
-531.091	27.699	0.141	0.119
-530.077	-78.864	0.116	-0.040
-529.062	-22.928	0.051	-0.031
-528.048	-155.598	0.148	-0.010
-527.033	47.911	0.134	-0.126
-526.018	429.569	0.070	0.152
-525.004	-153.609	-0.199	-0.014
-523.989	257.731	-0.055	0.096
-522.975	-10.524	0.122	0.081
-521.960	-200.000	-0.016	-0.116
-520.945	-59.373	0.132	-0.057
-519.931	-200.000	0.009	-0.229
-518.916	-72.200	0.078	-0.029
-517.902	-42.705	-0.238	-0.122
-516.887	-200.000	-0.018	0.160
-515.872	800.000	-0.105	-0.296
-514.858	78.017	0.036	0.039
-513.843	-139.252	0.161	0.017
-512.829	404.800	-0.146	0.310
-511.814	230.474	-0.282	0.465
-510.799	800.000	-0.039	-0.122
-509.785	37.344	-0.163	0.145
-508.770	-29.519	-0.259	-0.149
-507.756	-200.000	-0.021	0.416
-506.741	-98.628	0.152	-0.039
-505.726	800.000	0.090	0.271
-504.712	65.739	-0.173	-0.176
-503.697	-146.465	0.343	0.030
-502.683	13.238	0.155	0.121
-501.668	-131.714	-0.305	0.040
-500.653	-2.641	0.097	0.068
-499.639	346.157	-0.039	-0.078
-498.624	-16.413	-0.269	-0.172
-497.610	295.986	0.049	-0.091
-496.595	800.000	-0.063	-0.211
-495.581	332.959	0.086	-0.168
-494.566	38.649	0.014	-0.013
-493.551	-118.824	-0.043	0.008
-492.537	65.646	-0.033	0.033
-491.522	-76.141	-0.282	-0.100
-490.508	253.444	0.199	-0.342
-489.493	800.000	-0.122	-0.389
-488.478	-128.061	0.135	0.019
-487.464	-200.000	0.054	0.369
-486.449	800.000	-0.154	0.535
-485.435	-200.000	0.029	0.223
-484.420	47.661	-0.140	0.132
-483.405	242.781	0.244	0.411
-482.391	159.992	-0.126	-0.177
-481.376	388.197	0.038	0.079
-480.362	10.158	-0.228	0.174
-479.347	-200.000	0.010	-0.148
-478.332	-77.676	0.221	-0.077
-477.318	-200.000	-0.020	0.087
-476.303	-200.000	0.099	0.459
-475.289	-38.889	-0.251	0.133
-474.274	-200.000	0.075	0.346
-473.259	-124.975	0.314	0.049
-472.245	-1.139	-0.235	0.167
-471.230	-68.069	-0.114	-0.045
-470.216	195.170	0.111	0.169
-469.201	800.000	0.060	0.201
-468.186	-200.000	0.003	-0.177
-467.172	326.719	0.090	0.173
-466.157	-134.383	0.217	-0.027
-465.143	0.008	-0.196	0.140
-464.128	800.000	0.128	0.453
-463.113	-200.000	-0.060	-0.394
-462.099	-84.991	-0.400	-0.126
-461.084	-148.392	-0.120	-0.010
-460.070	-200.000	0.011	-0.126
-459.055	-19.776	-0.171	-0.106
-458.040	-33.678	-0.301	-0.167
-457.026	69.472	0.397	0.410
-456.011	-35.753	-0.254	-0.138
-454.997	673.659	0.116	-0.302
-453.982	-120.482	-0.122	0.021
-452.968	-200.000	0.013	0.063
-451.953	-200.000	-0.013	-0.515
-450.938	-29.880	0.209	0.119
-449.924	-200.000	0.005	0.084
-448.909	121.056	0.125	-0.156
-447.895	-161.029	0.401	0.021
-446.880	124.374	0.166	-0.209
-445.865	-36.440	0.068	-0.037
-444.851	33.971	0.084	-0.073
-443.836	128.465	-0.102	-0.131
-442.822	-200.000	0.012	0.432
-441.807	112.807	0.190	0.231
-440.792	4.894	-0.289	-0.213
-439.778	-97.027	0.238	-0.063
-438.763	-93.309	-0.225	0.063
-437.749	-46.222	-0.321	0.159
-436.734	-200.000	-0.042	-0.185
-435.719	56.774	-0.114	0.112
-434.705	38.753	0.065	-0.058
-433.690	-72.509	0.222	0.082
-432.676	-89.910	0.151	-0.044
-431.661	-200.000	0.047	0.287
-430.646	331.801	-0.064	-0.124
-429.632	-115.947	-0.100	-0.019
-428.617	76.835	-0.127	0.135
-427.603	-45.506	0.361	-0.179
-426.588	-36.192	-0.274	-0.148
-425.573	224.360	0.123	-0.199
-424.559	-1.957	0.250	-0.176
-423.544	72.150	-0.167	-0.174
-422.530	342.257	0.120	-0.235
-421.515	-133.898	0.089	0.011
-420.500	-109.456	0.450	-0.095
-419.486	-90.231	-0.360	0.105
-418.471	674.418	0.053	0.139
-417.457	800.000	-0.079	-0.329
-416.442	-136.604	0.078	0.009
-415.428	573.567	-0.079	0.193
-414.413	-36.261	0.279	0.151
-413.398	229.242	-0.212	-0.347
-412.384	37.411	0.042	0.037
-411.369	29.107	0.040	-0.034
-410.355	-11.514	-0.309	-0.203
-409.340	-86.555	-0.381	0.117
-408.325	-160.402	0.147	-0.008
-407.311	579.763	-0.093	-0.229
-406.296	-115.007	0.335	0.064
-405.282	41.879	-0.232	0.211
-404.267	154.710	0.089	0.122
-403.252	23.576	-0.141	-0.116
-402.238	280.440	-0.140	0.250
-401.223	350.728	0.111	-0.219
-400.209	83.767	-0.213	0.233
-399.194	-84.900	-0.078	-0.025
-398.179	40.367	-0.190	0.171
-397.165	-200.000	0.082	-0.576
-396.150	10.592	0.180	0.137
-395.136	83.307	-0.038	0.041
-394.121	-91.424	0.126	-0.036
-393.106	-93.333	0.267	-0.074
-392.092	-16.393	-0.123	-0.078
-391.077	-200.000	0.034	-0.230
-390.063	216.425	0.112	-0.178
-389.048	-90.562	-0.036	0.011
-388.033	191.275	-0.135	-0.203
-387.019	-24.259	-0.350	0.209
-386.004	800.000	-0.043	0.180
-384.990	457.478	-0.048	0.106
-383.975	495.925	-0.057	-0.132
-382.960	682.990	-0.082	0.214
-381.946	148.552	0.127	-0.171
-380.931	108.261	0.223	0.266
-379.917	-200.000	-0.005	0.342
-378.902	20.543	-0.219	-0.177
-377.888	-31.461	0.285	-0.160
-376.873	-112.235	-0.092	-0.018
-375.858	-68.011	-0.177	-0.069
-374.844	-200.000	-0.013	-0.077
-373.829	-77.757	0.173	0.060
-372.815	328.547	0.019	0.037
-371.800	-173.938	0.396	0.012
-370.785	-43.810	0.143	-0.072
-369.771	-200.000	-0.007	0.111
-368.756	-200.000	-0.053	0.266
-367.742	133.446	-0.111	0.144
-366.727	-200.000	-0.041	0.287
-365.712	76.650	0.147	0.156
-364.698	800.000	-0.013	-0.052
-363.683	800.000	-0.073	-0.227
-362.669	-169.221	0.306	-0.011
-361.654	47.849	0.092	-0.086
-360.639	355.074	0.148	-0.294
-359.625	231.369	-0.167	0.273
-358.610	800.000	-0.032	-0.106
-357.596	232.574	-0.117	-0.192
-356.581	-83.715	0.156	-0.050
-355.566	-153.978	-0.062	-0.004
-354.552	41.665	0.435	0.394
-353.537	537.597	-0.018	0.043
-352.523	-96.532	0.194	-0.051
-351.508	330.911	0.166	-0.320
-350.493	-200.000	0.006	-0.047
-349.479	117.012	0.136	-0.167
-348.464	-13.474	0.337	0.218
-347.450	181.491	-0.089	0.131
-346.435	567.764	0.008	0.018
-345.420	-200.000	-0.022	0.102
-344.406	-23.000	-0.099	0.059
-343.391	154.800	0.010	-0.013
-342.377	-83.560	0.384	0.123
-341.362	267.897	-0.204	-0.358
-340.348	-138.507	0.330	-0.036
-339.333	-97.512	-0.190	0.049
-338.318	-200.000	0.007	-0.220
-337.304	-200.000	0.038	0.185
-336.289	48.413	0.178	0.166
-335.275	-36.146	-0.120	0.065
-334.260	18.346	0.237	0.189
-333.245	-170.122	0.395	-0.014
-332.231	7.650	0.085	0.064
-331.216	-200.000	-0.025	-0.127
-330.202	93.913	-0.127	-0.144
-329.187	800.000	0.087	-0.274
-328.172	594.318	0.030	-0.074
-327.158	18.126	-0.227	0.181
-326.143	-168.873	-0.328	0.012
-325.129	-177.187	0.193	-0.005
-324.114	-200.000	0.065	-0.383
-323.099	14.005	-0.188	0.146
-322.085	-110.890	-0.209	0.043
-321.070	52.259	0.190	-0.180
-320.056	301.254	0.301	-0.555
-319.041	23.218	0.136	0.111
-318.026	197.675	0.126	-0.192
-317.012	-7.288	0.306	-0.207
-315.997	-158.450	0.044	0.003
-314.983	-200.000	0.036	0.351
-313.968	-47.332	0.601	0.292
-312.953	-85.264	-0.211	-0.066
-311.939	121.678	0.180	0.224
-310.924	-138.575	0.268	0.029
-309.910	-63.758	-0.053	0.022
-308.895	-129.147	0.276	-0.039
-307.880	116.785	0.093	-0.114
-306.866	-72.522	0.191	0.070
-305.851	49.812	-0.175	0.165
-304.837	-200.000	0.022	-0.193
-303.822	-200.000	0.023	0.175
-302.807	-200.000	0.051	-0.276
-301.793	-57.352	-0.031	0.014
-300.778	-71.399	0.211	0.079
-299.764	238.178	0.073	-0.120
-298.749	-138.270	0.447	0.049
-297.735	71.359	0.122	-0.127
-296.720	-200.000	-0.048	-0.357
-295.705	800.000	0.045	-0.168
-294.691	49.932	-0.089	-0.084
-293.676	508.106	-0.064	0.147
-292.662	-20.225	0.210	-0.129
-291.647	-134.450	-0.394	-0.048
-290.632	-200.000	-0.016	-0.231
-289.618	283.437	0.072	-0.129
-288.603	23.659	-0.144	-0.118
-287.589	-94.321	-0.427	-0.116
-286.574	800.000	-0.049	0.181
-285.559	25.496	-0.223	-0.185
-284.545	-14.554	0.264	-0.169
-283.530	68.052	-0.241	0.246
-282.516	163.166	-0.120	0.169
-281.501	-200.000	0.075	0.383
-280.486	41.189	-0.169	-0.152
-279.472	507.581	-0.090	-0.209
-278.457	-40.269	0.152	0.079
-277.443	800.000	-0.104	0.438
-276.428	-80.979	-0.248	0.082
-275.413	-123.363	0.581	0.092
-274.399	-2.913	-0.263	-0.183
-273.384	-47.383	0.050	0.024
-272.370	177.391	-0.052	0.075
-271.355	65.772	-0.165	0.167
-270.340	-132.347	-0.150	0.019
-269.326	-70.572	0.289	0.109
-268.311	-72.081	0.156	0.058
-267.297	144.811	-0.251	-0.335
-266.282	171.328	0.201	-0.287
-265.267	-36.121	-0.168	-0.091
-264.253	109.540	0.385	-0.460
-263.238	140.732	0.170	-0.224
-262.224	-91.057	0.069	0.020
-261.209	628.460	0.089	-0.225
-260.195	76.608	-0.179	0.190
-259.180	-49.955	0.211	0.100
-258.165	5.718	0.132	0.097
-257.151	416.502	-0.120	-0.255
-256.136	14.680	0.064	0.050
-255.122	137.113	0.069	-0.090
-254.107	-151.775	0.049	-0.004
-253.092	-200.000	0.011	0.222
-252.078	800.000	0.018	0.061
-251.063	9.550	-0.066	-0.050
-250.049	-7.542	-0.176	0.119
-249.034	-200.000	0.016	-0.413
-248.019	-200.000	-0.065	-0.360
-247.005	-200.000	0.047	-0.346
-245.990	-200.000	0.030	0.267
-244.976	607.427	0.066	-0.163
-243.961	155.196	-0.007	0.010
-242.946	211.089	0.210	-0.329
-241.932	531.881	-0.014	0.034
-240.917	-69.404	-0.240	-0.092
-239.903	-121.416	0.362	0.060
-238.888	423.151	0.059	-0.126
-237.873	-121.878	-0.260	0.043
-236.859	800.000	0.034	-0.107
-235.844	-200.000	0.015	0.548
-234.830	-115.224	-0.091	-0.017
-233.815	-200.000	0.061	-0.349
-232.800	800.000	0.055	0.233
-231.786	-132.043	-0.264	-0.034
-230.771	183.191	-0.144	0.212
-229.757	-63.033	0.323	0.133
-228.742	17.424	0.167	-0.132
-227.727	-169.348	0.180	-0.007
-226.713	-149.251	-0.024	0.002
-225.698	232.042	-0.117	-0.191
-224.684	800.000	0.049	0.196
-223.669	-24.999	0.055	-0.032
-222.655	9.051	0.132	0.099
-221.640	275.548	0.148	-0.260
-220.625	-200.000	-0.013	-0.141
-219.611	-18.225	0.409	0.254
-218.596	-98.773	0.085	-0.021
-217.582	629.221	0.073	0.182
-216.567	281.258	0.083	0.147
-215.552	-60.401	0.432	-0.183
-214.538	-96.593	0.402	0.105
-213.523	68.649	-0.115	-0.118
-212.509	-63.050	-0.182	0.075
-211.494	-152.940	0.258	0.018
-210.479	94.978	-0.226	0.256
-209.465	-200.000	-0.045	0.298
-208.450	705.383	0.141	0.370
-207.436	94.661	-0.225	0.254
-206.421	-36.009	-0.221	0.119
-205.406	41.235	-0.112	-0.100
-204.392	17.791	-0.197	-0.156
-203.377	428.065	-0.082	0.175
-202.363	348.151	-0.080	-0.156
-201.348	199.241	-0.188	-0.286
-200.333	800.000	-0.007	0.023
-199.319	241.675	-0.156	-0.258
-198.304	240.436	-0.105	0.174
-197.290	-200.000	0.014	-0.156
-196.275	-6.300	-0.280	-0.190
-195.260	800.000	-0.024	-0.098
-194.246	142.334	0.173	-0.228
-193.231	-104.126	-0.267	0.062
-192.217	109.774	-0.137	-0.163
-191.202	222.194	-0.098	-0.156
-190.187	800.000	0.018	0.065
-189.173	-137.291	0.360	0.041
-188.158	-20.951	-0.192	-0.117
-187.144	-118.645	-0.223	-0.039
-186.129	-200.000	-0.006	0.058
-185.114	163.956	-0.024	-0.034
-184.100	60.475	0.098	-0.096
-183.085	-116.326	0.106	0.020
-182.071	-35.203	-0.102	0.055
-181.056	99.691	0.134	0.154
-180.042	639.249	-0.013	-0.032
-179.027	-59.893	-0.086	-0.036
-178.012	515.366	-0.121	0.280
-176.998	304.522	-0.104	0.191
-175.983	-200.000	0.017	-0.192
-174.969	70.425	-0.173	-0.178
-173.954	-92.639	0.235	0.066
-172.939	-27.959	0.294	-0.169
-171.925	-98.941	-0.258	0.065
-170.910	-37.862	-0.159	0.084
-169.896	317.366	0.155	0.291
-168.881	144.021	0.229	-0.303
-167.866	109.063	-0.133	0.157
-166.852	301.215	0.078	0.143
-165.837	235.533	0.108	0.177
-164.823	-171.575	0.207	0.007
-163.808	-18.857	-0.235	-0.145
-162.793	-200.000	0.002	0.015
-161.779	-97.538	-0.159	0.041
-160.764	47.186	-0.113	0.104
-159.750	-12.082	0.062	0.041
-158.735	-151.703	-0.213	0.016
-157.720	-200.000	0.028	0.134
-156.706	-181.340	-0.279	0.005
-155.691	-55.960	-0.019	-0.008
-154.677	11.346	0.034	0.026
-153.662	-27.494	-0.147	-0.085
-152.647	-38.061	-0.336	-0.177
-151.633	40.476	-0.061	-0.055
-150.618	800.000	-0.015	-0.045
-149.604	-75.372	-0.108	-0.038
-148.589	251.496	-0.079	-0.133
-147.574	-151.135	-0.160	0.012
-146.560	-200.000	-0.037	-0.171
-145.545	-10.481	0.112	-0.074
-144.531	104.110	0.089	0.104
-143.516	-200.000	0.026	0.159
-142.502	180.229	0.218	0.317
-141.487	-168.692	0.087	0.003
-140.472	650.118	0.052	0.133
-139.458	-44.055	0.190	0.095
-138.443	85.697	-0.380	-0.414
-137.429	-114.385	-0.243	-0.046
-136.414	1.393	-0.030	-0.021
-135.399	-127.771	0.040	-0.006
-134.385	-144.330	0.370	0.034
-133.370	800.000	-0.039	-0.139
-132.356	-81.537	0.135	0.044
-131.341	-160.791	0.343	-0.018
-130.326	-33.634	0.288	0.157
-129.312	84.505	0.085	-0.092
-128.297	53.112	0.074	0.071
-127.283	-138.618	0.246	0.027
-126.268	-68.619	0.082	-0.032
-125.253	386.986	-0.164	-0.335
-124.239	-53.269	-0.531	0.241
-123.224	-129.430	-0.174	0.024
-122.210	-110.245	-0.106	0.022
-121.195	39.508	0.391	0.347
-120.180	-26.437	-0.093	0.054
-119.166	-200.000	-0.056	0.253
-118.151	228.050	-0.075	0.120
-117.137	800.000	0.091	-0.366
-116.122	-200.000	-0.071	0.443
-115.107	-5.015	0.016	-0.011
-114.093	-74.664	-0.044	0.016
-113.078	140.515	-0.155	-0.203
-112.064	-200.000	0.011	0.143
-111.049	800.000	0.078	-0.281
-110.034	-200.000	0.033	0.207
-109.020	306.468	0.095	-0.175
-108.005	-200.000	-0.005	-0.039
-106.991	800.000	-0.044	0.133
-105.976	159.508	0.160	0.220
-104.962	-86.207	0.047	-0.014
-103.947	-200.000	-0.004	-0.024
-102.932	79.884	-0.136	-0.144
-101.918	-132.653	-0.305	0.039
-100.903	800.000	0.077	0.318
-99.889	473.480	-0.085	0.190
-98.874	-137.983	0.234	0.026
-97.859	-125.627	-0.175	-0.026
-96.845	-76.892	0.250	-0.087
-95.830	-58.697	-0.011	-0.005
-94.816	306.090	0.153	0.281
-93.801	-200.000	0.006	0.240
-92.786	-55.039	0.227	-0.101
-91.772	-178.411	0.198	0.005
-90.757	59.309	-0.128	-0.125
-89.743	-55.860	0.418	0.185
-88.728	5.066	-0.119	0.087
-87.713	-184.002	0.176	0.003
-86.699	484.854	0.052	-0.118
-85.684	-28.653	0.126	-0.072
-84.670	108.226	0.106	-0.125
-83.655	43.496	0.139	0.126
-82.640	293.783	-0.184	0.333
-81.626	225.180	-0.073	-0.117
-80.611	-200.000	0.026	0.333
-79.597	652.422	-0.088	0.223
-78.582	-200.000	0.008	0.040
-77.567	218.222	-0.075	0.118
-76.553	134.664	-0.233	0.299
-75.538	84.987	0.327	-0.354
-74.524	272.203	-0.070	0.123
-73.509	182.310	0.113	0.164
-72.494	503.482	0.057	-0.130
-71.480	354.604	-0.050	0.099
-70.465	327.733	-0.011	-0.021
-69.451	-142.610	-0.069	0.007
-68.436	-38.191	0.215	0.112
-67.422	-58.109	-0.122	-0.053
-66.407	-9.711	0.118	0.078
-65.392	427.613	0.140	-0.298
-64.378	-4.345	-0.107	0.073
-63.363	80.275	-0.069	-0.073
-62.349	119.311	-0.077	0.094
-61.334	-6.580	-1.109	-0.746
-60.319	284.820	0.384	0.683
-59.305	800.000	-0.153	-0.644
-58.290	344.020	0.543	1.053
-57.276	800.000	0.406	1.519
-56.261	-200.000	95.583	548.050
-55.246	499.038	1419.010	3231.168
-54.232	146.349	2636.789	3497.801
-53.217	108.989	2232.714	2638.222
-52.203	44.490	1757.762	1595.548
-51.188	37.407	1566.685	1372.272
-50.173	35.004	1540.019	1332.158
-49.159	52.420	1588.369	1497.522
-48.144	55.498	1607.034	1536.840
-47.130	37.746	1564.708	1372.710
-46.115	34.619	1548.990	1337.006
-45.100	34.457	1545.550	1332.856
-44.086	34.323	1544.048	1330.569
-43.071	34.178	1542.028	1327.766
-42.057	34.287	1540.129	1326.838
-41.042	34.330	1538.733	1325.879
-40.027	34.293	1537.512	1324.515
-39.013	34.296	1535.960	1323.152
-37.998	34.345	1534.371	1322.064
-36.984	34.360	1533.471	1321.346
-35.969	34.285	1532.007	1319.508
-34.954	34.226	1530.783	1317.993
-33.940	34.272	1528.721	1316.483
-32.925	34.299	1527.610	1315.662
-31.911	34.346	1526.666	1315.121
-30.896	34.384	1524.935	1313.843
-29.881	34.381	1523.515	1312.546
-28.867	34.393	1521.990	1311.262
-27.852	34.428	1520.503	1310.171
-26.838	34.375	1519.416	1308.813
-25.823	34.338	1517.598	1306.946
-24.809	34.297	1516.264	1305.463
-23.794	34.384	1514.676	1304.640
-22.779	34.387	1513.476	1303.576
-21.765	34.302	1512.991	1302.525
-20.750	34.281	1511.679	1301.198
-19.736	34.396	1510.183	1300.645
-18.721	34.327	1509.771	1299.771
-17.706	34.355	1508.170	1298.530
-16.692	34.246	1507.717	1297.345
-15.677	34.390	1505.799	1296.621
-14.663	34.295	1505.603	1295.753
-13.648	34.286	1504.689	1294.853
-12.633	34.221	1503.673	1293.487
-11.619	34.306	1502.392	1292.913
-10.604	34.279	1501.726	1292.102
-9.590	34.260	1500.707	1291.048
-8.575	34.294	1499.900	1290.532
-7.560	34.317	1498.873	1289.751
-6.546	34.283	1497.942	1288.673
-5.531	34.223	1497.533	1287.862
-4.517	34.273	1495.883	1286.729
-3.502	34.242	1495.386	1286.043
-2.487	34.286	1493.960	1285.062
-1.473	34.305	1493.041	1284.346
-0.458	34.291	1491.850	1283.176
0.556	33.098	1481.816	1271.358
1.571	29.724	1453.867	1224.954
2.586	25.364	1388.562	1142.165
3.600	23.063	1301.467	1056.699
4.615	21.232	1253.949	1007.476
5.629	18.145	1197.071	944.666
6.644	9.468	1108.653	830.237
7.659	2.030	1065.893	761.151
8.673	0.890	1059.822	751.092
9.688	0.614	1057.047	747.694
10.702	0.567	1055.674	746.421
11.717	0.629	1053.547	745.159
12.731	3.231	1056.876	760.309
13.746	11.457	1068.025	809.181
14.761	17.238	1075.122	843.257
15.775	17.704	1074.032	844.636
16.790	16.952	1072.376	839.539
17.804	15.935	1070.312	832.822
18.819	15.002	1068.824	826.978
19.834	14.627	1066.560	823.307
20.848	14.397	1065.566	821.333
21.863	13.943	1065.585	819.036
22.877	13.739	1064.461	817.094
23.892	13.579	1063.462	815.466
24.907	13.499	1062.759	814.462
25.921	13.406	1062.292	813.578
26.936	13.490	1061.468	813.286
27.950	13.510	1060.428	812.515
28.965	13.639	1059.420	812.304
29.980	13.638	1058.550	811.556
30.994	13.627	1058.082	811.073
32.009	13.796	1056.984	810.987
33.023	13.651	1056.646	809.945
34.038	13.614	1055.770	809.023
35.053	13.691	1054.581	808.417
36.067	13.633	1053.916	807.550
37.082	13.613	1053.053	806.721
38.096	13.580	1052.533	806.090
39.111	13.738	1051.635	806.101
40.126	13.813	1050.655	805.640
41.140	13.615	1049.573	803.780
42.155	13.431	1048.788	802.218
43.169	13.460	1048.064	801.733
44.184	13.399	1046.801	800.399
45.199	13.565	1044.784	799.589
46.213	13.526	1044.606	799.192
47.228	13.530	1043.348	798.179
48.242	13.615	1042.608	797.953
49.257	13.596	1041.563	796.992
50.271	13.634	1040.802	796.521
51.286	13.523	1040.071	795.358
52.301	13.760	1038.802	795.453
53.315	13.583	1038.445	794.262
54.330	13.620	1037.654	793.761
55.344	13.510	1036.761	792.484
56.359	13.590	1035.512	791.840
57.374	13.471	1034.941	790.764
58.388	13.480	1034.277	790.233
59.403	13.460	1033.781	789.689
60.417	13.427	1033.128	788.959
61.432	13.457	1031.722	787.961
62.447	13.419	1031.227	787.333
63.461	13.495	1030.150	786.802
64.476	13.359	1029.747	785.778
65.490	13.445	1028.837	785.422
66.505	13.415	1027.545	784.223
67.520	13.498	1026.927	784.074
68.534	13.411	1026.260	783.087
69.549	13.442	1025.522	782.600
70.563	13.445	1024.602	781.842
71.578	13.417	1024.313	781.420
72.593	13.448	1023.092	780.566
73.607	13.407	1022.027	779.491
74.622	13.469	1020.950	778.895
75.636	13.401	1020.567	778.212
76.651	13.374	1019.591	777.272
77.666	13.403	1018.804	776.741
78.680	13.373	1018.368	776.198
79.695	13.348	1017.928	775.674
80.709	13.477	1016.644	775.235
81.724	13.441	1015.694	774.270
82.739	13.376	1015.407	773.682
83.753	13.371	1014.640	773.006
84.768	13.547	1013.781	773.105
85.782	13.659	1013.007	772.969
86.797	13.634	1012.142	772.121
87.812	13.763	1010.895	771.701
88.826	13.532	1010.720	770.426
89.841	13.596	1009.700	769.879
90.855	13.661	1008.386	769.108
91.870	13.646	1007.933	768.625
92.884	13.531	1007.655	767.814
93.899	13.717	1006.471	767.705
94.914	13.711	1005.586	766.934
95.928	13.817	1004.809	766.764
96.943	13.856	1004.115	766.347
97.957	13.675	1003.653	765.089
98.972	13.701	1002.596	764.336
99.987	13.659	1002.060	763.669
101.001	13.673	1001.488	763.229
102.016	13.705	1000.754	762.747
103.030	13.666	999.377	761.451
104.045	13.688	998.422	760.760
105.060	13.639	998.065	760.196
106.074	13.637	996.766	759.128
107.089	13.618	995.579	758.071
108.103	13.504	994.768	756.865
109.118	13.590	994.123	756.701
110.133	13.540	993.771	756.134
111.147	13.580	992.079	754.966
112.162	13.527	991.722	754.384
113.176	13.505	991.010	753.675
114.191	13.678	989.967	753.601
115.206	13.645	988.515	752.282
116.220	13.632	987.801	751.610
117.235	13.675	987.043	751.164
118.249	13.623	986.387	750.363
119.264	13.610	985.658	749.681
120.279	13.533	985.164	748.892
121.293	13.498	984.188	747.927
122.308	13.683	983.146	747.903
123.322	13.525	982.367	746.531
124.337	13.455	981.756	745.686
125.352	13.614	980.470	745.357
126.366	13.579	979.325	744.264
127.381	13.642	978.210	743.633
128.395	13.584	977.315	742.629
129.410	13.577	976.267	741.733
130.424	13.597	975.574	741.234
131.439	13.544	974.582	740.176
132.454	13.675	973.900	740.176
133.468	13.611	973.189	739.287
134.483	13.674	972.343	738.858
135.497	13.635	971.689	738.124
136.512	13.691	971.177	737.919
137.527	13.686	970.012	736.943
138.541	13.664	969.102	736.090
139.556	13.711	968.429	735.723
140.570	13.800	967.648	735.461
141.585	13.734	966.838	734.486
142.600	13.650	966.376	733.701
143.614	13.739	965.409	733.291
144.629	13.678	964.940	732.603
145.643	13.900	963.898	732.724
146.658	13.818	963.289	731.837
147.673	13.741	962.258	730.650
148.687	13.838	961.369	730.335
149.702	13.685	960.812	729.175
150.716	13.720	959.736	728.448
151.731	13.727	959.077	727.916
152.746	13.631	958.378	726.897
153.760	13.770	957.642	726.884
154.775	13.722	956.774	725.953
155.789	13.740	955.980	725.364
156.804	13.796	954.988	724.790
157.819	13.774	954.291	724.104
158.833	13.830	953.315	723.543
159.848	13.806	953.144	723.244
160.862	14.001	951.899	723.083
161.877	13.955	951.419	722.454
162.892	13.836	950.796	721.399
163.906	13.819	949.968	720.633
164.921	13.787	949.063	719.746
165.935	13.862	948.058	719.245
166.950	13.803	946.859	718.018
167.964	13.915	945.694	717.555
168.979	13.913	944.754	716.770
169.994	13.809	943.976	715.667
171.008	13.882	942.868	715.078
172.023	13.979	942.689	715.294
173.037	13.868	942.099	714.307
174.052	13.916	941.214	713.778
175.067	13.946	940.184	713.066
176.081	13.963	939.395	712.476
177.096	14.066	938.516	712.187
178.110	13.920	937.860	711.000
179.125	13.942	937.592	710.831
180.140	13.948	936.319	709.828
181.154	13.956	935.612	709.262
182.169	14.070	934.687	708.985
183.183	14.158	934.162	708.898
184.198	14.023	933.911	708.071
185.213	14.091	932.996	707.604
186.227	14.052	932.384	706.911
187.242	14.153	931.803	706.836
188.256	14.219	930.986	706.435
189.271	14.234	930.337	705.945
190.286	14.242	929.679	705.415
191.300	14.099	929.007	704.239
192.315	14.070	928.278	703.499
193.329	14.018	927.754	702.822
194.344	13.998	926.810	701.960
195.359	14.067	926.391	701.872
196.373	14.095	926.084	701.696
197.388	14.089	925.537	701.192
198.402	14.238	924.650	701.085
199.417	14.338	924.392	701.250
200.432	14.308	924.060	700.811
201.446	14.252	923.170	699.837
202.461	14.419	922.850	700.236
203.475	14.501	922.176	700.004
204.490	14.381	921.528	698.950
205.504	14.305	920.963	698.138
206.519	14.397	920.205	697.887
207.534	14.307	919.548	696.952
208.548	14.425	918.534	696.613
209.563	14.292	917.942	695.549
210.577	14.427	916.882	695.248
211.592	14.399	916.396	694.701
212.607	14.503	916.214	694.935
213.621	14.391	915.938	694.196
214.636	14.480	914.404	693.344
215.650	14.542	913.897	693.154
216.665	14.474	913.764	692.710
217.680	14.503	913.113	692.277
218.694	14.634	912.324	692.159
219.709	14.598	912.070	691.757
220.723	14.681	911.259	691.422
221.738	14.686	910.467	690.781
222.753	14.613	909.604	689.765
223.767	14.659	908.863	689.331
224.782	14.757	908.263	689.219
225.796	14.683	907.785	688.490
226.811	14.670	906.893	687.700
227.826	14.776	906.155	687.517
228.840	14.781	905.143	686.707
229.855	14.647	905.103	686.067
230.869	14.672	904.360	685.543
231.884	14.637	903.731	684.863
232.899	14.680	903.152	684.542
233.913	14.715	902.093	683.821
234.928	14.659	901.421	683.022
235.942	14.783	900.926	683.092
236.957	14.714	899.886	681.961
237.972	14.744	899.530	681.757
238.986	14.803	898.725	681.326
240.001	14.829	898.271	681.024
241.015	14.679	897.398	679.696
242.030	14.770	896.998	679.699
243.045	14.859	896.153	679.361
244.059	14.870	895.307	678.705
245.074	14.872	894.964	678.393
246.088	14.829	894.144	677.537
247.103	14.883	893.657	677.327
248.117	14.821	892.932	676.466
249.132	14.953	892.668	676.739
250.147	14.937	892.109	676.191
251.161	15.089	891.224	676.077
252.176	15.080	890.694	675.579
253.190	15.014	889.864	674.624
254.205	15.072	889.283	674.356
255.220	15.094	888.852	674.057
256.234	15.222	887.663	673.609
257.249	15.247	887.469	673.503
258.263	15.228	887.209	673.171
259.278	15.271	886.277	672.575
260.293	15.317	885.997	672.489
261.307	15.264	885.174	671.593
262.322	15.265	885.027	671.424
263.336	15.199	884.256	670.519
264.351	15.273	883.814	670.419
265.366	15.417	882.875	670.224
266.380	15.495	881.890	669.725
267.395	15.387	881.228	668.734
268.409	15.550	880.260	668.588
269.424	15.528	879.807	668.100
270.439	15.364	879.066	666.827
271.453	15.445	878.452	666.622
272.468	15.575	877.547	666.394
273.482	15.447	876.920	665.349
274.497	15.468	876.302	664.905
275.512	15.379	876.217	664.429
276.526	15.434	875.131	663.763
277.541	15.447	874.426	663.223
278.555	15.501	873.714	662.835
279.570	15.582	873.445	662.893
280.585	15.661	872.751	662.620
281.599	15.568	872.340	661.882
282.614	15.585	871.883	661.544
283.628	15.714	870.845	661.205
284.643	15.598	870.431	660.375
285.657	15.479	870.491	659.898
286.672	15.654	869.544	659.808
287.687	15.662	869.030	659.391
288.701	15.691	868.491	659.038
289.716	15.819	867.687	658.868
290.730	15.670	867.332	657.959
291.745	15.666	867.028	657.653
292.760	15.788	865.862	657.186
293.774	15.828	864.882	656.542
294.789	15.833	864.654	656.331
295.803	16.003	863.983	656.424
296.818	15.845	863.364	655.280
297.833	15.809	862.825	654.673
298.847	15.916	862.032	654.429
299.862	15.796	861.651	653.618
300.876	15.846	860.932	653.208
301.891	15.916	860.137	652.817
302.906	15.955	859.347	652.312
303.920	15.869	858.901	651.582
304.935	16.056	858.032	651.588
305.949	16.080	857.453	651.186
306.964	16.116	857.238	651.104
307.979	16.053	856.647	650.354
308.993	16.112	855.795	649.876
310.008	16.184	855.436	649.822
311.022	16.064	854.836	648.849
312.037	16.017	854.330	648.227
313.052	16.098	853.818	648.092
314.066	15.971	853.651	647.420
315.081	15.959	852.605	646.523
316.095	16.000	851.873	646.067
317.110	16.200	851.244	646.299
318.125	16.072	851.184	645.705
319.139	16.168	850.556	645.541
320.154	16.142	849.791	644.803
321.168	16.060	849.325	644.078
322.183	16.023	848.923	643.576
323.197	16.027	848.631	643.313
324.212	16.164	847.719	643.086
325.227	16.074	847.332	642.394
326.241	16.219	846.517	642.272
327.256	16.296	845.887	642.029
328.270	16.197	845.692	641.447
329.285	16.219	844.889	640.867
330.300	16.199	844.737	640.619
331.314	16.199	843.965	639.973
332.329	16.334	843.173	639.830
333.343	16.397	842.443	639.459
334.358	16.288	842.138	638.759
335.373	16.273	841.811	638.397
336.387	16.372	840.781	637.933
337.402	16.438	840.300	637.759
338.416	16.374	839.738	637.034
339.431	16.562	839.000	637.126
340.446	16.373	838.727	636.153
341.460	16.562	838.422	636.575
342.475	16.568	837.466	635.816
343.489	16.538	836.947	635.253
344.504	16.596	836.722	635.243
345.519	16.602	836.135	634.765
346.533	16.596	835.292	634.046
347.548	16.669	834.800	633.889
348.562	16.781	833.926	633.591
349.577	16.658	833.583	632.812
350.592	16.628	833.017	632.213
351.606	16.576	832.773	631.778
352.621	16.681	832.380	631.817
353.635	16.521	832.227	631.048
354.650	16.620	831.774	631.017
355.665	16.615	831.393	630.655
356.679	16.823	830.682	630.835
357.694	16.624	830.171	629.648
358.708	16.711	829.420	629.350
359.723	16.745	828.740	628.901
360.738	16.687	828.604	628.528
361.752	16.759	827.919	628.219
362.767	16.722	827.942	628.044
363.781	16.695	827.152	627.288
364.796	16.948	826.409	627.607
365.810	16.943	825.842	627.104
366.825	17.021	825.928	627.400
367.840	17.002	825.190	626.714
368.854	17.008	825.080	626.596
369.869	16.941	824.761	626.054
370.883	16.964	824.303	625.734
371.898	17.012	823.202	625.021
372.913	16.893	822.833	624.247
373.927	16.971	822.324	624.093
374.942	17.061	821.510	623.748
375.956	16.990	820.682	622.807
376.971	17.111	820.103	622.754
377.986	17.077	819.848	622.380
379.000	17.159	819.523	622.381
380.015	17.272	818.702	622.115
381.029	17.266	818.067	621.556
382.044	17.085	817.612	620.492
383.059	17.117	817.209	620.248
384.073	17.197	816.864	620.224
385.088	17.269	816.151	619.892
386.102	17.314	815.162	619.247
387.117	17.168	815.091	618.607
388.132	17.113	814.671	618.035
389.146	17.082	814.348	617.623
390.161	17.321	813.836	618.049
391.175	17.345	813.479	617.811
392.190	17.320	812.813	617.159
393.205	17.282	812.638	616.834
394.219	17.289	812.264	616.519
395.234	17.382	811.311	616.080
396.248	17.263	811.014	615.368
397.263	17.110	810.969	614.724
398.278	17.299	810.164	614.746
399.292	17.233	809.670	614.075
400.307	17.201	809.394	613.696
401.321	17.295	808.982	613.669
402.336	17.393	808.268	613.426
403.350	17.570	807.998	613.806
404.365	17.329	807.568	612.557
405.380	17.487	807.090	612.710
406.394	17.387	806.628	611.944
407.409	17.653	805.792	612.212
408.423	17.563	805.766	611.813
409.438	17.501	805.409	611.267
410.453	17.592	804.916	611.163
411.467	17.669	804.179	610.826
412.482	17.770	803.533	610.646
413.496	17.590	803.582	609.984
414.511	17.801	802.844	610.125
415.526	17.762	802.512	609.678
416.540	17.789	802.418	609.647
417.555	17.889	801.612	609.340
418.569	17.769	801.268	608.597
419.584	17.506	801.114	607.486
420.599	17.781	800.507	607.952
421.613	105.694	1285.150	1449.822
422.628	90.875	1355.746	1449.918
