DTS Sentinel unit serial number:	SN413079Multiplexer serial number:	ORYXHardware model number:	OX4-SRSoftware version number:	ORYX F/W v4.00 Oryx Data Collector v3.7.2.0data status	okinstallation	princeton_trtdifferential loss correction	single-endedforward channel	channel 3reverse channel	N/Adate	2019/09/15time	01:36:35forward acquisition time	60.00reverse acquisition time	0.00gamma	496.2192k internal	0.2321k external	0.2321temperature offset calibration	0.9965default loss term (dB/km)	0.3790temperature slope calibration	1.0000multiplexer offset coefficient	1.0000multiplexer slope coefficient	1.0000fibre end	0.00T internal ref (°C)	31.84T ext. ref 1 (°C)	4.52T ext. ref 2 (°C)	26.75length (m)	temperature (°C)	Stokes	anti-Stokes-747.200	-200.000	0.012	0.184
-746.185	44.603	0.335	0.311
-745.171	67.091	0.217	0.224
-744.156	-200.000	-0.043	0.208
-743.142	35.739	0.271	0.241
-742.127	-200.000	-0.041	0.301
-741.112	-58.413	0.294	0.129
-740.098	-106.570	0.417	-0.094
-739.083	522.312	-0.050	0.118
-738.069	528.860	0.135	0.321
-737.054	165.690	0.201	-0.288
-736.039	-75.631	-0.577	0.207
-735.025	10.491	0.066	0.051
-734.010	186.937	-0.077	-0.116
-732.996	-200.000	-0.029	-0.255
-731.981	47.254	0.089	-0.084
-730.966	588.773	-0.081	-0.201
-729.952	206.893	-0.239	-0.376
-728.937	94.083	-0.070	0.080
-727.923	-166.888	0.077	0.003
-726.908	800.000	-0.104	-0.388
-725.894	170.997	-0.137	-0.199
-724.879	-104.576	-0.314	-0.073
-723.864	77.726	0.153	-0.165
-722.850	179.034	0.148	-0.218
-721.835	-143.651	-0.187	-0.018
-720.821	-200.000	0.005	-0.040
-719.806	-160.756	-0.265	0.014
-718.791	-114.686	0.122	-0.024
-717.777	154.768	0.068	-0.095
-716.762	334.196	0.100	-0.196
-715.748	800.000	-0.019	0.070
-714.733	114.939	0.216	0.266
-713.718	22.666	0.314	-0.259
-712.704	562.767	-0.055	-0.134
-711.689	-36.480	-0.284	0.154
-710.675	195.877	-0.085	-0.131
-709.660	-69.084	-0.273	0.106
-708.645	-29.331	0.134	0.078
-707.631	237.631	0.078	0.131
-706.616	90.155	0.042	-0.048
-705.602	-200.000	0.031	-0.141
-704.587	-52.378	0.129	-0.060
-703.572	110.926	-0.105	0.127
-702.558	16.937	0.112	0.089
-701.543	-79.918	0.236	0.080
-700.529	35.743	-0.257	-0.228
-699.514	245.884	0.067	-0.114
-698.499	337.490	0.100	-0.196
-697.485	-200.000	0.039	-0.240
-696.470	-158.321	0.429	0.025
-695.456	151.437	0.046	-0.063
-694.441	-200.000	-0.051	-0.350
-693.426	-8.835	-0.083	-0.056
-692.412	-200.000	0.017	0.145
-691.397	-62.562	-0.065	-0.027
-690.383	19.593	-0.029	-0.024
-689.368	-56.250	0.304	-0.137
-688.354	-23.967	-0.227	-0.137
-687.339	68.551	0.253	0.262
-686.324	-71.467	-0.163	0.061
-685.310	75.584	0.175	-0.186
-684.295	-28.700	-0.251	-0.146
-683.281	-200.000	0.018	-0.136
-682.266	265.031	0.071	0.124
-681.251	-15.927	0.067	0.043
-680.237	-200.000	-0.017	-0.253
-679.222	-200.000	-0.015	-0.226
-678.208	-66.681	0.221	0.088
-677.193	-200.000	-0.000	0.039
-676.178	134.564	-0.177	-0.231
-675.164	-200.000	-0.013	-0.175
-674.149	-200.000	0.031	0.180
-673.135	59.757	-0.289	-0.287
-672.120	150.387	0.167	-0.229
-671.105	-50.488	0.213	-0.101
-670.091	-140.275	0.302	0.032
-669.076	-112.994	-0.206	-0.041
-668.062	302.898	-0.130	-0.242
-667.047	800.000	0.079	-0.244
-666.032	0.130	-0.305	-0.219
-665.018	-49.982	0.124	-0.059
-664.003	-144.529	0.294	-0.027
-662.989	484.628	-0.020	-0.045
-661.974	81.539	-0.118	0.129
-660.959	257.360	-0.070	-0.121
-659.945	24.676	-0.045	0.038
-658.930	-200.000	0.041	-0.458
-657.916	-100.472	-0.228	-0.057
-656.901	183.036	-0.106	-0.158
-655.886	24.014	0.183	0.152
-654.872	528.071	-0.046	-0.109
-653.857	-170.533	0.247	-0.009
-652.843	-174.005	-0.208	0.006
-651.828	231.050	0.099	0.164
-650.814	102.629	0.081	-0.096
-649.799	295.577	-0.160	-0.295
-648.784	-200.000	-0.012	-0.540
-647.770	-200.000	0.043	-0.423
-646.755	68.709	-0.106	0.109
-645.741	65.670	-0.092	0.094
-644.726	-13.159	-0.158	0.103
-643.711	-105.644	-0.291	0.066
-642.697	349.575	0.075	0.149
-641.682	93.941	-0.043	0.050
-640.668	77.157	0.120	0.128
-639.653	800.000	0.028	0.090
-638.638	-128.180	-0.230	0.033
-637.624	184.538	0.056	0.084
-636.609	-200.000	0.033	0.180
-635.595	61.251	-0.073	-0.073
-634.580	-200.000	-0.011	0.089
-633.565	16.423	-0.192	-0.153
-632.551	-97.663	0.185	0.048
-631.536	-200.000	-0.009	-0.116
-630.522	-78.919	-0.095	0.032
-629.507	48.185	-0.123	0.115
-628.492	-200.000	-0.005	0.397
-627.478	78.913	-0.122	-0.131
-626.463	66.944	-0.257	-0.263
-625.449	-200.000	-0.007	-0.229
-624.434	-116.594	-0.282	-0.052
-623.419	-99.860	0.319	0.080
-622.405	-200.000	-0.034	0.168
-621.390	-200.000	0.012	-0.158
-620.376	-23.240	0.268	0.162
-619.361	-200.000	-0.024	0.141
-618.346	-26.478	-0.281	0.166
-617.332	-32.462	0.116	0.065
-616.317	97.599	0.131	0.151
-615.303	73.589	-0.138	0.145
-614.288	-94.931	0.100	-0.027
-613.273	-98.818	-0.153	-0.039
-612.259	-133.936	-0.054	-0.007
-611.244	49.619	-0.274	-0.260
-610.230	-139.854	-0.381	-0.041
-609.215	-200.000	-0.025	0.203
-608.201	-125.863	-0.227	0.034
-607.186	800.000	-0.155	-0.544
-606.171	-48.075	-0.124	0.060
-605.157	-136.397	0.055	0.006
-604.142	590.014	-0.031	-0.076
-603.128	-200.000	-0.011	0.052
-602.113	-200.000	0.013	-0.141
-601.098	-46.357	0.316	0.156
-600.084	-21.613	-0.180	0.110
-599.069	-143.962	0.301	0.028
-598.055	290.693	-0.044	0.080
-597.040	-78.711	0.494	0.170
-596.025	-110.047	0.121	-0.025
-595.011	-73.580	0.161	0.059
-593.996	-200.000	0.000	-0.403
-592.982	-200.000	-0.029	0.377
-591.967	88.504	-0.175	-0.195
-590.952	-16.556	-0.108	-0.069
-589.938	-79.243	-0.148	0.050
-588.923	23.821	-0.072	-0.059
-587.909	-25.364	-0.130	0.077
-586.894	456.148	-0.091	-0.203
-585.879	-100.221	-0.085	-0.021
-584.865	30.699	-0.269	-0.231
-583.850	280.048	0.058	-0.104
-582.836	2.219	0.273	-0.198
-581.821	-126.215	0.098	-0.015
-580.806	-65.384	0.032	-0.013
-579.792	-24.260	0.238	-0.142
-578.777	-3.418	0.142	-0.099
-577.763	800.000	0.058	0.175
-576.748	-50.842	0.112	-0.053
-575.733	-121.012	0.099	-0.017
-574.719	-46.396	0.163	-0.080
-573.704	-139.328	-0.191	0.021
-572.690	257.210	-0.088	-0.152
-571.675	-168.561	0.359	-0.014
-570.661	-78.260	-0.341	0.118
-569.646	-12.885	0.158	-0.103
-568.631	6.161	-0.233	0.174
-567.617	514.786	0.052	-0.121
-566.602	800.000	0.073	0.277
-565.588	120.245	0.053	-0.066
-564.573	346.574	0.015	0.030
-563.558	-19.902	-0.176	0.109
-562.544	497.030	0.083	0.191
-561.529	-56.420	-0.319	0.142
-560.515	430.665	0.047	0.102
-559.500	-200.000	-0.032	-0.245
-558.485	-88.152	-0.180	-0.054
-557.471	-27.471	0.246	0.143
-556.456	-94.406	0.031	-0.008
-555.442	-146.939	0.387	0.033
-554.427	-8.083	-0.118	0.080
-553.412	-200.000	-0.006	-0.117
-552.398	-50.761	-0.193	-0.091
-551.383	-169.409	0.123	-0.005
-550.369	150.719	-0.077	-0.105
-549.354	-200.000	-0.057	-0.283
-548.339	330.869	-0.153	-0.295
-547.325	5.815	0.299	-0.222
-546.310	13.568	-0.233	-0.182
-545.296	96.254	-0.099	-0.113
-544.281	-133.354	-0.121	0.015
-543.266	114.961	0.056	-0.069
-542.252	-35.996	-0.229	0.124
-541.237	-200.000	-0.096	0.557
-540.223	-7.400	0.349	0.237
-539.208	270.836	0.109	0.192
-538.193	-124.168	-0.169	0.027
-537.179	-18.825	-0.174	-0.109
-536.164	-46.022	-0.153	0.075
-535.150	-177.486	0.100	-0.002
-534.135	-3.446	0.351	-0.245
-533.121	-200.000	-0.024	-0.324
-532.106	151.681	0.068	-0.092
-531.091	29.439	0.196	0.167
-530.077	-100.490	0.437	-0.108
-529.062	377.644	-0.113	0.231
-528.048	-75.093	-0.176	-0.063
-527.033	-98.712	0.082	-0.021
-526.018	638.624	-0.043	0.109
-525.004	75.466	-0.071	-0.075
-523.989	800.000	-0.093	-0.346
-522.975	-71.211	-0.246	-0.093
-521.960	-15.404	-0.155	-0.099
-520.945	46.362	-0.218	-0.202
-519.931	-17.534	0.153	0.096
-518.916	270.476	-0.095	0.167
-517.902	-200.000	0.016	-0.097
-516.887	70.995	0.025	0.025
-515.872	-125.498	0.146	0.022
-514.858	198.134	-0.203	-0.310
-513.843	476.114	0.049	-0.111
-512.829	173.214	-0.041	-0.060
-511.814	-40.821	-0.266	-0.138
-510.799	-140.951	-0.048	-0.005
-509.785	-57.965	0.078	-0.034
-508.770	391.647	0.109	-0.228
-507.756	-126.191	-0.520	0.078
-506.741	121.009	-0.061	-0.077
-505.726	800.000	-0.062	-0.233
-504.712	800.000	-0.040	0.131
-503.697	-81.814	-0.123	0.040
-502.683	-99.119	-0.220	-0.056
-501.668	-200.000	-0.056	-0.338
-500.653	65.746	-0.234	0.238
-499.639	94.082	-0.044	0.050
-498.624	-11.170	-0.380	0.251
-497.610	485.359	0.095	0.217
-496.595	-182.864	0.268	0.005
-495.581	48.387	-0.106	-0.100
-494.566	-136.222	-0.333	0.039
-493.551	800.000	0.059	-0.180
-492.537	0.340	0.039	0.028
-491.522	-156.648	0.293	-0.018
-490.508	-37.030	0.160	0.086
-489.493	40.050	-0.147	-0.132
-488.478	438.606	-0.096	-0.210
-487.464	-84.461	-0.324	0.103
-486.449	-87.073	0.444	0.135
-485.435	48.279	-0.127	0.119
-484.420	510.460	-0.167	0.388
-483.405	-82.281	-0.285	0.093
-482.391	125.783	-0.096	-0.122
-481.376	-200.000	0.038	-0.265
-480.362	-107.858	0.111	-0.024
-479.347	523.514	-0.075	0.176
-478.332	-12.906	0.041	0.027
-477.318	-92.208	0.280	-0.079
-476.303	392.976	0.127	-0.265
-475.289	-37.126	-0.297	-0.159
-474.274	-78.971	0.237	0.081
-473.259	-49.470	-0.222	0.106
-472.245	-130.411	-0.176	0.024
-471.230	752.585	-0.055	0.149
-470.216	136.299	-0.011	-0.014
-469.201	90.235	-0.125	0.140
-468.186	-66.738	-0.385	-0.152
-467.172	27.579	0.183	-0.154
-466.157	-152.288	0.347	0.025
-465.143	34.619	-0.011	0.010
-464.128	312.219	0.123	-0.230
-463.113	800.000	-0.119	0.339
-462.099	-81.453	-0.130	-0.043
-461.084	800.000	-0.084	-0.275
-460.070	-200.000	0.024	0.249
-459.055	-200.000	-0.012	-0.142
-458.040	50.430	0.112	-0.106
-457.026	-81.462	-0.183	0.060
-456.011	-11.817	0.059	0.038
-454.997	-55.911	-0.100	-0.045
-453.982	118.135	0.190	-0.234
-452.968	39.923	-0.117	-0.105
-451.953	-6.294	-0.136	0.093
-450.938	-163.762	0.229	-0.011
-449.924	-200.000	-0.007	-0.175
-448.909	-127.121	0.160	-0.023
-447.895	-133.330	0.209	0.026
-446.880	-18.828	-0.141	-0.087
-445.865	379.589	-0.038	-0.078
-444.851	800.000	-0.184	0.701
-443.836	-61.575	-0.209	-0.088
-442.822	139.285	-0.239	0.315
-441.807	518.839	0.080	-0.187
-440.792	55.802	-0.073	0.071
-439.778	-200.000	0.009	0.067
-438.763	94.681	-0.146	-0.165
-437.749	17.445	-0.247	0.196
-436.734	66.149	-0.163	-0.165
-435.719	153.948	0.127	-0.174
-434.705	202.085	-0.103	-0.159
-433.690	800.000	-0.047	0.202
-432.676	-159.702	0.100	-0.006
-431.661	800.000	0.054	0.195
-430.646	-159.067	-0.206	-0.012
-429.632	-185.369	0.092	-0.001
-428.617	-16.399	0.246	0.156
-427.603	665.599	-0.126	0.324
-426.588	196.600	-0.147	0.224
-425.573	-92.490	-0.151	0.042
-424.559	-41.863	-0.070	0.036
-423.544	17.248	-0.183	-0.145
-422.530	-111.192	-0.197	0.040
-421.515	-148.239	-0.143	-0.012
-420.500	-200.000	-0.013	-0.112
-419.486	511.697	0.036	0.083
-418.471	800.000	0.050	-0.204
-417.457	37.056	0.294	-0.260
-416.442	-200.000	0.009	0.205
-415.428	-109.007	0.251	-0.053
-414.413	68.160	-0.237	0.242
-413.398	800.000	-0.050	-0.139
-412.384	-200.000	0.019	0.206
-411.369	96.878	-0.338	0.387
-410.355	800.000	0.073	0.231
-409.340	410.147	0.125	-0.264
-408.325	800.000	0.111	-0.316
-407.311	800.000	-0.069	-0.238
-406.296	431.583	-0.006	0.014
-405.282	57.240	0.209	0.204
-404.267	563.419	0.058	-0.140
-403.252	24.243	-0.274	-0.226
-402.238	119.862	-0.195	-0.242
-401.223	-200.000	-0.044	0.196
-400.209	101.689	0.218	-0.253
-399.194	-132.908	-0.162	0.021
-398.179	-200.000	0.073	0.464
-397.165	-65.412	-0.176	-0.071
-396.150	-22.561	0.191	0.115
-395.136	310.407	0.044	-0.083
-394.121	41.659	-0.052	0.047
-393.106	73.313	0.236	0.246
-392.092	28.083	-0.165	-0.139
-391.077	-200.000	0.052	0.409
-390.063	36.857	0.087	-0.076
-389.048	-32.441	0.091	0.051
-388.033	800.000	0.092	0.324
-387.019	800.000	-0.098	0.309
-386.004	384.379	0.133	0.272
-384.990	-65.384	0.272	-0.109
-383.975	-138.904	0.209	-0.023
-382.960	140.858	0.098	0.129
-381.946	31.450	0.157	-0.135
-380.931	734.371	-0.089	-0.237
-379.917	-200.000	-0.008	-0.043
-378.902	9.554	0.059	-0.044
-377.888	115.004	-0.075	0.091
-376.873	-139.988	-0.254	-0.027
-375.858	47.423	-0.222	-0.206
-374.844	-13.030	0.237	-0.153
-373.829	122.893	-0.100	-0.125
-372.815	277.673	0.096	0.170
-371.800	800.000	0.041	-0.175
-370.785	-0.688	-0.280	-0.198
-369.771	-160.195	0.006	-0.000
-368.756	39.281	0.101	0.090
-367.742	-184.206	-0.201	-0.003
-366.727	-7.174	0.090	0.061
-365.712	-110.188	0.278	0.058
-364.698	311.858	-0.130	0.242
-363.683	-200.000	0.020	-0.169
-362.669	405.867	0.059	-0.124
-361.654	145.574	0.037	-0.050
-360.639	378.451	0.076	0.156
-359.625	31.391	-0.222	0.190
-358.610	45.442	-0.125	-0.115
-357.596	32.746	0.111	0.096
-356.581	-142.480	-0.326	0.032
-355.566	-98.705	0.248	-0.063
-354.552	-54.723	-0.273	0.123
-353.537	91.935	0.076	-0.085
-352.523	-117.378	0.350	-0.063
-351.508	800.000	0.101	0.293
-350.493	1.303	-0.155	0.111
-349.479	629.596	-0.030	0.074
-348.464	800.000	0.040	-0.157
-347.450	-200.000	-0.018	-0.097
-346.435	-147.265	0.178	-0.015
-345.420	237.134	-0.225	0.371
-344.406	4.702	-0.072	-0.053
-343.391	-106.066	0.316	0.071
-342.377	-106.323	0.458	-0.102
-341.362	800.000	0.077	0.263
-340.348	-200.000	0.061	0.349
-339.333	-200.000	0.013	0.253
-338.318	-86.616	0.109	0.033
-337.304	-108.225	0.336	0.072
-336.289	126.597	-0.335	0.422
-335.275	513.649	0.074	-0.171
-334.260	-91.952	-0.201	-0.057
-333.245	-41.489	0.284	0.145
-332.231	800.000	-0.094	0.302
-331.216	191.971	-0.074	0.111
-330.202	4.026	-0.187	0.136
-329.187	660.736	0.053	-0.135
-328.172	-12.667	0.149	0.097
-327.158	-41.776	0.187	0.096
-326.143	209.316	-0.179	0.278
-325.129	-200.000	0.001	-0.252
-324.114	-200.000	-0.010	0.264
-323.099	274.513	-0.145	0.255
-322.085	-200.000	0.048	-0.293
-321.070	18.358	-0.088	0.070
-320.056	398.098	-0.045	-0.093
-319.041	-83.831	-0.511	0.162
-318.026	-67.873	0.307	0.119
-317.012	-21.612	0.092	0.056
-315.997	151.400	0.109	0.147
-314.983	403.874	0.044	0.092
-313.968	475.889	0.045	-0.102
-312.953	472.650	0.148	-0.330
-311.939	116.429	0.140	0.171
-310.924	168.144	0.050	0.070
-309.910	81.912	0.115	-0.124
-308.895	-31.576	-0.056	-0.032
-307.880	407.921	-0.203	-0.426
-306.866	352.497	-0.083	0.163
-305.851	44.335	-0.017	-0.016
-304.837	-20.672	0.382	0.233
-303.822	611.412	0.125	0.311
-302.807	-200.000	0.001	0.187
-301.793	-15.109	0.006	-0.004
-300.778	68.358	0.225	0.229
-299.764	-153.756	0.210	0.014
-298.749	-19.732	-0.110	0.068
-297.735	-81.784	0.414	-0.135
-296.720	-200.000	-0.041	-0.344
-295.705	-140.732	-0.235	-0.024
-294.691	-115.876	0.045	0.008
-293.676	-9.572	0.077	-0.051
-292.662	-151.468	0.063	-0.005
-291.647	5.962	-0.056	-0.041
-290.632	262.432	0.070	0.120
-289.618	-115.397	0.176	-0.033
-288.603	-138.951	-0.260	0.028
-287.589	-126.859	-0.205	-0.030
-286.574	149.759	0.233	0.314
-285.559	-119.406	-0.278	-0.048
-284.545	321.946	0.052	0.098
-283.530	800.000	0.011	0.038
-282.516	202.472	-0.114	0.175
-281.501	-154.775	-0.207	0.014
-280.486	194.766	0.144	0.216
-279.472	-57.689	0.243	-0.106
-278.457	-99.194	0.315	-0.079
-277.443	-115.007	-0.204	0.039
-276.428	-200.000	0.007	0.094
-275.413	48.412	-0.087	0.080
-274.399	-200.000	-0.015	-0.108
-273.384	621.908	-0.079	-0.198
-272.370	800.000	-0.072	-0.263
-271.355	-150.397	0.221	0.017
-270.340	800.000	-0.192	-0.543
-269.326	199.337	0.119	-0.181
-268.311	-140.389	0.095	-0.010
-267.297	-7.258	-0.154	0.104
-266.282	-94.655	0.440	-0.119
-265.267	244.623	0.105	0.175
-264.253	212.365	-0.207	0.324
-263.238	17.564	0.161	-0.127
-262.224	309.212	0.080	0.148
-261.209	-89.554	0.108	0.031
-260.195	-200.000	-0.012	0.149
-259.180	-1.740	-0.086	0.060
-258.165	74.298	0.217	0.226
-257.151	37.268	0.419	0.368
-256.136	90.794	-0.128	-0.142
-255.122	-100.262	0.242	0.060
-254.107	-136.554	0.193	-0.022
-253.092	-200.000	-0.017	-0.131
-252.078	226.876	-0.057	-0.092
-251.063	-60.027	0.098	0.041
-250.049	-200.000	-0.003	0.188
-249.034	-107.281	0.166	-0.036
-248.019	800.000	-0.037	-0.129
-247.005	-33.931	-0.368	-0.201
-245.990	-185.087	0.179	0.003
-244.976	800.000	-0.042	0.131
-243.961	-74.135	-0.044	0.016
-242.946	-75.631	0.040	-0.014
-241.932	-47.615	0.244	0.117
-240.917	292.395	0.044	-0.080
-239.903	141.540	-0.226	0.296
-238.888	9.363	0.167	-0.125
-237.873	-11.077	-0.273	-0.178
-236.859	135.016	-0.051	0.066
-235.844	48.106	0.264	0.245
-234.830	800.000	0.084	-0.290
-233.815	800.000	0.067	0.184
-232.800	-54.131	0.240	0.108
-231.786	800.000	0.026	0.083
-230.771	74.763	0.224	-0.234
-229.757	-19.764	0.294	0.180
-228.742	89.521	-0.185	0.205
-227.727	5.419	0.161	-0.117
-226.713	710.970	-0.104	0.272
-225.698	-154.619	0.086	-0.006
-224.684	-50.350	0.366	-0.171
-223.669	417.506	-0.043	-0.091
-222.655	193.127	0.041	-0.061
-221.640	343.135	-0.075	-0.145
-220.625	77.278	-0.201	0.212
-219.611	29.832	0.105	0.089
-218.596	-150.086	0.184	0.014
-217.582	385.892	-0.054	-0.110
-216.567	120.074	0.292	-0.358
-215.552	32.641	0.221	0.189
-214.538	800.000	-0.093	-0.290
-213.523	33.637	0.139	-0.119
-212.509	-102.864	-0.133	-0.031
-211.494	-29.032	0.137	0.078
-210.479	-77.110	-0.176	0.061
-209.465	110.336	-0.067	-0.079
-208.450	-61.862	0.373	0.154
-207.436	800.000	0.021	-0.059
-206.421	671.197	-0.035	-0.090
-205.406	800.000	-0.043	-0.132
-204.392	-35.104	-0.364	-0.196
-203.377	-63.575	0.154	0.062
-202.363	-21.075	-0.120	-0.073
-201.348	-185.508	0.371	0.006
-200.333	-103.418	0.221	0.051
-199.319	124.561	0.018	0.022
-198.304	800.000	-0.019	-0.078
-197.290	-144.871	-0.240	-0.022
-196.275	-20.208	-0.082	-0.050
-195.260	19.942	-0.355	-0.283
-194.246	656.554	-0.007	0.019
-193.231	124.792	0.222	-0.276
-192.217	800.000	-0.151	0.431
-191.202	154.903	0.046	0.063
-190.187	90.264	0.174	-0.192
-189.173	-116.696	-0.178	-0.032
-188.158	-72.618	0.303	-0.111
-187.144	-127.451	0.243	-0.035
-186.129	203.387	-0.133	-0.203
-185.114	-50.205	-0.290	-0.136
-184.100	351.900	0.140	-0.274
-183.085	-200.000	0.022	-0.225
-182.071	212.778	-0.114	0.178
-181.056	-69.081	0.337	-0.128
-180.042	-200.000	0.006	0.393
-179.027	800.000	-0.058	-0.222
-178.012	-200.000	-0.046	-0.281
-176.998	800.000	0.010	-0.040
-175.983	-200.000	0.018	-0.540
-174.969	297.100	-0.032	-0.059
-173.954	-200.000	-0.011	0.051
-172.939	4.383	-0.217	-0.157
-171.925	800.000	0.043	-0.169
-170.910	-200.000	0.029	-0.216
-169.896	-197.946	0.038	-0.000
-168.881	-58.656	0.166	0.071
-167.866	3.219	0.130	0.093
-166.852	98.538	-0.345	0.393
-165.837	205.699	-0.144	0.221
-164.823	-73.637	-0.087	0.031
-163.808	-200.000	0.013	-0.302
-162.793	81.665	-0.162	0.173
-161.779	293.537	-0.105	0.189
-160.764	-108.966	0.259	-0.055
-159.750	149.471	-0.115	-0.154
-158.735	-43.702	-0.236	0.118
-157.720	363.966	-0.044	0.087
-156.706	-162.019	0.427	-0.021
-155.691	766.191	-0.094	0.253
-154.677	-135.784	0.387	-0.045
-153.662	-61.457	0.180	0.075
-152.647	800.000	-0.129	-0.357
-151.633	-200.000	0.047	-0.333
-150.618	108.008	0.158	0.186
-149.604	-23.773	-0.342	0.203
-148.589	48.491	0.255	0.236
-147.574	-2.339	0.098	0.068
-146.560	610.767	0.116	-0.287
-145.545	-77.594	-0.306	-0.105
-144.531	-200.000	0.015	0.200
-143.516	99.757	0.096	-0.109
-142.502	-18.712	0.079	0.049
-141.487	-76.250	0.140	0.049
-140.472	273.935	-0.150	0.261
-139.458	-121.383	0.180	0.030
-138.443	403.311	-0.088	-0.183
-137.429	-107.826	-0.406	0.087
-136.414	88.066	-0.118	0.129
-135.399	-86.413	0.255	0.077
-134.385	-91.702	-0.385	-0.108
-133.370	-124.412	0.276	-0.042
-132.356	-200.000	0.023	0.229
-131.341	37.392	-0.223	0.195
-130.326	-90.860	0.145	0.041
-129.312	800.000	0.071	0.261
-128.297	800.000	0.050	-0.191
-127.283	54.714	-0.157	-0.150
-126.268	111.576	0.091	0.109
-125.253	25.681	0.256	0.210
-124.239	378.812	-0.101	0.204
-123.224	688.831	0.053	0.138
-122.210	800.000	-0.050	0.140
-121.195	58.165	-0.139	0.134
-120.180	-58.927	-0.218	-0.093
-119.166	-200.000	-0.022	0.232
-118.151	-102.225	0.320	0.076
-117.137	-200.000	0.031	0.237
-116.122	164.335	0.188	-0.261
-115.107	18.927	0.158	0.125
-114.093	-9.197	-0.187	-0.123
-113.078	800.000	-0.071	-0.252
-112.064	-42.617	0.290	0.146
-111.049	-97.982	-0.336	-0.085
-110.034	-13.891	0.072	0.046
-109.020	-200.000	-0.021	0.198
-108.005	-95.436	0.391	0.104
-106.991	335.897	0.015	-0.029
-105.976	662.007	-0.073	-0.185
-104.962	-9.840	0.088	0.058
-103.947	477.899	-0.097	0.215
-102.932	30.203	0.208	-0.175
-101.918	567.946	-0.072	-0.173
-100.903	168.191	-0.063	0.088
-99.889	-64.833	0.148	-0.059
-98.874	380.915	0.128	-0.259
-97.859	-6.408	0.192	-0.129
-96.845	-200.000	0.053	0.295
-95.830	-30.342	-0.103	0.057
-94.816	-200.000	-0.017	-0.146
-93.801	-200.000	-0.032	0.214
-92.786	47.803	-0.099	-0.091
-91.772	800.000	0.032	0.090
-90.757	127.556	0.150	-0.187
-89.743	64.058	0.218	-0.216
-88.728	-24.105	-0.160	0.094
-87.713	-14.757	0.092	-0.058
-86.699	153.184	-0.067	-0.090
-85.684	-33.688	0.190	0.103
-84.670	-200.000	-0.541	0.001
-83.655	-63.741	0.310	-0.125
-82.640	20.879	0.227	-0.181
-81.626	-200.000	0.004	-0.289
-80.611	62.960	0.070	-0.069
-79.597	-128.427	-0.191	0.027
-78.582	-26.685	-0.346	-0.199
-77.567	-90.530	0.183	-0.052
-76.553	-200.000	0.023	-0.354
-75.538	86.937	-0.165	0.180
-74.524	258.805	-0.098	0.166
-73.509	42.187	0.297	-0.265
-72.494	800.000	-0.048	-0.199
-71.480	-100.693	0.102	0.025
-70.465	-187.674	0.360	-0.005
-69.451	-168.320	-0.218	0.008
-68.436	200.704	0.018	-0.028
-67.422	-200.000	-0.020	0.262
-66.407	-45.291	0.216	0.106
-65.392	800.000	0.053	-0.225
-64.378	-0.851	-0.199	-0.138
-63.363	-188.361	0.128	0.002
-62.349	-97.354	0.322	0.082
-61.334	38.990	-1.041	-0.916
-60.319	-70.939	0.406	0.150
-59.305	314.818	-0.537	-0.995
-58.290	226.030	0.597	0.952
-57.276	179.252	1.141	1.642
-56.261	-200.000	96.562	597.589
-55.246	650.344	1372.849	3457.827
-54.232	199.199	2548.714	3842.392
-53.217	119.217	2158.805	2627.081
-52.203	42.654	1702.812	1524.936
-51.188	34.997	1515.584	1305.243
-50.173	32.583	1488.588	1265.743
-49.159	52.381	1537.859	1443.246
-48.144	54.130	1555.952	1472.114
-47.130	35.287	1515.378	1306.837
-46.115	32.137	1500.782	1272.893
-45.100	31.938	1497.559	1268.759
-44.086	31.939	1495.517	1266.985
-43.071	31.825	1493.496	1264.458
-42.057	31.783	1491.749	1262.643
-41.042	31.817	1490.640	1261.884
-40.027	31.812	1489.321	1260.683
-39.013	31.945	1487.477	1259.966
-37.998	31.751	1486.816	1258.055
-36.984	31.862	1485.383	1257.537
-35.969	31.878	1483.894	1256.330
-34.954	31.867	1482.342	1254.892
-33.940	31.870	1481.234	1253.927
-32.925	31.960	1479.476	1252.991
-31.911	31.852	1478.477	1251.372
-30.896	31.869	1477.038	1250.221
-29.881	31.926	1475.569	1249.305
-28.867	31.956	1474.097	1248.211
-27.852	31.865	1473.091	1246.704
-26.838	31.848	1471.636	1245.307
-25.823	31.976	1469.774	1244.534
-24.809	31.934	1468.057	1242.752
-23.794	31.913	1466.759	1241.466
-22.779	31.842	1465.452	1239.837
-21.765	31.901	1464.753	1239.587
-20.750	31.864	1463.462	1238.204
-19.736	31.853	1462.312	1237.111
-18.721	31.825	1461.363	1236.069
-17.706	31.743	1459.937	1234.279
-16.692	31.833	1458.931	1233.970
-15.677	31.888	1457.930	1233.439
-14.663	31.802	1456.658	1231.747
-13.648	31.789	1455.761	1230.855
-12.633	31.791	1455.221	1230.362
-11.619	31.846	1454.523	1230.083
-10.604	31.769	1453.548	1228.706
-9.590	31.902	1452.562	1228.690
-8.575	31.741	1452.206	1227.286
-7.560	31.766	1451.004	1226.390
-6.546	31.753	1450.301	1225.662
-5.531	31.737	1449.177	1224.558
-4.517	31.754	1447.921	1223.555
-3.502	31.802	1447.153	1223.176
-2.487	31.775	1445.954	1221.938
-1.473	31.845	1445.034	1221.568
-0.458	31.827	1443.724	1220.292
0.556	30.484	1433.404	1208.943
1.571	27.498	1408.143	1168.408
2.586	24.109	1348.671	1098.107
3.600	22.396	1267.708	1022.154
4.615	21.041	1222.191	977.775
5.629	18.277	1165.957	917.904
6.644	10.854	1083.602	815.863
7.659	5.419	1044.333	759.878
8.673	4.529	1039.666	752.111
9.688	4.553	1036.067	749.556
10.702	4.468	1034.471	747.928
11.717	4.529	1032.655	746.841
12.731	6.577	1034.302	757.816
13.746	13.291	1043.410	796.877
14.761	18.268	1049.836	825.785
15.775	18.249	1049.267	825.172
16.790	17.346	1046.557	818.626
17.804	16.280	1044.422	811.759
18.819	15.413	1042.431	805.979
19.834	14.895	1041.339	802.576
20.848	14.642	1040.280	800.478
21.863	14.436	1039.180	798.571
22.877	14.301	1038.793	797.558
23.892	14.029	1037.917	795.515
24.907	13.915	1037.252	794.390
25.921	13.913	1036.802	793.961
26.936	13.950	1035.855	793.345
27.950	14.115	1034.303	792.871
28.965	14.072	1033.772	792.189
29.980	14.270	1032.586	792.153
30.994	14.305	1031.290	791.255
32.009	14.301	1030.503	790.561
33.023	14.294	1029.947	790.030
34.038	14.309	1028.996	789.302
35.053	14.203	1028.360	788.245
36.067	14.224	1027.041	787.262
37.082	14.139	1026.264	786.197
38.096	14.197	1025.477	785.796
39.111	14.295	1024.440	785.396
40.126	14.220	1023.941	784.591
41.140	14.135	1022.883	783.311
42.155	13.959	1021.994	781.731
43.169	13.984	1020.775	780.845
44.184	13.866	1019.796	779.477
45.199	13.865	1018.740	778.597
46.213	13.764	1017.964	777.460
47.228	13.977	1016.658	777.390
48.242	14.160	1015.260	777.108
49.257	14.018	1014.919	776.114
50.271	13.996	1013.870	775.139
51.286	14.101	1013.041	774.926
52.301	14.231	1012.134	774.771
53.315	14.080	1011.162	773.254
54.330	14.068	1010.332	772.498
55.344	14.006	1009.939	771.841
56.359	14.029	1008.479	770.764
57.374	13.958	1007.814	769.855
58.388	14.046	1007.163	769.699
59.403	13.933	1006.118	768.311
60.417	13.829	1005.427	767.234
61.432	13.753	1004.791	766.329
62.447	13.876	1003.960	766.194
63.461	13.816	1003.127	765.215
64.476	13.875	1002.045	764.593
65.490	13.830	1001.308	763.754
66.505	13.797	1000.881	763.210
67.520	13.763	1000.020	762.333
68.534	13.800	998.980	761.641
69.549	13.848	998.668	761.557
70.563	13.879	997.716	760.906
71.578	13.896	996.745	760.177
72.593	13.739	996.026	758.842
73.607	13.756	994.933	758.021
74.622	13.820	993.637	757.256
75.636	13.621	993.460	756.145
76.651	13.792	992.161	755.870
77.666	13.803	991.780	755.564
78.680	13.793	991.159	754.978
79.695	13.598	990.975	753.882
80.709	13.792	989.835	753.830
81.724	13.871	989.369	753.769
82.739	13.894	988.575	753.202
83.753	13.947	987.628	752.654
84.768	14.109	987.215	753.004
85.782	14.129	986.471	752.463
86.797	14.206	986.044	752.419
87.812	14.236	985.013	751.698
88.826	14.140	984.212	750.590
89.841	14.002	983.629	749.454
90.855	14.200	982.468	749.398
91.870	14.208	981.787	748.848
92.884	14.237	981.191	748.457
93.899	14.201	980.602	747.778
94.914	14.354	979.684	747.700
95.928	14.300	979.383	747.159
96.943	14.307	978.361	746.347
97.957	14.262	977.728	745.595
98.972	14.330	976.879	745.189
99.987	14.092	976.226	743.561
101.001	14.195	975.523	743.419
102.016	14.171	975.019	742.860
103.030	14.267	973.658	742.186
104.045	14.194	972.916	741.230
105.060	14.208	971.965	740.500
106.074	14.218	970.610	739.450
107.089	14.185	969.266	738.213
108.103	13.883	969.239	736.787
109.118	13.907	967.943	735.842
110.133	13.925	967.115	735.226
111.147	13.794	966.535	734.144
112.162	13.998	965.437	734.143
113.176	14.028	964.518	733.514
114.191	14.043	963.814	732.982
115.206	14.026	963.195	732.369
116.220	13.962	962.181	731.252
117.235	14.176	961.191	731.377
118.249	14.013	960.216	729.854
119.264	13.926	959.831	729.115
120.279	13.878	959.033	728.232
121.293	13.940	958.488	728.027
122.308	13.839	957.466	726.744
123.322	14.026	956.261	726.581
124.337	13.892	954.832	724.846
125.352	13.850	954.180	724.106
126.366	13.898	953.277	723.562
127.381	13.868	952.110	722.484
128.395	13.856	951.326	721.773
129.410	13.818	950.386	720.829
130.424	13.943	949.540	720.666
131.439	14.050	948.841	720.537
132.454	13.953	948.208	719.574
133.468	14.050	947.345	719.275
134.483	13.979	946.982	718.626
135.497	14.123	946.206	718.597
136.512	14.022	945.485	717.549
137.527	13.874	945.025	716.501
138.541	14.029	943.811	716.185
139.556	14.177	942.900	716.066
140.570	13.999	942.550	714.970
141.585	14.044	941.666	714.432
142.600	14.324	940.730	714.860
143.614	14.244	940.355	714.167
144.629	14.283	939.630	713.722
145.643	14.355	938.889	713.405
146.658	14.209	937.915	711.975
147.673	14.282	936.821	711.394
148.687	14.176	936.227	710.430
149.702	14.080	935.349	709.290
150.716	14.188	934.241	708.846
151.731	13.859	933.661	706.944
152.746	14.053	932.620	706.919
153.760	14.145	931.839	706.652
154.775	14.137	931.398	706.224
155.789	14.257	930.530	706.008
156.804	14.267	929.531	705.230
157.819	14.222	929.427	704.899
158.833	14.251	928.555	704.300
159.848	14.310	927.839	703.943
160.862	14.379	927.303	703.768
161.877	14.408	926.420	703.158
162.892	14.202	925.800	701.755
163.906	14.273	924.315	700.864
164.921	14.253	923.785	700.316
165.935	14.262	922.775	699.527
166.950	14.169	921.844	698.368
167.964	14.288	920.841	698.047
168.979	14.327	919.532	697.157
169.994	14.224	919.019	696.276
171.008	14.080	918.547	695.255
172.023	14.349	917.161	695.264
173.037	14.388	916.687	695.007
174.052	14.358	916.294	694.524
175.067	14.432	915.590	694.237
176.081	14.405	914.492	693.232
177.096	14.185	913.877	691.788
178.110	14.284	913.136	691.578
179.125	14.318	912.287	691.014
180.140	14.312	911.391	690.249
181.154	14.330	910.942	689.922
182.169	14.256	910.468	689.199
183.183	14.392	910.042	689.377
184.198	14.514	909.069	689.083
185.213	14.569	908.490	688.810
186.227	14.519	907.771	687.996
187.242	14.574	907.389	687.875
188.256	14.673	906.389	687.463
189.271	14.582	906.114	686.817
190.286	14.655	905.838	686.848
191.300	14.455	904.598	685.024
192.315	14.326	903.308	683.459
193.329	14.199	903.223	682.812
194.344	14.315	901.899	682.226
195.359	14.348	901.888	682.294
196.373	14.353	901.280	681.793
197.388	14.491	901.015	682.097
198.402	14.552	900.218	681.683
199.417	14.644	900.273	682.041
200.432	14.666	899.664	681.607
201.446	14.774	899.155	681.601
202.461	14.886	898.675	681.637
203.475	14.934	898.426	681.581
204.490	14.973	897.576	681.035
205.504	14.822	896.619	679.635
206.519	14.548	896.234	678.168
207.534	14.712	895.032	677.864
208.548	14.743	894.205	677.305
209.563	14.812	893.664	677.115
210.577	14.660	893.229	676.108
211.592	14.726	892.595	675.838
212.607	14.853	892.164	675.963
213.621	14.873	891.660	675.603
214.636	14.880	891.180	675.209
215.650	14.782	890.259	674.055
216.665	14.844	889.849	673.935
217.680	14.889	889.253	673.607
218.694	15.031	888.550	673.584
219.709	15.162	888.049	673.671
220.723	15.048	887.529	672.761
221.738	15.000	886.789	671.945
222.753	14.926	886.067	671.042
223.767	15.029	885.399	670.891
224.782	15.102	884.443	670.399
225.796	15.101	884.031	670.023
226.811	15.235	883.431	670.046
227.826	15.146	882.812	669.163
228.840	15.133	881.622	668.150
229.855	15.091	881.415	667.763
230.869	15.129	880.400	667.090
231.884	15.047	880.290	666.620
232.899	15.099	879.538	666.199
233.913	15.035	878.633	665.200
234.928	14.943	878.155	664.412
235.942	14.928	877.155	663.539
236.957	14.903	876.402	662.810
237.972	14.890	876.095	662.469
238.986	14.957	875.237	662.026
240.001	15.052	874.404	661.711
241.015	15.061	873.841	661.264
242.030	15.080	873.511	661.033
243.045	15.070	872.621	660.259
244.059	15.198	871.825	660.101
245.074	15.112	871.573	659.516
246.088	15.232	870.948	659.457
247.103	15.341	870.081	659.168
248.117	15.128	869.859	658.105
249.132	15.309	869.326	658.354
250.147	15.440	868.880	658.474
251.161	15.603	868.164	658.513
252.176	15.589	867.659	658.017
253.190	15.613	867.055	657.594
254.205	15.771	866.209	657.512
255.220	15.680	865.906	656.867
256.234	15.712	865.133	656.349
257.249	15.742	864.427	655.870
258.263	15.744	864.017	655.508
259.278	15.600	863.778	654.708
260.293	15.682	863.010	654.387
261.307	15.837	862.274	654.374
262.322	15.978	861.792	654.498
263.336	15.934	860.963	653.639
264.351	15.916	860.448	653.120
265.366	15.848	860.262	652.660
266.380	15.882	859.569	652.207
267.395	16.037	858.487	651.930
268.409	15.824	858.404	650.985
269.424	15.886	857.373	650.384
270.439	15.797	856.682	649.458
271.453	15.903	855.868	649.193
272.468	15.805	855.253	648.291
273.482	15.771	854.505	647.537
274.497	15.836	853.890	647.262
275.512	15.842	853.357	646.823
276.526	15.815	852.739	646.196
277.541	15.811	851.880	645.471
278.555	16.016	851.332	645.784
279.570	15.876	850.771	644.766
280.585	15.942	850.672	644.887
281.599	16.030	849.849	644.541
282.614	15.964	849.562	644.015
283.628	15.886	848.878	643.142
284.643	15.894	848.426	642.775
285.657	15.921	847.555	642.159
286.672	15.968	847.238	642.042
287.687	16.124	846.607	642.101
288.701	16.165	846.178	641.875
289.716	16.055	845.388	640.799
290.730	15.968	845.149	640.232
291.745	15.993	844.608	639.858
292.760	16.048	844.257	639.745
293.774	16.103	843.146	639.058
294.789	16.189	842.663	638.960
295.803	16.250	842.020	638.646
296.818	16.039	841.523	637.414
297.833	16.058	840.551	636.695
298.847	16.128	839.920	636.424
299.862	16.260	839.214	636.331
300.876	16.261	838.850	636.004
301.891	16.238	837.951	635.179
302.906	16.199	837.488	634.622
303.920	16.445	837.049	635.160
304.935	16.341	836.414	634.232
305.949	16.511	836.151	634.612
306.964	16.490	835.248	633.792
307.979	16.328	834.611	632.649
308.993	16.439	833.997	632.542
310.008	16.542	833.320	632.357
311.022	16.566	833.185	632.288
312.037	16.542	832.756	631.817
313.052	16.429	832.098	630.841
314.066	16.434	831.298	630.195
315.081	16.366	830.243	629.087
316.095	16.272	830.418	628.814
317.110	16.379	830.020	628.856
318.125	16.380	829.172	628.162
319.139	16.223	829.185	627.530
320.154	16.443	828.045	627.431
321.168	16.302	827.777	626.649
322.183	16.404	827.207	626.539
323.197	16.431	826.759	626.246
324.212	16.593	825.918	626.153
325.227	16.493	825.382	625.320
326.241	16.434	825.510	625.143
327.256	16.576	824.276	624.677
328.270	16.501	823.782	623.971
329.285	16.535	823.510	623.837
330.300	16.610	823.166	623.795
331.314	16.471	822.148	622.458
332.329	16.528	821.507	622.126
333.343	16.487	821.533	621.941
334.358	16.665	820.832	622.010
335.373	16.646	820.361	621.528
336.387	16.664	819.464	620.860
337.402	16.822	819.010	621.039
338.416	16.787	818.608	620.551
339.431	16.774	818.129	620.087
340.446	16.937	817.517	620.162
341.460	16.856	817.129	619.517
342.475	16.924	816.278	619.068
343.489	16.894	816.168	618.817
344.504	17.139	815.510	619.157
345.519	17.020	814.920	618.224
346.533	17.048	814.698	618.101
347.548	17.103	814.015	617.730
348.562	17.001	813.429	616.859
349.577	17.005	813.157	616.612
350.592	16.683	812.878	615.178
351.606	16.883	812.115	615.272
352.621	16.831	811.575	614.618
353.635	16.784	810.936	613.911
354.650	16.922	810.528	614.047
355.665	16.848	810.355	613.591
356.679	16.906	809.822	613.346
357.694	17.029	809.055	613.154
358.708	17.057	808.690	612.924
359.723	16.943	808.032	611.961
360.738	17.035	807.743	612.018
361.752	17.122	807.258	611.911
362.767	17.074	806.705	611.263
363.781	17.232	806.344	611.506
364.796	17.269	806.134	611.426
365.810	17.195	805.452	610.588
366.825	17.306	804.978	610.575
367.840	17.433	804.437	610.564
368.854	17.382	804.170	610.124
369.869	17.236	804.062	609.466
370.883	17.239	803.157	608.737
371.898	17.228	802.693	608.289
372.913	17.393	801.818	608.165
373.927	17.265	801.433	607.361
374.942	17.327	800.750	607.009
375.956	17.568	799.797	607.096
376.971	17.480	799.526	606.523
377.986	17.405	799.445	606.137
379.000	17.581	798.786	606.212
380.015	17.463	798.497	605.521
381.029	17.436	798.027	605.015
382.044	17.506	797.188	604.573
383.059	17.479	797.046	604.317
384.073	17.635	796.376	604.307
385.088	17.569	795.703	603.508
386.102	17.432	795.246	602.625
387.117	17.568	794.412	602.418
388.132	17.414	794.138	601.613
389.146	17.388	793.761	601.185
390.161	17.536	793.537	601.481
391.175	17.552	793.044	601.112
392.190	17.630	792.873	601.206
393.205	17.513	792.319	600.321
394.219	17.446	791.935	599.741
395.234	17.501	790.942	599.126
396.248	17.336	791.094	598.609
397.263	17.493	790.117	598.369
398.278	17.382	790.032	597.861
399.292	17.461	789.271	597.510
400.307	17.342	788.751	596.647
401.321	17.560	788.442	597.122
402.336	17.303	788.356	596.105
403.350	17.424	787.978	596.191
404.365	17.545	787.426	596.144
405.380	17.719	786.820	596.240
406.394	17.641	786.376	595.580
407.409	17.875	785.749	595.867
408.423	17.915	785.377	595.671
409.438	17.809	785.184	595.105
410.453	18.066	784.492	595.422
411.467	18.000	784.295	594.990
412.482	18.082	783.731	594.794
413.496	18.021	783.435	594.306
414.511	18.092	783.098	594.245
415.526	18.113	782.293	593.652
416.540	18.064	782.139	593.316
417.555	17.967	781.894	592.739
418.569	17.979	781.460	592.400
419.584	18.116	780.853	592.361
420.599	18.104	780.524	592.018
421.613	155.815	1369.803	1795.170
422.628	134.439	1455.684	1795.270
