DTS Sentinel unit serial number:	SN413079Multiplexer serial number:	ORYXHardware model number:	OX4-SRSoftware version number:	ORYX F/W v4.00 Oryx Data Collector v3.7.2.0data status	okinstallation	princeton_trtdifferential loss correction	single-endedforward channel	channel 3reverse channel	N/Adate	2019/09/13time	05:52:34forward acquisition time	60.00reverse acquisition time	0.00gamma	496.2192k internal	0.2338k external	0.2338temperature offset calibration	1.0134default loss term (dB/km)	0.3790temperature slope calibration	1.0000multiplexer offset coefficient	1.0000multiplexer slope coefficient	1.0000fibre end	0.00T internal ref (°C)	26.17T ext. ref 1 (°C)	4.07T ext. ref 2 (°C)	20.94length (m)	temperature (°C)	Stokes	anti-Stokes-747.200	-200.000	0.036	-0.421
-746.185	-72.072	-0.195	-0.073
-745.171	187.532	0.209	0.312
-744.156	203.288	-0.360	0.558
-743.142	-200.000	-0.011	-0.283
-742.127	800.000	-0.094	0.370
-741.112	-45.325	0.498	0.248
-740.098	313.878	-0.017	-0.031
-739.083	-130.075	-0.110	0.015
-738.069	-82.577	-0.162	-0.053
-737.054	268.812	0.182	-0.321
-736.039	140.960	-0.245	-0.325
-735.025	662.056	-0.052	0.134
-734.010	-181.478	-0.032	-0.001
-732.996	558.513	-0.054	0.131
-731.981	-165.361	-0.336	0.015
-730.966	-116.165	-0.445	-0.083
-729.952	180.955	0.136	0.200
-728.937	94.893	0.042	0.048
-727.923	-200.000	-0.044	0.219
-726.908	178.465	-0.062	0.091
-725.894	33.578	0.162	-0.141
-724.879	81.373	-0.286	0.309
-723.864	-116.277	-0.174	0.032
-722.850	800.000	-0.066	-0.206
-721.835	75.801	-0.197	-0.208
-720.821	71.410	0.209	-0.218
-719.806	-76.056	-0.218	0.077
-718.791	-200.000	0.015	-0.085
-717.777	-200.000	0.016	0.351
-716.762	8.869	0.061	0.046
-715.748	560.877	-0.019	0.047
-714.733	-200.000	0.081	-0.491
-713.718	17.770	-0.188	-0.150
-712.704	-200.000	-0.003	0.030
-711.689	-12.594	0.015	0.010
-710.675	-155.724	0.377	-0.024
-709.660	-110.765	0.395	0.082
-708.645	127.694	0.070	0.089
-707.631	-200.000	-0.009	-0.050
-706.616	18.628	-0.186	0.149
-705.602	-11.583	-0.324	-0.213
-704.587	-200.000	0.013	-0.388
-703.572	-200.000	0.006	0.068
-702.558	-52.994	0.130	0.060
-701.543	-200.000	0.025	0.134
-700.529	513.055	-0.056	0.132
-699.514	17.149	-0.274	-0.218
-698.499	69.244	0.136	0.140
-697.485	-200.000	-0.012	0.080
-696.470	-200.000	0.037	0.233
-695.456	-105.258	0.233	-0.053
-694.441	-6.707	0.173	-0.118
-693.426	118.897	-0.043	0.054
-692.412	214.873	-0.071	0.112
-691.397	123.980	0.050	0.062
-690.383	-65.422	-0.294	0.118
-689.368	800.000	-0.078	0.295
-688.354	-69.785	-0.298	-0.114
-687.339	-144.129	-0.337	-0.032
-686.324	24.717	0.193	-0.160
-685.310	-59.569	0.201	0.086
-684.295	-101.968	0.385	0.093
-683.281	116.287	-0.164	-0.201
-682.266	697.952	0.072	-0.190
-681.251	63.240	-0.067	0.067
-680.237	14.201	0.193	-0.151
-679.222	76.071	0.159	0.168
-678.208	-200.000	0.034	0.279
-677.193	56.998	-0.145	-0.142
-676.178	33.074	0.190	-0.165
-675.164	28.197	-0.116	0.098
-674.149	196.230	-0.144	0.220
-673.135	-192.914	-0.201	-0.002
-672.120	19.877	-0.255	0.206
-671.105	-165.900	0.352	0.015
-670.091	800.000	-0.091	-0.317
-669.076	-200.000	0.023	-0.156
-668.062	-79.871	-0.129	-0.043
-667.047	-200.000	0.081	0.398
-666.032	-200.000	0.004	0.035
-665.018	800.000	0.047	-0.173
-664.003	-29.925	0.077	0.044
-662.989	-70.965	0.078	0.029
-661.974	339.691	-0.097	0.190
-660.959	733.981	-0.115	0.309
-659.945	-85.909	0.103	-0.032
-658.930	542.493	0.087	0.207
-657.916	53.905	-0.078	-0.075
-656.901	88.209	0.037	-0.041
-655.886	762.065	-0.094	0.256
-654.872	448.738	-0.089	-0.197
-653.857	21.610	0.020	0.016
-652.843	124.658	0.183	-0.230
-651.828	131.434	0.112	0.144
-650.814	-54.833	-0.302	-0.136
-649.799	575.084	-0.121	0.294
-648.784	94.441	0.124	-0.141
-647.770	800.000	-0.077	-0.328
-646.755	178.441	-0.103	0.151
-645.741	189.774	-0.097	-0.145
-644.726	-38.031	-0.129	0.068
-643.711	-200.000	0.018	0.214
-642.697	-200.000	-0.008	-0.252
-641.682	86.932	0.041	0.045
-640.668	-148.446	0.096	0.008
-639.653	-46.420	0.195	0.096
-638.638	800.000	-0.043	0.186
-637.624	-200.000	0.017	-0.306
-636.609	-200.000	-0.065	-0.396
-635.595	800.000	-0.070	-0.211
-634.580	800.000	-0.035	0.135
-633.565	-66.056	-0.205	-0.082
-632.551	-27.431	-0.154	-0.089
-631.536	-147.984	0.535	0.044
-630.522	113.705	-0.050	0.060
-629.507	37.326	0.075	-0.066
-628.492	-81.689	0.246	-0.081
-627.478	-17.822	-0.162	-0.101
-626.463	32.318	-0.154	0.133
-625.449	77.168	0.142	0.150
-624.434	-99.498	-0.148	0.037
-623.419	725.585	-0.087	-0.233
-622.405	-152.858	-0.151	-0.011
-621.390	-111.822	-0.109	0.022
-620.376	-200.000	0.006	0.067
-619.361	800.000	-0.069	0.196
-618.346	-200.000	0.008	0.090
-617.332	-55.177	0.129	-0.058
-616.317	-163.322	-0.231	-0.011
-615.303	7.923	0.149	0.111
-614.288	186.967	0.091	0.136
-613.273	-38.225	-0.512	0.271
-612.259	800.000	-0.043	0.121
-611.244	-63.200	0.234	0.096
-610.230	-85.079	0.303	0.095
-609.215	-121.360	-0.169	0.028
-608.201	800.000	0.126	0.409
-607.186	-96.371	0.248	0.066
-606.171	-18.506	0.126	-0.078
-605.157	151.146	-0.113	-0.153
-604.142	728.858	0.036	0.095
-603.128	110.285	0.135	0.162
-602.113	2.474	-0.064	0.047
-601.098	487.304	-0.043	-0.097
-600.084	20.780	0.239	-0.193
-599.069	37.140	0.067	-0.059
-598.055	286.121	-0.107	0.193
-597.040	-24.741	0.133	0.079
-596.025	624.020	0.115	-0.288
-595.011	-34.068	-0.309	-0.169
-593.996	-14.295	0.125	-0.080
-592.982	-3.185	0.107	0.074
-591.967	67.940	-0.298	0.304
-590.952	754.601	0.054	0.144
-589.938	119.704	0.145	-0.179
-588.923	481.781	-0.132	-0.299
-587.909	-88.735	-0.302	0.090
-586.894	-200.000	0.001	0.296
-585.879	-178.864	-0.375	-0.008
-584.865	-105.695	0.192	-0.043
-583.850	800.000	0.083	0.244
-582.836	-79.745	0.376	-0.126
-581.821	-200.000	0.069	-0.418
-580.806	-98.381	0.268	0.068
-579.792	-200.000	0.000	0.035
-578.777	34.764	-0.028	-0.025
-577.763	227.067	-0.139	0.225
-576.748	800.000	0.057	-0.191
-575.733	172.764	-0.108	0.155
-574.719	13.193	0.160	-0.123
-573.704	537.030	0.087	0.206
-572.690	40.601	0.126	-0.113
-571.675	-87.994	0.111	-0.033
-570.661	34.808	-0.310	0.270
-569.646	14.704	-0.086	-0.067
-568.631	69.011	0.088	-0.090
-567.617	428.267	-0.209	-0.451
-566.602	-200.000	0.023	0.207
-565.588	148.799	-0.010	0.014
-564.573	800.000	-0.068	0.235
-563.558	-200.000	-0.028	0.129
-562.544	99.147	-0.203	-0.233
-561.529	302.663	0.051	-0.094
-560.515	-74.335	-0.314	-0.113
-559.500	-200.000	-0.003	-0.187
-558.485	-142.505	0.239	0.023
-557.471	4.396	-0.198	-0.145
-556.456	-1.262	0.198	-0.139
-555.442	362.183	0.170	-0.340
-554.427	267.525	-0.036	-0.063
-553.412	246.241	-0.057	0.095
-552.398	800.000	0.062	-0.173
-551.383	-60.729	-0.123	-0.052
-550.369	-41.092	0.211	-0.109
-549.354	-11.252	-0.148	-0.097
-548.339	-119.774	-0.132	-0.023
-547.325	-200.000	0.026	-0.340
-546.310	252.977	-0.017	0.029
-545.296	293.155	0.095	-0.173
-544.281	-75.185	-0.455	-0.162
-543.266	-68.454	-0.227	-0.088
-542.252	-52.308	0.125	0.058
-541.237	50.785	-0.083	-0.078
-540.223	294.486	-0.039	-0.071
-539.208	-140.991	-0.256	-0.026
-538.193	-84.968	-0.199	-0.062
-537.179	800.000	-0.053	-0.194
-536.164	-25.080	-0.278	0.164
-535.150	97.010	-0.217	-0.248
-534.135	24.886	-0.313	-0.258
-533.121	-113.120	-0.170	0.033
-532.106	257.412	0.127	-0.217
-531.091	-200.000	0.046	0.224
-530.077	-175.816	-0.235	-0.006
-529.062	-17.487	-0.073	0.046
-528.048	-25.369	0.042	0.025
-527.033	-4.136	-0.020	-0.014
-526.018	-200.000	0.046	0.401
-525.004	-200.000	-0.002	-0.262
-523.989	-60.084	-0.291	0.123
-522.975	-53.215	-0.218	-0.100
-521.960	-200.000	0.002	-0.050
-520.945	306.600	0.097	0.180
-519.931	90.582	0.350	-0.389
-518.916	88.887	-0.190	-0.211
-517.902	-200.000	-0.009	0.138
-516.887	-200.000	-0.057	-0.251
-515.872	-200.000	0.022	-0.362
-514.858	-161.875	-0.239	-0.012
-513.843	73.968	0.210	-0.220
-512.829	800.000	0.081	-0.352
-511.814	714.223	0.110	-0.290
-510.799	18.179	0.249	0.198
-509.785	-60.069	0.135	0.057
-508.770	73.262	-0.066	-0.069
-507.756	586.938	0.015	0.038
-506.741	-200.000	-0.048	-0.407
-505.726	-33.367	0.216	-0.119
-504.712	-200.000	-0.055	0.438
-503.697	-110.309	-0.262	0.054
-502.683	229.826	0.230	0.373
-501.668	-200.000	0.058	0.413
-500.653	-61.942	-0.111	0.046
-499.639	-78.211	-0.075	0.026
-498.624	-200.000	-0.027	-0.198
-497.610	-200.000	-0.002	-0.223
-496.595	-200.000	0.006	-0.178
-495.581	-94.920	-0.251	0.067
-494.566	451.376	0.088	-0.192
-493.551	-200.000	-0.031	0.142
-492.537	146.297	0.051	-0.067
-491.522	-116.008	0.253	0.047
-490.508	-82.760	-0.237	0.076
-489.493	800.000	-0.045	-0.132
-488.478	-87.562	-0.115	-0.034
-487.464	111.411	0.083	-0.099
-486.449	-141.321	0.182	0.018
-485.435	-112.334	-0.026	0.005
-484.420	-126.400	-0.179	0.027
-483.405	-47.870	-0.226	-0.109
-482.391	338.180	-0.083	0.161
-481.376	-20.929	0.056	-0.034
-480.362	93.636	-0.144	-0.162
-479.347	-160.376	0.173	-0.009
-478.332	190.010	0.109	-0.163
-477.318	208.863	-0.287	-0.447
-476.303	178.893	0.182	0.264
-475.289	-200.000	0.026	-0.171
-474.274	-200.000	0.066	0.290
-473.259	355.777	0.189	0.373
-472.245	-200.000	-0.025	-0.236
-471.230	569.641	0.065	-0.156
-470.216	-200.000	0.009	-0.140
-469.201	-153.384	-0.154	0.011
-468.186	60.951	-0.113	0.111
-467.172	800.000	0.046	-0.135
-466.157	-31.272	-0.049	-0.027
-465.143	-200.000	0.036	-0.337
-464.128	144.531	0.181	0.240
-463.113	53.933	-0.226	-0.216
-462.099	-102.758	-0.291	-0.069
-461.084	456.235	0.068	0.150
-460.070	317.365	-0.047	-0.089
-459.055	-200.000	0.017	-0.177
-458.040	5.531	-0.210	-0.154
-457.026	69.606	0.139	0.142
-456.011	128.074	0.030	-0.038
-454.997	223.518	0.112	0.179
-453.982	252.713	0.095	0.161
-452.968	-39.860	0.166	0.086
-451.953	-76.026	0.134	0.047
-450.938	27.354	-0.140	-0.116
-449.924	80.668	0.174	0.187
-448.909	67.462	0.091	0.093
-447.895	-46.010	-0.147	-0.072
-446.880	560.720	-0.068	0.164
-445.865	321.834	-0.066	-0.125
-444.851	-200.000	-0.002	0.063
-443.836	274.103	0.006	0.011
-442.822	-200.000	0.011	-0.074
-441.807	800.000	-0.022	0.071
-440.792	-17.069	-0.081	0.051
-439.778	-81.953	-0.305	-0.099
-438.763	-29.638	0.238	0.135
-437.749	85.325	0.159	-0.173
-436.734	-200.000	-0.045	-0.258
-435.719	365.949	0.002	-0.004
-434.705	800.000	-0.094	0.290
-433.690	41.105	0.134	0.120
-432.676	363.327	0.123	-0.245
-431.661	678.235	0.028	0.072
-430.646	67.707	-0.151	0.153
-429.632	214.634	-0.175	0.275
-428.617	800.000	-0.123	-0.373
-427.603	-183.980	0.162	-0.003
-426.588	-200.000	-0.044	0.433
-425.573	-65.631	0.057	-0.023
-424.559	-200.000	-0.038	0.184
-423.544	103.340	-0.053	0.061
-422.530	-89.173	-0.024	-0.007
-421.515	800.000	-0.051	-0.145
-420.500	-45.660	-0.293	-0.144
-419.486	-200.000	-0.001	-0.194
-418.471	-162.541	0.151	0.007
-417.457	-200.000	-0.008	0.142
-416.442	800.000	-0.055	0.215
-415.428	69.403	-0.052	-0.053
-414.413	-114.911	-0.351	0.066
-413.398	16.586	0.233	0.183
-412.384	564.372	-0.099	-0.237
-411.369	-200.000	-0.003	0.077
-410.355	-200.000	-0.000	-0.276
-409.340	-80.477	0.568	0.188
-408.325	800.000	-0.045	0.172
-407.311	-35.239	0.282	0.152
-406.296	508.583	-0.052	0.120
-405.282	-77.824	-0.263	0.090
-404.267	162.244	0.223	-0.309
-403.252	-21.350	0.343	0.207
-402.238	-79.718	0.042	0.014
-401.223	-200.000	-0.000	0.074
-400.209	121.161	-0.198	-0.244
-399.194	-60.847	0.134	0.056
-398.179	92.185	-0.175	-0.195
-397.165	-200.000	-0.029	0.383
-396.150	34.491	-0.169	-0.146
-395.136	-124.019	-0.420	-0.065
-394.121	390.323	-0.052	-0.107
-393.106	-42.205	-0.078	-0.039
-392.092	-200.000	-0.022	-0.104
-391.077	-25.396	-0.141	-0.083
-390.063	-48.935	0.200	-0.095
-389.048	-37.637	0.174	0.092
-388.033	-30.624	0.105	0.059
-387.019	-83.573	-0.047	0.015
-386.004	-146.559	0.189	0.016
-384.990	207.891	0.108	0.167
-383.975	-69.611	-0.183	-0.069
-382.960	467.110	0.096	-0.212
-381.946	73.468	-0.108	0.112
-380.931	108.306	-0.193	0.228
-379.917	-200.000	0.017	-0.180
-378.902	214.096	-0.130	-0.204
-377.888	143.194	-0.048	0.064
-376.873	288.092	0.160	-0.287
-375.858	612.768	-0.170	0.420
-374.844	-200.000	-0.035	-0.256
-373.829	-121.931	-0.320	0.052
-372.815	-200.000	-0.022	0.146
-371.800	-62.871	-0.195	0.080
-370.785	118.332	0.068	0.083
-369.771	633.570	-0.146	-0.367
-368.756	-164.943	0.248	0.011
-367.742	-119.018	-0.226	-0.039
-366.727	-200.000	0.000	0.118
-365.712	182.645	-0.044	-0.065
-364.698	572.371	0.122	0.293
-363.683	109.957	0.116	-0.137
-362.669	143.601	0.174	-0.229
-361.654	230.251	0.081	-0.131
-360.639	193.929	0.166	0.249
-359.625	-11.692	0.121	0.078
-358.610	272.330	-0.066	0.115
-357.596	505.058	-0.008	-0.018
-356.581	-5.471	0.104	-0.071
-355.566	6.762	-0.190	0.139
-354.552	38.099	-0.226	-0.199
-353.537	-200.000	0.003	-0.143
-352.523	-200.000	-0.033	0.154
-351.508	-11.671	-0.170	-0.110
-350.493	-200.000	0.003	-0.136
-349.479	-120.843	-0.323	0.054
-348.464	-200.000	-0.007	0.221
-347.450	-167.703	-0.077	-0.003
-346.435	-146.615	-0.036	0.003
-345.420	85.240	0.130	0.141
-344.406	-81.797	-0.295	0.096
-343.391	-10.136	0.291	0.191
-342.377	525.363	0.077	-0.179
-341.362	146.000	0.041	0.054
-340.348	-86.864	-0.194	-0.058
-339.333	-200.000	-0.017	0.325
-338.318	-136.513	0.233	0.027
-337.304	608.648	0.149	-0.368
-336.289	-27.350	-0.126	0.073
-335.275	-200.000	-0.001	0.051
-334.260	800.000	0.081	0.286
-333.245	3.040	-0.095	0.068
-332.231	-21.127	0.306	0.185
-331.216	-75.653	-0.382	-0.134
-330.202	244.224	0.133	-0.221
-329.187	135.695	-0.091	0.117
-328.172	800.000	-0.090	0.247
-327.158	-86.795	-0.113	-0.034
-326.143	-200.000	0.002	-0.031
-325.129	230.659	0.230	0.372
-324.114	110.167	0.143	-0.170
-323.099	-102.919	-0.256	-0.060
-322.085	800.000	0.095	0.312
-321.070	-200.000	0.003	0.101
-320.056	728.915	0.045	0.118
-319.041	536.280	0.047	0.110
-318.026	-51.708	0.166	0.076
-317.012	-135.736	-0.292	-0.034
-315.997	-168.608	-0.086	0.003
-314.983	30.002	0.223	-0.188
-313.968	-130.879	0.294	-0.039
-312.953	-80.134	0.138	0.046
-311.939	-89.959	-0.406	-0.117
-310.924	-200.000	-0.064	-0.330
-309.910	-80.012	0.149	-0.049
-308.895	85.479	0.176	0.190
-307.880	20.050	0.140	-0.112
-306.866	-26.607	-0.198	-0.114
-305.851	-131.493	-0.118	-0.015
-304.837	760.552	0.060	-0.159
-303.822	-200.000	0.039	-0.208
-302.807	227.617	-0.246	0.395
-301.793	-185.755	-0.198	0.003
-300.778	142.382	0.112	0.146
-299.764	-27.363	-0.396	0.227
-298.749	178.385	-0.037	0.053
-297.735	68.294	0.121	0.123
-296.720	-200.000	0.056	0.319
-295.705	800.000	-0.029	-0.093
-294.691	31.113	-0.242	0.205
-293.676	-101.253	0.192	0.046
-292.662	159.470	-0.129	-0.178
-291.647	9.891	0.216	-0.162
-290.632	-102.552	0.272	0.064
-289.618	-25.634	-0.155	0.090
-288.603	-132.747	0.239	0.030
-287.589	112.590	0.083	0.099
-286.574	96.263	0.042	-0.047
-285.559	-97.256	0.117	-0.030
-284.545	-200.000	0.001	0.264
-283.530	-9.352	0.148	-0.097
-282.516	-200.000	-0.051	0.265
-281.501	544.820	0.040	-0.094
-280.486	800.000	-0.014	-0.049
-279.472	-108.061	0.259	-0.055
-278.457	58.861	0.108	-0.104
-277.443	95.087	-0.261	0.293
-276.428	247.031	-0.149	0.247
-275.413	91.428	-0.115	-0.128
-274.399	338.360	0.082	-0.158
-273.384	133.976	0.233	0.297
-272.370	-21.596	-0.069	-0.042
-271.355	-63.634	-0.353	0.143
-270.340	-96.700	-0.218	-0.056
-269.326	67.096	-0.074	-0.074
-268.311	-150.036	-0.246	-0.019
-267.297	123.517	0.119	-0.147
-266.282	723.051	0.067	-0.175
-265.267	-102.592	0.299	0.070
-264.253	-200.000	0.041	0.449
-263.238	-14.747	-0.286	-0.181
-262.224	-169.974	0.121	0.004
-261.209	-61.048	0.075	0.031
-260.195	168.351	0.202	0.284
-259.180	-126.010	0.107	0.016
-258.165	177.787	0.233	-0.335
-257.151	509.685	-0.081	0.186
-256.136	-62.045	0.050	0.020
-255.122	274.466	0.052	0.090
-254.107	-50.471	0.043	-0.020
-253.092	21.518	0.145	0.116
-252.078	5.330	0.220	0.160
-251.063	-91.037	-0.324	-0.092
-250.049	-200.000	0.026	0.152
-249.034	-8.688	0.160	-0.106
-248.019	159.617	-0.169	-0.231
-247.005	-22.059	-0.260	-0.155
-245.990	-200.000	-0.009	0.347
-244.976	-83.418	-0.098	-0.031
-243.961	616.786	0.122	0.301
-242.946	659.372	-0.050	0.128
-241.932	-109.759	-0.209	0.043
-240.917	-21.931	0.213	-0.128
-239.903	365.066	-0.030	0.060
-238.888	136.022	-0.136	-0.174
-237.873	800.000	0.055	-0.183
-236.859	262.098	0.073	0.125
-235.844	-200.000	0.002	-0.187
-234.830	246.453	0.196	-0.325
-233.815	-70.201	0.405	-0.151
-232.800	-200.000	-0.007	-0.056
-231.786	-17.422	0.206	0.128
-230.771	96.482	0.273	0.308
-229.757	-200.000	-0.028	0.195
-228.742	-56.786	0.101	-0.044
-227.727	-101.464	0.168	-0.040
-226.713	20.948	-0.186	-0.148
-225.698	-1.014	0.282	0.196
-224.684	211.200	0.115	0.178
-223.669	10.888	0.124	-0.093
-222.655	-200.000	-0.033	0.159
-221.640	-200.000	0.024	0.199
-220.625	68.589	0.039	0.039
-219.611	134.021	-0.131	0.167
-218.596	800.000	0.033	0.138
-217.582	-19.264	0.032	-0.019
-216.567	-10.998	0.232	-0.151
-215.552	-200.000	0.007	0.262
-214.538	237.502	-0.121	-0.197
-213.523	-200.000	-0.017	-0.106
-212.509	-147.569	-0.174	-0.014
-211.494	-47.268	0.023	0.011
-210.479	-200.000	-0.051	0.224
-209.465	-69.682	-0.119	-0.045
-208.450	-200.000	-0.039	0.195
-207.436	5.580	-0.028	0.020
-206.421	-176.585	0.069	0.002
-205.406	16.622	-0.219	-0.170
-204.392	-127.853	0.446	-0.063
-203.377	560.746	-0.018	-0.043
-202.363	-124.762	-0.249	0.038
-201.348	800.000	-0.065	0.210
-200.333	-15.126	0.384	0.241
-199.319	800.000	0.039	0.129
-198.304	6.969	0.130	0.095
-197.290	281.513	-0.084	-0.148
-196.275	800.000	0.072	0.234
-195.260	206.557	-0.063	-0.097
-194.246	-200.000	-0.026	-0.468
-193.231	283.027	0.087	0.153
-192.217	-90.300	-0.200	0.057
-191.202	208.908	0.133	0.205
-190.187	-200.000	0.004	0.207
-189.173	-75.571	-0.050	-0.017
-188.158	-14.176	0.253	0.160
-187.144	108.962	-0.144	0.169
-186.129	-67.344	-0.272	-0.105
-185.114	800.000	0.015	0.046
-184.100	800.000	0.012	-0.051
-183.085	-105.941	0.465	0.103
-182.071	-200.000	-0.041	-0.228
-181.056	-92.544	0.246	-0.068
-180.042	-200.000	-0.053	-0.244
-179.027	-120.537	-0.188	-0.031
-178.012	432.161	-0.150	0.319
-176.998	205.990	-0.070	-0.107
-175.983	-103.294	0.263	-0.061
-174.969	-118.160	0.440	0.077
-173.954	-200.000	0.065	-0.479
-172.939	299.146	-0.059	-0.107
-171.925	-200.000	-0.079	-0.404
-170.910	499.405	0.130	0.294
-169.896	261.379	0.039	-0.067
-168.881	34.511	0.238	-0.204
-167.866	-125.820	0.311	0.046
-166.852	235.271	-0.043	0.069
-165.837	800.000	0.059	-0.208
-164.823	248.228	0.151	-0.250
-163.808	99.786	-0.153	0.174
-162.793	-133.986	0.287	0.035
-161.779	-65.975	-0.277	-0.109
-160.764	-200.000	-0.022	0.166
-159.750	111.552	0.188	0.223
-158.735	800.000	0.057	0.217
-157.720	-33.799	0.174	-0.094
-156.706	800.000	-0.079	-0.290
-155.691	-136.590	-0.081	0.009
-154.677	-38.846	-0.091	-0.047
-153.662	83.323	0.108	0.115
-152.647	-125.697	0.154	-0.023
-151.633	-0.648	-0.034	0.024
-150.618	-200.000	-0.037	0.255
-149.604	800.000	-0.025	0.083
-148.589	-21.499	-0.335	0.200
-147.574	23.018	0.049	-0.039
-146.560	-200.000	0.017	0.188
-145.545	490.524	0.147	-0.329
-144.531	-149.612	-0.141	0.011
-143.516	-200.000	0.029	0.141
-142.502	76.017	-0.119	-0.123
-141.487	-9.010	0.093	0.061
-140.472	7.414	0.133	0.097
-139.458	-97.518	-0.088	0.022
-138.443	-0.070	0.140	-0.097
-137.429	-84.032	0.344	0.107
-136.414	-118.350	-0.363	0.063
-135.399	-200.000	0.043	-0.213
-134.385	-48.961	0.226	0.106
-133.370	539.973	0.127	-0.297
-132.356	37.747	0.065	0.057
-131.341	-50.547	0.218	0.101
-130.326	57.846	0.123	0.117
-129.312	-101.241	0.517	-0.124
-128.297	575.576	-0.043	0.102
-127.283	313.510	0.123	0.227
-126.268	-85.587	0.273	-0.083
-125.253	-200.000	-0.015	-0.086
-124.239	195.277	0.059	-0.088
-123.224	-200.000	0.020	-0.139
-122.210	-141.603	-0.435	-0.043
-121.195	191.849	0.154	-0.228
-120.180	243.500	-0.048	0.078
-119.166	81.225	0.075	0.079
-118.151	-132.687	-0.068	0.009
-117.137	121.040	-0.065	0.079
-116.122	-0.038	-0.153	-0.106
-115.107	473.570	0.106	-0.234
-114.093	-33.390	-0.164	0.089
-113.078	-92.289	0.354	0.098
-112.064	-63.718	-0.133	0.053
-111.049	48.219	-0.149	0.136
-110.034	7.787	0.258	-0.189
-109.020	-130.545	-0.520	-0.069
-108.005	-90.099	0.030	0.008
-106.991	-29.034	0.248	0.139
-105.976	24.029	-0.348	-0.281
-104.962	-84.764	-0.226	0.070
-103.947	-200.000	-0.033	0.260
-102.932	442.503	0.019	0.041
-101.918	171.767	-0.085	-0.120
-100.903	-61.437	0.044	0.018
-99.889	-133.936	0.204	0.025
-98.874	-94.276	-0.398	-0.106
-97.859	-8.247	0.163	0.107
-96.845	-30.018	-0.231	-0.129
-95.830	-88.954	-0.275	0.080
-94.816	-91.010	0.072	0.020
-93.801	-180.973	-0.070	-0.001
-92.786	469.658	-0.034	0.074
-91.772	621.571	-0.115	0.284
-90.757	81.553	-0.199	0.210
-89.743	-157.731	-0.189	-0.011
-88.728	800.000	0.075	-0.205
-87.713	-129.011	-0.284	-0.039
-86.699	-13.212	-0.155	0.099
-85.684	-58.032	-0.076	-0.033
-84.670	-82.256	-0.121	-0.039
-83.655	171.924	0.117	-0.164
-82.640	-179.303	-0.163	0.004
-81.626	129.822	-0.096	-0.120
-80.611	-102.484	0.165	0.039
-79.597	77.814	-0.204	-0.213
-78.582	-115.283	0.120	0.022
-77.567	225.323	-0.100	-0.159
-76.553	800.000	0.081	0.222
-75.538	-200.000	-0.012	0.220
-74.524	105.230	-0.092	0.106
-73.509	39.078	0.015	0.013
-72.494	-39.072	0.254	0.130
-71.480	-101.518	-0.214	-0.051
-70.465	-48.734	0.089	0.042
-69.451	350.812	-0.106	0.205
-68.436	-200.000	-0.035	0.175
-67.422	-92.464	0.131	0.036
-66.407	343.070	-0.057	-0.110
-65.392	-200.000	-0.044	-0.539
-64.378	66.845	0.258	-0.257
-63.363	-40.124	0.177	0.090
-62.349	-200.000	-0.003	0.197
-61.334	38.722	-1.018	-0.887
-60.319	-15.229	0.541	0.338
-59.305	600.591	-0.465	-1.129
-58.290	304.257	0.587	1.064
-57.276	800.000	0.454	1.587
-56.261	-200.000	117.990	642.756
-55.246	483.419	1553.423	3449.752
-54.232	174.580	2719.168	3840.906
-53.217	102.792	2173.436	2484.367
-52.203	36.634	1689.297	1456.583
-51.188	29.412	1505.256	1249.156
-50.173	27.166	1480.772	1213.808
-49.159	49.068	1542.208	1414.374
-48.144	47.734	1556.583	1418.393
-47.130	29.340	1511.386	1253.556
-46.115	26.417	1496.308	1221.292
-45.100	26.144	1492.654	1216.425
-44.086	26.121	1490.919	1214.804
-43.071	26.096	1489.388	1213.340
-42.057	26.109	1487.213	1211.607
-41.042	26.120	1485.929	1210.587
-40.027	26.119	1484.667	1209.506
-39.013	26.170	1483.158	1208.570
-37.998	26.186	1481.984	1207.673
-36.984	26.139	1481.220	1206.687
-35.969	26.124	1479.742	1205.338
-34.954	26.172	1478.261	1204.402
-33.940	26.173	1476.794	1203.164
-32.925	26.184	1475.006	1201.735
-31.911	26.136	1473.878	1200.451
-30.896	26.181	1472.878	1199.887
-29.881	26.230	1471.256	1198.843
-28.867	26.282	1469.818	1197.967
-27.852	26.101	1469.220	1196.236
-26.838	26.121	1467.687	1195.067
-25.823	26.230	1465.643	1194.081
-24.809	26.140	1464.647	1192.626
-23.794	26.226	1463.564	1192.265
-22.779	26.242	1462.263	1191.264
-21.765	26.226	1460.625	1189.773
-20.750	26.242	1459.705	1189.083
-19.736	26.232	1458.767	1188.208
-18.721	26.164	1457.606	1186.765
-17.706	26.095	1456.608	1185.453
-16.692	26.288	1455.277	1185.594
-15.677	26.192	1453.934	1183.822
-14.663	26.186	1453.324	1183.235
-13.648	26.101	1452.612	1182.056
-12.633	26.132	1451.609	1181.393
-11.619	26.148	1450.587	1180.620
-10.604	26.082	1450.159	1179.792
-9.590	26.215	1448.663	1179.400
-8.575	26.212	1447.429	1178.326
-7.560	26.163	1447.513	1178.029
-6.546	26.167	1446.131	1176.884
-5.531	26.186	1444.969	1176.016
-4.517	26.117	1444.470	1175.114
-3.502	26.208	1442.913	1174.389
-2.487	26.166	1442.357	1173.618
-1.473	26.057	1441.275	1171.985
-0.458	26.067	1440.202	1171.130
0.556	27.663	1429.999	1159.309
1.571	24.685	1406.117	1121.197
2.586	21.177	1347.494	1053.233
3.600	19.642	1266.725	981.308
4.615	18.526	1221.671	940.203
5.629	16.334	1166.182	885.934
6.644	9.959	1084.833	792.858
7.659	4.947	1048.648	742.512
8.673	4.284	1043.273	735.500
9.688	4.058	1040.116	732.140
10.702	3.919	1038.362	730.183
11.717	4.000	1036.257	729.024
12.731	6.415	1038.059	741.608
13.746	13.430	1047.982	781.871
14.761	20.167	1056.001	819.749
15.775	22.189	1058.495	831.185
16.790	21.975	1056.678	828.674
17.804	21.020	1054.897	822.698
18.819	20.203	1053.368	817.584
19.834	19.777	1052.267	814.650
20.848	19.730	1051.562	813.812
21.863	19.815	1051.080	813.769
22.877	19.512	1050.836	812.081
23.892	19.441	1049.466	810.617
24.907	19.360	1048.709	809.582
25.921	19.280	1048.137	808.692
26.936	19.177	1047.380	807.552
27.950	19.229	1046.368	806.942
28.965	19.130	1045.619	805.833
29.980	19.356	1044.086	805.636
30.994	19.510	1042.654	805.178
32.009	19.705	1042.130	805.611
33.023	19.665	1041.518	804.879
34.038	19.589	1040.916	803.992
35.053	19.533	1040.034	802.979
36.067	19.229	1039.072	800.751
37.082	19.313	1038.112	800.332
38.096	19.342	1037.101	799.613
39.111	19.337	1037.088	799.512
40.126	19.587	1035.530	799.395
41.140	19.453	1034.185	797.667
42.155	19.199	1032.772	795.334
43.169	18.929	1031.934	793.373
44.184	18.825	1030.785	791.939
45.199	18.836	1029.710	791.096
46.213	18.914	1028.802	790.687
47.228	18.847	1028.523	790.093
48.242	19.256	1027.416	791.049
49.257	19.438	1026.668	791.239
50.271	19.396	1025.319	789.938
51.286	19.361	1024.855	789.349
52.301	19.431	1024.636	789.432
53.315	19.420	1023.772	788.649
54.330	19.343	1022.543	787.279
55.344	19.168	1021.460	785.577
56.359	19.067	1020.493	784.303
57.374	19.060	1019.642	783.549
58.388	19.063	1018.764	782.819
59.403	18.923	1017.829	781.395
60.417	18.833	1016.945	780.236
61.432	18.854	1016.727	780.097
62.447	18.879	1015.476	779.178
63.461	18.745	1014.972	778.117
64.476	18.651	1014.338	777.135
65.490	18.652	1013.192	776.194
66.505	18.643	1012.461	775.524
67.520	18.762	1011.222	775.045
68.534	18.923	1010.523	775.167
69.549	18.767	1009.858	773.887
70.563	18.693	1009.300	773.057
71.578	18.605	1008.509	771.984
72.593	18.410	1007.505	770.274
73.607	18.474	1006.400	769.645
74.622	18.327	1005.935	768.564
75.636	18.362	1004.944	767.894
76.651	18.505	1004.136	767.850
77.666	18.339	1003.805	766.785
78.680	18.501	1002.621	766.540
79.695	18.540	1002.312	766.407
80.709	18.659	1001.641	766.359
81.724	18.683	1000.888	765.821
82.739	18.857	1000.205	766.008
83.753	19.007	999.513	766.076
84.768	19.236	999.287	766.856
85.782	19.560	998.398	767.547
86.797	19.715	998.303	768.093
87.812	19.761	996.932	767.177
88.826	19.441	996.435	765.308
89.841	19.433	995.375	764.387
90.855	19.604	994.378	764.314
91.870	19.617	994.026	764.030
92.884	19.740	993.488	764.096
93.899	19.649	992.540	762.894
94.914	19.699	991.443	762.207
95.928	19.819	990.543	761.973
96.943	19.711	989.835	760.888
97.957	19.577	989.565	760.024
98.972	19.502	988.288	758.647
99.987	19.423	987.357	757.515
101.001	19.501	987.107	757.602
102.016	19.572	986.005	756.997
103.030	19.493	985.230	755.992
104.045	19.473	984.489	755.267
105.060	19.754	982.850	755.171
106.074	19.424	982.476	753.375
107.089	19.144	981.313	751.195
108.103	18.888	980.062	749.055
109.118	18.749	979.421	747.894
110.133	18.868	978.294	747.484
111.147	18.718	977.219	745.946
112.162	18.596	976.598	744.874
113.176	18.677	975.719	744.490
114.191	18.906	974.669	744.617
115.206	19.005	973.948	744.427
116.220	19.019	973.314	743.938
117.235	18.963	972.281	742.843
118.249	18.721	972.011	741.522
119.264	18.785	970.899	740.885
120.279	18.638	970.257	739.698
121.293	18.650	969.561	739.150
122.308	18.661	968.230	738.119
123.322	18.566	967.349	736.976
124.337	18.443	966.259	735.550
125.352	18.390	965.006	734.306
126.366	18.330	964.276	733.427
127.381	18.450	963.229	733.081
128.395	18.419	962.339	732.206
129.410	18.637	961.270	732.256
130.424	18.520	960.989	731.480
131.439	18.567	960.084	730.924
132.454	18.843	959.425	731.537
133.468	18.772	958.918	730.781
134.483	18.934	957.999	730.704
135.497	18.887	957.425	730.005
136.512	18.811	957.135	729.396
137.527	18.918	956.037	728.948
138.541	18.901	955.201	728.175
139.556	19.010	954.538	728.064
140.570	18.978	953.959	727.424
141.585	19.151	953.093	727.430
142.600	19.350	952.501	727.755
143.614	19.314	952.297	727.380
144.629	19.538	951.184	727.413
145.643	19.638	950.178	726.996
146.658	19.522	949.687	726.070
147.673	19.524	948.432	725.057
148.687	19.169	947.663	722.914
149.702	18.978	947.020	721.557
150.716	18.957	946.063	720.675
151.731	18.985	944.764	719.739
152.746	18.949	943.950	718.904
153.760	18.956	943.783	718.745
154.775	19.047	943.077	718.521
155.789	19.217	942.188	718.489
156.804	19.279	941.167	717.907
157.819	19.124	940.899	716.995
158.833	19.346	940.257	717.365
159.848	19.542	939.775	717.750
160.862	19.691	938.881	717.623
161.877	19.709	937.883	716.871
162.892	19.306	936.956	714.429
163.906	18.916	936.034	712.047
164.921	18.985	934.925	711.424
165.935	18.968	933.902	710.512
166.950	19.013	932.932	709.897
167.964	19.146	932.138	709.780
168.979	19.243	931.293	709.474
169.994	19.130	929.770	707.785
171.008	18.968	929.405	706.779
172.023	19.145	928.440	706.710
173.037	19.185	928.484	706.845
174.052	19.434	927.470	707.032
175.067	19.409	926.714	706.289
176.081	19.144	926.095	704.670
177.096	18.996	924.148	702.523
178.110	18.846	923.838	701.610
179.125	18.810	923.226	700.940
180.140	18.985	922.669	701.168
181.154	19.137	921.725	701.007
182.169	19.367	921.488	701.699
183.183	19.478	920.692	701.483
184.198	19.548	920.434	701.507
185.213	19.441	919.865	700.578
186.227	19.535	919.167	700.367
187.242	19.474	919.170	700.058
188.256	19.637	918.099	699.842
189.271	19.642	917.699	699.496
190.286	19.822	916.842	699.509
191.300	19.562	915.524	697.392
192.315	19.004	914.578	694.358
193.329	18.798	913.673	692.780
194.344	18.880	912.803	692.386
195.359	18.942	912.391	692.265
196.373	19.145	912.228	692.896
197.388	19.198	911.673	692.625
198.402	19.449	911.600	693.516
199.417	19.733	911.099	694.216
200.432	19.850	910.853	694.438
201.446	19.956	910.505	694.536
202.461	20.028	910.151	694.492
203.475	20.151	909.757	694.624
204.490	20.032	908.837	693.382
205.504	19.886	907.690	691.864
206.519	19.591	906.798	689.942
207.534	19.484	905.990	688.839
208.548	19.514	905.079	688.207
209.563	19.618	904.447	688.081
210.577	19.682	904.067	687.985
211.592	19.558	903.573	687.056
212.607	19.862	902.810	687.620
213.621	20.088	902.637	688.325
214.636	19.933	901.985	687.152
215.650	19.989	900.863	686.458
216.665	19.909	900.334	685.677
217.680	19.902	900.218	685.502
218.694	20.011	900.264	685.907
219.709	20.197	899.267	685.822
220.723	20.027	898.624	684.599
221.738	20.070	897.701	684.008
222.753	20.023	896.992	683.220
223.767	19.920	896.110	682.083
224.782	20.060	895.482	682.094
225.796	20.146	894.982	681.993
226.811	20.169	894.355	681.546
227.826	20.231	893.320	680.938
228.840	20.026	892.449	679.411
229.855	19.925	891.781	678.445
230.869	19.882	891.143	677.733
231.884	19.809	890.552	676.939
232.899	19.836	889.991	676.557
233.913	19.688	889.302	675.396
234.928	19.660	888.386	674.529
235.942	19.548	887.853	673.628
236.957	19.426	887.169	672.575
237.972	19.527	886.313	672.261
238.986	19.502	885.975	671.848
240.001	19.647	885.177	671.745
241.015	19.553	884.727	670.978
242.030	19.756	883.767	670.982
243.045	19.786	883.143	670.565
244.059	19.917	882.623	670.618
245.074	19.932	881.634	669.865
246.088	19.946	881.292	669.600
247.103	19.988	881.415	669.794
248.117	20.177	880.772	669.978
249.132	20.418	880.410	670.574
250.147	20.480	880.027	670.461
251.161	20.890	879.656	671.702
252.176	20.885	879.496	671.500
253.190	20.756	878.903	670.491
254.205	21.066	877.815	670.794
255.220	21.126	877.696	670.873
256.234	20.929	876.908	669.456
257.249	20.918	876.164	668.786
258.263	20.902	875.445	668.117
259.278	20.995	875.058	668.118
260.293	20.807	874.837	667.173
261.307	20.902	874.198	666.987
262.322	21.191	873.040	667.151
263.336	21.125	872.707	666.585
264.351	21.080	872.283	666.030
265.366	21.158	872.053	666.092
266.380	21.105	871.343	665.289
267.395	21.083	870.290	664.345
268.409	20.951	869.753	663.371
269.424	20.858	868.968	662.361
270.439	20.919	868.028	661.819
271.453	20.809	867.547	660.976
272.468	20.655	866.418	659.473
273.482	20.669	865.622	658.862
274.497	20.643	865.111	658.316
275.512	20.631	864.694	657.894
276.526	20.644	863.706	657.133
277.541	20.652	863.496	656.945
278.555	20.693	862.818	656.529
279.570	20.831	862.614	656.833
280.585	21.194	861.616	657.385
281.599	21.273	861.358	657.425
282.614	20.976	860.599	655.670
283.628	20.899	859.644	654.597
284.643	20.814	859.318	653.972
285.657	20.895	858.913	653.908
286.672	20.736	858.590	653.010
287.687	21.018	857.442	653.136
288.701	20.760	857.531	652.179
289.716	20.736	857.155	651.744
290.730	20.762	856.334	651.161
291.745	21.018	855.508	651.429
292.760	21.029	854.936	650.978
293.774	21.076	854.440	650.720
294.789	21.156	854.497	651.004
295.803	21.340	853.471	650.850
296.818	21.132	852.732	649.453
297.833	20.920	852.055	648.090
298.847	20.944	851.178	647.457
299.862	21.088	850.270	647.245
300.876	20.966	850.041	646.557
301.891	21.211	849.449	646.957
302.906	21.214	849.287	646.790
303.920	21.288	848.973	646.768
304.935	21.421	848.226	646.633
305.949	21.442	847.916	646.417
306.964	21.630	846.507	645.979
307.979	21.400	846.357	644.959
308.993	21.389	845.312	644.065
310.008	21.379	845.478	644.098
311.022	21.384	845.164	643.819
312.037	21.408	844.312	643.202
313.052	21.231	843.477	641.859
314.066	21.101	842.699	640.733
315.081	20.822	842.023	639.140
316.095	20.865	841.415	638.779
317.110	20.989	840.558	638.526
318.125	20.989	840.161	638.169
319.139	20.834	839.990	637.415
320.154	20.860	839.342	636.962
321.168	20.912	838.869	636.736
322.183	20.879	838.671	636.407
323.197	21.040	837.912	636.361
324.212	21.021	837.670	636.055
325.227	21.038	836.854	635.441
326.241	21.093	836.176	635.067
327.256	21.109	835.510	634.567
328.270	21.110	834.970	634.102
329.285	20.991	834.457	633.226
330.300	21.008	833.913	632.816
331.314	20.877	833.296	631.820
332.329	20.924	832.917	631.646
333.343	21.192	832.325	632.112
334.358	21.402	831.880	632.475
335.373	21.383	831.799	632.291
336.387	21.403	830.792	631.543
337.402	21.562	830.364	631.736
338.416	21.520	829.918	631.187
339.431	21.538	829.972	631.239
340.446	21.816	829.368	631.725
341.460	21.918	828.948	631.717
342.475	21.882	828.137	630.911
343.489	21.907	827.965	630.814
344.504	22.074	827.223	630.794
345.519	22.108	827.172	630.822
346.533	22.168	826.744	630.655
347.548	22.294	825.740	630.284
348.562	21.794	825.647	628.367
349.577	21.512	824.634	626.531
350.592	21.590	823.763	626.092
351.606	21.414	823.508	625.211
352.621	21.483	822.426	624.583
353.635	21.397	821.897	623.818
354.650	21.565	821.723	624.230
355.665	21.748	820.990	624.268
356.679	21.546	820.746	623.311
357.694	21.861	820.168	623.936
358.708	21.626	820.389	623.212
359.723	21.707	819.461	622.742
360.738	21.781	818.572	622.273
361.752	21.767	818.090	621.802
362.767	21.840	817.786	621.776
363.781	21.833	817.895	621.777
364.796	22.215	817.598	622.849
365.810	22.210	816.990	622.314
366.825	22.445	816.266	622.538
367.840	22.510	816.340	622.769
368.854	22.466	815.829	622.172
369.869	22.390	814.797	621.058
370.883	22.020	814.695	619.620
371.898	22.121	813.916	619.330
372.913	22.279	813.374	619.420
373.927	22.559	812.689	619.829
374.942	22.465	811.991	618.909
375.956	22.209	811.357	617.472
376.971	22.296	810.906	617.381
377.986	22.501	810.409	617.666
379.000	22.561	810.265	617.713
380.015	22.576	809.596	617.202
381.029	22.596	809.171	616.893
382.044	22.436	808.612	615.851
383.059	22.445	808.052	615.401
384.073	22.645	807.556	615.667
385.088	22.399	806.932	614.281
386.102	22.212	806.013	612.875
387.117	22.130	805.177	611.899
388.132	22.089	805.057	611.610
389.146	21.993	804.416	610.736
390.161	22.196	804.093	611.143
391.175	22.196	804.327	611.266
392.190	22.457	803.845	611.753
393.205	22.392	803.197	610.981
394.219	22.229	802.290	609.672
395.234	22.143	802.026	609.119
396.248	22.129	801.324	608.482
397.263	22.112	800.356	607.635
398.278	21.911	799.929	606.561
399.292	21.727	799.574	605.604
400.307	21.731	799.363	605.402
401.321	21.751	799.256	605.337
402.336	22.028	798.276	605.498
403.350	22.000	798.299	605.364
404.365	22.276	797.890	605.951
405.380	22.269	797.818	605.818
406.394	22.428	797.430	606.019
407.409	22.690	796.917	606.478
408.423	22.661	796.722	606.174
409.438	22.709	796.213	605.897
410.453	22.761	795.849	605.745
411.467	22.975	795.240	605.963
412.482	23.217	794.309	606.029
413.496	22.993	794.477	605.337
414.511	23.136	793.625	605.124
415.526	23.019	793.571	604.628
416.540	22.975	793.373	604.272
417.555	22.828	792.778	603.263
418.569	22.946	792.156	603.140
419.584	22.785	791.897	602.342
420.599	22.934	791.631	602.592
421.613	165.016	1370.924	1796.771
422.628	143.112	1455.303	1796.857
