DTS Sentinel unit serial number:	SN413079Multiplexer serial number:	ORYXHardware model number:	OX4-SRSoftware version number:	ORYX F/W v4.00 Oryx Data Collector v3.7.2.0data status	okinstallation	princeton_trtdifferential loss correction	single-endedforward channel	channel 3reverse channel	N/Adate	2019/09/13time	17:00:35forward acquisition time	60.00reverse acquisition time	0.00gamma	496.2192k internal	0.2301k external	0.2301temperature offset calibration	1.0130default loss term (dB/km)	0.3790temperature slope calibration	1.0000multiplexer offset coefficient	1.0000multiplexer slope coefficient	1.0000fibre end	0.00T internal ref (°C)	34.92T ext. ref 1 (°C)	4.84T ext. ref 2 (°C)	33.13length (m)	temperature (°C)	Stokes	anti-Stokes-747.200	-23.530	0.084	0.052
-746.185	323.017	-0.097	0.189
-745.171	38.691	0.143	0.130
-744.156	-200.000	0.026	0.170
-743.142	-117.606	-0.249	0.046
-742.127	34.535	0.218	0.194
-741.112	54.365	0.054	0.053
-740.098	125.394	0.010	-0.013
-739.083	67.255	-0.033	-0.034
-738.069	-2.234	-0.228	0.163
-737.054	-200.000	-0.029	0.313
-736.039	-62.673	-0.165	0.070
-735.025	-97.639	-0.323	0.085
-734.010	800.000	0.106	0.300
-732.996	800.000	-0.051	-0.171
-731.981	800.000	0.036	0.134
-730.966	-15.527	-0.109	0.071
-729.952	800.000	0.122	-0.360
-728.937	-200.000	0.008	-0.048
-727.923	650.606	0.057	0.150
-726.908	-5.280	-0.221	-0.155
-725.894	540.626	0.056	0.136
-724.879	-71.197	0.237	0.091
-723.864	-123.071	-0.105	0.017
-722.850	-125.730	-0.341	-0.053
-721.835	77.902	-0.161	-0.174
-720.821	-90.969	-0.233	0.068
-719.806	793.935	0.049	0.138
-718.791	25.981	0.184	0.156
-717.777	-52.256	0.263	-0.124
-716.762	1.115	0.282	-0.206
-715.748	800.000	0.049	-0.172
-714.733	-163.229	-0.176	0.009
-713.718	-50.730	0.248	-0.119
-712.704	-158.511	0.323	-0.019
-711.689	172.752	-0.157	-0.230
-710.675	-155.075	0.218	-0.015
-709.660	800.000	0.030	-0.096
-708.645	206.752	-0.065	-0.103
-707.631	39.980	-0.182	0.166
-706.616	800.000	-0.063	0.189
-705.602	-200.000	-0.007	0.093
-704.587	97.573	-0.278	-0.325
-703.572	-29.111	-0.150	-0.088
-702.558	8.471	0.234	0.179
-701.543	-200.000	-0.038	-0.265
-700.529	619.606	0.068	-0.173
-699.514	800.000	-0.075	0.232
-698.499	178.075	-0.067	-0.099
-697.485	128.279	-0.094	0.121
-696.470	-76.466	-0.270	-0.097
-695.456	191.046	-0.141	-0.215
-694.441	43.051	-0.129	0.119
-693.426	36.931	0.089	-0.080
-692.412	-118.650	0.104	0.019
-691.397	75.055	-0.221	0.237
-690.383	44.418	0.318	-0.297
-689.368	-137.549	-0.146	-0.017
-688.354	-200.000	0.016	-0.163
-687.339	-200.000	0.019	0.552
-686.324	181.483	-0.018	-0.026
-685.310	55.662	-0.111	0.109
-684.295	-130.911	0.216	-0.029
-683.281	364.563	-0.035	0.071
-682.266	88.822	0.138	0.157
-681.251	800.000	-0.190	-0.733
-680.237	147.186	0.016	0.022
-679.222	197.726	-0.201	0.312
-678.208	800.000	-0.063	-0.224
-677.193	-122.597	-0.281	-0.046
-676.178	33.646	-0.320	0.283
-675.164	-143.980	-0.207	0.020
-674.149	-0.387	0.123	0.089
-673.135	-37.070	-0.154	0.084
-672.120	-200.000	-0.022	-0.166
-671.105	190.573	-0.154	-0.235
-670.091	191.011	-0.051	-0.078
-669.076	210.994	0.101	-0.161
-668.062	-163.215	0.405	0.020
-667.047	635.079	-0.086	-0.221
-666.032	-105.886	0.242	0.056
-665.018	-35.861	0.226	0.124
-664.003	-73.630	-0.156	-0.058
-662.989	800.000	-0.105	-0.298
-661.974	143.572	0.187	0.254
-660.959	-68.227	-0.576	-0.228
-659.945	329.674	0.175	-0.342
-658.930	-136.745	-0.289	0.034
-657.916	518.715	0.099	-0.236
-656.901	-200.000	-0.010	0.104
-655.886	151.971	-0.217	0.300
-654.872	-36.626	0.149	-0.081
-653.857	698.253	-0.110	-0.294
-652.843	-169.201	0.095	0.004
-651.828	-22.125	0.247	0.152
-650.814	-57.138	-0.011	0.005
-649.799	-200.000	0.022	0.195
-648.784	-29.079	-0.194	0.113
-647.770	800.000	-0.044	-0.169
-646.755	42.134	-0.394	-0.363
-645.741	9.162	-0.211	-0.162
-644.726	-141.790	-0.063	0.006
-643.711	-5.409	0.326	-0.228
-642.697	167.862	-0.261	-0.377
-641.682	-52.564	0.280	0.132
-640.668	-200.000	-0.027	0.362
-639.653	-200.000	-0.002	0.193
-638.638	-56.513	0.169	0.076
-637.624	800.000	-0.012	-0.051
-636.609	-200.000	-0.027	0.121
-635.595	-200.000	0.009	0.229
-634.580	92.393	0.138	-0.158
-633.565	147.155	-0.125	-0.171
-632.551	-68.766	0.305	-0.120
-631.536	241.546	0.045	0.076
-630.522	-200.000	-0.003	0.076
-629.507	-87.420	-0.125	0.038
-628.492	-123.960	-0.105	-0.017
-627.478	800.000	0.016	0.062
-626.463	-200.000	-0.034	-0.295
-625.449	-180.468	-0.275	0.006
-624.434	-200.000	-0.002	-0.139
-623.419	-172.046	-0.226	-0.007
-622.405	-200.000	-0.125	-0.598
-621.390	800.000	-0.063	-0.231
-620.376	-112.308	0.284	0.058
-619.361	25.106	0.079	0.066
-618.346	86.048	-0.070	-0.078
-617.332	174.974	-0.279	-0.410
-616.317	-192.031	-0.078	0.001
-615.303	49.879	-0.120	-0.115
-614.288	-200.000	-0.028	-0.268
-613.273	96.622	-0.236	0.274
-612.259	-157.934	-0.181	-0.011
-611.244	800.000	-0.039	0.123
-610.230	800.000	-0.046	-0.202
-609.215	695.804	0.101	-0.270
-608.201	-200.000	0.001	-0.412
-607.186	-200.000	0.038	0.216
-606.171	-29.565	-0.144	0.084
-605.157	800.000	0.066	0.277
-604.142	335.816	0.100	0.197
-603.128	800.000	0.019	-0.062
-602.113	228.355	-0.020	-0.033
-601.098	3.294	-0.282	-0.208
-600.084	-200.000	0.015	-0.132
-599.069	140.080	0.184	-0.246
-598.055	110.005	0.140	0.170
-597.040	800.000	0.051	0.206
-596.025	800.000	0.054	0.230
-595.011	-71.222	-0.080	-0.030
-593.996	-163.172	0.238	0.012
-592.982	3.853	-0.295	-0.219
-591.967	5.747	-0.123	-0.092
-590.952	800.000	-0.061	-0.237
-589.938	-139.267	-0.312	0.034
-588.923	28.263	0.082	-0.070
-587.909	-57.034	0.344	-0.154
-586.894	-150.322	0.049	-0.004
-585.879	-136.614	0.110	-0.013
-584.865	121.664	-0.118	0.149
-583.850	-200.000	0.016	0.317
-582.836	-167.785	0.230	0.009
-581.821	800.000	-0.027	0.114
-580.806	-200.000	-0.002	-0.191
-579.792	358.623	-0.171	0.346
-578.777	129.364	0.181	0.234
-577.763	-200.000	-0.035	-0.418
-576.748	-61.381	-0.170	-0.072
-575.733	281.929	-0.067	-0.122
-574.719	33.297	-0.040	0.035
-573.704	76.882	0.034	0.037
-572.690	109.750	0.103	-0.125
-571.675	299.128	-0.018	-0.034
-570.661	129.448	-0.100	-0.129
-569.646	456.444	-0.053	-0.118
-568.631	-200.000	0.019	-0.140
-567.617	-112.110	-0.336	0.068
-566.602	20.094	0.130	0.106
-565.588	-103.952	0.132	0.031
-564.573	-19.410	-0.463	-0.291
-563.558	81.869	-0.136	0.149
-562.544	-200.000	-0.000	0.109
-561.529	-75.005	-0.167	-0.061
-560.515	35.701	-0.344	0.306
-559.500	-200.000	0.014	0.118
-558.485	474.813	0.182	-0.415
-557.471	-154.125	-0.487	-0.033
-556.456	-7.563	-0.237	0.162
-555.442	-42.753	0.060	-0.031
-554.427	46.210	0.113	0.106
-553.412	199.915	-0.090	-0.140
-552.398	-71.573	-0.512	-0.194
-551.383	43.492	0.095	-0.088
-550.369	219.084	-0.218	0.353
-549.354	426.849	-0.112	0.244
-548.339	-62.642	-0.162	-0.068
-547.325	-122.686	-0.079	0.013
-546.310	11.395	0.143	0.111
-545.296	519.000	0.109	-0.258
-544.281	-200.000	-0.039	-0.194
-543.266	558.120	-0.111	0.271
-542.252	128.800	0.141	0.181
-541.237	174.703	0.131	-0.192
-540.223	746.656	-0.056	0.152
-539.208	-13.329	0.153	0.100
-538.193	-11.698	-0.146	-0.097
-537.179	91.482	0.091	0.103
-536.164	-83.012	-0.101	0.033
-535.150	49.201	0.355	0.337
-534.135	-165.091	0.030	0.001
-533.121	479.296	0.075	-0.172
-532.106	263.430	0.065	0.114
-531.091	-200.000	-0.045	-0.242
-530.077	-200.000	-0.049	-0.286
-529.062	800.000	0.051	0.163
-528.048	800.000	-0.069	0.202
-527.033	-90.683	0.465	0.136
-526.018	-20.807	0.238	-0.148
-525.004	151.918	0.079	0.108
-523.989	-200.000	0.058	0.461
-522.975	71.895	0.189	-0.198
-521.960	-7.999	0.139	0.095
-520.945	95.412	0.061	0.070
-519.931	68.827	-0.165	-0.171
-518.916	-112.792	-0.157	-0.031
-517.902	800.000	-0.107	-0.341
-516.887	-110.554	0.151	0.032
-515.872	-85.252	-0.222	0.070
-514.858	800.000	-0.012	0.045
-513.843	49.227	0.241	0.229
-512.829	107.114	-0.151	0.181
-511.814	163.396	-0.123	-0.174
-510.799	385.000	-0.051	-0.107
-509.785	81.544	-0.054	-0.059
-508.770	-200.000	-0.026	0.177
-507.756	-65.731	0.063	0.025
-506.741	-66.535	0.166	-0.066
-505.726	800.000	-0.088	0.252
-504.712	-103.188	-0.415	-0.099
-503.697	-16.032	-0.300	-0.193
-502.683	186.197	0.139	-0.208
-501.668	239.307	-0.028	-0.046
-500.653	-200.000	-0.001	0.335
-499.639	-85.739	0.197	-0.062
-498.624	800.000	-0.041	0.159
-497.610	-4.531	0.321	0.224
-496.595	-22.639	0.141	-0.086
-495.581	93.455	0.171	0.195
-494.566	182.632	-0.170	0.254
-493.551	-147.765	0.170	0.014
-492.537	95.631	0.188	0.217
-491.522	144.114	-0.097	-0.130
-490.508	74.308	0.067	0.071
-489.493	-200.000	0.005	0.269
-488.478	-79.210	-0.332	0.114
-487.464	800.000	-0.093	-0.304
-486.449	-109.637	-0.063	-0.013
-485.435	-7.945	0.129	0.088
-484.420	-200.000	-0.057	0.264
-483.405	31.571	-0.241	0.210
-482.391	-200.000	0.020	-0.165
-481.376	614.001	-0.032	-0.080
-480.362	-125.123	0.251	-0.039
-479.347	-8.451	-0.127	-0.086
-478.332	475.960	-0.093	-0.212
-477.318	-200.000	-0.017	-0.098
-476.303	800.000	-0.089	-0.257
-475.289	-25.804	-0.177	-0.105
-474.274	82.003	-0.247	-0.270
-473.259	-101.092	-0.285	-0.071
-472.245	-96.756	-0.105	-0.028
-471.230	153.749	-0.154	-0.213
-470.216	57.762	-0.190	-0.187
-469.201	800.000	0.053	-0.183
-468.186	-0.445	-0.226	0.162
-467.172	378.794	-0.087	0.179
-466.157	-200.000	-0.025	0.296
-465.143	-82.433	-0.353	-0.116
-464.128	52.453	-0.039	0.038
-463.113	-51.684	0.074	-0.035
-462.099	282.293	0.039	-0.070
-461.084	800.000	-0.049	-0.153
-460.070	-69.679	-0.473	-0.182
-459.055	501.258	-0.140	-0.327
-458.040	-7.392	-0.140	0.096
-457.026	-128.988	0.120	0.017
-456.011	-152.102	-0.142	0.010
-454.997	-83.074	0.128	-0.042
-453.982	-200.000	-0.004	0.031
-452.968	-181.587	0.273	0.005
-451.953	89.262	-0.257	0.289
-450.938	602.179	0.097	-0.243
-449.924	76.446	-0.189	-0.202
-448.909	-162.540	0.624	0.031
-447.895	191.912	-0.200	-0.304
-446.880	-83.003	0.166	-0.054
-445.865	-82.303	0.157	0.052
-444.851	-155.364	0.345	-0.023
-443.836	534.717	0.060	-0.143
-442.822	800.000	0.075	0.317
-441.807	800.000	0.021	-0.062
-440.792	-152.062	-0.537	-0.039
-439.778	143.600	-0.116	-0.155
-438.763	-144.943	0.392	-0.036
-437.749	-93.595	-0.467	-0.130
-436.734	-200.000	-0.009	0.078
-435.719	-200.000	0.029	0.480
-434.705	-107.580	0.216	-0.048
-433.690	-35.644	0.033	0.018
-432.676	-35.200	-0.201	0.110
-431.661	-168.907	0.366	0.014
-430.646	376.823	0.104	-0.215
-429.632	26.304	-0.279	0.235
-428.617	-95.558	-0.192	0.052
-427.603	35.305	-0.127	-0.112
-426.588	170.129	0.044	-0.063
-425.573	-66.748	-0.211	0.084
-424.559	-66.014	0.087	0.035
-423.544	-200.000	-0.003	-0.364
-422.530	88.157	-0.048	0.053
-421.515	-200.000	-0.007	-0.053
-420.500	302.186	-0.038	0.071
-419.486	-75.850	-0.284	0.101
-418.471	345.986	-0.122	0.242
-417.457	800.000	-0.043	0.183
-416.442	114.886	0.227	0.279
-415.428	57.051	0.045	0.044
-414.413	-127.700	-0.250	-0.036
-413.398	-27.888	0.246	-0.143
-412.384	162.824	0.059	-0.083
-411.369	-73.434	0.169	0.062
-410.355	97.559	0.200	0.231
-409.340	289.585	0.121	-0.222
-408.325	-68.696	0.029	0.011
-407.311	-70.851	-0.143	0.054
-406.296	-89.707	0.142	-0.042
-405.282	795.883	0.048	0.134
-404.267	20.958	-0.082	-0.067
-403.252	566.342	0.202	0.493
-402.238	163.043	-0.154	0.218
-401.223	3.059	0.144	0.106
-400.209	-200.000	-0.001	0.276
-399.194	52.897	-0.055	0.052
-398.179	-58.612	-0.347	0.151
-397.165	22.180	0.315	0.259
-396.150	800.000	0.093	-0.341
-395.136	-80.401	-0.153	0.051
-394.121	59.791	-0.086	0.085
-393.106	-61.069	-0.105	0.045
-392.092	13.482	-0.135	-0.105
-391.077	-200.000	0.025	0.183
-390.063	-188.882	0.158	0.002
-389.048	47.812	-0.088	-0.083
-388.033	-167.658	-0.201	0.008
-387.019	-200.000	0.056	-0.253
-386.004	-74.612	0.418	0.151
-384.990	314.187	0.186	-0.351
-383.975	-1.324	0.361	-0.256
-382.960	-83.162	-0.072	0.023
-381.946	-118.967	0.337	0.059
-380.931	69.637	-0.176	0.182
-379.917	800.000	0.034	0.127
-378.902	-200.000	-0.018	-0.307
-377.888	-57.683	-0.303	-0.133
-376.873	-70.768	0.150	-0.057
-375.858	-82.450	0.273	0.089
-374.844	-200.000	-0.019	-0.408
-373.829	800.000	0.085	0.265
-372.815	-151.231	0.160	0.012
-371.800	-16.097	-0.151	0.097
-370.785	-80.799	-0.064	0.021
-369.771	311.949	-0.263	0.495
-368.756	-63.691	0.316	0.130
-367.742	-166.349	-0.102	-0.004
-366.727	-78.391	0.424	-0.146
-365.712	800.000	0.080	-0.320
-364.698	-200.000	0.066	-0.358
-363.683	140.089	-0.150	-0.199
-362.669	175.222	0.037	0.053
-361.654	-114.549	-0.274	0.053
-360.639	-37.531	0.166	0.089
-359.625	367.758	0.117	-0.238
-358.610	-70.551	-0.172	0.066
-357.596	193.809	0.113	-0.172
-356.581	550.492	-0.061	-0.147
-355.566	291.372	0.137	0.251
-354.552	-200.000	-0.036	-0.178
-353.537	-130.610	-0.430	0.058
-352.523	-151.548	0.178	0.013
-351.508	-200.000	0.042	-0.318
-350.493	-9.039	0.167	0.112
-349.479	110.359	0.183	0.220
-348.464	800.000	0.019	-0.070
-347.450	35.720	-0.159	-0.140
-346.435	485.364	0.097	-0.222
-345.420	800.000	0.017	-0.070
-344.406	-112.084	-0.119	0.024
-343.391	485.577	-0.078	-0.178
-342.377	-200.000	0.007	-0.136
-341.362	50.170	-0.069	-0.065
-340.348	-33.510	-0.146	0.081
-339.333	123.730	-0.046	-0.058
-338.318	-102.522	0.433	-0.104
-337.304	-97.346	-0.202	0.053
-336.289	-20.950	0.083	-0.051
-335.275	-200.000	0.031	-0.250
-334.260	1.718	0.107	-0.077
-333.245	-200.000	0.005	0.105
-332.231	-200.000	-0.006	-0.382
-331.216	189.576	-0.209	0.314
-330.202	113.914	-0.176	-0.214
-329.187	800.000	-0.061	-0.249
-328.172	61.640	0.166	-0.166
-327.158	290.559	0.175	0.319
-326.143	-77.039	-0.055	-0.019
-325.129	-200.000	0.003	0.145
-324.114	-50.581	0.137	0.065
-323.099	-103.229	0.251	-0.060
-322.085	-200.000	0.004	0.388
-321.070	438.133	-0.057	0.124
-320.056	331.400	0.117	0.226
-319.041	652.314	-0.042	0.108
-318.026	-200.000	-0.038	0.276
-317.012	33.116	0.223	-0.194
-315.997	171.897	0.087	0.126
-314.983	-87.337	0.148	0.045
-313.968	-200.000	-0.046	-0.230
-312.953	-200.000	0.007	0.356
-311.939	556.158	-0.262	0.632
-310.924	370.418	0.088	0.180
-309.910	164.615	-0.110	-0.155
-308.895	606.296	0.144	0.360
-307.880	-200.000	-0.056	-0.287
-306.866	-7.535	-0.155	-0.105
-305.851	-200.000	0.004	-0.207
-304.837	-200.000	0.032	-0.293
-303.822	21.929	-0.266	0.217
-302.807	108.433	0.193	-0.230
-301.793	14.722	-0.183	0.143
-300.778	-63.484	0.133	0.055
-299.764	800.000	0.090	0.292
-298.749	-143.324	-0.275	-0.026
-297.735	-74.667	0.407	-0.147
-296.720	77.782	-0.304	-0.324
-295.705	-28.646	-0.295	0.170
-294.691	-64.233	0.298	0.122
-293.676	800.000	0.081	0.243
-292.662	-200.000	-0.077	-0.000
-291.647	-200.000	0.012	-0.127
-290.632	10.655	0.373	-0.285
-289.618	0.016	0.317	0.226
-288.603	471.071	0.083	-0.188
-287.589	547.990	-0.134	0.320
-286.574	643.482	0.111	-0.283
-285.559	-178.765	0.131	0.003
-284.545	-200.000	-0.040	0.238
-283.530	-200.000	-0.000	0.104
-282.516	-87.551	-0.215	-0.065
-281.501	-94.405	0.273	0.075
-280.486	-33.498	0.259	0.143
-279.472	-78.243	-0.330	-0.114
-278.457	-154.709	0.313	0.021
-277.443	-30.563	-0.367	0.208
-276.428	-200.000	-0.047	-0.221
-275.413	189.869	0.047	-0.071
-274.399	-200.000	0.002	0.169
-273.384	-200.000	0.026	-0.121
-272.370	-154.345	-0.212	-0.014
-271.355	148.343	-0.168	-0.227
-270.340	-142.288	0.300	0.030
-269.326	20.824	-0.174	-0.141
-268.311	-60.239	0.272	-0.116
-267.297	800.000	0.068	0.253
-266.282	-200.000	0.015	-0.205
-265.267	-115.319	0.420	0.079
-264.253	800.000	0.081	-0.278
-263.238	-89.999	0.062	-0.018
-262.224	-197.295	-0.235	0.001
-261.209	-200.000	0.004	0.048
-260.195	-200.000	0.008	0.100
-259.180	-45.761	0.172	-0.085
-258.165	-10.014	-0.071	0.047
-257.151	-200.000	0.004	0.139
-256.136	54.001	-0.132	-0.127
-255.122	-121.834	0.220	-0.036
-254.107	404.083	0.159	0.335
-253.092	-107.848	0.313	0.068
-252.078	-200.000	0.008	0.374
-251.063	-25.565	0.303	0.179
-250.049	428.472	-0.043	0.093
-249.034	194.684	-0.125	-0.189
-248.019	-53.587	-0.186	-0.085
-247.005	-200.000	-0.007	0.137
-245.990	134.522	0.095	0.123
-244.976	-93.097	0.265	-0.074
-243.961	-130.954	-0.107	-0.014
-242.946	361.618	0.246	-0.493
-241.932	320.585	-0.057	0.108
-240.917	-174.652	0.239	-0.007
-239.903	800.000	0.070	-0.247
-238.888	-200.000	0.043	-0.219
-237.873	112.773	0.302	-0.366
-236.859	-99.784	0.081	-0.020
-235.844	800.000	0.049	-0.200
-234.830	456.682	-0.092	0.205
-233.815	12.617	0.156	0.120
-232.800	-17.755	0.067	-0.042
-231.786	-101.325	-0.362	0.088
-230.771	-20.129	-0.076	-0.047
-229.757	749.780	0.077	0.209
-228.742	-29.932	-0.111	0.063
-227.727	16.859	0.048	0.038
-226.713	-6.140	-0.135	-0.092
-225.698	273.712	0.070	-0.124
-224.684	199.235	-0.031	0.048
-223.669	130.780	0.246	-0.315
-222.655	-60.071	-0.199	0.085
-221.640	357.116	-0.080	-0.159
-220.625	-55.863	-0.176	0.078
-219.611	66.201	0.078	0.079
-218.596	-72.524	0.182	-0.067
-217.582	-120.706	-0.299	0.050
-216.567	-109.806	-0.168	-0.035
-215.552	446.673	0.099	0.217
-214.538	27.173	-0.250	-0.210
-213.523	-200.000	0.015	-0.258
-212.509	90.459	-0.214	0.239
-211.494	12.050	-0.060	-0.046
-210.479	800.000	0.172	-0.490
-209.465	800.000	0.090	0.384
-208.450	348.344	-0.054	-0.106
-207.436	163.338	-0.082	0.115
-206.421	4.588	-0.089	0.066
-205.406	-200.000	0.099	0.460
-204.392	-200.000	-0.049	0.402
-203.377	9.419	-0.211	0.159
-202.363	189.591	0.088	0.132
-201.348	-200.000	0.000	-0.005
-200.333	-155.939	-0.375	0.024
-199.319	-65.655	-0.210	-0.084
-198.304	-200.000	0.029	0.000
-197.290	136.623	-0.103	0.134
-196.275	800.000	0.017	-0.065
-195.260	-4.047	0.184	0.127
-194.246	-149.910	0.118	-0.009
-193.231	19.549	-0.150	-0.121
-192.217	355.827	0.059	0.116
-191.202	302.033	0.143	-0.263
-190.187	-147.132	0.260	0.022
-189.173	-200.000	0.012	0.143
-188.158	383.522	-0.083	-0.170
-187.144	-200.000	0.023	-0.173
-186.129	360.613	0.106	-0.212
-185.114	-86.283	0.233	-0.072
-184.100	-57.784	-0.165	-0.072
-183.085	-12.932	0.080	-0.052
-182.071	286.892	-0.032	0.058
-181.056	111.649	-0.057	0.068
-180.042	592.077	0.139	0.343
-179.027	-200.000	0.060	0.389
-178.012	800.000	-0.132	-0.481
-176.998	800.000	0.033	-0.108
-175.983	46.869	0.223	-0.206
-174.969	-20.319	0.497	0.305
-173.954	488.797	0.140	0.320
-172.939	138.327	0.137	0.179
-171.925	89.935	-0.162	0.181
-170.910	800.000	-0.031	0.126
-169.896	-200.000	-0.004	0.106
-168.881	423.672	-0.112	-0.240
-167.866	-200.000	0.015	0.146
-166.852	54.194	0.061	-0.058
-165.837	-200.000	-0.034	0.173
-164.823	-172.100	0.355	0.011
-163.808	-2.583	0.289	0.202
-162.793	-171.244	-0.155	0.005
-161.779	-0.440	0.085	-0.060
-160.764	800.000	0.036	-0.114
-159.750	265.484	0.214	0.371
-158.735	-200.000	-0.064	0.279
-157.720	-47.742	0.256	0.123
-156.706	680.225	-0.068	-0.175
-155.691	-200.000	0.008	-0.245
-154.677	-30.284	-0.090	0.051
-153.662	800.000	-0.054	-0.163
-152.647	114.063	0.124	-0.151
-151.633	800.000	-0.095	0.338
-150.618	52.438	-0.019	0.018
-149.604	-113.248	-0.193	0.038
-148.589	-200.000	0.017	-0.249
-147.574	800.000	-0.036	0.111
-146.560	323.643	0.027	0.052
-145.545	5.529	0.264	-0.194
-144.531	39.635	0.360	0.321
-143.516	800.000	0.047	0.168
-142.502	-123.298	0.234	-0.037
-141.487	288.746	0.049	-0.089
-140.472	-69.328	-0.204	0.078
-139.458	239.650	-0.142	-0.235
-138.443	-71.700	0.273	0.101
-137.429	239.025	-0.071	0.118
-136.414	-150.856	0.512	0.039
-135.399	167.682	0.121	-0.171
-134.385	-127.637	0.160	-0.023
-133.370	148.311	0.174	-0.233
-132.356	-200.000	-0.027	-0.196
-131.341	252.583	0.013	0.023
-130.326	78.420	0.335	0.356
-129.312	-64.104	0.392	-0.159
-128.297	-200.000	0.024	-0.323
-127.283	153.999	-0.092	-0.125
-126.268	-149.854	-0.217	0.017
-125.253	669.800	0.074	-0.190
-124.239	-200.000	0.271	-0.001
-123.224	-39.705	-0.287	-0.149
-122.210	263.269	-0.050	0.087
-121.195	-158.365	-0.197	-0.011
-120.180	-200.000	-0.015	0.091
-119.166	-138.586	0.045	-0.005
-118.151	-200.000	-0.032	0.366
-117.137	128.320	0.044	0.056
-116.122	-200.000	0.075	0.358
-115.107	83.366	-0.119	0.129
-114.093	182.998	-0.138	-0.203
-113.078	-200.000	0.085	-0.436
-112.064	88.019	0.083	0.091
-111.049	-200.000	0.052	0.330
-110.034	273.537	-0.032	-0.057
-109.020	49.318	-0.067	-0.063
-108.005	800.000	0.115	-0.341
-106.991	800.000	0.039	0.167
-105.976	800.000	0.022	-0.071
-104.962	302.085	-0.182	-0.334
-103.947	800.000	-0.030	-0.082
-102.932	474.334	-0.056	-0.126
-101.918	82.404	0.108	-0.116
-100.903	500.193	0.059	-0.136
-99.889	3.159	0.107	0.077
-98.874	125.119	-0.124	-0.155
-97.859	-200.000	-0.007	0.125
-96.845	29.982	0.139	-0.118
-95.830	236.396	0.164	0.270
-94.816	47.842	-0.192	0.178
-93.801	-136.006	-0.189	-0.022
-92.786	-59.230	-0.233	-0.100
-91.772	800.000	-0.119	0.415
-90.757	-200.000	0.012	0.185
-89.743	352.926	-0.079	-0.156
-88.728	-200.000	0.003	-0.297
-87.713	532.355	-0.033	0.078
-86.699	-115.063	0.245	-0.046
-85.684	-81.248	-0.398	-0.130
-84.670	-136.537	-0.296	0.034
-83.655	800.000	0.030	-0.116
-82.640	360.218	0.138	-0.275
-81.626	186.701	0.198	0.293
-80.611	-55.220	-0.191	-0.085
-79.597	9.298	-0.273	-0.205
-78.582	628.749	-0.036	-0.090
-77.567	317.091	0.027	-0.051
-76.553	-200.000	0.030	0.151
-75.538	257.880	-0.065	0.110
-74.524	-98.655	-0.195	-0.049
-73.509	800.000	0.080	-0.235
-72.494	-200.000	-0.027	-0.229
-71.480	800.000	-0.100	-0.305
-70.465	-87.683	0.366	-0.110
-69.451	-200.000	-0.001	-0.060
-68.436	41.529	0.158	0.142
-67.422	31.252	-0.063	0.053
-66.407	372.413	0.164	0.331
-65.392	-173.092	-0.131	-0.004
-64.378	-91.239	0.237	-0.067
-63.363	214.274	-0.076	0.120
-62.349	158.556	-0.169	0.233
-61.334	108.964	-0.833	-0.988
-60.319	800.000	0.091	0.303
-59.305	680.020	-0.330	-0.853
-58.290	197.316	0.600	0.908
-57.276	316.533	0.655	1.228
-56.261	-200.000	94.991	557.432
-55.246	620.433	1379.590	3442.328
-54.232	187.016	2593.793	3835.921
-53.217	121.249	2202.693	2721.302
-52.203	45.512	1738.138	1592.290
-51.188	38.022	1548.804	1366.592
-50.173	35.542	1521.351	1325.232
-49.159	54.094	1572.021	1499.965
-48.144	57.498	1590.998	1541.894
-47.130	38.466	1546.196	1367.176
-46.115	35.159	1530.396	1330.240
-45.100	35.005	1527.723	1326.796
-44.086	34.994	1525.621	1324.841
-43.071	34.931	1523.690	1322.676
-42.057	34.933	1522.005	1321.175
-41.042	34.931	1520.452	1319.760
-40.027	34.774	1519.590	1317.874
-39.013	34.918	1517.731	1317.206
-37.998	34.962	1515.874	1315.841
-36.984	34.976	1515.128	1315.240
-35.969	35.009	1513.608	1314.097
-34.954	34.953	1512.405	1312.614
-33.940	34.846	1511.198	1310.780
-32.925	34.933	1509.452	1309.807
-31.911	34.951	1508.142	1308.742
-30.896	34.952	1506.795	1307.529
-29.881	35.014	1505.476	1306.756
-28.867	34.954	1504.280	1305.256
-27.852	34.976	1502.900	1304.155
-26.838	34.992	1500.919	1302.498
-25.823	35.040	1499.180	1301.263
-24.809	34.949	1498.001	1299.569
-23.794	34.880	1497.047	1298.224
-22.779	34.835	1495.946	1296.908
-21.765	34.975	1494.779	1296.793
-20.750	34.930	1493.452	1295.287
-19.736	34.945	1492.196	1294.245
-18.721	34.945	1491.065	1293.212
-17.706	34.968	1490.103	1292.483
-16.692	34.908	1489.342	1291.368
-15.677	34.951	1487.869	1290.328
-14.663	34.914	1487.110	1289.375
-13.648	34.902	1486.205	1288.456
-12.633	34.917	1485.109	1287.558
-11.619	34.870	1484.464	1286.629
-10.604	34.810	1483.804	1285.604
-9.590	34.884	1482.895	1285.263
-8.575	34.966	1481.784	1284.794
-7.560	34.840	1481.344	1283.520
-6.546	34.863	1480.167	1282.600
-5.531	34.851	1479.514	1281.904
-4.517	34.860	1478.188	1280.764
-3.502	34.835	1477.365	1279.831
-2.487	34.828	1476.606	1279.076
-1.473	34.838	1475.558	1278.185
-0.458	34.872	1474.209	1277.196
0.556	37.145	1465.009	1269.717
1.571	34.706	1439.703	1231.971
2.586	31.212	1377.236	1156.805
3.600	29.021	1292.654	1072.905
4.615	26.494	1243.778	1018.050
5.629	21.904	1185.902	945.905
6.644	13.170	1099.621	833.153
7.659	6.100	1058.014	767.144
8.673	4.984	1052.090	757.366
9.688	4.859	1048.631	754.199
10.702	4.603	1047.145	751.830
11.717	4.904	1045.443	751.993
12.731	8.064	1049.322	770.005
13.746	16.276	1060.809	818.326
14.761	21.611	1066.717	848.744
15.775	21.831	1066.091	849.235
16.790	21.012	1064.032	843.563
17.804	19.974	1062.292	837.091
18.819	19.100	1059.817	830.851
19.834	18.660	1059.315	828.260
20.848	18.476	1058.184	826.415
21.863	18.407	1057.186	825.229
22.877	18.100	1056.823	823.393
23.892	18.009	1055.329	821.719
24.907	17.912	1054.750	820.732
25.921	17.922	1054.056	820.166
26.936	17.831	1053.821	819.473
27.950	17.944	1052.278	818.745
28.965	17.950	1051.150	817.821
29.980	17.956	1050.430	817.218
30.994	17.972	1049.480	816.482
32.009	18.162	1048.485	816.544
33.023	18.297	1047.718	816.517
34.038	18.268	1047.041	815.782
35.053	18.258	1045.907	814.777
36.067	17.969	1045.295	812.855
37.082	17.932	1044.044	811.633
38.096	17.973	1043.419	811.268
39.111	18.096	1042.892	811.373
40.126	18.142	1042.341	811.090
41.140	18.017	1041.013	809.391
42.155	17.912	1039.558	807.694
43.169	17.673	1038.577	805.731
44.184	17.653	1037.499	804.726
45.199	17.619	1036.199	803.488
46.213	17.690	1035.145	802.936
47.228	17.704	1034.708	802.590
48.242	17.925	1033.753	802.819
49.257	17.975	1033.151	802.515
50.271	17.898	1032.014	801.199
51.286	17.902	1031.543	800.782
52.301	18.014	1030.721	800.598
53.315	18.071	1029.691	799.994
54.330	18.128	1028.989	799.641
55.344	17.867	1028.070	797.637
56.359	17.878	1027.140	796.897
57.374	17.919	1025.837	796.006
58.388	17.718	1025.805	794.977
59.403	17.674	1024.448	793.650
60.417	17.582	1023.712	792.580
61.432	17.533	1022.781	791.559
62.447	17.543	1022.171	791.064
63.461	17.496	1021.336	790.129
64.476	17.501	1020.412	789.367
65.490	17.434	1019.428	788.229
66.505	17.394	1018.864	787.539
67.520	17.437	1018.090	787.068
68.534	17.532	1017.046	786.633
69.549	17.494	1016.627	786.060
70.563	17.464	1015.773	785.192
71.578	17.346	1014.883	783.890
72.593	17.314	1013.617	782.698
73.607	17.276	1012.864	781.872
74.622	17.250	1011.725	780.804
75.636	17.320	1010.845	780.375
76.651	17.354	1010.252	780.008
77.666	17.400	1009.417	779.504
78.680	17.330	1009.079	778.853
79.695	17.427	1008.108	778.477
80.709	17.497	1007.684	778.402
81.724	17.536	1007.237	778.167
82.739	17.715	1006.226	778.135
83.753	17.655	1005.859	777.508
84.768	17.978	1005.006	778.252
85.782	18.097	1004.439	778.284
86.797	18.334	1003.589	778.632
87.812	18.296	1002.709	777.711
88.826	18.056	1001.844	775.881
89.841	17.866	1001.405	774.610
90.855	18.062	1000.181	774.485
91.870	18.185	999.387	774.356
92.884	18.277	998.814	774.258
93.899	18.094	998.345	772.999
94.914	18.219	997.181	772.595
95.928	18.304	996.215	772.162
96.943	18.284	995.935	771.787
97.957	18.110	995.243	770.399
98.972	18.036	994.231	769.215
99.987	18.007	993.311	768.303
101.001	18.035	992.906	768.048
102.016	18.145	992.046	767.810
103.030	18.226	990.780	767.123
104.045	18.045	990.196	765.794
105.060	18.063	989.490	765.260
106.074	17.959	988.103	763.656
107.089	17.896	986.659	762.189
108.103	17.573	986.088	760.240
109.118	17.515	985.132	759.178
110.133	17.545	983.982	758.357
111.147	17.521	983.413	757.745
112.162	17.565	981.854	756.670
113.176	17.450	981.844	756.086
114.191	17.572	981.070	755.966
115.206	17.813	979.885	756.055
116.220	17.628	979.133	754.587
117.235	17.780	978.028	754.339
118.249	17.670	977.372	753.281
119.264	17.678	976.439	752.534
120.279	17.588	975.544	751.380
121.293	17.578	974.799	750.693
122.308	17.375	974.160	749.239
123.322	17.492	973.172	748.928
124.337	17.456	971.762	747.618
125.352	17.285	970.800	746.066
126.366	17.215	970.351	745.347
127.381	17.347	968.545	744.471
128.395	17.317	967.826	743.721
129.410	17.370	966.496	742.866
130.424	17.517	965.963	743.031
131.439	17.488	965.108	742.182
132.454	17.558	964.729	742.129
133.468	17.618	964.318	742.008
134.483	17.646	963.539	741.465
135.497	17.698	962.982	741.195
136.512	17.664	962.277	740.441
137.527	17.676	961.526	739.850
138.541	17.694	960.589	739.142
139.556	17.782	959.543	738.653
140.570	17.776	959.117	738.232
141.585	17.904	957.956	737.827
142.600	18.061	957.754	738.283
143.614	18.132	956.981	737.928
144.629	18.150	955.854	737.073
145.643	18.133	955.686	736.807
146.658	18.183	954.072	735.711
147.673	18.055	953.258	734.468
148.687	17.902	952.412	733.095
149.702	17.784	951.723	731.993
150.716	17.688	950.791	730.798
151.731	17.725	949.790	730.125
152.746	17.673	949.370	729.513
153.760	17.790	948.502	729.285
154.775	17.875	947.906	729.120
155.789	18.012	946.877	728.850
156.804	17.907	946.627	728.147
157.819	18.038	945.145	727.501
158.833	18.088	944.675	727.287
159.848	18.191	944.107	727.222
160.862	18.271	943.703	727.185
161.877	18.084	942.880	725.696
162.892	17.978	941.733	724.298
163.906	17.611	940.998	722.115
164.921	17.739	939.815	721.685
165.935	17.611	939.004	720.454
166.950	17.834	937.705	720.336
167.964	17.865	937.282	720.079
168.979	17.889	935.990	719.123
169.994	17.834	934.931	718.014
171.008	17.756	934.101	716.988
172.023	17.879	933.418	716.913
173.037	18.008	932.786	716.906
174.052	18.210	931.873	716.988
175.067	18.022	931.573	715.909
176.081	17.928	930.150	714.355
177.096	17.684	929.556	712.818
178.110	17.834	928.723	712.744
179.125	17.817	927.909	711.983
180.140	17.808	927.369	711.469
181.154	17.842	926.603	710.960
182.169	18.078	926.162	711.542
183.183	18.141	925.761	711.432
184.198	18.147	925.078	710.869
185.213	18.088	924.832	710.372
186.227	18.232	923.766	710.089
187.242	18.263	923.226	709.739
188.256	18.302	922.443	709.237
189.271	18.432	922.178	709.509
190.286	18.551	920.987	709.020
191.300	18.158	920.483	706.944
192.315	17.788	919.519	704.613
193.329	17.521	918.529	702.694
194.344	17.630	917.833	702.545
195.359	17.731	917.423	702.585
196.373	17.902	917.103	702.983
197.388	18.115	916.578	703.398
198.402	18.146	916.116	703.106
199.417	18.205	916.197	703.348
200.432	18.457	915.358	703.679
201.446	18.507	915.038	703.576
202.461	18.632	914.810	703.850
203.475	18.618	914.581	703.554
204.490	18.739	913.717	703.323
205.504	18.476	912.434	701.197
206.519	18.394	911.544	700.117
207.534	18.388	910.709	699.388
208.548	18.268	910.042	698.325
209.563	18.358	909.522	698.233
210.577	18.485	908.477	697.883
211.592	18.371	908.145	697.104
212.607	18.551	907.492	697.273
213.621	18.686	907.163	697.508
214.636	18.636	906.745	696.919
215.650	18.477	905.853	695.526
216.665	18.577	905.453	695.565
217.680	18.596	904.924	695.175
218.694	18.753	904.200	695.191
219.709	18.922	903.850	695.543
220.723	18.741	903.060	694.144
221.738	18.636	902.486	693.215
222.753	18.655	901.736	692.655
223.767	18.700	901.410	692.525
224.782	18.712	900.217	691.598
225.796	18.880	899.237	691.457
226.811	18.901	899.076	691.359
227.826	18.853	898.395	690.580
228.840	18.753	897.575	689.488
229.855	18.511	896.817	687.874
230.869	18.590	896.250	687.693
231.884	18.650	895.320	687.161
232.899	18.611	894.535	686.343
233.913	18.461	894.415	685.586
234.928	18.512	893.397	684.951
235.942	18.521	892.630	684.340
236.957	18.556	891.588	683.616
237.972	18.539	891.162	683.163
238.986	18.509	890.309	682.330
240.001	18.401	890.278	681.817
241.015	18.442	889.553	681.361
242.030	18.586	888.840	681.329
243.045	18.641	888.232	681.019
244.059	18.671	887.680	680.655
245.074	18.766	887.012	680.461
246.088	18.815	886.482	680.187
247.103	18.887	885.862	679.935
248.117	18.866	884.876	679.035
249.132	19.033	884.808	679.582
250.147	19.172	884.693	679.984
251.161	19.370	884.291	680.394
252.176	19.437	883.563	680.042
253.190	19.671	882.559	680.128
254.205	19.653	882.143	679.677
255.220	19.563	881.680	678.905
256.234	19.427	881.213	677.952
257.249	19.494	880.355	677.495
258.263	19.441	879.869	676.853
259.278	19.649	878.851	676.825
260.293	19.456	878.785	675.958
261.307	19.504	878.248	675.675
262.322	19.653	877.613	675.708
263.336	19.730	877.102	675.555
264.351	19.723	876.436	674.957
265.366	19.674	875.948	674.327
266.380	19.772	875.217	674.087
267.395	19.773	874.441	673.437
268.409	19.598	873.483	671.959
269.424	19.537	872.876	671.193
270.439	19.580	872.183	670.770
271.453	19.412	871.849	669.801
272.468	19.395	870.703	668.794
273.482	19.464	869.827	668.330
274.497	19.378	869.546	667.720
275.512	19.345	869.191	667.259
276.526	19.475	867.765	666.609
277.541	19.448	867.504	666.248
278.555	19.391	867.309	665.819
279.570	19.576	866.688	665.994
280.585	19.646	866.263	665.879
281.599	19.846	865.648	666.120
282.614	19.771	864.868	665.171
283.628	19.478	864.447	663.660
284.643	19.539	863.850	663.380
285.657	19.662	862.958	663.105
286.672	19.429	862.965	662.159
287.687	19.640	862.104	662.247
288.701	19.737	861.173	661.848
289.716	19.699	860.938	661.464
290.730	19.607	860.641	660.822
291.745	19.606	860.005	660.274
292.760	19.716	859.346	660.128
293.774	19.800	858.392	659.657
294.789	19.846	858.228	659.649
295.803	19.850	857.855	659.318
296.818	19.677	856.742	657.748
297.833	19.711	856.111	657.332
298.847	19.743	855.394	656.846
299.862	19.684	854.820	656.124
300.876	19.783	854.446	656.154
301.891	19.762	853.624	655.386
302.906	19.769	853.054	654.915
303.920	19.971	852.475	655.177
304.935	20.201	851.662	655.366
305.949	20.230	851.061	654.953
306.964	20.194	850.813	654.570
307.979	19.948	850.455	653.308
308.993	20.097	849.350	652.964
310.008	20.118	848.694	652.479
311.022	20.037	848.966	652.327
312.037	20.059	848.561	652.041
313.052	20.051	847.727	651.311
314.066	20.096	846.514	650.492
315.081	19.808	846.184	649.099
316.095	19.720	845.438	648.140
317.110	19.697	845.271	647.868
318.125	19.889	844.220	647.722
319.139	19.847	844.079	647.401
320.154	19.847	843.654	647.016
321.168	19.687	843.209	646.019
322.183	19.901	842.588	646.285
323.197	19.829	842.371	645.793
324.212	19.954	841.693	645.684
325.227	19.949	841.063	645.124
326.241	19.930	840.213	644.344
327.256	19.951	839.800	644.049
328.270	19.863	839.361	643.328
329.285	19.916	838.761	643.008
330.300	19.842	837.845	641.977
331.314	19.956	837.421	642.014
332.329	20.009	836.590	641.519
333.343	19.986	836.405	641.236
334.358	20.239	835.689	641.564
335.373	20.271	835.288	641.319
336.387	20.519	834.703	641.728
337.402	20.291	834.264	640.492
338.416	20.389	833.574	640.267
339.431	20.341	833.323	639.840
340.446	20.696	832.928	640.788
341.460	20.615	832.419	640.043
342.475	20.615	831.775	639.489
343.489	20.599	831.557	639.206
344.504	20.636	830.917	638.793
345.519	20.794	830.404	638.923
346.533	20.684	830.153	638.272
347.548	20.812	829.397	638.101
348.562	20.525	829.034	636.714
349.577	20.483	828.273	635.919
350.592	20.330	827.273	634.538
351.606	20.236	826.904	633.855
352.621	20.264	826.293	633.433
353.635	20.221	825.797	632.840
354.650	20.264	825.801	632.944
355.665	20.440	825.363	633.192
356.679	20.493	824.746	632.856
357.694	20.611	824.419	632.979
358.708	20.428	823.613	631.640
359.723	20.527	822.848	631.356
360.738	20.611	821.888	630.869
361.752	20.547	821.708	630.444
362.767	20.502	822.117	630.537
363.781	20.764	821.509	630.965
364.796	20.881	820.762	630.757
365.810	20.909	820.795	630.829
366.825	20.950	820.485	630.685
367.840	20.955	820.397	630.577
368.854	21.057	819.592	630.272
369.869	20.961	818.938	629.367
370.883	20.881	818.490	628.679
371.898	20.846	817.822	627.983
372.913	20.957	817.155	627.817
373.927	21.202	816.457	628.107
374.942	21.025	816.285	627.282
375.956	21.020	815.196	626.371
376.971	21.134	814.428	626.133
377.986	21.196	814.300	626.203
379.000	21.357	814.026	626.514
380.015	21.355	813.471	626.023
381.029	21.223	812.802	624.981
382.044	21.196	812.501	624.599
383.059	21.176	811.576	623.761
384.073	21.187	811.294	623.529
385.088	21.225	810.379	622.903
386.102	20.930	809.980	621.490
387.117	20.889	809.215	620.702
388.132	20.856	809.245	620.554
389.146	20.961	808.194	620.065
390.161	20.995	807.729	619.774
391.175	21.197	807.650	620.376
392.190	21.230	807.507	620.329
393.205	21.274	806.968	620.018
394.219	21.213	806.162	619.127
395.234	20.868	805.826	617.592
396.248	20.906	805.637	617.527
397.263	20.843	805.056	616.802
398.278	20.744	804.506	615.978
399.292	20.876	803.641	615.726
400.307	20.830	803.366	615.300
401.321	20.871	802.803	614.958
402.336	20.852	802.257	614.417
403.350	21.015	802.049	614.779
404.365	21.111	801.810	614.880
405.380	21.172	801.510	614.812
406.394	21.313	800.791	614.701
407.409	21.569	800.112	615.026
408.423	21.486	800.054	614.634
409.438	21.493	799.605	614.260
410.453	21.519	799.469	614.191
411.467	21.674	799.003	614.322
412.482	21.724	798.500	614.057
413.496	21.838	797.939	613.971
414.511	21.873	797.767	613.907
415.526	21.775	797.239	613.104
416.540	21.555	797.233	612.273
417.555	21.588	796.713	611.935
418.569	21.557	796.381	611.519
419.584	21.574	795.778	611.061
420.599	21.691	795.110	610.902
421.613	157.863	1367.770	1788.309
422.628	136.823	1451.225	1788.401
