DTS Sentinel unit serial number:	SN413079Multiplexer serial number:	ORYXHardware model number:	OX4-SRSoftware version number:	ORYX F/W v4.00 Oryx Data Collector v3.7.2.0data status	okinstallation	princeton_trtdifferential loss correction	single-endedforward channel	channel 3reverse channel	N/Adate	2019/09/13time	11:44:35forward acquisition time	60.00reverse acquisition time	0.00gamma	496.2192k internal	0.2312k external	0.2312temperature offset calibration	1.0148default loss term (dB/km)	0.3790temperature slope calibration	1.0000multiplexer offset coefficient	1.0000multiplexer slope coefficient	1.0000fibre end	0.00T internal ref (°C)	33.16T ext. ref 1 (°C)	4.52T ext. ref 2 (°C)	30.34length (m)	temperature (°C)	Stokes	anti-Stokes-747.200	-200.000	0.001	-0.035
-746.185	76.824	0.334	0.360
-745.171	800.000	0.058	-0.251
-744.156	-43.661	-0.232	-0.119
-743.142	800.000	-0.057	0.205
-742.127	800.000	-0.074	0.247
-741.112	-200.000	0.009	0.041
-740.098	19.328	-0.317	0.258
-739.083	-134.141	0.369	-0.046
-738.069	800.000	0.087	0.290
-737.054	-81.770	-0.147	-0.049
-736.039	800.000	0.084	-0.279
-735.025	-53.436	0.131	-0.061
-734.010	58.449	-0.312	-0.311
-732.996	153.162	-0.145	-0.201
-731.981	361.640	0.077	0.158
-730.966	703.307	0.072	-0.194
-729.952	800.000	0.015	-0.049
-728.937	484.399	-0.026	0.060
-727.923	321.839	0.042	-0.080
-726.908	-82.343	0.194	-0.064
-725.894	248.664	-0.044	0.076
-724.879	179.843	-0.115	-0.171
-723.864	242.455	-0.333	-0.565
-722.850	0.638	0.232	-0.168
-721.835	-23.508	0.148	0.090
-720.821	284.982	-0.181	-0.330
-719.806	-13.523	0.185	-0.122
-718.791	-200.000	0.086	-0.420
-717.777	-128.361	0.196	-0.028
-716.762	-159.934	-0.257	0.014
-715.748	242.922	-0.136	-0.231
-714.733	-92.053	-0.246	-0.070
-713.718	29.873	0.156	-0.135
-712.704	91.131	-0.115	-0.131
-711.689	-90.834	0.325	-0.095
-710.675	-50.410	0.100	0.048
-709.660	7.853	0.118	-0.089
-708.645	-53.153	0.233	-0.109
-707.631	-152.559	-0.228	-0.017
-706.616	-77.951	-0.149	-0.052
-705.602	-46.455	-0.276	-0.137
-704.587	11.336	-0.113	0.088
-703.572	-165.544	0.199	-0.009
-702.558	391.141	-0.148	-0.312
-701.543	-200.000	-0.022	0.156
-700.529	23.565	-0.303	-0.252
-699.514	-5.206	-0.376	-0.262
-698.499	800.000	-0.103	0.328
-697.485	800.000	-0.053	-0.229
-696.470	14.648	-0.130	0.103
-695.456	-200.000	0.007	-0.215
-694.441	20.471	-0.254	-0.208
-693.426	155.778	-0.093	0.130
-692.412	-71.387	-0.234	-0.089
-691.397	-17.699	-0.267	-0.170
-690.383	-2.804	-0.306	0.217
-689.368	53.020	0.109	-0.106
-688.354	19.120	0.070	-0.057
-687.339	-159.624	0.137	0.008
-686.324	-185.964	-0.337	0.005
-685.310	-200.000	0.013	0.116
-684.295	-200.000	0.017	-0.289
-683.281	578.969	0.150	0.373
-682.266	800.000	0.043	-0.141
-681.251	-2.694	0.125	-0.088
-680.237	-62.377	-0.240	0.101
-679.222	-155.836	0.256	-0.017
-678.208	90.625	-0.229	-0.260
-677.193	-45.869	-0.117	-0.059
-676.178	-0.382	0.063	0.045
-675.164	-200.000	-0.011	-0.096
-674.149	-200.000	0.065	-0.322
-673.135	800.000	-0.054	-0.155
-672.120	49.184	-0.104	-0.099
-671.105	-87.900	-0.442	0.134
-670.091	157.937	-0.046	0.065
-669.076	-200.000	0.157	0.000
-668.062	186.677	-0.065	-0.098
-667.047	800.000	-0.031	-0.124
-666.032	-29.515	0.304	-0.176
-665.018	-90.121	0.295	-0.087
-664.003	-200.000	-0.024	-0.230
-662.989	-28.045	-0.286	-0.167
-661.974	-96.422	-0.289	-0.077
-660.959	182.000	0.076	-0.113
-659.945	453.242	0.091	-0.203
-658.930	-84.550	0.244	-0.078
-657.916	-67.893	-0.154	-0.061
-656.901	-111.165	0.425	0.088
-655.886	487.634	-0.038	-0.087
-654.872	-102.412	0.066	-0.016
-653.857	27.999	0.162	0.138
-652.843	-11.069	-0.293	-0.196
-651.828	-51.881	0.110	-0.052
-650.814	414.767	-0.108	0.232
-649.799	238.226	-0.059	-0.098
-648.784	-146.114	-0.253	0.023
-647.770	-200.000	-0.002	0.115
-646.755	42.926	0.039	-0.036
-645.741	-126.374	-0.104	0.016
-644.726	-48.339	-0.183	-0.089
-643.711	-200.000	0.072	0.469
-642.697	140.191	0.017	-0.022
-641.682	800.000	-0.048	-0.199
-640.668	231.657	-0.095	0.157
-639.653	-87.133	-0.104	0.032
-638.638	0.038	0.092	-0.066
-637.624	-103.988	0.056	-0.013
-636.609	-132.893	-0.171	0.022
-635.595	-136.074	-0.357	-0.042
-634.580	235.753	0.225	0.375
-633.565	54.769	-0.286	0.279
-632.551	22.752	-0.201	0.166
-631.536	-84.520	0.410	-0.131
-630.522	135.272	0.115	0.151
-629.507	-200.000	0.010	-0.143
-628.492	11.821	0.157	-0.122
-627.478	800.000	0.068	0.191
-626.463	800.000	-0.029	0.110
-625.449	-85.765	0.214	-0.067
-624.434	-6.493	0.011	-0.008
-623.419	-200.000	-0.058	0.287
-622.405	-200.000	-0.024	0.235
-621.390	800.000	-0.091	0.396
-620.376	72.208	-0.317	0.333
-619.361	-131.146	-0.033	-0.004
-618.346	255.928	-0.133	-0.231
-617.332	-42.123	0.235	-0.121
-616.317	-200.000	-0.028	-0.169
-615.303	-28.706	-0.317	0.184
-614.288	49.747	0.079	-0.075
-613.273	418.000	-0.118	-0.254
-612.259	-9.300	-0.144	0.097
-611.244	40.133	0.110	0.100
-610.230	-200.000	-0.022	-0.256
-609.215	800.000	-0.132	-0.431
-608.201	-200.000	-0.002	-0.068
-607.186	131.493	-0.088	0.114
-606.171	-47.634	0.070	0.034
-605.157	99.630	-0.126	0.147
-604.142	189.764	-0.040	-0.060
-603.128	-63.339	-0.241	0.100
-602.113	-30.569	-0.106	-0.061
-601.098	-200.000	0.016	-0.098
-600.084	-200.000	-0.016	-0.196
-599.069	-200.000	-0.024	-0.323
-598.055	800.000	-0.020	0.079
-597.040	-200.000	-0.005	0.322
-596.025	28.123	-0.035	0.030
-595.011	-75.858	-0.198	-0.071
-593.996	55.018	-0.115	-0.112
-592.982	-69.915	0.094	-0.036
-591.967	18.626	0.079	-0.064
-590.952	-125.975	-0.085	-0.013
-589.938	800.000	-0.050	0.185
-588.923	35.621	-0.243	-0.215
-587.909	153.843	0.116	-0.161
-586.894	-158.975	-0.109	0.006
-585.879	-200.000	-0.023	0.323
-584.865	155.632	-0.069	0.096
-583.850	-62.490	-0.224	-0.094
-582.836	-200.000	0.024	-0.126
-581.821	426.911	-0.084	-0.183
-580.806	-104.830	-0.244	-0.057
-579.792	94.425	0.183	-0.210
-578.777	800.000	-0.066	-0.187
-577.763	687.089	-0.040	-0.105
-576.748	444.650	0.028	-0.063
-575.733	173.316	0.111	-0.162
-574.719	-188.093	0.207	0.003
-573.704	199.465	0.234	0.361
-572.690	800.000	-0.037	0.157
-571.675	145.341	-0.141	0.190
-570.661	-150.120	-0.057	0.004
-569.646	-75.698	-0.157	-0.056
-568.631	82.988	0.227	-0.249
-567.617	69.653	0.140	-0.145
-566.602	800.000	-0.044	-0.157
-565.588	-55.578	-0.239	0.108
-564.573	163.671	0.052	-0.073
-563.558	-160.272	0.282	-0.015
-562.544	-200.000	0.023	0.129
-561.529	-200.000	0.003	-0.223
-560.515	44.906	0.032	-0.030
-559.500	469.397	0.088	0.200
-558.485	-2.357	0.171	-0.121
-557.471	-200.000	-0.083	-0.388
-556.456	-198.992	-0.406	-0.002
-555.442	-200.000	0.002	0.242
-554.427	-37.896	0.326	0.175
-553.412	-200.000	0.009	0.123
-552.398	-142.032	0.226	0.023
-551.383	110.445	0.253	0.306
-550.369	2.627	-0.063	-0.046
-549.354	144.587	-0.089	-0.120
-548.339	245.602	0.099	0.167
-547.325	-200.000	0.035	0.176
-546.310	41.050	-0.060	0.054
-545.296	177.017	-0.072	-0.105
-544.281	-200.000	0.004	-0.403
-543.266	-108.580	-0.217	-0.047
-542.252	179.154	-0.109	-0.161
-541.237	-200.000	0.002	-0.191
-540.223	-78.802	-0.166	0.057
-539.208	800.000	-0.077	-0.301
-538.193	-66.273	-0.221	-0.089
-537.179	-200.000	-0.021	0.124
-536.164	-0.319	-0.091	0.065
-535.150	-140.750	0.323	-0.034
-534.135	571.944	0.013	-0.032
-533.121	-154.021	0.322	0.022
-532.106	-200.000	-0.009	0.105
-531.091	132.767	-0.183	-0.238
-530.077	-90.600	0.071	-0.021
-529.062	-89.172	0.174	0.052
-528.048	-200.000	0.012	-0.248
-527.033	-78.010	0.200	0.069
-526.018	-114.445	-0.271	-0.052
-525.004	800.000	-0.079	-0.248
-523.989	46.366	0.178	-0.167
-522.975	-200.000	0.011	0.098
-521.960	306.250	0.139	0.259
-520.945	-200.000	-0.060	-0.274
-519.931	-200.000	0.023	-0.158
-518.916	-200.000	0.021	-0.175
-517.902	98.639	0.197	0.229
-516.887	800.000	0.031	-0.094
-515.872	37.607	-0.111	0.099
-514.858	-200.000	0.041	-0.261
-513.843	191.579	-0.070	-0.106
-512.829	-200.000	-0.017	-0.132
-511.814	175.771	0.060	0.087
-510.799	-74.185	-0.118	-0.043
-509.785	-200.000	-0.008	-0.070
-508.770	730.163	-0.011	-0.030
-507.756	646.827	0.115	-0.297
-506.741	-200.000	0.015	0.198
-505.726	-103.140	-0.050	-0.012
-504.712	-54.631	0.185	0.084
-503.697	-84.529	0.467	-0.148
-502.683	800.000	0.044	-0.134
-501.668	800.000	-0.119	0.491
-500.653	-8.050	-0.090	0.061
-499.639	78.419	0.174	-0.186
-498.624	-200.000	-0.039	-0.174
-497.610	-173.975	0.191	0.006
-496.595	297.792	-0.130	-0.241
-495.581	800.000	0.111	-0.342
-494.566	800.000	-0.035	-0.154
-493.551	-60.690	0.446	-0.190
-492.537	436.299	0.120	0.262
-491.522	-200.000	-0.071	-0.436
-490.508	33.207	0.089	-0.077
-489.493	627.926	-0.047	0.120
-488.478	-32.066	0.079	0.045
-487.464	155.033	0.063	-0.087
-486.449	11.104	-0.113	0.087
-485.435	161.560	-0.159	-0.224
-484.420	-200.000	-0.058	-0.328
-483.405	734.488	0.096	0.259
-482.391	426.928	-0.066	0.144
-481.376	108.425	-0.171	0.205
-480.362	-96.109	0.121	-0.032
-479.347	800.000	-0.073	-0.209
-478.332	-200.000	0.018	-0.238
-477.318	-71.281	0.109	0.041
-476.303	37.555	0.195	0.174
-475.289	63.234	-0.174	0.175
-474.274	-200.000	-0.043	-0.198
-473.259	-115.123	0.424	0.081
-472.245	370.851	0.166	-0.338
-471.230	-188.611	-0.095	0.001
-470.216	214.421	-0.035	-0.056
-469.201	111.141	-0.157	0.190
-468.186	737.680	-0.124	0.333
-467.172	-131.646	0.116	-0.015
-466.157	374.718	-0.014	-0.029
-465.143	-111.469	0.240	0.049
-464.128	-112.774	-0.109	0.022
-463.113	69.108	0.006	0.006
-462.099	-110.079	-0.242	0.051
-461.084	800.000	0.067	0.191
-460.070	-123.929	-0.244	-0.039
-459.055	90.920	-0.126	0.142
-458.040	-200.000	-0.033	-0.393
-457.026	17.063	0.115	-0.092
-456.011	292.465	0.123	-0.224
-454.997	800.000	0.116	-0.387
-453.982	-51.820	0.141	-0.066
-452.968	-31.600	0.121	0.068
-451.953	206.560	0.095	0.149
-450.938	800.000	0.145	0.432
-449.924	-143.644	-0.198	-0.019
-448.909	-140.122	0.232	0.024
-447.895	191.547	-0.091	-0.137
-446.880	-82.503	-0.281	-0.092
-445.865	-135.038	-0.208	0.025
-444.851	346.277	-0.107	0.210
-443.836	-5.662	-0.159	-0.109
-442.822	90.934	0.129	0.145
-441.807	-119.257	-0.394	-0.069
-440.792	-200.000	0.083	-0.373
-439.778	-107.273	0.237	0.052
-438.763	233.443	0.010	0.017
-437.749	-26.893	-0.174	-0.102
-436.734	229.159	0.074	0.120
-435.719	-200.000	-0.051	0.270
-434.705	36.446	0.331	0.293
-433.690	51.440	0.158	-0.151
-432.676	278.770	0.061	0.109
-431.661	244.579	-0.110	0.186
-430.646	518.569	-0.176	-0.413
-429.632	-8.646	-0.183	0.123
-428.617	-200.000	-0.006	-0.385
-427.603	-38.845	-0.140	-0.074
-426.588	-56.448	-0.214	-0.095
-425.573	-70.560	0.059	-0.022
-424.559	-52.780	-0.110	0.051
-423.544	258.972	-0.042	0.072
-422.530	800.000	0.025	0.110
-421.515	-173.337	0.169	0.005
-420.500	800.000	-0.065	0.213
-419.486	265.714	0.021	0.036
-418.471	604.798	0.109	0.273
-417.457	-73.548	0.051	0.019
-416.442	299.541	-0.172	0.317
-415.428	800.000	-0.037	-0.116
-414.413	193.273	-0.149	-0.226
-413.398	-0.349	0.117	-0.083
-412.384	153.695	0.090	0.123
-411.369	-64.912	0.039	0.016
-410.355	40.309	-0.240	0.216
-409.340	28.495	-0.300	0.254
-408.325	27.432	0.304	0.256
-407.311	46.652	-0.105	-0.098
-406.296	800.000	-0.053	-0.155
-405.282	26.023	0.061	0.051
-404.267	-47.651	0.183	-0.089
-403.252	-77.273	0.063	0.022
-402.238	415.135	0.170	-0.364
-401.223	28.625	0.244	-0.207
-400.209	110.114	-0.307	0.369
-399.194	-112.518	-0.220	0.044
-398.179	-200.000	0.049	-0.517
-397.165	800.000	0.032	-0.136
-396.150	47.755	0.271	-0.253
-395.136	296.391	-0.134	-0.246
-394.121	800.000	0.004	0.019
-393.106	17.024	0.147	-0.117
-392.092	-125.029	-0.146	0.022
-391.077	-92.441	0.258	0.073
-390.063	82.450	-0.092	-0.100
-389.048	54.563	-0.225	0.217
-388.033	-103.780	-0.189	0.044
-387.019	-200.000	0.019	-0.313
-386.004	164.587	0.159	-0.225
-384.990	283.401	-0.211	-0.380
-383.975	195.730	-0.069	0.105
-382.960	-75.684	-0.261	-0.093
-381.946	219.196	0.047	0.074
-380.931	89.658	-0.169	0.189
-379.917	-111.218	0.187	-0.038
-378.902	-157.609	-0.090	-0.005
-377.888	37.587	0.111	-0.098
-376.873	-200.000	0.002	0.090
-375.858	-70.735	-0.167	-0.063
-374.844	-29.051	-0.041	-0.023
-373.829	-200.000	0.007	0.200
-372.815	-200.000	0.014	-0.205
-371.800	-61.199	0.056	0.023
-370.785	-79.036	-0.154	-0.052
-369.771	-16.615	-0.268	0.170
-368.756	321.206	0.259	-0.492
-367.742	800.000	0.084	-0.235
-366.727	-45.656	0.148	0.073
-365.712	26.567	0.250	0.209
-364.698	54.275	0.082	-0.079
-363.683	179.414	-0.138	0.202
-362.669	-121.641	0.222	-0.037
-361.654	-200.000	0.020	-0.103
-360.639	418.190	0.097	0.208
-359.625	-200.000	-0.009	0.113
-358.610	-48.942	-0.133	0.064
-357.596	-82.979	-0.154	-0.050
-356.581	-99.073	-0.206	0.052
-355.566	800.000	0.064	-0.181
-354.552	-200.000	-0.077	-0.404
-353.537	-43.992	0.073	0.037
-352.523	-77.929	0.326	0.112
-351.508	-117.245	-0.150	-0.027
-350.493	-111.173	0.081	0.017
-349.479	-25.524	-0.229	0.135
-348.464	800.000	-0.016	0.057
-347.450	-159.468	-0.256	0.014
-346.435	-70.952	-0.318	0.120
-345.420	39.004	0.241	-0.215
-344.406	214.607	-0.102	0.161
-343.391	-20.850	0.323	0.198
-342.377	-200.000	0.063	-0.325
-341.362	-200.000	-0.038	-0.430
-340.348	520.007	0.069	0.162
-339.333	217.468	0.182	0.290
-338.318	-98.983	-0.379	0.096
-337.304	104.503	0.068	-0.080
-336.289	-26.076	0.360	0.211
-335.275	-73.066	-0.137	0.050
-334.260	668.880	0.038	-0.097
-333.245	800.000	0.085	-0.321
-332.231	132.763	-0.105	0.136
-331.216	-9.249	0.165	-0.110
-330.202	-53.777	0.185	-0.084
-329.187	-135.232	0.213	0.026
-328.172	800.000	0.067	0.233
-327.158	10.140	0.259	0.197
-326.143	-200.000	-0.018	-0.254
-325.129	-200.000	0.017	0.131
-324.114	-61.213	-0.091	0.038
-323.099	-31.728	-0.191	0.107
-322.085	-200.000	-0.037	0.256
-321.070	257.412	0.159	-0.273
-320.056	223.853	0.347	0.559
-319.041	15.499	0.343	-0.269
-318.026	-19.484	-0.159	-0.098
-317.012	-79.201	0.315	-0.107
-315.997	-200.000	0.009	0.497
-314.983	-116.979	-0.202	-0.037
-313.968	-177.675	-0.192	-0.005
-312.953	-33.663	-0.123	0.068
-311.939	-29.897	0.140	0.080
-310.924	-87.279	-0.249	-0.075
-309.910	-121.164	0.275	-0.046
-308.895	59.908	-0.023	0.023
-307.880	141.539	-0.082	-0.109
-306.866	31.429	0.465	0.399
-305.851	-97.787	-0.119	0.031
-304.837	87.123	-0.186	0.205
-303.822	800.000	0.066	0.206
-302.807	-200.000	0.048	-0.273
-301.793	800.000	0.060	0.202
-300.778	-16.838	-0.098	0.062
-299.764	-110.801	-0.192	-0.040
-298.749	28.970	-0.112	-0.095
-297.735	-200.000	0.039	0.216
-296.720	-157.973	-0.154	0.009
-295.705	-48.660	0.268	-0.128
-294.691	-200.000	-0.029	0.186
-293.676	-106.977	0.171	-0.038
-292.662	414.423	-0.096	0.203
-291.647	-57.573	0.115	0.050
-290.632	-41.496	-0.056	0.028
-289.618	-41.273	-0.189	-0.097
-288.603	44.815	0.043	-0.039
-287.589	455.189	-0.036	0.079
-286.574	-200.000	0.030	0.199
-285.559	115.319	-0.221	0.270
-284.545	-200.000	0.001	0.039
-283.530	-200.000	0.031	0.242
-282.516	-200.000	0.020	0.335
-281.501	289.985	-0.097	0.175
-280.486	150.211	-0.139	-0.188
-279.472	49.680	-0.123	-0.116
-278.457	-87.622	0.535	-0.161
-277.443	-135.074	-0.189	0.023
-276.428	-200.000	0.024	0.156
-275.413	-62.682	0.264	-0.109
-274.399	-45.101	0.178	-0.088
-273.384	-200.000	-0.009	-0.066
-272.370	-200.000	0.069	0.684
-271.355	-59.888	0.128	0.055
-270.340	116.630	0.091	-0.111
-269.326	272.452	-0.183	-0.321
-268.311	-40.489	0.298	-0.154
-267.297	-48.221	0.140	-0.067
-266.282	-48.604	0.160	-0.077
-265.267	380.578	0.171	-0.348
-264.253	800.000	0.044	-0.184
-263.238	-200.000	-0.017	0.370
-262.224	-37.779	-0.036	-0.019
-261.209	800.000	0.115	0.435
-260.195	-200.000	0.081	-0.389
-259.180	197.677	0.098	-0.150
-258.165	527.523	-0.030	0.072
-257.151	-200.000	-0.063	0.000
-256.136	65.253	-0.059	-0.060
-255.122	800.000	-0.027	0.077
-254.107	800.000	-0.153	0.534
-253.092	146.423	-0.127	0.169
-252.078	-61.282	-0.148	-0.062
-251.063	300.478	-0.101	0.186
-250.049	-200.000	-0.025	0.216
-249.034	38.219	0.189	-0.167
-248.019	-181.609	-0.231	-0.004
-247.005	-104.647	-0.154	0.035
-245.990	102.175	0.059	-0.068
-244.976	-99.107	0.186	0.047
-243.961	-66.474	-0.047	-0.019
-242.946	-23.452	0.146	-0.087
-241.932	-158.866	0.408	0.023
-240.917	102.683	-0.070	-0.081
-239.903	46.536	-0.059	-0.054
-238.888	-8.029	0.252	0.169
-237.873	-52.056	-0.167	0.077
-236.859	-200.000	-0.040	-0.198
-235.844	-64.460	0.181	0.073
-234.830	-148.366	0.366	0.030
-233.815	800.000	-0.065	0.198
-232.800	151.213	0.163	0.221
-231.786	194.701	-0.049	0.075
-230.771	800.000	0.042	0.133
-229.757	-93.708	-0.124	-0.034
-228.742	800.000	0.086	0.342
-227.727	-16.308	0.193	0.122
-226.713	800.000	0.153	0.526
-225.698	-157.301	-0.165	0.010
-224.684	63.470	0.110	-0.110
-223.669	170.868	-0.160	-0.229
-222.655	-200.000	0.002	-0.165
-221.640	-61.703	-0.157	0.066
-220.625	800.000	0.054	-0.222
-219.611	-200.000	0.053	-0.254
-218.596	-59.602	-0.325	0.139
-217.582	4.999	0.172	0.126
-216.567	-122.666	0.376	-0.061
-215.552	-200.000	-0.014	0.331
-214.538	100.560	-0.154	0.178
-213.523	51.574	-0.162	0.153
-212.509	8.330	0.027	0.020
-211.494	126.669	0.077	0.097
-210.479	-154.985	0.169	-0.011
-209.465	-34.152	-0.086	0.047
-208.450	-200.000	-0.010	0.210
-207.436	-200.000	0.004	0.158
-206.421	277.895	-0.144	0.256
-205.406	20.639	-0.140	0.112
-204.392	-47.363	0.074	-0.036
-203.377	-27.846	-0.118	-0.068
-202.363	45.235	-0.073	0.067
-201.348	-90.806	0.207	-0.059
-200.333	-200.000	0.024	-0.461
-199.319	198.572	-0.255	-0.388
-198.304	-28.744	-0.234	-0.134
-197.290	507.458	0.070	0.161
-196.275	24.252	0.339	0.278
-195.260	800.000	-0.114	-0.459
-194.246	19.395	-0.306	-0.244
-193.231	-10.419	-0.182	0.120
-192.217	-200.000	0.030	0.225
-191.202	-200.000	-0.011	-0.097
-190.187	184.616	-0.078	-0.114
-189.173	58.136	-0.057	-0.055
-188.158	-39.554	-0.320	-0.167
-187.144	-136.297	0.220	0.026
-186.129	800.000	-0.060	-0.192
-185.114	-117.311	0.323	0.058
-184.100	108.170	0.317	0.376
-183.085	544.208	-0.126	0.298
-182.071	10.027	-0.193	0.145
-181.056	-147.786	-0.245	-0.020
-180.042	200.966	-0.327	0.499
-179.027	89.123	-0.128	-0.141
-178.012	-71.379	0.384	0.143
-176.998	-15.578	-0.165	0.104
-175.983	-109.243	0.194	0.041
-174.969	-90.838	-0.122	-0.035
-173.954	-119.638	0.212	0.036
-172.939	359.573	0.112	0.223
-171.925	-17.560	0.152	-0.095
-170.910	-98.535	0.168	0.043
-169.896	-180.381	0.041	0.001
-168.881	-93.396	-0.422	-0.116
-167.866	123.041	0.103	-0.128
-166.852	-200.000	0.005	-0.294
-165.837	-61.551	0.142	-0.059
-164.823	-183.833	-0.185	0.003
-163.808	118.670	0.102	-0.125
-162.793	172.883	-0.116	-0.165
-161.779	-200.000	0.005	-0.052
-160.764	144.479	-0.110	-0.146
-159.750	-7.728	0.253	-0.170
-158.735	-200.000	0.007	-0.176
-157.720	800.000	0.004	-0.013
-156.706	-98.317	0.046	-0.012
-155.691	-89.231	-0.077	-0.022
-154.677	37.022	-0.281	0.247
-153.662	-54.514	-0.362	0.163
-152.647	-200.000	0.006	-0.214
-151.633	92.689	-0.147	-0.165
-150.618	-200.000	0.028	-0.154
-149.604	-21.123	0.184	0.112
-148.589	26.112	-0.101	-0.084
-147.574	167.000	0.164	0.231
-146.560	83.642	0.297	0.321
-145.545	787.237	-0.148	0.402
-144.531	-113.007	0.203	-0.040
-143.516	-28.286	-0.286	-0.164
-142.502	-124.124	-0.348	-0.054
-141.487	-72.402	-0.153	0.056
-140.472	331.750	-0.146	0.280
-139.458	-200.000	0.012	-0.293
-138.443	90.143	0.130	0.144
-137.429	-141.184	-0.394	-0.040
-136.414	498.412	0.100	-0.229
-135.399	-11.397	0.182	-0.118
-134.385	-17.936	-0.152	0.095
-133.370	280.808	-0.083	0.146
-132.356	112.373	-0.225	0.269
-131.341	-17.374	0.316	-0.197
-130.326	254.070	-0.207	0.350
-129.312	-200.000	-0.001	-0.060
-128.297	27.612	0.026	0.021
-127.283	-70.182	-0.285	0.107
-126.268	-46.143	-0.214	-0.104
-125.253	495.141	0.040	0.090
-124.239	79.929	0.093	-0.099
-123.224	-116.036	0.094	-0.017
-122.210	388.206	0.149	0.305
-121.195	75.276	0.159	0.166
-120.180	-41.096	0.139	-0.071
-119.166	390.704	-0.068	-0.140
-118.151	-200.000	-0.020	0.143
-117.137	301.861	0.157	-0.288
-116.122	490.239	-0.052	0.118
-115.107	-200.000	-0.155	-0.001
-114.093	200.259	-0.082	-0.124
-113.078	187.226	-0.150	0.222
-112.064	-114.952	0.073	-0.014
-111.049	68.461	0.093	-0.094
-110.034	321.015	0.209	-0.393
-109.020	-200.000	0.032	0.168
-108.005	-75.720	-0.208	0.073
-106.991	-0.284	0.107	0.075
-105.976	164.838	-0.271	-0.379
-104.962	418.084	-0.104	-0.221
-103.947	-200.000	-0.020	-0.278
-102.932	-200.000	-0.004	-0.118
-101.918	-96.900	0.243	0.063
-100.903	2.487	-0.154	0.110
-99.889	88.679	-0.238	0.262
-98.874	-76.475	-0.041	0.014
-97.859	-50.173	0.269	0.126
-96.845	109.045	-0.169	-0.200
-95.830	-5.546	-0.271	0.184
-94.816	-61.710	-0.166	-0.069
-93.801	800.000	0.045	0.143
-92.786	-169.498	-0.212	0.008
-91.772	800.000	0.022	-0.065
-90.757	-200.000	-0.008	0.086
-89.743	-145.096	-0.271	-0.024
-88.728	-200.000	-0.001	-0.175
-87.713	-200.000	-0.005	0.288
-86.699	-47.942	-0.075	0.036
-85.684	-48.941	-0.052	-0.025
-84.670	800.000	-0.038	-0.107
-83.655	186.436	-0.074	0.109
-82.640	131.037	0.074	0.094
-81.626	743.581	-0.095	-0.254
-80.611	-93.724	0.119	0.032
-79.597	-137.265	0.104	0.012
-78.582	-200.000	0.022	0.187
-77.567	526.435	0.046	-0.107
-76.553	438.306	-0.039	-0.084
-75.538	800.000	0.038	0.121
-74.524	97.887	-0.220	-0.250
-73.509	11.980	-0.174	-0.132
-72.494	-10.691	-0.225	0.147
-71.480	-4.934	0.133	-0.091
-70.465	800.000	-0.132	0.384
-69.451	-124.093	-0.108	-0.017
-68.436	-46.610	-0.190	0.092
-67.422	-109.229	0.152	-0.032
-66.407	483.685	0.181	0.406
-65.392	-151.219	0.088	0.007
-64.378	-10.241	0.115	-0.075
-63.363	-200.000	-0.023	0.143
-62.349	753.540	-0.187	0.501
-61.334	278.584	-0.635	-1.119
-60.319	50.943	0.556	0.521
-59.305	-200.000	0.151	-1.008
-58.290	307.961	0.589	1.086
-57.276	800.000	0.619	1.738
-56.261	-200.000	98.345	595.940
-55.246	607.054	1437.033	3539.785
-54.232	181.726	2640.635	3839.457
-53.217	117.453	2212.979	2688.832
-52.203	43.656	1741.962	1574.305
-51.188	36.279	1553.720	1352.661
-50.173	33.799	1527.544	1312.696
-49.159	53.343	1577.583	1493.391
-48.144	55.635	1595.983	1526.842
-47.130	36.558	1552.810	1353.606
-46.115	33.468	1537.158	1318.444
-45.100	33.364	1533.136	1314.228
-44.086	33.269	1531.891	1312.444
-43.071	33.161	1530.117	1310.128
-42.057	33.111	1528.091	1307.996
-41.042	33.193	1526.783	1307.386
-40.027	33.175	1525.887	1306.448
-39.013	33.124	1524.368	1304.741
-37.998	33.226	1522.901	1304.135
-36.984	33.088	1522.395	1302.702
-35.969	33.179	1520.507	1301.662
-34.954	33.165	1519.287	1300.464
-33.940	33.162	1517.785	1299.106
-32.925	33.189	1516.372	1298.034
-31.911	33.152	1515.241	1296.763
-30.896	33.308	1513.270	1296.091
-29.881	33.224	1512.330	1294.655
-28.867	33.159	1510.941	1292.971
-27.852	33.194	1509.445	1291.878
-26.838	33.170	1508.693	1291.022
-25.823	33.236	1506.917	1289.900
-24.809	33.164	1505.205	1287.895
-23.794	33.260	1503.433	1286.981
-22.779	33.115	1502.178	1284.869
-21.765	33.138	1501.494	1284.389
-20.750	33.255	1499.603	1283.514
-19.736	33.169	1499.013	1282.379
-18.721	33.258	1497.831	1281.915
-17.706	33.152	1497.092	1280.517
-16.692	33.132	1496.080	1279.466
-15.677	33.169	1494.706	1278.491
-14.663	33.082	1493.897	1277.155
-13.648	33.109	1493.141	1276.640
-12.633	33.140	1492.314	1276.098
-11.619	33.152	1491.447	1275.382
-10.604	33.072	1490.208	1273.737
-9.590	33.085	1489.407	1273.085
-8.575	33.199	1488.508	1273.033
-7.560	33.168	1487.389	1271.816
-6.546	33.127	1486.465	1270.702
-5.531	33.029	1485.807	1269.431
-4.517	33.072	1484.397	1268.466
-3.502	33.140	1484.096	1268.610
-2.487	33.057	1483.043	1267.106
-1.473	33.016	1482.026	1265.910
-0.458	33.130	1480.185	1265.056
0.556	35.362	1470.854	1255.269
1.571	32.549	1444.432	1214.504
2.586	28.753	1381.872	1138.330
3.600	26.753	1298.223	1057.670
4.615	24.573	1250.597	1006.512
5.629	20.606	1192.688	938.457
6.644	12.294	1106.643	828.886
7.659	5.799	1065.515	766.351
8.673	4.737	1059.683	756.927
9.688	4.535	1056.741	753.778
10.702	4.265	1055.458	751.486
11.717	4.534	1053.502	751.331
12.731	7.586	1056.756	768.366
13.746	15.886	1068.166	817.031
14.761	21.698	1075.512	850.889
15.775	22.291	1075.191	853.441
16.790	21.660	1073.441	848.919
17.804	20.454	1071.955	841.828
18.819	19.698	1069.898	836.477
19.834	19.280	1068.629	833.393
20.848	19.173	1067.478	831.904
21.863	19.065	1067.113	831.025
22.877	18.969	1066.760	830.213
23.892	18.595	1065.816	827.602
24.907	18.714	1064.436	827.027
25.921	18.651	1064.245	826.502
26.936	18.598	1063.309	825.447
27.950	18.591	1062.090	824.395
28.965	18.642	1060.772	823.542
29.980	18.701	1059.851	823.038
30.994	18.946	1058.818	823.337
32.009	18.965	1057.986	822.710
33.023	19.063	1057.326	822.593
34.038	18.913	1056.509	821.165
35.053	19.062	1055.739	821.209
36.067	18.893	1054.536	819.392
37.082	18.759	1053.889	818.178
38.096	18.833	1052.689	817.526
39.111	18.846	1052.335	817.242
40.126	18.964	1051.541	817.114
41.140	18.870	1050.342	815.665
42.155	18.608	1048.946	813.263
43.169	18.416	1048.194	811.702
44.184	18.235	1047.512	810.244
45.199	18.257	1045.511	808.728
46.213	18.361	1045.002	808.755
47.228	18.345	1044.407	808.149
48.242	18.618	1042.991	808.264
49.257	18.704	1042.574	808.275
50.271	18.739	1041.652	807.656
51.286	18.733	1040.663	806.789
52.301	18.817	1039.931	806.545
53.315	18.800	1039.479	806.040
54.330	18.762	1038.096	804.718
55.344	18.542	1037.495	803.152
56.359	18.506	1035.978	801.737
57.374	18.430	1035.814	801.186
58.388	18.505	1035.203	800.992
59.403	18.368	1033.801	799.199
60.417	18.373	1032.897	798.451
61.432	18.299	1032.293	797.571
62.447	18.291	1031.574	796.907
63.461	18.098	1031.008	795.499
64.476	18.129	1030.102	794.874
65.490	18.149	1028.937	793.996
66.505	18.104	1027.977	792.981
67.520	18.061	1027.586	792.409
68.534	18.174	1026.790	792.246
69.549	18.322	1025.953	792.214
70.563	18.197	1025.016	790.845
71.578	18.110	1024.214	789.751
72.593	18.008	1022.996	788.275
73.607	17.938	1022.760	787.698
74.622	17.880	1021.325	786.258
75.636	17.988	1020.409	785.978
76.651	18.126	1019.227	785.634
77.666	18.029	1019.106	785.027
78.680	18.057	1018.106	784.316
79.695	18.190	1017.786	784.610
80.709	18.131	1017.204	783.820
81.724	18.148	1016.477	783.269
82.739	18.336	1015.768	783.511
83.753	18.381	1015.481	783.428
84.768	18.530	1014.727	783.457
85.782	18.824	1014.107	784.250
86.797	19.114	1013.176	784.785
87.812	18.949	1012.717	783.607
88.826	18.936	1011.450	782.497
89.841	18.797	1011.089	781.518
90.855	18.765	1009.888	780.374
91.870	18.890	1009.380	780.481
92.884	19.065	1008.543	780.560
93.899	19.081	1007.217	779.538
94.914	19.111	1006.485	779.037
95.928	18.979	1006.507	778.389
96.943	19.091	1005.418	777.982
97.957	18.910	1004.523	776.403
98.972	18.857	1003.458	775.275
99.987	18.901	1002.760	774.866
101.001	18.930	1002.214	774.505
102.016	18.836	1001.703	773.618
103.030	18.812	1000.795	772.742
104.045	18.786	999.762	771.758
105.060	18.915	998.767	771.497
106.074	18.948	997.231	770.392
107.089	18.693	996.445	768.574
108.103	18.353	995.370	766.157
109.118	18.187	994.554	764.721
110.133	18.284	993.343	764.151
111.147	18.136	992.502	762.779
112.162	18.233	991.615	762.463
113.176	18.264	990.944	762.018
114.191	18.358	990.234	761.820
115.206	18.557	989.503	762.074
116.220	18.480	988.610	760.978
117.235	18.393	987.767	759.876
118.249	18.297	987.019	758.807
119.264	18.274	986.191	758.004
120.279	18.263	985.057	757.016
121.293	18.092	984.486	755.752
122.308	18.134	983.824	755.365
123.322	18.109	982.620	754.263
124.337	17.948	981.635	752.731
125.352	17.907	980.389	751.529
126.366	18.017	979.223	751.050
127.381	17.959	978.610	750.263
128.395	18.100	977.447	749.919
129.410	17.994	976.743	748.851
130.424	18.129	975.699	748.572
131.439	18.117	974.911	747.849
132.454	18.108	974.722	747.601
133.468	18.278	973.961	747.693
134.483	18.430	972.813	747.409
135.497	18.414	971.972	746.626
136.512	18.405	971.503	746.160
137.527	18.441	970.938	745.819
138.541	18.566	969.709	745.353
139.556	18.493	969.412	744.740
140.570	18.455	968.576	743.865
141.585	18.519	968.410	743.953
142.600	18.614	967.984	743.971
143.614	18.903	966.421	743.955
144.629	18.883	966.043	743.509
145.643	19.071	965.105	743.537
146.658	18.959	964.661	742.642
147.673	18.743	963.094	740.442
148.687	18.575	962.568	739.247
149.702	18.430	961.529	737.759
150.716	18.412	960.544	736.862
151.731	18.342	959.574	735.751
152.746	18.467	959.063	735.828
153.760	18.403	958.429	735.005
154.775	18.517	957.162	734.455
155.789	18.787	956.113	734.742
156.804	18.666	955.627	733.785
157.819	18.614	955.136	733.120
158.833	18.745	954.629	733.227
159.848	18.849	953.974	733.104
160.862	18.969	953.708	733.344
161.877	18.975	952.716	732.542
162.892	18.704	951.433	730.341
163.906	18.567	950.071	728.647
164.921	18.447	949.698	727.787
165.935	18.434	948.330	726.617
166.950	18.402	947.799	726.012
167.964	18.644	946.740	726.159
168.979	18.593	945.750	725.120
169.994	18.572	944.893	724.312
171.008	18.326	944.138	722.630
172.023	18.627	943.179	723.102
173.037	18.792	942.692	723.360
174.052	18.850	942.248	723.197
175.067	18.881	940.869	722.204
176.081	18.629	939.780	720.247
177.096	18.489	939.122	719.095
178.110	18.327	938.410	717.805
179.125	18.556	937.319	717.868
180.140	18.567	936.918	717.542
181.154	18.666	936.299	717.419
182.169	18.694	936.017	717.255
183.183	18.835	935.248	717.192
184.198	18.972	934.345	717.007
185.213	18.884	933.826	716.176
186.227	18.871	933.745	715.997
187.242	18.942	933.096	715.733
188.256	19.082	932.280	715.627
189.271	19.213	931.327	715.377
190.286	19.109	931.071	714.684
191.300	18.911	929.672	712.726
192.315	18.406	929.117	710.142
193.329	18.244	927.858	708.450
194.344	18.162	927.468	707.748
195.359	18.468	926.631	708.314
196.373	18.526	926.587	708.457
197.388	18.699	926.262	708.860
198.402	18.847	925.814	709.064
199.417	19.039	925.304	709.403
200.432	19.236	925.012	709.928
201.446	19.334	924.595	709.947
202.461	19.401	924.409	710.019
203.475	19.522	923.786	709.976
204.490	19.459	922.684	708.807
205.504	19.208	922.037	707.218
206.519	19.051	920.912	705.648
207.534	19.000	920.205	704.832
208.548	18.915	919.331	703.752
209.563	19.087	918.902	704.067
210.577	19.060	917.990	703.194
211.592	19.022	917.500	702.602
212.607	19.280	917.021	703.226
213.621	19.342	916.791	703.240
214.636	19.327	915.822	702.374
215.650	19.318	915.065	701.693
216.665	19.286	914.600	701.146
217.680	19.203	914.792	700.894
218.694	19.428	914.264	701.342
219.709	19.503	913.245	700.802
220.723	19.492	913.019	700.522
221.738	19.377	912.128	699.312
222.753	19.284	911.153	698.124
223.767	19.401	910.284	697.873
224.782	19.489	909.553	697.604
225.796	19.549	908.942	697.316
226.811	19.635	908.065	696.930
227.826	19.687	907.868	696.924
228.840	19.447	906.883	695.142
229.855	19.349	906.316	694.252
230.869	19.302	905.675	693.510
231.884	19.315	904.977	692.967
232.899	19.207	904.129	691.820
233.913	19.328	903.518	691.779
234.928	19.228	902.192	690.301
235.942	19.053	902.114	689.478
236.957	19.050	901.498	688.934
237.972	19.135	900.586	688.516
238.986	18.967	900.102	687.413
240.001	19.124	899.438	687.472
241.015	19.129	898.605	686.797
242.030	19.306	897.641	686.703
243.045	19.335	897.685	686.793
244.059	19.429	897.025	686.601
245.074	19.451	896.028	685.863
246.088	19.424	895.940	685.628
247.103	19.580	895.268	685.673
248.117	19.592	894.908	685.385
249.132	19.819	894.345	685.791
250.147	19.989	894.089	686.208
251.161	20.131	893.959	686.613
252.176	20.270	892.919	686.303
253.190	20.325	891.930	685.700
254.205	20.420	891.645	685.794
255.220	20.301	891.463	685.124
256.234	20.235	890.706	684.221
257.249	20.429	889.885	684.294
258.263	20.344	889.266	683.424
259.278	20.304	888.547	682.652
260.293	20.187	888.294	681.938
261.307	20.257	887.833	681.800
262.322	20.353	887.528	681.879
263.336	20.471	886.467	681.468
264.351	20.450	885.864	680.862
265.366	20.517	885.351	680.670
266.380	20.491	884.640	679.962
267.395	20.446	883.996	679.228
268.409	20.415	882.818	678.143
269.424	20.267	882.304	677.113
270.439	20.239	881.205	676.101
271.453	20.263	881.061	676.023
272.468	20.124	880.071	674.661
273.482	20.134	879.609	674.286
274.497	20.058	878.947	673.422
275.512	20.076	878.140	672.816
276.526	20.177	877.565	672.708
277.541	20.197	876.797	672.138
278.555	20.188	876.224	671.604
279.570	20.230	876.125	671.633
280.585	20.508	875.546	672.202
281.599	20.407	875.163	671.458
282.614	20.368	874.476	670.721
283.628	20.209	873.511	669.309
284.643	20.280	872.610	668.833
285.657	20.398	872.272	668.970
286.672	20.173	871.813	667.693
287.687	20.387	871.333	668.090
288.701	20.377	870.284	667.188
289.716	20.251	870.150	666.541
290.730	20.273	870.001	666.453
291.745	20.365	868.959	665.948
292.760	20.436	868.136	665.531
293.774	20.600	867.639	665.720
294.789	20.702	867.321	665.807
295.803	20.621	867.085	665.255
296.818	20.391	866.258	663.683
297.833	20.391	865.066	662.712
298.847	20.383	864.464	662.161
299.862	20.397	863.849	661.686
300.876	20.478	863.466	661.640
301.891	20.640	863.080	661.902
302.906	20.638	862.592	661.465
303.920	20.804	861.743	661.386
304.935	20.866	861.139	661.099
305.949	21.073	860.862	661.610
306.964	20.745	860.332	659.902
307.979	20.802	859.240	659.222
308.993	20.743	859.126	658.854
310.008	20.867	858.521	658.801
311.022	20.785	858.029	658.055
312.037	20.947	857.444	658.157
313.052	20.746	856.855	656.891
314.066	20.571	856.070	655.570
315.081	20.494	855.282	654.621
316.095	20.535	854.739	654.299
317.110	20.515	853.992	653.596
318.125	20.468	853.596	653.057
319.139	20.356	853.016	652.134
320.154	20.348	853.021	652.050
321.168	20.569	851.937	651.995
322.183	20.544	851.482	651.494
323.197	20.559	851.426	651.450
324.212	20.528	850.596	650.642
325.227	20.798	849.592	650.825
326.241	20.706	849.174	650.104
327.256	20.563	848.769	649.200
328.270	20.697	848.311	649.293
329.285	20.595	847.576	648.294
330.300	20.444	846.918	647.171
331.314	20.466	846.507	646.881
332.329	20.572	845.955	646.797
333.343	20.753	845.219	646.850
334.358	20.904	844.890	647.100
335.373	20.898	844.295	646.567
336.387	21.005	843.636	646.400
337.402	20.958	843.230	645.856
338.416	21.045	842.932	645.894
339.431	21.107	842.204	645.509
340.446	21.237	841.834	645.651
341.460	21.299	841.567	645.618
342.475	21.359	841.063	645.395
343.489	21.446	840.173	644.976
344.504	21.416	839.856	644.563
345.519	21.370	839.692	644.213
346.533	21.580	838.889	644.311
347.548	21.565	838.317	643.762
348.562	21.497	837.499	642.827
349.577	21.167	837.072	641.230
350.592	20.991	836.284	639.920
351.606	20.848	835.996	639.121
352.621	20.977	835.406	639.085
353.635	20.838	835.036	638.237
354.650	21.061	834.706	638.746
355.665	20.973	834.489	638.200
356.679	21.028	834.030	637.993
357.694	21.168	833.026	637.682
358.708	21.441	832.318	638.078
359.723	21.314	831.682	637.072
360.738	21.308	831.372	636.756
361.752	21.258	831.048	636.269
362.767	21.325	830.517	636.051
363.781	21.294	830.266	635.689
364.796	21.620	829.730	636.408
365.810	21.736	829.347	636.477
366.825	21.802	829.351	636.665
367.840	21.761	829.143	636.301
368.854	21.535	828.951	635.275
369.869	21.611	828.079	634.827
370.883	21.467	827.382	633.716
371.898	21.417	827.008	633.192
372.913	21.685	826.025	633.352
373.927	21.636	826.072	633.153
374.942	21.713	824.874	632.460
375.956	21.699	824.268	631.886
376.971	21.748	823.701	631.573
377.986	21.911	823.388	631.866
379.000	22.027	822.778	631.758
380.015	22.000	822.333	631.264
381.029	21.961	821.862	630.705
382.044	21.974	820.958	630.003
383.059	21.894	820.236	629.107
384.073	22.034	819.828	629.238
385.088	22.033	819.163	628.670
386.102	21.775	818.923	627.506
387.117	21.631	817.935	626.179
388.132	21.642	817.354	625.720
389.146	21.562	817.334	625.362
390.161	21.626	817.195	625.428
391.175	21.749	816.252	625.090
392.190	21.891	816.211	625.511
393.205	21.757	815.593	624.504
394.219	21.691	815.054	623.802
395.234	21.619	814.594	623.138
396.248	21.515	814.139	622.365
397.263	21.460	813.464	621.598
398.278	21.226	813.146	620.470
399.292	21.418	812.331	620.471
400.307	21.500	811.963	620.428
401.321	21.349	811.566	619.533
402.336	21.414	811.322	619.524
403.350	21.499	811.238	619.705
404.365	21.589	810.783	619.622
405.380	21.904	810.059	620.129
406.394	22.052	809.677	620.303
407.409	22.061	809.666	620.272
408.423	22.069	809.182	619.873
409.438	22.183	808.402	619.624
410.453	22.146	808.314	619.370
411.467	22.391	807.369	619.455
412.482	22.459	806.856	619.244
413.496	22.408	806.539	618.766
414.511	22.469	806.696	619.048
415.526	22.505	805.949	618.544
416.540	22.442	805.694	618.074
417.555	22.369	805.327	617.483
418.569	22.340	804.507	616.698
419.584	22.370	804.065	616.408
420.599	22.504	803.274	616.217
421.613	160.656	1369.105	1792.257
422.628	139.605	1451.589	1792.388
