DTS Sentinel unit serial number:	SN413079Multiplexer serial number:	ORYXHardware model number:	OX4-SRSoftware version number:	ORYX F/W v4.00 Oryx Data Collector v3.7.2.0data status	okinstallation	princeton_trtdifferential loss correction	single-endedforward channel	channel 3reverse channel	N/Adate	2019/09/13time	14:44:35forward acquisition time	60.00reverse acquisition time	0.00gamma	496.2192k internal	0.2300k external	0.2300temperature offset calibration	1.0143default loss term (dB/km)	0.3790temperature slope calibration	1.0000multiplexer offset coefficient	1.0000multiplexer slope coefficient	1.0000fibre end	0.00T internal ref (°C)	35.47T ext. ref 1 (°C)	4.68T ext. ref 2 (°C)	32.38length (m)	temperature (°C)	Stokes	anti-Stokes-747.200	-200.000	-0.036	-0.262
-746.185	-11.884	0.110	0.074
-745.171	-95.853	-0.149	-0.041
-744.156	-200.000	-0.000	0.060
-743.142	136.172	-0.175	-0.233
-742.127	736.941	0.085	0.232
-741.112	-200.000	0.058	-0.295
-740.098	23.286	-0.206	0.173
-739.083	-61.255	0.142	0.061
-738.069	247.120	0.191	0.329
-737.054	173.641	0.216	0.318
-736.039	143.800	0.122	-0.166
-735.025	-200.000	-0.016	-0.100
-734.010	-25.116	-0.457	-0.276
-732.996	-16.247	-0.274	0.178
-731.981	-45.782	-0.159	0.080
-730.966	56.955	0.116	-0.115
-729.952	289.690	-0.106	-0.197
-728.937	-109.796	0.152	-0.033
-727.923	-200.000	-0.044	0.218
-726.908	-137.952	-0.344	-0.039
-725.894	-200.000	0.050	-0.289
-724.879	-93.571	0.571	-0.161
-723.864	-199.403	0.249	0.001
-722.850	-200.000	0.004	-0.172
-721.835	228.843	-0.167	-0.277
-720.821	800.000	0.058	-0.192
-719.806	239.430	0.181	-0.307
-718.791	394.950	0.116	-0.246
-717.777	40.618	-0.216	0.199
-716.762	41.172	-0.147	-0.136
-715.748	36.309	-0.125	0.113
-714.733	238.651	0.012	-0.021
-713.718	-20.910	-0.172	0.107
-712.704	-44.702	-0.364	-0.185
-711.689	-53.615	0.107	-0.050
-710.675	267.086	-0.160	-0.286
-709.660	-56.230	0.443	0.201
-708.645	-200.000	0.009	-0.080
-707.631	-200.000	0.017	-0.287
-706.616	22.044	0.095	-0.079
-705.602	-200.000	0.336	-0.000
-704.587	687.437	0.103	-0.274
-703.572	16.296	0.145	0.116
-702.558	420.081	-0.066	-0.144
-701.543	-122.987	0.132	-0.022
-700.529	-200.000	-0.012	0.532
-699.514	-74.744	-0.192	-0.070
-698.499	16.465	-0.016	-0.013
-697.485	120.059	0.160	0.202
-696.470	800.000	0.089	-0.355
-695.456	-200.000	0.014	-0.274
-694.441	174.434	0.285	-0.420
-693.426	-124.608	0.292	0.046
-692.412	-102.064	-0.181	0.044
-691.397	-95.632	-0.421	-0.115
-690.383	84.482	-0.147	0.164
-689.368	-106.484	0.296	-0.067
-688.354	-200.000	-0.063	0.412
-687.339	800.000	0.098	0.280
-686.324	-17.571	0.148	-0.095
-685.310	-195.090	-0.154	-0.001
-684.295	-134.886	-0.149	-0.018
-683.281	-200.000	-0.027	-0.151
-682.266	360.581	-0.107	-0.218
-681.251	24.868	-0.180	-0.152
-680.237	-200.000	-0.021	-0.305
-679.222	-70.488	0.098	-0.038
-678.208	6.292	-0.071	-0.054
-677.193	-200.000	0.019	-0.220
-676.178	800.000	0.071	-0.215
-675.164	20.554	-0.208	0.171
-674.149	-26.474	-0.222	-0.132
-673.135	6.946	-0.211	-0.160
-672.120	-200.000	0.002	0.106
-671.105	-93.754	-0.137	-0.038
-670.091	-200.000	0.069	0.477
-669.076	-45.608	-0.353	-0.178
-668.062	181.519	0.204	0.306
-667.047	56.288	-0.035	0.035
-666.032	-200.000	0.016	0.090
-665.018	-200.000	0.068	-0.357
-664.003	-90.133	-0.271	0.080
-662.989	67.141	0.416	0.431
-661.974	560.264	0.064	0.158
-660.959	91.923	0.092	0.106
-659.945	-111.764	-0.422	-0.087
-658.930	473.591	0.162	-0.372
-657.916	154.378	-0.067	0.094
-656.901	-66.359	-0.101	-0.041
-655.886	-109.270	-0.171	-0.037
-654.872	435.688	0.103	0.227
-653.857	-134.283	-0.264	0.033
-652.843	82.396	-0.139	0.153
-651.828	-26.036	-0.323	-0.193
-650.814	-53.073	-0.043	0.020
-649.799	142.475	0.248	0.334
-648.784	133.873	0.170	-0.224
-647.770	800.000	0.043	-0.139
-646.755	51.027	0.164	0.158
-645.741	-67.727	-0.183	-0.073
-644.726	368.301	0.067	-0.138
-643.711	249.813	-0.064	-0.111
-642.697	-47.741	-0.068	-0.033
-641.682	313.110	-0.017	0.032
-640.668	-106.075	0.164	0.037
-639.653	540.438	0.101	-0.245
-638.638	-11.433	0.126	-0.084
-637.624	109.810	0.115	0.140
-636.609	-112.433	0.204	-0.041
-635.595	529.696	-0.188	0.452
-634.580	-138.073	-0.343	0.039
-633.565	-10.066	-0.108	-0.073
-632.551	-7.005	0.252	0.174
-631.536	403.751	0.043	0.091
-630.522	-200.000	0.008	0.043
-629.507	-200.000	0.058	0.359
-628.492	-146.384	-0.206	-0.018
-627.478	264.060	0.186	-0.329
-626.463	800.000	-0.061	0.179
-625.449	43.031	-0.246	-0.228
-624.434	598.477	0.116	-0.291
-623.419	793.171	0.120	0.336
-622.405	31.420	0.034	0.030
-621.390	130.806	-0.034	0.045
-620.376	678.671	0.029	-0.076
-619.361	-110.938	-0.280	0.058
-618.346	800.000	0.083	-0.341
-617.332	296.269	-0.059	0.110
-616.317	-112.278	-0.086	0.018
-615.303	-200.000	0.047	-0.224
-614.288	-191.436	-0.160	-0.002
-613.273	-200.000	0.045	-0.444
-612.259	14.839	0.184	-0.146
-611.244	-83.215	0.244	0.079
-610.230	-102.402	0.181	0.044
-609.215	-24.496	-0.122	0.074
-608.201	-200.000	0.011	0.300
-607.186	-101.167	-0.382	-0.095
-606.171	-14.934	-0.094	-0.061
-605.157	320.097	0.160	-0.309
-604.142	272.106	0.173	-0.310
-603.128	800.000	-0.023	-0.077
-602.113	118.413	0.144	-0.181
-601.098	-95.026	-0.084	0.023
-600.084	30.602	-0.119	0.103
-599.069	-200.000	-0.029	0.195
-598.055	-116.718	-0.290	0.054
-597.040	-200.000	0.000	-0.259
-596.025	82.157	0.240	-0.263
-595.011	652.879	-0.137	-0.357
-593.996	-7.501	-0.185	-0.127
-592.982	-72.872	-0.110	-0.041
-591.967	-126.313	0.381	-0.058
-590.952	177.811	-0.115	0.171
-589.938	-126.994	0.271	0.040
-588.923	480.795	-0.058	0.133
-587.909	-1.270	-0.170	0.122
-586.894	800.000	0.041	-0.119
-585.879	52.748	0.092	-0.089
-584.865	-39.014	-0.062	0.033
-583.850	-105.573	-0.211	0.048
-582.836	108.533	-0.180	0.218
-581.821	473.853	0.097	0.221
-580.806	776.543	0.052	-0.145
-579.792	151.251	0.127	0.176
-578.777	-10.342	0.144	-0.097
-577.763	135.880	-0.162	0.213
-576.748	87.547	-0.032	-0.036
-575.733	-54.393	0.347	-0.160
-574.719	150.547	0.067	0.092
-573.704	155.130	0.022	-0.031
-572.690	262.457	-0.138	0.242
-571.675	800.000	0.048	-0.137
-570.661	440.350	0.070	-0.155
-569.646	59.653	0.087	0.087
-568.631	498.303	0.214	0.499
-567.617	800.000	0.070	0.198
-566.602	51.110	-0.092	0.088
-565.588	200.412	-0.176	0.275
-564.573	800.000	0.044	0.184
-563.558	-161.266	-0.124	0.007
-562.544	678.507	-0.088	-0.231
-561.529	-42.560	-0.127	-0.066
-560.515	220.374	0.154	-0.250
-559.500	-189.804	-0.425	0.005
-558.485	7.933	-0.217	0.165
-557.471	-38.155	-0.205	-0.110
-556.456	2.788	-0.052	-0.038
-555.442	-82.869	0.095	-0.031
-554.427	383.851	-0.218	-0.454
-553.412	-91.293	0.164	0.048
-552.398	75.934	0.093	0.100
-551.383	254.910	0.067	0.116
-550.369	109.740	-0.051	-0.062
-549.354	-89.650	-0.119	-0.035
-548.339	-53.831	0.212	0.098
-547.325	-90.416	-0.221	0.065
-546.310	800.000	-0.081	0.328
-545.296	100.105	-0.091	-0.107
-544.281	68.665	0.158	-0.164
-543.266	800.000	0.107	0.317
-542.252	57.682	0.214	-0.212
-541.237	-146.772	0.095	0.008
-540.223	-113.679	0.257	0.051
-539.208	144.012	0.115	-0.156
-538.193	611.164	0.069	-0.175
-537.179	140.350	0.306	0.409
-536.164	800.000	0.076	-0.215
-535.150	747.129	0.018	0.050
-534.135	157.665	-0.194	0.271
-533.121	200.686	-0.025	0.039
-532.106	379.071	-0.165	0.343
-531.091	-114.964	0.249	-0.048
-530.077	-95.676	-0.337	-0.091
-529.062	572.554	-0.040	0.099
-528.048	171.065	-0.073	0.105
-527.033	-134.300	0.259	0.032
-526.018	-200.000	0.017	0.123
-525.004	-144.193	-0.115	-0.011
-523.989	76.209	-0.142	0.153
-522.975	-200.000	0.088	-0.399
-521.960	5.315	-0.215	-0.161
-520.945	211.402	-0.079	-0.125
-519.931	800.000	-0.033	-0.112
-518.916	-119.249	0.550	0.097
-517.902	-93.489	0.274	-0.077
-516.887	555.922	0.131	-0.318
-515.872	800.000	0.036	-0.131
-514.858	93.254	0.275	0.314
-513.843	-200.000	0.040	-0.391
-512.829	-40.105	-0.178	0.094
-511.814	12.934	-0.231	0.181
-510.799	-13.888	-0.017	0.011
-509.785	-200.000	0.039	-0.353
-508.770	-200.000	0.014	-0.064
-507.756	-200.000	-0.013	0.307
-506.741	-200.000	-0.012	0.148
-505.726	254.015	0.025	-0.043
-504.712	790.703	-0.063	-0.175
-503.697	-137.733	-0.085	0.010
-502.683	-200.000	-0.003	-0.066
-501.668	-200.000	0.000	0.266
-500.653	145.660	0.221	-0.299
-499.639	-200.000	-0.006	0.177
-498.624	23.936	0.174	-0.145
-497.610	-25.861	0.010	0.006
-496.595	-14.549	-0.101	-0.066
-495.581	182.040	0.104	-0.155
-494.566	353.544	-0.153	-0.306
-493.551	-96.341	-0.222	-0.059
-492.537	-120.883	0.191	0.033
-491.522	648.899	0.117	-0.301
-490.508	76.731	0.174	0.186
-489.493	-200.000	-0.103	0.545
-488.478	-113.218	-0.219	-0.044
-487.464	599.806	-0.058	0.146
-486.449	577.824	-0.084	0.206
-485.435	-99.056	-0.203	-0.052
-484.420	-199.808	-0.059	-0.000
-483.405	429.333	0.084	-0.183
-482.391	282.569	-0.216	-0.391
-481.376	-95.276	0.610	-0.166
-480.362	-62.682	-0.455	-0.191
-479.347	-61.838	0.509	-0.215
-478.332	-146.661	0.154	-0.014
-477.318	90.027	0.251	0.283
-476.303	-200.000	0.003	-0.140
-475.289	72.750	0.094	-0.099
-474.274	-72.277	-0.282	-0.105
-473.259	-66.261	0.221	-0.089
-472.245	38.960	-0.280	0.253
-471.230	46.478	-0.217	0.203
-470.216	606.309	0.143	0.360
-469.201	-109.381	0.363	0.078
-468.186	88.297	0.065	-0.073
-467.172	-200.000	0.027	-0.149
-466.157	225.936	-0.150	0.245
-465.143	800.000	-0.052	0.167
-464.128	-128.067	0.263	0.038
-463.113	-52.418	0.063	-0.029
-462.099	297.800	-0.077	0.142
-461.084	800.000	0.040	0.130
-460.070	-200.000	0.037	0.169
-459.055	-6.099	-0.115	0.079
-458.040	141.150	0.138	0.185
-457.026	315.042	-0.083	0.158
-456.011	800.000	0.024	0.087
-454.997	-23.873	0.050	0.030
-453.982	157.916	-0.217	-0.304
-452.968	800.000	-0.059	0.225
-451.953	800.000	0.041	0.119
-450.938	-200.000	0.021	-0.181
-449.924	34.465	-0.205	-0.180
-448.909	-200.000	0.016	0.119
-447.895	-26.188	-0.244	-0.145
-446.880	-90.526	0.373	0.109
-445.865	-200.000	0.041	-0.211
-444.851	254.884	-0.073	0.127
-443.836	284.826	-0.078	-0.141
-442.822	-79.773	-0.238	-0.081
-441.807	-200.000	-0.012	-0.189
-440.792	274.249	-0.020	-0.036
-439.778	-200.000	0.062	-0.429
-438.763	-156.603	-0.183	-0.011
-437.749	31.694	0.101	0.088
-436.734	-81.840	0.094	-0.031
-435.719	-127.308	-0.280	0.041
-434.705	-154.622	0.118	0.008
-433.690	-200.000	0.013	-0.089
-432.676	101.521	-0.030	-0.036
-431.661	-9.040	0.059	0.040
-430.646	120.262	-0.065	0.081
-429.632	126.761	-0.037	-0.047
-428.617	19.312	-0.176	0.142
-427.603	-48.334	-0.097	-0.047
-426.588	36.905	0.423	0.377
-425.573	-153.656	-0.169	0.012
-424.559	800.000	0.037	-0.157
-423.544	800.000	-0.042	0.130
-422.530	-13.793	-0.078	0.051
-421.515	-200.000	0.031	-0.242
-420.500	-71.967	-0.045	-0.017
-419.486	800.000	-0.103	0.328
-418.471	-88.176	-0.139	-0.042
-417.457	-18.228	0.167	0.105
-416.442	277.445	-0.070	-0.125
-415.428	652.182	0.019	-0.049
-414.413	366.304	0.133	0.269
-413.398	84.608	-0.124	0.136
-412.384	52.458	0.129	0.124
-411.369	359.582	0.048	0.096
-410.355	-31.259	0.090	0.051
-409.340	-119.370	0.152	0.027
-408.325	33.444	-0.343	0.300
-407.311	731.266	0.055	0.149
-406.296	-200.000	-0.006	0.229
-405.282	-200.000	-0.054	0.262
-404.267	-96.381	-0.483	-0.129
-403.252	-146.479	-0.384	0.034
-402.238	-200.000	-0.051	0.366
-401.223	7.101	-0.184	-0.138
-400.209	-200.000	0.007	-0.051
-399.194	-55.101	-0.204	0.092
-398.179	400.314	-0.224	0.472
-397.165	21.698	-0.075	0.061
-396.150	-58.896	-0.439	-0.191
-395.136	800.000	0.049	0.150
-394.121	52.750	-0.068	-0.065
-393.106	-7.637	-0.031	0.021
-392.092	-134.469	0.234	0.029
-391.077	-27.476	-0.172	0.101
-390.063	83.088	0.083	-0.091
-389.048	-22.335	0.189	0.115
-388.033	-89.443	-0.084	0.025
-387.019	-200.000	0.004	-0.142
-386.004	480.808	0.098	0.224
-384.990	-75.310	-0.303	0.109
-383.975	-200.000	-0.086	0.462
-382.960	-124.807	0.169	-0.026
-381.946	171.517	-0.164	-0.237
-380.931	-10.545	0.122	0.082
-379.917	-21.364	0.061	-0.038
-378.902	-105.452	0.085	-0.019
-377.888	800.000	-0.024	0.098
-376.873	110.459	-0.077	0.093
-375.858	84.671	-0.182	-0.200
-374.844	-200.000	-0.044	-0.223
-373.829	-149.095	-0.284	0.023
-372.815	-72.806	0.199	-0.074
-371.800	-185.355	0.191	-0.003
-370.785	13.493	-0.003	0.003
-369.771	-43.978	-0.126	0.064
-368.756	-200.000	0.030	0.137
-367.742	-107.588	0.307	-0.067
-366.727	-200.000	0.014	-0.139
-365.712	-41.202	0.184	-0.095
-364.698	-150.603	-0.205	-0.016
-363.683	-123.722	0.192	0.031
-362.669	-200.000	0.045	0.353
-361.654	800.000	-0.055	0.234
-360.639	-148.735	-0.391	0.032
-359.625	800.000	0.104	0.330
-358.610	-200.000	-0.007	0.133
-357.596	52.739	-0.114	-0.109
-356.581	800.000	0.025	0.110
-355.566	86.114	-0.095	0.105
-354.552	-52.448	0.392	-0.182
-353.537	-85.831	0.176	0.055
-352.523	211.431	0.054	-0.086
-351.508	-153.137	0.305	-0.022
-350.493	-200.000	0.009	0.250
-349.479	800.000	-0.078	-0.243
-348.464	502.887	0.091	-0.211
-347.450	495.949	-0.084	-0.195
-346.435	9.387	-0.156	-0.118
-345.420	-106.794	-0.443	0.099
-344.406	58.739	0.148	0.146
-343.391	800.000	-0.062	-0.192
-342.377	270.173	-0.101	-0.178
-341.362	-57.843	-0.059	-0.026
-340.348	-51.609	-0.367	0.172
-339.333	161.376	-0.295	0.414
-338.318	28.192	-0.116	-0.098
-337.304	-200.000	-0.032	0.239
-336.289	-200.000	-0.083	-0.418
-335.275	-200.000	0.000	-0.114
-334.260	17.274	-0.026	-0.021
-333.245	800.000	-0.143	-0.462
-332.231	85.835	-0.132	-0.145
-331.216	-122.800	0.137	0.022
-330.202	688.536	-0.050	0.132
-329.187	-90.637	-0.120	0.035
-328.172	-13.067	0.265	-0.173
-327.158	-150.346	-0.187	0.014
-326.143	-125.165	0.185	0.029
-325.129	-42.321	-0.381	-0.195
-324.114	275.037	0.150	-0.268
-323.099	791.962	0.043	-0.118
-322.085	-131.428	-0.320	0.042
-321.070	-59.969	0.184	-0.079
-320.056	17.755	-0.079	-0.063
-319.041	785.498	-0.092	-0.253
-318.026	-94.761	0.101	-0.028
-317.012	-200.000	0.015	-0.312
-315.997	-200.000	0.009	-0.044
-314.983	800.000	-0.105	0.431
-313.968	180.039	0.065	0.095
-312.953	-200.000	-0.078	-0.377
-311.939	138.987	-0.113	-0.149
-310.924	-69.784	-0.132	-0.050
-309.910	800.000	0.032	0.101
-308.895	3.350	0.135	0.099
-307.880	393.101	-0.028	-0.059
-306.866	281.619	-0.065	-0.117
-305.851	-200.000	-0.084	-0.542
-304.837	-110.590	0.340	-0.071
-303.822	800.000	-0.050	0.201
-302.807	-51.350	0.382	0.179
-301.793	-1.343	-0.150	-0.106
-300.778	509.889	0.065	0.152
-299.764	-200.000	0.014	-0.473
-298.749	800.000	0.062	-0.182
-297.735	575.421	0.095	-0.233
-296.720	556.295	-0.191	-0.462
-295.705	-61.651	0.102	0.043
-294.691	257.650	0.159	-0.274
-293.676	27.312	0.064	-0.054
-292.662	120.863	0.110	-0.138
-291.647	-87.279	-0.047	0.014
-290.632	54.470	0.181	-0.175
-289.618	-200.000	0.013	0.340
-288.603	110.785	0.204	-0.246
-287.589	-75.206	0.227	0.081
-286.574	85.942	0.076	0.084
-285.559	17.479	-0.125	0.100
-284.545	288.761	-0.108	-0.197
-283.530	-50.660	0.239	-0.113
-282.516	291.535	-0.013	-0.024
-281.501	-10.475	0.195	-0.130
-280.486	429.143	-0.091	0.198
-279.472	20.067	0.187	0.151
-278.457	-200.000	0.001	-0.311
-277.443	352.181	0.222	0.441
-276.428	-67.739	0.281	-0.110
-275.413	-200.000	-0.026	0.246
-274.399	-200.000	-0.022	-0.495
-273.384	-104.539	-0.071	0.016
-272.370	-50.283	-0.485	0.229
-271.355	-86.805	0.365	-0.112
-270.340	148.409	0.161	0.217
-269.326	-92.875	0.335	0.094
-268.311	-186.479	0.261	0.004
-267.297	-76.381	-0.376	-0.132
-266.282	-154.150	0.376	-0.026
-265.267	-14.072	0.211	-0.136
-264.253	-200.000	0.001	0.096
-263.238	324.215	-0.226	-0.431
-262.224	-174.063	0.136	-0.004
-261.209	331.251	0.069	-0.133
-260.195	-94.418	-0.208	0.057
-259.180	800.000	0.019	0.057
-258.165	-118.026	0.286	-0.051
-257.151	328.482	0.230	-0.443
-256.136	800.000	-0.089	-0.259
-255.122	800.000	0.065	-0.202
-254.107	95.298	-0.060	0.069
-253.092	-70.804	-0.118	-0.045
-252.078	503.680	-0.059	-0.137
-251.063	-200.000	-0.018	0.106
-250.049	-200.000	-0.039	-0.385
-249.034	-58.051	0.249	-0.109
-248.019	-200.000	-0.002	0.077
-247.005	-48.658	-0.192	0.092
-245.990	-200.000	0.011	-0.280
-244.976	-141.560	-0.528	0.053
-243.961	-200.000	0.035	0.247
-242.946	-17.275	-0.277	-0.175
-241.932	-157.394	0.101	0.006
-240.917	-95.181	-0.268	0.072
-239.903	-119.507	-0.293	-0.051
-238.888	800.000	-0.055	-0.164
-237.873	40.341	-0.113	0.102
-236.859	-200.000	0.001	-0.015
-235.844	-200.000	-0.026	0.172
-234.830	220.179	0.118	-0.190
-233.815	51.828	-0.077	0.073
-232.800	-23.508	-0.366	0.220
-231.786	-94.070	0.133	0.036
-230.771	-51.199	-0.075	-0.035
-229.757	-142.290	0.385	0.038
-228.742	-200.000	0.070	0.378
-227.727	11.538	0.186	-0.143
-226.713	300.043	0.105	0.193
-225.698	400.095	0.160	0.336
-224.684	53.713	0.263	-0.252
-223.669	-200.000	0.000	0.066
-222.655	-71.425	-0.169	-0.063
-221.640	123.376	0.094	-0.118
-220.625	8.573	0.067	-0.051
-219.611	-50.015	0.061	0.029
-218.596	-52.925	-0.117	-0.054
-217.582	174.133	0.177	-0.256
-216.567	50.678	0.058	-0.055
-215.552	-63.344	-0.021	-0.008
-214.538	92.170	0.104	0.117
-213.523	5.592	0.138	-0.102
-212.509	-200.000	0.037	0.259
-211.494	-146.097	0.162	-0.014
-210.479	-33.711	-0.171	-0.094
-209.465	-53.323	-0.157	-0.072
-208.450	800.000	-0.092	0.288
-207.436	-34.134	0.330	0.181
-206.421	-200.000	0.076	0.367
-205.406	9.094	-0.351	-0.265
-204.392	19.593	0.229	0.184
-203.377	176.690	-0.024	0.035
-202.363	357.240	-0.064	0.127
-201.348	176.871	0.068	0.098
-200.333	-0.810	0.217	-0.154
-199.319	28.191	-0.225	-0.189
-198.304	46.175	0.104	0.096
-197.290	-200.000	0.000	0.079
-196.275	-95.739	-0.188	0.050
-195.260	800.000	-0.054	0.191
-194.246	-200.000	-0.021	-0.169
-193.231	-73.041	0.218	-0.080
-192.217	666.495	-0.080	-0.207
-191.202	443.399	0.164	-0.359
-190.187	577.901	-0.046	0.111
-189.173	-95.326	0.262	0.070
-188.158	-200.000	-0.027	-0.131
-187.144	-200.000	-0.009	0.361
-186.129	40.662	-0.244	0.220
-185.114	712.890	-0.083	-0.220
-184.100	-200.000	-0.002	-0.368
-183.085	-169.094	-0.107	-0.004
-182.071	93.779	0.039	0.045
-181.056	17.223	0.206	0.163
-180.042	-200.000	-0.030	0.141
-179.027	-25.218	0.142	0.084
-178.012	-68.842	0.141	0.055
-176.998	800.000	0.053	0.228
-175.983	-200.000	-0.034	0.317
-174.969	-103.066	0.167	0.039
-173.954	-55.477	-0.336	0.150
-172.939	-150.073	0.042	-0.003
-171.925	200.337	0.130	-0.200
-170.910	120.698	-0.208	0.258
-169.896	-200.000	0.018	0.098
-168.881	-65.067	-0.152	0.061
-167.866	568.719	-0.063	-0.153
-166.852	-200.000	-0.069	-0.313
-165.837	-101.182	0.162	0.040
-164.823	-200.000	-0.023	-0.122
-163.808	-200.000	0.009	0.239
-162.793	-8.737	0.128	0.085
-161.779	-200.000	-0.051	0.331
-160.764	222.944	-0.097	-0.155
-159.750	103.347	0.152	0.178
-158.735	118.218	-0.102	0.126
-157.720	9.461	-0.232	0.175
-156.706	-111.406	-0.297	-0.060
-155.691	15.615	0.332	0.260
-154.677	-2.789	-0.276	0.193
-153.662	-75.964	-0.162	0.057
-152.647	-121.094	-0.150	0.025
-151.633	-78.246	0.167	0.057
-150.618	414.900	-0.127	0.270
-149.604	-64.628	0.101	-0.041
-148.589	47.073	-0.170	0.157
-147.574	68.532	-0.306	-0.312
-146.560	-40.698	-0.025	-0.013
-145.545	800.000	0.108	0.330
-144.531	-200.000	-0.043	0.291
-143.516	-152.483	0.081	0.006
-142.502	-75.228	0.516	0.184
-141.487	-200.000	0.008	-0.311
-140.472	7.302	-0.134	-0.099
-139.458	141.392	0.187	0.247
-138.443	-200.000	0.064	0.291
-137.429	-200.000	0.019	0.167
-136.414	92.404	0.090	0.101
-135.399	2.740	0.372	-0.269
-134.385	241.015	0.128	-0.213
-133.370	486.247	-0.029	-0.067
-132.356	-182.059	-0.117	-0.002
-131.341	-99.319	0.345	-0.087
-130.326	784.023	-0.107	0.291
-129.312	65.184	-0.182	0.183
-128.297	800.000	-0.040	0.113
-127.283	-156.742	-0.109	-0.007
-126.268	-200.000	0.014	-0.092
-125.253	-124.680	-0.084	0.013
-124.239	-28.005	-0.022	-0.013
-123.224	-20.067	0.351	-0.215
-122.210	-93.195	0.073	-0.020
-121.195	-184.304	0.227	0.004
-120.180	-93.445	0.135	-0.037
-119.166	176.282	0.207	-0.300
-118.151	-33.377	-0.153	-0.084
-117.137	-79.394	0.097	-0.033
-116.122	-83.253	0.215	-0.069
-115.107	800.000	0.089	0.296
-114.093	464.232	-0.047	-0.105
-113.078	-32.938	-0.136	0.075
-112.064	483.582	-0.133	0.302
-111.049	18.750	0.300	-0.239
-110.034	-44.410	-0.062	-0.031
-109.020	-80.548	-0.166	0.055
-108.005	488.725	0.119	-0.271
-106.991	-118.661	0.343	-0.060
-105.976	-200.000	0.038	0.285
-104.962	104.227	0.071	0.083
-103.947	204.443	0.033	0.051
-102.932	-103.741	0.040	-0.009
-101.918	-101.730	-0.225	-0.054
-100.903	-146.686	0.309	0.027
-99.889	415.436	-0.144	0.306
-98.874	87.402	-0.083	0.091
-97.859	-200.000	0.032	0.255
-96.845	5.353	0.309	0.227
-95.830	245.425	0.217	0.364
-94.816	-200.000	0.023	0.112
-93.801	800.000	0.143	0.561
-92.786	800.000	0.089	-0.283
-91.772	-102.562	0.367	-0.087
-90.757	126.991	-0.145	0.183
-89.743	97.210	-0.022	-0.025
-88.728	185.109	-0.136	-0.201
-87.713	-107.026	-0.343	-0.075
-86.699	63.434	0.243	0.242
-85.684	1.211	-0.116	0.083
-84.670	-86.097	0.306	0.094
-83.655	444.941	0.187	-0.407
-82.640	63.672	0.362	-0.361
-81.626	-200.000	0.004	0.150
-80.611	-24.524	0.167	-0.099
-79.597	437.541	0.075	0.161
-78.582	195.646	0.135	0.204
-77.567	-134.232	-0.285	-0.035
-76.553	427.633	0.101	-0.216
-75.538	-173.195	-0.131	-0.004
-74.524	-114.571	0.061	0.012
-73.509	-2.002	0.558	0.390
-72.494	800.000	0.152	-0.537
-71.480	-87.549	-0.162	0.049
-70.465	-86.817	0.322	0.098
-69.451	-200.000	-0.039	-0.298
-68.436	11.499	0.104	-0.079
-67.422	505.841	0.134	0.308
-66.407	-90.639	0.129	0.037
-65.392	-160.647	0.275	-0.015
-64.378	139.055	0.188	-0.246
-63.363	111.382	0.121	0.145
-62.349	-200.000	-0.030	0.177
-61.334	14.815	-1.037	-0.806
-60.319	-124.291	0.646	0.100
-59.305	-200.000	-0.108	-0.836
-58.290	185.215	0.733	1.080
-57.276	585.548	0.656	1.603
-56.261	-200.000	92.507	544.009
-55.246	601.546	1382.520	3411.101
-54.232	185.593	2600.019	3835.184
-53.217	120.097	2219.682	2734.274
-52.203	45.810	1749.369	1606.132
-51.188	38.539	1557.376	1378.837
-50.173	36.138	1529.723	1337.666
-49.159	53.664	1578.839	1504.607
-48.144	57.294	1597.963	1548.384
-47.130	38.961	1554.671	1379.193
-46.115	35.761	1538.517	1342.514
-45.100	35.599	1535.153	1338.397
-44.086	35.535	1533.659	1336.595
-43.071	35.454	1531.731	1334.300
-42.057	35.413	1530.395	1332.800
-41.042	35.425	1528.607	1331.268
-40.027	35.530	1527.152	1330.681
-39.013	35.562	1525.734	1329.614
-37.998	35.431	1524.823	1327.856
-36.984	35.421	1523.424	1326.518
-35.969	35.396	1522.214	1325.239
-34.954	35.398	1520.857	1324.018
-33.940	35.503	1519.239	1323.281
-32.925	35.464	1517.606	1321.539
-31.911	35.443	1516.674	1320.530
-30.896	35.519	1515.275	1319.781
-29.881	35.512	1513.866	1318.454
-28.867	35.493	1512.571	1317.147
-27.852	35.532	1510.669	1315.704
-26.838	35.532	1509.495	1314.626
-25.823	35.532	1507.617	1312.938
-24.809	35.532	1505.977	1311.460
-23.794	35.545	1504.739	1310.416
-22.779	35.467	1503.874	1309.080
-21.765	35.491	1502.614	1308.096
-20.750	35.550	1501.464	1307.444
-19.736	35.492	1500.611	1306.254
-18.721	35.528	1499.167	1305.190
-17.706	35.535	1498.205	1304.349
-16.692	35.503	1497.382	1303.367
-15.677	35.465	1496.211	1302.037
-14.663	35.498	1494.930	1301.090
-13.648	35.364	1494.446	1299.714
-12.633	35.400	1492.778	1298.450
-11.619	35.563	1492.236	1299.034
-10.604	35.422	1491.671	1297.533
-9.590	35.367	1490.785	1296.342
-8.575	35.450	1489.776	1295.971
-7.560	35.435	1488.904	1295.063
-6.546	35.458	1487.966	1294.348
-5.531	35.378	1487.160	1293.057
-4.517	35.478	1485.991	1292.661
-3.502	35.436	1485.475	1291.884
-2.487	35.496	1483.742	1290.727
-1.473	35.379	1483.193	1289.409
-0.458	35.422	1482.131	1288.723
0.556	37.612	1472.711	1278.762
1.571	34.756	1445.522	1236.593
2.586	30.822	1381.370	1157.219
3.600	28.518	1296.460	1072.535
4.615	26.010	1248.061	1018.263
5.629	21.879	1189.546	948.159
6.644	13.029	1103.072	834.597
7.659	6.076	1060.470	768.389
8.673	4.769	1055.142	758.099
9.688	4.739	1051.805	755.488
10.702	4.454	1050.133	752.840
11.717	4.738	1048.709	753.123
12.731	7.895	1052.387	771.012
13.746	16.685	1064.734	822.891
14.761	22.239	1071.493	855.133
15.775	22.188	1070.516	854.029
16.790	21.343	1068.315	848.098
17.804	20.457	1065.852	841.776
18.819	19.530	1064.260	835.961
19.834	18.984	1062.642	831.971
20.848	18.829	1061.909	830.574
21.863	18.694	1061.488	829.522
22.877	18.568	1060.810	828.311
23.892	18.377	1059.838	826.554
24.907	18.421	1058.725	825.825
25.921	18.259	1058.244	824.597
26.936	18.239	1057.514	823.861
27.950	18.293	1056.540	823.289
28.965	18.369	1054.989	822.369
29.980	18.503	1053.837	822.043
30.994	18.563	1053.032	821.628
32.009	18.599	1052.337	821.186
33.023	18.712	1052.153	821.513
34.038	18.682	1051.351	820.672
35.053	18.524	1049.916	818.721
36.067	18.432	1048.859	817.388
37.082	18.396	1047.989	816.464
38.096	18.448	1047.207	816.031
39.111	18.567	1046.792	816.200
40.126	18.669	1045.737	815.791
41.140	18.420	1044.702	813.730
42.155	18.276	1043.486	812.027
43.169	18.004	1042.483	809.886
44.184	17.961	1041.307	808.698
45.199	17.995	1040.240	807.960
46.213	18.012	1039.124	807.099
47.228	17.997	1038.472	806.454
48.242	18.214	1038.012	807.047
49.257	18.385	1037.371	807.284
50.271	18.505	1035.527	806.342
51.286	18.331	1035.125	805.137
52.301	18.490	1034.041	804.969
53.315	18.357	1033.862	804.138
54.330	18.429	1032.290	803.181
55.344	18.213	1031.746	801.673
56.359	18.178	1030.783	800.690
57.374	18.225	1029.679	799.982
58.388	18.137	1028.971	798.951
59.403	18.103	1027.746	797.769
60.417	17.969	1027.200	796.650
61.432	17.854	1026.818	795.745
62.447	18.052	1025.462	795.545
63.461	17.834	1025.086	794.170
64.476	17.822	1023.668	792.947
65.490	17.819	1023.258	792.542
66.505	17.767	1022.140	791.367
67.520	17.814	1021.789	791.241
68.534	17.898	1020.711	790.726
69.549	17.911	1019.573	789.837
70.563	17.860	1019.047	789.124
71.578	17.763	1018.518	788.193
72.593	17.687	1017.415	786.921
73.607	17.593	1016.355	785.599
74.622	17.610	1015.309	784.800
75.636	17.505	1014.821	783.869
76.651	17.650	1013.876	783.738
77.666	17.688	1013.460	783.520
78.680	17.608	1012.977	782.708
79.695	17.719	1011.661	782.130
80.709	17.856	1011.034	782.204
81.724	17.872	1010.459	781.764
82.739	17.950	1009.686	781.454
83.753	18.055	1008.900	781.259
84.768	18.231	1008.266	781.504
85.782	18.416	1008.089	782.140
86.797	18.549	1007.538	782.250
87.812	18.624	1006.581	781.780
88.826	18.509	1005.624	780.444
89.841	18.453	1004.550	779.286
90.855	18.572	1003.852	779.216
91.870	18.497	1003.460	778.504
92.884	18.627	1002.576	778.339
93.899	18.671	1001.577	777.692
94.914	18.590	1000.789	776.644
95.928	18.650	1000.252	776.430
96.943	18.741	999.429	776.137
97.957	18.679	998.120	774.769
98.972	18.496	997.533	773.423
99.987	18.482	997.050	772.914
101.001	18.662	996.210	773.004
102.016	18.594	995.576	772.141
103.030	18.463	994.641	770.758
104.045	18.494	993.494	769.941
105.060	18.549	992.849	769.620
106.074	18.472	991.356	768.048
107.089	18.262	990.799	766.610
108.103	18.051	989.453	764.554
109.118	17.974	988.550	763.445
110.133	17.838	987.756	762.159
111.147	17.938	986.668	761.695
112.162	17.926	985.621	760.768
113.176	17.969	985.023	760.430
114.191	18.012	984.704	760.306
115.206	18.135	983.683	759.998
116.220	18.162	982.886	759.433
117.235	18.071	981.641	758.003
118.249	17.889	981.298	756.863
119.264	17.982	979.838	756.081
120.279	17.937	978.916	755.105
121.293	17.869	978.184	754.173
122.308	17.939	977.430	753.832
123.322	17.712	976.731	752.228
124.337	17.620	975.535	750.832
125.352	17.626	974.645	750.107
126.366	17.692	973.288	749.290
127.381	17.793	972.143	748.786
128.395	17.586	971.657	747.434
129.410	17.690	970.690	747.080
130.424	17.806	969.486	746.597
131.439	17.820	968.808	746.071
132.454	17.957	968.073	746.034
133.468	18.088	967.771	746.310
134.483	18.004	967.098	745.357
135.497	18.077	966.362	745.045
136.512	18.064	965.731	744.433
137.527	18.064	965.157	743.926
138.541	18.106	964.222	743.320
139.556	18.145	963.350	742.753
140.570	18.112	962.927	742.216
141.585	18.274	962.184	742.283
142.600	18.384	961.526	742.185
143.614	18.474	960.914	742.036
144.629	18.545	960.192	741.720
145.643	18.559	959.512	741.191
146.658	18.573	958.601	740.482
147.673	18.360	957.565	738.697
148.687	18.325	956.286	737.495
149.702	18.180	955.411	736.129
150.716	18.107	954.340	734.927
151.731	18.109	953.335	734.095
152.746	18.015	952.782	733.204
153.760	18.172	952.021	733.225
154.775	18.195	951.284	732.689
155.789	18.203	950.807	732.293
156.804	18.376	949.884	732.256
157.819	18.420	949.113	731.786
158.833	18.387	948.374	731.011
159.848	18.566	947.555	731.077
160.862	18.616	947.405	731.111
161.877	18.611	946.736	730.507
162.892	18.333	945.437	728.258
163.906	18.136	944.497	726.630
164.921	18.046	943.682	725.558
165.935	18.088	942.264	724.583
166.950	18.113	941.709	724.200
167.964	18.263	940.955	724.189
168.979	18.304	939.664	723.306
169.994	18.282	938.876	722.542
171.008	18.184	937.646	721.116
172.023	18.288	937.201	721.151
173.037	18.296	936.478	720.562
174.052	18.527	935.917	721.041
175.067	18.433	935.061	719.920
176.081	18.180	934.427	718.308
177.096	18.126	932.823	716.786
178.110	18.013	932.369	715.899
179.125	18.183	931.352	715.766
180.140	18.271	930.810	715.652
181.154	18.153	930.462	714.831
182.169	18.385	930.156	715.503
183.183	18.450	929.811	715.445
184.198	18.570	929.039	715.287
185.213	18.583	928.064	714.528
186.227	18.526	927.461	713.762
187.242	18.518	927.277	713.522
188.256	18.683	925.903	713.090
189.271	18.849	925.370	713.306
190.286	18.827	924.762	712.683
191.300	18.511	923.981	710.708
192.315	18.058	923.087	708.078
193.329	17.950	921.823	706.600
194.344	18.084	921.204	706.618
195.359	18.117	921.328	706.785
196.373	18.281	920.704	706.922
197.388	18.456	920.124	707.139
198.402	18.503	919.773	707.000
199.417	18.644	919.487	707.295
200.432	18.907	919.142	708.054
201.446	19.012	918.713	708.092
202.461	18.987	918.472	707.743
203.475	18.959	917.822	707.060
204.490	19.114	916.832	706.875
205.504	18.935	915.825	705.303
206.519	18.644	914.908	703.338
207.534	18.729	913.953	702.893
208.548	18.572	913.243	701.641
209.563	18.585	912.678	701.198
210.577	18.748	912.143	701.388
211.592	18.642	911.838	700.661
212.607	18.927	911.013	701.129
213.621	19.002	910.901	701.285
214.636	18.969	910.211	700.557
215.650	18.892	909.527	699.656
216.665	19.026	908.616	699.436
217.680	18.959	908.364	698.910
218.694	19.095	907.822	698.982
219.709	19.093	907.375	698.570
220.723	19.154	906.753	698.275
221.738	19.103	905.903	697.353
222.753	19.070	905.354	696.734
223.767	18.954	904.871	695.831
224.782	19.054	903.618	695.211
225.796	19.113	903.134	695.016
226.811	19.187	902.469	694.740
227.826	19.137	901.903	694.040
228.840	18.990	901.209	692.855
229.855	18.825	900.664	691.711
230.869	18.947	899.809	691.481
231.884	19.012	898.968	691.035
232.899	18.973	898.166	690.201
233.913	18.932	897.657	689.584
234.928	18.850	896.557	688.349
235.942	18.672	896.203	687.305
236.957	18.760	895.123	686.769
237.972	18.752	894.725	686.372
238.986	18.958	893.641	686.300
240.001	18.800	893.332	685.373
241.015	18.692	892.726	684.416
242.030	18.906	891.960	684.618
243.045	19.097	891.338	684.844
244.059	19.111	890.884	684.490
245.074	18.947	890.253	683.291
246.088	19.125	889.742	683.547
247.103	19.133	889.263	683.150
248.117	19.204	888.839	683.043
249.132	19.479	888.412	683.745
250.147	19.559	887.743	683.488
251.161	19.717	887.749	684.056
252.176	19.770	886.996	683.626
253.190	19.878	886.569	683.660
254.205	19.940	886.145	683.520
255.220	19.942	885.129	682.685
256.234	19.993	884.436	682.289
257.249	19.932	883.856	681.542
258.263	19.803	883.437	680.649
259.278	19.843	882.875	680.313
260.293	19.869	882.218	679.851
261.307	19.875	881.806	679.494
262.322	19.955	880.999	679.126
263.336	19.971	880.724	678.918
264.351	20.030	879.664	678.273
265.366	20.092	878.985	677.931
266.380	20.052	878.664	677.466
267.395	20.150	877.774	677.105
268.409	20.031	876.815	675.838
269.424	19.892	876.365	674.890
270.439	19.883	875.600	674.209
271.453	19.897	874.869	673.638
272.468	19.816	873.991	672.589
273.482	19.847	873.234	672.068
274.497	19.936	872.738	671.973
275.512	19.894	872.088	671.247
276.526	19.767	871.506	670.250
277.541	19.764	871.036	669.818
278.555	19.829	870.177	669.350
279.570	19.965	869.929	669.624
280.585	20.076	869.567	669.717
281.599	20.193	868.821	669.533
282.614	20.056	868.579	668.759
283.628	19.976	867.292	667.400
284.643	19.970	867.004	667.096
285.657	19.888	866.409	666.262
286.672	19.897	866.089	665.993
287.687	20.032	865.370	665.900
288.701	20.078	864.691	665.496
289.716	20.118	864.129	665.159
290.730	20.127	863.700	664.802
291.745	19.994	862.982	663.683
292.760	20.140	862.732	663.989
293.774	20.179	861.568	663.187
294.789	20.284	861.687	663.621
295.803	20.253	860.784	662.745
296.818	20.133	860.175	661.760
297.833	20.070	859.317	660.801
298.847	20.083	858.355	660.054
299.862	19.980	858.292	659.555
300.876	20.086	857.557	659.337
301.891	20.208	856.659	659.050
302.906	20.317	856.441	659.237
303.920	20.393	856.159	659.252
304.935	20.541	855.563	659.294
305.949	20.650	854.691	658.979
306.964	20.566	854.021	658.084
307.979	20.507	853.384	657.313
308.993	20.482	852.484	656.467
310.008	20.411	852.564	656.202
311.022	20.494	851.754	655.833
312.037	20.358	851.476	655.047
313.052	20.291	850.909	654.301
314.066	20.202	850.267	653.417
315.081	20.264	848.941	652.573
316.095	20.197	848.675	652.057
317.110	20.153	848.179	651.455
318.125	20.263	847.511	651.295
319.139	20.110	847.102	650.350
320.154	20.188	846.489	650.112
321.168	20.192	846.089	649.763
322.183	20.203	845.564	649.343
323.197	20.052	845.798	648.900
324.212	20.356	844.498	648.982
325.227	20.411	843.466	648.339
326.241	20.208	843.574	647.607
327.256	20.213	843.030	647.147
328.270	20.276	842.379	646.826
329.285	20.265	841.834	646.312
330.300	20.171	841.286	645.482
331.314	20.196	840.601	644.994
332.329	20.367	839.858	644.999
333.343	20.466	839.190	644.798
334.358	20.636	838.880	645.134
335.373	20.446	838.457	644.045
336.387	20.549	838.044	644.054
337.402	20.656	837.426	643.920
338.416	20.678	837.283	643.833
339.431	20.692	836.553	643.268
340.446	20.783	836.221	643.291
341.460	20.979	835.426	643.345
342.475	20.905	835.149	642.801
343.489	21.003	834.621	642.699
344.504	21.167	833.961	642.738
345.519	21.243	833.453	642.571
346.533	21.234	832.740	641.932
347.548	21.193	832.382	641.448
348.562	20.919	831.934	640.039
349.577	20.708	831.469	638.851
350.592	20.684	830.249	637.768
351.606	20.711	829.662	637.359
352.621	20.623	829.355	636.745
353.635	20.673	828.787	636.437
354.650	20.772	828.306	636.372
355.665	20.778	828.175	636.238
356.679	20.860	827.788	636.185
357.694	20.854	827.443	635.841
358.708	20.907	826.821	635.497
359.723	20.954	825.921	634.922
360.738	20.984	825.225	634.439
361.752	20.973	824.865	634.068
362.767	21.038	824.453	633.931
363.781	21.105	824.409	634.082
364.796	21.268	824.142	634.416
365.810	21.194	824.057	634.023
366.825	21.443	823.657	634.565
367.840	21.460	823.188	634.208
368.854	21.450	822.341	633.463
369.869	21.349	821.812	632.632
370.883	21.342	821.176	632.063
371.898	21.182	820.677	631.044
372.913	21.292	820.385	631.161
373.927	21.540	819.495	631.316
374.942	21.291	818.964	629.952
375.956	21.247	818.331	629.253
376.971	21.478	817.371	629.291
377.986	21.605	817.058	629.450
379.000	21.590	816.694	629.061
380.015	21.596	816.500	628.878
381.029	21.715	815.781	628.694
382.044	21.613	815.017	627.684
383.059	21.519	814.083	626.571
384.073	21.665	813.922	626.917
385.088	21.484	813.410	625.817
386.102	21.492	812.698	625.245
387.117	21.290	812.026	623.948
388.132	21.323	811.646	623.722
389.146	21.320	811.101	623.236
390.161	21.313	810.900	623.002
391.175	21.444	810.225	622.893
392.190	21.412	810.531	622.961
393.205	21.486	810.277	622.974
394.219	21.415	809.189	621.829
395.234	21.307	809.040	621.277
396.248	21.467	807.956	620.954
397.263	21.232	807.481	619.705
398.278	21.182	806.701	618.871
399.292	21.203	806.265	618.557
400.307	21.069	806.040	617.855
401.321	21.319	805.320	618.133
402.336	21.174	805.403	617.628
403.350	21.379	805.197	618.142
404.365	21.497	804.308	617.822
405.380	21.523	804.161	617.746
406.394	21.492	803.930	617.403
407.409	21.745	803.671	618.044
408.423	21.708	803.384	617.636
409.438	21.862	802.446	617.402
410.453	21.980	802.429	617.752
411.467	22.033	801.752	617.362
412.482	22.037	801.246	616.932
413.496	22.214	800.887	617.220
414.511	22.276	800.274	616.913
415.526	22.282	800.249	616.861
416.540	22.015	799.613	615.378
417.555	21.907	799.470	614.835
418.569	21.797	798.995	614.032
419.584	21.965	798.238	613.983
420.599	21.986	797.726	613.606
421.613	157.991	1367.504	1787.591
422.628	137.036	1450.550	1787.716
