DTS Sentinel unit serial number:	SN413079Multiplexer serial number:	ORYXHardware model number:	OX4-SRSoftware version number:	ORYX F/W v4.00 Oryx Data Collector v3.7.2.0data status	okinstallation	princeton_trtdifferential loss correction	single-endedforward channel	channel 3reverse channel	N/Adate	2019/09/14time	03:04:35forward acquisition time	60.00reverse acquisition time	0.00gamma	496.2192k internal	0.2339k external	0.2339temperature offset calibration	1.0056default loss term (dB/km)	0.3790temperature slope calibration	1.0000multiplexer offset coefficient	1.0000multiplexer slope coefficient	1.0000fibre end	0.00T internal ref (°C)	26.56T ext. ref 1 (°C)	3.25T ext. ref 2 (°C)	21.67length (m)	temperature (°C)	Stokes	anti-Stokes-747.200	63.882	-0.177	0.179
-746.185	-73.200	0.127	0.047
-745.171	-123.291	-0.312	0.050
-744.156	539.593	0.080	0.191
-743.142	6.470	-0.292	-0.218
-742.127	-90.896	-0.092	0.026
-741.112	-200.000	0.015	0.113
-740.098	195.988	-0.122	0.187
-739.083	-13.534	-0.202	-0.132
-738.069	84.271	-0.170	0.186
-737.054	296.778	-0.024	-0.044
-736.039	-200.000	0.005	-0.116
-735.025	614.264	0.152	0.381
-734.010	105.536	0.187	0.222
-732.996	630.381	-0.093	-0.237
-731.981	359.716	0.080	-0.161
-730.966	-9.859	-0.094	0.062
-729.952	-200.000	0.075	0.331
-728.937	-200.000	0.035	0.325
-727.923	-46.565	-0.057	-0.028
-726.908	193.042	-0.105	-0.158
-725.894	-28.772	0.311	-0.179
-724.879	183.583	-0.053	0.078
-723.864	93.541	-0.152	0.172
-722.850	-181.346	-0.195	0.004
-721.835	-34.044	0.184	-0.102
-720.821	-71.696	-0.138	-0.051
-719.806	-200.000	-0.501	0.000
-718.791	8.907	-0.175	-0.132
-717.777	-114.285	0.185	-0.036
-716.762	-88.052	-0.558	0.168
-715.748	85.773	0.100	-0.110
-714.733	-170.465	0.144	0.005
-713.718	-41.695	0.222	0.114
-712.704	800.000	-0.026	0.077
-711.689	56.096	0.050	-0.048
-710.675	47.739	0.219	-0.205
-709.660	127.470	-0.115	-0.146
-708.645	334.063	-0.123	0.238
-707.631	-200.000	0.085	-0.413
-706.616	-200.000	0.032	-0.246
-705.602	224.291	0.101	-0.163
-704.587	-155.504	-0.232	0.015
-703.572	-28.553	0.054	-0.031
-702.558	318.018	-0.099	-0.188
-701.543	151.816	0.144	-0.197
-700.529	-200.000	-0.021	-0.254
-699.514	800.000	-0.072	0.298
-698.499	291.585	-0.101	-0.184
-697.485	-47.791	-0.187	0.091
-696.470	-137.078	0.346	-0.040
-695.456	-168.403	-0.206	-0.008
-694.441	32.245	0.124	0.108
-693.426	-96.562	-0.139	0.037
-692.412	-99.413	0.187	-0.047
-691.397	800.000	-0.038	0.147
-690.383	49.384	-0.165	0.156
-689.368	156.811	-0.138	0.191
-688.354	-49.020	-0.078	-0.037
-687.339	-19.579	-0.335	-0.208
-686.324	71.667	-0.126	0.131
-685.310	-69.231	0.195	-0.075
-684.295	254.183	0.162	-0.278
-683.281	800.000	0.038	-0.156
-682.266	484.647	0.112	-0.256
-681.251	-200.000	-0.007	-0.090
-680.237	-200.000	-0.006	0.131
-679.222	202.151	0.077	-0.118
-678.208	203.876	0.173	-0.268
-677.193	-200.000	0.008	0.175
-676.178	-87.228	-0.184	-0.056
-675.164	-171.178	-0.287	-0.010
-674.149	800.000	-0.051	0.156
-673.135	-111.055	0.328	0.067
-672.120	28.123	-0.051	-0.043
-671.105	-200.000	0.036	-0.181
-670.091	-114.695	-0.439	-0.084
-669.076	153.662	0.027	0.037
-668.062	-126.203	-0.234	-0.035
-667.047	800.000	0.058	-0.183
-666.032	-11.364	-0.338	-0.223
-665.018	-17.864	-0.117	0.073
-664.003	-109.643	-0.086	0.018
-662.989	239.309	0.097	0.161
-661.974	-81.924	-0.292	0.096
-660.959	-178.521	-0.144	-0.003
-659.945	11.650	-0.197	0.151
-658.930	-107.705	0.314	0.068
-657.916	-124.346	-0.235	-0.037
-656.901	-167.512	0.054	-0.002
-655.886	-200.000	-0.022	0.115
-654.872	4.691	-0.165	0.121
-653.857	2.816	-0.292	-0.211
-652.843	-124.917	0.230	0.035
-651.828	800.000	-0.081	0.313
-650.814	800.000	-0.125	0.467
-649.799	-13.404	-0.219	-0.142
-648.784	800.000	0.066	0.233
-647.770	-70.902	-0.311	0.117
-646.755	-80.493	0.175	-0.058
-645.741	-25.273	-0.165	-0.098
-644.726	-96.746	-0.401	0.106
-643.711	800.000	0.057	-0.163
-642.697	800.000	0.136	0.586
-641.682	-43.939	-0.158	-0.079
-640.668	35.416	0.022	-0.019
-639.653	-79.569	0.148	0.050
-638.638	-200.000	0.019	-0.219
-637.624	241.341	0.150	-0.250
-636.609	800.000	-0.025	0.096
-635.595	800.000	-0.098	0.285
-634.580	-30.336	0.239	-0.136
-633.565	800.000	-0.070	-0.240
-632.551	-200.000	-0.017	0.302
-631.536	167.009	0.203	0.288
-630.522	800.000	-0.071	-0.240
-629.507	-106.482	0.131	-0.029
-628.492	-200.000	-0.010	0.316
-627.478	482.255	0.044	0.100
-626.463	52.182	0.037	0.036
-625.449	333.116	-0.137	0.265
-624.434	-200.000	0.014	0.236
-623.419	-167.226	-0.282	0.011
-622.405	36.221	0.027	-0.024
-621.390	245.483	-0.096	-0.161
-620.376	-108.718	-0.103	0.022
-619.361	-200.000	0.009	-0.065
-618.346	-200.000	0.017	0.323
-617.332	-41.582	-0.052	-0.027
-616.317	-137.165	0.564	0.064
-615.303	-68.247	0.050	-0.020
-614.288	-133.672	-0.266	0.033
-613.273	-200.000	0.039	-0.196
-612.259	-20.815	-0.079	0.048
-611.244	-104.405	0.189	-0.044
-610.230	-53.360	-0.359	-0.164
-609.215	800.000	0.057	0.174
-608.201	374.955	-0.120	0.244
-607.186	-200.000	0.048	-0.259
-606.171	-200.000	-0.008	-0.135
-605.157	637.811	-0.022	-0.056
-604.142	800.000	0.086	-0.251
-603.128	-200.000	-0.021	0.275
-602.113	-101.971	0.252	0.061
-601.098	800.000	-0.060	-0.233
-600.084	-200.000	0.022	0.284
-599.069	-126.391	0.199	-0.030
-598.055	-200.000	-0.012	-0.196
-597.040	767.232	-0.077	0.210
-596.025	-200.000	0.033	0.147
-595.011	800.000	0.035	-0.126
-593.996	-28.893	-0.219	0.126
-592.982	-117.698	-0.136	0.024
-591.967	-100.166	-0.225	-0.056
-590.952	286.579	-0.100	0.180
-589.938	622.884	0.077	-0.193
-588.923	136.215	-0.078	0.102
-587.909	84.357	-0.048	0.052
-586.894	-94.047	-0.450	-0.123
-585.879	85.285	0.175	0.191
-584.865	-120.864	-0.133	0.022
-583.850	-123.317	-0.216	0.034
-582.836	800.000	-0.095	-0.388
-581.821	-95.852	-0.115	-0.031
-580.806	-149.828	-0.150	0.012
-579.792	72.143	0.278	0.289
-578.777	93.071	-0.218	-0.246
-577.763	-173.067	-0.287	-0.009
-576.748	-16.999	0.373	0.235
-575.733	-122.700	0.056	-0.009
-574.719	87.501	-0.246	-0.272
-573.704	-200.000	-0.004	-0.259
-572.690	-69.505	-0.237	0.090
-571.675	39.375	0.225	-0.201
-570.661	-200.000	-0.050	0.290
-569.646	-169.460	-0.124	-0.005
-568.631	-29.656	0.370	0.211
-567.617	59.208	0.187	-0.184
-566.602	-130.619	0.087	0.012
-565.588	-42.787	-0.218	0.110
-564.573	112.280	0.093	0.112
-563.558	-200.000	-0.022	0.114
-562.544	318.217	-0.071	-0.134
-561.529	-126.003	-0.491	0.073
-560.515	-24.957	0.272	0.161
-559.500	37.958	-0.264	0.234
-558.485	-68.262	0.290	0.112
-557.471	-110.172	-0.227	0.047
-556.456	61.952	-0.057	-0.056
-555.442	-200.000	-0.032	0.160
-554.427	-13.333	-0.091	-0.059
-553.412	-153.403	0.211	-0.015
-552.398	150.721	-0.141	-0.191
-551.383	280.944	-0.071	0.127
-550.369	154.487	0.212	0.290
-549.354	211.860	0.211	0.332
-548.339	800.000	-0.087	0.302
-547.325	800.000	0.166	-0.481
-546.310	125.671	-0.143	-0.180
-545.296	800.000	0.038	-0.116
-544.281	-119.161	-0.153	-0.027
-543.266	18.373	-0.397	-0.316
-542.252	-200.000	0.007	0.047
-541.237	104.948	0.107	0.125
-540.223	382.292	0.058	-0.120
-539.208	800.000	0.024	-0.092
-538.193	87.926	0.125	-0.138
-537.179	-42.471	0.134	-0.068
-536.164	61.024	0.109	0.108
-535.150	452.879	-0.138	0.303
-534.135	-200.000	0.000	0.105
-533.121	-72.418	-0.411	-0.151
-532.106	-111.919	-0.071	0.014
-531.091	-200.000	-0.068	0.435
-530.077	33.220	-0.279	-0.241
-529.062	-5.628	0.178	0.122
-528.048	47.595	-0.166	0.154
-527.033	-77.481	0.121	-0.042
-526.018	-145.781	0.276	-0.024
-525.004	-200.000	-0.017	-0.208
-523.989	-200.000	0.029	0.489
-522.975	-200.000	-0.015	0.106
-521.960	142.258	0.164	0.217
-520.945	-113.724	-0.321	0.062
-519.931	669.427	-0.072	-0.185
-518.916	130.640	-0.069	-0.087
-517.902	120.626	-0.117	-0.145
-516.887	-133.594	0.106	0.013
-515.872	115.774	0.150	0.183
-514.858	-64.784	0.201	0.081
-513.843	800.000	-0.091	-0.268
-512.829	-45.616	0.146	-0.072
-511.814	-200.000	0.013	0.068
-510.799	-200.000	-0.028	-0.181
-509.785	-152.269	-0.258	-0.019
-508.770	50.193	0.344	0.323
-507.756	7.783	-0.142	0.105
-506.741	800.000	0.016	0.052
-505.726	168.183	0.217	0.307
-504.712	9.162	0.239	-0.179
-503.697	-200.000	0.016	-0.133
-502.683	800.000	-0.015	-0.042
-501.668	43.200	-0.279	-0.253
-500.653	800.000	0.020	0.079
-499.639	-92.037	0.098	-0.027
-498.624	-63.012	0.082	-0.034
-497.610	-200.000	0.054	-0.262
-496.595	-13.417	0.315	0.203
-495.581	-189.549	-0.232	-0.003
-494.566	-79.259	0.232	0.078
-493.551	800.000	0.038	0.150
-492.537	24.589	0.237	-0.195
-491.522	-182.300	-0.241	0.004
-490.508	-181.980	0.193	0.004
-489.493	635.356	-0.190	0.479
-488.478	-170.346	0.313	0.011
-487.464	-200.000	0.004	0.044
-486.449	729.626	0.046	-0.123
-485.435	-30.506	0.375	-0.211
-484.420	-150.201	-0.383	-0.029
-483.405	-109.831	0.333	-0.069
-482.391	-200.000	0.003	-0.076
-481.376	-200.000	-0.014	0.143
-480.362	-200.000	-0.026	-0.298
-479.347	-108.318	-0.170	-0.036
-478.332	212.038	0.114	0.179
-477.318	-55.819	0.166	0.073
-476.303	-26.350	0.027	0.016
-475.289	800.000	0.102	-0.353
-474.274	432.449	-0.053	-0.114
-473.259	-200.000	-0.016	-0.085
-472.245	197.888	0.191	-0.290
-471.230	504.859	-0.098	0.224
-470.216	-200.000	-0.009	-0.257
-469.201	-120.730	-0.121	0.020
-468.186	-200.000	-0.036	0.188
-467.172	-200.000	0.049	-0.236
-466.157	228.615	-0.062	-0.101
-465.143	-200.000	0.004	-0.031
-464.128	19.835	0.077	0.061
-463.113	779.825	-0.059	0.161
-462.099	128.430	0.041	0.052
-461.084	193.926	0.139	0.209
-460.070	57.891	-0.122	-0.118
-459.055	-200.000	-0.025	0.121
-458.040	57.258	0.345	-0.334
-457.026	19.083	-0.191	-0.152
-456.011	-158.444	0.461	-0.026
-454.997	89.559	0.150	0.166
-453.982	-106.063	0.268	0.060
-452.968	458.413	-0.043	0.096
-451.953	-28.577	-0.064	-0.037
-450.938	-200.000	0.021	-0.093
-449.924	-200.000	0.080	0.491
-448.909	664.036	-0.004	0.011
-447.895	800.000	0.041	-0.159
-446.880	800.000	-0.022	0.073
-445.865	-36.995	-0.240	-0.128
-444.851	534.264	-0.081	-0.190
-443.836	-200.000	0.030	-0.237
-442.822	24.056	-0.319	-0.261
-441.807	800.000	0.039	0.113
-440.792	177.093	0.162	-0.234
-439.778	579.220	-0.111	0.269
-438.763	-200.000	0.040	-0.318
-437.749	-109.174	0.121	-0.026
-436.734	351.237	-0.104	-0.204
-435.719	62.845	0.073	0.073
-434.705	-200.000	-0.069	0.317
-433.690	-39.850	-0.078	-0.040
-432.676	-200.000	-0.040	0.250
-431.661	61.769	0.059	-0.058
-430.646	800.000	-0.112	0.307
-429.632	-164.565	-0.163	-0.007
-428.617	178.899	-0.089	0.129
-427.603	-139.251	-0.102	-0.011
-426.588	54.258	0.234	-0.223
-425.573	31.655	0.190	-0.162
-424.559	-51.384	0.067	0.031
-423.544	220.593	-0.207	-0.329
-422.530	-10.526	0.225	-0.147
-421.515	-29.433	-0.376	0.213
-420.500	83.667	0.260	-0.281
-419.486	-10.370	0.304	-0.200
-418.471	66.176	-0.084	-0.085
-417.457	-167.917	0.292	0.011
-416.442	364.318	0.063	0.125
-415.428	298.851	-0.103	-0.188
-414.413	181.962	-0.065	-0.095
-413.398	-19.039	-0.115	0.071
-412.384	-200.000	0.016	-0.334
-411.369	74.569	-0.090	-0.094
-410.355	800.000	0.091	-0.251
-409.340	-95.503	0.113	0.030
-408.325	-64.147	0.090	0.036
-407.311	285.036	-0.138	-0.245
-406.296	486.255	0.084	-0.189
-405.282	-109.898	-0.520	-0.108
-404.267	-198.292	0.284	0.002
-403.252	63.668	0.104	-0.104
-402.238	40.850	-0.144	0.129
-401.223	800.000	0.045	0.128
-400.209	-200.000	-0.031	0.372
-399.194	240.175	-0.166	0.274
-398.179	-32.692	-0.199	0.110
-397.165	-200.000	-0.008	-0.087
-396.150	-121.145	0.256	-0.042
-395.136	-103.963	-0.444	-0.103
-394.121	189.830	0.078	-0.115
-393.106	227.168	-0.101	-0.162
-392.092	-9.872	0.150	-0.099
-391.077	-200.000	0.026	-0.136
-390.063	75.254	-0.034	0.036
-389.048	56.240	0.126	0.121
-388.033	-44.449	0.303	0.150
-387.019	-200.000	-0.005	0.089
-386.004	-131.447	0.106	-0.014
-384.990	-85.805	-0.097	0.030
-383.975	-5.753	-0.323	-0.219
-382.960	-132.122	0.438	0.056
-381.946	38.878	0.257	-0.227
-380.931	324.565	0.128	0.242
-379.917	185.029	0.073	0.107
-378.902	-156.574	-0.359	0.022
-377.888	226.754	-0.071	-0.114
-376.873	102.425	0.146	-0.169
-375.858	107.875	0.020	0.023
-374.844	-200.000	-0.018	0.146
-373.829	462.640	-0.063	-0.139
-372.815	-200.000	0.007	0.281
-371.800	267.926	0.071	-0.122
-370.785	397.378	-0.164	-0.339
-369.771	-73.278	0.135	0.049
-368.756	-14.487	0.143	0.091
-367.742	-200.000	0.019	-0.086
-366.727	72.115	0.214	0.220
-365.712	443.065	-0.046	0.099
-364.698	-200.000	0.056	0.437
-363.683	-76.655	0.108	-0.038
-362.669	-44.813	0.099	0.049
-361.654	29.932	-0.167	-0.141
-360.639	144.251	0.320	0.423
-359.625	58.937	0.273	-0.265
-358.610	81.738	0.183	0.196
-357.596	-119.685	-0.116	0.020
-356.581	213.415	-0.096	-0.151
-355.566	-30.451	0.118	0.066
-354.552	800.000	-0.046	0.193
-353.537	38.120	0.168	0.148
-352.523	800.000	0.054	-0.225
-351.508	-130.685	-0.108	-0.014
-350.493	151.727	-0.104	-0.140
-349.479	-200.000	0.017	-0.235
-348.464	55.481	0.095	0.091
-347.450	800.000	-0.044	0.130
-346.435	16.921	-0.323	-0.253
-345.420	-17.444	0.070	-0.044
-344.406	165.124	0.127	-0.177
-343.391	-49.931	0.408	-0.191
-342.377	3.462	0.166	0.119
-341.362	212.746	0.008	0.013
-340.348	-57.671	0.181	0.078
-339.333	190.560	0.075	0.111
-338.318	-69.238	-0.071	0.027
-337.304	-95.598	0.236	0.062
-336.289	-78.662	-0.478	0.161
-335.275	-200.000	0.017	-0.252
-334.260	-18.190	0.117	0.072
-333.245	-200.000	-0.008	0.203
-332.231	800.000	0.115	0.337
-331.216	-13.183	0.350	-0.225
-330.202	800.000	-0.083	-0.240
-329.187	33.794	0.149	0.128
-328.172	800.000	0.049	0.210
-327.158	66.669	-0.115	-0.115
-326.143	302.743	-0.089	0.163
-325.129	-116.229	-0.171	-0.031
-324.114	-111.166	-0.201	-0.041
-323.099	-200.000	-0.002	0.153
-322.085	124.477	0.350	-0.434
-321.070	243.374	-0.261	0.432
-320.056	-0.496	-0.212	0.148
-319.041	291.674	0.144	-0.258
-318.026	17.042	-0.123	-0.096
-317.012	-166.904	-0.135	0.005
-315.997	57.893	0.220	0.212
-314.983	-45.006	-0.090	-0.044
-313.968	41.139	-0.071	0.063
-312.953	7.562	-0.158	0.117
-311.939	93.005	0.059	0.066
-310.924	-136.568	-0.152	0.017
-309.910	98.117	-0.208	-0.236
-308.895	249.234	0.059	-0.099
-307.880	-200.000	-0.021	0.175
-306.866	-200.000	0.026	-0.199
-305.851	57.182	0.278	-0.267
-304.837	117.433	-0.056	0.069
-303.822	-142.267	-0.200	0.020
-302.807	-173.018	-0.107	0.003
-301.793	-96.017	0.179	0.047
-300.778	517.527	0.076	0.176
-299.764	-116.311	0.469	0.086
-298.749	-22.872	-0.060	-0.036
-297.735	-200.000	-0.016	0.141
-296.720	-200.000	0.020	0.092
-295.705	-7.223	-0.049	-0.033
-294.691	-96.631	-0.066	-0.017
-293.676	-140.875	-0.023	0.002
-292.662	-147.764	0.180	-0.015
-291.647	-106.892	0.069	-0.015
-290.632	-85.055	0.123	0.038
-289.618	-86.994	0.193	0.058
-288.603	-91.822	0.245	-0.069
-287.589	-192.223	-0.213	-0.002
-286.574	85.391	0.125	-0.135
-285.559	-13.258	-0.062	0.040
-284.545	66.411	0.104	0.104
-283.530	248.627	-0.162	0.270
-282.516	-77.256	0.177	-0.061
-281.501	307.973	0.039	0.072
-280.486	-200.000	0.020	0.110
-279.472	-200.000	0.008	-0.346
-278.457	18.024	-0.508	0.399
-277.443	-200.000	-0.020	0.316
-276.428	406.969	-0.055	0.115
-275.413	-200.000	-0.066	-0.305
-274.399	92.445	0.141	0.156
-273.384	159.280	-0.100	-0.137
-272.370	-10.455	-0.252	0.165
-271.355	800.000	-0.044	0.161
-270.340	-130.108	0.190	-0.026
-269.326	319.315	-0.071	-0.132
-268.311	-57.635	0.134	0.058
-267.297	800.000	0.034	-0.132
-266.282	800.000	-0.083	0.291
-265.267	45.142	-0.141	-0.128
-264.253	-41.396	-0.022	0.011
-263.238	-200.000	-0.006	-0.334
-262.224	8.749	0.152	-0.113
-261.209	-144.261	-0.088	0.008
-260.195	-147.926	0.181	0.015
-259.180	-200.000	0.037	-0.370
-258.165	-122.495	0.134	-0.022
-257.151	800.000	0.093	0.377
-256.136	209.989	-0.243	-0.375
-255.122	-200.000	-0.004	-0.227
-254.107	-134.000	0.157	0.019
-253.092	-117.248	0.243	-0.043
-252.078	73.309	0.090	-0.093
-251.063	-70.380	0.092	-0.034
-250.049	202.154	-0.077	-0.116
-249.034	-200.000	-0.006	-0.140
-248.019	29.559	0.149	0.125
-247.005	-31.288	-0.008	-0.004
-245.990	-200.000	0.011	-0.544
-244.976	198.240	-0.099	-0.149
-243.961	174.173	-0.070	0.099
-242.946	-152.037	-0.434	0.031
-241.932	-152.025	-0.393	0.028
-240.917	-53.402	0.117	-0.053
-239.903	71.175	-0.172	0.175
-238.888	-30.114	-0.415	-0.232
-237.873	-200.000	0.050	0.274
-236.859	25.631	-0.133	-0.109
-235.844	24.050	0.180	0.146
-234.830	21.539	0.200	-0.160
-233.815	800.000	0.086	0.326
-232.800	156.506	0.065	0.089
-231.786	105.817	-0.342	0.398
-230.771	138.571	-0.161	0.208
-229.757	231.783	0.108	0.174
-228.742	283.655	0.186	0.328
-227.727	-137.968	-0.354	0.039
-226.713	374.947	0.108	0.217
-225.698	-140.967	0.360	0.036
-224.684	-101.750	0.134	-0.032
-223.669	-200.000	0.035	0.378
-222.655	126.046	-0.107	0.132
-221.640	-87.526	-0.453	-0.135
-220.625	-109.823	0.319	-0.066
-219.611	-120.589	0.173	-0.029
-218.596	-36.765	-0.122	-0.064
-217.582	10.614	-0.218	-0.163
-216.567	-200.000	-0.025	-0.158
-215.552	-200.000	0.017	-0.264
-214.538	800.000	0.102	-0.431
-213.523	-116.209	0.112	-0.020
-212.509	335.990	0.043	-0.081
-211.494	-200.000	0.018	0.138
-210.479	-97.951	-0.192	0.049
-209.465	66.497	0.231	-0.231
-208.450	428.594	0.066	-0.139
-207.436	-68.569	-0.231	0.088
-206.421	308.646	-0.149	0.273
-205.406	55.374	0.171	0.162
-204.392	800.000	-0.042	0.153
-203.377	-200.000	0.004	0.226
-202.363	792.986	0.015	0.040
-201.348	-200.000	0.007	0.095
-200.333	-40.595	-0.303	-0.154
-199.319	77.991	-0.204	0.214
-198.304	323.459	0.047	-0.087
-197.290	-200.000	-0.014	-0.110
-196.275	-114.295	-0.051	0.010
-195.260	98.859	0.143	0.162
-194.246	-90.951	-0.259	-0.073
-193.231	-73.476	0.161	0.058
-192.217	33.343	0.143	0.122
-191.202	169.965	-0.103	-0.144
-190.187	22.673	0.029	-0.023
-189.173	-200.000	0.065	-0.320
-188.158	800.000	0.178	-0.536
-187.144	-55.932	-0.105	-0.046
-186.129	719.933	-0.127	-0.331
-185.114	-200.000	-0.040	-0.190
-184.100	12.278	-0.058	0.044
-183.085	132.944	-0.007	0.009
-182.071	445.629	0.097	0.210
-181.056	301.139	-0.139	0.252
-180.042	34.697	-0.067	-0.057
-179.027	454.958	-0.059	-0.128
-178.012	-92.091	0.261	-0.072
-176.998	265.356	-0.141	-0.241
-175.983	-78.372	-0.110	-0.037
-174.969	124.296	-0.189	0.234
-173.954	-40.638	-0.167	-0.085
-172.939	-139.764	0.174	0.018
-171.925	-98.547	-0.085	-0.021
-170.910	-200.000	0.072	-0.372
-169.896	-55.645	0.122	-0.054
-168.881	381.722	0.152	-0.307
-167.866	800.000	-0.043	-0.121
-166.852	87.896	0.065	-0.070
-165.837	79.100	-0.153	0.161
-164.823	-200.000	-0.006	0.117
-163.808	239.877	0.067	-0.109
-162.793	800.000	-0.027	0.087
-161.779	-4.144	-0.338	-0.229
-160.764	800.000	-0.053	-0.217
-159.750	-69.926	0.055	0.021
-158.735	-77.581	-0.265	-0.090
-157.720	-99.976	0.094	0.023
-156.706	-200.000	-0.040	0.199
-155.691	-94.310	-0.182	0.049
-154.677	-103.495	0.236	-0.054
-153.662	396.204	0.119	0.243
-152.647	51.667	-0.229	0.214
-151.633	800.000	-0.024	0.100
-150.618	-200.000	-0.040	0.195
-149.604	-77.395	-0.363	-0.123
-148.589	567.507	-0.138	0.328
-147.574	781.783	0.077	-0.206
-146.560	-200.000	-0.043	0.193
-145.545	142.707	-0.081	-0.105
-144.531	-95.443	-0.125	-0.033
-143.516	-153.087	0.307	0.021
-142.502	521.725	0.085	-0.194
-141.487	338.950	-0.096	0.183
-140.472	-30.446	-0.108	-0.060
-139.458	-200.000	-0.064	0.274
-138.443	77.749	-0.150	0.156
-137.429	800.000	0.094	-0.359
-136.414	-90.015	-0.431	0.123
-135.399	-185.799	0.207	-0.003
-134.385	-30.204	0.210	0.117
-133.370	172.440	0.036	0.051
-132.356	800.000	-0.026	-0.087
-131.341	-200.000	0.009	-0.049
-130.326	40.105	-0.296	0.261
-129.312	362.339	-0.095	-0.187
-128.297	1.034	-0.147	0.103
-127.283	800.000	0.046	0.194
-126.268	-200.000	-0.088	-0.442
-125.253	-152.090	0.291	0.021
-124.239	-48.054	0.128	-0.060
-123.224	-200.000	0.007	0.064
-122.210	138.058	0.171	-0.219
-121.195	-45.729	-0.094	0.045
-120.180	-69.987	-0.145	0.054
-119.166	-200.000	0.002	0.110
-118.151	-15.026	0.111	-0.069
-117.137	67.575	0.098	-0.098
-116.122	207.617	-0.243	0.371
-115.107	-120.785	0.098	-0.016
-114.093	-200.000	-0.008	0.093
-113.078	-165.832	-0.305	0.013
-112.064	-200.000	-0.009	-0.073
-111.049	31.014	-0.119	-0.100
-110.034	217.138	0.077	0.120
-109.020	612.804	-0.120	0.294
-108.005	51.353	-0.140	0.130
-106.991	-200.000	-0.083	0.535
-105.976	-61.584	0.243	-0.100
-104.962	73.167	0.199	-0.203
-103.947	-69.861	-0.232	-0.086
-102.932	800.000	-0.075	-0.211
-101.918	145.954	-0.273	-0.358
-100.903	-72.564	0.309	-0.111
-99.889	105.568	-0.151	-0.175
-98.874	92.051	0.204	-0.225
-97.859	-64.699	-0.097	-0.039
-96.845	-105.454	0.178	-0.040
-95.830	-47.740	0.141	-0.067
-94.816	-0.495	0.189	-0.131
-93.801	323.251	-0.096	-0.179
-92.786	-129.377	0.201	0.027
-91.772	-68.176	-0.113	-0.043
-90.757	-60.665	0.219	0.091
-89.743	56.945	-0.267	0.255
-88.728	-200.000	0.031	0.235
-87.713	134.281	-0.203	0.257
-86.699	-82.176	0.189	0.060
-85.684	-0.617	0.246	-0.171
-84.670	-200.000	-0.005	-0.133
-83.655	94.355	0.149	-0.166
-82.640	-109.169	0.107	0.022
-81.626	-200.000	0.042	0.236
-80.611	-123.822	0.475	0.073
-79.597	-8.031	0.124	0.081
-78.582	-68.166	-0.116	0.044
-77.567	60.397	-0.086	0.083
-76.553	-51.588	-0.139	0.063
-75.538	438.221	0.059	0.127
-74.524	-112.054	-0.096	0.019
-73.509	340.010	-0.071	-0.135
-72.494	-200.000	-0.025	-0.183
-71.480	-200.000	-0.055	0.253
-70.465	-2.125	-0.093	-0.064
-69.451	-11.424	-0.070	-0.045
-68.436	164.949	-0.101	-0.140
-67.422	800.000	0.032	-0.117
-66.407	154.484	-0.045	0.060
-65.392	-16.022	-0.155	-0.096
-64.378	-18.952	0.202	-0.123
-63.363	49.889	-0.173	-0.159
-62.349	-75.832	-0.279	0.097
-61.334	245.213	-0.808	-1.328
-60.319	24.736	0.529	0.428
-59.305	226.770	-0.589	-0.935
-58.290	442.330	0.632	1.352
-57.276	800.000	0.395	1.374
-56.261	-200.000	116.010	648.906
-55.246	512.727	1537.541	3498.698
-54.232	176.187	2710.207	3843.093
-53.217	105.833	2178.135	2516.005
-52.203	37.212	1695.745	1466.368
-51.188	29.610	1510.656	1254.861
-50.173	27.401	1485.920	1219.485
-49.159	50.528	1545.568	1427.204
-48.144	49.042	1560.040	1430.361
-47.130	29.839	1515.589	1260.322
-46.115	26.782	1500.695	1227.233
-45.100	26.616	1497.112	1223.131
-44.086	26.661	1494.809	1221.503
-43.071	26.563	1493.087	1219.385
-42.057	26.458	1492.012	1217.753
-41.042	26.532	1490.270	1216.785
-40.027	26.582	1488.479	1215.608
-39.013	26.657	1487.076	1214.916
-37.998	26.511	1486.235	1213.203
-36.984	26.464	1485.369	1212.134
-35.969	26.558	1483.949	1211.558
-34.954	26.482	1482.502	1209.817
-33.940	26.455	1481.331	1208.635
-32.925	26.483	1479.667	1207.416
-31.911	26.572	1477.922	1206.538
-30.896	26.611	1476.613	1205.681
-29.881	26.604	1475.649	1204.794
-28.867	26.638	1474.432	1203.984
-27.852	26.617	1473.317	1202.886
-26.838	26.639	1472.352	1202.197
-25.823	26.627	1470.447	1200.511
-24.809	26.641	1469.088	1199.448
-23.794	26.691	1467.048	1198.061
-22.779	26.566	1466.182	1196.481
-21.765	26.563	1465.167	1195.590
-20.750	26.576	1464.427	1195.023
-19.736	26.652	1462.720	1194.081
-18.721	26.663	1461.358	1192.999
-17.706	26.717	1460.346	1192.477
-16.692	26.562	1459.387	1190.628
-15.677	26.520	1458.892	1189.903
-14.663	26.535	1457.806	1189.069
-13.648	26.433	1457.048	1187.729
-12.633	26.494	1456.034	1187.260
-11.619	26.501	1455.341	1186.693
-10.604	26.559	1454.205	1186.095
-9.590	26.570	1453.149	1185.259
-8.575	26.618	1451.853	1184.471
-7.560	26.520	1451.482	1183.480
-6.546	26.534	1451.013	1183.144
-5.531	26.511	1449.560	1181.760
-4.517	26.548	1448.882	1181.402
-3.502	26.508	1448.228	1180.560
-2.487	26.526	1447.134	1179.743
-1.473	26.521	1445.878	1178.636
-0.458	26.586	1444.342	1177.763
0.556	26.854	1434.528	1166.713
1.571	23.845	1409.922	1127.545
2.586	20.514	1348.871	1058.378
3.600	18.933	1266.210	984.384
4.615	17.764	1222.274	943.678
5.629	15.217	1166.016	886.704
6.644	8.782	1084.409	792.815
7.659	3.890	1048.624	743.127
8.673	3.235	1043.396	736.221
9.688	3.328	1039.908	734.139
10.702	3.114	1038.868	732.324
11.717	3.334	1036.446	731.593
12.731	4.990	1037.406	740.072
13.746	11.558	1046.883	778.145
14.761	17.762	1054.682	813.556
15.775	19.550	1056.095	823.108
16.790	19.217	1054.671	820.338
17.804	18.147	1052.717	813.655
18.819	17.333	1050.993	808.383
19.834	16.932	1049.496	805.256
20.848	16.545	1049.388	803.265
21.863	16.700	1047.572	802.541
22.877	16.412	1047.033	800.692
23.892	16.217	1046.611	799.373
24.907	16.109	1045.874	798.228
25.921	16.088	1045.349	797.660
26.936	16.175	1044.363	797.245
27.950	16.144	1043.590	796.440
28.965	16.195	1041.908	795.325
29.980	16.208	1040.870	794.525
30.994	16.264	1040.063	794.100
32.009	16.523	1038.934	794.386
33.023	16.517	1038.906	794.264
34.038	16.445	1037.655	792.902
35.053	16.421	1036.518	791.850
36.067	16.303	1035.180	790.204
37.082	16.205	1034.510	789.169
38.096	16.244	1033.935	788.839
39.111	16.309	1033.227	788.536
40.126	16.480	1032.553	788.750
41.140	16.273	1031.401	786.832
42.155	16.211	1030.348	785.672
43.169	15.863	1029.198	783.107
44.184	15.880	1028.179	782.340
45.199	16.039	1026.701	781.883
46.213	15.989	1026.156	781.170
47.228	16.085	1025.095	780.735
48.242	16.118	1024.543	780.399
49.257	16.290	1023.690	780.474
50.271	16.103	1022.787	778.855
51.286	16.202	1021.704	778.421
52.301	16.436	1020.813	778.751
53.315	16.188	1020.547	777.334
54.330	16.335	1019.324	777.010
55.344	16.122	1018.711	775.493
56.359	16.105	1017.128	774.145
57.374	16.149	1015.943	773.376
58.388	15.967	1015.776	772.346
59.403	16.078	1014.309	771.670
60.417	15.977	1013.873	770.809
61.432	15.811	1013.355	769.586
62.447	15.959	1012.370	769.448
63.461	15.841	1011.680	768.313
64.476	15.820	1010.718	767.422
65.490	15.809	1009.937	766.710
66.505	15.793	1009.128	765.956
67.520	15.855	1008.583	765.754
68.534	15.966	1007.574	765.427
69.549	15.954	1006.930	764.815
70.563	15.858	1006.210	763.763
71.578	15.919	1005.688	763.579
72.593	15.762	1004.260	761.713
73.607	15.593	1004.092	760.756
74.622	15.723	1002.642	760.178
75.636	15.725	1001.680	759.390
76.651	15.769	1000.518	758.639
77.666	15.708	1000.391	758.201
78.680	15.705	999.600	757.522
79.695	15.752	998.879	757.117
80.709	15.844	998.385	757.090
81.724	15.873	997.767	756.684
82.739	15.980	996.760	756.334
83.753	15.864	996.548	755.587
84.768	16.258	995.155	756.231
85.782	16.325	994.912	756.279
86.797	16.519	994.348	756.652
87.812	16.313	993.805	755.249
88.826	16.401	992.179	754.340
89.841	16.153	992.048	753.068
90.855	16.271	990.665	752.478
91.870	16.434	990.258	752.827
92.884	16.425	989.514	752.155
93.899	16.479	988.975	751.918
94.914	16.386	988.137	750.800
95.928	16.432	987.159	750.195
96.943	16.479	986.426	749.779
97.957	16.519	985.284	749.025
98.972	16.354	984.717	747.797
99.987	16.439	984.049	747.599
101.001	16.370	983.497	746.810
102.016	16.416	982.566	746.240
103.030	16.424	981.601	745.474
104.045	16.428	980.559	744.637
105.060	16.522	979.852	744.446
106.074	16.346	978.800	742.808
107.089	16.070	978.078	740.982
108.103	15.907	977.088	739.448
109.118	15.921	976.074	738.678
110.133	15.864	975.244	737.735
111.147	15.838	974.345	736.876
112.162	15.856	973.546	736.284
113.176	16.128	972.433	736.566
114.191	16.224	972.017	736.604
115.206	16.188	971.163	735.737
116.220	16.057	970.598	734.672
117.235	16.018	969.722	733.772
118.249	16.042	968.695	733.035
119.264	15.928	968.014	731.958
120.279	15.909	967.247	731.233
121.293	15.892	966.184	730.289
122.308	15.808	965.830	729.594
123.322	15.765	964.689	728.480
124.337	15.804	963.847	727.951
125.352	15.777	962.579	726.811
126.366	16.033	960.939	726.613
127.381	15.738	960.484	724.934
128.395	15.612	959.392	723.500
129.410	16.001	958.003	724.064
130.424	15.880	957.563	723.147
131.439	15.929	956.921	722.809
132.454	15.872	956.374	722.085
133.468	16.056	955.538	722.181
134.483	16.017	955.107	721.625
135.497	16.011	953.943	720.653
136.512	16.127	953.342	720.633
137.527	16.085	952.923	720.074
138.541	16.067	951.966	719.207
139.556	16.061	950.949	718.350
140.570	16.099	950.222	717.902
141.585	16.286	949.573	718.142
142.600	16.312	948.983	717.741
143.614	16.321	948.747	717.538
144.629	16.617	947.286	717.628
145.643	16.534	946.879	716.902
146.658	16.511	946.089	716.144
147.673	16.362	945.040	714.657
148.687	16.298	944.264	713.736
149.702	16.119	943.359	712.230
150.716	16.147	942.367	711.540
151.731	16.055	941.818	710.671
152.746	16.179	940.942	710.471
153.760	16.132	940.569	709.930
154.775	16.148	939.752	709.315
155.789	16.303	938.791	709.178
156.804	16.204	938.257	708.297
157.819	16.264	937.693	708.059
158.833	16.370	936.624	707.635
159.848	16.495	936.092	707.694
160.862	16.488	935.764	707.354
161.877	16.588	934.720	706.922
162.892	16.513	933.451	705.586
163.906	16.342	932.520	704.105
164.921	16.236	931.866	703.109
165.935	16.072	931.173	701.839
166.950	16.227	930.194	701.685
167.964	16.362	928.864	701.182
168.979	16.323	928.353	700.569
169.994	16.289	927.184	699.487
171.008	16.302	925.892	698.502
172.023	16.445	925.402	698.664
173.037	16.462	925.041	698.400
174.052	16.574	924.344	698.273
175.067	16.592	923.358	697.540
176.081	16.319	922.735	695.881
177.096	16.309	921.538	694.876
178.110	16.275	920.955	694.235
179.125	16.263	919.853	693.295
180.140	16.260	919.379	692.864
181.154	16.401	918.746	692.903
182.169	16.590	918.067	693.106
183.183	16.558	917.905	692.792
184.198	16.659	917.305	692.690
185.213	16.562	916.791	691.845
186.227	16.634	915.813	691.337
187.242	16.645	915.546	691.119
188.256	16.675	914.507	690.396
189.271	16.774	913.721	690.146
190.286	16.788	913.357	689.868
191.300	16.625	912.533	688.521
192.315	16.305	911.570	686.432
193.329	16.080	911.018	685.043
194.344	16.247	909.867	684.793
195.359	16.173	910.028	684.552
196.373	16.422	909.147	684.839
197.388	16.553	908.669	684.949
198.402	16.705	908.128	685.096
199.417	16.908	908.066	685.809
200.432	16.821	907.898	685.273
201.446	16.959	907.146	685.199
202.461	17.091	906.454	685.151
203.475	16.998	906.209	684.529
204.490	17.217	905.346	684.699
205.504	16.895	904.476	682.682
206.519	16.991	903.386	682.188
207.534	16.824	902.769	680.990
208.548	16.790	901.928	680.158
209.563	16.728	901.412	679.460
210.577	16.836	900.271	678.975
211.592	16.775	900.277	678.674
212.607	17.002	899.531	678.959
213.621	17.039	899.384	678.934
214.636	17.082	898.302	678.230
215.650	17.023	897.742	677.514
216.665	17.055	897.384	677.311
217.680	17.109	896.665	676.923
218.694	17.236	896.478	677.227
219.709	17.259	895.777	676.731
220.723	17.193	895.255	676.014
221.738	17.106	894.455	675.002
222.753	17.195	893.594	674.647
223.767	17.112	893.076	673.865
224.782	17.167	892.267	673.417
225.796	17.209	891.601	673.020
226.811	17.233	890.976	672.584
227.826	17.227	890.504	672.145
228.840	17.131	889.812	671.180
229.855	17.011	889.555	670.453
230.869	17.239	888.361	670.393
231.884	17.233	887.447	669.622
232.899	17.096	886.675	668.442
233.913	17.070	886.548	668.183
234.928	17.101	885.646	667.569
235.942	16.950	885.167	666.555
236.957	16.986	884.212	665.916
237.972	16.894	883.566	665.012
238.986	17.019	882.749	664.826
240.001	17.014	881.881	664.095
241.015	16.999	881.650	663.803
242.030	16.980	880.973	663.161
243.045	17.161	880.291	663.296
244.059	17.120	880.170	662.985
245.074	17.317	879.161	662.936
246.088	17.248	878.537	662.137
247.103	17.297	878.039	661.894
248.117	17.272	877.475	661.312
249.132	17.546	876.713	661.746
250.147	17.714	876.130	661.899
251.161	17.881	875.788	662.229
252.176	17.760	875.390	661.400
253.190	17.825	874.759	661.118
254.205	17.833	874.278	660.725
255.220	18.036	873.700	661.015
256.234	17.927	873.116	660.095
257.249	17.954	872.209	659.455
258.263	17.878	872.002	658.945
259.278	17.934	871.098	658.422
260.293	17.998	870.497	658.154
261.307	18.048	870.063	657.961
262.322	18.039	869.579	657.502
263.336	18.002	869.087	656.928
264.351	17.968	868.217	656.084
265.366	18.058	868.090	656.277
266.380	18.002	867.440	655.509
267.395	18.106	866.796	655.364
268.409	17.964	866.089	654.229
269.424	17.867	865.425	653.298
270.439	17.906	864.487	652.682
271.453	17.869	863.996	652.110
272.468	17.903	863.043	651.462
273.482	18.010	862.091	651.097
274.497	17.953	861.627	650.471
275.512	17.842	861.590	649.961
276.526	18.042	860.172	649.594
277.541	17.903	859.953	648.844
278.555	17.937	859.298	648.422
279.570	18.034	858.931	648.457
280.585	18.095	858.754	648.495
281.599	18.293	857.718	648.408
282.614	18.190	856.987	647.407
283.628	18.086	856.392	646.505
284.643	18.088	855.738	645.964
285.657	17.964	855.130	644.980
286.672	18.140	854.621	645.203
287.687	18.144	854.040	644.721
288.701	18.125	853.943	644.520
289.716	18.166	853.018	643.917
290.730	18.009	852.829	643.127
291.745	18.115	851.908	642.774
292.760	18.134	851.171	642.234
293.774	18.266	850.571	642.219
294.789	18.304	849.946	641.834
295.803	18.413	849.649	641.960
296.818	18.318	848.803	640.908
297.833	18.150	848.533	640.020
298.847	18.079	847.763	639.115
299.862	18.227	846.911	638.970
300.876	18.211	846.369	638.446
301.891	18.214	845.920	638.062
302.906	18.327	845.456	638.074
303.920	18.358	844.838	637.670
304.935	18.443	844.213	637.455
305.949	18.649	843.720	637.795
306.964	18.662	842.797	637.086
307.979	18.575	842.131	636.206
308.993	18.387	841.845	635.237
310.008	18.427	841.545	635.102
311.022	18.731	840.568	635.435
312.037	18.488	840.406	634.353
313.052	18.458	839.795	633.728
314.066	18.546	838.494	633.013
315.081	18.354	838.337	632.131
316.095	18.357	837.282	631.290
317.110	18.260	837.497	631.040
318.125	18.297	836.725	630.538
319.139	18.309	836.428	630.302
320.154	18.312	836.027	629.955
321.168	18.335	835.334	629.463
322.183	18.463	834.566	629.299
323.197	18.457	834.206	628.948
324.212	18.496	833.242	628.308
325.227	18.579	832.895	628.297
326.241	18.625	832.441	628.066
327.256	18.610	831.634	627.347
328.270	18.427	831.434	626.470
329.285	18.451	830.908	626.108
330.300	18.510	829.989	625.574
331.314	18.401	829.977	625.115
332.329	18.394	829.301	624.522
333.343	18.542	828.520	624.418
334.358	18.767	827.953	624.753
335.373	18.801	827.376	624.387
336.387	18.730	827.032	623.815
337.402	18.755	826.522	623.467
338.416	18.819	826.034	623.276
339.431	18.795	825.528	622.750
340.446	18.891	825.140	622.752
341.460	18.844	824.846	622.304
342.475	19.032	824.127	622.386
343.489	19.239	823.259	622.425
344.504	19.201	822.917	621.971
345.519	19.130	822.527	621.365
346.533	19.174	821.862	620.967
347.548	19.257	821.426	620.881
348.562	19.219	820.734	620.169
349.577	18.925	820.386	618.790
350.592	18.929	819.615	618.168
351.606	18.722	819.315	617.145
352.621	18.730	818.875	616.788
353.635	18.910	818.328	616.967
354.650	18.797	817.766	616.085
355.665	18.819	817.681	616.044
356.679	19.156	816.635	616.406
357.694	19.034	816.347	615.699
358.708	19.188	816.103	616.011
359.723	19.056	815.606	615.110
360.738	19.055	814.813	614.456
361.752	19.028	814.337	613.946
362.767	19.116	814.022	613.968
363.781	19.136	813.953	613.932
364.796	19.376	813.257	614.207
365.810	19.383	812.899	613.907
366.825	19.561	812.526	614.204
367.840	19.624	812.075	614.032
368.854	19.513	811.786	613.366
369.869	19.260	811.293	612.042
370.883	19.347	810.558	611.740
371.898	19.409	809.808	611.342
372.913	19.552	809.178	611.315
373.927	19.605	808.793	611.160
374.942	19.491	808.257	610.297
375.956	19.366	807.464	609.205
376.971	19.572	806.907	609.455
377.986	19.751	806.455	609.693
379.000	19.535	806.419	608.849
380.015	19.670	805.636	608.680
381.029	19.644	805.140	608.158
382.044	19.626	804.583	607.622
383.059	19.697	804.187	607.519
384.073	19.597	803.713	606.755
385.088	19.723	802.929	606.553
386.102	19.566	802.384	605.535
387.117	19.541	801.878	605.013
388.132	19.413	801.366	604.124
389.146	19.573	800.789	604.196
390.161	19.460	800.625	603.622
391.175	19.493	800.295	603.435
392.190	19.600	800.163	603.659
393.205	19.654	799.331	603.166
394.219	19.769	798.666	603.010
395.234	19.690	798.209	602.338
396.248	19.563	797.943	601.643
397.263	19.446	797.025	600.490
398.278	19.276	796.642	599.556
399.292	19.380	796.303	599.609
400.307	19.452	795.667	599.326
401.321	19.454	795.084	598.840
402.336	19.427	795.105	598.712
403.350	19.551	794.981	598.993
404.365	19.600	794.297	598.597
405.380	19.544	794.013	598.134
406.394	19.884	793.487	598.863
407.409	19.876	793.133	598.516
408.423	19.871	792.933	598.294
409.438	20.006	792.140	598.108
410.453	20.079	791.983	598.188
411.467	20.129	791.246	597.751
412.482	20.115	790.972	597.443
413.496	20.158	790.846	597.443
414.511	20.162	790.197	596.916
415.526	20.330	789.499	596.911
416.540	20.232	789.348	596.410
417.555	20.109	789.119	595.761
418.569	20.200	788.449	595.513
419.584	20.258	787.764	595.143
420.599	20.275	787.787	595.165
421.613	162.291	1370.930	1797.800
422.628	140.509	1455.912	1797.883
