DTS Sentinel unit serial number:	SN413079Multiplexer serial number:	ORYXHardware model number:	OX4-SRSoftware version number:	ORYX F/W v4.00 Oryx Data Collector v3.7.2.0data status	okinstallation	princeton_trtdifferential loss correction	single-endedforward channel	channel 3reverse channel	N/Adate	2019/09/17time	02:28:35forward acquisition time	60.00reverse acquisition time	0.00gamma	496.2192k internal	0.2323k external	0.2323temperature offset calibration	0.9941default loss term (dB/km)	0.3790temperature slope calibration	1.0000multiplexer offset coefficient	1.0000multiplexer slope coefficient	1.0000fibre end	0.00T internal ref (°C)	29.77T ext. ref 1 (°C)	0.12T ext. ref 2 (°C)	24.77length (m)	temperature (°C)	Stokes	anti-Stokes-747.200	228.231	-0.266	-0.437
-746.185	-200.000	0.040	0.305
-745.171	662.386	0.086	0.224
-744.156	182.834	-0.170	0.253
-743.142	-200.000	0.034	-0.177
-742.127	-75.558	-0.288	-0.103
-741.112	800.000	-0.050	0.153
-740.098	220.437	0.038	0.062
-739.083	6.555	0.318	0.238
-738.069	167.283	0.126	0.181
-737.054	-138.972	0.144	0.016
-736.039	-9.709	-0.387	0.260
-735.025	-149.888	0.090	-0.007
-734.010	-66.670	-0.411	-0.164
-732.996	800.000	0.024	-0.071
-731.981	299.727	0.137	-0.254
-730.966	13.325	-0.050	0.039
-729.952	-162.388	0.123	0.006
-728.937	269.544	-0.130	-0.231
-727.923	-25.905	-0.103	-0.061
-726.908	-158.806	-0.373	0.022
-725.894	-111.051	0.157	0.033
-724.879	-200.000	-0.031	-0.249
-723.864	82.886	0.088	0.096
-722.850	800.000	-0.060	-0.234
-721.835	6.182	-0.264	-0.198
-720.821	499.102	-0.051	0.118
-719.806	11.630	-0.232	-0.180
-718.791	561.049	-0.107	-0.262
-717.777	-200.000	0.001	0.305
-716.762	800.000	-0.117	-0.482
-715.748	-200.000	0.002	-0.225
-714.733	-121.390	-0.115	0.019
-713.718	800.000	-0.079	-0.235
-712.704	197.512	0.205	-0.316
-711.689	-200.000	-0.020	-0.162
-710.675	376.866	-0.097	-0.199
-709.660	-200.000	-0.103	-0.000
-708.645	350.690	0.209	0.417
-707.631	-81.524	0.356	-0.118
-706.616	211.527	0.120	-0.190
-705.602	130.220	0.093	-0.120
-704.587	-69.302	0.276	-0.107
-703.572	438.206	0.075	-0.165
-702.558	800.000	-0.028	0.111
-701.543	170.519	-0.228	0.329
-700.529	800.000	-0.116	0.479
-699.514	42.032	0.004	0.004
-698.499	-200.000	-0.012	-0.331
-697.485	-109.796	0.287	-0.061
-696.470	195.192	-0.052	0.080
-695.456	-136.886	0.190	-0.022
-694.441	-133.446	-0.165	-0.021
-693.426	-28.722	0.263	-0.153
-692.412	303.624	0.198	0.371
-691.397	-34.835	-0.123	-0.068
-690.383	-200.000	0.143	-0.000
-689.368	254.197	-0.075	0.130
-688.354	-184.817	-0.331	-0.005
-687.339	-200.000	-0.045	0.354
-686.324	26.231	0.175	0.147
-685.310	-3.917	-0.238	0.166
-684.295	-45.665	0.085	0.042
-683.281	272.506	0.037	-0.065
-682.266	676.403	-0.062	0.162
-681.251	344.862	0.072	-0.143
-680.237	175.784	0.085	0.125
-679.222	-200.000	0.013	-0.096
-678.208	-150.409	0.244	0.019
-677.193	800.000	0.028	0.081
-676.178	-27.299	-0.043	0.025
-675.164	-63.162	-0.022	-0.009
-674.149	-105.889	-0.168	-0.038
-673.135	-200.000	0.052	-0.240
-672.120	800.000	-0.055	0.232
-671.105	258.696	0.165	0.286
-670.091	-25.876	0.316	-0.188
-669.076	800.000	0.086	-0.330
-668.062	484.588	0.107	-0.246
-667.047	281.592	0.076	0.137
-666.032	-200.000	-0.007	0.082
-665.018	156.155	0.235	-0.326
-664.003	300.711	-0.086	-0.159
-662.989	-90.199	-0.111	-0.032
-661.974	191.150	-0.252	-0.382
-660.959	50.443	-0.155	0.148
-659.945	800.000	-0.082	-0.230
-658.930	-200.000	0.017	-0.466
-657.916	-34.185	0.184	0.102
-656.901	501.376	0.124	0.287
-655.886	636.341	-0.108	-0.277
-654.872	-200.000	-0.002	-0.148
-653.857	500.754	-0.052	-0.121
-652.843	202.375	-0.045	-0.070
-651.828	-28.919	-0.200	0.116
-650.814	-200.000	0.004	0.155
-649.799	-141.597	0.554	-0.056
-648.784	-200.000	-0.048	-0.221
-647.770	-7.599	-0.354	-0.241
-646.755	-46.839	0.219	-0.108
-645.741	-114.881	-0.150	-0.029
-644.726	503.686	-0.179	0.417
-643.711	15.940	0.233	0.185
-642.697	-76.591	0.122	0.043
-641.682	-200.000	-0.015	0.178
-640.668	-75.014	-0.257	0.093
-639.653	-200.000	0.002	-0.110
-638.638	165.707	-0.050	0.072
-637.624	-27.376	0.027	-0.016
-636.609	158.808	0.194	-0.271
-635.595	-200.000	0.059	0.278
-634.580	19.018	0.543	-0.438
-633.565	-3.305	0.067	0.047
-632.551	-142.600	0.326	0.032
-631.536	-84.317	0.203	-0.065
-630.522	-191.600	-0.273	-0.003
-629.507	-200.000	-0.011	-0.104
-628.492	-97.715	-0.255	0.066
-627.478	-56.993	0.211	-0.094
-626.463	24.847	0.130	0.109
-625.449	-73.169	0.181	-0.067
-624.434	-38.792	-0.092	0.049
-623.419	46.541	0.033	0.031
-622.405	28.470	0.159	-0.135
-621.390	-132.384	-0.059	0.008
-620.376	-94.535	-0.189	-0.052
-619.361	-200.000	0.016	0.159
-618.346	106.540	0.035	-0.042
-617.332	-104.737	-0.249	-0.058
-616.317	-166.328	-0.317	-0.013
-615.303	-142.741	0.120	0.012
-614.288	-20.389	0.278	-0.172
-613.273	-200.000	-0.044	-0.282
-612.259	-70.583	0.030	-0.011
-611.244	-78.864	0.329	-0.113
-610.230	37.641	-0.033	0.030
-609.215	102.016	-0.396	0.464
-608.201	-200.000	-0.085	0.482
-607.186	-94.766	-0.209	-0.057
-606.171	-200.000	-0.058	-0.309
-605.157	-64.677	-0.454	-0.185
-604.142	-104.253	-0.110	-0.026
-603.128	-76.368	0.284	-0.101
-602.113	743.100	-0.078	-0.212
-601.098	10.158	-0.231	-0.176
-600.084	14.770	0.416	-0.327
-599.069	24.639	0.191	0.159
-598.055	41.712	0.276	0.251
-597.040	800.000	-0.122	-0.389
-596.025	36.159	-0.290	-0.256
-595.011	70.208	-0.252	-0.261
-593.996	-3.400	-0.108	-0.075
-592.982	640.258	-0.094	-0.241
-591.967	559.832	-0.106	-0.257
-590.952	158.578	-0.176	-0.245
-589.938	238.914	-0.196	-0.327
-588.923	-41.903	-0.177	-0.091
-587.909	-14.457	-0.167	-0.108
-586.894	0.249	-0.060	-0.043
-585.879	2.126	0.087	0.063
-584.865	-20.508	0.218	0.134
-583.850	-19.854	0.125	0.077
-582.836	-200.000	0.013	0.138
-581.821	-200.000	0.012	-0.055
-580.806	800.000	-0.066	-0.253
-579.792	400.530	0.037	-0.078
-578.777	-106.521	0.481	-0.108
-577.763	74.717	0.160	-0.169
-576.748	35.330	0.063	0.055
-575.733	39.297	-0.295	-0.265
-574.719	-200.000	0.053	-0.237
-573.704	677.735	-0.166	0.433
-572.690	800.000	-0.072	0.200
-571.675	800.000	-0.070	0.231
-570.661	-151.335	-0.226	0.017
-569.646	-200.000	-0.025	-0.123
-568.631	47.851	0.305	0.286
-567.617	2.394	-0.206	-0.149
-566.602	-200.000	0.005	-0.075
-565.588	-200.000	-0.001	0.115
-564.573	-200.000	0.049	-0.296
-563.558	-49.514	0.135	-0.064
-562.544	13.903	-0.109	0.085
-561.529	22.980	-0.116	0.096
-560.515	-61.786	-0.161	-0.067
-559.500	33.955	0.177	0.155
-558.485	-18.041	-0.216	0.135
-557.471	256.596	-0.071	0.122
-556.456	800.000	0.054	0.207
-555.442	229.322	-0.158	-0.259
-554.427	800.000	0.049	0.159
-553.412	30.929	-0.363	-0.312
-552.398	88.046	0.066	-0.073
-551.383	80.196	-0.141	0.152
-550.369	-200.000	-0.048	0.229
-549.354	568.565	0.056	-0.137
-548.339	-47.355	-0.087	0.043
-547.325	470.166	0.064	-0.144
-546.310	232.705	0.154	-0.254
-545.296	-101.386	0.230	-0.056
-544.281	-200.000	0.016	-0.099
-543.266	-89.748	0.208	-0.061
-542.252	530.499	0.128	-0.304
-541.237	-200.000	-0.003	-0.050
-540.223	-20.083	-0.062	-0.038
-539.208	-81.773	-0.323	0.106
-538.193	227.336	0.057	-0.093
-537.179	83.068	0.211	0.230
-536.164	-179.614	-0.087	-0.002
-535.150	73.388	0.203	-0.213
-534.135	800.000	-0.054	-0.231
-533.121	144.991	0.194	-0.259
-532.106	-200.000	0.009	0.170
-531.091	800.000	0.044	0.144
-530.077	-200.000	0.018	0.108
-529.062	37.444	-0.129	0.115
-528.048	511.464	0.183	0.426
-527.033	-1.446	0.097	0.069
-526.018	20.818	0.297	-0.241
-525.004	800.000	-0.024	-0.094
-523.989	399.204	-0.193	-0.406
-522.975	-49.854	-0.236	-0.112
-521.960	277.232	-0.080	-0.142
-520.945	-121.904	0.068	0.011
-519.931	21.725	0.167	0.136
-518.916	-200.000	-0.036	-0.219
-517.902	54.715	-0.141	0.136
-516.887	-200.000	0.057	0.376
-515.872	372.414	-0.058	-0.118
-514.858	-102.949	-0.359	0.085
-513.843	672.271	0.015	-0.038
-512.829	176.461	-0.118	0.172
-511.814	98.790	0.132	-0.152
-510.799	106.662	0.184	0.218
-509.785	-107.958	0.095	-0.021
-508.770	93.780	-0.107	0.121
-507.756	800.000	-0.103	0.300
-506.741	17.100	0.197	-0.156
-505.726	-33.451	0.095	-0.053
-504.712	-200.000	0.013	-0.244
-503.697	-129.525	-0.356	0.049
-502.683	-122.461	0.282	0.046
-501.668	-67.725	-0.262	-0.103
-500.653	73.619	0.372	0.390
-499.639	104.409	0.161	0.190
-498.624	-200.000	0.021	-0.155
-497.610	-75.456	-0.136	0.048
-496.595	-51.835	-0.278	0.129
-495.581	800.000	0.085	0.332
-494.566	-158.471	-0.245	-0.014
-493.551	800.000	0.053	0.163
-492.537	-192.879	-0.220	-0.002
-491.522	-75.812	-0.205	0.073
-490.508	-122.127	-0.293	-0.048
-489.493	-200.000	0.087	0.427
-488.478	-200.000	-0.005	-0.142
-487.464	-58.500	-0.194	0.084
-486.449	-87.586	-0.142	-0.043
-485.435	73.315	-0.084	-0.087
-484.420	-200.000	-0.035	0.386
-483.405	-200.000	0.018	-0.084
-482.391	135.979	0.076	-0.099
-481.376	-74.884	0.353	-0.127
-480.362	346.101	-0.087	-0.172
-479.347	-200.000	-0.014	0.174
-478.332	1.814	-0.206	0.149
-477.318	-200.000	-0.015	0.084
-476.303	-28.778	0.097	-0.056
-475.289	72.145	0.185	-0.192
-474.274	-200.000	0.035	0.238
-473.259	-156.170	0.161	0.010
-472.245	413.655	-0.096	0.205
-471.230	800.000	0.124	-0.352
-470.216	-200.000	-0.013	0.130
-469.201	-92.878	0.136	0.038
-468.186	469.409	0.024	0.055
-467.172	-200.000	0.006	0.312
-466.157	-200.000	0.089	-0.416
-465.143	439.109	-0.066	-0.143
-464.128	-17.327	0.030	-0.019
-463.113	-200.000	0.013	-0.239
-462.099	-133.706	0.304	-0.038
-461.084	800.000	0.057	0.183
-460.070	68.840	0.136	0.139
-459.055	-110.324	-0.436	0.090
-458.040	298.812	-0.134	-0.246
-457.026	190.686	-0.055	0.082
-456.011	-75.845	-0.172	-0.061
-454.997	-48.400	0.477	0.229
-453.982	361.501	-0.200	0.401
-452.968	-200.000	-0.004	-0.090
-451.953	-179.623	0.276	-0.006
-450.938	-163.577	0.305	0.014
-449.924	-112.222	-0.105	-0.021
-448.909	624.216	-0.052	-0.130
-447.895	-157.595	0.163	-0.010
-446.880	154.575	0.109	-0.150
-445.865	722.765	0.037	-0.098
-444.851	800.000	-0.042	-0.181
-443.836	-142.370	-0.135	-0.013
-442.822	89.224	0.119	-0.132
-441.807	800.000	-0.081	0.234
-440.792	469.159	-0.194	0.435
-439.778	-84.805	0.458	0.144
-438.763	800.000	-0.078	0.271
-437.749	55.207	-0.018	0.018
-436.734	-49.738	0.092	-0.043
-435.719	25.750	0.254	0.211
-434.705	46.344	-0.045	0.041
-433.690	800.000	-0.056	-0.195
-432.676	-87.172	0.479	0.145
-431.661	-200.000	0.037	0.222
-430.646	-32.095	0.142	-0.079
-429.632	-149.236	0.263	0.021
-428.617	-39.215	0.041	-0.022
-427.603	-200.000	-0.011	0.132
-426.588	-104.075	-0.091	-0.021
-425.573	28.227	0.110	-0.092
-424.559	-200.000	-0.010	0.043
-423.544	-91.916	-0.285	-0.081
-422.530	175.576	-0.069	-0.099
-421.515	0.567	-0.260	-0.186
-420.500	100.774	0.117	-0.136
-419.486	396.252	-0.052	-0.108
-418.471	259.456	-0.037	-0.063
-417.457	6.201	-0.032	-0.023
-416.442	22.294	-0.301	-0.245
-415.428	369.840	0.071	0.144
-414.413	-33.722	0.073	0.040
-413.398	-109.167	0.291	-0.062
-412.384	-200.000	0.090	-0.401
-411.369	103.967	0.090	-0.106
-410.355	463.899	-0.111	-0.248
-409.340	559.087	0.008	-0.020
-408.325	800.000	-0.073	-0.273
-407.311	-73.074	0.044	0.016
-406.296	800.000	-0.139	0.393
-405.282	-128.669	0.176	-0.025
-404.267	800.000	-0.069	0.224
-403.252	-25.376	-0.072	0.043
-402.238	164.566	-0.035	0.049
-401.223	131.831	0.114	-0.146
-400.209	502.002	-0.060	-0.139
-399.194	151.970	-0.075	-0.102
-398.179	-124.915	0.149	0.023
-397.165	-9.912	-0.199	-0.132
-396.150	73.694	-0.161	-0.169
-395.136	-200.000	-0.018	-0.192
-394.121	-155.926	-0.311	-0.020
-393.106	-200.000	-0.038	-0.233
-392.092	-200.000	-0.041	-0.290
-391.077	-200.000	-0.031	0.276
-390.063	74.780	-0.304	0.319
-389.048	-110.862	0.299	0.061
-388.033	-109.392	0.342	0.072
-387.019	-152.269	-0.104	-0.007
-386.004	-200.000	0.026	-0.178
-384.990	-200.000	-0.061	-0.449
-383.975	-200.000	-0.033	0.169
-382.960	-200.000	0.026	-0.494
-381.946	22.721	0.247	0.201
-380.931	800.000	0.059	0.251
-379.917	-69.958	-0.034	0.013
-378.902	11.904	-0.230	-0.176
-377.888	800.000	-0.034	-0.142
-376.873	800.000	-0.067	0.256
-375.858	-131.353	-0.305	0.040
-374.844	-3.108	-0.104	-0.072
-373.829	-200.000	0.025	0.607
-372.815	-21.784	-0.292	0.177
-371.800	-200.000	0.014	0.408
-370.785	-200.000	0.020	-0.268
-369.771	-200.000	0.020	-0.155
-368.756	37.473	-0.415	-0.367
-367.742	311.450	-0.028	0.053
-366.727	800.000	0.064	0.227
-365.712	-129.965	0.192	-0.026
-364.698	300.080	-0.186	0.341
-363.683	112.050	0.247	0.297
-362.669	115.974	0.085	-0.103
-361.654	800.000	0.035	-0.130
-360.639	348.816	0.087	0.172
-359.625	-55.167	0.205	0.092
-358.610	-63.598	-0.424	0.173
-357.596	-200.000	0.019	0.137
-356.581	-113.675	-0.326	-0.063
-355.566	-106.729	-0.257	0.057
-354.552	-200.000	0.025	-0.155
-353.537	-103.056	0.187	-0.044
-352.523	135.581	0.222	-0.288
-351.508	800.000	0.021	-0.068
-350.493	-74.298	0.188	-0.068
-349.479	-46.230	-0.328	0.161
-348.464	-200.000	0.021	-0.113
-347.450	202.944	0.109	0.167
-346.435	160.983	-0.122	-0.170
-345.420	-16.973	0.138	-0.087
-344.406	-159.673	0.225	-0.012
-343.391	349.171	0.164	0.322
-342.377	800.000	-0.104	-0.369
-341.362	-137.689	-0.210	0.023
-340.348	-200.000	-0.016	0.308
-339.333	800.000	-0.057	-0.191
-338.318	-103.013	-0.019	-0.004
-337.304	134.802	-0.160	0.207
-336.289	106.056	-0.143	0.168
-335.275	-51.490	-0.227	0.105
-334.260	-26.883	-0.254	-0.147
-333.245	71.577	-0.057	0.059
-332.231	-144.217	0.322	0.030
-331.216	-141.141	0.138	0.014
-330.202	-200.000	-0.049	-0.262
-329.187	-200.000	0.048	-0.359
-328.172	-151.310	0.175	-0.013
-327.158	-101.590	-0.089	-0.021
-326.143	-200.000	0.022	0.222
-325.129	34.012	-0.111	0.096
-324.114	21.665	-0.233	0.188
-323.099	34.624	-0.147	0.128
-322.085	800.000	-0.046	-0.127
-321.070	-197.809	0.415	-0.002
-320.056	359.450	0.063	0.124
-319.041	79.352	0.165	-0.176
-318.026	800.000	-0.062	0.233
-317.012	194.962	-0.154	-0.232
-315.997	-185.556	-0.476	-0.007
-314.983	-119.057	-0.258	-0.045
-313.968	120.344	0.182	-0.224
-312.953	-53.085	0.081	0.037
-311.939	-200.000	-0.037	0.288
-310.924	-200.000	-0.021	0.276
-309.910	-75.376	0.198	0.070
-308.895	-80.164	-0.158	-0.053
-307.880	-200.000	0.004	0.203
-306.866	-24.589	-0.024	0.014
-305.851	301.717	-0.114	-0.210
-304.837	-44.838	-0.196	-0.097
-303.822	-122.788	0.192	-0.031
-302.807	-47.182	-0.219	0.106
-301.793	28.807	0.308	0.259
-300.778	656.451	-0.079	-0.201
-299.764	-168.874	0.077	-0.003
-298.749	378.846	0.074	0.150
-297.735	-12.259	0.109	0.071
-296.720	-200.000	-0.023	-0.405
-295.705	800.000	0.059	0.191
-294.691	246.529	0.176	0.295
-293.676	-149.144	0.027	0.002
-292.662	239.982	0.083	-0.137
-291.647	44.076	0.167	-0.152
-290.632	-83.475	-0.235	0.075
-289.618	-2.401	-0.166	0.116
-288.603	-109.668	-0.286	0.060
-287.589	-109.128	-0.220	0.047
-286.574	-13.931	-0.069	0.044
-285.559	800.000	0.076	0.235
-284.545	196.332	0.104	0.158
-283.530	800.000	-0.057	0.191
-282.516	-61.054	-0.292	0.122
-281.501	-200.000	0.022	0.116
-280.486	-55.921	0.294	-0.130
-279.472	800.000	0.048	-0.133
-278.457	800.000	0.020	0.058
-277.443	-200.000	-0.056	-0.259
-276.428	-55.696	-0.162	0.072
-275.413	104.400	0.089	0.104
-274.399	-88.595	-0.331	-0.098
-273.384	-200.000	0.031	0.333
-272.370	561.883	0.085	-0.205
-271.355	244.895	-0.038	0.063
-270.340	-90.662	0.488	0.140
-269.326	-200.000	0.022	0.111
-268.311	31.191	-0.077	0.066
-267.297	-164.786	0.181	-0.008
-266.282	800.000	0.031	0.128
-265.267	553.159	-0.079	-0.187
-264.253	3.506	-0.402	-0.291
-263.238	170.914	0.162	0.230
-262.224	-200.000	0.024	-0.355
-261.209	738.397	-0.089	-0.236
-260.195	279.776	-0.161	0.285
-259.180	-26.832	-0.282	0.163
-258.165	0.948	0.143	-0.101
-257.151	-200.000	-0.022	-0.135
-256.136	-200.000	0.002	0.039
-255.122	800.000	0.113	0.338
-254.107	490.085	-0.084	0.190
-253.092	800.000	-0.058	0.208
-252.078	-62.238	0.211	-0.087
-251.063	-200.000	0.000	-0.112
-250.049	-200.000	0.024	-0.215
-249.034	-37.359	0.129	-0.068
-248.019	-89.054	-0.159	-0.047
-247.005	-96.600	0.456	0.119
-245.990	-115.981	0.311	-0.058
-244.976	-70.305	-0.284	-0.107
-243.961	-200.000	-0.071	-0.383
-242.946	258.689	0.045	0.077
-241.932	-130.203	-0.160	0.022
-240.917	135.743	-0.128	-0.166
-239.903	-150.868	-0.149	0.011
-238.888	179.337	-0.030	0.043
-237.873	-68.737	0.089	0.034
-236.859	-174.487	0.337	-0.010
-235.844	37.604	-0.128	-0.113
-234.830	62.894	0.074	0.073
-233.815	173.149	0.142	0.203
-232.800	-200.000	0.043	-0.217
-231.786	-200.000	0.028	0.181
-230.771	8.512	0.236	0.176
-229.757	45.108	0.060	-0.055
-228.742	90.681	0.113	-0.126
-227.727	-200.000	0.031	0.422
-226.713	-91.142	0.223	0.063
-225.698	137.804	-0.229	-0.297
-224.684	222.806	0.101	-0.161
-223.669	56.405	-0.125	-0.120
-222.655	512.073	-0.090	-0.208
-221.640	-200.000	0.050	-0.364
-220.625	164.152	-0.156	0.217
-219.611	24.085	-0.074	-0.061
-218.596	800.000	0.060	0.177
-217.582	-121.109	0.243	-0.040
-216.567	-162.762	-0.118	0.006
-215.552	7.002	0.327	-0.241
-214.538	54.077	-0.273	-0.260
-213.523	107.811	-0.152	0.179
-212.509	-65.084	-0.182	0.073
-211.494	107.014	0.111	-0.130
-210.479	800.000	0.053	0.146
-209.465	-120.279	0.271	-0.046
-208.450	39.782	0.086	0.077
-207.436	-200.000	0.066	0.330
-206.421	90.676	0.135	-0.150
-205.406	73.021	-0.170	0.176
-204.392	800.000	-0.061	-0.187
-203.377	276.288	0.102	-0.179
-202.363	-183.156	0.132	0.002
-201.348	485.867	0.091	0.204
-200.333	8.920	0.313	0.234
-199.319	337.732	0.193	-0.372
-198.304	52.194	-0.117	0.110
-197.290	19.431	0.406	-0.323
-196.275	21.799	-0.229	-0.184
-195.260	-189.882	-0.196	-0.002
-194.246	-10.887	0.275	-0.179
-193.231	-98.365	-0.360	0.091
-192.217	52.085	-0.175	-0.164
-191.202	39.433	-0.087	-0.077
-190.187	58.733	0.141	0.137
-189.173	94.201	0.076	-0.086
-188.158	800.000	0.035	0.116
-187.144	-200.000	-0.044	0.223
-186.129	-61.209	-0.239	-0.100
-185.114	453.928	-0.015	0.032
-184.100	-43.032	-0.260	-0.130
-183.085	-51.026	-0.078	0.036
-182.071	-115.775	0.401	0.074
-181.056	6.559	0.292	0.214
-180.042	-88.890	0.046	0.013
-179.027	-200.000	0.074	-0.335
-178.012	-52.057	0.148	0.068
-176.998	332.267	-0.100	0.190
-175.983	367.662	-0.106	-0.211
-174.969	-29.357	-0.349	0.197
-173.954	212.183	-0.072	0.113
-172.939	111.414	-0.084	0.100
-171.925	-200.000	0.067	0.296
-170.910	110.412	0.297	0.352
-169.896	33.911	-0.231	0.199
-168.881	637.421	0.093	0.233
-167.866	671.407	0.105	0.270
-166.852	0.343	-0.179	0.126
-165.837	204.659	0.207	0.316
-164.823	800.000	0.041	-0.173
-163.808	-173.053	0.207	-0.006
-162.793	353.069	0.138	-0.271
-161.779	-200.000	-0.012	-0.395
-160.764	387.095	-0.091	0.185
-159.750	-96.875	-0.189	0.049
-158.735	800.000	0.008	-0.030
-157.720	9.203	0.375	0.280
-156.706	8.886	0.227	-0.169
-155.691	31.635	0.181	0.154
-154.677	64.625	-0.176	0.175
-153.662	56.607	-0.207	-0.199
-152.647	-33.798	0.124	0.067
-151.633	-16.761	-0.299	0.186
-150.618	-139.279	0.258	-0.027
-149.604	28.425	-0.206	-0.172
-148.589	-47.496	0.071	-0.034
-147.574	199.127	0.128	-0.193
-146.560	800.000	-0.023	-0.075
-145.545	-50.593	0.274	-0.127
-144.531	-104.121	-0.062	0.014
-143.516	800.000	0.069	0.215
-142.502	-84.767	0.173	-0.054
-141.487	81.113	-0.070	0.074
-140.472	-23.787	-0.157	0.093
-139.458	224.472	0.103	0.165
-138.443	-200.000	0.072	-0.690
-137.429	564.830	-0.076	-0.182
-136.414	-22.684	-0.069	0.041
-135.399	158.492	0.111	-0.152
-134.385	-200.000	0.030	-0.220
-133.370	-200.000	0.057	-0.340
-132.356	16.450	-0.168	-0.131
-131.341	517.083	-0.135	-0.311
-130.326	-178.035	0.252	-0.006
-129.312	-200.000	0.000	-0.293
-128.297	32.403	0.165	-0.141
-127.283	-89.393	0.235	-0.068
-126.268	-173.995	0.022	0.001
-125.253	392.621	0.247	0.506
-124.239	-144.161	0.278	-0.026
-123.224	-110.062	-0.298	0.061
-122.210	291.652	0.124	-0.223
-121.195	-26.577	-0.183	0.105
-120.180	-130.380	0.057	0.008
-119.166	-24.584	-0.121	-0.071
-118.151	-200.000	-0.054	0.278
-117.137	-43.284	0.218	0.109
-116.122	-200.000	0.026	-0.210
-115.107	-108.809	-0.294	-0.062
-114.093	-200.000	0.019	0.116
-113.078	-24.417	0.259	-0.152
-112.064	-146.415	-0.398	-0.034
-111.049	7.862	0.047	-0.035
-110.034	491.511	-0.015	0.035
-109.020	-200.000	0.004	-0.028
-108.005	-200.000	0.028	0.127
-106.991	222.454	0.193	-0.306
-105.976	19.661	-0.202	0.160
-104.962	-140.693	-0.098	-0.010
-103.947	96.555	-0.280	0.316
-102.932	-146.237	-0.122	-0.011
-101.918	47.558	0.222	0.204
-100.903	-92.522	0.218	0.060
-99.889	-200.000	0.019	0.256
-98.874	-115.483	-0.155	0.029
-97.859	-41.513	-0.190	-0.096
-96.845	-200.000	-0.011	-0.086
-95.830	-35.354	0.235	0.126
-94.816	88.977	0.075	-0.082
-93.801	171.188	-0.088	0.124
-92.786	800.000	-0.036	-0.132
-91.772	60.360	0.112	-0.109
-90.757	3.399	0.129	0.092
-89.743	-51.120	0.200	0.092
-88.728	21.553	-0.122	-0.098
-87.713	-39.670	0.032	-0.016
-86.699	-31.612	0.081	0.045
-85.684	-134.057	0.243	-0.030
-84.670	101.049	0.085	-0.097
-83.655	-62.610	0.100	0.041
-82.640	-52.715	0.065	0.029
-81.626	168.042	0.195	-0.273
-80.611	800.000	-0.024	-0.074
-79.597	800.000	0.118	-0.458
-78.582	-38.169	0.335	-0.175
-77.567	32.524	-0.183	-0.156
-76.553	-146.985	-0.122	0.010
-75.538	-191.688	-0.277	0.003
-74.524	-200.000	0.019	-0.566
-73.509	-48.939	0.570	0.269
-72.494	-55.352	0.074	-0.033
-71.480	-50.354	-0.142	-0.066
-70.465	108.077	0.200	-0.235
-69.451	800.000	-0.048	0.169
-68.436	800.000	-0.098	0.374
-67.422	35.606	0.101	-0.087
-66.407	6.180	0.182	0.133
-65.392	-200.000	-0.010	0.130
-64.378	48.676	-0.111	0.102
-63.363	-94.594	0.194	-0.052
-62.349	-45.510	-0.114	0.056
-61.334	29.579	-1.202	-1.006
-60.319	122.434	0.498	0.612
-59.305	320.658	-0.479	-0.895
-58.290	264.133	0.764	1.307
-57.276	800.000	0.454	1.763
-56.261	-200.000	106.642	579.481
-55.246	452.165	1463.069	3179.879
-54.232	148.752	2646.522	3516.646
-53.217	105.397	2178.617	2529.971
-52.203	39.976	1708.400	1508.570
-51.188	32.932	1521.073	1294.999
-50.173	30.537	1494.454	1256.124
-49.159	51.029	1548.738	1443.335
-48.144	51.386	1566.004	1461.828
-47.130	33.054	1522.624	1296.952
-46.115	30.083	1507.822	1264.064
-45.100	29.911	1504.645	1260.175
-44.086	29.835	1502.210	1257.572
-43.071	29.859	1500.192	1255.992
-42.057	29.783	1498.368	1253.904
-41.042	29.735	1497.428	1252.741
-40.027	29.702	1495.804	1251.113
-39.013	29.819	1493.921	1250.272
-37.998	29.784	1492.657	1248.931
-36.984	29.681	1491.896	1247.548
-35.969	29.826	1490.276	1247.125
-34.954	29.610	1489.389	1244.875
-33.940	29.624	1487.953	1243.722
-32.925	29.825	1486.076	1243.457
-31.911	29.817	1485.444	1242.825
-30.896	29.788	1483.768	1241.177
-29.881	29.852	1482.289	1240.318
-28.867	29.801	1481.266	1239.068
-27.852	29.893	1479.810	1238.420
-26.838	29.791	1478.517	1236.608
-25.823	29.820	1477.016	1235.496
-24.809	29.722	1475.376	1233.419
-23.794	29.779	1473.635	1232.296
-22.779	29.863	1472.663	1231.998
-21.765	29.784	1472.125	1230.972
-20.750	29.848	1470.493	1229.982
-19.736	29.764	1469.924	1228.896
-18.721	29.755	1468.746	1227.803
-17.706	29.749	1467.437	1226.624
-16.692	29.733	1466.390	1225.592
-15.677	29.731	1465.293	1224.611
-14.663	29.790	1463.659	1223.588
-13.648	29.833	1462.800	1223.109
-12.633	29.862	1461.891	1222.493
-11.619	29.720	1461.358	1221.056
-10.604	29.707	1460.472	1220.185
-9.590	29.768	1459.549	1219.764
-8.575	29.756	1458.678	1218.914
-7.560	29.830	1457.544	1218.401
-6.546	29.661	1457.191	1216.944
-5.531	29.684	1455.633	1215.751
-4.517	29.771	1454.856	1215.623
-3.502	29.687	1453.956	1214.271
-2.487	29.786	1452.365	1213.541
-1.473	29.757	1451.925	1212.935
-0.458	29.720	1450.408	1211.382
0.556	28.046	1440.669	1201.203
1.571	25.138	1416.101	1161.800
2.586	21.987	1355.998	1092.811
3.600	20.385	1273.808	1017.105
4.615	19.268	1228.105	974.214
5.629	16.795	1171.460	915.845
6.644	8.347	1085.628	806.181
7.659	1.323	1044.920	741.659
8.673	0.373	1038.878	732.688
9.688	0.104	1036.191	729.424
10.702	0.006	1034.820	727.921
11.717	-0.002	1032.311	726.054
12.731	2.666	1035.083	740.845
13.746	11.038	1046.408	789.644
14.761	17.046	1053.992	824.574
15.775	17.423	1053.099	825.630
16.790	16.337	1051.524	819.060
17.804	15.300	1049.199	812.156
18.819	14.471	1047.434	806.707
19.834	14.060	1045.862	803.437
20.848	13.790	1044.880	801.308
21.863	13.465	1044.198	799.146
22.877	13.335	1042.991	797.525
23.892	13.022	1042.345	795.455
24.907	13.045	1041.500	794.848
25.921	13.012	1040.866	794.134
26.936	12.951	1040.725	793.664
27.950	13.111	1039.918	793.750
28.965	13.161	1038.523	792.856
29.980	13.136	1037.696	792.030
30.994	13.207	1037.044	791.804
32.009	13.309	1036.005	791.428
33.023	13.294	1035.885	791.196
34.038	13.361	1034.902	790.696
35.053	13.270	1034.076	789.558
36.067	13.202	1032.884	788.255
37.082	13.048	1032.804	787.390
38.096	13.114	1031.256	786.455
39.111	13.242	1030.917	786.737
40.126	13.217	1029.725	785.635
41.140	13.075	1029.276	784.550
42.155	13.085	1027.665	783.300
43.169	13.008	1027.154	782.475
44.184	13.152	1025.663	781.954
45.199	12.909	1024.567	779.901
46.213	13.024	1023.640	779.669
47.228	12.958	1023.396	779.103
48.242	12.978	1022.379	778.353
49.257	13.126	1020.940	777.883
50.271	13.086	1020.065	776.964
51.286	13.107	1019.216	776.347
52.301	13.158	1018.244	775.774
53.315	13.117	1017.672	775.079
54.330	13.184	1016.962	774.782
55.344	13.009	1016.297	773.389
56.359	13.082	1015.089	772.742
57.374	12.957	1014.610	771.723
58.388	13.225	1013.197	771.835
59.403	13.095	1012.314	770.487
60.417	13.043	1012.004	769.940
61.432	13.007	1011.017	768.954
62.447	13.070	1010.306	768.636
63.461	12.985	1009.363	767.455
64.476	12.917	1008.775	766.625
65.490	12.910	1008.075	765.994
66.505	12.852	1007.454	765.186
67.520	12.822	1006.910	764.565
68.534	12.952	1005.790	764.249
69.549	12.993	1004.983	763.756
70.563	12.979	1004.162	762.999
71.578	12.977	1003.699	762.572
72.593	12.962	1002.489	761.518
73.607	12.911	1001.241	760.266
74.622	12.947	1000.429	759.750
75.636	12.851	999.671	758.661
76.651	12.940	998.945	758.453
77.666	12.896	998.680	757.984
78.680	12.846	997.659	756.911
79.695	12.966	997.342	757.157
80.709	12.926	996.996	756.640
81.724	12.860	996.042	755.550
82.739	13.034	994.886	755.403
83.753	13.063	994.149	754.905
84.768	13.079	993.735	754.600
85.782	13.138	992.912	754.179
86.797	13.206	991.678	753.483
87.812	13.195	991.087	752.918
88.826	13.156	990.228	752.020
89.841	13.059	989.551	750.997
90.855	13.254	988.644	751.129
91.870	13.227	988.125	750.546
92.884	13.247	987.221	749.886
93.899	13.070	986.806	748.702
94.914	13.238	985.715	748.566
95.928	13.252	984.988	748.012
96.943	13.240	984.565	747.568
97.957	13.194	983.866	746.763
98.972	13.327	982.416	746.201
99.987	13.209	982.521	745.681
101.001	13.251	981.460	745.000
102.016	13.336	980.640	744.694
103.030	13.252	979.815	743.621
104.045	13.328	978.548	742.938
105.060	13.337	977.756	742.311
106.074	13.203	976.961	741.041
107.089	13.107	976.220	739.981
108.103	13.037	975.531	739.082
109.118	13.071	973.929	737.955
110.133	12.958	973.464	737.033
111.147	13.043	972.683	736.754
112.162	13.068	971.418	735.843
113.176	13.188	970.500	735.617
114.191	13.194	969.501	734.820
115.206	13.126	969.204	734.227
116.220	13.155	968.289	733.599
117.235	13.070	967.625	732.652
118.249	13.018	967.028	731.908
119.264	13.042	966.084	731.233
120.279	13.141	964.790	730.626
121.293	13.079	964.142	729.799
122.308	13.090	963.469	729.271
123.322	13.058	962.667	728.460
124.337	13.125	961.697	727.954
125.352	13.061	960.246	726.514
126.366	13.124	959.202	725.936
127.381	13.028	958.267	724.744
128.395	13.120	957.267	724.323
129.410	13.076	956.581	723.549
130.424	13.090	955.259	722.548
131.439	13.081	954.713	722.029
132.454	13.214	954.058	722.051
133.468	13.153	953.019	720.937
134.483	13.092	952.755	720.406
135.497	13.227	951.745	720.166
136.512	13.121	951.433	719.403
137.527	13.174	950.433	718.814
138.541	13.133	949.665	717.992
139.556	13.158	948.835	717.409
140.570	13.136	947.560	716.287
141.585	13.241	947.263	716.457
142.600	13.160	946.973	715.822
143.614	13.296	945.691	715.376
144.629	13.288	945.174	714.887
145.643	13.382	944.697	714.871
146.658	13.304	943.891	713.862
147.673	13.265	942.698	712.728
148.687	13.184	942.144	711.895
149.702	13.184	941.206	711.123
150.716	13.248	940.384	710.715
151.731	13.306	939.031	709.878
152.746	13.267	938.670	709.375
153.760	13.338	937.688	708.877
154.775	13.225	937.469	708.164
155.789	13.243	936.290	707.288
156.804	13.229	936.044	706.979
157.819	13.302	935.137	706.543
158.833	13.351	934.532	706.231
159.848	13.398	934.027	705.987
160.862	13.356	933.336	705.227
161.877	13.300	932.369	704.195
162.892	13.332	931.806	703.841
163.906	13.349	930.065	702.537
164.921	13.297	929.634	701.931
165.935	13.261	928.622	700.951
166.950	13.397	927.805	700.849
167.964	13.168	927.801	699.813
168.979	13.224	926.350	698.894
169.994	13.417	925.232	698.804
171.008	13.273	924.817	697.819
172.023	13.333	924.047	697.432
173.037	13.437	922.993	697.011
174.052	13.628	922.005	697.007
175.067	13.331	922.046	695.724
176.081	13.421	920.861	695.147
177.096	13.400	919.982	694.334
178.110	13.325	919.418	693.535
179.125	13.321	918.402	692.688
180.140	13.354	918.003	692.465
181.154	13.413	917.036	691.922
182.169	13.563	915.973	691.684
183.183	13.646	915.362	691.508
184.198	13.674	914.525	690.930
185.213	13.614	914.109	690.305
186.227	13.612	913.692	689.923
187.242	13.579	913.222	689.368
188.256	13.675	912.452	689.124
189.271	13.704	911.458	688.435
190.286	13.720	910.721	687.885
191.300	13.642	909.903	686.879
192.315	13.571	909.210	686.005
193.329	13.463	908.826	685.207
194.344	13.397	908.031	684.273
195.359	13.357	907.893	683.944
196.373	13.478	907.220	683.877
197.388	13.645	906.320	683.827
198.402	13.734	905.621	683.604
199.417	13.801	905.593	683.797
200.432	13.801	904.880	683.202
201.446	13.817	904.536	682.946
202.461	13.975	903.874	683.036
203.475	13.982	903.448	682.681
204.490	13.940	902.987	682.100
205.504	13.885	901.996	681.065
206.519	13.940	901.017	680.492
207.534	13.923	900.201	679.747
208.548	13.874	899.342	678.838
209.563	13.870	899.141	678.609
210.577	13.877	898.312	677.950
211.592	13.732	898.106	677.144
212.607	13.979	897.326	677.505
213.621	13.950	896.953	677.042
214.636	13.975	896.101	676.443
215.650	14.019	895.356	675.998
216.665	13.966	894.580	675.136
217.680	14.101	894.491	675.560
218.694	14.150	893.418	674.889
219.709	14.010	893.423	674.264
220.723	14.064	892.508	673.731
221.738	14.152	891.860	673.538
222.753	14.113	891.088	672.737
223.767	14.172	890.243	672.281
224.782	14.061	889.429	671.160
225.796	14.013	888.746	670.389
226.811	14.275	888.219	670.988
227.826	14.094	888.316	670.276
228.840	14.151	887.448	669.787
229.855	14.267	886.290	669.322
230.869	14.256	885.368	668.523
231.884	14.262	884.953	668.172
232.899	14.101	884.332	667.001
233.913	14.218	883.096	666.478
234.928	14.261	882.572	666.194
235.942	14.000	882.546	665.073
236.957	14.187	881.568	665.022
237.972	14.204	880.625	664.320
238.986	14.212	880.095	663.896
240.001	14.232	879.578	663.527
241.015	14.099	879.122	662.592
242.030	14.142	878.311	662.093
243.045	14.355	877.458	662.240
244.059	14.355	876.974	661.816
245.074	14.410	876.253	661.430
246.088	14.351	875.869	660.849
247.103	14.309	875.354	660.235
248.117	14.378	874.770	660.011
249.132	14.392	874.099	659.499
250.147	14.482	873.653	659.462
251.161	14.626	872.899	659.405
252.176	14.652	872.307	658.999
253.190	14.586	871.608	658.154
254.205	14.618	871.440	658.095
255.220	14.827	870.168	657.900
256.234	14.713	869.810	657.122
257.249	14.896	869.116	657.258
258.263	14.893	868.584	656.788
259.278	14.791	868.029	655.909
260.293	14.755	867.300	655.159
261.307	14.718	867.043	654.761
262.322	14.899	866.348	654.886
263.336	14.897	865.870	654.458
264.351	14.935	865.108	653.974
265.366	14.978	864.450	653.588
266.380	14.871	863.904	652.697
267.395	14.879	863.126	652.085
268.409	14.877	862.371	651.447
269.424	14.812	861.793	650.703
270.439	14.816	861.419	650.379
271.453	14.916	860.207	649.792
272.468	14.977	859.288	649.279
273.482	14.817	859.131	648.482
274.497	14.876	858.836	648.428
275.512	14.858	858.090	647.738
276.526	14.868	857.149	647.009
277.541	14.930	856.499	646.701
278.555	14.938	855.863	646.197
279.570	15.062	855.350	646.230
280.585	14.980	855.122	645.683
281.599	15.143	854.028	645.430
282.614	15.050	853.622	644.707
283.628	15.086	853.161	644.441
284.643	15.051	852.417	643.686
285.657	15.113	852.029	643.575
286.672	15.197	851.228	643.234
287.687	14.975	851.201	642.304
288.701	15.059	850.532	642.065
289.716	15.168	849.937	641.977
290.730	15.128	849.419	641.378
291.745	15.215	848.808	641.194
292.760	15.195	847.634	640.172
293.774	15.163	847.368	639.792
294.789	15.265	846.798	639.694
295.803	15.342	846.185	639.468
296.818	15.318	845.691	638.947
297.833	15.213	845.066	638.020
298.847	15.214	844.404	637.467
299.862	15.302	843.876	637.346
300.876	15.318	843.071	636.742
301.891	15.379	842.422	636.427
302.906	15.367	841.939	635.961
303.920	15.464	841.215	635.726
304.935	15.475	840.521	635.185
305.949	15.447	840.051	634.667
306.964	15.627	839.208	634.654
307.979	15.606	838.630	634.082
308.993	15.473	838.432	633.376
310.008	15.407	838.130	632.841
311.022	15.575	837.372	632.845
312.037	15.689	836.602	632.638
313.052	15.389	836.548	631.411
314.066	15.578	835.891	631.569
315.081	15.478	835.213	630.627
316.095	15.517	834.814	630.415
317.110	15.567	833.922	629.875
318.125	15.635	833.247	629.562
319.139	15.597	833.003	629.180
320.154	15.574	832.170	628.408
321.168	15.489	832.045	627.943
322.183	15.618	831.189	627.722
323.197	15.609	830.798	627.337
324.212	15.647	829.950	626.783
325.227	15.750	829.579	626.833
326.241	15.589	829.102	625.818
327.256	15.562	828.492	625.201
328.270	15.579	828.346	625.098
329.285	15.531	827.643	624.333
330.300	15.605	826.966	624.044
331.314	15.721	826.421	624.008
332.329	15.752	825.458	623.337
333.343	15.679	825.009	622.673
334.358	15.749	824.459	622.463
335.373	15.748	824.284	622.272
336.387	15.826	823.774	622.122
337.402	15.933	822.971	621.855
338.416	15.802	822.566	621.009
339.431	15.871	821.818	620.644
340.446	15.998	821.386	620.731
341.460	15.908	820.887	619.967
342.475	15.958	820.310	619.661
343.489	15.949	819.894	619.258
344.504	16.108	818.926	619.058
345.519	16.077	818.688	618.707
346.533	16.169	818.282	618.686
347.548	16.076	818.055	618.116
348.562	15.945	817.305	617.017
349.577	16.054	816.482	616.741
350.592	16.010	816.131	616.259
351.606	16.013	815.732	615.914
352.621	16.099	814.666	615.368
353.635	16.128	814.172	615.045
354.650	15.997	814.470	614.738
355.665	16.098	813.981	614.684
356.679	16.163	813.292	614.347
357.694	16.077	813.108	613.841
358.708	16.216	812.485	613.820
359.723	16.322	811.371	613.309
360.738	16.153	811.080	612.421
361.752	16.132	810.736	612.032
362.767	16.163	810.261	611.731
363.781	16.293	809.783	611.787
364.796	16.209	809.522	611.232
365.810	16.325	809.018	611.218
366.825	16.564	808.672	611.765
367.840	16.417	808.374	610.957
368.854	16.392	807.932	610.475
369.869	16.534	807.103	610.308
370.883	16.505	806.662	609.817
371.898	16.287	806.313	608.713
372.913	16.380	805.803	608.610
373.927	16.523	804.860	608.357
374.942	16.525	804.106	607.741
375.956	16.576	803.748	607.598
376.971	16.683	803.210	607.522
377.986	16.566	802.633	606.612
379.000	16.646	802.103	606.447
380.015	16.793	801.803	606.693
381.029	16.692	801.030	605.691
382.044	16.664	800.551	605.176
383.059	16.636	799.945	604.564
384.073	16.776	799.495	604.672
385.088	16.696	799.167	604.084
386.102	16.610	798.722	603.388
387.117	16.607	798.217	602.941
388.132	16.665	797.440	602.508
389.146	16.657	797.220	602.259
390.161	16.587	797.149	601.905
391.175	16.641	796.431	601.499
392.190	16.735	796.046	601.489
393.205	16.676	795.917	601.129
394.219	16.798	795.048	600.853
395.234	16.679	794.936	600.294
396.248	16.795	793.959	599.913
397.263	16.655	793.690	599.162
398.278	16.614	793.529	598.841
399.292	16.788	792.654	598.745
400.307	16.752	792.389	598.365
401.321	16.819	791.705	598.031
402.336	16.932	791.340	598.101
403.350	16.654	791.381	597.097
404.365	16.816	791.083	597.391
405.380	16.834	790.046	596.619
406.394	17.071	789.594	597.057
407.409	17.011	789.483	596.710
408.423	16.975	789.022	596.181
409.438	16.965	788.605	595.781
410.453	17.126	788.036	595.863
411.467	17.074	787.650	595.335
412.482	17.179	786.739	594.962
413.496	17.124	786.774	594.742
414.511	17.044	786.326	594.070
415.526	17.117	785.954	593.993
416.540	17.126	785.780	593.841
417.555	17.298	785.110	593.883
418.569	17.393	784.471	593.678
419.584	17.230	783.916	592.637
420.599	17.271	783.515	592.426
421.613	108.944	1289.385	1468.802
422.628	93.302	1363.078	1468.884
