DTS Sentinel unit serial number:	SN413079Multiplexer serial number:	ORYXHardware model number:	OX4-SRSoftware version number:	ORYX F/W v4.00 Oryx Data Collector v3.7.2.0data status	okinstallation	princeton_trtdifferential loss correction	single-endedforward channel	channel 3reverse channel	N/Adate	2019/09/13time	16:20:35forward acquisition time	60.00reverse acquisition time	0.00gamma	496.2192k internal	0.2302k external	0.2302temperature offset calibration	1.0146default loss term (dB/km)	0.3790temperature slope calibration	1.0000multiplexer offset coefficient	1.0000multiplexer slope coefficient	1.0000fibre end	0.00T internal ref (°C)	34.94T ext. ref 1 (°C)	4.87T ext. ref 2 (°C)	31.24length (m)	temperature (°C)	Stokes	anti-Stokes-747.200	143.953	-0.104	0.141
-746.185	62.943	-0.111	0.113
-745.171	538.773	0.137	0.331
-744.156	-57.967	0.029	0.013
-743.142	119.599	-0.005	-0.006
-742.127	576.386	-0.166	0.413
-741.112	-59.853	0.165	-0.072
-740.098	-200.000	-0.028	0.142
-739.083	111.519	-0.053	0.066
-738.069	-117.796	-0.182	-0.033
-737.054	-7.128	0.098	0.067
-736.039	-145.432	-0.126	-0.012
-735.025	-200.000	-0.036	0.282
-734.010	-0.796	-0.234	-0.169
-732.996	61.719	-0.131	0.133
-731.981	-59.632	-0.213	-0.093
-730.966	-200.000	-0.021	-0.112
-729.952	-187.481	-0.273	-0.004
-728.937	800.000	0.038	-0.124
-727.923	29.101	-0.114	0.099
-726.908	377.170	-0.094	0.195
-725.894	50.305	-0.160	-0.154
-724.879	102.529	-0.170	0.202
-723.864	-9.457	-0.295	0.200
-722.850	800.000	-0.037	-0.108
-721.835	512.136	-0.141	-0.334
-720.821	-95.937	0.154	0.042
-719.806	39.005	0.145	-0.132
-718.791	-101.344	-0.094	-0.023
-717.777	-146.242	-0.254	-0.023
-716.762	193.249	-0.093	0.144
-715.748	-21.088	0.186	0.116
-714.733	748.130	-0.052	0.144
-713.718	-200.000	-0.039	-0.231
-712.704	36.059	0.101	-0.090
-711.689	-63.993	-0.364	-0.152
-710.675	-77.001	0.290	-0.103
-709.660	-67.042	0.197	0.079
-708.645	-130.986	-0.419	-0.057
-707.631	440.057	0.106	-0.235
-706.616	277.550	-0.137	0.249
-705.602	-125.945	0.263	-0.040
-704.587	-171.696	0.412	0.014
-703.572	-114.578	-0.169	-0.033
-702.558	-96.974	-0.138	-0.037
-701.543	-200.000	0.050	0.269
-700.529	-81.639	0.010	-0.003
-699.514	472.205	-0.160	-0.366
-698.499	109.423	0.090	-0.110
-697.485	-79.361	0.269	-0.093
-696.470	-182.288	-0.291	0.006
-695.456	-4.449	-0.124	0.087
-694.441	800.000	0.011	0.032
-693.426	178.595	0.109	0.163
-692.412	29.430	-0.206	0.178
-691.397	-33.799	-0.203	0.114
-690.383	125.263	-0.034	-0.043
-689.368	800.000	-0.106	0.313
-688.354	-126.662	-0.116	0.018
-687.339	27.656	-0.310	-0.265
-686.324	-152.881	-0.070	-0.005
-685.310	-176.017	-0.155	-0.004
-684.295	-50.240	-0.283	-0.136
-683.281	75.917	-0.036	0.039
-682.266	-66.633	0.044	-0.018
-681.251	-41.198	0.103	-0.054
-680.237	-105.357	0.170	-0.039
-679.222	-200.000	0.062	-0.369
-678.208	-121.397	-0.068	0.012
-677.193	-200.000	-0.001	-0.110
-676.178	575.705	-0.138	-0.343
-675.164	0.011	-0.229	0.166
-674.149	-80.423	-0.125	0.042
-673.135	6.401	0.068	-0.052
-672.120	-63.031	0.186	0.078
-671.105	-186.803	0.176	0.003
-670.091	23.340	-0.165	0.138
-669.076	-152.076	-0.586	-0.043
-668.062	-114.176	-0.107	-0.021
-667.047	351.803	-0.187	-0.375
-666.032	800.000	-0.046	0.148
-665.018	-58.478	0.255	-0.112
-664.003	-200.000	0.045	0.404
-662.989	-1.480	-0.357	0.256
-661.974	448.047	0.115	-0.256
-660.959	57.350	-0.406	-0.402
-659.945	800.000	0.052	0.174
-658.930	-18.949	0.196	0.124
-657.916	353.058	-0.079	0.160
-656.901	-200.000	0.045	-0.322
-655.886	-86.831	0.287	-0.089
-654.872	31.215	0.182	0.158
-653.857	-12.880	0.058	0.038
-652.843	800.000	-0.055	0.196
-651.828	104.635	-0.241	0.288
-650.814	-85.420	-0.516	0.163
-649.799	-200.000	0.046	-0.282
-648.784	-45.257	-0.336	0.170
-647.770	-200.000	-0.026	0.209
-646.755	-56.441	0.175	0.079
-645.741	193.081	-0.133	-0.204
-644.726	-200.000	-0.012	0.305
-643.711	-200.000	-0.002	0.022
-642.697	-200.000	-0.025	-0.180
-641.682	-200.000	-0.007	-0.038
-640.668	-145.448	0.318	0.029
-639.653	111.354	-0.055	-0.068
-638.638	18.156	-0.051	-0.041
-637.624	64.983	0.234	-0.240
-636.609	40.382	-0.154	-0.140
-635.595	-200.000	-0.024	-0.131
-634.580	-200.000	-0.004	-0.146
-633.565	-94.188	0.188	-0.052
-632.551	-75.588	-0.193	0.070
-631.536	-111.248	0.167	-0.035
-630.522	-94.686	-0.174	-0.048
-629.507	-200.000	-0.032	-0.452
-628.492	-112.568	-0.208	0.042
-627.478	-60.203	0.210	0.091
-626.463	349.003	0.113	-0.226
-625.449	22.916	0.252	-0.210
-624.434	453.253	-0.127	-0.285
-623.419	800.000	0.052	-0.180
-622.405	-63.993	-0.156	-0.065
-621.390	15.271	-0.217	0.173
-620.376	-200.000	0.029	0.183
-619.361	59.727	0.135	0.135
-618.346	-6.354	0.198	-0.137
-617.332	569.926	-0.021	0.053
-616.317	52.039	0.232	-0.224
-615.303	-200.000	-0.011	0.086
-614.288	-151.784	0.091	0.007
-613.273	-200.000	0.032	0.180
-612.259	121.353	-0.248	0.313
-611.244	-15.690	-0.244	0.158
-610.230	800.000	-0.074	0.248
-609.215	356.899	-0.155	-0.312
-608.201	-200.000	-0.020	-0.308
-607.186	-105.507	-0.238	-0.055
-606.171	181.522	0.106	-0.158
-605.157	328.178	0.151	-0.293
-604.142	22.090	-0.182	-0.151
-603.128	-118.234	0.073	-0.013
-602.113	-7.992	-0.376	-0.257
-601.098	-129.674	-0.025	0.003
-600.084	-200.000	-0.008	-0.209
-599.069	-30.259	0.203	0.117
-598.055	-130.640	0.177	0.024
-597.040	488.745	-0.044	0.102
-596.025	-149.795	0.232	-0.018
-595.011	706.439	-0.082	-0.220
-593.996	-111.063	0.152	0.032
-592.982	-200.000	-0.086	0.384
-591.967	800.000	-0.043	0.137
-590.952	379.549	-0.096	-0.199
-589.938	342.096	-0.146	-0.290
-588.923	33.252	0.083	-0.073
-587.909	67.557	-0.242	0.250
-586.894	661.770	-0.066	-0.172
-585.879	524.937	0.050	0.120
-584.865	-200.000	-0.023	-0.133
-583.850	-163.646	0.264	0.013
-582.836	82.365	-0.036	-0.040
-581.821	-26.704	0.288	-0.171
-580.806	457.424	-0.061	0.136
-579.792	-17.586	0.080	0.051
-578.777	-200.000	0.014	-0.202
-577.763	-200.000	0.015	-0.185
-576.748	-200.000	-0.009	-0.242
-575.733	210.588	-0.174	-0.277
-574.719	-200.000	0.082	0.447
-573.704	-200.000	-0.028	-0.155
-572.690	-200.000	-0.002	-0.054
-571.675	137.888	0.139	-0.184
-570.661	263.645	0.048	0.084
-569.646	-198.153	0.247	0.001
-568.631	150.138	0.354	-0.486
-567.617	-36.933	-0.236	0.128
-566.602	698.756	0.158	-0.421
-565.588	800.000	0.092	-0.393
-564.573	800.000	-0.049	-0.156
-563.558	-200.000	-0.028	-0.202
-562.544	0.098	-0.043	0.031
-561.529	-173.517	-0.190	-0.006
-560.515	-200.000	-0.040	-0.299
-559.500	515.867	-0.118	0.279
-558.485	736.013	-0.007	-0.018
-557.471	58.449	-0.295	-0.293
-556.456	-23.194	-0.188	0.114
-555.442	-38.087	0.251	0.134
-554.427	262.122	0.098	0.172
-553.412	-200.000	-0.066	-0.335
-552.398	800.000	0.054	-0.234
-551.383	-200.000	-0.032	0.158
-550.369	515.610	-0.125	-0.296
-549.354	-19.830	-0.137	0.086
-548.339	-66.926	-0.114	-0.046
-547.325	137.161	0.230	-0.304
-546.310	-200.000	-0.009	-0.110
-545.296	-163.170	-0.201	0.010
-544.281	60.752	-0.139	-0.140
-543.266	-200.000	-0.013	0.066
-542.252	49.650	-0.136	-0.130
-541.237	-102.704	-0.203	0.049
-540.223	-14.349	0.167	0.109
-539.208	131.219	-0.016	0.021
-538.193	122.351	-0.156	0.198
-537.179	-91.551	-0.149	-0.043
-536.164	-200.000	-0.029	-0.357
-535.150	-134.678	-0.385	-0.047
-534.135	-200.000	-0.170	-0.001
-533.121	401.998	-0.118	-0.251
-532.106	488.323	-0.134	0.310
-531.091	-25.967	-0.280	0.167
-530.077	800.000	-0.020	0.058
-529.062	20.480	-0.147	0.120
-528.048	-200.000	-0.004	0.166
-527.033	800.000	0.046	0.190
-526.018	179.896	0.079	-0.117
-525.004	-74.509	-0.062	-0.023
-523.989	20.062	-0.145	0.119
-522.975	-127.730	0.286	-0.042
-521.960	426.947	0.125	-0.273
-520.945	216.794	0.090	-0.144
-519.931	-179.866	0.232	-0.005
-518.916	-149.264	0.300	0.024
-517.902	-85.368	-0.230	0.073
-516.887	-81.035	0.066	0.022
-515.872	252.616	-0.181	0.312
-514.858	-9.482	0.121	-0.081
-513.843	-185.081	0.283	0.004
-512.829	-139.934	-0.127	-0.014
-511.814	98.454	-0.104	-0.121
-510.799	22.608	-0.239	-0.198
-509.785	-200.000	0.006	0.339
-508.770	564.592	0.048	0.118
-507.756	-150.844	0.248	0.019
-506.741	-200.000	-0.043	-0.265
-505.726	74.989	-0.106	-0.112
-504.712	78.728	-0.017	0.018
-503.697	-200.000	-0.018	-0.188
-502.683	-149.902	-0.210	0.017
-501.668	-100.731	-0.124	0.031
-500.653	-43.499	-0.077	0.039
-499.639	800.000	-0.033	0.139
-498.624	-200.000	-0.041	-0.203
-497.610	-188.299	-0.141	0.002
-496.595	93.874	0.116	0.133
-495.581	-112.098	-0.164	-0.033
-494.566	1.537	-0.087	-0.063
-493.551	-4.251	0.184	0.129
-492.537	-76.330	0.412	0.146
-491.522	102.130	-0.108	0.128
-490.508	154.094	-0.075	-0.104
-489.493	-200.000	0.027	0.287
-488.478	71.016	-0.105	0.109
-487.464	-200.000	0.037	-0.249
-486.449	-61.224	-0.179	-0.076
-485.435	800.000	-0.029	-0.123
-484.420	11.482	0.221	-0.171
-483.405	284.272	0.075	-0.137
-482.391	-188.953	0.206	0.003
-481.376	329.349	-0.158	-0.306
-480.362	800.000	-0.021	0.094
-479.347	5.293	-0.160	0.119
-478.332	800.000	0.029	-0.090
-477.318	-58.715	0.235	-0.102
-476.303	-200.000	-0.004	-0.226
-475.289	-88.982	-0.208	-0.062
-474.274	517.906	0.070	-0.166
-473.259	1.905	0.251	-0.182
-472.245	146.853	-0.087	-0.118
-471.230	-200.000	0.004	-0.197
-470.216	-46.169	0.163	-0.081
-469.201	800.000	0.075	-0.268
-468.186	-200.000	0.006	0.226
-467.172	279.582	0.104	0.186
-466.157	-89.320	-0.198	0.059
-465.143	-26.458	0.149	0.088
-464.128	-15.798	0.316	0.203
-463.113	515.939	0.150	0.353
-462.099	130.538	-0.045	-0.058
-461.084	-164.259	0.080	-0.004
-460.070	13.854	-0.305	-0.239
-459.055	8.062	0.107	-0.081
-458.040	100.366	-0.137	0.160
-457.026	141.081	-0.057	-0.076
-456.011	-158.776	0.314	-0.018
-454.997	92.831	-0.234	0.266
-453.982	28.033	-0.169	0.144
-452.968	-112.230	0.149	-0.030
-451.953	-70.622	0.326	-0.124
-450.938	-103.537	-0.322	-0.076
-449.924	-200.000	-0.008	0.057
-448.909	90.561	0.275	0.311
-447.895	-34.221	0.203	0.112
-446.880	39.307	0.180	0.162
-445.865	-27.651	-0.293	0.171
-444.851	-117.520	-0.110	0.020
-443.836	-175.882	-0.094	-0.003
-442.822	-200.000	-0.023	0.345
-441.807	-41.135	0.157	-0.081
-440.792	800.000	-0.035	0.129
-439.778	-8.926	0.193	0.130
-438.763	-69.948	-0.072	0.028
-437.749	-147.626	0.128	-0.011
-436.734	-163.280	-0.194	0.009
-435.719	104.426	-0.043	0.050
-434.705	85.597	-0.290	-0.321
-433.690	88.833	0.095	0.106
-432.676	-10.248	-0.184	-0.123
-431.661	5.466	-0.145	-0.108
-430.646	800.000	0.093	0.354
-429.632	-4.679	0.395	0.274
-428.617	343.174	0.093	0.183
-427.603	55.733	-0.088	-0.086
-426.588	-200.000	-0.006	0.190
-425.573	-200.000	0.000	-0.273
-424.559	800.000	-0.055	0.161
-423.544	-58.342	-0.266	-0.116
-422.530	-200.000	0.038	-0.352
-421.515	-82.095	0.247	0.081
-420.500	-193.357	0.318	-0.003
-419.486	-191.317	-0.204	-0.002
-418.471	-200.000	-0.027	0.277
-417.457	800.000	-0.025	0.108
-416.442	4.033	0.075	0.055
-415.428	548.644	-0.128	0.308
-414.413	-200.000	0.010	-0.086
-413.398	365.432	-0.114	0.231
-412.384	-200.000	0.023	-0.258
-411.369	-200.000	-0.019	-0.222
-410.355	54.211	0.191	0.185
-409.340	23.491	0.161	0.133
-408.325	800.000	0.040	0.129
-407.311	-67.085	0.356	0.141
-406.296	-82.559	-0.172	-0.056
-405.282	-200.000	0.012	-0.147
-404.267	-200.000	-0.026	0.122
-403.252	-60.346	0.401	-0.172
-402.238	330.368	0.106	0.206
-401.223	197.770	-0.035	-0.054
-400.209	-31.245	-0.311	0.176
-399.194	353.038	0.093	-0.186
-398.179	34.393	-0.139	-0.122
-397.165	-200.000	0.077	0.483
-396.150	-200.000	0.033	0.154
-395.136	-114.185	0.096	0.019
-394.121	-63.864	0.175	0.072
-393.106	-28.927	-0.026	0.015
-392.092	-153.498	-0.021	-0.001
-391.077	800.000	-0.052	0.222
-390.063	183.652	0.105	-0.156
-389.048	-20.417	0.361	-0.223
-388.033	114.382	0.038	0.046
-387.019	54.551	0.073	0.070
-386.004	800.000	-0.024	-0.089
-384.990	468.117	-0.109	0.245
-383.975	62.393	0.161	0.162
-382.960	-73.172	0.100	0.037
-381.946	-153.396	-0.051	-0.004
-380.931	-59.415	-0.086	-0.037
-379.917	-55.552	0.120	-0.054
-378.902	522.746	-0.075	-0.177
-377.888	-95.602	-0.262	-0.071
-376.873	316.746	-0.119	0.225
-375.858	800.000	0.084	0.268
-374.844	-200.000	0.002	0.168
-373.829	800.000	-0.038	0.128
-372.815	-33.081	0.120	0.067
-371.800	-109.236	-0.144	0.031
-370.785	120.233	-0.213	0.266
-369.771	154.196	-0.140	0.193
-368.756	-70.756	-0.360	-0.136
-367.742	-22.596	-0.314	-0.191
-366.727	-7.128	-0.058	0.040
-365.712	135.733	0.038	0.050
-364.698	-75.758	-0.175	0.062
-363.683	460.183	0.198	-0.444
-362.669	800.000	0.057	-0.192
-361.654	-26.635	-0.251	0.147
-360.639	-200.000	-0.023	-0.110
-359.625	-117.216	-0.353	-0.064
-358.610	95.943	-0.066	-0.076
-357.596	800.000	-0.040	0.123
-356.581	-200.000	0.035	-0.159
-355.566	-64.715	0.489	-0.199
-354.552	262.075	0.198	-0.345
-353.537	264.479	0.090	0.157
-352.523	-62.177	-0.173	0.072
-351.508	149.526	0.163	0.221
-350.493	-25.223	-0.162	-0.097
-349.479	-132.132	-0.453	0.059
-348.464	7.704	-0.209	0.157
-347.450	6.835	-0.161	-0.120
-346.435	-200.000	0.038	0.222
-345.420	91.924	0.092	-0.104
-344.406	448.844	0.172	0.380
-343.391	161.322	-0.073	-0.103
-342.377	-41.800	-0.083	-0.043
-341.362	18.790	0.249	0.200
-340.348	-200.000	-0.044	0.445
-339.333	188.679	0.037	-0.056
-338.318	-6.094	-0.131	-0.090
-337.304	-118.234	-0.044	0.008
-336.289	290.306	-0.088	-0.160
-335.275	-56.469	0.111	0.049
-334.260	-51.586	0.242	0.113
-333.245	-200.000	-0.005	-0.071
-332.231	-17.709	0.238	-0.150
-331.216	-56.824	0.197	0.088
-330.202	373.028	-0.049	-0.099
-329.187	310.353	-0.058	0.109
-328.172	-200.000	0.028	-0.162
-327.158	-107.412	-0.192	-0.042
-326.143	800.000	-0.055	0.160
-325.129	496.550	-0.115	0.264
-324.114	41.821	-0.255	0.232
-323.099	800.000	0.099	0.284
-322.085	1.190	0.164	0.118
-321.070	-200.000	0.055	0.379
-320.056	16.133	0.146	-0.115
-319.041	29.146	-0.236	-0.201
-318.026	90.840	0.159	0.179
-317.012	800.000	0.106	-0.336
-315.997	-200.000	-0.011	-0.115
-314.983	664.444	-0.113	-0.292
-313.968	-200.000	0.039	-0.188
-312.953	338.895	-0.135	0.264
-311.939	12.474	-0.049	-0.038
-310.924	-97.596	-0.185	-0.048
-309.910	193.579	0.094	-0.142
-308.895	82.151	-0.243	0.264
-307.880	-106.941	-0.053	-0.012
-306.866	-70.394	-0.145	0.055
-305.851	62.592	-0.284	-0.285
-304.837	-200.000	0.007	0.140
-303.822	236.374	-0.128	0.212
-302.807	800.000	-0.036	0.109
-301.793	800.000	0.029	-0.110
-300.778	108.321	0.246	0.294
-299.764	183.864	-0.061	-0.090
-298.749	-42.664	-0.105	0.054
-297.735	38.426	0.086	0.077
-296.720	-39.793	-0.104	0.054
-295.705	-52.490	0.430	0.199
-294.691	-144.406	0.381	0.035
-293.676	211.228	0.098	-0.155
-292.662	-35.641	0.157	-0.085
-291.647	-200.000	0.060	0.328
-290.632	-142.699	0.258	0.025
-289.618	-155.720	-0.307	0.020
-288.603	-200.000	0.031	0.299
-287.589	9.455	0.089	-0.067
-286.574	-200.000	-0.053	-0.379
-285.559	14.154	0.181	-0.141
-284.545	60.623	-0.079	0.079
-283.530	20.237	-0.115	-0.093
-282.516	-30.913	0.165	-0.093
-281.501	-146.794	-0.285	-0.025
-280.486	6.500	-0.066	-0.049
-279.472	800.000	-0.056	-0.156
-278.457	-200.000	0.055	-0.000
-277.443	-147.965	0.256	0.021
-276.428	784.442	-0.074	-0.202
-275.413	800.000	0.015	-0.055
-274.399	80.950	0.214	0.231
-273.384	-0.381	0.153	-0.109
-272.370	251.044	-0.157	0.268
-271.355	1.244	-0.273	0.196
-270.340	293.322	0.096	-0.175
-269.326	-6.001	-0.096	-0.066
-268.311	191.290	0.141	0.212
-267.297	-97.385	0.169	0.044
-266.282	-52.073	0.139	-0.065
-265.267	214.531	-0.037	0.058
-264.253	-85.977	-0.201	-0.062
-263.238	-200.000	-0.016	-0.131
-262.224	-131.447	-0.151	0.020
-261.209	172.586	0.258	0.371
-260.195	117.119	0.241	0.296
-259.180	-183.259	-0.168	0.003
-258.165	-160.556	-0.238	-0.013
-257.151	-129.064	0.156	-0.022
-256.136	-56.715	0.471	-0.208
-255.122	634.025	0.120	-0.305
-254.107	506.242	0.007	-0.017
-253.092	800.000	-0.061	0.250
-252.078	413.170	-0.055	-0.117
-251.063	-34.501	0.241	0.132
-250.049	800.000	0.078	0.323
-249.034	169.662	0.121	0.172
-248.019	98.484	-0.041	0.048
-247.005	199.123	0.066	0.101
-245.990	-143.510	0.271	0.026
-244.976	19.481	0.256	-0.206
-243.961	-200.000	0.021	-0.119
-242.946	-54.108	0.222	0.101
-241.932	55.602	0.135	0.131
-240.917	-95.678	0.086	-0.023
-239.903	48.361	-0.238	0.222
-238.888	118.642	0.025	0.030
-237.873	-200.000	-0.036	-0.235
-236.859	-200.000	-0.039	0.390
-235.844	-107.300	0.262	-0.058
-234.830	223.783	0.099	0.160
-233.815	44.962	-0.216	0.198
-232.800	-134.885	0.453	-0.055
-231.786	-118.628	0.225	0.040
-230.771	172.722	-0.153	-0.221
-229.757	800.000	-0.063	-0.257
-228.742	698.095	-0.082	-0.216
-227.727	314.514	0.056	0.105
-226.713	194.393	-0.257	0.388
-225.698	778.985	-0.096	0.262
-224.684	243.534	-0.178	0.298
-223.669	105.848	0.067	-0.080
-222.655	-200.000	0.001	-0.094
-221.640	800.000	0.090	-0.339
-220.625	-200.000	0.045	-0.226
-219.611	-54.810	-0.175	0.079
-218.596	-173.675	0.044	0.001
-217.582	439.034	-0.093	-0.203
-216.567	800.000	0.057	0.168
-215.552	-43.366	-0.375	0.189
-214.538	165.925	0.282	0.398
-213.523	-71.127	-0.112	0.042
-212.509	-42.871	-0.143	-0.073
-211.494	55.294	0.018	0.018
-210.479	148.682	-0.176	0.238
-209.465	448.178	0.128	0.282
-208.450	-200.000	0.034	-0.164
-207.436	338.708	0.112	-0.218
-206.421	-59.918	-0.390	-0.166
-205.406	-70.968	-0.086	-0.032
-204.392	-200.000	-0.000	-0.096
-203.377	603.187	0.032	0.079
-202.363	276.136	-0.067	0.118
-201.348	-200.000	0.061	0.408
-200.333	-139.401	0.065	-0.007
-199.319	-104.967	-0.130	0.030
-198.304	-130.740	-0.148	0.020
-197.290	800.000	-0.093	-0.339
-196.275	-200.000	0.020	-0.158
-195.260	530.821	0.101	-0.238
-194.246	800.000	0.148	-0.415
-193.231	-200.000	0.161	0.001
-192.217	154.397	-0.103	0.141
-191.202	-67.604	-0.199	0.078
-190.187	800.000	0.020	0.067
-189.173	-200.000	-0.030	-0.156
-188.158	778.491	-0.093	0.253
-187.144	155.591	0.178	-0.245
-186.129	-23.409	-0.146	-0.088
-185.114	168.312	-0.081	0.115
-184.100	-200.000	0.031	-0.182
-183.085	158.697	-0.137	-0.190
-182.071	800.000	-0.053	0.201
-181.056	800.000	0.032	-0.124
-180.042	209.885	0.048	0.075
-179.027	-117.920	0.162	0.029
-178.012	-153.265	-0.228	0.016
-176.998	59.386	0.220	-0.216
-175.983	55.034	-0.119	0.115
-174.969	706.526	-0.079	0.208
-173.954	590.058	-0.070	0.172
-172.939	-49.946	0.397	-0.188
-171.925	251.054	0.068	0.116
-170.910	800.000	0.075	0.223
-169.896	-115.390	0.332	0.062
-168.881	24.433	-0.379	0.313
-167.866	-200.000	-0.022	-0.105
-166.852	371.635	-0.125	-0.253
-165.837	-200.000	0.010	0.050
-164.823	-143.573	0.380	-0.036
-163.808	-161.704	-0.152	-0.008
-162.793	12.151	-0.079	-0.061
-161.779	112.116	-0.175	-0.210
-160.764	800.000	-0.045	-0.136
-159.750	-160.920	0.308	0.016
-158.735	-109.054	0.071	-0.015
-157.720	107.523	-0.130	0.154
-156.706	163.685	-0.147	0.206
-155.691	124.023	0.119	0.148
-154.677	800.000	0.049	-0.171
-153.662	-103.325	-0.079	0.019
-152.647	-41.752	-0.075	-0.038
-151.633	15.137	0.106	0.083
-150.618	69.308	-0.119	0.122
-149.604	569.352	-0.069	0.168
-148.589	165.820	-0.158	-0.223
-147.574	547.648	-0.078	-0.187
-146.560	-3.376	-0.058	0.040
-145.545	369.964	0.086	-0.174
-144.531	-107.711	-0.374	0.081
-143.516	-6.490	0.226	-0.154
-142.502	-58.144	-0.098	0.042
-141.487	200.329	-0.085	0.130
-140.472	-84.966	0.115	0.036
-139.458	-130.470	-0.152	-0.020
-138.443	220.500	0.095	-0.152
-137.429	-121.264	0.480	-0.080
-136.414	180.635	0.190	0.277
-135.399	152.463	0.175	0.238
-134.385	-126.389	-0.349	0.052
-133.370	-134.620	0.260	0.032
-132.356	800.000	0.009	0.030
-131.341	113.795	-0.132	0.160
-130.326	70.783	0.117	0.121
-129.312	-200.000	0.056	0.277
-128.297	-200.000	-0.044	-0.396
-127.283	-200.000	-0.006	-0.104
-126.268	131.379	0.059	-0.076
-125.253	-25.817	-0.396	-0.232
-124.239	800.000	-0.059	0.173
-123.224	-9.322	0.229	-0.152
-122.210	-119.354	0.208	0.036
-121.195	-66.899	0.174	-0.068
-120.180	-200.000	0.026	-0.351
-119.166	-92.355	-0.325	-0.091
-118.151	-151.004	0.337	0.025
-117.137	-200.000	-0.030	-0.219
-116.122	13.964	-0.099	-0.077
-115.107	108.878	0.037	-0.044
-114.093	203.884	0.109	0.167
-113.078	-122.302	-0.088	0.014
-112.064	-200.000	0.008	0.072
-111.049	15.886	-0.059	0.046
-110.034	-84.560	0.200	-0.063
-109.020	800.000	0.096	0.289
-108.005	-200.000	-0.022	0.128
-106.991	380.654	0.135	-0.276
-105.976	145.419	-0.183	0.243
-104.962	-124.091	-0.333	-0.052
-103.947	-0.625	0.087	-0.062
-102.932	-200.000	0.001	-0.068
-101.918	-91.037	0.359	0.102
-100.903	-137.040	-0.215	0.024
-99.889	50.828	-0.237	-0.223
-98.874	510.973	0.038	0.088
-97.859	-200.000	0.019	0.355
-96.845	24.695	-0.019	-0.016
-95.830	-94.152	0.378	0.103
-94.816	-121.149	0.050	-0.008
-93.801	655.809	0.015	0.037
-92.786	-200.000	0.074	-0.379
-91.772	435.197	0.065	-0.140
-90.757	-168.446	0.101	0.004
-89.743	64.601	-0.242	0.242
-88.728	246.614	-0.032	-0.054
-87.713	-22.696	-0.122	-0.073
-86.699	-200.000	0.014	0.154
-85.684	740.843	-0.085	0.226
-84.670	800.000	-0.012	0.045
-83.655	182.018	0.029	-0.042
-82.640	-200.000	0.000	0.004
-81.626	-126.503	0.146	0.022
-80.611	-124.914	0.125	0.019
-79.597	-200.000	-0.040	0.203
-78.582	520.198	-0.047	0.110
-77.567	-81.354	0.122	0.040
-76.553	284.424	-0.040	-0.071
-75.538	686.236	0.076	0.196
-74.524	800.000	0.024	-0.093
-73.509	-200.000	-0.010	0.067
-72.494	800.000	0.100	-0.342
-71.480	132.417	-0.135	0.173
-70.465	-160.702	-0.500	0.026
-69.451	800.000	-0.077	0.222
-68.436	-17.087	0.008	-0.005
-67.422	165.220	0.231	0.324
-66.407	87.591	0.118	0.130
-65.392	-71.209	0.175	-0.065
-64.378	-200.000	0.001	0.166
-63.363	-200.000	0.044	0.233
-62.349	100.701	0.126	0.145
-61.334	-63.933	-0.928	-0.376
-60.319	312.287	0.226	0.422
-59.305	800.000	-0.284	-0.891
-58.290	-200.000	0.194	0.933
-57.276	472.238	0.762	1.703
-56.261	-200.000	95.231	567.170
-55.246	644.358	1379.075	3490.291
-54.232	187.037	2594.892	3836.695
-53.217	122.588	2206.285	2736.630
-52.203	45.529	1740.635	1594.283
-51.188	38.028	1550.353	1367.636
-50.173	35.564	1522.656	1326.163
-49.159	53.702	1572.677	1497.458
-48.144	57.611	1591.667	1542.915
-47.130	38.429	1547.311	1367.533
-46.115	35.261	1531.305	1331.377
-45.100	34.955	1528.573	1326.826
-44.086	35.056	1526.303	1325.502
-43.071	34.928	1524.379	1322.893
-42.057	34.810	1523.029	1320.856
-41.042	34.862	1521.826	1320.117
-40.027	34.958	1519.861	1319.025
-39.013	34.957	1518.225	1317.544
-37.998	34.836	1517.521	1316.051
-36.984	34.980	1515.825	1315.515
-35.969	34.853	1515.126	1313.986
-34.954	35.014	1513.434	1313.573
-33.940	34.878	1512.203	1311.518
-32.925	35.016	1510.630	1311.047
-31.911	34.984	1509.285	1309.608
-30.896	35.056	1507.430	1308.440
-29.881	34.996	1506.608	1307.266
-28.867	34.958	1505.272	1305.790
-27.852	35.032	1503.677	1304.862
-26.838	35.060	1501.692	1303.280
-25.823	35.035	1500.327	1301.871
-24.809	34.957	1499.069	1300.196
-23.794	34.878	1498.023	1298.704
-22.779	35.061	1496.379	1298.467
-21.765	34.988	1495.157	1296.862
-20.750	35.036	1493.835	1295.985
-19.736	34.995	1493.449	1295.323
-18.721	34.961	1491.937	1293.732
-17.706	34.914	1491.434	1292.925
-16.692	34.994	1489.886	1292.075
-15.677	34.840	1489.045	1290.252
-14.663	34.874	1487.872	1289.417
-13.648	34.856	1487.086	1288.560
-12.633	34.798	1486.078	1287.243
-11.619	34.850	1485.044	1286.649
-10.604	34.911	1484.367	1286.418
-9.590	34.891	1483.547	1285.525
-8.575	34.952	1482.467	1284.945
-7.560	34.877	1482.051	1284.032
-6.546	34.941	1481.303	1283.761
-5.531	34.874	1480.254	1282.356
-4.517	34.917	1479.043	1281.543
-3.502	34.846	1478.301	1280.373
-2.487	34.937	1476.757	1279.594
-1.473	34.939	1475.664	1278.610
-0.458	34.861	1474.555	1277.077
0.556	37.112	1465.745	1267.759
1.571	34.169	1438.424	1225.109
2.586	29.984	1373.495	1143.914
3.600	27.597	1288.260	1058.983
4.615	25.162	1240.212	1005.764
5.629	21.295	1183.348	938.827
6.644	12.909	1098.336	829.304
7.659	6.195	1056.613	765.153
8.673	5.018	1050.845	755.214
9.688	4.803	1047.641	751.806
10.702	4.691	1045.511	749.672
11.717	4.957	1044.236	749.971
12.731	8.127	1047.870	767.798
13.746	16.154	1058.958	814.775
14.761	21.601	1065.918	846.467
15.775	22.119	1064.901	848.088
16.790	21.300	1063.421	842.885
17.804	20.209	1061.547	836.068
18.819	19.311	1059.448	830.016
19.834	18.944	1058.260	827.249
20.848	18.747	1057.135	825.349
21.863	18.700	1056.497	824.551
22.877	18.413	1055.766	822.532
23.892	18.335	1055.084	821.551
24.907	18.119	1054.606	820.070
25.921	18.148	1053.774	819.490
26.936	18.205	1052.634	818.806
27.950	18.206	1051.802	818.089
28.965	18.242	1050.519	817.191
29.980	18.433	1049.576	817.297
30.994	18.439	1048.170	816.159
32.009	18.548	1047.688	816.228
33.023	18.668	1047.030	816.216
34.038	18.651	1045.402	814.791
35.053	18.557	1044.773	813.788
36.067	18.406	1043.984	812.383
37.082	18.303	1043.194	811.206
38.096	18.300	1042.732	810.762
39.111	18.481	1041.638	810.695
40.126	18.434	1041.519	810.311
41.140	18.445	1040.092	809.180
42.155	18.207	1038.566	806.799
43.169	17.973	1037.827	805.051
44.184	17.966	1036.507	803.925
45.199	17.903	1035.750	802.970
46.213	18.035	1034.148	802.274
47.228	17.942	1033.955	801.616
48.242	18.236	1032.878	802.089
49.257	18.445	1032.029	802.340
50.271	18.397	1031.059	801.290
51.286	18.448	1030.025	800.655
52.301	18.404	1029.693	800.120
53.315	18.452	1028.487	799.335
54.330	18.442	1027.436	798.401
55.344	18.121	1026.823	796.358
56.359	18.010	1025.814	794.989
57.374	18.214	1025.076	795.294
58.388	18.042	1023.946	793.548
59.403	18.065	1022.854	792.742
60.417	17.914	1022.265	791.514
61.432	17.847	1021.603	790.621
62.447	17.884	1021.607	790.726
63.461	17.919	1019.917	789.510
64.476	17.778	1019.413	788.399
65.490	17.814	1018.231	787.581
66.505	17.777	1017.346	786.653
67.520	17.842	1016.707	786.388
68.534	17.882	1015.629	785.671
69.549	17.750	1015.418	784.833
70.563	17.795	1014.209	784.033
71.578	17.817	1013.992	783.897
72.593	17.718	1012.637	782.327
73.607	17.623	1011.401	780.868
74.622	17.530	1011.017	780.075
75.636	17.632	1009.614	779.389
76.651	17.615	1008.993	778.763
77.666	17.696	1008.325	778.551
78.680	17.683	1007.600	777.862
79.695	17.628	1007.557	777.509
80.709	17.728	1006.635	777.183
81.724	17.731	1006.199	776.795
82.739	17.866	1005.450	776.759
83.753	17.978	1004.499	776.465
84.768	18.166	1003.912	776.799
85.782	18.464	1003.499	777.763
86.797	18.605	1002.856	777.833
87.812	18.555	1002.013	776.886
88.826	18.598	1000.406	775.765
89.841	18.261	999.913	773.791
90.855	18.423	999.144	773.859
91.870	18.578	998.467	773.968
92.884	18.564	997.732	773.266
93.899	18.514	997.147	772.518
94.914	18.495	996.477	771.843
95.928	18.517	995.677	771.255
96.943	18.667	994.744	771.140
97.957	18.462	993.819	769.431
98.972	18.367	993.171	768.439
99.987	18.546	991.762	768.082
101.001	18.414	991.787	767.441
102.016	18.457	990.697	766.720
103.030	18.388	989.561	765.466
104.045	18.596	988.470	765.484
105.060	18.476	987.457	764.096
106.074	18.306	986.823	762.781
107.089	18.187	985.686	761.306
108.103	17.921	985.013	759.532
109.118	17.714	984.209	757.926
110.133	17.886	982.934	757.641
111.147	17.814	982.267	756.743
112.162	17.637	981.468	755.275
113.176	17.814	980.256	755.056
114.191	17.865	979.759	754.835
115.206	18.078	978.692	754.887
116.220	18.005	978.019	753.980
117.235	18.170	976.970	753.828
118.249	17.921	976.022	751.933
119.264	17.954	975.268	751.434
120.279	17.775	974.693	750.137
121.293	17.811	973.592	749.382
122.308	17.808	972.959	748.813
123.322	17.636	972.331	747.508
124.337	17.665	971.041	746.580
125.352	17.459	970.003	744.815
126.366	17.575	968.901	744.408
127.381	17.644	967.693	743.714
128.395	17.610	966.907	742.897
129.410	17.686	966.024	742.485
130.424	17.717	964.896	741.686
131.439	17.736	964.364	741.296
132.454	17.851	963.726	741.236
133.468	18.034	962.753	741.218
134.483	18.055	962.204	740.819
135.497	17.939	961.608	739.794
136.512	17.950	961.055	739.349
137.527	18.150	960.184	739.481
138.541	18.036	959.367	738.292
139.556	17.957	959.161	737.728
140.570	18.052	958.024	737.197
141.585	18.299	956.961	737.379
142.600	18.350	956.954	737.530
143.614	18.399	956.163	737.062
144.629	18.429	955.672	736.751
145.643	18.512	954.708	736.297
146.658	18.519	953.613	735.417
147.673	18.283	952.663	733.610
148.687	18.112	951.625	732.012
149.702	18.057	950.831	731.101
150.716	18.091	949.492	730.154
151.731	18.015	948.480	728.985
152.746	17.949	948.200	728.426
153.760	18.102	947.657	728.596
154.775	18.070	946.705	727.662
155.789	18.261	945.892	727.785
156.804	18.191	945.822	727.372
157.819	18.281	944.683	726.810
158.833	18.290	943.961	726.229
159.848	18.550	943.659	727.034
160.862	18.641	943.075	726.908
161.877	18.563	942.204	725.841
162.892	18.289	940.836	723.565
163.906	18.047	939.879	721.743
164.921	17.935	939.148	720.646
165.935	18.079	937.703	720.079
166.950	18.072	936.985	719.436
167.964	18.095	936.223	718.882
168.979	18.280	934.903	718.582
169.994	18.180	933.854	717.295
171.008	18.142	933.169	716.546
172.023	18.171	932.438	716.041
173.037	18.359	931.716	716.211
174.052	18.530	931.171	716.443
175.067	18.496	930.577	715.781
176.081	18.255	929.877	714.171
177.096	18.048	928.437	712.141
178.110	17.953	927.763	711.163
179.125	17.990	927.742	711.239
180.140	18.162	926.042	710.589
181.154	18.087	925.644	709.909
182.169	18.343	925.163	710.542
183.183	18.211	924.783	709.636
184.198	18.485	923.855	709.998
185.213	18.589	923.245	709.896
186.227	18.514	922.588	709.020
187.242	18.525	922.094	708.622
188.256	18.606	921.772	708.646
189.271	18.685	920.994	708.313
190.286	18.688	920.414	707.814
191.300	18.516	919.298	706.187
192.315	18.260	918.027	704.093
193.329	17.874	917.347	701.921
194.344	17.964	917.009	701.970
195.359	18.187	916.284	702.271
196.373	18.269	916.029	702.351
197.388	18.327	915.288	701.957
198.402	18.562	915.274	702.846
199.417	18.749	914.898	703.264
200.432	18.923	914.026	703.243
201.446	19.017	913.946	703.503
202.461	18.902	913.879	702.918
203.475	19.023	913.171	702.807
204.490	18.912	912.495	701.772
205.504	18.697	911.548	700.103
206.519	18.649	911.036	699.453
207.534	18.655	909.795	698.462
208.548	18.629	909.121	697.779
209.563	18.622	908.192	696.974
210.577	18.547	907.871	696.362
211.592	18.756	906.951	696.441
212.607	18.838	906.929	696.695
213.621	18.960	906.595	696.872
214.636	18.882	905.739	695.836
215.650	18.788	905.024	694.847
216.665	18.869	904.688	694.854
217.680	19.018	903.750	694.674
218.694	19.057	903.352	694.465
219.709	19.038	902.913	693.989
220.723	18.932	902.677	693.318
221.738	18.912	901.561	692.319
222.753	18.992	900.914	692.081
223.767	18.864	900.204	690.961
224.782	18.981	899.415	690.763
225.796	19.064	898.836	690.592
226.811	19.212	898.173	690.613
227.826	19.083	897.700	689.675
228.840	19.050	896.821	688.804
229.855	18.856	896.176	687.470
230.869	19.026	895.203	687.345
231.884	18.815	894.603	685.980
232.899	18.911	893.753	685.650
233.913	18.671	893.194	684.203
234.928	18.777	892.396	683.953
235.942	18.714	891.689	683.100
236.957	18.670	891.260	682.537
237.972	18.721	890.328	681.965
238.986	18.836	889.479	681.711
240.001	18.775	889.140	681.147
241.015	18.771	888.301	680.430
242.030	18.861	887.933	680.446
243.045	18.905	887.522	680.242
244.059	19.016	886.737	680.020
245.074	19.021	885.983	679.403
246.088	18.925	885.764	678.795
247.103	19.049	885.205	678.797
248.117	19.246	884.210	678.749
249.132	19.334	884.235	679.053
250.147	19.684	883.406	679.736
251.161	19.775	883.000	679.721
252.176	19.840	882.133	679.246
253.190	19.676	882.264	678.643
254.205	19.903	881.309	678.742
255.220	19.905	880.776	678.276
256.234	19.910	880.136	677.743
257.249	19.766	879.503	676.635
258.263	19.843	878.556	676.145
259.278	19.782	878.314	675.663
260.293	19.792	877.942	675.353
261.307	19.943	877.225	675.333
262.322	19.913	876.549	674.634
263.336	19.860	876.398	674.251
264.351	19.978	875.695	674.111
265.366	19.913	874.978	673.248
266.380	19.994	874.390	673.050
267.395	20.016	874.022	672.792
268.409	19.944	873.042	671.698
269.424	19.825	872.417	670.698
270.439	19.862	871.387	669.988
271.453	19.896	870.459	669.349
272.468	19.643	870.135	668.064
273.482	19.631	869.209	667.244
274.497	19.757	868.599	667.206
275.512	19.743	867.959	666.601
276.526	19.668	867.310	665.753
277.541	19.690	866.648	665.271
278.555	19.775	866.522	665.443
279.570	19.762	865.837	664.810
280.585	20.153	865.255	665.805
281.599	20.261	864.599	665.656
282.614	20.138	863.620	664.372
283.628	19.941	863.036	663.107
284.643	19.947	862.682	662.801
285.657	19.955	862.490	662.626
286.672	19.817	861.454	661.243
287.687	19.845	861.717	661.492
288.701	19.984	860.761	661.233
289.716	19.978	859.972	660.544
290.730	19.859	860.002	660.053
291.745	20.081	858.634	659.791
292.760	20.026	858.236	659.217
293.774	20.060	857.492	658.719
294.789	20.328	857.249	659.492
295.803	20.396	856.704	659.272
296.818	20.078	855.713	657.246
297.833	19.887	855.391	656.214
298.847	20.054	854.642	656.216
299.862	20.009	853.828	655.363
300.876	20.159	853.102	655.316
301.891	20.242	852.716	655.271
302.906	20.258	852.185	654.867
303.920	20.372	851.165	654.456
304.935	20.380	851.129	654.399
305.949	20.418	850.769	654.206
306.964	20.422	850.515	653.972
307.979	20.562	848.916	653.210
308.993	20.220	849.126	652.027
310.008	20.417	848.454	652.192
311.022	20.550	847.873	652.188
312.037	20.443	847.190	651.204
313.052	20.268	846.815	650.203
314.066	20.128	846.167	649.122
315.081	19.946	845.329	647.740
316.095	19.919	845.034	647.356
317.110	19.967	844.273	646.897
318.125	20.044	843.657	646.653
319.139	20.046	843.346	646.368
320.154	20.138	842.542	646.035
321.168	20.083	842.187	645.501
322.183	20.160	841.571	645.257
323.197	20.103	841.418	644.873
324.212	20.140	840.801	644.480
325.227	20.331	839.918	644.458
326.241	20.332	839.397	644.002
327.256	20.259	839.073	643.427
328.270	20.346	838.286	643.086
329.285	20.263	837.819	642.365
330.300	20.156	837.221	641.454
331.314	20.101	836.925	640.968
332.329	20.167	836.137	640.552
333.343	20.324	835.344	640.465
334.358	20.546	834.818	640.823
335.373	20.412	834.565	640.079
336.387	20.397	834.010	639.542
337.402	20.449	833.440	639.240
338.416	20.770	832.740	639.826
339.431	20.591	832.676	639.064
340.446	20.721	832.231	639.141
341.460	20.909	831.640	639.320
342.475	20.880	831.095	638.742
343.489	20.965	830.147	638.265
344.504	21.170	830.032	638.871
345.519	21.109	829.566	638.235
346.533	21.097	829.101	637.776
347.548	20.988	828.810	637.097
348.562	21.048	827.766	636.458
349.577	20.930	827.064	635.429
350.592	20.659	826.327	633.821
351.606	20.558	826.127	633.243
352.621	20.620	825.137	632.656
353.635	20.640	824.933	632.514
354.650	20.604	824.817	632.238
355.665	20.765	824.208	632.299
356.679	20.684	824.066	631.843
357.694	20.841	823.308	631.775
358.708	20.915	822.601	631.442
359.723	20.892	821.989	630.834
360.738	20.809	821.576	630.163
361.752	20.813	821.007	629.683
362.767	21.038	820.316	629.912
363.781	20.976	820.674	629.907
364.796	21.133	820.162	630.023
365.810	21.106	819.903	629.672
366.825	21.337	819.106	629.838
367.840	21.291	819.179	629.670
368.854	21.398	818.953	629.827
369.869	21.222	818.148	628.518
370.883	21.241	817.361	627.926
371.898	21.086	817.019	627.052
372.913	21.195	816.760	627.191
373.927	21.279	816.042	626.883
374.942	21.197	815.131	625.835
375.956	21.324	814.347	625.633
376.971	21.395	813.691	625.328
377.986	21.412	813.519	625.202
379.000	21.606	812.919	625.377
380.015	21.679	812.274	625.085
381.029	21.491	812.044	624.182
382.044	21.483	811.353	623.570
383.059	21.534	810.566	623.089
384.073	21.646	810.285	623.216
385.088	21.570	809.950	622.632
386.102	21.267	809.137	620.878
387.117	21.260	808.326	620.174
388.132	21.230	807.845	619.646
389.146	21.309	807.298	619.448
390.161	21.440	807.069	619.682
391.175	21.374	806.820	619.203
392.190	21.352	806.855	619.099
393.205	21.545	805.940	619.023
394.219	21.516	805.156	618.265
395.234	21.464	804.679	617.661
396.248	21.213	804.136	616.304
397.263	21.168	803.964	615.957
398.278	21.140	803.289	615.287
399.292	21.037	803.093	614.721
400.307	21.138	801.978	614.169
401.321	21.147	802.144	614.271
402.336	21.211	801.375	613.852
403.350	21.400	800.937	614.127
404.365	21.396	800.947	614.067
405.380	21.561	800.229	614.040
406.394	21.697	800.016	614.299
407.409	21.536	799.810	613.523
408.423	21.775	799.062	613.731
409.438	21.778	798.974	613.620
410.453	21.892	798.496	613.598
411.467	21.858	798.271	613.251
412.482	21.913	797.605	612.878
413.496	21.976	796.963	612.550
414.511	22.094	797.106	613.018
415.526	22.068	796.327	612.275
416.540	22.088	796.126	612.135
417.555	21.997	795.641	611.392
418.569	21.954	795.212	610.856
419.584	22.021	794.743	610.678
420.599	21.997	794.111	610.053
421.613	158.699	1367.866	1789.060
422.628	137.542	1451.479	1789.144
