DTS Sentinel unit serial number:	SN413079Multiplexer serial number:	ORYXHardware model number:	OX4-SRSoftware version number:	ORYX F/W v4.00 Oryx Data Collector v3.7.2.0data status	okinstallation	princeton_trtdifferential loss correction	single-endedforward channel	channel 3reverse channel	N/Adate	2019/09/19time	03:44:35forward acquisition time	60.00reverse acquisition time	0.00gamma	496.2192k internal	0.2347k external	0.2347temperature offset calibration	0.9983default loss term (dB/km)	0.3790temperature slope calibration	1.0000multiplexer offset coefficient	1.0000multiplexer slope coefficient	1.0000fibre end	0.00T internal ref (°C)	20.52T ext. ref 1 (°C)	0.64T ext. ref 2 (°C)	14.16length (m)	temperature (°C)	Stokes	anti-Stokes-747.200	-109.810	0.060	-0.013
-746.185	-141.235	-0.297	0.030
-745.171	129.519	-0.061	-0.078
-744.156	-110.758	-0.180	-0.037
-743.142	-61.969	-0.443	0.185
-742.127	-200.000	-0.085	0.530
-741.112	40.440	0.111	-0.099
-740.098	-200.000	-0.037	0.166
-739.083	-55.255	-0.139	0.063
-738.069	-109.175	0.118	-0.025
-737.054	800.000	0.014	0.057
-736.039	-74.607	-0.084	0.030
-735.025	-113.362	-0.215	-0.042
-734.010	-22.735	-0.261	0.157
-732.996	-124.870	0.306	0.047
-731.981	-124.077	0.399	-0.063
-730.966	172.436	-0.078	0.112
-729.952	-118.108	-0.034	-0.006
-728.937	-200.000	-0.024	-0.408
-727.923	-48.167	-0.113	-0.055
-726.908	800.000	0.130	-0.482
-725.894	-200.000	0.002	-0.187
-724.879	151.321	-0.246	-0.334
-723.864	-200.000	-0.013	-0.236
-722.850	-129.310	0.352	-0.049
-721.835	-200.000	-0.075	-0.455
-720.821	327.838	-0.149	0.286
-719.806	-135.057	-0.272	0.033
-718.791	-16.489	0.183	-0.116
-717.777	-55.725	0.273	-0.122
-716.762	149.429	-0.065	-0.088
-715.748	-32.992	0.278	-0.154
-714.733	8.114	-0.029	0.021
-713.718	413.747	0.055	0.117
-712.704	742.941	-0.137	-0.367
-711.689	-200.000	0.010	-0.095
-710.675	-200.000	-0.029	-0.408
-709.660	52.985	-0.270	0.258
-708.645	-7.792	-0.157	-0.106
-707.631	800.000	0.009	0.024
-706.616	52.922	0.168	0.160
-705.602	170.285	-0.182	-0.260
-704.587	323.174	-0.013	-0.025
-703.572	207.438	-0.071	-0.111
-702.558	15.582	0.141	0.110
-701.543	338.202	0.078	0.152
-700.529	-89.371	-0.329	-0.097
-699.514	499.894	-0.034	0.078
-698.499	-133.535	-0.072	-0.009
-697.485	-128.869	0.228	0.032
-696.470	10.463	-0.138	0.105
-695.456	38.839	0.214	0.191
-694.441	197.720	0.316	0.482
-693.426	-200.000	-0.016	-0.164
-692.412	-200.000	-0.338	-0.000
-691.397	12.107	0.075	-0.057
-690.383	74.283	0.338	-0.355
-689.368	112.348	-0.269	0.324
-688.354	-200.000	-0.004	0.093
-687.339	-70.304	0.244	0.092
-686.324	-8.352	0.320	-0.214
-685.310	593.977	-0.027	0.067
-684.295	366.314	-0.023	0.046
-683.281	-49.428	0.093	-0.044
-682.266	4.165	0.177	-0.129
-681.251	70.611	-0.152	0.157
-680.237	249.945	-0.143	-0.242
-679.222	-69.232	-0.052	0.020
-678.208	14.459	-0.056	0.044
-677.193	176.024	0.058	-0.084
-676.178	-8.355	-0.081	-0.055
-675.164	-41.375	0.213	0.109
-674.149	160.215	0.109	0.151
-673.135	784.335	-0.019	-0.051
-672.120	127.655	0.075	-0.095
-671.105	-200.000	0.065	0.371
-670.091	288.203	0.083	-0.150
-669.076	-164.871	-0.242	0.011
-668.062	800.000	-0.080	0.279
-667.047	-85.343	-0.361	-0.112
-666.032	-200.000	0.012	0.201
-665.018	-200.000	0.011	0.141
-664.003	-31.215	-0.075	0.042
-662.989	187.679	0.083	0.124
-661.974	-104.291	0.268	0.062
-660.959	158.489	-0.077	-0.107
-659.945	761.618	-0.157	0.425
-658.930	-200.000	0.016	0.455
-657.916	-2.746	-0.084	0.059
-656.901	529.803	-0.009	0.022
-655.886	-138.490	0.109	0.012
-654.872	46.607	0.034	-0.031
-653.857	800.000	0.049	0.209
-652.843	276.973	-0.131	-0.233
-651.828	-200.000	0.060	-0.412
-650.814	-200.000	-0.018	-0.114
-649.799	331.033	0.155	-0.298
-648.784	695.692	-0.031	-0.080
-647.770	800.000	-0.136	0.429
-646.755	185.767	-0.169	-0.250
-645.741	-71.115	0.281	0.105
-644.726	-62.541	-0.197	0.082
-643.711	117.760	0.112	-0.137
-642.697	-27.414	0.385	0.223
-641.682	111.304	-0.092	0.110
-640.668	800.000	-0.031	-0.135
-639.653	-171.556	-0.204	-0.007
-638.638	-165.770	0.193	0.008
-637.624	29.921	0.299	-0.254
-636.609	-67.382	-0.136	-0.053
-635.595	11.217	-0.086	-0.065
-634.580	-200.000	-0.010	0.185
-633.565	-42.082	0.059	0.030
-632.551	-100.117	-0.309	-0.077
-631.536	697.734	-0.026	0.068
-630.522	-200.000	0.075	0.488
-629.507	82.704	0.087	-0.094
-628.492	-16.990	0.353	-0.222
-627.478	800.000	-0.079	0.248
-626.463	-124.749	-0.201	0.031
-625.449	800.000	-0.063	-0.172
-624.434	-96.105	-0.261	0.069
-623.419	-138.725	0.235	0.025
-622.405	-65.920	0.246	-0.098
-621.390	-64.494	-0.139	0.056
-620.376	-200.000	-0.017	0.142
-619.361	-63.735	0.315	0.129
-618.346	-200.000	-0.091	0.406
-617.332	-200.000	-0.019	0.144
-616.317	524.894	-0.047	-0.110
-615.303	46.907	-0.177	0.164
-614.288	11.513	-0.160	-0.122
-613.273	21.489	0.173	-0.140
-612.259	-200.000	0.011	0.059
-611.244	13.784	-0.107	0.083
-610.230	1.569	0.168	-0.120
-609.215	800.000	0.047	0.150
-608.201	800.000	-0.057	0.205
-607.186	227.969	-0.117	-0.189
-606.171	-82.904	0.040	0.013
-605.157	-28.071	0.111	-0.064
-604.142	545.870	0.081	0.192
-603.128	23.275	-0.211	0.172
-602.113	3.522	0.245	0.177
-601.098	-200.000	-0.023	0.100
-600.084	-88.482	-0.560	0.166
-599.069	-34.680	0.217	0.118
-598.055	-200.000	-0.005	-0.198
-597.040	557.627	0.153	0.365
-596.025	9.570	-0.113	0.085
-595.011	-200.000	-0.046	0.237
-593.996	-122.829	0.130	-0.021
-592.982	-200.000	0.021	-0.208
-591.967	800.000	-0.032	0.104
-590.952	-94.155	0.201	-0.055
-589.938	610.425	-0.049	0.123
-588.923	-114.931	0.065	-0.012
-587.909	-3.003	-0.127	-0.088
-586.894	-19.565	0.057	-0.035
-585.879	-140.796	0.100	0.010
-584.865	-200.000	0.024	0.144
-583.850	125.040	-0.139	-0.173
-582.836	102.839	0.102	0.118
-581.821	696.939	0.075	0.195
-580.806	-58.263	0.152	0.066
-579.792	-111.218	0.218	-0.044
-578.777	11.081	-0.277	0.210
-577.763	47.529	-0.345	-0.320
-576.748	-50.603	0.516	0.241
-575.733	800.000	0.056	-0.180
-574.719	-32.080	-0.165	0.092
-573.704	-102.513	0.376	0.089
-572.690	-4.759	0.260	0.178
-571.675	180.085	0.164	-0.238
-570.661	685.058	0.048	0.125
-569.646	188.557	0.114	0.169
-568.631	-108.786	0.210	0.045
-567.617	-3.802	0.247	-0.171
-566.602	6.441	-0.160	-0.118
-565.588	-200.000	-0.045	-0.307
-564.573	-200.000	-0.004	0.134
-563.558	-200.000	-0.035	-0.236
-562.544	126.729	0.045	-0.056
-561.529	-114.895	0.239	0.045
-560.515	800.000	0.083	0.240
-559.500	11.375	0.286	0.218
-558.485	800.000	-0.002	-0.005
-557.471	48.764	-0.096	0.089
-556.456	800.000	-0.098	-0.350
-555.442	-200.000	-0.005	-0.269
-554.427	-41.371	0.280	0.143
-553.412	-22.735	-0.238	-0.143
-552.398	-133.713	-0.267	-0.033
-551.383	-109.769	-0.305	0.064
-550.369	10.015	-0.148	0.111
-549.354	-200.000	0.047	0.246
-548.339	-115.468	-0.016	0.003
-547.325	171.175	0.135	-0.193
-546.310	-130.361	0.184	-0.025
-545.296	-111.111	0.105	0.021
-544.281	-200.000	0.011	0.147
-543.266	-72.488	0.500	0.183
-542.252	59.835	0.195	-0.190
-541.237	-47.164	0.245	-0.119
-540.223	800.000	0.054	0.149
-539.208	-49.166	0.042	-0.020
-538.193	-45.345	-0.194	-0.095
-537.179	-167.582	-0.146	0.006
-536.164	-32.077	0.132	-0.073
-535.150	-45.136	0.195	-0.096
-534.135	-200.000	0.007	0.132
-533.121	13.374	-0.279	0.214
-532.106	800.000	-0.085	-0.332
-531.091	-76.080	-0.043	0.015
-530.077	266.635	0.077	0.133
-529.062	44.165	-0.291	-0.265
-528.048	-72.190	-0.211	-0.078
-527.033	-90.548	0.186	-0.053
-526.018	103.636	-0.151	0.175
-525.004	-200.000	0.001	0.004
-523.989	-97.965	-0.298	-0.076
-522.975	-50.932	-0.095	0.044
-521.960	-200.000	0.033	-0.170
-520.945	12.957	-0.206	0.158
-519.931	-200.000	0.008	0.053
-518.916	455.936	-0.082	0.181
-517.902	113.982	-0.077	-0.093
-516.887	42.694	-0.123	-0.111
-515.872	-106.630	0.192	0.042
-514.858	-90.295	-0.129	0.037
-513.843	800.000	0.031	-0.090
-512.829	800.000	-0.060	0.234
-511.814	104.398	-0.072	-0.084
-510.799	145.402	0.051	-0.068
-509.785	-46.842	0.219	-0.106
-508.770	21.188	0.072	0.058
-507.756	-200.000	-0.034	0.154
-506.741	-200.000	-0.022	-0.123
-505.726	99.862	0.441	-0.506
-504.712	73.492	0.012	-0.012
-503.697	-5.837	-0.329	0.223
-502.683	-54.371	0.170	-0.076
-501.668	263.838	0.018	0.031
-500.653	-200.000	-0.003	-0.112
-499.639	-127.113	0.138	0.020
-498.624	-89.627	-0.203	-0.059
-497.610	800.000	0.055	-0.176
-496.595	-162.457	-0.063	0.003
-495.581	800.000	-0.037	-0.151
-494.566	800.000	-0.070	-0.207
-493.551	-81.788	-0.059	-0.019
-492.537	-95.716	-0.151	0.040
-491.522	-97.186	-0.258	-0.067
-490.508	165.897	-0.169	-0.236
-489.493	148.472	0.168	-0.225
-488.478	39.460	0.152	-0.135
-487.464	220.118	0.109	-0.174
-486.449	-63.859	-0.456	0.185
-485.435	490.183	-0.187	-0.424
-484.420	-79.358	0.265	-0.089
-483.405	-200.000	0.032	-0.272
-482.391	-200.000	-0.038	-0.281
-481.376	-131.553	0.192	0.025
-480.362	-30.533	0.283	0.159
-479.347	-29.220	-0.139	0.079
-478.332	-200.000	-0.029	-0.151
-477.318	87.902	-0.098	-0.107
-476.303	89.196	0.050	-0.055
-475.289	-200.000	-0.041	0.207
-474.274	-171.710	0.156	-0.005
-473.259	-10.832	-0.146	-0.095
-472.245	-102.046	0.192	0.046
-471.230	109.184	-0.128	-0.151
-470.216	-83.421	-0.327	-0.104
-469.201	-142.153	-0.070	-0.007
-468.186	-145.920	-0.093	0.008
-467.172	41.428	0.103	0.092
-466.157	237.502	0.056	-0.091
-465.143	-60.350	-0.409	0.172
-464.128	-141.653	-0.288	0.029
-463.113	115.497	-0.100	-0.120
-462.099	-20.875	0.025	0.015
-461.084	-63.240	0.171	0.070
-460.070	-35.728	-0.135	0.072
-459.055	6.278	-0.281	0.206
-458.040	-200.000	0.080	0.417
-457.026	-127.654	-0.356	0.051
-456.011	-30.857	0.297	0.166
-454.997	-200.000	0.072	-0.362
-453.982	420.642	-0.149	-0.316
-452.968	66.825	-0.137	-0.138
-451.953	-200.000	-0.038	0.317
-450.938	-192.441	0.218	0.002
-449.924	-146.234	0.071	0.006
-448.909	29.344	-0.258	-0.217
-447.895	-23.798	-0.189	0.112
-446.880	-75.171	0.187	-0.066
-445.865	-56.304	0.217	-0.095
-444.851	-47.547	-0.260	0.125
-443.836	383.437	0.073	0.149
-442.822	-200.000	0.001	0.164
-441.807	178.070	0.047	-0.068
-440.792	-200.000	-0.000	0.166
-439.778	-26.443	0.169	-0.098
-438.763	58.259	-0.035	-0.034
-437.749	28.721	-0.188	-0.157
-436.734	800.000	-0.164	0.453
-435.719	-122.138	0.317	-0.051
-434.705	158.198	-0.052	0.071
-433.690	800.000	-0.137	-0.386
-432.676	-121.287	-0.111	0.018
-431.661	257.745	0.099	-0.168
-430.646	5.265	-0.171	-0.125
-429.632	52.743	-0.076	0.072
-428.617	-11.694	-0.150	-0.097
-427.603	310.636	-0.221	0.409
-426.588	127.813	-0.134	-0.169
-425.573	800.000	0.058	0.173
-424.559	-119.477	-0.176	-0.030
-423.544	49.687	-0.201	0.187
-422.530	-124.237	-0.276	0.043
-421.515	271.886	0.125	-0.217
-420.500	131.051	-0.088	-0.111
-419.486	-200.000	-0.089	-0.397
-418.471	87.121	-0.065	-0.070
-417.457	-200.000	-0.045	0.240
-416.442	-200.000	0.003	-0.258
-415.428	-127.813	0.168	0.024
-414.413	146.328	-0.117	0.155
-413.398	800.000	0.132	-0.390
-412.384	-56.416	-0.335	-0.147
-411.369	47.164	0.170	0.156
-410.355	334.345	-0.073	0.139
-409.340	-200.000	-0.034	-0.272
-408.325	-200.000	-0.003	-0.063
-407.311	-156.236	-0.210	0.013
-406.296	51.901	0.230	0.216
-405.282	-77.187	-0.176	-0.060
-404.267	243.290	-0.114	0.188
-403.252	149.304	0.157	0.210
-402.238	-47.169	-0.227	0.109
-401.223	132.749	-0.134	-0.170
-400.209	159.695	-0.080	0.110
-399.194	-200.000	0.024	-0.220
-398.179	-153.609	0.042	-0.003
-397.165	298.313	0.139	-0.252
-396.150	800.000	-0.105	0.398
-395.136	-12.041	-0.202	0.130
-394.121	132.564	0.173	0.220
-393.106	800.000	0.100	0.300
-392.092	-200.000	0.017	0.305
-391.077	-77.678	0.289	-0.099
-390.063	-161.606	-0.307	-0.016
-389.048	-200.000	0.041	-0.198
-388.033	122.717	0.116	0.144
-387.019	8.064	0.313	-0.231
-386.004	319.916	-0.086	0.161
-384.990	-200.000	-0.037	-0.257
-383.975	800.000	0.039	-0.162
-382.960	253.525	-0.208	0.350
-381.946	17.096	-0.121	-0.095
-380.931	-78.742	-0.112	0.038
-379.917	123.319	-0.168	0.207
-378.902	-127.601	-0.172	-0.025
-377.888	104.231	0.106	-0.123
-376.873	-200.000	0.002	0.095
-375.858	-200.000	-0.007	0.257
-374.844	-93.675	-0.084	-0.023
-373.829	800.000	-0.056	-0.216
-372.815	-66.909	-0.165	-0.064
-371.800	-2.893	0.108	0.074
-370.785	65.676	0.100	0.100
-369.771	-200.000	-0.000	-0.071
-368.756	-135.604	0.403	-0.047
-367.742	-128.570	0.288	-0.040
-366.727	-119.273	0.052	0.009
-365.712	-15.947	-0.218	0.137
-364.698	18.974	-0.205	-0.162
-363.683	-200.000	-0.022	0.115
-362.669	34.951	0.184	-0.159
-361.654	-200.000	0.005	-0.231
-360.639	-122.547	0.183	-0.029
-359.625	-22.102	0.062	0.037
-358.610	-113.693	-0.366	-0.070
-357.596	536.920	0.048	-0.111
-356.581	-59.299	-0.045	-0.019
-355.566	-163.883	-0.244	-0.011
-354.552	-108.770	0.083	-0.017
-353.537	-17.876	0.235	-0.145
-352.523	-151.070	-0.133	-0.010
-351.508	-159.188	-0.119	-0.007
-350.493	144.953	0.238	-0.314
-349.479	33.351	-0.087	-0.074
-348.464	-154.716	-0.200	0.013
-347.450	-67.559	-0.121	0.047
-346.435	-135.264	-0.078	-0.009
-345.420	-145.840	0.393	0.034
-344.406	183.616	-0.176	0.256
-343.391	61.222	-0.016	0.015
-342.377	-200.000	0.007	0.061
-341.362	-200.000	0.038	-0.249
-340.348	-19.038	-0.242	-0.148
-339.333	-200.000	0.043	0.291
-338.318	26.024	0.241	0.198
-337.304	541.663	0.097	-0.228
-336.289	-157.886	-0.131	-0.008
-335.275	-200.000	-0.255	0.000
-334.260	494.596	0.056	-0.127
-333.245	800.000	0.056	0.166
-332.231	225.028	0.152	0.241
-331.216	-34.690	0.173	0.093
-330.202	-74.616	0.075	0.026
-329.187	471.440	-0.079	0.174
-328.172	-66.984	-0.122	0.047
-327.158	278.210	0.081	0.142
-326.143	-200.000	-0.036	0.180
-325.129	-2.718	0.151	-0.104
-324.114	800.000	-0.039	-0.150
-323.099	-200.000	-0.015	0.147
-322.085	135.088	-0.112	-0.143
-321.070	-200.000	-0.005	0.129
-320.056	-142.461	-0.407	0.039
-319.041	800.000	0.094	-0.392
-318.026	547.411	0.060	0.141
-317.012	-200.000	-0.041	-0.268
-315.997	-19.483	0.061	-0.037
-314.983	3.368	0.056	-0.040
-313.968	27.651	-0.039	0.033
-312.953	800.000	0.047	0.153
-311.939	406.043	-0.055	0.115
-310.924	-101.528	-0.233	-0.056
-309.910	9.779	-0.077	0.058
-308.895	169.429	0.070	0.099
-307.880	-200.000	0.029	0.191
-306.866	-162.018	-0.187	-0.009
-305.851	371.420	0.099	-0.197
-304.837	260.995	0.078	0.133
-303.822	-59.262	0.226	0.096
-302.807	-101.411	-0.197	0.047
-301.793	-17.312	0.206	0.127
-300.778	59.499	0.101	-0.098
-299.764	-104.637	0.388	0.088
-298.749	-163.631	0.155	-0.007
-297.735	100.752	0.130	0.148
-296.720	-139.844	-0.192	0.020
-295.705	23.997	0.301	0.244
-294.691	97.983	-0.277	0.313
-293.676	6.837	0.055	-0.040
-292.662	-200.000	-0.063	-0.492
-291.647	-65.366	-0.489	0.193
-290.632	125.248	-0.095	0.117
-289.618	4.366	-0.121	-0.087
-288.603	-22.888	-0.119	0.070
-287.589	-73.428	0.259	0.093
-286.574	-160.792	-0.281	-0.015
-285.559	94.348	0.072	-0.081
-284.545	-200.000	-0.033	-0.267
-283.530	-200.000	-0.002	0.060
-282.516	-200.000	-0.064	0.468
-281.501	-151.120	0.214	-0.016
-280.486	191.730	-0.201	-0.297
-279.472	800.000	0.044	0.182
-278.457	-27.080	0.108	-0.062
-277.443	-153.292	0.177	0.012
-276.428	630.427	0.177	-0.439
-275.413	-74.599	-0.139	0.049
-274.399	317.385	-0.159	0.294
-273.384	699.297	0.060	0.154
-272.370	-130.597	0.186	-0.025
-271.355	25.279	0.145	-0.119
-270.340	-113.131	-0.195	0.038
-269.326	-152.792	-0.167	-0.012
-268.311	487.617	-0.015	0.033
-267.297	-200.000	-0.002	0.113
-266.282	-200.000	0.023	-0.111
-265.267	-200.000	-0.044	-0.263
-264.253	800.000	0.131	-0.357
-263.238	74.459	-0.137	-0.141
-262.224	190.309	-0.097	-0.142
-261.209	-80.490	-0.207	0.068
-260.195	800.000	0.078	-0.265
-259.180	-200.000	0.007	0.103
-258.165	-67.767	0.183	-0.070
-257.151	139.317	-0.075	0.097
-256.136	-137.880	-0.228	-0.025
-255.122	-200.000	-0.017	0.104
-254.107	348.070	0.160	-0.309
-253.092	-200.000	-0.019	0.136
-252.078	-200.000	0.053	0.390
-251.063	485.576	0.216	0.482
-250.049	144.548	0.270	0.354
-249.034	-19.181	-0.300	0.182
-248.019	-200.000	0.036	0.246
-247.005	-146.821	-0.398	0.034
-245.990	589.696	-0.145	-0.350
-244.976	-194.768	-0.306	0.002
-243.961	339.266	0.147	-0.282
-242.946	-200.000	0.050	-0.249
-241.932	-2.343	0.087	0.059
-240.917	-173.962	-0.339	0.010
-239.903	0.263	-0.146	-0.102
-238.888	-200.000	-0.002	-0.180
-237.873	-38.484	-0.268	0.139
-236.859	-143.372	0.057	-0.005
-235.844	-55.377	-0.040	-0.017
-234.830	11.315	0.322	0.241
-233.815	800.000	0.145	-0.415
-232.800	-108.040	0.163	-0.035
-231.786	-131.424	0.196	0.025
-230.771	169.257	-0.059	0.082
-229.757	800.000	-0.073	0.217
-228.742	-177.999	0.081	0.002
-227.727	-95.912	0.120	-0.031
-226.713	100.717	-0.066	0.075
-225.698	17.694	0.181	-0.141
-224.684	396.461	-0.112	-0.229
-223.669	-200.000	0.028	-0.186
-222.655	-200.000	0.006	0.063
-221.640	322.027	0.153	0.285
-220.625	800.000	0.050	0.205
-219.611	-133.268	0.382	-0.047
-218.596	800.000	-0.124	-0.406
-217.582	-72.649	-0.253	0.091
-216.567	113.874	0.272	-0.324
-215.552	-200.000	-0.010	0.234
-214.538	-26.570	-0.369	0.211
-213.523	120.617	0.089	-0.108
-212.509	390.776	-0.033	-0.067
-211.494	-82.478	0.362	-0.115
-210.479	-200.000	0.025	0.257
-209.465	54.176	-0.103	-0.097
-208.450	-200.000	-0.035	-0.278
-207.436	35.320	0.345	0.296
-206.421	69.179	-0.204	-0.205
-205.406	800.000	0.027	-0.077
-204.392	160.980	-0.286	0.391
-203.377	-90.147	0.528	-0.151
-202.363	17.616	0.036	0.028
-201.348	-200.000	0.193	0.000
-200.333	800.000	0.053	0.220
-199.319	-200.000	0.023	-0.330
-198.304	800.000	-0.103	-0.400
-197.290	-12.088	-0.231	-0.148
-196.275	-83.160	0.082	0.026
-195.260	-200.000	-0.003	-0.244
-194.246	71.681	0.249	0.253
-193.231	-34.258	0.435	0.234
-192.217	-149.363	-0.493	-0.038
-191.202	93.737	0.080	-0.089
-190.187	-24.550	0.170	-0.099
-189.173	800.000	0.104	0.336
-188.158	88.714	-0.043	-0.047
-187.144	-29.484	-0.068	0.038
-186.129	14.299	0.117	0.089
-185.114	110.778	0.268	-0.315
-184.100	220.347	-0.072	0.113
-183.085	32.174	0.102	-0.086
-182.071	-129.825	0.451	0.061
-181.056	755.792	-0.137	0.362
-180.042	119.008	0.158	-0.191
-179.027	-34.427	-0.199	-0.106
-178.012	-48.400	-0.057	-0.027
-176.998	-200.000	0.326	-0.001
-175.983	-200.000	0.053	0.274
-174.969	233.143	0.050	0.080
-173.954	-9.412	-0.035	0.023
-172.939	-26.112	-0.170	-0.098
-171.925	-100.766	0.149	-0.036
-170.910	-200.000	-0.010	0.074
-169.896	9.309	0.159	0.117
-168.881	216.986	0.071	0.110
-167.866	-200.000	-0.034	-0.261
-166.852	-22.569	0.105	0.062
-165.837	34.866	0.135	0.115
-164.823	-200.000	0.009	0.243
-163.808	800.000	0.042	-0.128
-162.793	187.940	-0.080	-0.117
-161.779	-75.972	0.146	0.050
-160.764	163.521	-0.032	0.043
-159.750	204.986	0.090	-0.137
-158.735	-200.000	-0.014	-0.232
-157.720	123.856	-0.060	0.073
-156.706	588.423	-0.063	0.151
-155.691	-37.067	0.142	0.075
-154.677	-43.732	-0.091	0.045
-153.662	800.000	-0.091	-0.255
-152.647	501.555	-0.132	-0.299
-151.633	559.045	0.068	-0.160
-150.618	800.000	0.065	-0.208
-149.604	-28.025	0.117	0.066
-148.589	-110.528	-0.267	-0.054
-147.574	63.580	0.138	0.135
-146.560	78.634	0.260	0.271
-145.545	-146.899	0.072	0.006
-144.531	-200.000	0.004	0.089
-143.516	-63.659	-0.236	-0.095
-142.502	-48.507	0.388	-0.182
-141.487	89.024	0.214	-0.233
-140.472	-130.276	-0.061	-0.008
-139.458	-117.350	-0.108	-0.019
-138.443	800.000	0.080	-0.270
-137.429	-44.288	0.169	0.083
-136.414	-195.174	0.532	-0.004
-135.399	-200.000	-0.048	-0.328
-134.385	5.677	-0.200	-0.144
-133.370	-25.283	-0.128	0.074
-132.356	-116.935	-0.096	0.017
-131.341	-51.328	0.373	0.170
-130.326	-200.000	0.041	0.224
-129.312	800.000	0.042	-0.168
-128.297	52.321	-0.076	-0.071
-127.283	-144.735	-0.067	-0.006
-126.268	140.892	0.263	0.339
-125.253	-142.947	0.100	0.009
-124.239	800.000	0.097	0.402
-123.224	87.843	0.260	-0.281
-122.210	-140.983	-0.292	0.029
-121.195	-87.983	0.364	0.107
-120.180	-1.155	0.257	0.177
-119.166	800.000	-0.036	0.105
-118.151	-114.384	-0.325	-0.061
-117.137	-191.155	0.033	-0.000
-116.122	800.000	-0.125	-0.366
-115.107	-146.400	0.295	-0.025
-114.093	265.007	0.081	0.137
-113.078	-39.930	-0.125	0.063
-112.064	-172.561	0.151	-0.005
-111.049	21.759	0.081	-0.064
-110.034	127.456	-0.108	0.133
-109.020	-200.000	-0.004	0.151
-108.005	-200.000	0.036	0.193
-106.991	-145.586	0.260	0.023
-105.976	-138.734	-0.183	-0.020
-104.962	-75.076	-0.143	0.050
-103.947	-112.224	0.323	-0.063
-102.932	-6.712	-0.199	0.132
-101.918	-95.445	0.138	0.036
-100.903	128.656	-0.125	0.156
-99.889	800.000	-0.106	-0.373
-98.874	39.932	0.291	0.255
-97.859	-200.000	0.010	0.066
-96.845	61.435	0.189	0.183
-95.830	-5.346	-0.165	0.110
-94.816	-200.000	0.048	-0.365
-93.801	55.649	0.326	0.308
-92.786	-120.346	0.300	0.050
-91.772	-200.000	0.012	0.203
-90.757	-200.000	0.041	0.224
-89.743	256.346	0.026	0.043
-88.728	800.000	0.033	0.101
-87.713	800.000	0.125	-0.357
-86.699	111.805	-0.161	0.189
-85.684	-53.667	-0.352	-0.157
-84.670	61.048	0.306	0.296
-83.655	-157.046	-0.398	-0.024
-82.640	-28.413	0.152	0.085
-81.626	800.000	-0.143	-0.383
-80.611	220.003	0.063	-0.098
-79.597	-11.723	-0.224	-0.143
-78.582	-60.944	-0.240	-0.099
-77.567	-200.000	0.039	0.322
-76.553	-200.000	-0.071	0.354
-75.538	-100.551	0.118	0.028
-74.524	-200.000	0.004	0.171
-73.509	199.296	0.173	-0.259
-72.494	57.946	-0.033	-0.031
-71.480	77.426	0.127	0.132
-70.465	-200.000	0.004	-0.204
-69.451	271.777	-0.140	-0.240
-68.436	65.585	0.057	0.056
-67.422	-67.494	-0.255	0.097
-66.407	-17.513	-0.061	0.037
-65.392	-51.733	-0.237	0.108
-64.378	108.566	-0.202	-0.235
-63.363	53.121	-0.288	-0.269
-62.349	-118.852	-0.351	0.060
-61.334	55.510	-1.082	-1.020
-60.319	36.731	0.674	0.580
-59.305	800.000	-0.470	-1.553
-58.290	475.929	0.691	1.519
-57.276	674.052	0.616	1.555
-56.261	-200.000	137.403	665.487
-55.246	335.958	1674.756	3160.864
-54.232	135.078	2799.763	3538.820
-53.217	84.726	2193.637	2336.737
-52.203	30.405	1710.201	1421.396
-51.188	23.342	1534.369	1226.502
-50.173	21.843	1513.681	1199.675
-49.159	45.533	1589.295	1427.321
-48.144	42.072	1598.876	1411.534
-47.130	23.495	1548.041	1238.306
-46.115	20.880	1532.174	1207.467
-45.100	20.551	1528.830	1202.508
-44.086	20.540	1526.941	1200.899
-43.071	20.591	1524.988	1199.665
-42.057	20.498	1523.316	1197.660
-41.042	20.511	1522.352	1196.945
-40.027	20.530	1520.135	1195.289
-39.013	20.512	1519.012	1194.236
-37.998	20.509	1517.889	1193.285
-36.984	20.492	1516.778	1192.243
-35.969	20.542	1515.035	1191.172
-34.954	20.404	1514.215	1189.536
-33.940	20.520	1512.462	1188.903
-32.925	20.516	1511.249	1187.876
-31.911	20.483	1509.613	1186.313
-30.896	20.509	1508.229	1185.360
-29.881	20.584	1507.045	1184.890
-28.867	20.559	1505.928	1183.796
-27.852	20.510	1505.186	1182.834
-26.838	20.570	1503.254	1181.678
-25.823	20.585	1501.598	1180.430
-24.809	20.656	1500.070	1179.662
-23.794	20.545	1498.621	1177.724
-22.779	20.520	1497.642	1176.738
-21.765	20.485	1496.772	1175.768
-20.750	20.609	1495.456	1175.529
-19.736	20.521	1494.400	1174.059
-18.721	20.469	1493.595	1173.029
-17.706	20.549	1492.364	1172.552
-16.692	20.540	1491.052	1171.413
-15.677	20.571	1489.940	1170.706
-14.663	20.471	1489.364	1169.530
-13.648	20.522	1488.379	1169.056
-12.633	20.470	1487.365	1167.864
-11.619	20.656	1485.927	1167.934
-10.604	20.485	1485.955	1166.764
-9.590	20.453	1484.790	1165.590
-8.575	20.534	1483.109	1164.768
-7.560	20.414	1483.011	1163.840
-6.546	20.527	1481.688	1163.509
-5.531	20.461	1480.961	1162.453
-4.517	20.516	1479.676	1161.767
-3.502	20.480	1478.699	1160.712
-2.487	20.469	1477.897	1159.960
-1.473	20.500	1476.782	1159.247
-0.458	20.436	1475.397	1157.689
0.556	19.344	1465.455	1146.267
1.571	16.166	1441.143	1106.336
2.586	12.708	1379.672	1037.310
3.600	11.086	1294.686	963.728
4.615	10.203	1251.735	926.621
5.629	9.242	1194.950	879.252
6.644	4.732	1114.880	797.202
7.659	1.095	1081.156	754.927
8.673	0.700	1075.771	749.143
9.688	0.640	1072.030	746.174
10.702	0.647	1070.087	744.788
11.717	0.573	1068.531	743.277
12.731	2.063	1068.593	750.584
13.746	7.434	1075.788	782.105
14.761	13.758	1084.367	819.606
15.775	16.822	1088.037	837.472
16.790	16.848	1087.054	836.774
17.804	15.861	1084.698	830.021
18.819	15.052	1083.178	824.798
19.834	14.666	1081.379	821.454
20.848	14.334	1080.689	819.227
21.863	14.105	1079.774	817.338
22.877	13.839	1078.977	815.353
23.892	13.652	1078.201	813.778
24.907	13.613	1077.219	812.771
25.921	13.634	1076.162	812.004
26.936	13.738	1075.426	811.889
27.950	13.613	1075.269	811.084
28.965	13.581	1074.621	810.368
29.980	13.618	1073.752	809.821
30.994	13.702	1072.753	809.405
32.009	13.853	1071.535	809.154
33.023	13.754	1071.292	808.416
34.038	13.717	1070.660	807.688
35.053	13.755	1069.390	806.842
36.067	13.809	1067.974	805.964
37.082	13.729	1067.327	805.019
38.096	13.744	1066.862	804.669
39.111	13.769	1065.865	803.965
40.126	13.796	1064.825	803.243
41.140	13.698	1064.060	802.118
42.155	13.667	1062.912	801.034
43.169	13.578	1061.849	799.733
44.184	13.572	1061.089	799.057
45.199	13.523	1059.927	797.875
46.213	13.614	1058.662	797.292
47.228	13.655	1057.775	796.753
48.242	13.723	1056.703	796.198
49.257	13.706	1055.800	795.367
50.271	13.730	1054.753	794.622
51.286	13.666	1054.437	794.006
52.301	13.819	1052.863	793.484
53.315	13.726	1052.202	792.473
54.330	13.791	1051.367	792.083
55.344	13.715	1050.728	791.166
56.359	13.603	1049.781	789.852
57.374	13.562	1048.954	788.965
58.388	13.576	1048.092	788.312
59.403	13.665	1046.728	787.638
60.417	13.640	1046.054	786.946
61.432	13.575	1045.443	786.107
62.447	13.594	1044.545	785.450
63.461	13.613	1043.793	784.908
64.476	13.556	1042.626	783.689
65.490	13.554	1042.100	783.216
66.505	13.581	1041.360	782.717
67.520	13.769	1040.559	782.933
68.534	13.545	1040.292	781.609
69.549	13.648	1038.945	781.012
70.563	13.625	1038.243	780.307
71.578	13.674	1037.910	780.218
72.593	13.558	1036.859	778.813
73.607	13.513	1035.795	777.735
74.622	13.615	1034.518	777.185
75.636	13.486	1033.912	776.054
76.651	13.524	1032.875	775.385
77.666	13.525	1032.238	774.846
78.680	13.429	1031.203	773.551
79.695	13.627	1030.683	774.016
80.709	13.585	1030.303	773.468
81.724	13.640	1029.569	773.105
82.739	13.763	1028.133	772.529
83.753	13.600	1027.996	771.602
84.768	13.647	1027.378	771.288
85.782	13.743	1026.473	770.984
86.797	13.725	1025.364	770.002
87.812	13.822	1024.415	769.668
88.826	13.725	1024.074	768.894
89.841	13.715	1023.068	768.024
90.855	13.727	1022.187	767.352
91.870	13.779	1021.417	766.947
92.884	13.754	1021.136	766.551
93.899	13.800	1020.107	765.925
94.914	13.903	1019.408	765.806
95.928	13.847	1018.412	764.730
96.943	13.897	1017.685	764.348
97.957	13.755	1016.979	763.098
98.972	13.831	1016.229	762.819
99.987	13.984	1015.054	762.571
101.001	13.939	1014.364	761.778
102.016	13.846	1013.425	760.580
103.030	13.807	1012.748	759.823
104.045	13.772	1011.477	758.643
105.060	13.850	1010.756	758.394
106.074	13.799	1009.748	757.336
107.089	13.769	1009.016	756.584
108.103	13.663	1008.229	755.446
109.118	13.675	1007.273	754.716
110.133	13.743	1006.644	754.489
111.147	13.712	1005.644	753.529
112.162	13.625	1004.898	752.509
113.176	13.698	1003.725	751.895
114.191	13.732	1002.900	751.363
115.206	13.830	1001.993	751.059
116.220	13.744	1001.516	750.247
117.235	13.612	1000.547	748.859
118.249	13.751	999.269	748.464
119.264	13.705	998.521	747.628
120.279	13.824	997.388	747.253
121.293	13.765	997.056	746.670
122.308	13.688	996.261	745.664
123.322	13.662	994.876	744.444
124.337	13.813	993.869	744.303
125.352	13.705	992.759	742.923
126.366	13.818	991.509	742.427
127.381	13.605	990.902	740.952
128.395	13.656	989.507	740.074
129.410	13.714	988.778	739.719
130.424	13.657	987.950	738.782
131.439	13.653	986.570	737.669
132.454	13.770	986.219	737.860
133.468	13.674	986.032	737.227
134.483	13.700	984.833	736.381
135.497	13.713	983.763	735.575
136.512	13.750	983.217	735.264
137.527	13.872	982.473	735.181
138.541	13.729	981.751	733.945
139.556	13.815	980.983	733.686
140.570	13.725	980.644	732.971
141.585	13.752	979.515	732.180
142.600	13.938	978.597	732.251
143.614	13.897	978.232	731.731
144.629	13.966	977.314	731.285
145.643	13.936	976.806	730.706
146.658	14.079	975.453	730.260
147.673	13.997	974.448	729.081
148.687	13.746	974.212	727.738
149.702	13.887	973.129	727.485
150.716	13.885	972.137	726.668
151.731	13.880	970.923	725.675
152.746	13.837	970.462	725.080
153.760	13.964	969.607	724.929
154.775	13.917	968.957	724.174
155.789	13.946	968.018	723.536
156.804	13.912	967.241	722.742
157.819	13.986	966.211	722.230
158.833	13.940	966.110	721.891
159.848	14.106	965.166	721.845
160.862	14.113	964.405	721.239
161.877	14.094	963.533	720.440
162.892	14.100	962.623	719.722
163.906	14.032	962.072	718.953
164.921	13.969	961.552	718.230
165.935	14.010	960.031	717.207
166.950	14.074	958.911	716.584
167.964	14.059	958.309	716.006
168.979	14.009	957.405	715.049
169.994	14.044	956.061	714.134
171.008	14.071	955.514	713.777
172.023	14.107	954.410	713.046
173.037	14.132	953.705	712.563
174.052	14.182	952.968	712.163
175.067	14.203	952.022	711.480
176.081	14.198	951.505	711.013
177.096	14.225	950.543	710.343
178.110	14.091	949.676	709.062
179.125	14.120	949.152	708.732
180.140	14.211	948.010	708.206
181.154	14.231	947.777	708.052
182.169	14.156	947.037	707.117
183.183	14.319	946.586	707.412
184.198	14.314	945.331	706.389
185.213	14.397	944.626	706.152
186.227	14.239	944.383	705.240
187.242	14.227	943.628	704.562
188.256	14.454	942.697	704.763
189.271	14.407	942.255	704.174
190.286	14.394	941.476	703.474
191.300	14.378	940.794	702.833
192.315	14.146	940.073	701.255
193.329	14.224	939.312	700.954
194.344	14.267	938.671	700.596
195.359	14.276	937.949	700.031
196.373	14.293	937.545	699.738
197.388	14.392	936.913	699.620
198.402	14.323	936.418	698.900
199.417	14.637	935.551	699.508
200.432	14.584	934.958	698.782
201.446	14.420	935.260	698.256
202.461	14.487	934.595	697.979
203.475	14.690	933.533	697.972
204.490	14.584	933.244	697.252
205.504	14.598	932.381	696.607
206.519	14.600	931.361	695.790
207.534	14.663	930.410	695.281
208.548	14.524	930.190	694.476
209.563	14.688	929.069	694.259
210.577	14.533	928.871	693.404
211.592	14.629	928.318	693.331
212.607	14.549	927.692	692.467
213.621	14.690	927.192	692.620
214.636	14.613	925.939	691.302
215.650	14.739	925.440	691.388
216.665	14.666	925.108	690.781
217.680	14.630	924.809	690.346
218.694	14.756	923.999	690.202
219.709	14.728	923.539	689.682
220.723	14.803	922.369	689.057
221.738	14.686	921.950	688.200
222.753	14.824	920.651	687.735
223.767	14.852	920.391	687.597
224.782	14.892	919.518	687.050
225.796	14.887	918.693	686.350
226.811	14.879	917.993	685.733
227.826	14.881	917.344	685.195
228.840	14.813	916.662	684.349
229.855	14.864	916.147	684.112
230.869	15.027	915.272	684.064
231.884	15.042	914.653	683.603
232.899	14.855	914.072	682.343
233.913	14.724	913.807	681.550
234.928	14.916	913.032	681.697
235.942	14.914	912.281	681.066
236.957	14.877	910.974	679.882
237.972	14.856	910.786	679.594
238.986	14.941	909.945	679.253
240.001	15.109	909.210	679.323
241.015	14.888	908.782	678.048
242.030	15.186	907.767	678.437
243.045	15.000	907.337	677.302
244.059	15.030	907.001	677.114
245.074	15.024	905.964	676.256
246.088	15.010	905.292	675.638
247.103	14.997	904.988	675.300
248.117	15.126	903.997	675.019
249.132	15.224	903.404	674.911
250.147	15.137	902.923	674.143
251.161	15.294	902.131	674.123
252.176	15.325	901.377	673.622
253.190	15.232	900.678	672.669
254.205	15.327	900.204	672.638
255.220	15.421	899.668	672.555
256.234	15.401	899.098	671.989
257.249	15.392	898.361	671.341
258.263	15.400	897.859	670.941
259.278	15.345	897.105	670.095
260.293	15.502	896.143	669.944
261.307	15.563	895.586	669.714
262.322	15.428	895.542	669.080
263.336	15.409	894.959	668.512
264.351	15.637	894.161	668.764
265.366	15.599	893.588	668.127
266.380	15.534	892.538	667.023
267.395	15.529	892.375	666.821
268.409	15.600	891.284	666.229
269.424	15.566	890.667	665.574
270.439	15.598	890.029	665.167
271.453	15.634	888.787	664.320
272.468	15.681	888.269	664.062
273.482	15.705	887.656	663.639
274.497	15.737	887.040	663.246
275.512	15.653	886.343	662.335
276.526	15.633	885.555	661.608
277.541	15.546	884.999	660.792
278.555	15.574	884.862	660.741
279.570	15.602	884.148	660.261
280.585	15.863	882.949	660.329
281.599	15.838	882.821	660.080
282.614	15.819	882.154	659.444
283.628	15.835	881.291	658.805
284.643	15.744	881.117	658.262
285.657	15.865	880.121	657.930
286.672	15.970	879.624	657.912
287.687	15.915	879.375	657.453
288.701	16.020	878.804	657.378
289.716	15.817	878.137	656.028
290.730	15.891	877.582	655.843
291.745	15.948	876.774	655.406
292.760	15.964	876.206	654.983
293.774	15.927	875.585	654.318
294.789	16.024	875.199	654.349
295.803	15.914	875.018	653.729
296.818	15.996	874.183	653.366
297.833	15.908	873.477	652.436
298.847	16.146	871.994	652.195
299.862	16.058	871.886	651.712
300.876	16.071	871.001	651.045
301.891	16.087	870.328	650.548
302.906	16.126	869.823	650.263
303.920	16.148	869.429	649.995
304.935	16.151	868.348	649.143
305.949	16.157	868.314	649.079
306.964	16.319	867.110	648.746
307.979	16.245	866.668	648.074
308.993	16.175	866.159	647.365
310.008	16.359	865.763	647.718
311.022	16.453	865.046	647.486
312.037	16.362	864.817	646.910
313.052	16.262	864.192	645.999
314.066	16.316	863.379	645.543
315.081	16.338	862.800	645.136
316.095	16.199	862.644	644.433
317.110	16.448	861.704	644.622
318.125	16.487	861.094	644.257
319.139	16.352	860.762	643.437
320.154	16.275	860.052	642.557
321.168	16.361	859.671	642.541
322.183	16.406	858.788	641.996
323.197	16.437	858.283	641.681
324.212	16.400	857.674	641.027
325.227	16.589	857.316	641.420
326.241	16.480	856.903	640.642
327.256	16.430	856.026	639.740
328.270	16.483	855.482	639.477
329.285	16.437	855.061	638.931
330.300	16.543	854.320	638.722
331.314	16.441	853.775	637.874
332.329	16.536	853.178	637.728
333.343	16.455	852.305	636.717
334.358	16.637	851.824	636.986
335.373	16.576	851.537	636.485
336.387	16.556	851.022	635.968
337.402	16.554	850.711	635.671
338.416	16.635	849.590	635.083
339.431	16.669	849.529	635.107
340.446	16.688	848.945	634.686
341.460	16.699	848.202	634.115
342.475	16.819	847.521	634.000
343.489	16.804	847.179	633.632
344.504	16.868	846.406	633.236
345.519	17.009	845.899	633.326
346.533	16.898	845.574	632.615
347.548	16.927	844.531	631.883
348.562	16.843	844.634	631.592
349.577	16.743	844.188	630.831
350.592	16.796	843.277	630.293
351.606	16.736	843.108	629.886
352.621	16.779	842.342	629.417
353.635	16.769	842.442	629.400
354.650	16.785	841.952	629.039
355.665	16.998	840.892	628.980
356.679	16.884	840.628	628.305
357.694	17.009	840.257	628.436
358.708	16.999	839.623	627.866
359.723	16.979	839.106	627.352
360.738	16.913	838.593	626.670
361.752	17.031	838.184	626.744
362.767	17.073	837.505	626.335
363.781	17.148	837.186	626.317
364.796	17.118	836.488	625.632
365.810	17.147	836.329	625.561
366.825	17.175	835.630	625.089
367.840	17.084	835.775	624.806
368.854	17.244	835.142	624.865
369.869	17.212	834.422	624.154
370.883	17.235	834.040	623.899
371.898	17.294	833.104	623.358
372.913	17.267	832.501	622.752
373.927	17.283	832.025	622.401
374.942	17.361	831.188	622.004
375.956	17.374	830.836	621.735
376.971	17.424	829.770	621.063
377.986	17.458	829.529	620.951
379.000	17.385	829.289	620.451
380.015	17.304	829.108	619.967
381.029	17.307	828.434	619.418
382.044	17.355	827.812	619.072
383.059	17.529	827.171	619.172
384.073	17.559	826.407	618.655
385.088	17.645	825.876	618.513
386.102	17.539	825.538	617.820
387.117	17.420	824.944	616.892
388.132	17.481	824.507	616.730
389.146	17.348	824.245	615.996
390.161	17.455	823.842	616.031
391.175	17.704	823.097	616.318
392.190	17.585	822.696	615.533
393.205	17.585	822.381	615.241
394.219	17.562	822.193	614.964
395.234	17.477	821.477	614.067
396.248	17.640	820.722	614.035
397.263	17.575	820.473	613.563
398.278	17.427	820.066	612.669
399.292	17.503	819.659	612.587
400.307	17.484	819.169	612.099
401.321	17.568	818.620	611.933
402.336	17.469	818.355	611.327
403.350	17.571	817.976	611.356
404.365	17.469	817.829	610.824
405.380	17.777	816.969	611.234
406.394	17.671	816.632	610.549
407.409	17.637	816.145	610.007
408.423	17.757	815.627	609.996
409.438	17.836	814.974	609.736
410.453	17.829	814.717	609.465
411.467	17.950	814.029	609.327
412.482	17.946	813.525	608.880
413.496	17.963	812.992	608.488
414.511	17.775	813.276	607.978
415.526	17.893	812.559	607.809
416.540	17.868	812.119	607.338
417.555	17.957	811.607	607.218
418.569	18.028	811.174	607.092
419.584	18.024	810.737	606.698
420.599	18.187	809.513	606.306
421.613	115.923	1300.378	1493.880
422.628	100.292	1371.866	1493.946
