DTS Sentinel unit serial number:	SN413079Multiplexer serial number:	ORYXHardware model number:	OX4-SRSoftware version number:	ORYX F/W v4.00 Oryx Data Collector v3.7.2.0data status	okinstallation	princeton_trtdifferential loss correction	single-endedforward channel	channel 3reverse channel	N/Adate	2019/09/13time	10:24:35forward acquisition time	60.00reverse acquisition time	0.00gamma	496.2192k internal	0.2322k external	0.2322temperature offset calibration	1.0140default loss term (dB/km)	0.3790temperature slope calibration	1.0000multiplexer offset coefficient	1.0000multiplexer slope coefficient	1.0000fibre end	0.00T internal ref (°C)	30.98T ext. ref 1 (°C)	4.54T ext. ref 2 (°C)	28.14length (m)	temperature (°C)	Stokes	anti-Stokes-747.200	-58.865	-0.138	0.060
-746.185	-200.000	0.006	-0.057
-745.171	-128.573	0.343	-0.049
-744.156	47.043	-0.321	0.302
-743.142	800.000	-0.055	-0.157
-742.127	141.990	0.138	-0.185
-741.112	89.117	0.205	0.231
-740.098	-200.000	-0.019	0.407
-739.083	85.944	-0.193	-0.215
-738.069	-200.000	0.013	-0.058
-737.054	-200.000	0.061	0.278
-736.039	-200.000	0.061	0.321
-735.025	-200.000	-0.032	0.298
-734.010	-126.191	-0.238	0.036
-732.996	-110.345	-0.237	-0.050
-731.981	-58.109	0.021	0.009
-730.966	-37.370	-0.178	-0.096
-729.952	-147.308	0.162	-0.014
-728.937	-138.895	0.025	0.003
-727.923	-97.448	-0.221	-0.058
-726.908	800.000	0.091	-0.382
-725.894	-20.142	-0.303	-0.188
-724.879	522.540	0.259	-0.614
-723.864	-105.581	-0.104	-0.024
-722.850	-27.027	-0.420	-0.247
-721.835	69.928	0.069	0.072
-720.821	20.701	0.124	0.101
-719.806	-200.000	-0.066	-0.440
-718.791	33.056	-0.271	-0.237
-717.777	-200.000	-0.029	-0.234
-716.762	417.336	0.117	-0.253
-715.748	143.247	0.105	-0.141
-714.733	-14.050	0.096	-0.062
-713.718	637.304	0.044	-0.113
-712.704	-149.255	0.096	-0.008
-711.689	132.454	-0.083	0.108
-710.675	-131.438	0.237	0.032
-709.660	36.076	-0.024	0.021
-708.645	-200.000	0.022	0.471
-707.631	732.003	-0.032	-0.086
-706.616	236.304	-0.127	-0.213
-705.602	-153.338	0.311	0.022
-704.587	-200.000	0.002	-0.318
-703.572	-13.534	-0.041	0.027
-702.558	-104.119	0.233	0.055
-701.543	-21.066	-0.086	0.053
-700.529	108.446	-0.084	0.101
-699.514	227.493	-0.109	-0.180
-698.499	-97.716	0.272	-0.071
-697.485	270.561	-0.125	0.222
-696.470	-52.327	-0.408	0.191
-695.456	-200.000	-0.070	-0.344
-694.441	329.447	-0.150	-0.290
-693.426	-200.000	0.006	-0.064
-692.412	-6.273	-0.120	-0.082
-691.397	-83.254	-0.119	-0.038
-690.383	199.383	0.044	0.068
-689.368	113.820	0.073	-0.089
-688.354	-61.715	-0.327	-0.138
-687.339	73.781	-0.122	-0.129
-686.324	-200.000	0.085	-0.616
-685.310	-52.006	-0.191	-0.090
-684.295	800.000	0.033	-0.145
-683.281	-125.315	-0.375	-0.058
-682.266	-175.362	-0.393	-0.011
-681.251	31.134	-0.171	-0.148
-680.237	546.239	0.037	0.089
-679.222	642.695	-0.072	-0.185
-678.208	5.169	0.178	-0.132
-677.193	287.982	-0.250	-0.457
-676.178	-153.576	0.047	-0.003
-675.164	-110.576	0.152	-0.032
-674.149	800.000	-0.030	-0.114
-673.135	800.000	-0.193	0.541
-672.120	6.163	-0.276	0.206
-671.105	-45.700	0.264	-0.131
-670.091	166.158	0.074	-0.105
-669.076	-200.000	0.042	0.204
-668.062	-30.815	0.089	-0.051
-667.047	-188.753	-0.170	0.002
-666.032	-87.516	0.360	0.110
-665.018	-131.722	0.176	-0.023
-664.003	618.372	-0.199	0.503
-662.989	273.372	0.097	-0.173
-661.974	-64.123	-0.416	-0.171
-660.959	-158.624	-0.248	-0.014
-659.945	-200.000	-0.048	0.330
-658.930	32.630	0.343	-0.299
-657.916	-51.516	-0.395	-0.186
-656.901	664.923	0.114	-0.296
-655.886	-200.000	0.007	-0.067
-654.872	69.522	0.072	-0.075
-653.857	-105.400	-0.167	0.038
-652.843	17.417	-0.266	-0.213
-651.828	800.000	-0.008	-0.024
-650.814	207.468	0.157	0.247
-649.799	127.593	-0.255	-0.326
-648.784	-43.429	-0.036	0.018
-647.770	-200.000	-0.017	-0.201
-646.755	172.920	0.279	-0.405
-645.741	447.725	-0.078	-0.172
-644.726	182.898	-0.216	-0.321
-643.711	-151.998	0.253	-0.019
-642.697	-17.922	0.168	-0.106
-641.682	-200.000	0.036	0.171
-640.668	-200.000	-0.025	0.340
-639.653	-19.760	-0.027	0.017
-638.638	-110.572	0.071	0.015
-637.624	-72.911	0.076	0.028
-636.609	149.198	-0.171	0.232
-635.595	-110.585	0.496	0.103
-634.580	-80.505	-0.194	0.065
-633.565	-200.000	-0.013	0.296
-632.551	466.037	0.061	0.137
-631.536	-55.898	-0.090	0.040
-630.522	-79.692	-0.297	-0.101
-629.507	800.000	-0.063	-0.184
-628.492	-118.332	0.195	-0.035
-627.478	73.755	0.116	0.122
-626.463	88.226	0.182	-0.203
-625.449	22.017	-0.118	-0.097
-624.434	-94.682	-0.508	-0.139
-623.419	800.000	0.129	-0.425
-622.405	74.511	0.186	-0.197
-621.390	-91.958	0.310	-0.088
-620.376	-111.748	-0.253	-0.052
-619.361	17.034	-0.307	0.245
-618.346	-70.740	-0.140	0.053
-617.332	-17.515	-0.416	-0.263
-616.317	-45.666	0.240	0.119
-615.303	280.716	0.053	0.095
-614.288	-200.000	-0.003	-0.206
-613.273	-200.000	0.022	0.184
-612.259	154.035	-0.182	0.251
-611.244	-12.468	-0.503	-0.330
-610.230	-36.558	0.171	-0.092
-609.215	367.777	0.058	0.117
-608.201	457.914	-0.140	0.313
-607.186	-43.483	0.116	-0.059
-606.171	-126.032	-0.077	-0.012
-605.157	13.242	-0.224	0.174
-604.142	-172.416	0.352	-0.011
-603.128	-200.000	-0.088	-0.432
-602.113	54.371	0.097	-0.094
-601.098	269.274	-0.018	-0.032
-600.084	-118.646	0.333	-0.059
-599.069	2.937	0.280	-0.205
-598.055	161.379	0.146	0.205
-597.040	-200.000	0.006	-0.099
-596.025	114.312	0.241	-0.295
-595.011	800.000	0.014	-0.044
-593.996	-132.574	-0.072	-0.009
-592.982	-38.474	0.071	-0.038
-591.967	-15.422	-0.163	0.104
-590.952	-200.000	0.020	-0.180
-589.938	-109.909	0.276	-0.058
-588.923	165.811	-0.138	-0.197
-587.909	115.839	0.133	-0.164
-586.894	-107.992	-0.039	0.008
-585.879	-200.000	-0.003	-0.328
-584.865	-4.054	0.158	-0.110
-583.850	-170.172	0.226	0.008
-582.836	734.458	-0.051	0.138
-581.821	-26.751	0.073	-0.043
-580.806	-104.106	0.188	0.044
-579.792	-58.568	-0.210	0.092
-578.777	96.020	0.118	-0.135
-577.763	-133.636	-0.426	-0.054
-576.748	-126.677	-0.170	0.025
-575.733	3.556	-0.195	0.143
-574.719	-43.078	-0.165	-0.084
-573.704	128.109	0.242	0.308
-572.690	49.909	-0.046	0.044
-571.675	800.000	0.078	0.254
-570.661	72.904	0.222	0.233
-569.646	800.000	-0.088	0.250
-568.631	-200.000	0.021	-0.316
-567.617	-87.013	-0.252	0.077
-566.602	-109.016	-0.290	0.062
-565.588	-88.541	-0.028	0.008
-564.573	-200.000	0.034	0.186
-563.558	119.746	0.161	0.200
-562.544	-200.000	-0.001	0.129
-561.529	-28.185	0.222	-0.129
-560.515	-164.447	0.224	-0.010
-559.500	163.340	-0.093	-0.131
-558.485	-94.219	0.286	-0.078
-557.471	349.489	-0.118	0.233
-556.456	-9.194	0.251	-0.169
-555.442	242.307	-0.194	-0.326
-554.427	423.588	-0.109	-0.236
-553.412	-30.365	-0.364	-0.207
-552.398	72.395	0.068	-0.071
-551.383	-130.675	0.129	0.017
-550.369	-200.000	-0.025	0.126
-549.354	-57.201	0.212	0.094
-548.339	-154.467	-0.226	-0.015
-547.325	-63.351	0.210	0.087
-546.310	-65.280	0.303	-0.122
-545.296	1.654	-0.320	0.231
-544.281	-28.965	-0.091	0.052
-543.266	-16.603	-0.272	-0.173
-542.252	-127.233	-0.263	0.039
-541.237	-27.882	-0.129	-0.075
-540.223	-14.024	-0.164	0.106
-539.208	772.599	-0.071	0.193
-538.193	1.623	0.378	0.273
-537.179	-113.613	0.196	-0.038
-536.164	42.877	-0.162	-0.148
-535.150	214.447	0.221	-0.351
-534.135	541.157	-0.057	-0.136
-533.121	-200.000	0.006	-0.481
-532.106	-57.912	-0.217	0.095
-531.091	240.935	-0.299	-0.499
-530.077	-112.174	0.179	0.036
-529.062	143.334	0.221	0.295
-528.048	800.000	0.101	-0.297
-527.033	107.597	0.148	-0.176
-526.018	101.132	0.178	-0.208
-525.004	175.804	0.074	0.108
-523.989	-4.438	0.114	-0.079
-522.975	800.000	-0.003	0.012
-521.960	402.665	-0.086	0.181
-520.945	-23.910	0.351	0.210
-519.931	647.979	-0.026	-0.067
-518.916	-63.654	0.335	-0.138
-517.902	-26.731	-0.404	-0.237
-516.887	14.814	-0.151	0.118
-515.872	800.000	-0.028	0.101
-514.858	-155.980	-0.343	0.022
-513.843	-41.211	-0.121	0.063
-512.829	-47.971	-0.336	0.163
-511.814	-180.057	-0.266	-0.006
-510.799	-35.141	-0.168	0.092
-509.785	800.000	0.040	0.168
-508.770	191.627	-0.160	0.241
-507.756	77.340	0.145	0.154
-506.741	-152.650	0.262	0.019
-505.726	-78.847	0.327	0.112
-504.712	72.108	-0.173	0.180
-503.697	-43.621	0.322	0.163
-502.683	-200.000	-0.042	0.328
-501.668	-5.040	0.050	0.034
-500.653	-200.000	0.006	0.273
-499.639	336.419	-0.087	0.168
-498.624	145.829	0.071	0.095
-497.610	-63.228	-0.111	-0.046
-496.595	-59.042	-0.161	0.070
-495.581	-200.000	-0.001	-0.248
-494.566	800.000	-0.065	-0.198
-493.551	52.012	-0.189	0.180
-492.537	-51.862	0.282	0.131
-491.522	800.000	0.045	0.188
-490.508	43.465	0.222	0.203
-489.493	-30.311	0.177	0.100
-488.478	-188.254	-0.220	-0.003
-487.464	-130.786	-0.158	0.021
-486.449	-136.992	-0.246	-0.028
-485.435	459.053	0.057	-0.126
-484.420	112.997	0.051	0.062
-483.405	20.999	0.134	0.109
-482.391	-88.345	0.415	-0.124
-481.376	-50.471	0.198	0.093
-480.362	52.409	-0.159	0.152
-479.347	-200.000	-0.040	-0.259
-478.332	232.519	-0.161	-0.265
-477.318	-2.211	0.139	0.097
-476.303	106.956	-0.153	0.181
-475.289	66.290	-0.117	0.118
-474.274	-57.188	0.240	0.106
-473.259	197.898	-0.117	0.179
-472.245	-88.065	-0.065	0.019
-471.230	-144.894	-0.256	0.023
-470.216	-46.602	0.173	-0.085
-469.201	800.000	0.039	-0.129
-468.186	45.444	0.109	-0.101
-467.172	749.857	0.084	0.227
-466.157	800.000	-0.074	-0.239
-465.143	-200.000	-0.031	0.315
-464.128	63.603	-0.163	-0.164
-463.113	45.512	-0.245	-0.226
-462.099	467.502	-0.119	0.268
-461.084	-130.232	0.107	0.015
-460.070	97.580	-0.067	0.077
-459.055	-38.755	0.195	0.103
-458.040	-122.500	0.195	0.032
-457.026	53.720	-0.134	0.129
-456.011	-200.000	0.030	-0.469
-454.997	-200.000	0.023	-0.431
-453.982	141.614	0.257	0.339
-452.968	-188.607	0.242	-0.003
-451.953	-91.752	0.113	0.032
-450.938	800.000	0.029	0.122
-449.924	-187.742	-0.262	0.003
-448.909	-96.271	-0.425	0.113
-447.895	423.283	-0.142	0.304
-446.880	403.249	-0.123	-0.258
-445.865	-146.569	0.327	0.028
-444.851	-148.625	-0.161	-0.013
-443.836	-153.608	0.218	0.015
-442.822	188.096	0.111	0.166
-441.807	-15.105	-0.249	-0.160
-440.792	197.574	0.189	-0.288
-439.778	22.395	-0.156	0.127
-438.763	-60.121	-0.193	0.082
-437.749	116.093	0.096	0.117
-436.734	297.931	0.087	0.160
-435.719	-139.267	-0.066	0.007
-434.705	-28.938	0.229	-0.131
-433.690	-14.567	-0.147	0.095
-432.676	-76.804	-0.259	-0.090
-431.661	800.000	0.022	-0.076
-430.646	-18.362	0.266	0.166
-429.632	120.971	0.094	-0.117
-428.617	-45.802	0.126	0.062
-427.603	21.683	-0.146	-0.118
-426.588	72.961	0.255	0.266
-425.573	316.987	-0.198	0.374
-424.559	744.148	-0.082	-0.220
-423.544	-200.000	-0.034	-0.157
-422.530	187.759	0.175	-0.261
-421.515	169.813	0.053	-0.076
-420.500	-122.512	0.418	0.068
-419.486	-14.183	0.151	-0.097
-418.471	26.885	0.106	0.088
-417.457	-102.778	-0.239	0.057
-416.442	-200.000	0.006	0.061
-415.428	-98.094	-0.095	-0.024
-414.413	-91.096	-0.362	-0.104
-413.398	-200.000	-0.185	-0.000
-412.384	-32.312	-0.060	0.033
-411.369	222.973	0.080	-0.129
-410.355	21.253	-0.269	0.218
-409.340	800.000	-0.055	-0.191
-408.325	77.779	-0.113	-0.120
-407.311	-33.562	-0.173	0.095
-406.296	-8.766	-0.467	0.312
-405.282	29.451	-0.071	-0.060
-404.267	-112.847	0.176	-0.035
-403.252	99.171	0.276	-0.317
-402.238	-200.000	-0.001	-0.275
-401.223	314.883	0.165	0.309
-400.209	321.199	-0.150	-0.285
-399.194	747.059	-0.102	0.274
-398.179	-200.000	-0.079	-0.449
-397.165	18.699	-0.088	0.070
-396.150	110.872	0.052	0.063
-395.136	-92.082	0.126	-0.036
-394.121	133.654	0.128	0.165
-393.106	-73.675	-0.495	-0.180
-392.092	-74.745	-0.419	0.150
-391.077	-52.577	0.104	0.048
-390.063	368.810	-0.057	-0.114
-389.048	531.963	-0.054	0.128
-388.033	561.887	0.022	-0.053
-387.019	800.000	0.084	0.294
-386.004	182.055	-0.115	0.169
-384.990	-55.790	-0.142	0.063
-383.975	374.754	0.199	0.405
-382.960	68.111	0.082	-0.083
-381.946	539.441	0.119	-0.283
-380.931	-200.000	0.030	-0.199
-379.917	-56.841	-0.239	-0.105
-378.902	-23.572	-0.163	0.097
-377.888	-57.807	0.261	-0.114
-376.873	52.777	-0.270	0.257
-375.858	-116.090	-0.120	-0.022
-374.844	256.389	-0.058	-0.100
-373.829	800.000	-0.021	0.079
-372.815	800.000	-0.050	0.191
-371.800	-39.943	-0.217	-0.113
-370.785	-200.000	0.025	-0.252
-369.771	-79.568	-0.225	-0.076
-368.756	9.068	-0.235	0.177
-367.742	290.397	-0.130	0.235
-366.727	-200.000	0.024	0.149
-365.712	-200.000	-0.005	0.358
-364.698	13.439	0.122	0.094
-363.683	-113.681	0.363	-0.070
-362.669	-21.577	-0.139	-0.084
-361.654	240.266	-0.009	-0.014
-360.639	-111.609	-0.128	-0.026
-359.625	-200.000	-0.071	-0.378
-358.610	-110.207	-0.480	0.100
-357.596	391.812	-0.077	-0.158
-356.581	9.602	-0.112	0.084
-355.566	-56.348	-0.255	0.113
-354.552	-9.588	0.212	-0.140
-353.537	239.499	-0.098	0.162
-352.523	-139.039	0.201	0.022
-351.508	800.000	0.067	-0.255
-350.493	44.564	-0.231	0.211
-349.479	112.025	0.112	-0.135
-348.464	412.243	-0.120	0.254
-347.450	63.248	-0.094	0.093
-346.435	158.464	0.136	-0.187
-345.420	-32.377	0.126	0.070
-344.406	-148.916	0.223	-0.018
-343.391	79.182	0.071	0.075
-342.377	375.789	0.079	0.160
-341.362	800.000	-0.065	-0.262
-340.348	224.704	-0.060	-0.096
-339.333	-106.182	-0.024	0.005
-338.318	211.548	0.200	-0.314
-337.304	297.231	-0.079	0.143
-336.289	-79.738	0.350	-0.117
-335.275	129.595	0.148	-0.188
-334.260	-200.000	-0.025	0.241
-333.245	-163.159	-0.214	-0.010
-332.231	-200.000	-0.017	-0.198
-331.216	-23.373	-0.043	0.025
-330.202	33.395	0.121	0.105
-329.187	800.000	-0.138	-0.434
-328.172	-75.733	0.320	0.113
-327.158	1.552	-0.199	0.142
-326.143	-60.035	-0.059	-0.025
-325.129	29.128	-0.063	0.053
-324.114	27.851	-0.037	-0.031
-323.099	-89.863	-0.112	0.033
-322.085	800.000	0.051	-0.220
-321.070	-23.130	-0.323	-0.193
-320.056	-100.432	-0.104	-0.026
-319.041	667.081	-0.086	0.221
-318.026	338.451	0.068	-0.131
-317.012	800.000	0.104	0.293
-315.997	258.977	-0.047	-0.081
-314.983	-200.000	-0.004	-0.041
-313.968	800.000	-0.018	-0.070
-312.953	-167.689	-0.227	-0.009
-311.939	82.086	0.143	0.154
-310.924	562.468	-0.080	0.191
-309.910	316.422	0.138	-0.258
-308.895	221.932	0.043	0.068
-307.880	295.336	-0.167	-0.303
-306.866	-200.000	0.039	0.382
-305.851	17.883	0.270	0.213
-304.837	-200.000	-0.001	-0.511
-303.822	-35.807	0.025	-0.013
-302.807	-200.000	0.080	-0.392
-301.793	-64.645	-0.254	-0.102
-300.778	-200.000	-0.001	0.351
-299.764	-4.201	-0.116	0.080
-298.749	40.527	-0.041	-0.037
-297.735	257.007	-0.074	-0.127
-296.720	-119.902	-0.142	0.024
-295.705	-33.053	0.144	-0.079
-294.691	-200.000	-0.030	0.201
-293.676	-81.437	-0.089	0.029
-292.662	-200.000	0.023	0.176
-291.647	-200.000	-0.018	-0.472
-290.632	800.000	0.071	-0.196
-289.618	80.331	-0.024	0.026
-288.603	57.894	0.222	0.215
-287.589	800.000	-0.051	0.211
-286.574	629.783	0.083	0.207
-285.559	193.910	-0.048	0.072
-284.545	-119.796	-0.144	-0.025
-283.530	-200.000	0.008	-0.157
-282.516	127.462	0.259	0.326
-281.501	-56.528	0.532	-0.234
-280.486	-27.471	0.171	-0.099
-279.472	-106.131	0.185	-0.041
-278.457	-48.997	-0.144	-0.068
-277.443	478.437	0.142	0.318
-276.428	-200.000	-0.055	-0.391
-275.413	174.136	-0.140	-0.201
-274.399	52.032	-0.250	0.237
-273.384	-200.000	-0.018	0.205
-272.370	-163.803	-0.188	0.009
-271.355	-200.000	0.069	-0.426
-270.340	61.342	-0.110	-0.108
-269.326	-200.000	-0.057	-0.288
-268.311	800.000	-0.096	0.279
-267.297	771.120	0.054	-0.145
-266.282	-200.000	-0.018	-0.098
-265.267	-131.749	-0.326	0.042
-264.253	-200.000	0.035	-0.251
-263.238	-166.144	0.254	0.011
-262.224	-184.882	-0.036	0.001
-261.209	-144.020	0.145	0.014
-260.195	66.929	-0.325	-0.328
-259.180	518.824	-0.104	-0.241
-258.165	-200.000	0.001	-0.059
-257.151	-0.881	-0.084	0.059
-256.136	158.984	0.072	0.099
-255.122	246.086	-0.105	-0.175
-254.107	122.646	-0.106	-0.132
-253.092	-200.000	0.011	0.526
-252.078	-200.000	0.003	-0.080
-251.063	-34.589	-0.135	0.073
-250.049	139.090	-0.146	-0.190
-249.034	173.674	0.105	-0.151
-248.019	-99.142	-0.200	-0.050
-247.005	-32.933	0.300	-0.165
-245.990	-170.335	0.418	-0.015
-244.976	800.000	0.083	-0.324
-243.961	-46.598	-0.036	0.017
-242.946	57.847	-0.156	0.151
-241.932	735.158	-0.129	-0.343
-240.917	-39.592	0.148	0.077
-239.903	23.730	-0.181	0.148
-238.888	-81.617	-0.154	0.050
-237.873	-141.732	0.174	0.017
-236.859	198.636	-0.111	-0.168
-235.844	-200.000	0.004	-0.123
-234.830	-13.846	0.160	0.103
-233.815	-71.493	0.165	0.061
-232.800	90.697	-0.120	-0.133
-231.786	93.272	0.120	-0.135
-230.771	-200.000	0.055	0.246
-229.757	-89.834	0.666	0.193
-228.742	-93.153	-0.268	0.074
-227.727	4.490	0.026	-0.019
-226.713	35.753	0.184	-0.160
-225.698	240.446	-0.083	-0.137
-224.684	714.775	-0.050	-0.130
-223.669	76.115	-0.123	-0.129
-222.655	11.962	-0.121	0.092
-221.640	-200.000	-0.009	0.193
-220.625	-200.000	0.008	0.095
-219.611	-157.743	-0.098	0.006
-218.596	172.457	0.175	0.249
-217.582	-38.405	-0.198	-0.104
-216.567	-24.949	0.121	-0.071
-215.552	-200.000	0.048	0.252
-214.538	800.000	0.045	0.150
-213.523	800.000	0.083	0.275
-212.509	167.138	-0.071	0.100
-211.494	48.393	0.045	-0.042
-210.479	-66.513	0.033	0.013
-209.465	-200.000	-0.013	0.261
-208.450	147.645	0.114	0.153
-207.436	-57.286	0.168	-0.073
-206.421	-200.000	-0.001	0.006
-205.406	23.829	0.154	-0.126
-204.392	-200.000	-0.010	0.061
-203.377	165.631	-0.057	0.079
-202.363	-200.000	0.027	-0.270
-201.348	-60.798	0.288	0.121
-200.333	388.057	0.065	0.133
-199.319	86.175	0.079	0.086
-198.304	-11.142	-0.177	0.115
-197.290	-200.000	-0.008	0.049
-196.275	21.509	0.136	0.109
-195.260	-124.809	0.189	-0.029
-194.246	1.422	0.360	-0.256
-193.231	17.337	-0.138	-0.109
-192.217	359.567	-0.034	0.067
-191.202	87.781	0.007	-0.008
-190.187	65.597	0.031	0.031
-189.173	-200.000	0.036	0.394
-188.158	-153.708	-0.114	0.008
-187.144	-49.166	0.303	0.143
-186.129	800.000	0.051	0.174
-185.114	130.708	0.121	0.153
-184.100	-26.281	-0.257	-0.149
-183.085	53.207	0.085	0.081
-182.071	143.136	0.238	-0.313
-181.056	65.013	-0.165	0.165
-180.042	-200.000	0.004	-0.059
-179.027	26.546	0.230	-0.190
-178.012	-200.000	-0.044	0.432
-176.998	-46.653	-0.094	0.045
-175.983	648.870	0.066	0.166
-174.969	161.617	0.071	0.099
-173.954	-200.000	0.052	0.258
-172.939	-48.931	0.232	0.110
-171.925	-142.803	-0.134	0.013
-170.910	170.436	0.043	0.061
-169.896	380.839	-0.036	-0.073
-168.881	-200.000	-0.018	0.200
-167.866	-14.934	0.077	-0.048
-166.852	133.777	0.185	0.236
-165.837	9.690	0.067	0.050
-164.823	532.000	-0.048	-0.111
-163.808	57.531	0.128	-0.124
-162.793	-155.242	0.265	0.017
-161.779	98.942	-0.109	-0.125
-160.764	369.608	-0.179	0.358
-159.750	-107.853	-0.006	-0.001
-158.735	-94.486	0.220	0.059
-157.720	491.867	0.072	-0.163
-156.706	173.899	0.155	0.221
-155.691	98.429	0.239	0.272
-154.677	-200.000	0.022	-0.233
-153.662	-200.000	0.013	-0.147
-152.647	108.208	0.162	-0.190
-151.633	107.317	-0.168	-0.198
-150.618	-200.000	0.057	-0.328
-149.604	15.160	-0.144	-0.111
-148.589	189.666	0.143	0.212
-147.574	182.415	-0.170	0.247
-146.560	125.431	-0.283	0.352
-145.545	23.026	-0.096	-0.078
-144.531	-200.000	0.002	-0.087
-143.516	424.190	0.042	0.088
-142.502	271.766	-0.091	-0.158
-141.487	-168.426	0.063	0.002
-140.472	-95.188	-0.108	0.029
-139.458	163.160	-0.055	-0.076
-138.443	109.039	-0.132	-0.156
-137.429	24.899	-0.056	0.046
-136.414	43.149	0.143	0.128
-135.399	236.324	0.182	0.297
-134.385	259.738	-0.114	0.195
-133.370	800.000	0.033	0.122
-132.356	-183.195	0.195	0.003
-131.341	-71.780	0.190	0.070
-130.326	149.971	-0.035	0.047
-129.312	-34.492	0.098	0.053
-128.297	785.794	0.153	0.413
-127.283	-152.014	-0.177	-0.013
-126.268	-140.230	-0.153	0.016
-125.253	-40.486	0.200	-0.102
-124.239	493.992	-0.044	-0.100
-123.224	287.409	-0.197	0.351
-122.210	36.484	0.259	0.225
-121.195	800.000	-0.049	0.136
-120.180	-154.770	0.281	0.018
-119.166	-107.287	-0.355	-0.077
-118.151	179.460	-0.160	0.231
-117.137	-136.539	-0.069	0.008
-116.122	-200.000	0.009	-0.248
-115.107	309.245	-0.160	0.295
-114.093	-142.812	0.194	0.019
-113.078	800.000	-0.092	-0.301
-112.064	800.000	-0.044	0.166
-111.049	-200.000	-0.039	-0.194
-110.034	-136.732	0.515	0.059
-109.020	800.000	-0.046	0.183
-108.005	42.801	0.136	-0.122
-106.991	-84.029	0.210	-0.066
-105.976	145.741	-0.063	0.083
-104.962	114.119	0.109	0.131
-103.947	-49.320	-0.136	-0.064
-102.932	55.821	0.266	-0.254
-101.918	503.647	-0.084	-0.191
-100.903	800.000	-0.063	0.172
-99.889	223.868	0.118	0.187
-98.874	574.332	-0.109	0.262
-97.859	13.866	0.234	-0.179
-96.845	-47.903	-0.075	-0.036
-95.830	97.368	-0.228	0.257
-94.816	-44.374	-0.388	0.191
-93.801	-126.138	0.320	0.047
-92.786	-40.910	-0.173	0.088
-91.772	9.890	-0.157	-0.117
-90.757	-200.000	0.036	-0.202
-89.743	-200.000	0.015	0.084
-88.728	224.936	-0.026	-0.042
-87.713	800.000	-0.081	0.342
-86.699	-200.000	-0.061	0.326
-85.684	98.132	-0.178	0.201
-84.670	173.168	-0.117	-0.165
-83.655	-3.880	0.195	-0.133
-82.640	800.000	0.098	0.288
-81.626	8.534	0.402	0.298
-80.611	410.203	-0.070	0.145
-79.597	312.332	0.009	-0.016
-78.582	43.751	-0.155	0.139
-77.567	54.771	-0.223	-0.212
-76.553	221.779	-0.142	-0.225
-75.538	800.000	0.018	-0.050
-74.524	81.217	-0.323	0.344
-73.509	-144.443	0.278	0.025
-72.494	99.738	0.145	0.165
-71.480	-50.538	0.164	-0.076
-70.465	56.923	0.109	-0.104
-69.451	-171.173	0.338	0.011
-68.436	-98.603	0.299	0.075
-67.422	241.657	0.136	-0.224
-66.407	17.045	-0.068	-0.053
-65.392	-169.038	0.211	-0.008
-64.378	-20.227	0.185	0.112
-63.363	800.000	0.111	-0.407
-62.349	-200.000	-0.032	0.399
-61.334	88.866	-0.911	-0.997
-60.319	-200.000	0.138	0.650
-59.305	800.000	-0.341	-1.144
-58.290	122.229	0.678	0.833
-57.276	155.968	1.022	1.385
-56.261	-200.000	96.935	582.649
-55.246	594.036	1403.300	3412.758
-54.232	189.826	2603.830	3842.224
-53.217	117.088	2185.694	2641.071
-52.203	41.943	1718.410	1533.204
-51.188	34.181	1528.099	1310.186
-50.173	31.728	1501.315	1270.554
-49.159	51.597	1551.596	1450.547
-48.144	52.743	1569.170	1474.820
-47.130	34.501	1528.216	1312.277
-46.115	31.339	1513.953	1278.386
-45.100	31.060	1510.385	1273.422
-44.086	31.117	1508.530	1272.194
-43.071	31.062	1505.954	1269.594
-42.057	31.052	1503.984	1267.817
-41.042	31.006	1503.374	1266.941
-40.027	30.930	1501.958	1265.183
-39.013	31.026	1500.319	1264.403
-37.998	30.964	1498.938	1262.765
-36.984	30.931	1497.578	1261.348
-35.969	30.988	1496.102	1260.440
-34.954	31.043	1494.655	1259.540
-33.940	30.975	1493.691	1258.221
-32.925	30.976	1492.371	1257.068
-31.911	31.014	1491.327	1256.392
-30.896	31.088	1489.419	1255.234
-29.881	31.007	1488.470	1253.836
-28.867	31.117	1486.501	1252.871
-27.852	31.074	1485.894	1252.022
-26.838	30.979	1484.447	1250.114
-25.823	31.063	1482.717	1249.168
-24.809	31.080	1480.375	1247.264
-23.794	30.972	1479.626	1245.855
-22.779	31.057	1478.409	1245.349
-21.765	31.038	1477.385	1244.315
-20.750	31.065	1476.204	1243.450
-19.736	30.999	1475.360	1242.248
-18.721	30.952	1474.010	1240.752
-17.706	30.912	1473.225	1239.772
-16.692	31.059	1471.195	1238.991
-15.677	30.961	1471.133	1238.237
-14.663	30.907	1469.871	1236.771
-13.648	30.891	1469.057	1235.930
-12.633	31.025	1467.508	1235.469
-11.619	30.953	1466.561	1234.144
-10.604	30.990	1466.322	1234.138
-9.590	30.935	1465.140	1232.727
-8.575	30.906	1464.544	1231.987
-7.560	30.948	1463.312	1231.178
-6.546	30.912	1462.930	1230.569
-5.531	30.897	1462.519	1230.081
-4.517	30.927	1461.290	1229.195
-3.502	30.982	1459.699	1228.169
-2.487	30.914	1458.608	1226.754
-1.473	30.925	1458.030	1226.294
-0.458	30.883	1456.738	1224.883
0.556	33.029	1447.291	1215.722
1.571	30.220	1421.528	1176.192
2.586	26.702	1360.106	1103.880
3.600	25.047	1277.312	1027.118
4.615	23.095	1231.377	979.294
5.629	19.801	1174.775	916.768
6.644	11.907	1090.386	811.847
7.659	5.794	1050.754	752.986
8.673	4.871	1045.567	744.792
9.688	4.406	1042.600	740.397
10.702	4.449	1040.824	739.277
11.717	4.435	1039.507	738.208
12.731	7.469	1042.173	754.479
13.746	15.332	1052.740	799.691
14.761	21.155	1060.284	833.227
15.775	22.186	1060.217	838.019
16.790	21.520	1058.809	833.659
17.804	20.687	1056.490	827.802
18.819	19.823	1054.987	822.442
19.834	19.354	1053.938	819.324
20.848	19.249	1052.773	817.848
21.863	19.161	1052.011	816.768
22.877	18.951	1051.724	815.476
23.892	18.796	1050.672	813.852
24.907	18.775	1049.760	812.975
25.921	18.665	1049.392	812.097
26.936	18.817	1048.060	811.716
27.950	18.707	1047.290	810.528
28.965	18.756	1046.536	810.101
29.980	18.898	1045.029	809.533
30.994	19.042	1044.037	809.370
32.009	19.182	1043.441	809.493
33.023	19.033	1042.991	808.375
34.038	19.217	1041.966	808.371
35.053	19.060	1040.859	806.703
36.067	18.855	1040.035	805.034
37.082	18.755	1039.318	803.943
38.096	18.933	1038.433	804.016
39.111	18.927	1037.908	803.514
40.126	18.998	1036.990	803.062
41.140	18.926	1035.787	801.724
42.155	18.648	1034.133	799.077
43.169	18.519	1033.620	798.012
44.184	18.251	1032.419	795.765
45.199	18.427	1030.589	795.101
46.213	18.370	1030.545	794.734
47.228	18.501	1029.541	794.497
48.242	18.725	1028.733	794.841
49.257	18.760	1028.356	794.642
50.271	18.785	1027.025	793.657
51.286	18.883	1026.001	793.247
52.301	18.905	1025.641	793.002
53.315	18.837	1024.977	792.104
54.330	18.800	1023.451	790.684
55.344	18.671	1022.417	789.224
56.359	18.559	1021.620	788.020
57.374	18.598	1020.986	787.643
58.388	18.465	1020.333	786.460
59.403	18.394	1019.214	785.198
60.417	18.423	1018.320	784.575
61.432	18.431	1017.296	783.756
62.447	18.296	1017.132	782.941
63.461	18.357	1016.236	782.462
64.476	18.237	1015.024	780.912
65.490	18.286	1013.963	780.250
66.505	18.227	1013.801	779.785
67.520	18.176	1012.764	778.686
68.534	18.290	1011.846	778.429
69.549	18.184	1011.363	777.508
70.563	18.128	1010.793	776.749
71.578	18.195	1009.659	776.111
72.593	18.123	1009.089	775.278
73.607	17.934	1007.658	773.253
74.622	17.963	1006.633	772.529
75.636	17.954	1005.733	771.729
76.651	18.037	1004.859	771.364
77.666	18.046	1004.446	771.023
78.680	18.146	1003.695	770.826
79.695	18.130	1003.141	770.260
80.709	18.072	1002.904	769.750
81.724	18.187	1002.232	769.684
82.739	18.511	1001.344	770.392
83.753	18.525	1000.780	769.950
84.768	18.741	999.842	770.132
85.782	18.982	999.760	771.080
86.797	19.222	999.006	771.505
87.812	19.292	998.247	771.166
88.826	19.009	997.098	768.945
89.841	18.989	996.158	768.059
90.855	19.091	995.557	767.986
91.870	18.990	995.215	767.201
92.884	19.179	994.519	767.441
93.899	19.103	993.554	766.291
94.914	19.140	992.578	765.632
95.928	19.145	992.346	765.411
96.943	19.094	991.513	764.471
97.957	19.039	990.508	763.385
98.972	18.954	989.514	762.177
99.987	19.076	988.284	761.700
101.001	19.039	987.576	760.924
102.016	19.051	987.112	760.554
103.030	18.969	986.349	759.536
104.045	19.004	985.567	759.019
105.060	18.996	984.514	758.104
106.074	18.980	983.686	757.332
107.089	18.780	982.169	755.217
108.103	18.488	981.278	753.184
109.118	18.304	980.377	751.615
110.133	18.334	979.617	751.100
111.147	18.232	978.714	749.892
112.162	18.271	977.805	749.303
113.176	18.275	977.109	748.717
114.191	18.259	976.465	748.087
115.206	18.560	975.191	748.361
116.220	18.474	975.020	747.789
117.235	18.440	973.770	746.617
118.249	18.560	972.650	746.212
119.264	18.347	972.437	745.056
120.279	18.234	971.422	743.723
121.293	18.181	970.884	743.015
122.308	18.318	969.889	742.782
123.322	18.053	969.403	741.193
124.337	18.092	967.728	740.015
125.352	18.055	966.822	739.100
126.366	17.916	965.948	737.762
127.381	18.079	964.979	737.660
128.395	18.033	964.125	736.743
129.410	18.136	963.130	736.364
130.424	18.091	962.498	735.621
131.439	18.113	961.641	734.995
132.454	18.313	960.940	735.257
133.468	18.556	960.089	735.581
134.483	18.424	959.587	734.564
135.497	18.378	959.383	734.147
136.512	18.331	958.176	732.959
137.527	18.329	957.464	732.338
138.541	18.448	956.428	731.990
139.556	18.471	955.975	731.678
140.570	18.505	954.966	730.984
141.585	18.702	954.062	731.066
142.600	18.841	954.125	731.644
143.614	18.849	953.257	730.945
144.629	19.047	952.543	731.175
145.643	19.060	952.208	730.911
146.658	18.976	950.732	729.357
147.673	18.789	949.977	727.921
148.687	18.772	948.290	726.490
149.702	18.564	947.849	725.207
150.716	18.494	946.950	724.160
151.731	18.432	945.964	723.079
152.746	18.519	945.368	722.927
153.760	18.570	944.483	722.405
154.775	18.487	944.081	721.681
155.789	18.636	943.414	721.736
156.804	18.691	942.784	721.423
157.819	18.794	941.575	720.865
158.833	18.790	941.221	720.512
159.848	18.989	940.338	720.605
160.862	19.061	940.039	720.615
161.877	19.087	939.032	719.888
162.892	18.729	938.069	717.591
163.906	18.482	936.703	715.449
164.921	18.385	936.404	714.754
165.935	18.438	934.904	713.769
166.950	18.475	933.935	713.119
167.964	18.754	932.811	713.356
168.979	18.919	931.529	712.996
169.994	18.578	930.990	711.108
171.008	18.503	930.275	710.186
172.023	18.685	929.443	710.242
173.037	18.755	929.387	710.427
174.052	19.034	928.669	710.967
175.067	19.022	927.447	709.919
176.081	18.736	926.697	708.106
177.096	18.326	926.077	705.879
178.110	18.442	925.045	705.509
179.125	18.416	924.522	704.940
180.140	18.660	923.631	705.198
181.154	18.669	922.921	704.631
182.169	18.679	922.551	704.330
183.183	18.842	922.607	704.977
184.198	19.096	921.431	705.056
185.213	19.054	920.516	704.122
186.227	19.019	920.321	703.768
187.242	18.893	919.969	702.921
188.256	18.963	919.698	702.937
189.271	19.348	918.323	703.397
190.286	19.345	917.750	702.884
191.300	18.944	916.988	700.603
192.315	18.571	915.830	698.138
193.329	18.369	914.594	696.314
194.344	18.424	914.076	696.082
195.359	18.437	913.959	695.984
196.373	18.652	913.480	696.428
197.388	18.740	913.109	696.440
198.402	19.031	912.544	697.127
199.417	19.187	912.326	697.531
200.432	19.211	912.000	697.316
201.446	19.340	911.584	697.459
202.461	19.461	911.326	697.689
203.475	19.561	910.488	697.393
204.490	19.640	910.093	697.347
205.504	19.362	908.999	695.325
206.519	19.201	907.552	693.510
207.534	19.020	907.305	692.531
208.548	18.978	906.776	691.894
209.563	19.130	905.691	691.618
210.577	19.124	905.066	691.054
211.592	19.195	904.319	690.707
212.607	19.349	904.147	691.134
213.621	19.464	903.638	691.142
214.636	19.399	903.175	690.468
215.650	19.318	902.426	689.508
216.665	19.353	901.972	689.243
217.680	19.431	901.072	688.804
218.694	19.525	900.787	688.902
219.709	19.601	900.578	688.983
220.723	19.466	899.944	687.899
221.738	19.410	899.105	686.976
222.753	19.510	898.276	686.678
223.767	19.578	897.407	686.222
224.782	19.520	896.923	685.562
225.796	19.716	896.168	685.704
226.811	19.599	896.055	685.092
227.826	19.549	895.346	684.290
228.840	19.408	894.314	682.882
229.855	19.304	893.600	681.867
230.869	19.286	893.108	681.359
231.884	19.488	892.073	681.305
232.899	19.384	891.316	680.258
233.913	19.274	890.573	679.197
234.928	19.045	890.286	678.017
235.942	18.978	889.446	677.053
236.957	19.095	888.452	676.693
237.972	19.245	887.750	676.690
238.986	19.207	887.219	676.076
240.001	19.304	886.956	676.195
241.015	19.164	886.017	674.873
242.030	19.210	885.459	674.567
243.045	19.403	884.698	674.682
244.059	19.392	884.252	674.239
245.074	19.508	883.671	674.191
246.088	19.450	883.090	673.462
247.103	19.620	882.770	673.819
248.117	19.734	882.168	673.745
249.132	19.911	881.668	673.996
250.147	20.276	881.232	675.020
251.161	20.212	881.247	674.725
252.176	20.306	880.555	674.499
253.190	20.388	879.955	674.301
254.205	20.469	879.367	674.103
255.220	20.471	878.856	673.658
256.234	20.407	878.105	672.779
257.249	20.327	877.370	671.844
258.263	20.370	876.719	671.451
259.278	20.264	876.609	670.898
260.293	20.339	875.846	670.546
261.307	20.373	875.160	670.093
262.322	20.552	874.550	670.258
263.336	20.679	873.833	670.137
264.351	20.510	873.619	669.263
265.366	20.554	873.007	668.905
266.380	20.624	872.131	668.443
267.395	20.584	871.394	667.663
268.409	20.456	870.731	666.605
269.424	20.354	869.809	665.452
270.439	20.410	869.697	665.521
271.453	20.443	868.605	664.751
272.468	20.160	867.879	663.058
273.482	20.156	867.324	662.558
274.497	20.217	866.586	662.167
275.512	20.104	865.958	661.199
276.526	20.117	865.306	660.691
277.541	20.276	864.562	660.670
278.555	20.363	864.047	660.552
279.570	20.325	864.017	660.323
280.585	20.601	863.663	661.046
281.599	20.677	862.726	660.559
282.614	20.301	862.384	658.808
283.628	20.256	861.250	657.717
284.643	20.410	860.523	657.683
285.657	20.269	860.533	657.101
286.672	20.354	859.520	656.588
287.687	20.283	859.437	656.201
288.701	20.433	858.851	656.262
289.716	20.436	858.010	655.573
290.730	20.367	857.897	655.165
291.745	20.339	857.099	654.394
292.760	20.580	856.032	654.429
293.774	20.542	855.512	653.832
294.789	20.769	855.241	654.419
295.803	20.673	855.081	653.876
296.818	20.353	854.626	652.268
297.833	20.492	853.368	651.772
298.847	20.541	852.391	651.153
299.862	20.395	852.387	650.546
300.876	20.513	851.514	650.265
301.891	20.607	850.610	649.868
302.906	20.755	850.138	650.000
303.920	20.926	849.795	650.318
304.935	20.867	849.592	649.886
305.949	21.131	848.751	650.171
306.964	21.079	848.161	649.467
307.979	20.804	847.259	647.694
308.993	20.704	847.242	647.252
310.008	20.971	846.149	647.351
311.022	20.968	846.074	647.226
312.037	20.895	845.847	646.724
313.052	20.729	844.933	645.354
314.066	20.676	843.795	644.230
315.081	20.534	843.364	643.318
316.095	20.482	842.620	642.502
317.110	20.500	842.044	642.073
318.125	20.616	840.958	641.616
319.139	20.595	841.042	641.545
320.154	20.621	840.459	641.141
321.168	20.499	840.121	640.376
322.183	20.786	839.138	640.626
323.197	20.655	838.967	639.957
324.212	20.632	838.417	639.396
325.227	20.742	837.778	639.257
326.241	20.817	837.398	639.187
327.256	20.720	836.802	638.316
328.270	20.497	836.239	637.014
329.285	20.556	836.025	637.010
330.300	20.625	835.353	636.697
331.314	20.500	834.487	635.521
332.329	20.566	833.858	635.228
333.343	20.793	833.128	635.446
334.358	20.813	833.174	635.497
335.373	20.858	832.579	635.152
336.387	20.890	832.450	635.113
337.402	21.004	831.506	634.751
338.416	21.098	830.847	634.532
339.431	21.144	830.541	634.409
340.446	21.436	829.911	634.935
341.460	21.490	829.238	634.558
342.475	21.660	828.545	634.589
343.489	21.523	828.385	633.915
344.504	21.563	827.750	633.517
345.519	21.682	827.537	633.727
346.533	21.743	826.949	633.442
347.548	21.531	826.679	632.411
348.562	21.513	825.654	631.507
349.577	21.438	824.741	630.481
350.592	21.199	824.226	629.171
351.606	21.053	824.121	628.510
352.621	20.982	823.537	627.754
353.635	21.022	823.152	627.548
354.650	21.117	822.598	627.414
355.665	21.021	822.310	626.794
356.679	21.252	821.816	627.189
357.694	21.125	821.625	626.534
358.708	21.201	821.104	626.351
359.723	21.243	820.289	625.825
360.738	21.252	819.688	625.344
361.752	21.296	819.360	625.198
362.767	21.355	818.735	624.877
363.781	21.466	818.634	625.138
364.796	21.699	818.278	625.644
365.810	21.713	817.809	625.281
366.825	21.803	817.358	625.201
367.840	21.870	817.338	625.370
368.854	21.979	816.698	625.214
369.869	21.765	816.239	624.043
370.883	21.725	815.466	623.257
371.898	21.687	815.007	622.716
372.913	21.807	814.428	622.645
373.927	21.968	814.046	622.869
374.942	21.691	813.362	621.308
375.956	21.847	812.436	621.096
376.971	21.869	812.420	621.108
377.986	21.876	811.605	620.456
379.000	22.144	811.046	620.918
380.015	22.137	810.774	620.633
381.029	22.151	810.111	620.119
382.044	22.038	809.608	619.280
383.059	21.996	808.754	618.423
384.073	22.105	808.336	618.432
385.088	22.001	807.855	617.647
386.102	21.760	807.092	616.160
387.117	21.681	806.484	615.365
388.132	21.643	805.917	614.744
389.146	21.631	805.836	614.584
390.161	21.746	805.282	614.510
391.175	21.858	804.864	614.530
392.190	22.162	804.509	615.270
393.205	21.991	804.021	614.244
394.219	21.803	803.539	613.165
395.234	21.728	802.892	612.352
396.248	21.708	802.212	611.713
397.263	21.475	801.878	610.587
398.278	21.613	801.230	610.523
399.292	21.368	800.596	609.133
400.307	21.510	800.233	609.297
401.321	21.625	799.781	609.298
402.336	21.463	799.537	608.494
403.350	21.599	799.266	608.706
404.365	21.741	799.157	609.065
405.380	21.869	798.822	609.199
406.394	22.174	797.840	609.454
407.409	22.161	797.736	609.275
408.423	22.161	797.462	609.015
409.438	22.345	796.706	609.018
410.453	22.343	796.639	608.908
411.467	22.521	795.950	608.941
412.482	22.466	795.751	608.547
413.496	22.542	795.252	608.371
414.511	22.659	794.910	608.460
415.526	22.626	794.801	608.210
416.540	22.468	794.311	607.236
417.555	22.496	793.492	606.653
418.569	22.441	793.007	606.039
419.584	22.581	792.361	605.974
420.599	22.430	792.500	605.506
421.613	162.791	1368.486	1795.020
422.628	141.186	1452.389	1795.131
