DTS Sentinel unit serial number:	SN413079Multiplexer serial number:	ORYXHardware model number:	OX4-SRSoftware version number:	ORYX F/W v4.00 Oryx Data Collector v3.7.2.0data status	okinstallation	princeton_trtdifferential loss correction	single-endedforward channel	channel 3reverse channel	N/Adate	2019/09/12time	03:26:11forward acquisition time	60.00reverse acquisition time	0.00gamma	496.2192k internal	0.2322k external	0.2322temperature offset calibration	1.0068default loss term (dB/km)	0.3790temperature slope calibration	1.0000multiplexer offset coefficient	1.0000multiplexer slope coefficient	1.0000fibre end	0.00T internal ref (°C)	32.19T ext. ref 1 (°C)	2.14T ext. ref 2 (°C)	27.01length (m)	temperature (°C)	Stokes	anti-Stokes-747.200	418.821	0.041	-0.090
-746.185	-200.000	-0.419	0.001
-745.171	725.549	0.055	0.147
-744.156	-123.866	0.119	-0.019
-743.142	404.681	-0.119	0.254
-742.127	-200.000	0.007	0.365
-741.112	-6.889	-0.143	-0.098
-740.098	-97.841	0.172	0.045
-739.083	41.499	-0.170	0.156
-738.069	-200.000	-0.012	0.353
-737.054	88.431	-0.054	-0.061
-736.039	-158.621	-0.374	0.022
-735.025	-125.925	0.129	0.020
-734.010	-107.375	0.330	-0.073
-732.996	-104.888	-0.180	0.042
-731.981	800.000	-0.055	0.183
-730.966	-108.583	-0.154	0.033
-729.952	800.000	-0.019	-0.065
-728.937	-72.347	0.110	-0.041
-727.923	261.653	-0.077	-0.135
-726.908	-200.000	-0.017	-0.200
-725.894	70.790	0.030	-0.032
-724.879	104.929	0.188	-0.224
-723.864	-141.352	0.073	0.008
-722.850	-192.200	-0.124	0.001
-721.835	82.846	0.186	0.204
-720.821	580.698	-0.127	-0.314
-719.806	-61.399	-0.287	0.122
-718.791	-96.609	-0.103	-0.027
-717.777	-95.362	-0.377	-0.102
-716.762	-200.000	0.038	-0.260
-715.748	29.927	-0.341	-0.293
-714.733	-200.000	-0.039	0.269
-713.718	-144.434	-0.115	0.011
-712.704	162.187	0.076	0.107
-711.689	800.000	0.096	-0.302
-710.675	71.951	-0.124	-0.131
-709.660	-7.217	-0.276	-0.189
-708.645	179.649	-0.182	-0.269
-707.631	800.000	0.028	0.087
-706.616	-107.896	0.067	-0.015
-705.602	-124.852	-0.138	0.021
-704.587	60.297	-0.094	-0.094
-703.572	-200.000	0.038	-0.555
-702.558	9.445	-0.271	-0.207
-701.543	800.000	-0.098	0.293
-700.529	537.590	0.032	-0.076
-699.514	-163.411	-0.144	0.007
-698.499	119.709	0.205	0.256
-697.485	-200.000	0.001	0.134
-696.470	-124.700	0.028	-0.004
-695.456	-200.000	0.011	-0.275
-694.441	-142.825	0.413	0.040
-693.426	172.650	-0.248	0.360
-692.412	-42.189	-0.387	-0.200
-691.397	-200.000	0.002	-0.054
-690.383	800.000	0.083	0.271
-689.368	-200.000	0.030	0.185
-688.354	-200.000	0.018	0.210
-687.339	2.826	0.050	0.037
-686.324	-68.280	0.376	0.147
-685.310	333.620	0.037	0.072
-684.295	-109.603	-0.084	-0.018
-683.281	-104.761	-0.089	-0.021
-682.266	-63.535	-0.146	0.060
-681.251	-9.532	0.224	-0.151
-680.237	634.137	-0.026	-0.065
-679.222	14.086	-0.099	0.077
-678.208	117.981	0.042	0.052
-677.193	-1.947	0.156	0.111
-676.178	26.971	-0.341	0.288
-675.164	-170.930	-0.342	-0.012
-674.149	-200.000	0.005	0.147
-673.135	61.372	0.110	-0.110
-672.120	508.295	0.107	-0.250
-671.105	-32.969	0.187	-0.105
-670.091	-200.000	0.008	-0.174
-669.076	-42.792	0.075	0.038
-668.062	133.273	-0.072	-0.094
-667.047	800.000	0.075	0.300
-666.032	158.868	-0.132	0.185
-665.018	91.776	-0.095	-0.108
-664.003	226.907	0.191	-0.312
-662.989	-37.227	-0.224	-0.121
-661.974	26.823	-0.193	0.163
-660.959	-105.654	-0.177	0.040
-659.945	53.292	-0.179	-0.173
-658.930	-200.000	-0.053	-0.269
-657.916	-183.566	-0.128	-0.002
-656.901	127.802	-0.216	-0.277
-655.886	-109.673	-0.155	-0.033
-654.872	-13.723	-0.124	0.081
-653.857	550.793	0.169	-0.408
-652.843	-74.206	-0.216	0.079
-651.828	16.478	-0.122	0.097
-650.814	27.146	0.191	0.161
-649.799	100.973	-0.329	-0.385
-648.784	114.249	-0.078	0.096
-647.770	-7.967	-0.364	-0.247
-646.755	84.138	-0.162	-0.179
-645.741	-64.991	-0.040	0.016
-644.726	-59.168	-0.291	0.126
-643.711	-4.059	-0.139	0.097
-642.697	65.536	0.184	0.188
-641.682	90.776	0.087	0.098
-640.668	462.459	0.169	-0.380
-639.653	209.716	-0.110	0.174
-638.638	-65.124	-0.374	0.152
-637.624	-142.492	0.208	-0.021
-636.609	356.112	-0.070	0.141
-635.595	-200.000	0.055	0.314
-634.580	196.928	0.053	-0.081
-633.565	-115.692	-0.220	-0.042
-632.551	-39.215	-0.049	-0.026
-631.536	130.224	-0.097	-0.125
-630.522	694.126	0.037	-0.097
-629.507	548.746	-0.039	-0.095
-628.492	-200.000	-0.040	0.388
-627.478	-123.904	-0.152	0.024
-626.463	51.460	-0.229	-0.219
-625.449	-167.834	-0.191	0.008
-624.434	-200.000	0.000	0.063
-623.419	-109.480	-0.234	-0.050
-622.405	180.059	0.065	-0.096
-621.390	60.551	0.221	-0.220
-620.376	161.373	0.249	0.350
-619.361	-200.000	0.020	-0.092
-618.346	651.068	0.025	0.065
-617.332	-200.000	0.076	-0.385
-616.317	283.496	-0.009	0.017
-615.303	-200.000	0.066	0.311
-614.288	-106.661	-0.272	-0.061
-613.273	5.812	-0.127	-0.095
-612.259	-200.000	-0.003	-0.093
-611.244	-200.000	0.029	0.134
-610.230	365.332	0.157	-0.318
-609.215	552.472	-0.119	0.286
-608.201	233.734	-0.113	-0.186
-607.186	-200.000	-0.019	0.113
-606.171	-89.774	0.066	0.019
-605.157	342.694	0.094	-0.185
-604.142	-165.575	0.235	-0.010
-603.128	800.000	0.035	-0.100
-602.113	-107.788	-0.052	0.011
-601.098	800.000	-0.029	0.094
-600.084	262.038	0.089	-0.155
-599.069	75.351	0.129	0.137
-598.055	260.532	0.342	0.594
-597.040	-24.267	-0.300	0.180
-596.025	89.816	0.236	0.264
-595.011	-123.041	0.274	-0.044
-593.996	-33.617	0.036	-0.020
-592.982	-165.640	0.385	0.017
-591.967	-41.649	-0.406	-0.210
-590.952	-75.656	0.156	-0.056
-589.938	-200.000	-0.093	0.425
-588.923	-200.000	0.011	-0.279
-587.909	346.277	-0.198	0.391
-586.894	-139.611	0.274	-0.029
-585.879	-138.996	-0.312	-0.034
-584.865	-200.000	-0.012	-0.095
-583.850	-68.074	-0.203	-0.079
-582.836	-200.000	0.019	-0.130
-581.821	-44.693	-0.249	0.125
-580.806	-200.000	-0.067	0.510
-579.792	-137.731	-0.065	-0.007
-578.777	-75.429	0.117	0.042
-577.763	306.779	0.045	0.084
-576.748	-200.000	-0.017	-0.408
-575.733	-9.571	0.103	0.069
-574.719	-42.380	-0.193	-0.099
-573.704	-163.450	-0.167	0.008
-572.690	49.019	-0.166	-0.156
-571.675	-24.467	-0.257	-0.153
-570.661	800.000	0.068	0.219
-569.646	198.766	0.097	0.150
-568.631	-89.966	-0.073	0.022
-567.617	75.883	0.265	-0.282
-566.602	75.586	-0.335	-0.355
-565.588	415.293	-0.044	0.094
-564.573	-34.277	0.174	0.096
-563.558	476.270	0.093	-0.210
-562.544	113.732	-0.145	0.176
-561.529	-12.960	-0.207	0.135
-560.515	-200.000	-0.055	-0.265
-559.500	-31.940	0.326	-0.183
-558.485	-200.000	-0.025	-0.189
-557.471	800.000	0.025	0.095
-556.456	-200.000	-0.002	0.244
-555.442	65.249	-0.081	0.082
-554.427	13.218	0.175	0.136
-553.412	-94.144	-0.138	0.038
-552.398	-23.691	0.113	0.068
-551.383	70.485	0.199	0.206
-550.369	1.586	-0.052	0.037
-549.354	-200.000	0.035	-0.220
-548.339	39.227	-0.136	-0.122
-547.325	-64.428	0.046	0.019
-546.310	-200.000	-0.015	0.119
-545.296	-200.000	0.007	0.108
-544.281	-63.090	0.306	-0.127
-543.266	-69.206	0.077	-0.030
-542.252	166.776	0.030	0.043
-541.237	-70.842	0.053	-0.020
-540.223	-180.953	-0.125	-0.003
-539.208	-26.391	-0.152	-0.090
-538.193	-200.000	-0.022	-0.215
-537.179	687.448	-0.027	-0.070
-536.164	-200.000	0.017	0.094
-535.150	346.148	0.043	0.085
-534.135	-13.512	0.043	-0.028
-533.121	800.000	0.022	-0.061
-532.106	-97.039	-0.087	0.023
-531.091	-200.000	-0.050	-0.303
-530.077	85.391	0.012	-0.013
-529.062	4.100	-0.109	-0.080
-528.048	-9.083	0.338	-0.227
-527.033	-17.115	-0.294	-0.186
-526.018	-200.000	0.002	-0.043
-525.004	-108.859	0.174	0.037
-523.989	-56.414	0.294	-0.131
-522.975	193.450	0.016	-0.025
-521.960	-85.215	0.141	0.044
-520.945	-90.278	-0.258	0.075
-519.931	-58.983	-0.172	0.074
-518.916	270.172	-0.194	-0.341
-517.902	-102.479	0.247	0.059
-516.887	163.629	-0.254	0.357
-515.872	-90.910	0.055	0.016
-514.858	800.000	-0.054	0.188
-513.843	-119.060	0.095	-0.017
-512.829	-82.506	0.332	0.108
-511.814	11.757	-0.100	-0.077
-510.799	22.189	0.315	-0.258
-509.785	14.361	-0.102	-0.080
-508.770	467.807	-0.104	0.234
-507.756	800.000	0.023	-0.093
-506.741	800.000	0.090	0.257
-505.726	20.294	0.037	0.030
-504.712	59.410	-0.115	-0.114
-503.697	-200.000	-0.006	0.290
-502.683	545.264	0.095	0.227
-501.668	111.258	0.071	0.086
-500.653	336.756	0.062	0.121
-499.639	800.000	-0.036	-0.113
-498.624	-200.000	0.014	-0.197
-497.610	-125.959	-0.197	0.030
-496.595	427.787	0.205	-0.442
-495.581	593.862	0.035	0.086
-494.566	800.000	0.060	0.238
-493.551	108.523	0.064	-0.077
-492.537	-200.000	0.003	0.301
-491.522	-170.002	-0.316	0.011
-490.508	174.551	-0.062	0.090
-489.493	-28.514	-0.088	0.051
-488.478	-200.000	0.007	-0.108
-487.464	181.854	-0.099	0.146
-486.449	-14.025	0.200	0.129
-485.435	800.000	0.136	0.458
-484.420	0.766	-0.206	-0.148
-483.405	-200.000	0.003	-0.108
-482.391	-86.044	0.185	0.057
-481.376	25.532	0.132	-0.109
-480.362	800.000	-0.094	-0.268
-479.347	-123.978	0.140	0.022
-478.332	169.425	0.083	-0.118
-477.318	-141.485	0.182	-0.018
-476.303	599.216	-0.097	0.241
-475.289	128.839	0.051	-0.065
-474.274	85.803	0.204	-0.225
-473.259	-200.000	-0.011	-0.125
-472.245	163.002	-0.090	0.127
-471.230	-7.907	0.158	0.107
-470.216	-200.000	0.081	0.562
-469.201	631.084	-0.143	0.362
-468.186	-9.054	-0.230	0.154
-467.172	-54.834	-0.041	0.019
-466.157	175.138	-0.049	0.071
-465.143	-200.000	0.024	-0.145
-464.128	800.000	-0.069	-0.271
-463.113	-108.088	0.191	0.041
-462.099	-37.859	0.274	0.146
-461.084	-200.000	-0.080	0.569
-460.070	-200.000	0.022	0.228
-459.055	-123.039	-0.085	0.014
-458.040	800.000	-0.062	-0.172
-457.026	1.499	0.165	-0.119
-456.011	-111.183	-0.087	0.018
-454.997	219.616	-0.074	0.119
-453.982	-61.220	0.132	0.056
-452.968	-92.667	-0.187	-0.052
-451.953	-10.024	0.173	0.115
-450.938	-62.381	0.105	-0.043
-449.924	437.349	0.137	-0.298
-448.909	353.486	-0.121	0.241
-447.895	-134.259	0.116	-0.014
-446.880	-200.000	0.038	-0.247
-445.865	-1.210	-0.193	0.136
-444.851	-37.540	-0.268	-0.143
-443.836	-200.000	0.067	-0.398
-442.822	300.389	0.076	0.140
-441.807	17.412	-0.116	-0.092
-440.792	-200.000	-0.038	-0.344
-439.778	800.000	0.088	-0.379
-438.763	-200.000	0.049	0.228
-437.749	72.689	-0.049	0.051
-436.734	398.392	0.060	0.126
-435.719	-200.000	0.026	0.359
-434.705	58.941	-0.090	0.088
-433.690	-133.628	-0.110	-0.014
-432.676	-132.051	0.359	0.047
-431.661	669.335	0.046	-0.118
-430.646	232.471	-0.067	0.111
-429.632	768.824	0.067	-0.182
-428.617	0.211	0.046	0.033
-427.603	-89.231	0.187	-0.055
-426.588	-159.470	-0.056	-0.003
-425.573	800.000	0.104	0.321
-424.559	-200.000	0.015	-0.263
-423.544	-52.999	-0.161	-0.074
-422.530	-92.504	0.188	0.053
-421.515	-35.452	0.336	-0.182
-420.500	-200.000	0.019	-0.097
-419.486	264.627	-0.062	-0.107
-418.471	-68.336	0.163	-0.063
-417.457	5.590	-0.098	-0.072
-416.442	-138.301	-0.253	0.028
-415.428	800.000	0.040	-0.160
-414.413	-23.615	-0.181	0.108
-413.398	-200.000	-0.056	0.383
-412.384	-168.727	0.149	0.006
-411.369	72.028	-0.179	0.185
-410.355	-97.285	0.217	-0.056
-409.340	86.303	0.059	0.065
-408.325	-50.254	-0.251	0.118
-407.311	407.829	0.137	-0.289
-406.296	-8.829	-0.151	-0.101
-405.282	-97.035	0.122	-0.032
-404.267	22.912	0.244	0.199
-403.252	634.091	0.065	0.164
-402.238	800.000	-0.074	-0.311
-401.223	-178.002	-0.090	-0.002
-400.209	238.035	-0.110	0.183
-399.194	-200.000	-0.003	-0.045
-398.179	-200.000	0.023	0.464
-397.165	800.000	0.100	-0.358
-396.150	31.106	0.189	-0.162
-395.136	-91.350	-0.363	-0.103
-394.121	65.908	-0.164	-0.166
-393.106	-47.404	0.223	0.108
-392.092	-85.772	-0.361	0.112
-391.077	-45.439	-0.276	-0.136
-390.063	320.061	-0.176	-0.332
-389.048	-200.000	-0.015	-0.185
-388.033	-45.287	0.041	-0.020
-387.019	12.777	0.240	0.185
-386.004	800.000	0.095	0.341
-384.990	45.716	0.151	0.139
-383.975	311.709	-0.145	-0.271
-382.960	-200.000	0.033	0.157
-381.946	800.000	0.031	-0.112
-380.931	-140.489	-0.072	-0.007
-379.917	187.236	-0.104	0.155
-378.902	162.426	0.108	-0.150
-377.888	-116.627	0.156	-0.029
-376.873	800.000	-0.060	0.217
-375.858	331.561	-0.170	-0.326
-374.844	-200.000	0.020	0.306
-373.829	-86.008	-0.318	0.098
-372.815	-200.000	0.031	-0.144
-371.800	-43.239	-0.217	0.109
-370.785	-200.000	0.043	0.315
-369.771	-59.240	0.277	-0.119
-368.756	-200.000	0.029	-0.205
-367.742	280.273	-0.224	0.399
-366.727	800.000	0.089	-0.264
-365.712	1.685	0.092	-0.066
-364.698	132.510	-0.209	-0.268
-363.683	800.000	-0.055	-0.216
-362.669	-22.509	0.212	0.127
-361.654	-23.790	-0.129	0.077
-360.639	-200.000	-0.023	0.395
-359.625	313.635	0.144	-0.269
-358.610	227.699	0.060	-0.097
-357.596	26.597	-0.248	0.206
-356.581	-103.123	-0.173	0.041
-355.566	185.372	0.072	-0.106
-354.552	11.183	0.112	0.085
-353.537	-47.270	0.188	-0.091
-352.523	678.791	0.036	-0.093
-351.508	135.385	0.132	0.170
-350.493	62.649	-0.044	-0.043
-349.479	-97.239	0.115	-0.030
-348.464	119.810	-0.119	-0.147
-347.450	74.999	0.071	-0.075
-346.435	-12.262	0.195	0.127
-345.420	132.380	0.095	0.122
-344.406	35.447	0.165	0.144
-343.391	11.361	0.126	0.096
-342.377	403.228	-0.189	-0.397
-341.362	76.315	-0.147	0.154
-340.348	-200.000	-0.029	-0.194
-339.333	-62.296	-0.066	-0.027
-338.318	-115.490	0.121	-0.023
-337.304	-200.000	-0.010	0.106
-336.289	428.939	0.077	-0.165
-335.275	-200.000	-0.009	0.079
-334.260	-138.383	0.366	-0.040
-333.245	79.233	-0.162	0.173
-332.231	-200.000	0.006	0.032
-331.216	260.119	-0.166	-0.285
-330.202	314.154	0.049	0.092
-329.187	67.854	0.297	0.302
-328.172	-41.717	-0.205	-0.105
-327.158	171.696	0.257	-0.367
-326.143	9.843	0.236	0.178
-325.129	-200.000	0.014	0.087
-324.114	-200.000	-0.023	0.116
-323.099	-200.000	0.028	-0.131
-322.085	-83.991	-0.268	0.085
-321.070	276.154	-0.256	-0.452
-320.056	-200.000	0.048	-0.266
-319.041	-200.000	-0.031	-0.168
-318.026	123.745	-0.148	-0.185
-317.012	800.000	0.046	0.172
-315.997	-117.374	-0.230	0.041
-314.983	-73.592	-0.200	0.073
-313.968	-73.820	-0.157	-0.057
-312.953	-148.917	0.305	0.024
-311.939	-200.000	-0.028	0.139
-310.924	-121.273	-0.140	-0.023
-309.910	-192.613	0.172	0.002
-308.895	5.550	0.054	-0.040
-307.880	-200.000	0.039	0.208
-306.866	-133.757	0.171	-0.021
-305.851	-21.441	-0.175	-0.106
-304.837	-58.876	0.211	-0.091
-303.822	-9.238	0.148	0.098
-302.807	130.316	0.129	0.164
-301.793	79.357	0.215	-0.229
-300.778	-106.159	-0.423	-0.094
-299.764	-33.965	0.444	-0.243
-298.749	800.000	0.029	0.099
-297.735	-25.534	-0.240	0.141
-296.720	373.514	-0.043	-0.086
-295.705	50.009	0.189	0.177
-294.691	-9.429	-0.255	0.169
-293.676	-171.817	0.199	0.006
-292.662	800.000	-0.036	0.140
-291.647	28.401	-0.234	-0.196
-290.632	125.457	0.136	-0.171
-289.618	113.411	0.165	-0.199
-288.603	134.963	0.160	0.206
-287.589	6.916	-0.247	0.183
-286.574	-1.495	-0.167	-0.117
-285.559	-200.000	0.024	0.252
-284.545	-149.860	-0.122	0.009
-283.530	-27.021	0.108	0.063
-282.516	199.923	-0.234	-0.357
-281.501	299.841	0.018	0.033
-280.486	17.168	0.173	-0.136
-279.472	-200.000	0.035	-0.334
-278.457	409.040	0.202	-0.425
-277.443	89.299	-0.144	-0.159
-276.428	-129.147	-0.259	-0.036
-275.413	-104.764	-0.208	0.048
-274.399	535.254	0.027	-0.064
-273.384	-92.844	0.241	-0.067
-272.370	-36.284	0.070	-0.038
-271.355	-169.234	-0.212	-0.008
-270.340	-151.641	-0.211	0.015
-269.326	-142.740	-0.211	0.020
-268.311	-200.000	0.011	0.055
-267.297	41.833	0.320	-0.288
-266.282	241.160	-0.122	-0.203
-265.267	-200.000	0.014	0.094
-264.253	112.947	0.075	-0.090
-263.238	293.776	-0.171	0.310
-262.224	-58.321	-0.151	0.065
-261.209	-168.614	-0.168	0.006
-260.195	-67.276	0.307	0.120
-259.180	-145.940	-0.212	0.019
-258.165	185.554	-0.134	0.197
-257.151	-8.409	0.082	-0.055
-256.136	-200.000	0.021	-0.245
-255.122	-120.845	-0.364	0.061
-254.107	-63.564	0.464	0.189
-253.092	438.704	0.051	0.111
-252.078	15.950	-0.069	0.054
-251.063	-74.119	-0.311	0.112
-250.049	-200.000	0.007	-0.037
-249.034	-200.000	-0.001	-0.004
-248.019	-77.013	-0.027	-0.009
-247.005	459.983	-0.079	0.175
-245.990	6.133	-0.093	-0.068
-244.976	-184.344	0.268	-0.004
-243.961	-55.692	0.038	-0.017
-242.946	85.536	0.090	0.098
-241.932	109.170	-0.180	-0.213
-240.917	-120.067	-0.239	0.041
-239.903	-25.055	0.315	0.185
-238.888	261.474	0.248	-0.425
-237.873	-9.210	0.246	0.163
-236.859	800.000	-0.065	0.209
-235.844	800.000	-0.033	-0.112
-234.830	107.917	-0.110	0.130
-233.815	83.905	0.059	0.063
-232.800	10.249	0.230	0.173
-231.786	86.776	0.205	-0.224
-230.771	43.554	0.396	-0.358
-229.757	800.000	0.066	0.198
-228.742	196.141	-0.041	-0.061
-227.727	-94.614	0.181	0.049
-226.713	-159.505	0.364	-0.020
-225.698	-84.775	0.203	-0.063
-224.684	28.560	-0.088	0.074
-223.669	-19.755	0.071	-0.044
-222.655	-57.836	-0.091	0.040
-221.640	60.148	0.202	0.198
-220.625	-62.716	0.160	0.066
-219.611	-75.378	-0.124	-0.044
-218.596	689.357	0.030	0.078
-217.582	800.000	0.124	0.457
-216.567	10.717	-0.100	0.076
-215.552	-75.556	0.199	0.070
-214.538	-95.831	0.450	0.119
-213.523	-200.000	0.013	0.134
-212.509	200.557	0.064	-0.098
-211.494	320.628	0.103	0.195
-210.479	44.367	-0.114	-0.104
-209.465	24.722	-0.359	-0.294
-208.450	98.626	0.071	0.081
-207.436	88.249	0.088	-0.096
-206.421	-74.505	-0.121	0.043
-205.406	-52.697	-0.103	-0.047
-204.392	-2.888	-0.138	-0.095
-203.377	-34.452	-0.190	-0.103
-202.363	-16.189	0.201	0.126
-201.348	-41.042	-0.100	0.051
-200.333	-105.235	-0.287	-0.065
-199.319	89.589	0.100	-0.111
-198.304	185.506	0.107	-0.157
-197.290	178.726	-0.068	0.099
-196.275	325.355	0.054	0.102
-195.260	-200.000	0.016	0.168
-194.246	-200.000	0.045	-0.234
-193.231	-85.846	0.146	0.045
-192.217	-118.294	0.131	0.023
-191.202	-118.679	-0.094	-0.016
-190.187	-104.304	-0.135	0.031
-189.173	31.190	-0.199	0.169
-188.158	-139.276	-0.105	0.011
-187.144	300.522	-0.155	0.283
-186.129	-200.000	0.002	0.038
-185.114	-147.131	0.176	-0.015
-184.100	-200.000	-0.018	-0.180
-183.085	403.708	-0.058	-0.121
-182.071	800.000	-0.050	0.148
-181.056	363.192	0.059	0.118
-180.042	-30.181	0.086	-0.048
-179.027	-200.000	0.029	0.245
-178.012	-107.849	0.172	0.037
-176.998	-57.712	0.164	-0.071
-175.983	347.549	-0.042	0.082
-174.969	61.261	-0.066	0.065
-173.954	-12.415	-0.288	0.186
-172.939	-35.903	-0.098	0.052
-171.925	58.374	-0.277	-0.268
-170.910	137.254	-0.176	-0.227
-169.896	-143.428	-0.195	-0.018
-168.881	-200.000	-0.012	-0.244
-167.866	-94.872	-0.142	0.038
-166.852	-200.000	0.061	0.343
-165.837	52.485	-0.314	-0.296
-164.823	-92.209	-0.080	0.022
-163.808	-43.212	0.124	0.062
-162.793	-15.810	0.330	-0.208
-161.779	255.651	-0.194	-0.329
-160.764	-200.000	-0.331	0.001
-159.750	-161.931	0.461	-0.023
-158.735	143.263	-0.191	-0.251
-157.720	-111.408	-0.100	0.020
-156.706	-200.000	-0.033	0.156
-155.691	-137.225	0.300	-0.034
-154.677	-200.000	-0.019	0.151
-153.662	-200.000	-0.002	0.076
-152.647	107.887	0.206	-0.242
-151.633	-67.091	-0.174	-0.068
-150.618	-174.713	-0.159	-0.004
-149.604	99.325	-0.059	0.068
-148.589	800.000	0.034	-0.138
-147.574	-82.642	0.088	0.028
-146.560	800.000	0.022	-0.064
-145.545	-90.108	-0.186	-0.054
-144.531	-99.081	-0.029	0.007
-143.516	27.126	0.280	-0.232
-142.502	333.450	-0.068	0.130
-141.487	-142.750	0.368	0.035
-140.472	-199.102	0.168	0.001
-139.458	62.330	-0.183	0.180
-138.443	210.966	0.015	0.023
-137.429	-105.158	0.383	0.086
-136.414	-79.027	0.366	-0.123
-135.399	-200.000	-0.011	0.087
-134.385	38.595	-0.078	0.069
-133.370	181.901	-0.148	0.215
-132.356	76.554	0.071	-0.075
-131.341	1.979	0.173	-0.123
-130.326	-200.000	0.016	-0.187
-129.312	16.915	0.242	0.189
-128.297	767.120	-0.122	0.327
-127.283	800.000	-0.086	0.239
-126.268	800.000	-0.031	-0.095
-125.253	800.000	-0.062	0.180
-124.239	-200.000	0.018	0.115
-123.224	-152.008	-0.094	0.007
-122.210	800.000	0.035	0.128
-121.195	659.878	0.076	0.194
-120.180	-98.820	-0.180	0.045
-119.166	-200.000	-0.004	0.134
-118.151	32.879	-0.175	-0.149
-117.137	65.736	-0.085	-0.085
-116.122	800.000	0.088	0.242
-115.107	800.000	0.028	0.113
-114.093	-200.000	-0.009	0.161
-113.078	-124.547	-0.251	0.038
-112.064	-90.236	0.222	-0.064
-111.049	800.000	-0.032	0.115
-110.034	-61.834	0.086	0.035
-109.020	84.854	0.084	-0.091
-108.005	-36.221	0.082	0.044
-106.991	-118.281	0.302	0.053
-105.976	-102.557	-0.446	0.105
-104.962	-81.027	-0.098	0.032
-103.947	106.380	0.102	-0.120
-102.932	34.137	-0.060	-0.052
-101.918	404.343	-0.109	-0.227
-100.903	38.270	0.228	-0.200
-99.889	9.996	0.257	0.193
-98.874	-7.528	0.111	-0.074
-97.859	-86.090	-0.153	0.046
-96.845	39.428	0.262	-0.231
-95.830	-200.000	-0.019	0.266
-94.816	472.093	-0.011	-0.025
-93.801	-148.979	-0.120	-0.009
-92.786	736.080	0.137	-0.362
-91.772	-200.000	-0.000	-0.314
-90.757	-68.508	0.216	0.083
-89.743	-93.600	0.074	0.020
-88.728	98.080	0.045	-0.051
-87.713	23.345	0.140	-0.113
-86.699	-16.991	0.108	0.067
-85.684	227.816	0.086	0.138
-84.670	150.093	-0.101	0.135
-83.655	800.000	-0.060	-0.186
-82.640	-51.421	0.202	-0.093
-81.626	-141.653	0.314	-0.031
-80.611	405.766	-0.068	-0.142
-79.597	698.108	0.048	0.124
-78.582	-200.000	0.013	0.112
-77.567	800.000	-0.041	-0.138
-76.553	-200.000	0.075	0.403
-75.538	-18.403	0.067	0.041
-74.524	-34.220	0.114	0.061
-73.509	-114.869	-0.201	0.038
-72.494	-200.000	-0.010	-0.109
-71.480	-95.585	0.264	0.070
-70.465	800.000	-0.055	0.187
-69.451	-81.558	-0.292	0.094
-68.436	56.383	-0.063	-0.061
-67.422	206.639	-0.071	0.110
-66.407	279.834	-0.161	0.283
-65.392	-40.898	0.281	0.143
-64.378	592.743	-0.041	0.099
-63.363	-200.000	0.004	0.135
-62.349	800.000	-0.023	-0.095
-61.334	110.279	-0.770	-0.910
-60.319	99.208	0.615	0.699
-59.305	494.504	-0.469	-1.059
-58.290	368.081	0.652	1.296
-57.276	266.029	0.913	1.568
-56.261	-200.000	95.759	599.990
-55.246	573.397	1364.001	3271.152
-54.232	163.093	2536.859	3505.357
-53.217	112.532	2154.582	2564.606
-52.203	42.831	1702.280	1525.514
-51.188	35.462	1515.880	1308.416
-50.173	32.996	1489.844	1269.348
-49.159	51.726	1538.788	1439.410
-48.144	53.625	1556.234	1468.649
-47.130	35.644	1515.579	1309.192
-46.115	32.501	1501.168	1275.437
-45.100	32.318	1498.300	1271.712
-44.086	32.238	1496.339	1269.457
-43.071	32.191	1494.203	1267.280
-42.057	32.137	1492.641	1265.544
-41.042	32.209	1490.885	1264.490
-40.027	32.267	1489.530	1263.679
-39.013	32.144	1488.197	1261.671
-37.998	32.123	1487.016	1260.479
-36.984	32.189	1485.931	1259.951
-35.969	32.224	1484.960	1259.313
-34.954	32.221	1483.185	1257.735
-33.940	32.159	1482.233	1256.468
-32.925	32.241	1480.222	1255.261
-31.911	32.283	1478.818	1254.296
-30.896	32.392	1477.302	1253.690
-29.881	32.270	1476.319	1251.994
-28.867	32.160	1474.977	1250.073
-27.852	32.218	1474.053	1249.625
-26.838	32.291	1471.968	1248.291
-25.823	32.303	1470.558	1247.131
-24.809	32.263	1469.148	1245.617
-23.794	32.247	1467.210	1243.822
-22.779	32.227	1466.306	1242.869
-21.765	32.243	1465.199	1241.988
-20.750	32.241	1464.177	1241.059
-19.736	32.177	1462.996	1239.589
-18.721	32.144	1462.092	1238.552
-17.706	32.199	1460.697	1237.687
-16.692	32.116	1460.075	1236.565
-15.677	32.129	1459.104	1235.779
-14.663	32.091	1458.081	1234.609
-13.648	32.088	1456.676	1233.353
-12.633	32.199	1455.500	1233.041
-11.619	32.237	1454.590	1232.466
-10.604	32.068	1454.180	1230.960
-9.590	32.140	1453.522	1230.829
-8.575	32.232	1452.138	1230.212
-7.560	32.107	1451.593	1228.882
-6.546	32.154	1450.680	1228.365
-5.531	32.081	1449.970	1227.241
-4.517	32.132	1448.654	1226.409
-3.502	32.128	1447.340	1225.225
-2.487	32.280	1446.033	1225.058
-1.473	32.170	1445.386	1223.746
-0.458	32.176	1444.052	1222.610
0.556	32.739	1434.233	1211.582
1.571	29.946	1409.877	1173.231
2.586	26.746	1356.918	1109.507
3.600	25.305	1279.041	1037.420
4.615	23.942	1230.826	990.634
5.629	20.529	1173.095	925.940
6.644	10.890	1086.816	809.964
7.659	3.307	1044.717	742.091
8.673	2.432	1038.958	733.742
9.688	2.098	1036.031	730.013
10.702	1.967	1034.359	728.143
11.717	2.055	1032.005	726.842
12.731	5.759	1036.681	747.763
13.746	15.563	1050.754	805.046
14.761	23.213	1060.286	849.124
15.775	25.175	1062.391	860.157
16.790	25.427	1061.982	860.957
17.804	25.363	1060.898	859.696
18.819	25.199	1060.024	858.126
19.834	25.233	1059.552	857.830
20.848	25.327	1059.697	858.323
21.863	25.479	1059.039	858.438
22.877	25.428	1058.623	857.784
23.892	25.330	1058.044	856.769
24.907	25.242	1057.315	855.683
25.921	25.260	1056.539	855.065
26.936	25.268	1056.026	854.615
27.950	25.231	1054.952	853.493
28.965	25.381	1053.401	852.872
29.980	25.231	1051.805	850.795
30.994	25.072	1050.807	849.160
32.009	25.200	1050.398	849.359
33.023	25.473	1049.570	849.907
34.038	25.200	1048.407	847.599
35.053	25.164	1047.418	846.556
36.067	25.395	1046.586	846.897
37.082	25.505	1045.894	846.779
38.096	25.459	1045.501	846.173
39.111	25.477	1045.097	845.855
40.126	25.650	1043.935	845.651
41.140	25.459	1043.053	843.967
42.155	25.261	1041.277	841.524
43.169	25.067	1039.973	839.488
44.184	24.858	1039.232	837.839
45.199	24.982	1038.269	837.569
46.213	24.963	1037.336	836.650
47.228	24.984	1036.498	836.001
48.242	25.184	1035.583	836.121
49.257	25.268	1034.971	835.943
50.271	25.057	1034.788	834.741
51.286	25.461	1033.386	835.412
52.301	25.458	1033.013	835.026
53.315	25.448	1032.128	834.187
54.330	25.426	1031.304	833.345
55.344	25.369	1030.194	832.114
56.359	25.302	1029.734	831.354
57.374	25.379	1029.046	831.084
58.388	25.132	1028.121	829.119
59.403	25.180	1027.511	828.775
60.417	25.146	1026.669	827.869
61.432	24.836	1025.916	825.757
62.447	24.844	1025.383	825.293
63.461	25.140	1024.792	826.108
64.476	25.321	1023.290	825.658
65.490	25.142	1022.685	824.271
66.505	24.944	1022.215	822.909
67.520	25.155	1021.026	822.851
68.534	25.243	1020.242	822.549
69.549	24.984	1019.510	820.699
70.563	24.728	1018.106	818.326
71.578	24.594	1017.716	817.326
72.593	24.744	1016.608	817.047
73.607	24.505	1015.673	815.131
74.622	24.454	1014.616	813.980
75.636	24.824	1014.076	815.160
76.651	25.000	1013.343	815.302
77.666	24.898	1012.409	814.014
78.680	24.880	1011.337	812.998
79.695	24.784	1011.284	812.446
80.709	24.812	1010.817	812.130
81.724	24.988	1009.954	812.159
82.739	24.917	1009.219	811.177
83.753	24.916	1008.409	810.447
84.768	25.311	1007.235	811.218
85.782	25.466	1007.538	812.093
86.797	25.740	1006.628	812.525
87.812	25.679	1005.571	811.325
88.826	25.588	1004.478	809.959
89.841	25.462	1003.968	808.909
90.855	25.650	1003.127	809.007
91.870	25.780	1001.961	808.578
92.884	25.520	1001.474	806.946
93.899	25.548	1000.489	806.204
94.914	25.367	999.413	804.455
95.928	25.592	999.025	805.082
96.943	25.469	998.234	803.823
97.957	25.123	997.114	801.305
98.972	25.088	995.848	800.059
99.987	25.005	994.693	798.692
101.001	25.000	994.160	798.168
102.016	25.166	994.235	798.899
103.030	25.349	993.028	798.670
104.045	25.229	991.385	796.746
105.060	25.189	990.393	795.700
106.074	24.814	989.929	793.597
107.089	24.890	988.800	792.956
108.103	25.273	988.663	794.472
109.118	25.330	987.711	793.890
110.133	25.116	986.385	791.808
111.147	25.089	985.067	790.561
112.162	25.106	984.081	789.776
113.176	24.636	983.232	786.953
114.191	24.846	982.835	787.492
115.206	25.101	981.926	787.813
116.220	24.705	980.656	784.987
117.235	24.634	979.506	783.686
118.249	24.687	979.314	783.696
119.264	24.795	978.415	783.381
120.279	24.669	977.772	782.243
121.293	24.663	976.653	781.254
122.308	24.737	976.288	781.215
123.322	24.721	975.443	780.400
124.337	24.764	974.245	779.562
125.352	24.742	972.932	778.346
126.366	24.215	971.106	774.525
127.381	23.943	970.347	772.669
128.395	24.327	970.506	774.397
129.410	25.051	969.743	776.858
130.424	25.121	969.351	776.780
131.439	25.187	968.027	775.934
132.454	25.237	967.238	775.452
133.468	25.187	966.231	774.361
134.483	25.129	965.244	773.247
135.497	25.292	964.700	773.449
136.512	25.440	964.331	773.718
137.527	25.520	963.319	773.182
138.541	25.518	962.762	772.660
139.556	25.572	961.837	772.080
140.570	25.519	961.213	771.285
141.585	25.524	960.097	770.344
142.600	25.699	959.275	770.365
143.614	25.447	958.593	768.670
144.629	25.672	958.265	769.300
145.643	25.829	957.191	769.043
146.658	25.695	956.533	767.872
147.673	25.503	955.027	765.778
148.687	25.256	954.312	764.085
149.702	25.275	953.350	763.327
150.716	25.197	951.907	761.775
151.731	25.422	950.727	761.714
152.746	25.290	950.368	760.801
153.760	25.461	949.678	760.907
154.775	25.652	949.116	761.197
155.789	25.706	948.522	760.883
156.804	25.602	947.616	759.650
157.819	25.537	946.497	758.410
158.833	25.598	945.897	758.121
159.848	25.682	945.030	757.713
160.862	25.893	944.013	757.716
161.877	25.635	943.471	756.129
162.892	25.580	942.325	754.915
163.906	25.633	941.777	754.630
164.921	25.708	940.507	753.860
165.935	25.467	939.570	752.031
166.950	25.669	938.412	751.883
167.964	25.669	937.565	751.138
168.979	25.738	936.588	750.580
169.994	25.584	935.480	748.982
171.008	25.386	934.808	747.556
172.023	25.604	934.102	747.830
173.037	25.696	933.335	747.533
174.052	25.546	932.073	745.832
175.067	25.257	931.340	743.980
176.081	25.253	930.780	743.452
177.096	25.514	929.615	743.534
178.110	25.483	929.221	743.025
179.125	25.276	928.011	741.140
180.140	25.105	926.747	739.360
181.154	25.084	926.187	738.761
182.169	25.099	925.832	738.473
183.183	25.317	925.860	739.327
184.198	25.742	925.158	740.449
185.213	25.668	924.281	739.377
186.227	25.533	923.880	738.438
187.242	25.616	923.385	738.316
188.256	25.761	922.454	738.103
189.271	25.716	921.565	737.141
190.286	25.789	921.057	736.970
191.300	25.597	920.187	735.423
192.315	25.011	918.708	731.782
193.329	24.303	917.211	727.636
194.344	23.787	916.376	724.809
195.359	24.556	916.291	727.810
196.373	25.299	917.030	731.360
197.388	25.585	916.884	732.345
198.402	25.541	915.827	731.256
199.417	25.542	915.443	730.889
200.432	25.538	915.136	730.562
201.446	25.483	914.098	729.448
202.461	25.052	913.843	727.429
203.475	25.276	912.947	727.560
204.490	24.858	911.499	724.650
205.504	23.602	909.722	718.093
206.519	24.034	909.616	719.693
207.534	25.002	910.014	723.860
208.548	25.088	909.393	723.651
209.563	25.425	909.021	724.646
210.577	25.580	908.260	724.600
211.592	25.164	907.670	722.392
212.607	25.641	907.543	724.145
213.621	25.814	906.848	724.226
214.636	25.589	906.542	723.012
215.650	25.746	905.686	722.896
216.665	25.717	905.030	722.191
217.680	25.773	904.513	721.940
218.694	25.794	904.091	721.622
219.709	25.526	903.095	719.691
220.723	25.158	902.176	717.423
221.738	25.202	902.017	717.409
222.753	25.501	901.050	717.769
223.767	25.434	900.347	716.882
224.782	25.385	899.835	716.215
225.796	25.699	899.292	716.967
226.811	25.838	898.849	717.106
227.826	25.432	897.410	714.281
228.840	24.498	896.537	709.813
229.855	24.440	895.611	708.785
230.869	24.784	895.407	709.925
231.884	24.627	893.901	708.046
232.899	24.421	893.957	707.213
233.913	25.350	894.194	711.017
234.928	25.464	893.289	710.684
235.942	25.358	892.600	709.655
236.957	25.366	891.980	709.132
237.972	25.323	890.755	707.926
238.986	25.058	890.411	706.546
240.001	25.160	889.957	706.525
241.015	25.172	889.438	706.097
242.030	25.310	888.714	706.003
243.045	25.407	888.150	705.872
244.059	25.553	887.492	705.863
245.074	25.721	887.216	706.238
246.088	25.505	886.627	704.860
247.103	25.233	885.661	702.965
248.117	25.219	885.304	702.563
249.132	25.731	885.378	704.565
250.147	26.054	885.071	705.520
251.161	26.251	884.179	705.517
252.176	26.418	884.165	706.095
253.190	26.344	883.379	705.117
254.205	26.403	882.619	704.678
255.220	26.480	882.212	704.590
256.234	26.513	882.207	704.654
257.249	26.648	880.854	704.037
258.263	26.267	880.527	702.231
259.278	26.414	880.024	702.339
260.293	26.379	879.538	701.753
261.307	26.539	879.030	701.906
262.322	26.428	878.335	700.857
263.336	26.251	877.773	699.664
264.351	25.730	876.370	696.467
265.366	24.692	874.698	691.066
266.380	24.410	873.382	688.876
267.395	25.276	873.911	692.579
268.409	26.104	873.805	695.623
269.424	25.952	873.021	694.355
270.439	26.104	872.824	694.719
271.453	26.231	872.317	694.746
272.468	26.273	871.324	694.054
273.482	26.291	871.512	694.211
274.497	26.490	870.871	694.401
275.512	26.391	869.657	692.994
276.526	25.762	868.552	689.643
277.541	25.833	868.297	689.651
278.555	26.194	868.167	690.867
279.570	26.019	867.283	689.436
280.585	25.951	866.359	688.381
281.599	26.023	866.142	688.423
282.614	26.205	865.442	688.499
283.628	25.688	864.343	685.595
284.643	25.266	863.529	683.282
285.657	25.622	863.807	684.797
286.672	25.591	863.074	684.035
287.687	25.142	862.137	681.527
288.701	25.546	861.751	682.695
289.716	25.934	861.482	683.897
290.730	25.609	860.661	681.953
291.745	25.584	859.751	681.074
292.760	25.291	858.724	679.094
293.774	25.290	858.486	678.841
294.789	26.010	858.801	681.754
295.803	26.759	858.921	684.619
296.818	26.893	858.336	684.598
297.833	26.941	857.831	684.315
298.847	26.557	856.783	681.971
299.862	26.192	855.981	679.897
300.876	26.462	855.517	680.484
301.891	26.650	855.452	681.081
302.906	26.714	854.793	680.736
303.920	26.416	853.683	678.674
304.935	26.365	853.008	677.885
305.949	26.702	852.509	678.693
306.964	26.964	852.321	679.464
307.979	26.521	851.527	677.114
308.993	26.450	851.318	676.623
310.008	26.736	850.743	677.174
311.022	27.018	850.428	677.916
312.037	26.805	849.843	676.593
313.052	26.567	849.058	675.024
314.066	26.352	848.366	673.612
315.081	25.787	846.912	670.295
316.095	25.151	845.510	666.763
317.110	25.566	846.094	668.708
318.125	26.367	845.987	671.541
319.139	26.057	844.941	669.502
320.154	24.756	843.573	663.536
321.168	24.184	842.615	660.603
322.183	24.961	842.611	663.420
323.197	25.913	843.139	667.304
324.212	26.369	842.717	668.596
325.227	26.439	842.448	668.583
326.241	26.584	841.660	668.433
327.256	26.468	841.681	667.964
328.270	26.453	840.687	667.058
329.285	26.178	840.397	665.756
330.300	26.158	839.344	664.791
331.314	25.799	838.858	663.027
332.329	26.214	837.864	663.706
333.343	26.319	837.902	664.062
334.358	26.601	837.757	664.924
335.373	26.560	836.882	664.022
336.387	26.656	836.469	663.987
337.402	26.813	836.253	664.331
338.416	27.170	835.788	665.210
339.431	27.210	834.894	664.589
340.446	27.093	834.582	663.854
341.460	27.417	833.947	664.473
342.475	27.314	833.378	663.585
343.489	26.989	832.798	661.879
344.504	27.139	832.262	661.941
345.519	27.221	831.944	661.926
346.533	27.585	831.687	662.987
347.548	27.655	830.814	662.489
348.562	27.605	830.285	661.825
349.577	27.477	829.927	661.019
350.592	27.413	829.706	660.552
351.606	27.325	829.316	659.862
352.621	27.312	828.457	659.074
353.635	27.315	828.192	658.816
354.650	27.099	827.917	657.758
355.665	27.034	826.544	656.374
356.679	25.825	824.978	650.708
357.694	25.746	824.409	649.914
358.708	26.281	824.496	651.856
359.723	26.317	824.107	651.622
360.738	26.553	823.964	652.300
361.752	27.073	823.480	653.733
362.767	27.121	823.137	653.575
363.781	27.390	823.319	654.628
364.796	27.671	822.878	655.229
365.810	27.688	822.553	654.973
366.825	27.870	821.886	655.039
367.840	27.874	821.578	654.750
368.854	27.699	821.157	653.731
369.869	27.259	820.337	651.442
370.883	26.956	819.672	649.774
371.898	27.331	818.808	650.371
372.913	27.041	818.426	648.973
373.927	27.114	817.668	648.575
374.942	27.413	816.949	649.013
375.956	27.442	816.777	648.922
376.971	27.415	816.241	648.343
377.986	27.468	815.898	648.202
379.000	27.689	815.667	648.750
380.015	27.736	815.116	648.420
381.029	27.532	814.304	646.993
382.044	27.514	813.878	646.531
383.059	27.683	813.120	646.471
384.073	27.676	812.802	646.138
385.088	27.691	811.885	645.406
386.102	27.821	811.256	645.308
387.117	27.583	810.797	644.044
388.132	27.512	810.433	643.448
389.146	27.199	809.700	641.702
390.161	26.710	808.346	638.849
391.175	26.921	808.212	639.432
392.190	27.359	808.544	641.179
393.205	27.266	807.986	640.355
394.219	26.538	805.925	636.105
395.234	24.676	803.692	627.754
396.248	24.022	802.820	624.725
397.263	25.017	803.782	628.911
398.278	26.753	805.423	636.242
399.292	27.319	805.030	637.857
400.307	27.133	804.163	636.463
401.321	26.994	803.610	635.484
402.336	27.008	803.670	635.524
403.350	27.365	803.546	636.617
404.365	27.899	803.493	638.385
405.380	28.176	802.834	638.774
406.394	28.372	803.237	639.723
407.409	28.462	802.487	639.382
408.423	28.752	801.749	639.748
409.438	28.396	801.396	638.171
410.453	28.530	800.804	638.108
411.467	28.594	800.529	638.056
412.482	28.360	800.059	636.811
413.496	28.319	799.151	635.890
414.511	28.622	798.896	636.682
415.526	28.474	798.822	636.053
416.540	28.378	798.792	635.638
417.555	28.407	797.893	634.968
418.569	28.218	797.021	633.564
419.584	28.110	796.829	632.983
420.599	28.246	796.133	632.843
421.613	111.168	1285.330	1457.346
422.628	95.790	1356.638	1457.475
