DTS Sentinel unit serial number:	SN413079Multiplexer serial number:	ORYXHardware model number:	OX4-SRSoftware version number:	ORYX F/W v4.00 Oryx Data Collector v3.7.2.0data status	okinstallation	princeton_trtdifferential loss correction	single-endedforward channel	channel 3reverse channel	N/Adate	2019/09/12time	08:38:11forward acquisition time	60.00reverse acquisition time	0.00gamma	496.2192k internal	0.2311k external	0.2311temperature offset calibration	1.0027default loss term (dB/km)	0.3790temperature slope calibration	1.0000multiplexer offset coefficient	1.0000multiplexer slope coefficient	1.0000fibre end	0.00T internal ref (°C)	33.80T ext. ref 1 (°C)	1.73T ext. ref 2 (°C)	30.24length (m)	temperature (°C)	Stokes	anti-Stokes-747.200	244.101	0.091	0.155
-746.185	532.707	-0.071	0.170
-745.171	800.000	0.096	0.360
-744.156	-200.000	-0.001	0.374
-743.142	-107.569	0.036	-0.008
-742.127	-200.000	-0.004	0.213
-741.112	-200.000	0.038	0.172
-740.098	-146.831	-0.212	0.019
-739.083	-152.502	-0.128	-0.009
-738.069	107.859	0.276	0.334
-737.054	68.426	-0.214	-0.222
-736.039	269.162	-0.056	-0.099
-735.025	-200.000	-0.018	0.233
-734.010	-200.000	0.002	-0.046
-732.996	-41.203	-0.173	-0.091
-731.981	-82.566	-0.370	-0.122
-730.966	35.410	-0.120	0.107
-729.952	800.000	-0.052	0.187
-728.937	191.157	-0.041	0.062
-727.923	-66.922	0.158	0.063
-726.908	-23.269	-0.235	0.144
-725.894	572.659	-0.086	-0.212
-724.879	13.355	0.257	0.202
-723.864	611.765	-0.021	-0.054
-722.850	-81.777	-0.355	-0.118
-721.835	-133.115	0.156	-0.020
-720.821	7.746	0.054	-0.041
-719.806	296.061	-0.094	0.174
-718.791	-45.221	0.226	-0.114
-717.777	-127.529	-0.206	-0.030
-716.762	421.798	-0.105	-0.228
-715.748	800.000	-0.100	-0.313
-714.733	77.270	-0.168	0.181
-713.718	-168.791	-0.252	0.010
-712.704	115.029	-0.051	-0.063
-711.689	1.058	-0.141	0.102
-710.675	-200.000	-0.012	0.253
-709.660	58.828	-0.153	0.152
-708.645	800.000	0.024	0.074
-707.631	-160.038	-0.448	0.025
-706.616	187.467	0.170	-0.257
-705.602	197.811	0.032	0.050
-704.587	132.495	-0.030	-0.040
-703.572	72.523	0.085	-0.090
-702.558	12.529	0.266	-0.208
-701.543	-31.576	0.135	0.077
-700.529	-133.781	-0.426	0.054
-699.514	-200.000	-0.009	-0.466
-698.499	-200.000	0.027	-0.375
-697.485	-75.846	-0.224	-0.081
-696.470	-200.000	-0.042	0.212
-695.456	-145.034	0.092	-0.008
-694.441	397.948	0.124	0.264
-693.426	-76.073	0.242	0.087
-692.412	91.261	0.089	-0.102
-691.397	137.798	0.146	-0.194
-690.383	-129.425	0.116	-0.016
-689.368	-200.000	0.006	-0.287
-688.354	-200.000	0.019	0.156
-687.339	-200.000	-0.028	-0.143
-686.324	71.664	0.064	-0.068
-685.310	138.746	0.152	0.202
-684.295	-95.751	0.176	0.048
-683.281	-176.076	-0.210	0.006
-682.266	127.464	-0.140	-0.179
-681.251	-200.000	-0.026	-0.158
-680.237	800.000	-0.090	0.326
-679.222	-21.492	-0.085	0.053
-678.208	-200.000	-0.015	0.165
-677.193	-148.429	0.168	-0.014
-676.178	28.428	-0.148	-0.127
-675.164	27.241	-0.422	-0.358
-674.149	491.687	0.069	0.161
-673.135	68.828	0.056	-0.058
-672.120	-59.443	-0.183	-0.080
-671.105	-55.556	0.177	-0.080
-670.091	213.524	0.107	0.171
-669.076	-41.765	-0.113	-0.058
-668.062	81.867	0.085	0.093
-667.047	-200.000	-0.046	-0.337
-666.032	-89.940	-0.385	-0.114
-665.018	216.381	-0.045	-0.072
-664.003	-199.718	-0.109	-0.001
-662.989	-156.528	-0.261	0.016
-661.974	800.000	0.047	-0.162
-660.959	-200.000	0.020	-0.117
-659.945	4.240	-0.303	-0.224
-658.930	68.201	-0.183	-0.189
-657.916	88.688	0.253	0.285
-656.901	-200.000	-0.016	-0.218
-655.886	-43.570	-0.174	0.089
-654.872	-45.650	0.264	0.132
-653.857	-24.681	-0.217	0.130
-652.843	-200.000	0.023	0.138
-651.828	113.804	-0.126	-0.155
-650.814	-92.328	0.466	0.133
-649.799	21.288	-0.207	-0.170
-648.784	-79.430	-0.242	-0.083
-647.770	3.218	-0.330	-0.242
-646.755	-165.300	0.167	-0.007
-645.741	456.952	0.095	-0.214
-644.726	-200.000	0.035	-0.201
-643.711	800.000	-0.040	0.164
-642.697	-20.454	0.142	0.088
-641.682	173.553	0.188	-0.274
-640.668	670.074	0.050	-0.130
-639.653	191.030	0.239	-0.363
-638.638	40.230	0.175	-0.159
-637.624	800.000	-0.105	0.347
-636.609	-84.488	-0.125	0.040
-635.595	-200.000	-0.068	-0.364
-634.580	32.545	-0.271	-0.236
-633.565	-46.688	0.083	-0.041
-632.551	-200.000	0.027	-0.211
-631.536	1.788	0.331	-0.241
-630.522	235.083	0.050	0.083
-629.507	-111.120	-0.156	0.032
-628.492	800.000	0.045	-0.143
-627.478	31.235	-0.077	-0.067
-626.463	-200.000	-0.009	0.095
-625.449	-133.476	0.524	0.066
-624.434	18.575	0.124	-0.100
-623.419	-102.220	-0.123	-0.030
-622.405	-200.000	-0.078	0.410
-621.390	190.814	-0.069	0.105
-620.376	142.089	0.099	-0.133
-619.361	-73.449	-0.388	0.143
-618.346	800.000	0.038	-0.110
-617.332	-200.000	0.032	0.273
-616.317	-69.848	0.120	0.046
-615.303	96.781	-0.090	-0.105
-614.288	-90.203	-0.040	0.012
-613.273	-200.000	0.046	-0.311
-612.259	-63.885	-0.111	-0.046
-611.244	-200.000	0.004	-0.026
-610.230	319.696	0.070	0.134
-609.215	-31.379	-0.184	-0.105
-608.201	-200.000	-0.007	0.299
-607.186	-200.000	-0.048	-0.339
-606.171	-10.181	0.124	0.083
-605.157	-56.257	0.190	-0.085
-604.142	107.905	0.130	-0.156
-603.128	264.941	-0.165	-0.290
-602.113	-200.000	0.027	-0.128
-601.098	6.834	-0.031	-0.023
-600.084	13.356	-0.240	-0.188
-599.069	-124.346	-0.172	0.027
-598.055	800.000	-0.033	0.140
-597.040	180.139	-0.130	0.192
-596.025	215.824	0.020	-0.033
-595.011	48.140	-0.234	0.221
-593.996	-114.552	-0.317	0.061
-592.982	443.727	0.106	-0.234
-591.967	90.029	0.412	-0.465
-590.952	-200.000	0.047	0.272
-589.938	-111.016	-0.069	-0.014
-588.923	25.222	0.134	-0.112
-587.909	-200.000	-0.003	-0.415
-586.894	34.282	-0.192	-0.169
-585.879	-98.811	0.348	0.089
-584.865	113.287	0.047	-0.058
-583.850	170.721	-0.221	0.319
-582.836	-80.085	-0.109	0.037
-581.821	327.153	0.087	0.167
-580.806	800.000	-0.068	-0.289
-579.792	81.542	-0.051	0.056
-578.777	-200.000	-0.030	-0.272
-577.763	70.981	0.069	-0.072
-576.748	-96.699	-0.091	0.024
-575.733	-178.066	-0.131	-0.003
-574.719	117.618	0.133	-0.165
-573.704	800.000	-0.054	-0.240
-572.690	800.000	0.060	0.210
-571.675	-109.914	-0.188	0.040
-570.661	-35.583	-0.083	-0.045
-569.646	-24.571	-0.064	-0.038
-568.631	-200.000	-0.007	-0.150
-567.617	-200.000	-0.020	-0.173
-566.602	-92.003	0.177	0.050
-565.588	87.093	-0.167	0.186
-564.573	372.199	-0.008	0.015
-563.558	771.465	-0.099	-0.273
-562.544	37.454	0.166	0.148
-561.529	-19.600	0.180	0.112
-560.515	13.552	-0.307	0.240
-559.500	45.132	0.105	0.097
-558.485	-40.848	-0.171	-0.089
-557.471	486.823	0.013	0.030
-556.456	-171.390	-0.071	0.002
-555.442	12.465	-0.191	-0.149
-554.427	-4.819	-0.105	-0.073
-553.412	289.559	-0.094	0.172
-552.398	-200.000	0.046	-0.204
-551.383	-200.000	0.004	-0.103
-550.369	43.981	-0.077	0.071
-549.354	-112.366	0.223	-0.045
-548.339	-11.170	0.238	0.158
-547.325	-11.202	-0.136	0.090
-546.310	520.887	0.047	0.112
-545.296	323.419	-0.108	-0.207
-544.281	-56.042	-0.276	-0.124
-543.266	-115.701	0.201	-0.038
-542.252	-92.826	-0.109	0.031
-541.237	-119.290	0.385	0.068
-540.223	212.356	-0.122	0.194
-539.208	800.000	0.080	0.251
-538.193	529.688	-0.089	0.211
-537.179	-79.079	-0.287	0.098
-536.164	-61.503	0.122	-0.052
-535.150	99.321	-0.123	-0.143
-534.135	-200.000	0.020	0.181
-533.121	120.948	0.067	0.084
-532.106	-7.070	0.202	-0.138
-531.091	-141.235	-0.173	0.018
-530.077	800.000	-0.058	-0.239
-529.062	-180.029	-0.194	0.004
-528.048	-200.000	0.034	-0.334
-527.033	-66.421	0.136	-0.054
-526.018	-143.209	0.090	-0.009
-525.004	251.524	0.161	-0.275
-523.989	-62.492	0.130	0.054
-522.975	3.167	-0.202	0.148
-521.960	449.399	0.109	-0.242
-520.945	-37.858	-0.235	-0.126
-519.931	-200.000	-0.021	-0.111
-518.916	619.808	-0.113	-0.287
-517.902	-105.332	-0.169	0.039
-516.887	125.559	0.141	-0.179
-515.872	-200.000	0.017	-0.189
-514.858	189.266	0.121	0.183
-513.843	800.000	-0.004	0.012
-512.829	-123.782	-0.211	-0.034
-511.814	-200.000	-0.027	0.189
-510.799	-200.000	0.008	0.057
-509.785	152.981	-0.139	-0.192
-508.770	800.000	-0.026	-0.110
-507.756	-109.142	-0.148	-0.032
-506.741	-156.981	-0.036	0.002
-505.726	800.000	0.035	-0.113
-504.712	-20.602	0.399	0.247
-503.697	-19.187	0.121	0.076
-502.683	-157.163	0.372	-0.023
-501.668	-27.405	-0.332	-0.194
-500.653	-45.170	0.307	-0.153
-499.639	-49.638	0.349	-0.167
-498.624	-47.966	-0.128	-0.062
-497.610	431.466	-0.103	0.225
-496.595	-15.904	-0.102	-0.066
-495.581	-53.978	-0.125	-0.057
-494.566	-132.282	0.167	-0.022
-493.551	-200.000	0.000	0.211
-492.537	800.000	0.044	0.175
-491.522	160.399	0.134	0.188
-490.508	187.568	0.037	0.055
-489.493	-200.000	0.013	0.201
-488.478	250.425	0.023	-0.039
-487.464	-200.000	-0.004	0.178
-486.449	-139.059	0.417	-0.045
-485.435	-67.767	-0.443	0.174
-484.420	176.583	0.200	0.292
-483.405	-200.000	-0.001	0.087
-482.391	13.490	-0.286	0.223
-481.376	45.680	-0.300	0.278
-480.362	-200.000	-0.002	-0.241
-479.347	-116.314	-0.515	0.096
-478.332	52.317	-0.233	-0.223
-477.318	613.631	-0.082	0.206
-476.303	-46.918	0.238	-0.117
-475.289	-200.000	-0.033	-0.213
-474.274	338.693	-0.146	0.286
-473.259	7.124	0.269	0.202
-472.245	-149.192	-0.267	0.021
-471.230	764.868	0.062	0.168
-470.216	-200.000	-0.017	0.265
-469.201	163.966	0.174	-0.246
-468.186	397.980	0.194	0.407
-467.172	7.883	0.147	0.111
-466.157	800.000	-0.093	0.367
-465.143	-200.000	0.001	0.225
-464.128	213.787	-0.160	-0.253
-463.113	35.624	0.193	0.170
-462.099	429.506	-0.026	0.056
-461.084	188.138	0.063	0.094
-460.070	-200.000	0.103	0.547
-459.055	371.179	-0.037	-0.075
-458.040	412.821	0.175	0.373
-457.026	47.636	0.049	0.046
-456.011	800.000	0.067	-0.204
-454.997	800.000	0.040	0.154
-453.982	-81.612	-0.088	-0.029
-452.968	-118.334	-0.048	0.008
-451.953	502.833	0.078	0.181
-450.938	156.160	-0.060	0.084
-449.924	57.927	0.237	0.233
-448.909	-54.849	0.078	-0.035
-447.895	-110.705	-0.086	0.018
-446.880	-36.564	-0.191	-0.103
-445.865	114.748	-0.275	0.337
-444.851	214.167	0.102	0.162
-443.836	205.980	-0.117	-0.182
-442.822	46.439	-0.101	-0.094
-441.807	-97.109	0.271	-0.071
-440.792	-66.389	-0.022	-0.009
-439.778	800.000	0.121	0.466
-438.763	700.475	0.062	-0.164
-437.749	-200.000	-0.008	-0.111
-436.734	9.617	-0.250	0.190
-435.719	-200.000	0.046	-0.277
-434.705	323.755	0.074	0.141
-433.690	-200.000	-0.489	0.000
-432.676	128.654	-0.113	0.145
-431.661	407.088	-0.016	0.033
-430.646	506.035	0.039	-0.090
-429.632	800.000	-0.043	0.172
-428.617	501.566	-0.062	0.144
-427.603	-6.310	-0.316	-0.216
-426.588	-200.000	-0.011	-0.086
-425.573	33.685	0.106	0.092
-424.559	-83.835	-0.226	-0.072
-423.544	-136.961	0.345	0.040
-422.530	-72.109	-0.141	-0.052
-421.515	800.000	0.053	0.213
-420.500	-38.093	-0.034	0.018
-419.486	-200.000	0.014	-0.220
-418.471	-67.180	0.126	-0.050
-417.457	-200.000	0.003	-0.058
-416.442	-104.065	0.174	0.041
-415.428	-200.000	-0.024	0.238
-414.413	-142.951	-0.383	-0.037
-413.398	-139.104	0.171	-0.019
-412.384	-194.807	-0.195	0.002
-411.369	3.109	-0.297	-0.217
-410.355	-101.348	-0.126	0.031
-409.340	-49.910	0.109	-0.052
-408.325	708.798	-0.109	0.290
-407.311	-200.000	0.019	0.144
-406.296	95.345	-0.055	-0.063
-405.282	325.640	0.030	0.057
-404.267	-37.196	0.146	-0.078
-403.252	34.629	0.092	-0.080
-402.238	-167.934	0.209	0.008
-401.223	-200.000	0.011	-0.214
-400.209	-200.000	-0.011	0.070
-399.194	-91.493	-0.132	-0.038
-398.179	-200.000	0.033	-0.209
-397.165	154.896	-0.168	-0.231
-396.150	-8.754	-0.183	-0.123
-395.136	-184.331	0.081	0.001
-394.121	800.000	-0.016	-0.055
-393.106	-24.603	-0.176	-0.105
-392.092	-133.364	0.120	0.015
-391.077	40.090	0.115	0.103
-390.063	-200.000	0.064	-0.391
-389.048	800.000	-0.031	0.115
-388.033	-200.000	-0.003	-0.086
-387.019	86.137	-0.121	-0.133
-386.004	50.601	0.186	-0.176
-384.990	-118.311	-0.388	0.069
-383.975	-184.807	-0.230	-0.004
-382.960	-200.000	0.011	-0.074
-381.946	-16.794	-0.116	-0.074
-380.931	-32.022	0.154	-0.086
-379.917	9.905	-0.043	0.033
-378.902	117.654	0.191	-0.235
-377.888	-200.000	-0.001	-0.029
-376.873	800.000	0.056	0.211
-375.858	-47.824	-0.065	0.032
-374.844	32.296	0.097	0.084
-373.829	219.019	0.035	0.056
-372.815	-62.601	0.083	-0.035
-371.800	260.105	0.039	0.068
-370.785	-48.831	-0.131	-0.063
-369.771	800.000	0.027	0.087
-368.756	800.000	-0.033	0.093
-367.742	800.000	-0.065	-0.198
-366.727	52.202	0.151	-0.144
-365.712	220.001	0.140	0.225
-364.698	-87.826	-0.426	0.128
-363.683	41.955	-0.058	-0.052
-362.669	76.809	-0.025	0.026
-361.654	528.872	-0.032	0.075
-360.639	114.487	0.147	0.179
-359.625	277.219	-0.058	-0.104
-358.610	-21.653	0.083	-0.050
-357.596	-200.000	-0.031	-0.153
-356.581	-88.250	-0.324	-0.097
-355.566	168.493	-0.090	0.129
-354.552	-200.000	0.014	-0.130
-353.537	-104.710	-0.135	0.031
-352.523	-80.950	0.159	0.053
-351.508	-200.000	-0.006	-0.290
-350.493	-104.901	0.257	-0.059
-349.479	800.000	-0.166	0.531
-348.464	456.194	-0.086	-0.190
-347.450	293.766	-0.153	-0.278
-346.435	-140.901	0.351	-0.036
-345.420	-169.305	0.209	-0.008
-344.406	-200.000	0.016	-0.148
-343.391	-51.564	0.039	-0.018
-342.377	114.587	-0.162	-0.197
-341.362	337.386	0.055	-0.107
-340.348	800.000	-0.085	0.293
-339.333	-107.921	0.113	0.025
-338.318	-200.000	-0.021	-0.121
-337.304	73.176	0.160	0.167
-336.289	50.759	-0.425	0.402
-335.275	60.407	-0.062	0.061
-334.260	-200.000	0.017	-0.092
-333.245	65.250	0.084	-0.085
-332.231	272.059	0.086	0.152
-331.216	35.827	0.124	0.109
-330.202	286.968	0.050	-0.091
-329.187	-158.216	-0.168	0.010
-328.172	42.516	0.075	0.068
-327.158	33.847	0.081	0.071
-326.143	-25.988	0.272	0.160
-325.129	800.000	0.077	0.254
-324.114	-200.000	-0.014	0.134
-323.099	-133.399	0.182	0.023
-322.085	489.274	-0.197	0.451
-321.070	142.524	-0.212	0.281
-320.056	268.684	0.091	0.160
-319.041	-40.456	0.146	-0.076
-318.026	-7.066	0.109	0.074
-317.012	-122.956	0.119	0.019
-315.997	343.899	0.120	0.235
-314.983	153.988	-0.166	0.228
-313.968	4.946	0.447	-0.328
-312.953	99.853	0.196	0.226
-311.939	800.000	-0.026	0.106
-310.924	50.204	0.090	0.085
-309.910	16.820	0.307	0.242
-308.895	-27.277	0.055	0.032
-307.880	-200.000	-0.009	-0.550
-306.866	-0.732	-0.101	0.071
-305.851	56.786	-0.114	0.111
-304.837	-77.576	0.468	0.162
-303.822	-98.042	0.211	-0.054
-302.807	-200.000	-0.045	0.291
-301.793	180.675	0.240	0.351
-300.778	714.457	0.019	-0.050
-299.764	54.642	-0.209	0.202
-298.749	-152.687	0.424	0.030
-297.735	-200.000	-0.003	-0.144
-296.720	-159.005	-0.041	-0.002
-295.705	-106.739	-0.145	-0.032
-294.691	-98.286	0.332	-0.085
-293.676	415.952	-0.101	-0.215
-292.662	-147.652	-0.037	-0.003
-291.647	-22.908	-0.466	-0.280
-290.632	0.957	0.258	0.184
-289.618	19.597	-0.134	0.108
-288.603	-101.563	-0.227	-0.055
-287.589	20.621	-0.176	0.142
-286.574	-18.628	-0.150	0.093
-285.559	-200.000	-0.002	0.077
-284.545	-98.728	-0.168	0.043
-283.530	131.146	0.097	-0.124
-282.516	523.032	-0.055	-0.130
-281.501	-121.214	0.217	-0.036
-280.486	-200.000	-0.006	-0.086
-279.472	-200.000	0.003	0.063
-278.457	-72.567	0.106	-0.039
-277.443	203.834	0.144	0.223
-276.428	331.491	0.119	-0.228
-275.413	-200.000	0.018	-0.156
-274.399	-200.000	0.041	0.267
-273.384	-63.348	0.318	0.130
-272.370	29.831	0.343	0.291
-271.355	-200.000	-0.027	0.139
-270.340	800.000	-0.078	-0.305
-269.326	21.327	-0.281	-0.227
-268.311	-200.000	0.014	-0.140
-267.297	-200.000	-0.026	0.353
-266.282	-117.431	0.115	-0.021
-265.267	170.105	-0.068	0.098
-264.253	-200.000	-0.049	-0.226
-263.238	-77.596	-0.408	0.141
-262.224	-200.000	0.007	-0.075
-261.209	468.365	0.071	-0.159
-260.195	-108.004	0.089	-0.019
-259.180	-200.000	0.002	0.083
-258.165	558.967	0.047	0.113
-257.151	-200.000	0.033	-0.284
-256.136	-200.000	-0.027	-0.183
-255.122	93.576	0.200	-0.225
-254.107	-200.000	0.002	0.214
-253.092	-54.346	0.279	0.126
-252.078	227.033	0.039	-0.062
-251.063	74.118	0.179	0.187
-250.049	81.808	-0.139	0.150
-249.034	-15.445	-0.069	0.044
-248.019	800.000	-0.042	0.119
-247.005	0.680	0.076	-0.054
-245.990	-64.669	-0.303	-0.122
-244.976	-200.000	-0.042	-0.270
-243.961	29.916	0.194	0.165
-242.946	421.891	-0.069	0.148
-241.932	55.162	0.039	0.037
-240.917	48.007	0.107	-0.099
-239.903	153.010	0.173	0.236
-238.888	-156.913	0.129	0.008
-237.873	-200.000	0.004	0.146
-236.859	202.159	-0.097	0.149
-235.844	800.000	-0.093	0.318
-234.830	-200.000	-0.007	0.199
-233.815	290.563	-0.228	-0.412
-232.800	-200.000	-0.014	-0.140
-231.786	-115.387	-0.084	-0.016
-230.771	-200.000	-0.009	-0.049
-229.757	-200.000	-0.024	-0.230
-228.742	-128.565	-0.142	-0.020
-227.727	446.742	-0.051	0.111
-226.713	800.000	-0.075	-0.269
-225.698	-93.543	0.133	0.037
-224.684	375.059	0.106	0.215
-223.669	180.984	0.166	-0.243
-222.655	-55.856	-0.183	0.081
-221.640	-133.728	0.229	-0.028
-220.625	-69.812	-0.089	-0.034
-219.611	222.015	-0.085	0.137
-218.596	-90.597	-0.569	0.164
-217.582	562.959	-0.021	-0.052
-216.567	-2.173	-0.154	-0.108
-215.552	196.670	0.177	0.268
-214.538	289.402	0.052	-0.093
-213.523	72.617	-0.197	0.204
-212.509	31.290	-0.199	0.170
-211.494	-100.066	0.036	0.009
-210.479	82.597	0.186	-0.201
-209.465	-138.303	-0.066	-0.007
-208.450	-78.347	-0.216	-0.074
-207.436	-84.479	0.086	-0.027
-206.421	-200.000	0.031	-0.145
-205.406	-71.412	-0.131	0.049
-204.392	367.234	0.102	-0.204
-203.377	-96.569	-0.334	-0.087
-202.363	-200.000	0.062	-0.367
-201.348	-10.419	-0.149	0.098
-200.333	148.299	-0.086	0.115
-199.319	317.801	0.090	0.170
-198.304	-200.000	0.029	-0.190
-197.290	-200.000	-0.016	-0.286
-196.275	482.685	0.129	-0.291
-195.260	5.814	0.216	-0.158
-194.246	800.000	0.079	-0.327
-193.231	-33.165	0.146	-0.080
-192.217	42.150	-0.204	-0.184
-191.202	800.000	0.027	-0.090
-190.187	59.757	0.206	-0.202
-189.173	8.590	-0.237	0.177
-188.158	800.000	0.108	0.381
-187.144	-200.000	0.019	-0.120
-186.129	800.000	-0.102	-0.295
-185.114	192.812	0.068	0.101
-184.100	-156.798	-0.301	-0.018
-183.085	-51.337	-0.149	-0.069
-182.071	-200.000	-0.035	-0.163
-181.056	262.256	-0.112	-0.193
-180.042	-200.000	-0.000	0.002
-179.027	-91.421	0.346	-0.098
-178.012	3.251	-0.018	0.013
-176.998	-172.154	0.414	0.013
-175.983	48.856	0.109	-0.101
-174.969	150.462	0.128	0.172
-173.954	538.743	0.029	0.067
-172.939	-26.413	-0.099	0.058
-171.925	-107.642	-0.127	-0.028
-170.910	-44.550	0.249	0.123
-169.896	-110.980	0.181	-0.037
-168.881	165.002	0.124	-0.174
-167.866	-92.293	-0.536	0.150
-166.852	-83.620	0.109	-0.035
-165.837	-126.548	0.185	-0.027
-164.823	-143.408	0.261	0.025
-163.808	23.754	-0.071	0.058
-162.793	800.000	0.045	-0.187
-161.779	800.000	0.113	0.361
-160.764	-146.735	-0.154	0.013
-159.750	-157.292	0.346	0.021
-158.735	94.038	0.233	-0.262
-157.720	-96.772	0.284	-0.074
-156.706	724.475	0.047	0.123
-155.691	-14.791	-0.115	-0.073
-154.677	-35.267	-0.208	0.112
-153.662	-188.180	-0.153	-0.002
-152.647	-135.836	0.301	-0.035
-151.633	631.983	-0.115	0.290
-150.618	80.862	-0.062	0.067
-149.604	800.000	-0.033	0.097
-148.589	-11.107	0.176	-0.115
-147.574	-97.944	-0.190	0.049
-146.560	-146.479	0.297	0.026
-145.545	0.130	0.467	-0.330
-144.531	-192.381	0.155	-0.001
-143.516	87.377	-0.026	0.029
-142.502	390.625	-0.131	0.269
-141.487	169.156	0.236	-0.334
-140.472	800.000	0.054	0.195
-139.458	388.979	0.202	0.415
-138.443	-122.943	-0.325	0.052
-137.429	-200.000	0.044	0.258
-136.414	-139.090	0.263	0.028
-135.399	-77.862	0.243	0.083
-134.385	315.633	-0.135	0.252
-133.370	54.145	-0.073	0.069
-132.356	470.570	-0.021	0.047
-131.341	237.327	-0.171	0.281
-130.326	385.669	-0.184	0.377
-129.312	-200.000	0.022	0.213
-128.297	95.041	0.311	0.351
-127.283	-43.989	-0.369	0.184
-126.268	-31.667	-0.221	-0.123
-125.253	-200.000	0.004	0.181
-124.239	-200.000	0.015	-0.169
-123.224	187.957	0.133	0.196
-122.210	-94.072	0.244	0.066
-121.195	667.526	-0.168	-0.429
-120.180	-76.018	0.233	0.082
-119.166	195.775	-0.070	-0.105
-118.151	-200.000	-0.089	-0.402
-117.137	417.663	-0.063	0.134
-116.122	353.209	-0.141	-0.277
-115.107	-160.704	-0.496	-0.026
-114.093	-33.634	-0.279	-0.153
-113.078	-33.122	-0.212	0.116
-112.064	162.651	0.244	0.340
-111.049	46.238	-0.494	-0.453
-110.034	-147.794	0.110	0.009
-109.020	538.852	0.138	0.324
-108.005	-46.378	0.419	0.204
-106.991	-77.973	0.340	-0.116
-105.976	800.000	-0.005	-0.017
-104.962	77.223	0.076	-0.080
-103.947	-51.671	-0.175	0.081
-102.932	-200.000	-0.008	-0.083
-101.918	-79.612	0.170	-0.057
-100.903	-85.828	0.060	0.019
-99.889	28.454	0.194	0.163
-98.874	800.000	-0.067	0.231
-97.859	745.594	0.055	-0.147
-96.845	-166.926	0.091	0.004
-95.830	800.000	-0.092	-0.261
-94.816	-66.451	-0.069	-0.027
-93.801	55.737	-0.223	0.214
-92.786	-200.000	-0.004	-0.363
-91.772	178.153	0.219	-0.316
-90.757	433.008	0.099	-0.213
-89.743	26.126	0.094	0.077
-88.728	-200.000	0.001	0.069
-87.713	-45.059	-0.194	-0.096
-86.699	-4.125	-0.269	-0.185
-85.684	-54.040	0.099	0.045
-84.670	-40.224	0.222	0.114
-83.655	587.774	-0.100	0.244
-82.640	-56.282	0.066	0.029
-81.626	-76.639	-0.067	-0.023
-80.611	-48.586	0.162	0.077
-79.597	800.000	0.133	0.378
-78.582	470.869	0.142	0.317
-77.567	140.652	0.114	0.149
-76.553	80.108	0.182	-0.193
-75.538	199.252	0.105	0.160
-74.524	-34.071	0.089	0.048
-73.509	-41.629	0.289	-0.147
-72.494	-49.298	-0.477	-0.225
-71.480	-135.971	0.230	0.027
-70.465	800.000	0.073	0.236
-69.451	21.712	0.205	0.165
-68.436	800.000	-0.027	-0.100
-67.422	-200.000	0.056	-0.356
-66.407	-2.861	0.062	0.043
-65.392	-200.000	-0.034	-0.208
-64.378	27.309	0.104	0.086
-63.363	-110.316	0.163	0.034
-62.349	191.101	-0.071	0.105
-61.334	167.093	-0.774	-1.086
-60.319	46.809	0.228	0.209
-59.305	800.000	-0.204	-0.754
-58.290	107.298	0.651	0.765
-57.276	-200.000	0.383	1.812
-56.261	-200.000	98.568	589.209
-55.246	533.334	1413.850	3308.437
-54.232	148.504	2620.104	3496.567
-53.217	111.618	2198.147	2620.394
-52.203	44.155	1729.703	1567.403
-51.188	36.944	1541.554	1346.967
-50.173	34.574	1514.918	1307.428
-49.159	54.299	1567.133	1490.407
-48.144	57.431	1585.474	1529.589
-47.130	37.234	1540.538	1347.881
-46.115	34.144	1524.662	1312.663
-45.100	33.921	1521.023	1307.946
-44.086	33.976	1519.593	1307.040
-43.071	33.758	1517.948	1304.075
-42.057	33.874	1516.039	1303.179
-41.042	33.814	1514.767	1301.624
-40.027	33.839	1513.649	1300.785
-39.013	33.851	1511.390	1298.873
-37.998	33.748	1510.322	1297.200
-36.984	33.640	1509.858	1296.014
-35.969	33.778	1508.026	1295.331
-34.954	33.784	1506.539	1294.043
-33.940	33.754	1505.486	1292.884
-32.925	33.771	1504.240	1291.877
-31.911	33.805	1502.705	1290.739
-30.896	33.879	1501.299	1289.980
-29.881	33.888	1500.187	1289.039
-28.867	33.874	1499.142	1287.993
-27.852	33.820	1497.689	1286.325
-26.838	33.927	1495.947	1285.504
-25.823	33.837	1494.660	1283.740
-24.809	33.861	1492.812	1282.263
-23.794	33.856	1491.332	1280.905
-22.779	33.827	1489.864	1279.402
-21.765	33.815	1489.061	1278.576
-20.750	33.875	1487.650	1277.716
-19.736	33.898	1486.235	1276.609
-18.721	33.742	1485.807	1275.142
-17.706	33.782	1484.748	1274.454
-16.692	33.776	1483.569	1273.351
-15.677	33.863	1482.381	1272.861
-14.663	33.750	1481.827	1271.576
-13.648	33.819	1480.325	1270.696
-12.633	33.884	1479.521	1270.396
-11.619	33.785	1478.969	1269.209
-10.604	33.706	1478.150	1267.928
-9.590	33.689	1476.929	1266.712
-8.575	33.780	1476.089	1266.553
-7.560	33.723	1475.437	1265.563
-6.546	33.744	1474.640	1264.967
-5.531	33.793	1473.547	1264.309
-4.517	33.612	1473.075	1262.646
-3.502	33.712	1471.657	1262.043
-2.487	33.753	1470.550	1261.316
-1.473	33.712	1469.782	1260.335
-0.458	33.782	1468.468	1259.625
0.556	33.683	1459.115	1249.417
1.571	31.069	1433.597	1210.518
2.586	27.907	1375.477	1141.613
3.600	26.425	1294.907	1065.921
4.615	24.882	1248.369	1018.747
5.629	20.894	1189.833	949.212
6.644	10.659	1101.036	826.442
7.659	2.963	1057.989	756.287
8.673	1.981	1051.930	747.085
9.688	1.748	1049.177	743.922
10.702	1.639	1047.568	742.184
11.717	1.553	1045.494	740.232
12.731	4.762	1049.215	758.458
13.746	14.774	1063.782	818.172
14.761	22.864	1074.485	866.186
15.775	24.875	1076.204	877.360
16.790	25.082	1075.929	878.074
17.804	24.983	1075.193	876.912
18.819	24.715	1074.414	874.887
19.834	24.902	1073.411	874.905
20.848	25.103	1073.408	875.808
21.863	25.129	1072.838	875.393
22.877	25.134	1072.516	875.078
23.892	25.136	1071.970	874.562
24.907	25.058	1070.808	873.159
25.921	25.039	1070.172	872.471
26.936	25.005	1069.506	871.686
27.950	24.913	1068.273	870.157
28.965	25.104	1066.785	869.793
29.980	24.811	1065.580	867.311
30.994	24.823	1064.423	866.352
32.009	25.050	1063.877	866.933
33.023	25.128	1063.587	866.995
34.038	24.795	1062.844	864.703
35.053	24.812	1061.371	863.510
36.067	24.976	1060.982	863.910
37.082	25.078	1059.830	863.386
38.096	25.177	1059.238	863.303
39.111	25.232	1058.693	863.047
40.126	25.395	1057.568	862.837
41.140	25.367	1056.112	861.437
42.155	24.877	1055.142	858.222
43.169	24.546	1054.378	855.937
44.184	24.613	1052.884	854.972
45.199	24.844	1051.842	855.151
46.213	24.682	1050.680	853.357
47.228	24.500	1050.459	852.239
48.242	24.810	1049.436	852.811
49.257	24.901	1049.311	853.064
50.271	24.939	1047.910	852.030
51.286	25.120	1047.314	852.331
52.301	25.118	1046.547	851.622
53.315	25.141	1045.626	850.908
54.330	25.070	1045.530	850.418
55.344	24.894	1044.466	848.642
56.359	25.062	1043.308	848.423
57.374	25.100	1042.504	847.874
58.388	24.852	1041.757	846.019
59.403	24.737	1040.719	844.556
60.417	24.638	1040.466	843.811
61.432	24.492	1039.288	842.092
62.447	24.644	1038.721	842.271
63.461	24.767	1038.334	842.465
64.476	24.893	1036.919	841.835
65.490	24.721	1036.536	840.642
66.505	24.712	1035.578	839.747
67.520	24.683	1034.450	838.621
68.534	24.775	1034.210	838.784
69.549	24.662	1033.174	837.340
70.563	24.214	1031.626	833.916
71.578	24.258	1031.117	833.638
72.593	24.204	1030.226	832.590
73.607	24.219	1028.991	831.590
74.622	24.049	1028.233	830.110
75.636	24.335	1027.901	831.101
76.651	24.625	1026.590	831.318
77.666	24.430	1026.278	830.082
78.680	24.349	1024.924	828.539
79.695	24.338	1024.665	828.205
80.709	24.472	1024.212	828.389
81.724	24.641	1022.954	828.081
82.739	24.549	1022.195	826.965
83.753	24.635	1021.079	826.391
84.768	24.704	1021.026	826.590
85.782	25.068	1020.637	827.884
86.797	25.360	1019.925	828.580
87.812	25.307	1018.864	827.402
88.826	25.221	1017.587	825.895
89.841	25.139	1017.273	825.191
90.855	25.224	1016.541	824.914
91.870	25.277	1015.471	824.217
92.884	25.214	1014.715	823.241
93.899	24.973	1013.899	821.402
94.914	25.032	1012.813	820.719
95.928	25.187	1012.099	820.778
96.943	25.190	1010.974	819.805
97.957	24.905	1010.488	818.039
98.972	24.704	1008.934	815.790
99.987	24.602	1007.957	814.464
101.001	24.705	1006.964	814.059
102.016	25.014	1006.859	815.308
103.030	24.891	1006.376	814.285
104.045	24.904	1004.769	812.971
105.060	24.959	1003.633	812.231
106.074	24.775	1002.163	810.136
107.089	24.571	1001.822	808.863
108.103	25.019	1001.541	810.595
109.118	24.998	1000.883	809.894
110.133	24.803	999.732	808.010
111.147	24.772	998.761	807.014
112.162	24.688	997.456	805.511
113.176	24.373	996.700	803.409
114.191	24.597	995.726	803.560
115.206	24.785	994.831	803.613
116.220	24.334	994.006	800.852
117.235	24.154	992.833	799.027
118.249	24.401	992.682	799.944
119.264	24.360	991.575	798.793
120.279	24.197	990.779	797.352
121.293	24.351	989.378	796.846
122.308	24.276	989.501	796.538
123.322	24.495	988.368	796.534
124.337	24.464	987.178	795.363
125.352	24.321	985.918	793.645
126.366	23.839	984.408	790.216
127.381	23.563	982.669	787.522
128.395	24.140	982.966	790.251
129.410	24.735	982.705	792.610
130.424	24.942	982.088	792.961
131.439	24.950	980.889	791.957
132.454	24.940	980.192	791.281
133.468	24.844	979.218	790.002
134.483	24.882	978.579	789.582
135.497	24.829	977.833	788.676
136.512	25.273	977.102	789.975
137.527	25.068	976.777	788.737
138.541	25.139	975.771	788.166
139.556	25.171	974.942	787.569
140.570	25.125	974.137	786.647
141.585	25.248	973.270	786.419
142.600	25.343	972.365	786.032
143.614	25.096	971.582	784.247
144.629	25.247	971.470	784.748
145.643	25.402	970.609	784.661
146.658	25.405	969.616	783.804
147.673	25.269	967.958	781.800
148.687	25.046	967.377	780.291
149.702	24.985	966.109	778.936
150.716	24.943	964.999	777.790
151.731	24.899	963.978	776.707
152.746	24.938	963.447	776.378
153.760	25.189	962.829	776.900
154.775	25.141	962.468	776.332
155.789	25.305	961.229	775.974
156.804	25.241	960.968	775.414
157.819	25.188	959.370	773.831
158.833	25.210	958.756	773.359
159.848	25.411	957.934	773.496
160.862	25.318	957.490	772.669
161.877	25.325	956.435	771.779
162.892	25.176	955.378	770.217
163.906	25.322	954.571	770.124
164.921	25.245	953.575	768.924
165.935	25.270	952.271	767.908
166.950	25.272	951.270	767.045
167.964	25.349	950.523	766.704
168.979	25.202	949.688	765.333
169.994	25.156	948.549	764.153
171.008	25.056	947.439	762.765
172.023	25.238	947.143	763.235
173.037	25.451	946.132	763.255
174.052	25.188	945.315	761.414
175.067	24.877	944.359	759.257
176.081	25.056	942.965	758.826
177.096	25.117	942.713	758.814
178.110	25.139	941.680	758.011
179.125	24.849	940.608	755.856
180.140	24.618	939.594	753.999
181.154	24.643	938.837	753.431
182.169	24.798	938.449	753.705
183.183	24.881	938.310	753.876
184.198	25.125	938.081	754.652
185.213	25.226	936.958	754.106
186.227	25.132	936.667	753.412
187.242	25.234	936.187	753.386
188.256	25.298	935.297	752.871
189.271	25.256	934.690	752.139
190.286	25.337	933.974	751.836
191.300	25.186	933.277	750.576
192.315	24.624	931.718	746.908
193.329	23.854	929.809	742.101
194.344	23.469	928.980	739.767
195.359	24.151	929.277	742.782
196.373	25.007	929.456	746.427
197.388	25.182	929.454	747.088
198.402	25.078	928.928	746.168
199.417	25.146	928.055	745.684
200.432	25.345	927.769	746.214
201.446	25.072	927.022	744.412
202.461	24.694	926.038	741.989
203.475	24.948	925.416	742.478
204.490	24.486	923.992	739.356
205.504	23.288	922.223	732.922
206.519	23.555	922.308	734.029
207.534	24.684	922.561	738.837
208.548	24.777	921.540	738.335
209.563	25.095	921.400	739.471
210.577	25.179	920.536	739.060
211.592	24.835	919.976	737.128
212.607	25.217	920.033	738.679
213.621	25.379	919.521	738.870
214.636	25.273	918.829	737.813
215.650	25.343	918.102	737.451
216.665	25.365	917.236	736.780
217.680	25.325	916.624	736.058
218.694	25.390	916.399	736.080
219.709	25.131	915.668	734.368
220.723	24.684	914.595	731.614
221.738	24.986	914.260	732.514
222.753	25.226	913.524	732.844
223.767	25.133	913.045	732.014
224.782	25.177	912.123	731.388
225.796	25.434	911.814	732.122
226.811	25.483	911.377	731.909
227.826	25.068	909.621	728.745
228.840	24.213	908.476	724.289
229.855	24.173	908.235	723.871
230.869	24.437	907.865	724.585
231.884	24.206	906.257	722.299
232.899	24.044	906.003	721.377
233.913	25.028	906.133	725.403
234.928	25.092	905.773	725.310
235.942	25.012	905.315	724.556
236.957	25.127	904.311	724.152
237.972	24.754	903.845	722.208
238.986	24.557	903.019	720.691
240.001	24.857	902.235	721.212
241.015	24.834	901.761	720.673
242.030	24.998	900.873	720.559
243.045	24.943	900.736	720.167
244.059	25.102	900.628	720.654
245.074	25.260	900.023	720.741
246.088	25.276	898.924	719.865
247.103	24.823	897.937	717.195
248.117	24.885	897.358	716.916
249.132	25.474	897.494	719.320
250.147	25.805	897.274	720.405
251.161	25.858	896.817	720.186
252.176	26.069	896.269	720.523
253.190	26.037	895.713	719.884
254.205	25.951	895.503	719.308
255.220	26.238	894.863	719.874
256.234	26.303	893.935	719.326
257.249	26.128	893.571	718.272
258.263	26.019	892.963	717.285
259.278	25.916	892.082	716.104
260.293	26.084	892.009	716.651
261.307	26.136	891.242	716.178
262.322	25.984	890.546	714.951
263.336	25.887	889.820	713.922
264.351	25.395	888.519	710.867
265.366	24.449	886.236	705.242
266.380	24.042	885.142	702.704
267.395	24.864	886.021	706.585
268.409	25.584	886.058	709.395
269.424	25.535	885.547	708.728
270.439	25.704	884.820	708.749
271.453	25.927	884.011	708.918
272.468	25.856	883.734	708.351
273.482	25.931	883.059	708.042
274.497	26.099	882.900	708.514
275.512	25.927	881.861	706.942
276.526	25.387	880.739	703.865
277.541	25.568	880.078	703.982
278.555	25.957	880.272	705.597
279.570	25.496	879.597	703.190
280.585	25.611	878.604	702.783
281.599	25.675	878.146	702.606
282.614	25.769	877.790	702.625
283.628	25.339	876.472	699.831
284.643	24.963	875.760	697.738
285.657	25.435	875.768	699.521
286.672	25.338	874.793	698.302
287.687	24.874	873.691	695.558
288.701	25.087	873.932	696.515
289.716	25.409	873.405	697.287
290.730	25.107	872.614	695.421
291.745	25.058	872.008	694.687
292.760	24.890	871.028	693.193
293.774	24.761	870.515	692.226
294.789	25.676	871.195	696.245
295.803	26.398	870.939	698.770
296.818	26.282	870.587	697.979
297.833	26.451	870.053	698.143
298.847	26.153	869.038	696.115
299.862	25.860	867.868	693.989
300.876	26.039	867.442	694.275
301.891	26.367	867.037	695.152
302.906	26.424	866.573	694.937
303.920	26.007	865.381	692.320
304.935	25.894	864.796	691.357
305.949	26.304	864.977	693.013
306.964	26.349	864.494	692.739
307.979	26.184	863.152	690.968
308.993	26.181	862.995	690.772
310.008	26.425	862.947	691.604
311.022	26.492	862.739	691.633
312.037	26.391	861.608	690.281
313.052	26.027	861.207	688.510
314.066	25.897	860.469	687.361
315.081	25.250	858.989	683.653
316.095	24.689	857.492	680.267
317.110	25.095	858.090	682.228
318.125	25.948	858.290	685.572
319.139	25.644	856.630	683.030
320.154	24.412	855.095	677.075
321.168	23.845	854.379	674.299
322.183	24.523	854.735	677.094
323.197	25.537	855.315	681.336
324.212	25.797	854.818	681.863
325.227	26.027	854.127	682.124
326.241	26.428	853.562	683.126
327.256	26.086	853.043	681.359
328.270	26.021	852.474	680.597
329.285	25.847	851.855	679.389
330.300	25.696	850.962	678.047
331.314	25.372	850.392	676.315
332.329	25.403	850.123	676.156
333.343	25.954	849.525	677.693
334.358	26.229	849.054	678.289
335.373	26.198	848.504	677.674
336.387	26.131	848.433	677.306
337.402	26.362	848.369	678.063
338.416	26.527	847.806	678.171
339.431	26.649	846.753	677.726
340.446	26.619	846.257	677.156
341.460	26.827	846.382	677.973
342.475	26.813	845.683	677.300
343.489	26.691	844.385	675.747
344.504	26.630	844.261	675.360
345.519	26.851	843.753	675.716
346.533	27.104	843.384	676.302
347.548	27.156	843.197	676.288
348.562	27.127	842.581	675.626
349.577	27.072	841.834	674.764
350.592	27.005	841.391	674.099
351.606	26.906	840.982	673.346
352.621	27.012	840.194	673.048
353.635	26.754	839.980	671.858
354.650	27.013	839.079	672.039
355.665	26.456	838.426	669.394
356.679	25.405	836.430	663.859
357.694	25.333	835.989	663.185
358.708	26.055	836.105	665.886
359.723	25.894	835.421	664.689
360.738	26.218	835.144	665.604
361.752	26.544	834.923	666.568
362.767	26.702	834.336	666.623
363.781	27.058	834.534	668.030
364.796	27.297	834.333	668.689
365.810	27.217	834.302	668.313
366.825	27.457	834.003	668.893
367.840	27.502	833.314	668.447
368.854	27.381	832.635	667.401
369.869	26.829	831.981	664.793
370.883	26.701	830.975	663.464
371.898	26.636	830.744	662.983
372.913	26.701	829.678	662.309
373.927	26.761	829.409	662.255
374.942	26.834	828.950	662.098
375.956	26.913	828.127	661.668
376.971	27.167	827.402	661.959
377.986	27.158	827.369	661.838
379.000	27.405	827.128	662.486
380.015	27.397	826.172	661.634
381.029	27.169	825.678	660.350
382.044	27.197	824.986	659.840
383.059	27.460	824.308	660.193
384.073	27.254	824.175	659.281
385.088	27.332	823.909	659.295
386.102	27.368	823.185	658.785
387.117	27.163	822.296	657.274
388.132	27.029	821.799	656.338
389.146	26.822	821.247	655.090
390.161	26.424	819.791	652.433
391.175	26.430	819.938	652.514
392.190	27.062	819.695	654.541
393.205	26.917	819.444	653.763
394.219	25.979	817.305	648.625
395.234	24.333	815.553	641.266
396.248	23.511	814.497	637.425
397.263	24.554	815.205	641.672
398.278	26.439	816.600	649.486
399.292	26.983	816.378	651.205
400.307	26.499	816.116	649.205
401.321	26.461	815.269	648.335
402.336	26.600	814.968	648.538
403.350	27.066	814.686	649.923
404.365	27.358	815.039	651.193
405.380	27.780	814.445	652.170
406.394	28.040	814.072	652.739
407.409	28.306	813.560	653.220
408.423	28.094	813.439	652.312
409.438	27.965	812.584	651.106
410.453	27.897	812.690	650.892
411.467	27.982	812.158	650.710
412.482	27.945	811.631	650.102
413.496	28.103	810.925	650.038
414.511	28.156	810.584	649.897
415.526	28.113	810.112	649.308
416.540	28.130	809.800	649.062
417.555	27.937	809.371	647.976
418.569	27.744	808.477	646.518
419.584	27.548	808.214	645.556
420.599	27.697	807.632	645.560
421.613	107.154	1284.065	1448.554
422.628	92.447	1353.491	1448.671
