DTS Sentinel unit serial number:	SN413079Multiplexer serial number:	ORYXHardware model number:	OX4-SRSoftware version number:	ORYX F/W v4.00 Oryx Data Collector v3.7.2.0data status	okinstallation	princeton_trtdifferential loss correction	single-endedforward channel	channel 3reverse channel	N/Adate	2019/09/15time	14:40:34forward acquisition time	60.00reverse acquisition time	0.00gamma	496.2192k internal	0.2290k external	0.2290temperature offset calibration	0.9946default loss term (dB/km)	0.3790temperature slope calibration	1.0000multiplexer offset coefficient	1.0000multiplexer slope coefficient	1.0000fibre end	0.00T internal ref (°C)	39.62T ext. ref 1 (°C)	4.86T ext. ref 2 (°C)	36.79length (m)	temperature (°C)	Stokes	anti-Stokes-747.200	800.000	-0.049	0.166
-746.185	-200.000	-0.030	0.167
-745.171	800.000	0.079	0.252
-744.156	-114.503	-0.426	-0.084
-743.142	-200.000	0.016	-0.206
-742.127	86.016	0.190	0.214
-741.112	-96.007	0.388	0.106
-740.098	-126.489	-0.389	0.059
-739.083	-133.539	0.169	-0.022
-738.069	49.304	0.362	0.348
-737.054	299.626	-0.178	0.336
-736.039	-30.459	-0.299	0.174
-735.025	-57.124	0.564	0.255
-734.010	-200.000	-0.020	0.130
-732.996	265.931	-0.203	-0.362
-731.981	-78.766	-0.171	0.060
-730.966	-200.000	0.007	0.082
-729.952	-61.701	0.369	0.158
-728.937	254.363	-0.189	-0.331
-727.923	-143.476	-0.246	0.024
-726.908	-62.565	-0.444	-0.189
-725.894	-80.733	0.240	0.082
-724.879	-200.000	0.052	-0.336
-723.864	-157.100	0.553	-0.034
-722.850	-200.000	-0.025	-0.294
-721.835	-0.740	0.156	0.113
-720.821	98.946	0.273	0.322
-719.806	-126.763	0.147	0.022
-718.791	-73.915	-0.162	-0.060
-717.777	-69.274	-0.149	0.059
-716.762	-200.000	0.001	0.059
-715.748	-61.283	0.193	-0.083
-714.733	-97.184	-0.191	0.051
-713.718	-200.000	0.038	-0.218
-712.704	106.683	-0.304	0.369
-711.689	-129.488	0.191	0.027
-710.675	-121.325	-0.085	0.014
-709.660	594.976	-0.069	-0.175
-708.645	-200.000	0.021	-0.163
-707.631	381.714	-0.067	0.141
-706.616	-67.155	-0.313	0.126
-705.602	137.160	-0.052	-0.069
-704.587	-200.000	0.026	0.126
-703.572	-200.000	0.036	-0.214
-702.558	16.476	-0.092	-0.074
-701.543	171.030	-0.118	-0.174
-700.529	99.151	-0.111	0.131
-699.514	184.229	0.173	0.263
-698.499	-107.899	-0.158	-0.035
-697.485	-200.000	0.041	-0.202
-696.470	-200.000	-0.003	-0.247
-695.456	-42.486	-0.057	-0.030
-694.441	353.630	0.129	0.263
-693.426	-69.323	-0.057	-0.022
-692.412	-33.754	-0.383	-0.216
-691.397	80.747	-0.156	-0.171
-690.383	95.107	0.012	-0.014
-689.368	-43.167	0.220	-0.114
-688.354	-162.899	-0.204	0.010
-687.339	-34.298	-0.058	0.032
-686.324	145.115	-0.038	0.052
-685.310	181.769	-0.072	0.108
-684.295	-200.000	-0.058	0.262
-683.281	-130.077	-0.153	-0.021
-682.266	16.159	-0.143	-0.115
-681.251	702.862	0.110	-0.297
-680.237	-111.688	0.214	0.044
-679.222	-200.000	0.019	-0.351
-678.208	110.065	0.251	-0.307
-677.193	-123.927	0.408	-0.066
-676.178	-59.177	0.086	0.038
-675.164	-200.000	-0.031	-0.192
-674.149	-200.000	0.010	-0.414
-673.135	766.207	-0.052	-0.144
-672.120	390.332	-0.092	-0.194
-671.105	444.301	0.020	0.044
-670.091	140.934	-0.136	0.183
-669.076	800.000	-0.055	-0.176
-668.062	25.699	0.257	-0.218
-667.047	-55.729	0.285	0.130
-666.032	800.000	0.036	0.111
-665.018	147.622	0.081	-0.112
-664.003	19.067	0.396	0.325
-662.989	800.000	0.137	-0.473
-661.974	-200.000	-0.006	0.145
-660.959	252.551	-0.219	0.381
-659.945	-81.201	-0.141	-0.047
-658.930	321.778	0.134	-0.259
-657.916	510.530	-0.201	-0.478
-656.901	231.165	0.018	0.030
-655.886	-154.213	-0.212	-0.015
-654.872	107.094	-0.206	-0.249
-653.857	7.159	0.244	-0.186
-652.843	-200.000	0.010	0.217
-651.828	188.065	-0.143	-0.218
-650.814	800.000	-0.138	-0.444
-649.799	-200.000	0.025	-0.175
-648.784	800.000	-0.056	-0.195
-647.770	-33.560	0.086	-0.049
-646.755	-37.912	0.355	0.192
-645.741	-200.000	-0.042	0.297
-644.726	-41.475	0.260	0.136
-643.711	-10.875	0.091	0.061
-642.697	-161.938	0.207	0.011
-641.682	-116.427	0.230	0.043
-640.668	-200.000	0.017	0.298
-639.653	175.239	-0.116	0.172
-638.638	-127.727	-0.072	-0.011
-637.624	-87.350	0.274	0.085
-636.609	24.310	-0.290	0.245
-635.595	554.181	0.173	0.424
-634.580	205.679	-0.104	-0.165
-633.565	436.992	0.073	-0.162
-632.551	241.239	0.067	-0.114
-631.536	126.961	-0.047	-0.060
-630.522	18.056	0.215	-0.175
-629.507	-200.000	0.019	-0.118
-628.492	22.553	-0.207	0.173
-627.478	124.521	0.114	-0.146
-626.463	-137.193	0.191	0.022
-625.449	-200.000	0.001	0.239
-624.434	-118.040	-0.241	-0.044
-623.419	472.783	-0.139	-0.318
-622.405	-200.000	0.031	-0.192
-621.390	-200.000	0.051	-0.342
-620.376	-90.160	-0.211	0.063
-619.361	-173.313	-0.509	0.016
-618.346	59.631	-0.182	0.183
-617.332	-57.139	-0.247	-0.111
-616.317	148.718	0.202	-0.278
-615.303	-11.313	-0.106	0.071
-614.288	-25.776	-0.216	-0.130
-613.273	-13.163	-0.259	-0.171
-612.259	-20.435	0.225	0.141
-611.244	-85.942	-0.175	-0.055
-610.230	-200.000	-0.028	-0.192
-609.215	708.752	0.079	-0.212
-608.201	-132.372	0.155	0.020
-607.186	78.596	0.177	0.192
-606.171	-45.261	0.056	-0.029
-605.157	364.737	-0.115	-0.235
-604.142	-183.999	0.106	-0.002
-603.128	427.534	-0.117	-0.258
-602.113	-90.790	0.153	-0.045
-601.098	800.000	-0.070	-0.224
-600.084	-125.930	-0.321	0.049
-599.069	-95.632	0.481	-0.131
-598.055	5.188	0.044	0.033
-597.040	116.689	0.196	-0.245
-596.025	176.410	-0.091	0.134
-595.011	12.381	0.145	-0.114
-593.996	-200.000	-0.001	-0.394
-592.982	59.778	0.206	0.207
-591.967	-200.000	-0.028	0.318
-590.952	-93.964	-0.209	0.059
-589.938	7.841	-0.241	-0.184
-588.923	689.309	0.082	-0.219
-587.909	800.000	-0.024	0.081
-586.894	800.000	-0.043	0.135
-585.879	206.549	-0.191	0.303
-584.865	-25.593	-0.027	-0.016
-583.850	-72.733	0.361	0.135
-582.836	180.060	0.115	0.172
-581.821	-200.000	-0.001	-0.117
-580.806	41.138	0.084	-0.078
-579.792	-73.994	0.165	-0.061
-578.777	35.620	0.188	-0.168
-577.763	800.000	-0.035	-0.131
-576.748	-200.000	0.016	-0.072
-575.733	333.865	0.028	0.056
-574.719	75.923	0.133	0.143
-573.704	-200.000	-0.010	-0.507
-572.690	800.000	0.026	0.104
-571.675	142.059	0.194	0.262
-570.661	-58.175	0.263	-0.117
-569.646	89.429	-0.068	0.077
-568.631	222.935	0.043	-0.070
-567.617	-78.562	0.160	0.056
-566.602	-119.204	-0.605	-0.107
-565.588	800.000	-0.024	0.077
-564.573	-123.021	0.186	-0.030
-563.558	-160.941	-0.402	0.021
-562.544	-92.223	0.348	0.100
-561.529	-30.224	0.085	0.049
-560.515	10.319	0.102	-0.079
-559.500	-165.437	0.394	-0.018
-558.485	129.614	-0.098	0.128
-557.471	-200.000	0.074	-0.372
-556.456	280.576	-0.038	0.068
-555.442	-64.455	0.372	0.154
-554.427	-200.000	-0.058	0.315
-553.412	-6.103	0.177	-0.123
-552.398	-167.476	-0.254	-0.010
-551.383	506.757	0.029	-0.069
-550.369	152.406	-0.037	0.052
-549.354	8.019	-0.050	0.038
-548.339	-160.946	-0.034	0.002
-547.325	-21.996	0.159	-0.098
-546.310	-144.471	-0.433	-0.041
-545.296	-200.000	-0.032	0.155
-544.281	591.563	-0.094	0.236
-543.266	11.993	0.365	0.285
-542.252	497.790	0.034	0.080
-541.237	800.000	0.005	0.017
-540.223	-155.954	0.150	0.010
-539.208	-200.000	0.009	-0.077
-538.193	-86.434	0.275	-0.086
-537.179	-163.517	-0.238	-0.011
-536.164	-137.214	-0.115	-0.013
-535.150	25.425	-0.227	0.192
-534.135	-200.000	-0.039	0.338
-533.121	-164.642	-0.287	0.013
-532.106	-137.939	-0.293	-0.033
-531.091	196.376	0.045	-0.070
-530.077	-77.102	-0.029	-0.010
-529.062	800.000	0.058	-0.236
-528.048	183.157	-0.024	-0.036
-527.033	17.258	0.201	-0.162
-526.018	69.304	-0.329	0.344
-525.004	-3.480	0.211	0.149
-523.989	-200.000	0.006	0.082
-522.975	-200.000	-0.009	-0.183
-521.960	-2.662	-0.163	0.116
-520.945	391.223	-0.080	0.169
-519.931	-200.000	0.007	0.213
-518.916	-83.056	-0.161	-0.053
-517.902	513.827	-0.056	0.132
-516.887	-20.891	0.138	0.086
-515.872	-58.279	0.124	-0.055
-514.858	-7.315	0.030	0.020
-513.843	57.535	-0.076	-0.075
-512.829	800.000	-0.075	-0.250
-511.814	-24.618	0.165	-0.100
-510.799	30.513	0.139	-0.121
-509.785	390.337	0.092	-0.193
-508.770	54.379	0.132	0.129
-507.756	185.658	-0.227	-0.342
-506.741	-45.658	-0.344	0.173
-505.726	-12.054	0.342	0.228
-504.712	16.249	-0.219	0.175
-503.697	27.258	-0.351	-0.299
-502.683	-150.499	-0.176	-0.014
-501.668	125.635	-0.203	0.260
-500.653	357.564	-0.079	-0.160
-499.639	-96.929	0.324	0.086
-498.624	513.737	0.166	-0.394
-497.610	-200.000	0.394	-0.001
-496.595	-200.000	0.001	0.089
-495.581	476.669	-0.193	-0.442
-494.566	-200.000	0.002	-0.268
-493.551	-124.404	-0.140	0.022
-492.537	-38.658	-0.118	0.063
-491.522	-53.832	0.237	0.110
-490.508	-200.000	-0.016	0.159
-489.493	32.163	-0.299	-0.261
-488.478	-114.933	-0.120	0.023
-487.464	155.825	-0.156	0.218
-486.449	-200.000	0.012	-0.181
-485.435	-200.000	0.011	-0.296
-484.420	-200.000	0.024	-0.342
-483.405	482.184	0.076	-0.175
-482.391	252.786	0.027	0.046
-481.376	42.538	-0.192	0.177
-480.362	-86.079	-0.228	-0.071
-479.347	-15.654	-0.283	-0.183
-478.332	-132.072	-0.205	0.027
-477.318	-27.145	-0.063	0.037
-476.303	-12.317	0.391	0.259
-475.289	260.886	0.161	-0.283
-474.274	-99.043	0.339	-0.087
-473.259	-31.428	-0.177	0.101
-472.245	-200.000	-0.032	-0.203
-471.230	115.911	0.207	-0.257
-470.216	124.258	-0.169	-0.215
-469.201	-200.000	0.070	-0.341
-468.186	-50.315	0.195	0.093
-467.172	-200.000	0.026	-0.132
-466.157	-169.150	0.530	-0.020
-465.143	-158.101	0.323	0.019
-464.128	-200.000	-0.032	0.244
-463.113	-200.000	-0.333	-0.000
-462.099	-86.367	-0.258	-0.080
-461.084	134.649	0.128	-0.168
-460.070	-92.149	0.088	0.025
-459.055	-93.822	0.040	0.011
-458.040	93.693	0.157	0.180
-457.026	-124.134	0.313	-0.050
-456.011	-121.956	0.117	0.020
-454.997	5.576	0.187	0.140
-453.982	-200.000	0.035	-0.176
-452.968	-111.161	0.260	0.054
-451.953	-159.597	-0.499	0.028
-450.938	184.373	0.080	0.120
-449.924	-200.000	-0.010	0.240
-448.909	96.138	-0.026	0.030
-447.895	-76.229	0.215	-0.077
-446.880	-33.475	-0.252	-0.141
-445.865	-29.469	-0.088	0.051
-444.851	-40.045	0.240	-0.127
-443.836	-17.938	-0.210	0.133
-442.822	97.792	-0.289	0.336
-441.807	-200.000	-0.005	0.027
-440.792	-200.000	-0.120	-0.000
-439.778	-51.445	0.180	-0.085
-438.763	397.486	-0.110	0.232
-437.749	89.796	0.086	-0.097
-436.734	-43.694	-0.165	-0.084
-435.719	-99.904	-0.182	0.046
-434.705	-200.000	0.041	-0.326
-433.690	-200.000	-0.018	-0.117
-432.676	8.343	-0.216	-0.164
-431.661	128.123	0.252	-0.325
-430.646	308.436	-0.116	-0.219
-429.632	-81.634	-0.495	0.164
-428.617	-85.565	-0.312	0.098
-427.603	388.307	0.057	0.120
-426.588	558.916	-0.044	0.108
-425.573	74.474	-0.122	-0.129
-424.559	-105.927	0.345	-0.079
-423.544	89.631	-0.194	0.219
-422.530	51.717	0.195	-0.187
-421.515	-132.037	0.127	0.017
-420.500	-111.317	-0.207	-0.043
-419.486	-151.299	0.132	-0.010
-418.471	-63.355	-0.083	0.035
-417.457	-132.530	-0.120	0.016
-416.442	-60.495	-0.188	0.081
-415.428	-54.683	0.174	0.079
-414.413	-88.886	0.085	-0.025
-413.398	-98.125	-0.330	0.086
-412.384	737.589	-0.032	0.088
-411.369	-200.000	-0.052	0.319
-410.355	265.822	0.019	-0.034
-409.340	-52.525	-0.251	0.117
-408.325	-30.605	-0.104	0.060
-407.311	-200.000	0.011	0.086
-406.296	-64.042	0.129	-0.053
-405.282	800.000	0.027	0.111
-404.267	-200.000	-0.026	-0.223
-403.252	49.298	0.104	-0.099
-402.238	124.884	0.072	-0.092
-401.223	-59.630	-0.147	-0.064
-400.209	142.243	-0.128	-0.171
-399.194	-200.000	0.026	-0.192
-398.179	-141.213	0.306	-0.032
-397.165	210.115	0.147	-0.233
-396.150	0.058	0.267	-0.192
-395.136	-200.000	0.012	-0.092
-394.121	-171.780	-0.083	-0.003
-393.106	312.796	-0.147	-0.279
-392.092	800.000	0.094	-0.264
-391.077	141.125	-0.171	-0.229
-390.063	-126.629	-0.128	-0.019
-389.048	-200.000	-0.007	-0.065
-388.033	-47.542	0.232	-0.114
-387.019	47.725	-0.452	0.426
-386.004	-181.938	-0.283	-0.005
-384.990	-56.932	-0.097	0.043
-383.975	-88.319	0.143	-0.043
-382.960	-21.152	-0.132	-0.081
-381.946	-49.668	0.146	0.070
-380.931	-200.000	-0.046	0.242
-379.917	-107.437	0.333	0.074
-378.902	-200.000	0.009	0.101
-377.888	-86.566	-0.335	0.104
-376.873	-62.485	0.337	-0.142
-375.858	345.308	-0.133	0.264
-374.844	168.053	0.209	0.300
-373.829	-40.131	0.207	0.109
-372.815	547.620	-0.056	-0.136
-371.800	754.647	0.042	0.116
-370.785	-182.907	-0.318	0.006
-369.771	728.122	0.086	-0.232
-368.756	800.000	0.029	0.095
-367.742	-7.443	0.167	-0.114
-366.727	-200.000	-0.057	-0.319
-365.712	59.254	0.070	0.069
-364.698	-8.099	-0.112	-0.076
-363.683	309.649	-0.082	0.154
-362.669	-200.000	-0.014	0.075
-361.654	50.471	-0.205	0.196
-360.639	89.851	0.131	-0.148
-359.625	-44.488	-0.179	-0.090
-358.610	21.372	-0.271	0.222
-357.596	-200.000	-0.008	0.043
-356.581	303.864	0.161	0.301
-355.566	68.354	0.299	0.309
-354.552	18.477	0.148	-0.120
-353.537	-28.685	0.154	-0.090
-352.523	-200.000	-0.007	-0.181
-351.508	106.337	0.096	0.114
-350.493	-129.532	0.092	0.013
-349.479	800.000	-0.086	0.275
-348.464	-200.000	0.107	0.594
-347.450	55.229	-0.056	0.054
-346.435	800.000	0.084	0.280
-345.420	-120.828	0.408	-0.069
-344.406	581.873	-0.070	-0.172
-343.391	-69.163	-0.137	-0.053
-342.377	247.801	-0.174	0.296
-341.362	85.785	-0.047	0.052
-340.348	2.191	0.411	-0.299
-339.333	312.799	0.143	-0.271
-338.318	-33.323	0.194	-0.108
-337.304	352.732	0.209	0.417
-336.289	-77.890	-0.120	0.042
-335.275	7.413	-0.136	0.102
-334.260	-200.000	-0.046	0.551
-333.245	-49.601	-0.452	0.217
-332.231	-95.536	0.101	-0.027
-331.216	32.524	-0.075	0.065
-330.202	-52.496	-0.296	-0.138
-329.187	187.922	-0.070	-0.106
-328.172	-134.931	0.522	0.064
-327.158	-10.077	0.106	-0.071
-326.143	514.110	0.026	-0.062
-325.129	-107.590	-0.564	0.124
-324.114	-91.245	0.138	-0.040
-323.099	19.523	0.372	-0.301
-322.085	57.403	0.158	0.155
-321.070	-200.000	-0.018	0.196
-320.056	-74.162	0.138	0.050
-319.041	-160.024	0.337	-0.018
-318.026	-200.000	0.014	-0.155
-317.012	204.835	-0.047	-0.074
-315.997	800.000	0.063	0.262
-314.983	44.690	0.146	-0.136
-313.968	800.000	-0.013	0.053
-312.953	108.254	0.163	0.196
-311.939	292.770	0.046	-0.084
-310.924	249.265	0.080	-0.137
-309.910	385.460	0.085	-0.177
-308.895	162.907	-0.132	0.187
-307.880	800.000	-0.065	-0.207
-306.866	800.000	-0.028	-0.081
-305.851	-51.921	0.153	0.071
-304.837	426.722	-0.043	0.094
-303.822	83.911	0.079	0.087
-302.807	800.000	-0.087	0.354
-301.793	66.860	-0.164	0.168
-300.778	166.431	0.225	0.322
-299.764	-133.914	0.184	0.023
-298.749	219.975	-0.155	-0.250
-297.735	144.257	0.143	-0.192
-296.720	-87.290	0.058	-0.018
-295.705	-200.000	0.019	0.331
-294.691	-65.145	0.038	-0.015
-293.676	-113.607	-0.248	-0.049
-292.662	132.484	0.089	-0.115
-291.647	-200.000	-0.003	0.148
-290.632	137.933	-0.262	0.346
-289.618	199.983	0.108	0.166
-288.603	325.627	-0.110	-0.213
-287.589	800.000	0.069	0.198
-286.574	-14.019	-0.103	-0.067
-285.559	-48.579	-0.301	-0.146
-284.545	-200.000	-0.036	0.208
-283.530	-57.080	0.192	0.085
-282.516	604.490	0.041	0.103
-281.501	18.130	-0.182	-0.146
-280.486	800.000	-0.065	-0.279
-279.472	336.241	-0.084	-0.164
-278.457	-200.000	-0.049	-0.482
-277.443	-200.000	0.015	-0.077
-276.428	154.157	0.132	-0.182
-275.413	-12.288	-0.344	-0.226
-274.399	34.287	-0.271	0.238
-273.384	-200.000	0.008	0.069
-272.370	1.665	0.352	0.255
-271.355	-175.375	-0.039	-0.001
-270.340	-146.645	0.225	0.020
-269.326	530.810	0.043	-0.102
-268.311	146.356	-0.246	0.332
-267.297	-200.000	0.011	-0.110
-266.282	395.004	-0.063	0.132
-265.267	756.683	-0.063	-0.171
-264.253	749.165	0.039	-0.105
-263.238	800.000	-0.058	0.184
-262.224	210.540	0.121	0.191
-261.209	650.096	-0.045	0.115
-260.195	-28.319	-0.336	-0.195
-259.180	800.000	0.008	-0.035
-258.165	39.920	0.500	-0.452
-257.151	261.166	-0.105	-0.183
-256.136	-102.697	-0.222	-0.053
-255.122	-200.000	0.041	-0.301
-254.107	-200.000	0.005	0.517
-253.092	-11.420	-0.408	0.270
-252.078	-88.021	-0.236	0.071
-251.063	-200.000	-0.001	0.247
-250.049	-184.603	0.562	0.009
-249.034	361.500	-0.104	-0.209
-248.019	-147.186	0.387	-0.033
-247.005	800.000	-0.081	0.327
-245.990	800.000	-0.068	0.236
-244.976	5.135	0.210	-0.155
-243.961	301.565	-0.149	-0.277
-242.946	-3.858	-0.286	0.200
-241.932	147.892	-0.064	0.087
-240.917	124.616	0.254	0.321
-239.903	-51.414	0.306	-0.144
-238.888	33.859	0.074	0.065
-237.873	800.000	-0.063	0.219
-236.859	124.406	0.151	0.191
-235.844	-104.302	0.229	0.053
-234.830	-191.769	0.207	0.002
-233.815	239.825	-0.129	0.215
-232.800	-91.642	-0.220	-0.063
-231.786	206.855	-0.202	-0.316
-230.771	-150.745	0.737	-0.056
-229.757	27.688	-0.220	-0.186
-228.742	800.000	-0.019	-0.073
-227.727	-111.342	0.169	0.035
-226.713	-97.669	-0.189	-0.049
-225.698	800.000	0.080	0.252
-224.684	800.000	-0.016	-0.063
-223.669	-200.000	0.009	0.090
-222.655	-21.964	0.112	0.068
-221.640	-99.716	0.052	-0.013
-220.625	256.214	-0.190	-0.327
-219.611	26.942	-0.322	-0.271
-218.596	800.000	0.069	-0.278
-217.582	800.000	-0.057	0.243
-216.567	-141.328	0.263	0.027
-215.552	-200.000	0.092	-0.496
-214.538	31.951	0.151	-0.130
-213.523	29.960	0.300	0.257
-212.509	-200.000	0.012	-0.062
-211.494	-200.000	-0.012	-0.266
-210.479	-13.643	-0.138	0.089
-209.465	95.944	0.057	-0.066
-208.450	-138.671	-0.384	-0.042
-207.436	-85.119	0.153	0.048
-206.421	35.049	-0.177	-0.155
-205.406	800.000	-0.127	0.362
-204.392	-31.009	-0.255	0.144
-203.377	504.357	-0.087	-0.202
-202.363	-200.000	-0.026	0.245
-201.348	-200.000	0.016	0.095
-200.333	-84.516	-0.364	0.115
-199.319	800.000	-0.049	0.174
-198.304	480.588	0.119	-0.271
-197.290	800.000	-0.022	-0.076
-196.275	-200.000	-0.014	-0.080
-195.260	-74.280	0.149	-0.054
-194.246	-200.000	0.049	-0.270
-193.231	-103.615	-0.094	0.022
-192.217	-200.000	-0.001	0.102
-191.202	-135.044	0.090	0.011
-190.187	800.000	-0.026	-0.076
-189.173	-23.207	-0.232	0.140
-188.158	651.657	-0.136	0.350
-187.144	206.760	0.220	0.344
-186.129	-200.000	-0.021	0.184
-185.114	800.000	-0.057	-0.210
-184.100	-200.000	-0.009	0.199
-183.085	188.626	-0.225	0.338
-182.071	-72.419	0.204	-0.076
-181.056	330.853	0.020	0.038
-180.042	453.024	-0.075	-0.167
-179.027	64.279	-0.200	-0.202
-178.012	17.898	0.069	-0.055
-176.998	-145.346	0.189	0.017
-175.983	-200.000	-0.005	-0.034
-174.969	169.152	-0.198	0.283
-173.954	-109.620	-0.245	-0.052
-172.939	-108.647	0.043	-0.009
-171.925	-58.669	0.229	-0.099
-170.910	140.439	0.172	0.228
-169.896	-108.887	-0.420	0.090
-168.881	-62.684	-0.253	0.105
-167.866	-135.492	-0.261	0.031
-166.852	26.988	-0.294	0.247
-165.837	-200.000	-0.004	-0.022
-164.823	151.223	0.214	0.291
-163.808	-34.430	0.347	-0.190
-162.793	-169.350	-0.179	0.007
-161.779	-42.016	0.267	-0.137
-160.764	800.000	-0.089	-0.371
-159.750	-31.982	0.188	-0.106
-158.735	445.590	-0.091	-0.200
-157.720	-140.477	0.089	0.009
-156.706	29.111	-0.175	0.148
-155.691	-194.815	-0.130	0.001
-154.677	800.000	-0.049	-0.136
-153.662	800.000	0.026	-0.107
-152.647	29.595	0.198	-0.168
-151.633	-137.584	-0.118	0.013
-150.618	-47.316	0.117	-0.057
-149.604	-68.595	-0.183	-0.071
-148.589	-112.894	0.226	0.045
-147.574	-43.249	0.120	-0.061
-146.560	-60.687	-0.044	-0.018
-145.545	500.393	-0.076	0.176
-144.531	96.709	-0.094	-0.108
-143.516	15.757	-0.224	0.176
-142.502	-9.950	0.284	0.189
-141.487	800.000	-0.130	-0.453
-140.472	-114.114	0.171	0.033
-139.458	1.300	-0.071	0.051
-138.443	43.352	-0.059	0.054
-137.429	-53.135	0.288	0.132
-136.414	57.547	-0.022	0.021
-135.399	49.952	0.112	-0.106
-134.385	486.054	0.149	0.340
-133.370	76.097	0.219	-0.232
-132.356	-118.632	-0.276	-0.049
-131.341	-165.605	-0.240	-0.010
-130.326	-200.000	-0.135	0.001
-129.312	237.177	0.139	-0.230
-128.297	-123.460	0.099	0.016
-127.283	582.605	-0.241	-0.591
-126.268	53.800	-0.144	0.138
-125.253	-200.000	-0.003	0.063
-124.239	-24.457	-0.138	-0.082
-123.224	-171.589	0.180	-0.006
-122.210	100.176	0.042	-0.049
-121.195	-99.758	-0.106	0.027
-120.180	-200.000	-0.012	-0.201
-119.166	-200.000	0.008	-0.301
-118.151	14.854	0.165	0.129
-117.137	-121.426	-0.079	-0.013
-116.122	-5.689	0.040	0.027
-115.107	-46.727	0.052	-0.026
-114.093	52.954	0.090	-0.086
-113.078	79.598	-0.171	0.184
-112.064	608.955	0.059	-0.148
-111.049	-200.000	-0.002	0.092
-110.034	29.918	-0.044	0.038
-109.020	215.379	0.057	0.091
-108.005	-29.747	-0.130	-0.074
-106.991	-130.151	-0.095	-0.013
-105.976	23.073	0.148	-0.121
-104.962	800.000	0.054	0.216
-103.947	79.380	0.106	0.114
-102.932	-83.037	0.152	-0.049
-101.918	535.501	0.183	-0.433
-100.903	-120.502	-0.060	-0.010
-99.889	28.325	-0.081	0.068
-98.874	82.543	0.289	0.314
-97.859	-119.278	0.492	0.086
-96.845	46.228	-0.219	-0.202
-95.830	-98.901	-0.008	0.002
-94.816	-200.000	-0.034	-0.192
-93.801	74.867	0.142	0.149
-92.786	-200.000	-0.027	-0.306
-91.772	38.617	0.126	-0.112
-90.757	150.258	0.106	0.144
-89.743	-200.000	0.011	0.150
-88.728	121.751	-0.095	0.118
-87.713	-200.000	0.018	-0.206
-86.699	160.114	0.184	0.256
-85.684	-146.240	-0.060	0.005
-84.670	-159.709	0.062	-0.003
-83.655	-127.613	-0.081	-0.012
-82.640	-34.569	0.301	0.165
-81.626	800.000	0.006	-0.020
-80.611	-200.000	0.001	0.140
-79.597	484.313	0.064	0.146
-78.582	-52.578	-0.144	-0.066
-77.567	-33.526	-0.145	0.080
-76.553	-105.032	0.336	-0.077
-75.538	-139.659	0.196	0.021
-74.524	304.112	0.186	0.344
-73.509	-8.454	-0.144	0.096
-72.494	-73.981	-0.115	-0.042
-71.480	98.451	0.271	-0.312
-70.465	-106.406	0.488	0.109
-69.451	-161.838	0.227	-0.012
-68.436	3.666	0.186	-0.136
-67.422	-108.677	-0.054	0.011
-66.407	-43.127	0.129	-0.065
-65.392	9.209	-0.250	0.189
-64.378	800.000	-0.058	0.214
-63.363	-200.000	-0.016	-0.141
-62.349	-5.237	0.312	-0.214
-61.334	38.709	-0.681	-0.606
-60.319	-23.390	0.265	0.159
-59.305	800.000	-0.156	-0.680
-58.290	800.000	0.160	0.653
-57.276	465.992	0.779	1.739
-56.261	-200.000	77.152	520.450
-55.246	581.915	1356.303	3316.659
-54.232	180.281	2590.238	3788.120
-53.217	124.482	2260.563	2835.232
-52.203	50.118	1784.978	1680.016
-51.188	42.972	1584.483	1440.396
-50.173	40.289	1554.986	1394.660
-49.159	56.530	1592.637	1544.224
-48.144	61.804	1612.096	1600.516
-47.130	43.452	1575.859	1435.741
-46.115	39.966	1561.438	1397.937
-45.100	39.787	1557.797	1393.357
-44.086	39.719	1555.841	1391.072
-43.071	39.671	1553.686	1388.750
-42.057	39.671	1551.642	1386.868
-41.042	39.673	1550.121	1385.471
-40.027	39.531	1548.975	1383.394
-39.013	39.600	1547.156	1382.197
-37.998	39.603	1545.630	1380.801
-36.984	39.556	1544.824	1379.697
-35.969	39.618	1543.496	1378.894
-34.954	39.755	1542.038	1378.489
-33.940	39.669	1540.563	1376.516
-32.925	39.630	1539.141	1374.923
-31.911	39.679	1537.804	1374.010
-30.896	39.716	1536.085	1372.681
-29.881	39.726	1535.688	1372.339
-28.867	39.699	1533.947	1370.540
-27.852	39.651	1532.741	1369.076
-26.838	39.692	1531.098	1367.839
-25.823	39.858	1528.629	1366.730
-24.809	39.637	1528.133	1364.698
-23.794	39.640	1526.486	1363.196
-22.779	39.615	1524.993	1361.639
-21.765	39.701	1524.069	1361.353
-20.750	39.717	1522.352	1359.876
-19.736	39.652	1521.571	1358.677
-18.721	39.631	1520.196	1357.250
-17.706	39.562	1519.242	1355.868
-16.692	39.621	1518.274	1355.357
-15.677	39.661	1516.908	1354.355
-14.663	39.554	1516.332	1353.053
-13.648	39.610	1514.746	1351.970
-12.633	39.611	1514.306	1351.531
-11.619	39.631	1513.176	1350.606
-10.604	39.561	1512.270	1349.264
-9.590	39.541	1511.643	1348.513
-8.575	39.543	1510.258	1347.235
-7.560	39.516	1509.627	1346.441
-6.546	39.570	1508.671	1345.901
-5.531	39.477	1508.040	1344.647
-4.517	39.459	1507.096	1343.628
-3.502	39.473	1506.242	1342.913
-2.487	39.563	1504.494	1341.912
-1.473	39.598	1503.698	1341.385
-0.458	39.604	1502.499	1340.306
0.556	38.109	1493.870	1331.660
1.571	35.661	1467.317	1291.451
2.586	32.162	1401.585	1210.978
3.600	29.768	1315.727	1122.190
4.615	27.627	1266.136	1067.278
5.629	23.734	1208.327	996.664
6.644	14.263	1118.736	873.237
7.659	6.312	1073.093	797.391
8.673	5.090	1066.587	786.333
9.688	4.858	1063.448	782.779
10.702	4.755	1061.807	780.986
11.717	4.738	1060.505	779.873
12.731	8.015	1064.534	799.230
13.746	16.505	1076.432	850.993
14.761	20.299	1080.925	873.609
15.775	18.372	1077.324	860.944
16.790	16.999	1074.185	851.473
17.804	15.913	1071.637	843.940
18.819	14.890	1070.020	837.469
19.834	14.492	1068.362	834.105
20.848	14.262	1067.186	831.963
21.863	13.872	1066.838	829.670
22.877	13.505	1066.252	827.307
23.892	13.514	1064.828	826.174
24.907	13.395	1064.266	825.072
25.921	13.446	1063.557	824.704
26.936	13.398	1062.670	823.707
27.950	13.527	1061.495	823.364
28.965	13.545	1060.481	822.590
29.980	13.614	1059.312	821.955
30.994	13.731	1058.027	821.466
32.009	13.711	1057.474	820.865
33.023	13.764	1056.702	820.455
34.038	13.785	1056.202	820.096
35.053	13.646	1055.073	818.463
36.067	13.618	1053.980	817.401
37.082	13.506	1053.321	816.270
38.096	13.691	1051.903	816.006
39.111	13.738	1051.767	816.061
40.126	13.726	1050.535	814.975
41.140	13.559	1049.477	813.261
42.155	13.543	1048.243	812.156
43.169	13.482	1047.259	811.022
44.184	13.375	1046.613	809.924
45.199	13.289	1045.547	808.607
46.213	13.228	1044.415	807.361
47.228	13.386	1043.214	807.135
48.242	13.574	1042.028	807.060
49.257	13.508	1041.816	806.506
50.271	13.586	1040.459	805.760
51.286	13.450	1039.947	804.635
52.301	13.482	1039.076	804.045
53.315	13.547	1038.184	803.597
54.330	13.449	1037.568	802.576
55.344	13.453	1036.381	801.605
56.359	13.435	1035.039	800.406
57.374	13.488	1033.941	799.743
58.388	13.408	1033.669	799.076
59.403	13.378	1032.602	798.035
60.417	13.378	1031.623	797.209
61.432	13.397	1030.903	796.674
62.447	13.372	1030.696	796.322
63.461	13.346	1029.580	795.267
64.476	13.201	1028.839	793.928
65.490	13.169	1028.160	793.176
66.505	13.308	1026.767	792.699
67.520	13.254	1026.232	791.959
68.534	13.299	1025.242	791.339
69.549	13.318	1024.597	790.861
70.563	13.493	1023.702	790.936
71.578	13.440	1023.311	790.314
72.593	13.284	1022.358	788.764
73.607	13.137	1021.523	787.348
74.622	13.105	1020.757	786.536
75.636	13.221	1019.165	785.791
76.651	13.174	1018.837	785.243
77.666	13.097	1018.386	784.462
78.680	13.242	1017.197	784.163
79.695	13.258	1016.583	783.699
80.709	13.317	1016.193	783.608
81.724	13.382	1015.025	782.947
82.739	13.405	1014.390	782.495
83.753	13.379	1014.043	782.036
84.768	13.598	1012.637	781.914
85.782	13.551	1012.704	781.676
86.797	13.620	1011.917	781.324
87.812	13.703	1010.170	780.297
88.826	13.556	1009.931	779.354
89.841	13.494	1008.985	778.263
90.855	13.611	1008.174	778.116
91.870	13.660	1007.684	777.898
92.884	13.634	1007.165	777.308
93.899	13.601	1006.661	776.695
94.914	13.717	1005.030	775.912
95.928	13.643	1004.826	775.338
96.943	13.674	1003.905	774.705
97.957	13.604	1003.056	773.653
98.972	13.719	1002.183	773.448
99.987	13.611	1001.568	772.402
101.001	13.585	1000.713	771.553
102.016	13.694	1000.212	771.605
103.030	13.586	999.105	770.180
104.045	13.539	998.380	769.337
105.060	13.513	997.459	768.438
106.074	13.592	996.217	767.779
107.089	13.583	995.329	766.983
108.103	13.457	994.271	765.520
109.118	13.442	993.373	764.691
110.133	13.423	992.647	763.978
111.147	13.318	991.858	762.818
112.162	13.366	990.607	762.008
113.176	13.356	990.102	761.506
114.191	13.420	989.375	761.176
115.206	13.530	988.500	760.939
116.220	13.425	987.842	759.886
117.235	13.452	986.774	759.118
118.249	13.494	985.854	758.535
119.264	13.402	985.120	757.483
120.279	13.440	984.266	756.931
121.293	13.405	983.645	756.228
122.308	13.322	982.840	755.165
123.322	13.446	981.674	754.769
124.337	13.254	980.815	753.167
125.352	13.335	979.833	752.711
126.366	13.303	978.789	751.700
127.381	13.382	977.379	750.907
128.395	13.242	976.804	749.766
129.410	13.431	975.619	749.647
130.424	13.506	974.659	749.182
131.439	13.498	974.260	748.770
132.454	13.461	973.320	747.816
133.468	13.585	972.093	747.367
134.483	13.604	971.309	746.785
135.497	13.590	971.237	746.597
136.512	13.590	970.367	745.865
137.527	13.437	969.716	744.610
138.541	13.525	968.432	743.954
139.556	13.475	968.260	743.531
140.570	13.405	967.472	742.545
141.585	13.443	966.649	742.020
142.600	13.740	965.968	742.758
143.614	13.720	965.286	742.080
144.629	13.724	964.399	741.350
145.643	13.721	963.679	740.716
146.658	13.807	962.405	740.056
147.673	13.752	961.675	739.187
148.687	13.512	960.662	737.275
149.702	13.704	959.742	737.357
150.716	13.574	958.943	736.099
151.731	13.481	958.146	735.008
152.746	13.597	957.515	734.972
153.760	13.578	956.680	734.184
154.775	13.495	956.146	733.340
155.789	13.647	955.239	733.252
156.804	13.633	954.226	732.351
157.819	13.791	953.270	732.248
158.833	13.735	953.012	731.740
159.848	13.658	952.801	731.173
160.862	13.823	951.824	731.083
161.877	13.895	950.875	730.606
162.892	13.737	949.836	729.048
163.906	13.735	949.190	728.482
164.921	13.583	948.604	727.302
165.935	13.654	947.466	726.673
166.950	13.688	946.340	725.895
167.964	13.627	945.808	725.157
168.979	13.634	945.020	724.517
169.994	13.754	943.609	723.896
171.008	13.684	942.451	722.640
172.023	13.606	942.274	722.100
173.037	13.727	941.411	721.902
174.052	13.825	940.616	721.653
175.067	13.780	939.934	720.871
176.081	13.757	939.202	720.144
177.096	13.808	937.897	719.301
178.110	13.720	937.304	718.402
179.125	13.697	936.558	717.670
180.140	13.620	936.207	717.003
181.154	13.664	935.748	716.778
182.169	13.808	934.738	716.561
183.183	13.837	934.111	716.142
184.198	13.840	933.180	715.381
185.213	13.938	932.492	715.210
186.227	13.964	931.795	714.725
187.242	14.034	931.332	714.606
188.256	13.934	930.990	713.852
189.271	14.091	929.950	713.664
190.286	14.121	929.376	713.288
191.300	14.129	928.286	712.424
192.315	13.743	927.803	710.339
193.329	13.590	926.989	708.998
194.344	13.706	926.304	708.905
195.359	13.725	925.792	708.532
196.373	13.892	925.200	708.730
197.388	14.000	924.691	708.738
198.402	14.082	924.293	708.718
199.417	14.020	924.048	708.206
200.432	14.246	923.356	708.573
201.446	14.137	922.896	707.693
202.461	14.235	922.674	707.881
203.475	14.292	921.995	707.540
204.490	14.269	921.070	706.667
205.504	14.202	920.390	705.800
206.519	14.144	919.472	704.785
207.534	14.083	919.058	704.148
208.548	14.071	917.934	703.175
209.563	14.191	917.581	703.351
210.577	14.092	916.966	702.397
211.592	14.188	916.236	702.182
212.607	14.403	915.596	702.536
213.621	14.383	914.736	701.730
214.636	14.322	914.210	701.006
215.650	14.233	913.676	700.163
216.665	14.251	912.928	699.603
217.680	14.379	912.552	699.788
218.694	14.384	911.961	699.297
219.709	14.334	911.781	698.884
220.723	14.388	910.875	698.356
221.738	14.520	910.061	698.221
222.753	14.456	909.213	697.240
223.767	14.522	908.782	697.125
224.782	14.376	908.266	696.060
225.796	14.482	907.353	695.739
226.811	14.560	906.463	695.319
227.826	14.575	905.653	694.702
228.840	14.582	905.121	694.260
229.855	14.424	904.539	693.093
230.869	14.480	904.087	692.918
231.884	14.392	903.410	691.972
232.899	14.427	902.605	691.440
233.913	14.344	901.911	690.503
234.928	14.520	900.807	690.328
235.942	14.440	900.105	689.397
236.957	14.437	899.603	688.937
237.972	14.472	898.824	688.425
238.986	14.472	898.090	687.802
240.001	14.492	897.866	687.653
241.015	14.574	897.029	687.289
242.030	14.575	896.352	686.714
243.045	14.513	895.970	686.104
244.059	14.589	895.430	685.942
245.074	14.570	894.400	685.015
246.088	14.487	893.892	684.227
247.103	14.799	893.115	684.850
248.117	14.648	892.886	683.994
249.132	14.744	892.396	683.953
250.147	14.712	891.891	683.375
251.161	14.899	890.884	683.303
252.176	14.905	890.577	683.034
253.190	15.074	889.594	682.908
254.205	14.946	889.281	682.087
255.220	15.133	888.619	682.279
256.234	15.113	888.023	681.680
257.249	15.198	887.031	681.206
258.263	15.014	886.711	680.151
259.278	15.044	886.385	679.963
260.293	15.034	885.600	679.259
261.307	15.164	885.215	679.431
262.322	15.184	884.910	679.219
263.336	15.245	884.199	678.861
264.351	15.146	883.501	677.862
265.366	15.249	882.601	677.529
266.380	15.284	882.079	677.210
267.395	15.385	881.131	676.828
268.409	15.249	880.731	675.912
269.424	15.201	879.736	674.895
270.439	15.374	879.050	675.006
271.453	15.295	878.396	674.126
272.468	15.173	877.595	672.962
273.482	15.267	876.967	672.799
274.497	15.262	876.393	672.280
275.512	15.230	875.970	671.768
276.526	15.185	874.914	670.719
277.541	15.160	874.171	669.987
278.555	15.303	873.622	670.079
279.570	15.382	873.301	670.089
280.585	15.557	872.830	670.366
281.599	15.481	872.236	669.548
282.614	15.420	871.384	668.592
283.628	15.429	870.986	668.266
284.643	15.226	870.729	667.200
285.657	15.322	869.842	666.843
286.672	15.353	869.535	666.670
287.687	15.298	869.014	665.997
288.701	15.355	868.242	665.572
289.716	15.480	867.319	665.302
290.730	15.438	866.978	664.814
291.745	15.602	866.558	665.081
292.760	15.478	866.132	664.204
293.774	15.420	865.310	663.286
294.789	15.693	864.676	663.817
295.803	15.660	863.889	663.027
296.818	15.523	863.529	662.152
297.833	15.611	862.739	661.833
298.847	15.506	862.416	661.116
299.862	15.620	861.355	660.692
300.876	15.544	860.773	659.886
301.891	15.618	860.208	659.687
302.906	15.801	859.526	659.824
303.920	15.737	858.732	658.903
304.935	15.918	857.910	658.924
305.949	15.821	857.660	658.295
306.964	15.943	856.971	658.184
307.979	15.790	856.508	657.171
308.993	15.780	855.995	656.679
310.008	15.833	855.265	656.271
311.022	15.894	854.761	656.062
312.037	15.930	854.239	655.744
313.052	15.968	853.544	655.299
314.066	15.921	853.093	654.713
315.081	15.831	852.380	653.758
316.095	15.712	851.799	652.791
317.110	15.798	851.295	652.684
318.125	15.699	850.966	651.990
319.139	15.806	850.359	651.880
320.154	15.752	849.893	651.255
321.168	15.754	849.263	650.722
322.183	15.900	848.697	650.796
323.197	15.799	848.080	649.875
324.212	15.926	847.495	649.861
325.227	15.747	847.127	648.828
326.241	15.936	846.221	648.809
327.256	15.896	845.785	648.263
328.270	15.946	845.249	647.986
329.285	15.813	844.870	647.128
330.300	15.964	843.945	646.941
331.314	15.890	843.529	646.280
332.329	15.938	843.019	646.018
333.343	15.910	842.317	645.314
334.358	15.964	841.777	645.050
335.373	16.056	841.193	644.897
336.387	16.128	840.682	644.723
337.402	16.063	840.354	644.167
338.416	16.080	839.771	643.727
339.431	16.188	839.007	643.495
340.446	16.261	838.388	643.244
341.460	16.287	837.959	642.957
342.475	16.359	837.521	642.838
343.489	16.389	836.769	642.317
344.504	16.444	836.308	642.116
345.519	16.375	835.802	641.409
346.533	16.612	835.029	641.660
347.548	16.414	835.002	640.829
348.562	16.379	834.327	640.124
349.577	16.342	833.932	639.624
350.592	16.364	833.056	638.976
351.606	16.394	832.401	638.530
352.621	16.282	831.927	637.689
353.635	16.336	831.443	637.464
354.650	16.245	831.711	637.269
355.665	16.313	830.946	636.884
356.679	16.429	830.412	636.856
357.694	16.516	829.609	636.510
358.708	16.391	829.295	635.745
359.723	16.444	828.545	635.311
360.738	16.313	828.598	634.805
361.752	16.522	827.725	634.862
362.767	16.415	827.388	634.146
363.781	16.440	826.824	633.754
364.796	16.599	826.493	634.037
365.810	16.590	826.071	633.624
366.825	16.786	825.386	633.778
367.840	16.806	825.176	633.634
368.854	16.792	824.871	633.290
369.869	16.668	824.388	632.402
370.883	16.707	823.701	631.963
371.898	16.683	822.944	631.237
372.913	16.715	822.530	630.984
373.927	16.848	822.086	631.083
374.942	16.870	821.165	630.403
375.956	16.788	820.373	629.434
376.971	16.902	820.001	629.514
377.986	16.988	819.411	629.326
379.000	16.918	819.163	628.822
380.015	16.863	818.760	628.252
381.029	16.945	818.109	628.000
382.044	16.945	817.223	627.265
383.059	16.984	816.861	627.076
384.073	16.897	816.514	626.433
385.088	16.998	815.807	626.205
386.102	17.063	814.998	625.771
387.117	16.898	814.622	624.817
388.132	16.895	814.033	624.300
389.146	16.882	813.641	623.894
390.161	16.953	813.675	624.127
391.175	16.855	813.391	623.493
392.190	16.944	812.783	623.300
393.205	17.077	812.216	623.298
394.219	17.069	811.751	622.857
395.234	16.999	811.236	622.149
396.248	17.042	810.633	621.792
397.263	16.940	810.026	620.897
398.278	16.838	809.864	620.345
399.292	16.715	809.965	619.915
400.307	16.832	809.078	619.611
401.321	16.935	808.534	619.516
402.336	16.998	808.158	619.400
403.350	17.089	807.675	619.310
404.365	16.822	807.567	618.197
405.380	17.211	806.670	618.872
406.394	17.040	806.497	618.062
407.409	17.230	805.953	618.282
408.423	17.341	805.368	618.184
409.438	17.223	805.055	617.458
410.453	17.373	804.560	617.568
411.467	17.419	804.153	617.371
412.482	17.163	803.904	616.195
413.496	17.345	803.468	616.466
414.511	17.451	802.774	616.263
415.526	17.372	802.955	616.063
416.540	17.476	802.412	615.968
417.555	17.342	802.017	615.123
418.569	17.486	801.428	615.137
419.584	17.433	800.958	614.532
420.599	17.555	799.936	614.132
421.613	142.594	1356.659	1740.196
422.628	123.343	1437.817	1740.306
