DTS Sentinel unit serial number:	SN413079Multiplexer serial number:	ORYXHardware model number:	OX4-SRSoftware version number:	ORYX F/W v4.00 Oryx Data Collector v3.7.2.0data status	okinstallation	princeton_trtdifferential loss correction	single-endedforward channel	channel 3reverse channel	N/Adate	2019/09/16time	16:28:35forward acquisition time	60.00reverse acquisition time	0.00gamma	496.2192k internal	0.2294k external	0.2294temperature offset calibration	0.9945default loss term (dB/km)	0.3790temperature slope calibration	1.0000multiplexer offset coefficient	1.0000multiplexer slope coefficient	1.0000fibre end	0.00T internal ref (°C)	40.25T ext. ref 1 (°C)	15.08T ext. ref 2 (°C)	33.99length (m)	temperature (°C)	Stokes	anti-Stokes-747.200	-115.437	0.059	-0.011
-746.185	-144.596	-0.338	0.032
-745.171	-95.045	0.159	0.044
-744.156	-115.722	-0.125	-0.024
-743.142	-95.536	0.152	0.042
-742.127	-200.000	0.033	0.164
-741.112	-52.610	-0.422	0.199
-740.098	800.000	-0.163	0.543
-739.083	431.065	0.062	0.137
-738.069	14.828	-0.051	0.041
-737.054	-33.248	-0.305	0.173
-736.039	800.000	-0.035	0.121
-735.025	42.375	0.176	0.163
-734.010	485.556	0.188	-0.438
-732.996	-26.198	-0.099	-0.060
-731.981	189.253	0.112	0.172
-730.966	-151.559	-0.173	0.013
-729.952	277.133	-0.062	0.113
-728.937	-200.000	-0.042	-0.402
-727.923	-5.487	-0.096	-0.067
-726.908	4.333	-0.206	0.155
-725.894	-66.035	-0.227	-0.092
-724.879	39.029	0.066	0.061
-723.864	19.382	-0.043	-0.035
-722.850	72.258	0.092	-0.098
-721.835	-5.648	0.194	-0.136
-720.821	334.023	0.094	0.185
-719.806	-193.912	-0.158	-0.001
-718.791	32.125	0.226	-0.199
-717.777	-200.000	-0.003	-0.239
-716.762	-200.000	0.028	-0.132
-715.748	78.588	-0.295	-0.322
-714.733	800.000	0.104	0.317
-713.718	-200.000	0.015	0.205
-712.704	518.273	0.112	-0.268
-711.689	405.758	0.017	-0.038
-710.675	27.640	-0.207	0.178
-709.660	-120.061	-0.308	-0.054
-708.645	-55.919	0.315	-0.144
-707.631	-41.346	0.061	0.032
-706.616	498.489	0.029	0.068
-705.602	-200.000	-0.008	-0.041
-704.587	503.448	0.197	-0.465
-703.572	194.020	0.121	-0.187
-702.558	222.706	0.063	-0.104
-701.543	-69.042	0.083	-0.033
-700.529	-31.363	-0.076	0.044
-699.514	48.816	0.174	-0.166
-698.499	348.910	-0.066	-0.133
-697.485	513.540	-0.084	0.200
-696.470	258.151	0.058	0.103
-695.456	229.456	-0.077	-0.128
-694.441	-200.000	-0.064	-0.297
-693.426	3.508	0.163	0.121
-692.412	-200.000	-0.026	-0.185
-691.397	-102.922	-0.058	0.014
-690.383	800.000	0.048	-0.213
-689.368	54.422	-0.032	0.031
-688.354	345.725	0.126	0.254
-687.339	211.696	0.126	0.202
-686.324	800.000	0.020	0.061
-685.310	220.503	0.070	-0.114
-684.295	153.651	-0.140	0.195
-683.281	768.398	-0.031	0.086
-682.266	630.510	-0.115	-0.296
-681.251	41.699	-0.177	-0.164
-680.237	754.412	0.210	-0.580
-679.222	-200.000	-0.021	-0.153
-678.208	-186.244	-0.262	0.004
-677.193	282.805	-0.105	-0.192
-676.178	10.618	-0.228	0.178
-675.164	262.377	0.067	0.118
-674.149	800.000	0.050	0.140
-673.135	82.774	-0.035	-0.039
-672.120	432.159	-0.086	-0.190
-671.105	-67.125	-0.134	0.054
-670.091	-200.000	0.015	-0.130
-669.076	-58.264	-0.041	-0.018
-668.062	784.425	0.055	0.154
-667.047	372.630	0.095	0.197
-666.032	-52.917	0.174	-0.082
-665.018	-100.017	-0.285	-0.072
-664.003	255.630	0.108	0.190
-662.989	800.000	0.062	-0.222
-661.974	-149.267	-0.399	-0.032
-660.959	32.175	0.323	-0.284
-659.945	-1.540	0.050	-0.036
-658.930	176.364	-0.216	0.319
-657.916	-105.836	0.157	0.036
-656.901	-87.086	0.182	-0.057
-655.886	200.111	-0.165	-0.258
-654.872	-195.889	-0.142	0.001
-653.857	-134.582	-0.198	0.025
-652.843	-165.842	0.200	-0.009
-651.828	-154.267	-0.352	0.024
-650.814	-68.817	-0.156	0.061
-649.799	4.026	-0.309	-0.230
-648.784	-120.661	-0.411	0.071
-647.770	-87.604	-0.217	0.067
-646.755	19.286	0.176	0.144
-645.741	-12.020	-0.385	0.257
-644.726	110.205	-0.069	0.085
-643.711	68.985	-0.072	-0.076
-642.697	12.279	0.171	0.134
-641.682	-200.000	0.047	-0.260
-640.668	-20.302	0.167	-0.105
-639.653	-66.532	-0.108	0.044
-638.638	-16.463	-0.133	0.086
-637.624	-165.083	0.141	-0.006
-636.609	-16.228	0.373	0.241
-635.595	-32.428	-0.113	-0.064
-634.580	800.000	-0.026	0.115
-633.565	461.311	0.054	-0.123
-632.551	-7.708	-0.258	-0.177
-631.536	-200.000	0.054	-0.359
-630.522	-200.000	-0.002	-0.199
-629.507	169.572	0.234	0.340
-628.492	179.587	-0.142	0.212
-627.478	60.214	0.118	0.118
-626.463	-200.000	-0.051	-0.325
-625.449	-41.165	0.041	-0.021
-624.434	11.216	-0.070	-0.055
-623.419	19.906	0.279	-0.229
-622.405	-34.496	-0.137	0.076
-621.390	-76.425	-0.384	0.138
-620.376	95.066	-0.039	-0.045
-619.361	0.461	0.337	0.245
-618.346	-14.589	-0.063	-0.041
-617.332	218.479	-0.118	-0.192
-616.317	-200.000	0.017	0.292
-615.303	-200.000	-0.019	-0.123
-614.288	-99.485	-0.227	-0.058
-613.273	-200.000	-0.016	-0.206
-612.259	78.171	-0.053	0.057
-611.244	329.899	0.069	-0.135
-610.230	2.383	-0.316	-0.233
-609.215	-200.000	-0.007	-0.230
-608.201	-54.609	0.168	-0.077
-607.186	474.959	0.075	-0.173
-606.171	98.735	-0.130	-0.153
-605.157	-105.849	-0.275	-0.063
-604.142	-200.000	0.030	0.422
-603.128	-200.000	-0.008	0.056
-602.113	-200.000	0.002	0.043
-601.098	-200.000	0.059	0.321
-600.084	800.000	-0.017	0.058
-599.069	-6.337	0.073	-0.051
-598.055	100.357	-0.286	-0.337
-597.040	142.430	-0.232	-0.314
-596.025	-167.136	0.083	-0.003
-595.011	800.000	-0.103	-0.348
-593.996	-1.672	-0.043	-0.031
-592.982	75.731	0.142	-0.153
-591.967	-26.296	0.226	-0.135
-590.952	105.854	-0.149	0.179
-589.938	-200.000	0.060	-0.398
-588.923	-66.846	-0.098	0.039
-587.909	800.000	-0.030	-0.107
-586.894	-102.407	0.071	-0.017
-585.879	117.290	-0.232	-0.290
-584.865	-38.190	0.115	-0.062
-583.850	-200.000	-0.051	-0.297
-582.836	-99.774	-0.185	-0.047
-581.821	-200.000	-0.013	-0.270
-580.806	-200.000	0.007	-0.158
-579.792	-38.263	0.160	-0.086
-578.777	448.803	0.049	0.109
-577.763	104.320	-0.080	0.096
-576.748	263.054	0.162	-0.285
-575.733	-200.000	-0.024	-0.122
-574.719	14.646	0.198	-0.157
-573.704	800.000	0.074	0.222
-572.690	-200.000	0.023	-0.359
-571.675	-61.751	0.228	-0.097
-570.661	800.000	-0.122	-0.415
-569.646	-200.000	-0.008	0.068
-568.631	383.532	-0.118	0.246
-567.617	154.494	-0.116	-0.162
-566.602	-46.278	-0.306	-0.153
-565.588	70.946	-0.400	0.421
-564.573	-200.000	-0.050	0.295
-563.558	-200.000	-0.041	0.267
-562.544	800.000	-0.043	0.175
-561.529	27.044	0.174	-0.148
-560.515	-200.000	-0.020	-0.135
-559.500	-134.992	0.274	-0.034
-558.485	-130.923	-0.172	-0.023
-557.471	-127.437	0.098	-0.014
-556.456	-101.284	0.111	-0.028
-555.442	-162.723	-0.630	-0.031
-554.427	-200.000	0.036	-0.187
-553.412	-200.000	0.075	0.472
-552.398	334.916	0.144	0.282
-551.383	37.687	-0.178	0.160
-550.369	800.000	-0.121	0.399
-549.354	-200.000	0.009	-0.073
-548.339	-152.811	-0.247	-0.018
-547.325	800.000	-0.023	-0.081
-546.310	-70.251	0.295	-0.114
-545.296	447.511	-0.068	-0.152
-544.281	315.263	0.059	0.112
-543.266	128.879	-0.038	-0.049
-542.252	-200.000	-0.083	0.439
-541.237	67.777	0.350	0.363
-540.223	110.456	-0.231	0.282
-539.208	-83.530	0.223	-0.072
-538.193	800.000	-0.044	-0.141
-537.179	122.482	-0.105	0.133
-536.164	-92.605	0.251	-0.071
-535.150	-138.725	0.293	0.032
-534.135	151.053	-0.142	-0.196
-533.121	-200.000	-0.016	-0.350
-532.106	155.049	0.094	0.131
-531.091	-118.455	0.063	0.011
-530.077	625.190	0.058	0.149
-529.062	532.325	-0.089	0.215
-528.048	-29.504	-0.139	-0.081
-527.033	-200.000	-0.018	0.143
-526.018	-73.489	0.193	0.072
-525.004	-93.374	0.104	-0.029
-523.989	-102.147	-0.177	0.043
-522.975	477.053	0.098	-0.226
-521.960	-146.836	-0.321	0.028
-520.945	-158.150	-0.210	0.012
-519.931	-200.000	-0.039	0.363
-518.916	1.374	-0.161	-0.117
-517.902	-100.158	-0.105	-0.026
-516.887	50.309	-0.104	-0.099
-515.872	211.320	0.191	0.304
-514.858	-200.000	-0.056	0.300
-513.843	-30.055	0.173	0.100
-512.829	416.384	0.085	-0.184
-511.814	800.000	0.061	-0.218
-510.799	-200.000	0.053	0.428
-509.785	104.794	0.249	-0.297
-508.770	800.000	0.161	-0.535
-507.756	177.976	-0.178	-0.262
-506.741	314.889	0.124	0.237
-505.726	-34.998	0.363	-0.200
-504.712	100.256	-0.039	0.046
-503.697	800.000	0.057	0.191
-502.683	-200.000	0.003	0.035
-501.668	-5.758	0.211	-0.146
-500.653	-169.101	-0.169	0.006
-499.639	175.532	-0.125	-0.184
-498.624	76.489	0.136	0.146
-497.610	-148.173	0.438	-0.037
-496.595	-63.389	0.051	0.021
-495.581	800.000	0.063	-0.177
-494.566	-70.757	0.159	0.061
-493.551	591.937	0.095	0.236
-492.537	-22.391	0.112	0.069
-491.522	-65.591	-0.177	0.072
-490.508	-90.829	-0.334	0.097
-489.493	338.986	-0.146	0.289
-488.478	-33.236	-0.057	-0.032
-487.464	800.000	-0.146	0.427
-486.449	-94.834	0.027	-0.007
-485.435	800.000	0.092	-0.280
-484.420	352.335	0.097	-0.195
-483.405	103.739	-0.128	-0.152
-482.391	-39.175	-0.122	-0.065
-481.376	-3.196	0.105	-0.074
-480.362	-45.489	-0.177	-0.089
-479.347	104.653	-0.034	0.040
-478.332	-33.020	-0.216	0.121
-477.318	-77.477	-0.109	-0.038
-476.303	600.424	0.064	-0.162
-475.289	-7.299	-0.303	0.208
-474.274	-119.655	0.142	0.025
-473.259	71.648	0.289	-0.304
-472.245	-94.322	0.308	-0.085
-471.230	-63.410	-0.134	-0.056
-470.216	169.045	0.146	-0.210
-469.201	-80.059	0.197	-0.067
-468.186	-47.056	0.146	-0.072
-467.172	-200.000	0.042	0.287
-466.157	-16.872	-0.108	-0.069
-465.143	-58.352	-0.226	0.099
-464.128	85.711	-0.043	-0.048
-463.113	-121.953	-0.113	-0.019
-462.099	-62.060	0.139	-0.059
-461.084	627.072	-0.118	0.301
-460.070	347.577	0.131	-0.262
-459.055	-23.129	0.088	0.053
-458.040	-17.132	0.285	0.182
-457.026	50.426	0.144	0.138
-456.011	-105.867	-0.185	-0.042
-454.997	-69.417	-0.119	0.046
-453.982	-41.321	-0.397	0.207
-452.968	-2.762	-0.055	0.039
-451.953	-118.185	0.133	-0.024
-450.938	182.794	-0.140	0.208
-449.924	800.000	-0.113	-0.382
-448.909	147.127	-0.117	0.160
-447.895	99.309	0.251	-0.294
-446.880	800.000	0.019	0.068
-445.865	29.208	0.215	0.184
-444.851	-92.990	-0.335	-0.095
-443.836	-146.620	-0.326	0.029
-442.822	-200.000	-0.003	0.146
-441.807	89.756	-0.090	0.101
-440.792	172.039	0.007	-0.011
-439.778	-10.374	-0.114	0.076
-438.763	450.573	0.100	-0.223
-437.749	93.080	0.262	0.299
-436.734	253.017	-0.087	-0.151
-435.719	52.987	-0.074	0.072
-434.705	-200.000	0.028	-0.202
-433.690	196.691	0.171	0.264
-432.676	-7.221	-0.378	-0.259
-431.661	143.463	-0.279	0.375
-430.646	486.783	0.102	0.236
-429.632	-62.982	0.225	-0.094
-428.617	37.170	0.161	0.144
-427.603	15.966	0.053	0.042
-426.588	444.574	0.110	-0.243
-425.573	216.394	0.139	-0.222
-424.559	-183.712	0.274	-0.005
-423.544	304.821	0.064	0.120
-422.530	166.706	0.191	0.274
-421.515	-200.000	-0.015	-0.159
-420.500	-135.533	-0.147	0.018
-419.486	-28.692	-0.400	-0.233
-418.471	-200.000	0.020	0.145
-417.457	-200.000	-0.008	-0.127
-416.442	-89.539	0.189	0.056
-415.428	212.701	0.175	-0.278
-414.413	-10.930	-0.263	0.175
-413.398	252.165	-0.151	-0.260
-412.384	800.000	0.030	-0.098
-411.369	-60.631	-0.124	0.053
-410.355	-200.000	-0.034	0.335
-409.340	-154.115	0.284	-0.019
-408.325	99.328	-0.226	0.263
-407.311	-113.210	-0.028	-0.006
-406.296	-31.494	0.141	0.080
-405.282	-7.251	0.262	-0.179
-404.267	44.500	-0.222	0.206
-403.252	-161.436	0.573	-0.030
-402.238	-63.298	0.145	0.060
-401.223	-52.326	-0.124	-0.058
-400.209	19.938	-0.012	-0.010
-399.194	-13.644	0.197	-0.129
-398.179	-93.605	0.211	-0.059
-397.165	-155.885	0.160	-0.010
-396.150	19.886	-0.197	-0.160
-395.136	-1.785	0.163	0.116
-394.121	-84.780	0.200	-0.063
-393.106	-144.506	-0.259	-0.024
-392.092	-187.420	-0.196	-0.003
-391.077	800.000	-0.033	0.111
-390.063	-94.147	0.207	0.057
-389.048	28.586	-0.198	0.169
-388.033	38.885	-0.096	-0.087
-387.019	-113.741	-0.121	-0.024
-386.004	239.541	-0.047	0.079
-384.990	268.385	-0.057	-0.100
-383.975	-200.000	0.028	-0.180
-382.960	38.253	0.063	-0.057
-381.946	64.094	-0.110	-0.112
-380.931	20.482	0.166	0.135
-379.917	98.492	-0.226	-0.262
-378.902	74.542	0.021	-0.023
-377.888	-200.000	-0.013	0.418
-376.873	800.000	0.057	0.189
-375.858	-30.574	-0.054	0.031
-374.844	800.000	-0.028	-0.080
-373.829	-200.000	-0.050	0.223
-372.815	-20.732	0.106	-0.066
-371.800	55.675	-0.133	0.130
-370.785	-59.113	-0.219	-0.095
-369.771	-23.090	0.327	-0.198
-368.756	-200.000	-0.010	0.050
-367.742	-134.270	-0.195	0.024
-366.727	126.350	-0.143	-0.183
-365.712	-90.881	0.161	0.047
-364.698	9.623	0.235	0.179
-363.683	113.213	0.066	0.080
-362.669	-63.056	0.143	-0.060
-361.654	-45.816	-0.340	0.169
-360.639	3.143	0.236	0.173
-359.625	-100.694	0.241	0.060
-358.610	-157.068	-0.092	0.006
-357.596	-6.010	0.132	-0.091
-356.581	-50.790	-0.240	0.114
-355.566	44.551	-0.300	-0.278
-354.552	190.831	-0.109	0.164
-353.537	-200.000	-0.028	-0.184
-352.523	-10.731	0.127	-0.084
-351.508	5.682	0.098	0.073
-350.493	164.108	0.057	-0.080
-349.479	-91.271	-0.163	0.047
-348.464	-200.000	-0.039	-0.220
-347.450	-74.904	0.362	-0.131
-346.435	-120.202	-0.129	-0.022
-345.420	-81.536	-0.386	0.128
-344.406	726.627	0.015	-0.040
-343.391	-200.000	0.039	0.190
-342.377	-175.518	-0.131	-0.004
-341.362	-200.000	-0.036	-0.213
-340.348	-200.000	-0.036	-0.276
-339.333	-111.603	0.384	0.079
-338.318	707.383	0.112	0.297
-337.304	-93.093	0.154	0.043
-336.289	86.931	0.111	-0.124
-335.275	207.913	0.140	0.220
-334.260	72.649	-0.094	-0.098
-333.245	800.000	-0.038	-0.126
-332.231	800.000	-0.060	0.190
-331.216	800.000	0.033	0.092
-330.202	517.275	-0.067	0.157
-329.187	-200.000	-0.030	0.272
-328.172	-130.550	0.154	0.021
-327.158	89.465	-0.091	-0.102
-326.143	-14.890	-0.347	0.224
-325.129	118.283	0.214	0.266
-324.114	-68.119	-0.123	-0.048
-323.099	31.981	-0.258	0.223
-322.085	-56.023	0.183	-0.082
-321.070	800.000	0.038	-0.117
-320.056	-20.245	-0.085	-0.053
-319.041	-30.954	-0.387	-0.220
-318.026	86.847	0.045	-0.050
-317.012	-190.447	0.107	-0.001
-315.997	-136.912	0.172	0.020
-314.983	-200.000	0.035	0.317
-313.968	63.214	-0.065	0.065
-312.953	57.694	-0.257	0.253
-311.939	-28.815	0.164	-0.095
-310.924	-200.000	-0.015	-0.069
-309.910	64.320	0.174	-0.176
-308.895	-200.000	0.086	-0.471
-307.880	11.105	-0.066	-0.051
-306.866	124.866	0.148	-0.188
-305.851	-55.869	0.112	-0.050
-304.837	354.343	0.137	0.273
-303.822	-92.599	0.203	0.057
-302.807	-182.232	0.483	0.009
-301.793	-199.510	-0.258	-0.001
-300.778	800.000	-0.045	0.153
-299.764	127.707	-0.167	-0.213
-298.749	5.464	0.158	0.117
-297.735	-90.042	-0.646	0.189
-296.720	-92.348	0.161	-0.046
-295.705	181.499	0.240	0.355
-294.691	-50.659	-0.141	0.067
-293.676	-200.000	-0.008	-0.362
-292.662	-200.000	0.011	0.079
-291.647	44.830	-0.209	-0.194
-290.632	57.093	-0.061	-0.060
-289.618	361.544	-0.103	0.208
-288.603	-200.000	0.350	-0.001
-287.589	226.964	0.147	0.240
-286.574	676.993	0.010	0.025
-285.559	-113.740	0.256	0.050
-284.545	800.000	-0.083	-0.236
-283.530	131.808	0.256	0.330
-282.516	-54.756	-0.210	0.095
-281.501	-83.848	0.150	0.048
-280.486	-25.202	0.350	-0.208
-279.472	-118.420	-0.236	0.042
-278.457	800.000	0.090	0.257
-277.443	-27.563	-0.122	-0.071
-276.428	-161.927	0.196	0.010
-275.413	626.304	-0.018	0.045
-274.399	-120.634	0.247	0.042
-273.384	800.000	0.061	-0.206
-272.370	-27.810	-0.144	-0.084
-271.355	800.000	-0.048	0.186
-270.340	-53.340	0.228	0.105
-269.326	-200.000	0.019	0.275
-268.311	323.213	0.043	-0.081
-267.297	503.980	0.061	0.141
-266.282	99.650	-0.226	0.263
-265.267	20.333	-0.232	0.188
-264.253	398.529	-0.063	0.132
-263.238	-200.000	-0.005	0.172
-262.224	800.000	-0.031	-0.106
-261.209	-98.141	-0.139	0.036
-260.195	-117.795	0.168	-0.030
-259.180	-200.000	0.020	0.128
-258.165	46.974	-0.069	0.064
-257.151	-64.855	0.377	-0.153
-256.136	18.863	-0.150	-0.120
-255.122	505.987	0.051	0.118
-254.107	-69.847	-0.053	0.020
-253.092	-2.404	-0.263	-0.185
-252.078	-50.899	-0.155	0.073
-251.063	202.573	0.130	0.202
-250.049	-61.173	0.414	-0.175
-249.034	-200.000	-0.022	-0.211
-248.019	-200.000	-0.009	-0.149
-247.005	54.584	0.123	-0.118
-245.990	-113.883	-0.301	-0.059
-244.976	-200.000	-0.018	-0.122
-243.961	-130.163	-0.179	-0.024
-242.946	800.000	-0.049	-0.187
-241.932	69.333	0.141	-0.145
-240.917	87.485	0.187	0.208
-239.903	347.193	-0.030	0.060
-238.888	-37.415	-0.165	0.088
-237.873	-24.969	0.220	-0.131
-236.859	240.338	0.124	0.207
-235.844	800.000	-0.084	0.320
-234.830	81.639	0.239	0.260
-233.815	-198.975	0.295	-0.002
-232.800	209.561	0.036	0.057
-231.786	-78.642	0.267	0.091
-230.771	493.167	0.113	-0.260
-229.757	-17.100	-0.138	-0.087
-228.742	800.000	-0.037	0.104
-227.727	-200.000	0.033	0.164
-226.713	-58.077	-0.059	-0.026
-225.698	-10.041	-0.225	0.150
-224.684	-200.000	-0.047	-0.295
-223.669	-200.000	0.016	-0.202
-222.655	-57.391	-0.167	0.074
-221.640	32.640	-0.198	-0.172
-220.625	20.856	0.498	-0.404
-219.611	800.000	-0.047	0.182
-218.596	82.759	-0.064	0.070
-217.582	-141.428	0.281	-0.028
-216.567	414.471	-0.072	0.154
-215.552	800.000	-0.016	-0.063
-214.538	-200.000	0.026	-0.267
-213.523	81.295	-0.083	0.090
-212.509	477.745	0.227	-0.515
-211.494	198.176	-0.045	-0.069
-210.479	-200.000	0.049	-0.224
-209.465	-149.154	-0.250	-0.020
-208.450	-200.000	-0.044	-0.194
-207.436	-200.000	0.025	-0.225
-206.421	-200.000	0.040	0.335
-205.406	152.422	0.287	-0.393
-204.392	715.651	-0.157	0.417
-203.377	-200.000	-0.008	-0.075
-202.363	575.496	-0.050	-0.123
-201.348	-32.497	0.171	0.095
-200.333	-24.179	0.040	-0.024
-199.319	-77.097	-0.297	-0.104
-198.304	-200.000	0.032	0.173
-197.290	262.245	0.169	0.294
-196.275	-200.000	0.047	-0.248
-195.260	800.000	0.070	-0.197
-194.246	464.056	0.077	-0.172
-193.231	-200.000	-0.064	-0.573
-192.217	-85.492	-0.353	-0.110
-191.202	-200.000	0.020	-0.364
-190.187	407.996	0.051	0.108
-189.173	46.874	-0.205	-0.190
-188.158	-200.000	-0.056	-0.271
-187.144	14.152	0.174	0.136
-186.129	351.072	0.147	0.292
-185.114	-13.862	0.137	0.088
-184.100	-194.613	0.186	0.001
-183.085	-200.000	-0.010	0.114
-182.071	593.459	0.106	0.263
-181.056	-200.000	0.015	0.145
-180.042	-200.000	-0.026	0.160
-179.027	362.833	0.091	-0.183
-178.012	-200.000	-0.034	0.173
-176.998	180.047	0.096	-0.141
-175.983	-163.836	0.120	0.006
-174.969	38.922	-0.147	0.131
-173.954	163.836	-0.084	0.119
-172.939	-200.000	0.004	-0.097
-171.925	29.726	-0.244	0.208
-170.910	42.365	0.142	-0.129
-169.896	-149.768	0.270	0.021
-168.881	233.667	0.174	0.286
-167.866	17.155	-0.203	0.161
-166.852	151.768	-0.050	0.068
-165.837	-108.698	-0.308	-0.066
-164.823	-194.193	-0.216	-0.002
-163.808	-19.888	0.053	0.033
-162.793	361.605	-0.049	-0.098
-161.779	62.119	-0.079	0.079
-160.764	800.000	-0.043	0.165
-159.750	800.000	0.062	0.177
-158.735	768.825	-0.043	0.118
-157.720	-141.045	-0.165	-0.017
-156.706	-200.000	-0.007	0.085
-155.691	-11.638	-0.075	0.049
-154.677	207.844	-0.162	-0.252
-153.662	289.091	0.177	-0.321
-152.647	-48.508	0.095	0.046
-151.633	-58.109	-0.209	0.091
-150.618	138.936	-0.062	-0.081
-149.604	143.528	-0.081	0.107
-148.589	-128.552	0.301	-0.043
-147.574	800.000	-0.044	-0.134
-146.560	-100.468	-0.105	0.026
-145.545	529.420	0.035	-0.083
-144.531	64.989	-0.261	-0.264
-143.516	-84.842	0.102	-0.032
-142.502	65.458	-0.214	-0.216
-141.487	-53.746	-0.039	-0.018
-140.472	-200.000	0.034	0.191
-139.458	67.846	-0.213	0.218
-138.443	586.778	0.095	0.233
-137.429	-101.617	0.073	0.018
-136.414	-62.133	0.120	0.050
-135.399	67.982	0.031	0.031
-134.385	377.871	-0.110	0.224
-133.370	74.994	-0.201	0.212
-132.356	464.320	0.035	-0.077
-131.341	116.929	-0.069	-0.084
-130.326	800.000	0.055	0.232
-129.312	-111.417	-0.329	0.067
-128.297	460.713	0.040	0.089
-127.283	-200.000	0.063	0.424
-126.268	-70.882	0.430	0.162
-125.253	2.922	-0.485	0.351
-124.239	-141.942	0.526	0.052
-123.224	-153.496	-0.114	0.008
-122.210	130.656	-0.179	-0.229
-121.195	-200.000	-0.010	0.285
-120.180	-14.445	0.193	0.124
-119.166	248.506	-0.096	0.161
-118.151	-200.000	-0.030	-0.192
-117.137	-167.342	0.455	-0.018
-116.122	-200.000	-0.008	-0.083
-115.107	121.137	-0.030	-0.037
-114.093	800.000	-0.151	0.491
-113.078	-102.488	0.186	0.045
-112.064	-32.740	-0.157	-0.087
-111.049	205.790	-0.030	-0.046
-110.034	549.073	0.145	0.348
-109.020	-13.488	0.111	0.072
-108.005	-126.210	-0.258	0.038
-106.991	-162.153	-0.202	0.010
-105.976	759.602	-0.023	0.061
-104.962	48.859	0.140	-0.131
-103.947	43.854	0.049	0.045
-102.932	-200.000	0.004	-0.377
-101.918	47.395	-0.066	-0.061
-100.903	185.304	-0.062	-0.092
-99.889	-88.660	-0.310	0.092
-98.874	-57.813	0.101	-0.044
-97.859	37.229	0.251	0.222
-96.845	-9.831	-0.448	0.297
-95.830	-42.141	-0.271	0.138
-94.816	-200.000	0.035	-0.153
-93.801	72.380	-0.071	-0.074
-92.786	-200.000	0.010	0.129
-91.772	-61.471	0.045	-0.019
-90.757	-200.000	-0.015	-0.069
-89.743	-131.176	-0.241	-0.032
-88.728	403.682	0.192	0.403
-87.713	-173.170	-0.205	0.006
-86.699	-200.000	-0.086	-0.440
-85.684	-155.936	-0.235	0.015
-84.670	-97.553	-0.334	-0.086
-83.655	19.713	0.157	0.126
-82.640	-200.000	0.039	0.201
-81.626	-78.680	-0.086	0.029
-80.611	-83.272	0.084	0.027
-79.597	4.296	0.319	0.233
-78.582	-200.000	-0.044	-0.212
-77.567	184.702	0.193	0.285
-76.553	420.655	0.198	0.423
-75.538	-54.815	0.136	-0.061
-74.524	556.254	-0.078	0.188
-73.509	-150.744	0.282	0.021
-72.494	800.000	0.088	0.343
-71.480	-200.000	-0.058	0.264
-70.465	-200.000	0.005	0.385
-69.451	-200.000	-0.022	-0.271
-68.436	-93.678	0.206	-0.057
-67.422	-113.668	-0.267	-0.052
-66.407	-200.000	-0.013	0.222
-65.392	84.454	-0.108	0.117
-64.378	564.387	0.080	0.194
-63.363	-32.353	-0.159	0.088
-62.349	645.347	-0.078	0.199
-61.334	-62.381	-0.969	-0.401
-60.319	800.000	0.135	0.441
-59.305	67.108	-0.328	-0.333
-58.290	420.048	0.396	0.845
-57.276	800.000	0.506	1.459
-56.261	-200.000	78.544	509.908
-55.246	520.961	1314.691	3069.697
-54.232	151.203	2535.098	3433.875
-53.217	113.595	2238.823	2706.502
-52.203	50.303	1770.924	1665.459
-51.188	43.472	1572.309	1430.475
-50.173	40.885	1542.791	1385.561
-49.159	56.627	1582.098	1532.122
-48.144	61.673	1602.317	1587.227
-47.130	44.079	1564.020	1426.985
-46.115	40.552	1549.339	1388.890
-45.100	40.432	1545.466	1384.527
-44.086	40.297	1543.680	1381.926
-43.071	40.277	1541.197	1379.515
-42.057	40.280	1539.229	1377.715
-41.042	40.283	1537.949	1376.536
-40.027	40.299	1536.184	1375.015
-39.013	40.251	1534.681	1373.278
-37.998	40.105	1533.759	1371.386
-36.984	40.284	1532.275	1371.246
-35.969	40.313	1530.860	1370.123
-34.954	40.279	1529.786	1368.878
-33.940	40.278	1528.387	1367.560
-32.925	40.295	1526.470	1365.908
-31.911	40.353	1525.145	1365.072
-30.896	40.320	1524.274	1364.010
-29.881	40.285	1523.098	1362.664
-28.867	40.368	1521.271	1361.544
-27.852	40.303	1519.837	1359.760
-26.838	40.361	1518.354	1358.779
-25.823	40.348	1516.718	1357.172
-24.809	40.272	1515.143	1355.190
-23.794	40.157	1514.013	1353.333
-22.779	40.230	1513.025	1352.900
-21.765	40.353	1511.120	1351.979
-20.750	40.243	1510.472	1350.599
-19.736	40.227	1509.314	1349.401
-18.721	40.255	1508.253	1348.584
-17.706	40.205	1506.569	1346.689
-16.692	40.377	1505.089	1346.478
-15.677	40.290	1504.105	1344.955
-14.663	40.209	1503.558	1343.862
-13.648	40.211	1502.489	1342.870
-12.633	40.222	1501.764	1342.244
-11.619	40.267	1500.241	1341.129
-10.604	40.156	1499.842	1339.967
-9.590	40.224	1498.689	1339.347
-8.575	40.264	1497.861	1338.825
-7.560	40.221	1496.640	1337.388
-6.546	40.112	1496.407	1336.389
-5.531	40.118	1495.854	1335.887
-4.517	40.155	1494.629	1334.985
-3.502	40.239	1493.307	1334.319
-2.487	40.284	1492.041	1333.442
-1.473	40.209	1491.383	1332.296
-0.458	40.134	1490.028	1330.525
0.556	38.281	1479.679	1318.159
1.571	34.755	1451.431	1269.500
2.586	30.191	1386.646	1183.680
3.600	27.781	1301.224	1096.202
4.615	25.942	1252.595	1044.499
5.629	24.306	1199.724	991.237
6.644	20.022	1119.064	902.251
7.659	15.834	1079.063	848.842
8.673	15.208	1073.393	841.166
9.688	15.120	1070.096	838.069
10.702	15.038	1068.824	836.586
11.717	14.954	1067.041	834.699
12.731	16.687	1068.723	844.595
13.746	20.504	1072.814	866.831
14.761	20.800	1072.609	868.063
15.775	18.496	1068.311	853.055
16.790	17.046	1065.265	843.349
17.804	15.823	1062.947	835.369
18.819	14.955	1061.031	829.489
19.834	14.397	1059.454	825.419
20.848	13.955	1058.112	822.113
21.863	13.649	1057.511	820.061
22.877	13.413	1056.593	818.108
23.892	13.456	1055.590	817.472
24.907	13.205	1054.941	815.656
25.921	13.182	1054.500	815.130
26.936	13.358	1053.157	814.887
27.950	13.298	1052.342	813.890
28.965	13.290	1051.299	812.972
29.980	13.355	1050.370	812.501
30.994	13.428	1048.632	811.443
32.009	13.395	1047.995	810.716
33.023	13.518	1047.310	810.716
34.038	13.470	1046.539	809.812
35.053	13.423	1045.530	808.734
36.067	13.307	1044.790	807.519
37.082	13.405	1043.377	806.836
38.096	13.365	1043.012	806.289
39.111	13.329	1042.504	805.647
40.126	13.479	1041.690	805.677
41.140	13.339	1040.171	803.749
42.155	13.238	1039.519	802.686
43.169	13.287	1038.253	801.873
44.184	13.229	1037.171	800.687
45.199	13.149	1036.404	799.639
46.213	13.181	1035.245	798.826
47.228	13.189	1034.251	798.027
48.242	13.281	1033.264	797.639
49.257	13.293	1032.820	797.282
50.271	13.293	1031.786	796.413
51.286	13.398	1030.437	795.810
52.301	13.312	1030.271	795.196
53.315	13.382	1029.101	794.558
54.330	13.463	1028.339	794.291
55.344	13.228	1027.566	792.497
56.359	13.255	1026.462	791.701
57.374	13.316	1025.435	791.132
58.388	13.271	1024.752	790.322
59.403	13.201	1023.920	789.275
60.417	13.006	1023.672	788.081
61.432	13.172	1022.649	788.018
62.447	13.274	1021.492	787.542
63.461	13.004	1020.871	785.707
64.476	13.115	1020.224	785.666
65.490	13.071	1018.957	784.416
66.505	13.047	1017.978	783.477
67.520	13.089	1017.584	783.305
68.534	13.100	1016.676	782.587
69.549	13.140	1016.095	782.259
70.563	13.141	1015.093	781.426
71.578	13.035	1014.666	780.528
72.593	13.030	1013.696	779.688
73.607	13.151	1012.399	779.190
74.622	12.973	1011.737	777.773
75.636	12.952	1011.070	777.092
76.651	13.093	1009.832	776.734
77.666	13.118	1009.262	776.345
78.680	12.992	1008.442	775.055
79.695	13.060	1007.937	774.920
80.709	13.158	1007.158	774.712
81.724	13.106	1006.468	773.866
82.739	13.147	1005.470	773.223
83.753	13.197	1004.748	772.835
84.768	13.279	1003.980	772.557
85.782	13.326	1003.238	772.137
86.797	13.394	1002.471	771.798
87.812	13.343	1001.677	770.878
88.826	13.261	1000.736	769.706
89.841	13.341	999.545	769.093
90.855	13.353	999.333	768.915
91.870	13.364	998.866	768.539
92.884	13.335	997.773	767.496
93.899	13.404	997.025	767.176
94.914	13.405	996.433	766.655
95.928	13.464	995.584	766.209
96.943	13.540	994.463	765.629
97.957	13.399	994.668	765.065
98.972	13.445	993.268	764.133
99.987	13.411	992.513	763.327
101.001	13.386	991.818	762.612
102.016	13.354	991.152	761.885
103.030	13.409	990.078	761.244
104.045	13.396	988.896	760.207
105.060	13.353	988.316	759.499
106.074	13.442	986.973	758.807
107.089	13.214	986.283	757.164
108.103	13.051	985.989	756.127
109.118	13.115	984.712	755.375
110.133	13.160	983.752	754.776
111.147	13.167	983.092	754.232
112.162	13.212	981.896	753.454
113.176	13.241	980.904	752.757
114.191	13.289	980.117	752.307
115.206	13.227	979.566	751.534
116.220	13.308	978.348	750.902
117.235	13.251	977.547	749.960
118.249	13.307	977.030	749.755
119.264	13.251	976.015	748.654
120.279	13.182	975.190	747.645
121.293	13.180	974.542	747.069
122.308	13.171	973.662	746.287
123.322	13.215	973.059	745.959
124.337	13.169	972.091	744.944
125.352	13.240	970.731	744.158
126.366	13.154	969.667	742.887
127.381	13.116	968.666	741.886
128.395	13.248	967.080	741.196
129.410	13.071	966.457	739.858
130.424	13.163	965.864	739.752
131.439	13.227	964.694	739.077
132.454	13.201	964.231	738.543
133.468	13.316	963.468	738.406
134.483	13.381	962.714	738.053
135.497	13.312	962.621	737.606
136.512	13.244	961.837	736.638
137.527	13.301	960.696	735.952
138.541	13.269	959.787	735.050
139.556	13.349	959.177	734.872
140.570	13.392	958.255	734.294
141.585	13.423	957.323	733.648
142.600	13.484	956.964	733.578
143.614	13.478	955.677	732.502
144.629	13.460	955.353	732.108
145.643	13.610	954.360	731.946
146.658	13.614	953.638	731.347
147.673	13.472	952.568	729.835
148.687	13.429	951.606	728.843
149.702	13.404	950.762	728.024
150.716	13.293	950.325	727.134
151.731	13.364	949.465	726.727
152.746	13.410	948.393	726.042
153.760	13.371	947.895	725.424
154.775	13.399	947.096	724.873
155.789	13.423	946.677	724.592
156.804	13.429	945.765	723.856
157.819	13.548	945.069	723.779
158.833	13.461	944.654	723.020
159.848	13.486	943.845	722.446
160.862	13.548	943.108	722.085
161.877	13.590	942.147	721.468
162.892	13.505	941.430	720.485
163.906	13.449	940.472	719.447
164.921	13.376	939.720	718.491
165.935	13.393	938.992	717.945
166.950	13.524	938.312	717.928
167.964	13.385	937.504	716.643
168.979	13.502	936.481	716.304
169.994	13.529	934.971	715.203
171.008	13.571	934.265	714.783
172.023	13.486	933.735	713.947
173.037	13.608	932.729	713.639
174.052	13.680	931.890	713.246
175.067	13.590	931.642	712.602
176.081	13.541	930.404	711.382
177.096	13.644	929.675	711.208
178.110	13.459	929.030	709.856
179.125	13.524	928.458	709.637
180.140	13.496	927.040	708.367
181.154	13.548	926.732	708.293
182.169	13.656	926.231	708.308
183.183	13.532	925.665	707.284
184.198	13.780	924.710	707.548
185.213	13.606	924.117	706.291
186.227	13.645	923.717	706.089
187.242	13.740	923.169	706.014
188.256	13.763	922.117	705.242
189.271	13.863	921.667	705.259
190.286	13.883	920.839	704.649
191.300	13.639	920.440	703.247
192.315	13.520	919.569	702.016
193.329	13.521	918.719	701.309
194.344	13.612	918.058	701.126
195.359	13.705	917.714	701.193
196.373	13.751	916.838	700.658
197.388	13.830	916.014	700.301
198.402	13.764	916.016	699.962
199.417	13.845	915.891	700.147
200.432	13.952	915.307	700.089
201.446	14.021	914.835	699.957
202.461	13.951	914.237	699.143
203.475	13.952	914.097	698.975
204.490	14.031	912.811	698.264
205.504	14.057	912.056	697.732
206.519	13.947	911.413	696.719
207.534	14.038	910.492	696.335
208.548	13.959	909.785	695.402
209.563	13.984	909.016	694.857
210.577	13.878	908.811	694.195
211.592	14.012	907.865	693.972
212.607	14.071	907.306	693.730
213.621	14.118	906.876	693.533
214.636	14.134	906.038	692.897
215.650	14.090	905.613	692.329
216.665	14.159	904.942	692.042
217.680	14.028	904.465	691.070
218.694	14.159	903.782	691.032
219.709	14.167	903.496	690.783
220.723	14.108	902.961	690.072
221.738	14.251	901.785	689.701
222.753	14.247	901.159	689.148
223.767	14.268	900.455	688.635
224.782	14.244	899.502	687.745
225.796	14.384	898.740	687.679
226.811	14.318	898.349	687.046
227.826	14.298	897.763	686.458
228.840	14.237	897.323	685.806
229.855	14.200	896.716	685.131
230.869	14.309	895.673	684.720
231.884	14.231	895.010	683.832
232.899	14.363	894.166	683.668
233.913	14.348	893.473	683.019
234.928	14.266	892.833	682.131
235.942	14.240	892.106	681.409
236.957	14.214	891.341	680.658
237.972	14.179	890.633	679.916
238.986	14.305	890.121	679.979
240.001	14.325	889.610	679.610
241.015	14.337	889.035	679.160
242.030	14.338	888.006	678.318
243.045	14.393	887.384	678.007
244.059	14.458	886.853	677.805
245.074	14.450	886.428	677.387
246.088	14.319	885.831	676.340
247.103	14.561	884.954	676.590
248.117	14.549	884.522	676.154
249.132	14.453	884.245	675.491
250.147	14.700	883.298	675.708
251.161	14.640	883.145	675.288
252.176	14.824	882.075	675.155
253.190	14.726	881.661	674.381
254.205	14.765	881.339	674.236
255.220	14.763	880.395	673.444
256.234	14.769	879.878	673.012
257.249	14.793	879.272	672.586
258.263	14.909	878.176	672.155
259.278	14.764	878.246	671.567
260.293	14.927	877.338	671.467
261.307	14.927	876.512	670.776
262.322	14.896	876.373	670.485
263.336	14.935	875.646	670.027
264.351	15.051	874.889	669.852
265.366	15.019	874.455	669.330
266.380	15.085	873.833	669.059
267.395	14.991	873.201	668.143
268.409	14.990	872.286	667.378
269.424	15.001	871.604	666.842
270.439	14.963	870.916	666.106
271.453	15.040	870.218	665.818
272.468	15.063	869.278	665.131
273.482	15.009	869.024	664.663
274.497	14.968	868.328	663.909
275.512	14.946	867.839	663.392
276.526	15.057	866.746	662.934
277.541	14.956	866.316	662.149
278.555	14.926	865.948	661.690
279.570	15.051	865.441	661.738
280.585	14.998	864.675	660.883
281.599	15.195	864.005	661.091
282.614	15.252	863.262	660.691
283.628	15.132	862.830	659.828
284.643	15.187	862.201	659.505
285.657	15.266	861.351	659.108
286.672	15.299	860.839	658.785
287.687	15.142	860.916	658.168
288.701	15.177	860.247	657.737
289.716	15.199	859.763	657.395
290.730	15.228	858.784	656.701
291.745	15.308	858.118	656.447
292.760	15.226	857.855	655.869
293.774	15.301	857.125	655.543
294.789	15.335	856.435	655.094
295.803	15.389	855.908	654.842
296.818	15.328	855.158	653.970
297.833	15.291	854.657	653.386
298.847	15.287	854.030	652.835
299.862	15.351	853.087	652.304
300.876	15.503	852.249	652.198
301.891	15.376	851.650	651.190
302.906	15.413	851.447	651.116
303.920	15.409	850.766	650.524
304.935	15.684	849.960	650.917
305.949	15.644	849.016	649.980
306.964	15.567	848.829	649.481
307.979	15.538	848.064	648.729
308.993	15.520	847.785	648.387
310.008	15.520	847.468	648.089
311.022	15.616	846.787	647.879
312.037	15.646	846.173	647.466
313.052	15.613	845.717	646.935
314.066	15.584	844.938	646.169
315.081	15.677	844.371	646.038
316.095	15.599	843.731	645.190
317.110	15.610	843.306	644.852
318.125	15.661	842.540	644.404
319.139	15.691	841.838	643.924
320.154	15.697	841.756	643.827
321.168	15.796	840.777	643.401
322.183	15.698	840.528	642.778
323.197	15.615	840.019	642.014
324.212	15.691	839.431	641.800
325.227	15.831	838.863	641.841
326.241	15.735	838.742	641.327
327.256	15.755	837.882	640.689
328.270	15.810	837.381	640.459
329.285	15.659	836.588	639.221
330.300	15.743	836.100	639.111
331.314	15.840	835.488	638.956
332.329	15.782	834.808	638.158
333.343	15.837	834.305	637.923
334.358	15.823	833.694	637.346
335.373	15.876	833.125	637.057
336.387	15.858	832.744	636.642
337.402	15.957	832.011	636.398
338.416	15.984	831.452	636.019
339.431	15.925	831.356	635.665
340.446	16.017	830.615	635.388
341.460	16.064	829.914	634.974
342.475	16.031	829.494	634.470
343.489	16.083	829.094	634.305
344.504	16.283	827.980	634.149
345.519	16.162	827.741	633.456
346.533	16.222	827.291	633.278
347.548	16.166	827.162	632.914
348.562	16.156	826.716	632.479
349.577	16.132	825.714	631.567
350.592	16.080	825.218	630.937
351.606	16.156	824.562	630.662
352.621	16.057	824.419	630.130
353.635	16.211	823.472	629.925
354.650	16.284	823.029	629.803
355.665	16.204	823.064	629.473
356.679	16.254	822.511	629.184
357.694	16.178	821.976	628.435
358.708	16.195	821.355	627.968
359.723	16.154	821.250	627.679
360.738	16.113	820.496	626.894
361.752	16.292	820.107	627.208
362.767	16.357	819.536	626.956
363.781	16.305	819.113	626.383
364.796	16.334	818.896	626.271
365.810	16.362	818.312	625.871
366.825	16.496	817.764	625.893
367.840	16.708	817.355	626.308
368.854	16.516	817.003	625.274
369.869	16.578	816.374	624.965
370.883	16.537	816.217	624.640
371.898	16.665	815.103	624.205
372.913	16.635	814.671	623.707
373.927	16.399	814.719	622.818
374.942	16.604	813.449	622.546
375.956	16.679	812.807	622.277
376.971	16.767	812.392	622.225
377.986	16.758	812.062	621.886
379.000	16.654	811.704	621.175
380.015	16.594	811.172	620.495
381.029	16.778	810.340	620.476
382.044	16.752	809.885	619.978
383.059	16.759	808.960	619.242
384.073	16.833	808.553	619.146
385.088	16.892	808.085	618.948
386.102	16.786	807.673	618.188
387.117	16.785	807.289	617.836
388.132	16.817	806.837	617.555
389.146	16.704	806.520	616.842
390.161	16.741	806.161	616.651
391.175	16.847	805.648	616.590
392.190	16.805	805.074	615.942
393.205	16.942	804.676	616.080
394.219	16.917	804.271	615.624
395.234	16.849	803.858	615.007
396.248	16.789	803.216	614.244
397.263	16.715	803.005	613.760
398.278	16.681	802.318	613.057
399.292	16.835	801.948	613.279
400.307	16.877	801.016	612.664
401.321	16.790	800.971	612.260
402.336	16.833	800.782	612.219
403.350	16.736	800.404	611.522
404.365	16.943	799.633	611.628
405.380	17.004	799.109	611.393
406.394	16.950	798.790	610.900
407.409	16.933	798.551	610.599
408.423	17.157	797.775	610.760
409.438	17.142	797.340	610.319
410.453	17.138	797.308	610.227
411.467	17.218	796.783	610.058
412.482	17.217	796.185	609.541
413.496	17.231	795.615	609.103
414.511	17.124	795.701	608.728
415.526	17.192	795.102	608.462
416.540	17.160	794.715	607.996
417.555	17.199	794.198	607.686
418.569	17.279	793.388	607.301
419.584	17.259	792.965	606.851
420.599	17.377	792.556	606.905
421.613	93.918	1267.599	1385.824
422.628	80.077	1336.794	1385.951
