DTS Sentinel unit serial number:	SN413079Multiplexer serial number:	ORYXHardware model number:	OX4-SRSoftware version number:	ORYX F/W v4.00 Oryx Data Collector v3.7.2.0data status	okinstallation	princeton_trtdifferential loss correction	single-endedforward channel	channel 3reverse channel	N/Adate	2019/09/19time	08:24:34forward acquisition time	60.00reverse acquisition time	0.00gamma	496.2192k internal	0.2347k external	0.2347temperature offset calibration	0.9975default loss term (dB/km)	0.3790temperature slope calibration	1.0000multiplexer offset coefficient	1.0000multiplexer slope coefficient	1.0000fibre end	0.00T internal ref (°C)	20.50T ext. ref 1 (°C)	0.56T ext. ref 2 (°C)	16.14length (m)	temperature (°C)	Stokes	anti-Stokes-747.200	-119.113	0.179	-0.031
-746.185	-53.247	-0.068	0.031
-745.171	210.417	-0.136	-0.213
-744.156	366.899	-0.075	0.151
-743.142	800.000	0.053	0.179
-742.127	-57.732	0.199	-0.087
-741.112	92.293	0.198	-0.223
-740.098	800.000	-0.121	0.363
-739.083	-111.403	-0.101	-0.021
-738.069	-200.000	-0.037	0.186
-737.054	201.632	-0.188	0.289
-736.039	192.510	-0.138	0.209
-735.025	-99.662	0.200	-0.050
-734.010	27.202	-0.457	-0.383
-732.996	-40.531	0.206	-0.107
-731.981	-200.000	0.006	-0.181
-730.966	-99.866	0.239	-0.060
-729.952	230.291	-0.086	-0.140
-728.937	-200.000	0.025	-0.377
-727.923	-200.000	-0.026	-0.116
-726.908	650.554	-0.075	-0.192
-725.894	389.146	-0.106	-0.219
-724.879	-121.215	0.124	-0.021
-723.864	38.261	0.139	-0.124
-722.850	52.247	0.135	-0.129
-721.835	-84.660	-0.509	-0.160
-720.821	-200.000	-0.102	-0.463
-719.806	-167.110	-0.180	0.007
-718.791	-200.000	-0.019	0.155
-717.777	-25.574	0.334	-0.197
-716.762	18.996	-0.292	-0.234
-715.748	126.643	0.098	-0.124
-714.733	-3.353	0.069	0.048
-713.718	222.759	0.032	0.051
-712.704	800.000	0.045	0.165
-711.689	-146.867	0.551	0.047
-710.675	-29.618	0.100	0.057
-709.660	309.670	0.219	0.410
-708.645	-90.748	0.077	-0.022
-707.631	-45.807	0.035	-0.017
-706.616	251.817	-0.055	-0.094
-705.602	-196.054	-0.227	-0.002
-704.587	10.826	-0.133	-0.101
-703.572	-153.120	0.317	-0.022
-702.558	-200.000	0.008	0.079
-701.543	-84.820	-0.081	-0.025
-700.529	144.138	-0.117	-0.156
-699.514	-38.702	-0.095	-0.050
-698.499	-200.000	-0.004	-0.202
-697.485	322.265	0.105	0.200
-696.470	-146.063	-0.219	0.019
-695.456	-168.017	-0.292	-0.011
-694.441	-63.432	-0.151	-0.062
-693.426	-20.090	0.113	-0.069
-692.412	64.084	-0.106	-0.107
-691.397	-200.000	0.013	-0.102
-690.383	800.000	-0.044	-0.130
-689.368	120.398	-0.090	-0.111
-688.354	426.676	0.075	0.161
-687.339	27.879	0.204	-0.171
-686.324	800.000	-0.063	0.215
-685.310	-200.000	-0.049	0.327
-684.295	800.000	-0.024	-0.093
-683.281	-200.000	-0.005	0.216
-682.266	-77.801	0.364	0.125
-681.251	-8.078	0.313	-0.210
-680.237	401.776	0.155	0.326
-679.222	89.707	0.254	-0.282
-678.208	-107.105	-0.408	-0.090
-677.193	-0.085	-0.250	-0.177
-676.178	284.223	-0.095	0.171
-675.164	800.000	0.083	0.252
-674.149	310.316	0.163	-0.303
-673.135	57.334	0.094	-0.091
-672.120	360.298	-0.158	-0.314
-671.105	707.214	0.054	-0.143
-670.091	51.521	-0.167	-0.158
-669.076	-113.855	-0.132	-0.026
-668.062	-23.835	-0.159	0.095
-667.047	-160.968	0.183	-0.010
-666.032	800.000	-0.035	0.106
-665.018	800.000	0.090	0.258
-664.003	7.651	-0.287	0.214
-662.989	800.000	-0.052	-0.225
-661.974	127.288	-0.125	-0.159
-660.959	-92.683	0.303	-0.084
-659.945	110.724	-0.131	-0.157
-658.930	-200.000	0.038	0.174
-657.916	193.526	-0.076	0.114
-656.901	-200.000	0.043	0.523
-655.886	277.647	-0.146	0.259
-654.872	-49.242	0.038	-0.018
-653.857	-200.000	0.017	-0.322
-652.843	-12.395	0.160	0.104
-651.828	-200.000	0.018	-0.308
-650.814	-12.416	-0.196	-0.127
-649.799	-100.685	0.065	0.016
-648.784	-98.094	-0.263	0.068
-647.770	800.000	0.072	0.219
-646.755	800.000	0.061	0.172
-645.741	172.227	0.018	0.026
-644.726	288.828	-0.112	-0.202
-643.711	-15.145	0.301	-0.192
-642.697	81.594	-0.318	-0.343
-641.682	-118.229	0.109	-0.019
-640.668	-111.438	-0.194	-0.039
-639.653	544.364	0.066	-0.157
-638.638	22.355	-0.255	-0.207
-637.624	-200.000	0.001	0.093
-636.609	590.189	0.119	0.293
-635.595	-152.980	-0.298	0.021
-634.580	-113.609	-0.122	0.024
-633.565	550.160	0.059	0.140
-632.551	613.546	-0.216	0.538
-631.536	-200.000	0.021	-0.496
-630.522	-66.305	-0.037	-0.015
-629.507	119.747	-0.135	-0.166
-628.492	-87.740	-0.112	-0.033
-627.478	-165.901	0.150	-0.006
-626.463	-48.068	0.163	0.078
-625.449	-38.559	-0.119	0.063
-624.434	-51.086	-0.064	-0.030
-623.419	-87.737	0.192	-0.058
-622.405	616.549	-0.018	-0.046
-621.390	644.859	-0.114	0.289
-620.376	-181.998	0.187	-0.004
-619.361	-144.536	-0.240	0.022
-618.346	788.306	-0.065	-0.176
-617.332	331.851	0.082	-0.158
-616.317	800.000	-0.032	-0.099
-615.303	-75.045	-0.119	-0.042
-614.288	11.084	0.160	-0.121
-613.273	-56.287	-0.126	0.056
-612.259	188.026	-0.151	0.225
-611.244	27.490	-0.114	-0.095
-610.230	83.343	0.072	0.078
-609.215	-200.000	-0.029	0.187
-608.201	-200.000	0.008	-0.220
-607.186	44.638	-0.115	-0.105
-606.171	-46.667	0.150	-0.073
-605.157	7.341	0.275	0.204
-604.142	424.535	-0.062	0.132
-603.128	800.000	0.055	0.238
-602.113	-43.071	0.108	-0.055
-601.098	-178.646	-0.253	0.006
-600.084	-200.000	-0.012	-0.202
-599.069	275.045	-0.060	0.105
-598.055	197.812	0.176	0.267
-597.040	-200.000	0.047	-0.300
-596.025	-49.712	-0.326	-0.154
-595.011	800.000	0.027	0.090
-593.996	-109.348	0.361	0.076
-592.982	-61.773	0.150	-0.062
-591.967	-86.266	-0.178	0.054
-590.952	107.973	0.181	-0.214
-589.938	800.000	-0.042	-0.150
-588.923	-7.193	0.299	0.201
-587.909	578.325	-0.052	0.127
-586.894	583.393	0.028	-0.069
-585.879	-127.634	0.274	0.039
-584.865	-129.450	-0.084	-0.012
-583.850	191.283	0.225	0.336
-582.836	-200.000	-0.007	0.046
-581.821	-56.645	-0.139	-0.061
-580.806	-80.334	-0.117	-0.039
-579.792	-92.569	-0.069	-0.019
-578.777	74.662	0.081	-0.085
-577.763	-200.000	-0.013	0.297
-576.748	262.034	0.026	0.044
-575.733	-117.150	0.145	0.026
-574.719	132.417	0.230	-0.294
-573.704	800.000	0.086	-0.238
-572.690	-92.809	-0.171	-0.047
-571.675	800.000	-0.031	0.117
-570.661	-89.706	0.300	-0.087
-569.646	-42.977	0.077	0.039
-568.631	604.708	0.022	-0.054
-567.617	69.787	0.095	-0.098
-566.602	-200.000	-0.044	-0.301
-565.588	-161.837	-0.320	-0.016
-564.573	112.728	0.232	0.279
-563.558	-38.237	0.059	-0.031
-562.544	81.877	0.059	-0.063
-561.529	-131.360	-0.095	-0.012
-560.515	227.477	-0.088	-0.143
-559.500	239.504	0.038	0.063
-558.485	-35.493	0.291	-0.157
-557.471	800.000	-0.099	-0.294
-556.456	14.299	-0.097	-0.075
-555.442	28.324	0.208	-0.175
-554.427	93.876	-0.168	-0.189
-553.412	55.744	-0.064	-0.062
-552.398	-200.000	-0.036	0.327
-551.383	-200.000	0.037	0.289
-550.369	-200.000	0.002	-0.060
-549.354	-94.483	-0.062	0.017
-548.339	-175.616	-0.371	-0.010
-547.325	-200.000	-0.091	-0.399
-546.310	-200.000	-0.016	-0.127
-545.296	-200.000	-0.066	-0.359
-544.281	-185.074	-0.458	0.007
-543.266	-80.642	-0.243	-0.080
-542.252	-10.891	0.320	0.210
-541.237	284.260	-0.248	0.442
-540.223	-101.289	-0.233	0.056
-539.208	-40.007	0.341	0.176
-538.193	394.040	-0.050	0.103
-537.179	-200.000	-0.006	0.069
-536.164	-95.040	0.077	0.021
-535.150	233.680	0.149	0.243
-534.135	3.361	-0.089	0.065
-533.121	-20.587	0.120	0.073
-532.106	-122.749	-0.458	0.073
-531.091	-51.029	-0.138	0.064
-530.077	-119.112	-0.230	-0.040
-529.062	27.379	-0.140	-0.117
-528.048	208.984	-0.144	0.224
-527.033	30.774	0.212	-0.180
-526.018	111.931	0.231	0.276
-525.004	19.778	-0.390	-0.311
-523.989	170.967	0.206	-0.292
-522.975	-29.683	-0.257	0.145
-521.960	159.764	-0.158	0.218
-520.945	-200.000	0.079	0.356
-519.931	-159.368	0.230	-0.013
-518.916	224.608	0.205	0.328
-517.902	-28.617	0.069	-0.039
-516.887	166.527	0.179	0.252
-515.872	55.520	0.162	0.155
-514.858	13.742	-0.193	0.149
-513.843	-13.777	0.128	0.082
-512.829	108.487	0.141	-0.166
-511.814	382.567	0.184	-0.375
-510.799	-30.361	-0.060	0.034
-509.785	71.220	0.280	0.288
-508.770	371.091	0.133	0.268
-507.756	-168.295	-0.388	0.015
-506.741	800.000	0.071	0.239
-505.726	-200.000	0.013	-0.233
-504.712	473.552	-0.083	0.186
-503.697	-151.116	0.169	0.013
-502.683	800.000	-0.099	0.314
-501.668	800.000	0.017	0.063
-500.653	-200.000	-0.022	0.191
-499.639	219.943	0.082	0.129
-498.624	-149.283	-0.045	-0.004
-497.610	175.797	-0.126	0.181
-496.595	5.267	0.114	-0.083
-495.581	-62.730	-0.352	0.145
-494.566	33.258	0.350	0.301
-493.551	-83.290	-0.195	-0.062
-492.537	558.369	0.065	0.156
-491.522	30.045	-0.130	0.110
-490.508	800.000	0.049	-0.190
-489.493	156.205	0.042	-0.057
-488.478	-144.617	0.436	0.040
-487.464	-64.274	0.458	0.184
-486.449	120.357	-0.080	0.099
-485.435	80.917	-0.082	-0.088
-484.420	-200.000	-0.006	0.035
-483.405	-61.986	0.178	0.074
-482.391	43.046	-0.139	-0.126
-481.376	-27.821	-0.093	-0.054
-480.362	-200.000	-0.046	-0.273
-479.347	-196.769	0.295	-0.002
-478.332	249.563	0.067	-0.113
-477.318	800.000	0.120	-0.345
-476.303	129.771	0.181	-0.229
-475.289	-39.466	-0.204	-0.106
-474.274	-176.097	0.260	-0.007
-473.259	51.806	-0.165	-0.155
-472.245	-103.954	-0.243	-0.056
-471.230	5.371	0.102	-0.075
-470.216	457.168	0.090	-0.198
-469.201	591.067	-0.103	0.252
-468.186	114.217	-0.136	-0.164
-467.172	16.265	-0.089	0.070
-466.157	64.610	-0.050	0.050
-465.143	-56.660	-0.169	0.074
-464.128	278.091	-0.111	-0.195
-463.113	800.000	0.071	0.255
-462.099	-76.608	0.216	0.075
-461.084	-166.492	-0.172	-0.007
-460.070	87.265	0.047	0.052
-459.055	145.768	0.134	-0.177
-458.040	-200.000	0.024	0.189
-457.026	672.459	-0.081	0.208
-456.011	-144.584	-0.208	-0.019
-454.997	119.346	-0.023	0.028
-453.982	-42.646	-0.056	0.028
-452.968	-200.000	-0.007	0.342
-451.953	-65.586	0.050	0.020
-450.938	-50.097	0.291	0.136
-449.924	-133.232	0.275	-0.034
-448.909	-133.085	-0.446	0.056
-447.895	-128.263	-0.212	-0.030
-446.880	-161.371	-0.087	0.004
-445.865	-99.886	-0.187	-0.046
-444.851	-73.194	0.184	-0.067
-443.836	-200.000	-0.020	0.255
-442.822	66.886	0.189	-0.191
-441.807	227.954	-0.053	0.085
-440.792	-200.000	-0.055	-0.255
-439.778	-57.965	0.294	-0.127
-438.763	-179.770	0.230	-0.005
-437.749	226.343	-0.278	-0.445
-436.734	81.742	0.171	-0.183
-435.719	800.000	-0.062	0.245
-434.705	-200.000	-0.063	0.290
-433.690	31.118	-0.117	-0.099
-432.676	-6.249	0.294	-0.198
-431.661	-80.387	0.295	-0.097
-430.646	79.215	-0.065	-0.069
-429.632	800.000	-0.053	-0.213
-428.617	-27.317	0.380	0.218
-427.603	-134.911	-0.232	-0.028
-426.588	-66.071	-0.165	0.065
-425.573	-82.479	-0.109	0.035
-424.559	34.804	-0.239	0.207
-423.544	-60.303	0.079	0.033
-422.530	-92.425	0.155	-0.043
-421.515	-45.065	-0.048	0.023
-420.500	83.988	-0.104	0.112
-419.486	-46.886	0.162	-0.078
-418.471	-128.185	-0.112	0.016
-417.457	239.897	0.024	-0.040
-416.442	-66.928	-0.134	-0.052
-415.428	19.016	-0.226	-0.179
-414.413	-141.536	0.403	0.040
-413.398	-47.795	0.133	0.063
-412.384	387.690	-0.051	0.105
-411.369	-200.000	0.050	0.215
-410.355	305.361	-0.140	0.256
-409.340	591.164	0.090	-0.218
-408.325	443.998	0.065	-0.141
-407.311	-200.000	-0.001	0.083
-406.296	-200.000	0.017	0.221
-405.282	644.778	-0.022	0.055
-404.267	50.722	0.252	0.235
-403.252	46.692	-0.183	-0.167
-402.238	371.935	0.123	-0.246
-401.223	800.000	-0.035	-0.115
-400.209	-200.000	-0.009	0.137
-399.194	94.928	-0.179	0.201
-398.179	62.754	0.146	-0.144
-397.165	135.034	0.116	-0.149
-396.150	800.000	0.077	-0.225
-395.136	19.334	0.057	0.045
-394.121	-121.588	-0.155	0.025
-393.106	-6.444	-0.032	-0.021
-392.092	800.000	-0.107	0.348
-391.077	-3.980	0.127	0.087
-390.063	160.956	0.065	-0.090
-389.048	-92.023	-0.125	0.035
-388.033	-200.000	0.005	0.461
-387.019	63.193	-0.230	0.227
-386.004	4.359	0.085	-0.062
-384.990	157.492	-0.204	-0.278
-383.975	800.000	0.033	-0.125
-382.960	87.708	0.252	0.275
-381.946	72.353	-0.195	0.200
-380.931	-136.259	-0.283	-0.033
-379.917	250.939	-0.200	0.336
-378.902	66.109	0.118	-0.118
-377.888	-200.000	0.059	-0.258
-376.873	618.900	-0.030	-0.075
-375.858	83.748	-0.019	0.020
-374.844	47.969	0.217	0.200
-373.829	62.545	0.167	0.164
-372.815	-8.462	0.137	0.091
-371.800	-200.000	-0.046	-0.220
-370.785	-200.000	0.008	0.157
-369.771	85.370	-0.076	0.082
-368.756	-59.422	0.230	-0.097
-367.742	-200.000	0.002	0.114
-366.727	-113.739	0.302	-0.058
-365.712	-200.000	0.063	0.315
-364.698	117.651	0.265	0.321
-363.683	-62.413	-0.458	-0.188
-362.669	325.645	-0.089	0.167
-361.654	360.079	0.208	0.409
-360.639	-62.344	-0.210	-0.086
-359.625	-140.420	-0.052	0.005
-358.610	-166.084	0.126	-0.005
-357.596	-200.000	0.004	-0.140
-356.581	100.214	0.158	-0.180
-355.566	499.978	0.079	0.179
-354.552	18.833	0.151	-0.119
-353.537	-41.596	-0.118	0.059
-352.523	-56.980	-0.088	0.038
-351.508	193.874	0.106	0.157
-350.493	207.086	0.294	-0.451
-349.479	-6.226	-0.306	-0.206
-348.464	43.446	-0.318	-0.286
-347.450	24.691	-0.228	-0.186
-346.435	-200.000	-0.046	0.292
-345.420	-68.665	0.204	-0.078
-344.406	800.000	-0.075	-0.289
-343.391	-200.000	-0.005	-0.521
-342.377	-6.224	0.263	0.177
-341.362	267.897	0.167	0.288
-340.348	-105.950	-0.321	0.071
-339.333	800.000	0.061	-0.259
-338.318	2.371	-0.082	0.059
-337.304	384.685	0.136	-0.275
-336.289	-200.000	0.037	-0.336
-335.275	-36.242	-0.178	-0.094
-334.260	486.933	-0.093	-0.208
-333.245	47.224	-0.166	0.152
-332.231	102.528	-0.142	-0.163
-331.216	-2.889	-0.314	-0.216
-330.202	335.829	0.066	0.126
-329.187	-200.000	0.048	0.270
-328.172	-200.000	-0.036	-0.263
-327.158	-30.546	0.205	0.114
-326.143	24.498	-0.277	-0.225
-325.129	197.721	0.132	0.199
-324.114	-111.901	0.248	0.049
-323.099	302.079	0.237	0.430
-322.085	-200.000	-0.531	-0.001
-321.070	-87.507	0.326	-0.097
-320.056	-92.883	-0.275	-0.075
-319.041	-42.164	0.186	-0.093
-318.026	-59.421	0.078	-0.033
-317.012	-39.958	-0.232	0.119
-315.997	-73.035	0.184	-0.067
-314.983	800.000	0.085	-0.323
-313.968	-30.117	-0.317	0.177
-312.953	-200.000	-0.013	-0.312
-311.939	442.479	0.108	-0.233
-310.924	-125.963	0.277	-0.041
-309.910	423.232	-0.173	-0.365
-308.895	-107.357	0.141	0.030
-307.880	800.000	-0.141	0.504
-306.866	89.972	-0.172	-0.189
-305.851	-35.782	0.133	-0.071
-304.837	38.420	-0.102	0.089
-303.822	-153.378	-0.142	0.010
-302.807	-94.600	0.138	0.037
-301.793	-172.082	0.190	-0.006
-300.778	93.094	-0.234	-0.260
-299.764	800.000	0.043	0.131
-298.749	-83.753	-0.545	-0.171
-297.735	-126.589	0.181	0.026
-296.720	-129.925	-0.118	0.016
-295.705	-95.918	-0.248	-0.065
-294.691	11.223	-0.102	0.077
-293.676	-62.064	-0.474	0.194
-292.662	16.797	0.222	-0.172
-291.647	800.000	-0.009	0.036
-290.632	-32.301	-0.298	-0.163
-289.618	-200.000	0.012	-0.149
-288.603	-86.858	0.206	-0.062
-287.589	800.000	-0.132	-0.463
-286.574	472.879	-0.129	-0.286
-285.559	108.740	0.266	-0.313
-284.545	-83.477	-0.074	-0.023
-283.530	-71.402	0.243	-0.089
-282.516	-1.976	0.315	-0.217
-281.501	-200.000	0.019	0.215
-280.486	42.610	-0.120	-0.108
-279.472	75.796	-0.037	-0.039
-278.457	-200.000	0.049	-0.517
-277.443	50.776	-0.244	0.227
-276.428	-55.381	-0.170	0.075
-275.413	-200.000	0.011	0.082
-274.399	-163.254	-0.038	0.002
-273.384	438.292	0.161	0.345
-272.370	800.000	0.023	0.090
-271.355	-32.895	-0.160	-0.087
-270.340	-200.000	0.036	0.236
-269.326	257.848	-0.053	0.089
-268.311	-200.000	0.062	-0.344
-267.297	800.000	-0.024	-0.087
-266.282	-127.691	0.180	0.026
-265.267	-51.943	0.303	-0.138
-264.253	-84.999	-0.179	0.055
-263.238	-200.000	0.031	0.181
-262.224	-58.754	0.177	-0.075
-261.209	-200.000	-0.064	-0.434
-260.195	-110.688	0.116	0.024
-259.180	800.000	0.072	-0.228
-258.165	-22.590	-0.142	-0.084
-257.151	633.646	-0.122	0.304
-256.136	-108.025	-0.116	0.025
-255.122	-114.131	-0.119	-0.023
-254.107	-28.456	-0.244	-0.138
-253.092	-200.000	-0.008	-0.183
-252.078	-200.000	-0.004	0.244
-251.063	-46.444	-0.150	0.072
-250.049	381.927	-0.031	0.063
-249.034	16.649	0.235	-0.183
-248.019	22.030	-0.014	0.012
-247.005	-50.436	-0.227	-0.105
-245.990	-0.701	-0.182	-0.126
-244.976	-200.000	0.032	0.310
-243.961	208.900	-0.146	-0.225
-242.946	-103.000	0.225	0.052
-241.932	-162.058	0.274	0.013
-240.917	-50.544	-0.237	0.109
-239.903	-153.097	-0.302	0.021
-238.888	-85.987	0.277	0.084
-237.873	59.121	0.060	-0.058
-236.859	-98.444	0.211	0.053
-235.844	-200.000	-0.002	0.200
-234.830	800.000	0.088	-0.323
-233.815	86.413	0.348	-0.375
-232.800	-200.000	0.020	0.103
-231.786	2.962	-0.092	0.066
-230.771	78.476	-0.206	0.216
-229.757	-200.000	0.010	0.524
-228.742	800.000	-0.094	-0.300
-227.727	-76.307	0.172	-0.059
-226.713	-200.000	0.026	0.193
-225.698	-3.545	0.217	-0.148
-224.684	-5.470	-0.117	0.079
-223.669	-9.138	-0.085	-0.056
-222.655	-66.729	-0.236	0.091
-221.640	800.000	-0.069	0.271
-220.625	-200.000	0.002	-0.283
-219.611	-31.038	0.125	-0.069
-218.596	45.384	-0.305	-0.276
-217.582	-149.720	0.399	-0.031
-216.567	-175.590	0.080	0.002
-215.552	38.401	-0.115	0.100
-214.538	-110.961	-0.174	-0.035
-213.523	33.517	0.153	-0.130
-212.509	655.743	0.073	-0.183
-211.494	-200.000	-0.007	-0.366
-210.479	-129.093	0.305	0.042
-209.465	188.154	0.194	-0.284
-208.450	684.316	-0.094	0.241
-207.436	-29.456	0.378	0.211
-206.421	389.517	-0.077	0.157
-205.406	-200.000	-0.052	-0.296
-204.392	-127.393	0.262	0.037
-203.377	83.650	0.255	0.272
-202.363	-23.200	0.379	0.223
-201.348	39.848	-0.077	0.068
-200.333	-11.886	0.300	0.193
-199.319	181.276	-0.205	-0.295
-198.304	452.272	-0.094	0.204
-197.290	84.770	0.057	0.061
-196.275	66.514	0.288	0.287
-195.260	-68.352	-0.267	-0.102
-194.246	800.000	0.074	0.217
-193.231	54.455	0.079	0.074
-192.217	-64.941	0.405	0.160
-191.202	79.290	-0.096	0.101
-190.187	255.031	0.133	0.222
-189.173	56.515	-0.099	0.094
-188.158	-111.097	0.099	0.020
-187.144	-98.565	-0.300	0.075
-186.129	-200.000	0.046	-0.285
-185.114	331.162	0.094	0.178
-184.100	-32.154	0.125	0.069
-183.085	-39.636	0.269	0.137
-182.071	-8.368	-0.151	-0.099
-181.056	-73.415	-0.310	-0.111
-180.042	137.356	-0.123	-0.157
-179.027	171.582	0.132	0.185
-178.012	-200.000	-0.019	0.123
-176.998	-16.291	-0.091	0.057
-175.983	-70.165	-0.212	0.079
-174.969	-64.649	-0.184	0.073
-173.954	-164.543	-0.368	0.016
-172.939	105.469	-0.255	-0.295
-171.925	-39.752	0.323	-0.165
-170.910	-200.000	-0.026	0.220
-169.896	152.470	-0.102	0.136
-168.881	277.326	-0.028	0.048
-167.866	-47.166	0.057	-0.027
-166.852	799.392	-0.035	0.095
-165.837	88.176	-0.121	0.131
-164.823	-172.944	0.201	-0.006
-163.808	-75.738	0.220	-0.076
-162.793	-62.757	-0.265	-0.107
-161.779	142.836	0.067	0.087
-160.764	341.250	-0.103	0.196
-159.750	-53.418	0.250	-0.112
-158.735	257.478	-0.079	-0.132
-157.720	-149.884	0.054	-0.004
-156.706	-200.000	0.033	0.329
-155.691	800.000	0.155	-0.450
-154.677	4.790	-0.207	0.149
-153.662	-63.019	-0.356	-0.144
-152.647	737.632	0.144	-0.377
-151.633	-173.455	0.300	-0.009
-150.618	367.709	0.054	-0.107
-149.604	-200.000	-0.050	-0.332
-148.589	-200.000	0.063	-0.281
-147.574	-28.208	-0.078	0.044
-146.560	23.387	-0.057	-0.046
-145.545	-200.000	-0.010	0.063
-144.531	54.476	-0.114	-0.107
-143.516	697.976	-0.133	-0.341
-142.502	635.396	-0.034	-0.085
-141.487	602.641	-0.074	-0.179
-140.472	-200.000	0.057	0.362
-139.458	-22.983	0.377	0.222
-138.443	-145.791	-0.205	0.018
-137.429	218.862	0.214	-0.334
-136.414	-162.498	0.458	-0.022
-135.399	64.424	0.084	0.082
-134.385	-50.861	-0.073	-0.033
-133.370	267.749	-0.144	-0.247
-132.356	153.012	0.080	-0.107
-131.341	48.771	-0.047	0.043
-130.326	8.860	0.107	0.079
-129.312	-121.834	0.271	-0.044
-128.297	-116.693	-0.244	-0.044
-127.283	800.000	0.089	0.248
-126.268	-77.771	-0.147	-0.050
-125.253	800.000	-0.064	0.246
-124.239	-200.000	-0.037	0.204
-123.224	247.879	0.152	0.250
-122.210	-200.000	0.025	0.140
-121.195	102.085	0.158	-0.180
-120.180	337.425	-0.141	-0.268
-119.166	-126.416	0.259	0.038
-118.151	-82.149	0.270	-0.086
-117.137	-200.000	-0.068	-0.368
-116.122	-200.000	-0.011	0.146
-115.107	-40.938	0.222	0.112
-114.093	-7.457	0.091	0.060
-113.078	233.905	0.193	-0.310
-112.064	-200.000	0.006	-0.177
-111.049	-200.000	0.019	0.100
-110.034	-7.539	0.191	0.126
-109.020	-200.000	-0.005	-0.066
-108.005	-167.546	0.290	-0.011
-106.991	-200.000	-0.008	0.296
-105.976	-51.353	0.063	-0.029
-104.962	23.908	-0.271	0.218
-103.947	-200.000	-0.018	-0.136
-102.932	-200.000	-0.050	-0.249
-101.918	177.209	0.179	0.254
-100.903	-0.780	-0.209	-0.144
-99.889	-63.610	-0.132	0.053
-98.874	568.304	-0.085	0.202
-97.859	-58.985	-0.387	0.163
-96.845	-67.034	0.254	0.098
-95.830	-35.750	0.277	-0.146
-94.816	-136.551	0.145	0.016
-93.801	-56.323	-0.290	-0.126
-92.786	293.155	-0.121	-0.214
-91.772	-200.000	-0.026	0.117
-90.757	446.719	0.076	0.162
-89.743	-63.882	0.352	-0.140
-88.728	-19.357	-0.090	-0.054
-87.713	54.391	-0.210	0.197
-86.699	-181.926	-0.070	-0.001
-85.684	-61.904	0.162	0.066
-84.670	158.332	0.089	-0.120
-83.655	146.348	0.060	-0.078
-82.640	168.893	-0.080	0.111
-81.626	800.000	0.037	-0.145
-80.611	-200.000	0.008	-0.034
-79.597	-200.000	0.040	-0.236
-78.582	364.518	0.188	0.368
-77.567	165.862	0.185	0.255
-76.553	-22.784	0.152	0.089
-75.538	-168.273	-0.032	-0.001
-74.524	-200.000	-0.007	0.333
-73.509	800.000	-0.072	-0.254
-72.494	-72.339	0.216	-0.078
-71.480	90.753	-0.094	-0.102
-70.465	-200.000	-0.002	0.080
-69.451	115.808	0.118	-0.141
-68.436	800.000	0.064	-0.230
-67.422	-81.660	-0.224	-0.071
-66.407	-155.087	0.226	0.014
-65.392	326.033	0.174	0.325
-64.378	37.146	0.032	0.027
-63.363	800.000	0.113	0.336
-62.349	-28.329	-0.181	0.102
-61.334	130.096	-1.063	-1.324
-60.319	-72.958	0.964	0.345
-59.305	700.649	-0.492	-1.261
-58.290	800.000	0.558	1.588
-57.276	621.665	0.652	1.598
-56.261	-200.000	133.799	673.150
-55.246	327.335	1682.145	3138.437
-54.232	132.817	2817.496	3537.832
-53.217	86.049	2208.484	2365.018
-52.203	30.749	1722.272	1434.341
-51.188	23.504	1544.603	1236.033
-50.173	21.841	1522.727	1207.039
-49.159	46.153	1598.414	1440.118
-48.144	42.737	1609.016	1425.449
-47.130	23.647	1556.568	1246.415
-46.115	20.748	1541.383	1214.016
-45.100	20.524	1537.455	1209.318
-44.086	20.578	1535.517	1208.125
-43.071	20.505	1533.951	1206.335
-42.057	20.439	1532.634	1204.790
-41.042	20.462	1530.550	1203.270
-40.027	20.483	1529.244	1202.340
-39.013	20.376	1527.594	1200.250
-37.998	20.388	1526.524	1199.445
-36.984	20.394	1525.718	1198.808
-35.969	20.402	1524.171	1197.602
-34.954	20.481	1522.602	1196.865
-33.940	20.405	1521.392	1195.342
-32.925	20.522	1519.618	1194.708
-31.911	20.449	1518.545	1193.313
-30.896	20.538	1517.545	1193.089
-29.881	20.569	1515.633	1191.751
-28.867	20.607	1514.338	1190.950
-27.852	20.581	1512.861	1189.562
-26.838	20.614	1511.645	1188.782
-25.823	20.554	1510.151	1187.154
-24.809	20.546	1508.615	1185.843
-23.794	20.535	1507.159	1184.575
-22.779	20.614	1506.003	1184.156
-21.765	20.535	1505.620	1183.270
-20.750	20.515	1504.141	1181.923
-19.736	20.611	1502.561	1181.287
-18.721	20.551	1501.477	1179.984
-17.706	20.474	1501.190	1179.190
-16.692	20.462	1499.675	1177.871
-15.677	20.572	1498.418	1177.583
-14.663	20.476	1497.499	1176.160
-13.648	20.473	1496.647	1175.427
-12.633	20.424	1496.018	1174.552
-11.619	20.527	1494.592	1174.086
-10.604	20.539	1493.962	1173.624
-9.590	20.477	1493.475	1172.779
-8.575	20.512	1491.913	1171.741
-7.560	20.532	1491.033	1171.139
-6.546	20.543	1490.360	1170.635
-5.531	20.433	1489.283	1169.006
-4.517	20.449	1488.140	1168.170
-3.502	20.478	1487.295	1167.651
-2.487	20.502	1485.980	1166.734
-1.473	20.457	1485.300	1165.849
-0.458	20.553	1483.791	1165.264
0.556	19.409	1474.014	1154.587
1.571	16.685	1450.585	1118.169
2.586	13.704	1389.737	1052.279
3.600	12.412	1304.863	980.226
4.615	11.377	1261.222	941.388
5.629	10.114	1203.568	891.314
6.644	5.213	1121.791	805.455
7.659	1.108	1087.245	760.028
8.673	0.606	1081.893	753.715
9.688	0.541	1078.486	750.952
10.702	0.582	1076.972	750.035
11.717	0.531	1075.151	748.445
12.731	2.102	1075.373	756.321
13.746	7.652	1082.325	788.753
14.761	13.726	1090.847	825.200
15.775	16.738	1094.157	842.637
16.790	16.704	1093.648	842.001
17.804	15.801	1091.104	835.489
18.819	14.826	1089.607	829.432
19.834	14.505	1088.002	826.545
20.848	14.207	1087.243	824.417
21.863	14.143	1086.217	823.248
22.877	13.735	1085.223	820.407
23.892	13.604	1084.359	819.035
24.907	13.509	1083.367	817.742
25.921	13.488	1082.705	817.070
26.936	13.618	1082.009	817.113
27.950	13.657	1081.622	816.936
28.965	13.584	1080.999	816.038
29.980	13.564	1080.209	815.271
30.994	13.708	1078.520	814.628
32.009	13.731	1078.031	814.300
33.023	13.804	1077.325	814.053
34.038	13.756	1076.579	813.183
35.053	13.735	1075.511	812.202
36.067	13.789	1074.429	811.575
37.082	13.743	1073.835	810.829
38.096	13.533	1073.854	809.749
39.111	13.686	1072.794	809.625
40.126	13.741	1071.935	809.174
41.140	13.708	1070.234	807.653
42.155	13.580	1069.114	806.115
43.169	13.504	1068.672	805.343
44.184	13.484	1067.258	804.106
45.199	13.564	1066.087	803.542
46.213	13.574	1065.220	802.867
47.228	13.482	1064.776	802.017
48.242	13.639	1063.325	801.613
49.257	13.578	1062.433	800.572
50.271	13.632	1061.343	799.943
51.286	13.596	1060.476	799.042
52.301	13.644	1059.953	798.811
53.315	13.670	1059.022	798.165
54.330	13.653	1058.221	797.406
55.344	13.624	1057.122	796.369
56.359	13.510	1056.437	795.234
57.374	13.613	1055.538	794.984
58.388	13.680	1054.600	794.527
59.403	13.643	1053.652	793.563
60.417	13.662	1052.806	792.948
61.432	13.541	1052.493	792.063
62.447	13.507	1051.829	791.331
63.461	13.531	1050.825	790.618
64.476	13.447	1050.297	789.753
65.490	13.552	1048.806	789.061
66.505	13.532	1048.256	788.485
67.520	13.612	1047.161	787.970
68.534	13.565	1046.687	787.321
69.549	13.598	1045.870	786.794
70.563	13.577	1044.595	785.664
71.578	13.541	1044.396	785.274
72.593	13.508	1043.362	784.273
73.607	13.487	1042.215	783.241
74.622	13.431	1041.867	782.646
75.636	13.402	1040.349	781.298
76.651	13.543	1039.510	781.266
77.666	13.404	1039.330	780.402
78.680	13.379	1038.413	779.527
79.695	13.497	1038.085	779.771
80.709	13.593	1036.940	779.292
81.724	13.614	1036.339	778.869
82.739	13.597	1035.333	777.963
83.753	13.501	1035.114	777.282
84.768	13.553	1034.190	776.763
85.782	13.669	1033.406	776.647
86.797	13.697	1032.434	775.978
87.812	13.726	1031.596	775.419
88.826	13.786	1030.358	774.699
89.841	13.655	1029.497	773.370
90.855	13.680	1028.687	772.811
91.870	13.704	1028.050	772.375
92.884	13.677	1027.738	771.948
93.899	13.673	1027.014	771.318
94.914	13.814	1025.618	770.854
95.928	13.863	1025.441	770.881
96.943	13.741	1024.807	769.772
97.957	13.726	1023.743	768.833
98.972	13.805	1022.727	768.370
99.987	13.663	1022.392	767.392
101.001	13.758	1021.227	766.886
102.016	13.784	1020.519	766.409
103.030	13.663	1019.367	764.918
104.045	13.704	1018.732	764.560
105.060	13.715	1017.500	763.621
106.074	13.736	1016.547	762.935
107.089	13.666	1015.899	762.061
108.103	13.629	1014.843	761.031
109.118	13.696	1013.856	760.527
110.133	13.592	1012.800	759.191
111.147	13.639	1012.398	759.040
112.162	13.664	1011.384	758.328
113.176	13.618	1010.632	757.485
114.191	13.639	1009.777	756.874
115.206	13.780	1008.705	756.645
116.220	13.710	1007.743	755.540
117.235	13.688	1006.829	754.689
118.249	13.637	1006.295	753.990
119.264	13.595	1005.336	753.013
120.279	13.603	1004.841	752.610
121.293	13.693	1003.629	752.043
122.308	13.747	1002.598	751.450
123.322	13.583	1002.161	750.314
124.337	13.706	1000.746	749.742
125.352	13.706	999.337	748.624
126.366	13.619	998.340	747.415
127.381	13.592	997.445	746.559
128.395	13.591	996.469	745.759
129.410	13.665	995.174	745.055
130.424	13.694	994.294	744.459
131.439	13.591	993.238	743.140
132.454	13.669	992.861	743.145
133.468	13.772	991.568	742.571
134.483	13.838	991.056	742.417
135.497	13.669	990.588	741.244
136.512	13.697	989.706	740.646
137.527	13.758	988.585	740.012
138.541	13.749	987.880	739.378
139.556	13.734	987.344	738.848
140.570	13.681	986.840	738.167
141.585	13.753	985.801	737.647
142.600	13.721	985.435	737.162
143.614	13.668	984.828	736.407
144.629	13.827	983.700	736.208
145.643	13.985	982.915	736.252
146.658	13.886	981.805	734.920
147.673	13.887	981.295	734.477
148.687	13.830	979.851	733.078
149.702	13.911	978.890	732.654
150.716	13.801	978.501	731.813
151.731	13.733	977.734	730.874
152.746	13.760	976.884	730.294
153.760	13.704	976.373	729.601
154.775	13.938	974.779	729.371
155.789	13.893	974.375	728.808
156.804	13.826	973.545	727.826
157.819	13.820	973.245	727.514
158.833	13.913	972.231	727.096
159.848	14.062	971.418	727.075
160.862	13.961	970.852	726.148
161.877	13.959	969.807	725.293
162.892	14.035	968.663	724.705
163.906	13.920	967.886	723.560
164.921	13.789	967.698	722.785
165.935	13.925	966.611	722.499
166.950	13.992	965.363	721.791
167.964	13.941	964.142	720.596
168.979	14.200	962.717	720.587
169.994	13.957	962.507	719.316
171.008	13.979	961.596	718.665
172.023	14.038	961.106	718.493
173.037	13.881	960.165	717.046
174.052	14.092	959.306	717.251
175.067	14.009	958.533	716.254
176.081	14.151	957.214	715.816
177.096	14.081	956.710	715.072
178.110	13.966	955.981	713.970
179.125	14.048	955.246	713.709
180.140	13.997	954.493	712.866
181.154	14.109	954.107	712.995
182.169	14.059	953.319	712.127
183.183	14.255	952.273	712.123
184.198	14.182	951.868	711.444
185.213	14.283	950.905	711.096
186.227	14.236	950.258	710.348
187.242	14.329	949.787	710.329
188.256	14.265	949.159	709.522
189.271	14.239	948.409	708.789
190.286	14.402	947.456	708.706
191.300	14.260	946.746	707.508
192.315	14.246	946.154	706.945
193.329	14.161	945.755	706.222
194.344	14.114	945.017	705.412
195.359	14.077	944.723	704.973
196.373	14.168	943.505	704.386
197.388	14.282	943.147	704.540
198.402	14.228	942.813	704.001
199.417	14.353	942.323	704.100
200.432	14.442	941.961	704.144
201.446	14.384	941.302	703.343
202.461	14.563	940.633	703.534
203.475	14.486	940.606	703.130
204.490	14.454	939.508	702.110
205.504	14.509	938.554	701.569
206.519	14.467	937.679	700.673
207.534	14.447	937.325	700.262
208.548	14.525	936.288	699.753
209.563	14.435	935.967	699.077
210.577	14.591	934.889	698.861
211.592	14.582	934.459	698.439
212.607	14.596	933.838	697.972
213.621	14.583	933.304	697.457
214.636	14.610	932.140	696.638
215.650	14.638	931.749	696.402
216.665	14.583	931.366	695.826
217.680	14.596	930.614	695.255
218.694	14.687	930.224	695.281
219.709	14.751	929.289	694.790
220.723	14.774	928.895	694.527
221.738	14.809	927.976	693.924
222.753	14.649	927.311	692.703
223.767	14.773	926.592	692.617
224.782	14.816	925.380	691.826
225.796	14.756	924.985	691.224
226.811	14.860	923.875	690.761
227.826	14.910	923.719	690.792
228.840	14.913	922.636	689.930
229.855	14.964	921.820	689.470
230.869	14.692	921.812	688.285
231.884	14.791	920.756	687.841
232.899	14.781	920.356	687.439
233.913	14.850	919.389	686.941
234.928	14.854	918.632	686.330
235.942	14.872	917.999	685.870
236.957	14.856	917.274	685.201
237.972	14.972	916.622	685.133
238.986	14.934	915.861	684.346
240.001	14.850	915.406	683.602
241.015	14.923	914.442	683.121
242.030	14.985	913.852	682.873
243.045	15.003	913.211	682.407
244.059	15.076	912.358	682.006
245.074	15.017	911.700	681.212
246.088	15.068	910.998	680.834
247.103	14.953	910.913	680.243
248.117	15.169	910.105	680.460
249.132	15.110	909.712	679.864
250.147	15.127	909.071	679.393
251.161	15.248	908.183	679.160
252.176	15.296	907.207	678.564
253.190	15.295	906.750	678.161
254.205	15.230	906.137	677.378
255.220	15.423	905.547	677.656
256.234	15.419	904.798	677.018
257.249	15.271	904.304	675.994
258.263	15.383	903.867	676.057
259.278	15.335	903.268	675.357
260.293	15.380	902.613	674.988
261.307	15.466	902.156	674.935
262.322	15.517	901.544	674.621
263.336	15.591	900.899	674.374
264.351	15.477	900.266	673.386
265.366	15.391	900.076	672.836
266.380	15.441	899.414	672.486
267.395	15.633	898.052	672.173
268.409	15.576	897.483	671.462
269.424	15.584	897.383	671.356
270.439	15.591	896.102	670.367
271.453	15.558	895.160	669.471
272.468	15.568	894.620	669.050
273.482	15.591	894.024	668.637
274.497	15.543	893.330	667.868
275.512	15.675	892.655	667.829
276.526	15.630	891.718	666.889
277.541	15.616	891.712	666.769
278.555	15.727	890.787	666.460
279.570	15.548	890.609	665.558
280.585	15.696	889.874	665.534
281.599	15.711	888.630	664.607
282.614	15.800	888.404	664.728
283.628	15.822	887.702	664.234
284.643	15.604	887.505	663.164
285.657	15.815	886.774	663.392
286.672	15.770	886.036	662.605
287.687	15.794	885.693	662.385
288.701	15.875	885.167	662.250
289.716	15.911	884.524	661.853
290.730	15.836	883.703	660.884
291.745	15.811	883.305	660.432
292.760	15.915	882.373	660.082
293.774	15.977	881.474	659.597
294.789	15.964	881.233	659.307
295.803	15.896	880.571	658.486
296.818	15.977	880.016	658.330
297.833	16.032	879.237	657.905
298.847	15.932	878.458	656.873
299.862	16.019	877.849	656.699
300.876	16.018	876.986	655.991
301.891	15.986	876.413	655.379
302.906	16.021	875.625	654.866
303.920	16.047	875.060	654.490
304.935	16.213	874.603	654.734
305.949	16.046	874.200	653.726
306.964	16.214	873.257	653.614
307.979	16.211	872.357	652.871
308.993	16.225	872.087	652.666
310.008	16.365	871.321	652.576
311.022	16.327	871.051	652.166
312.037	16.161	870.955	651.396
313.052	16.282	870.042	651.125
314.066	16.251	869.519	650.554
315.081	16.367	868.680	650.317
316.095	16.329	868.005	649.607
317.110	16.246	867.980	649.213
318.125	16.231	867.473	648.718
319.139	16.166	866.873	647.960
320.154	16.339	865.954	647.881
321.168	16.393	865.447	647.653
322.183	16.367	865.003	647.162
323.197	16.434	864.410	646.919
324.212	16.293	863.731	645.815
325.227	16.435	863.214	645.914
326.241	16.304	862.983	645.183
327.256	16.339	862.077	644.580
328.270	16.434	861.415	644.391
329.285	16.455	861.040	644.135
330.300	16.237	860.268	642.669
331.314	16.404	859.876	642.956
332.329	16.454	859.280	642.642
333.343	16.527	858.231	642.079
334.358	16.605	857.843	642.029
335.373	16.392	857.414	640.840
336.387	16.636	856.709	641.184
337.402	16.432	856.692	640.340
338.416	16.681	855.420	640.275
339.431	16.670	855.453	640.201
340.446	16.716	854.447	639.567
341.460	16.672	854.317	639.244
342.475	16.655	853.557	638.557
343.489	16.602	853.011	637.892
344.504	16.715	852.655	637.995
345.519	16.734	851.803	637.372
346.533	16.848	851.099	637.218
347.548	16.737	850.882	636.580
348.562	16.793	850.542	636.480
349.577	16.805	849.491	635.684
350.592	16.584	849.497	634.801
351.606	16.620	848.833	634.383
352.621	16.759	848.352	634.489
353.635	16.775	847.913	634.165
354.650	16.877	847.299	634.032
355.665	16.860	846.806	633.543
356.679	16.792	846.564	633.052
357.694	16.832	845.986	632.712
358.708	16.914	845.207	632.380
359.723	17.085	844.689	632.573
360.738	16.891	844.131	631.376
361.752	16.915	843.872	631.217
362.767	17.009	842.903	630.785
363.781	17.095	842.702	630.901
364.796	16.940	842.577	630.174
365.810	16.930	842.113	629.732
366.825	17.061	841.352	629.596
367.840	17.019	841.232	629.293
368.854	17.176	840.629	629.370
369.869	17.152	840.178	628.887
370.883	17.066	839.359	627.901
371.898	16.976	839.213	627.401
372.913	17.113	838.713	627.479
373.927	17.239	838.062	627.402
374.942	17.428	836.837	627.126
375.956	17.289	836.470	626.284
376.971	17.192	835.798	625.369
377.986	17.396	835.501	625.842
379.000	17.243	835.029	624.869
380.015	17.323	834.606	624.790
381.029	17.335	833.943	624.284
382.044	17.379	833.210	623.843
383.059	17.287	832.892	623.211
384.073	17.297	832.105	622.605
385.088	17.416	831.551	622.569
386.102	17.363	831.086	621.971
387.117	17.418	830.258	621.497
388.132	17.373	830.162	621.206
389.146	17.399	829.875	621.033
390.161	17.393	829.126	620.396
391.175	17.499	828.753	620.446
392.190	17.434	828.617	620.053
393.205	17.382	827.997	619.347
394.219	17.353	827.573	618.867
395.234	17.465	827.039	618.821
396.248	17.452	826.456	618.281
397.263	17.414	826.268	617.949
398.278	17.500	825.468	617.610
399.292	17.410	825.173	617.007
400.307	17.683	824.287	617.278
401.321	17.562	824.287	616.787
402.336	17.731	823.758	616.948
403.350	17.498	823.207	615.637
404.365	17.673	822.278	615.519
405.380	17.869	822.251	616.153
406.394	17.794	821.816	615.504
407.409	17.728	821.505	614.978
408.423	17.716	821.004	614.504
409.438	17.714	820.680	614.200
410.453	17.680	820.164	613.636
411.467	17.830	819.422	613.568
412.482	17.862	819.116	613.400
413.496	17.948	818.219	612.980
414.511	17.970	818.143	612.950
415.526	17.837	817.773	612.139
416.540	17.940	817.603	612.327
417.555	18.055	816.791	612.076
418.569	17.977	816.444	611.484
419.584	17.869	816.166	610.834
420.599	17.940	815.662	610.657
421.613	115.138	1300.791	1492.043
422.628	99.749	1371.422	1492.118
