DTS Sentinel unit serial number:	SN413079Multiplexer serial number:	ORYXHardware model number:	OX4-SRSoftware version number:	ORYX F/W v4.00 Oryx Data Collector v3.7.2.0data status	okinstallation	princeton_trtdifferential loss correction	single-endedforward channel	channel 3reverse channel	N/Adate	2019/09/13time	01:20:35forward acquisition time	60.00reverse acquisition time	0.00gamma	496.2192k internal	0.2333k external	0.2333temperature offset calibration	1.0122default loss term (dB/km)	0.3790temperature slope calibration	1.0000multiplexer offset coefficient	1.0000multiplexer slope coefficient	1.0000fibre end	0.00T internal ref (°C)	27.87T ext. ref 1 (°C)	3.71T ext. ref 2 (°C)	22.45length (m)	temperature (°C)	Stokes	anti-Stokes-747.200	261.245	-0.152	-0.264
-746.185	-200.000	0.037	0.371
-745.171	-53.707	0.528	0.243
-744.156	-142.838	-0.193	0.019
-743.142	-200.000	0.029	-0.253
-742.127	800.000	-0.097	0.329
-741.112	-64.913	0.082	-0.033
-740.098	704.127	0.113	-0.299
-739.083	-153.819	0.132	0.009
-738.069	119.774	0.125	0.156
-737.054	-182.225	-0.223	0.004
-736.039	-37.599	-0.062	0.033
-735.025	-66.559	0.325	0.130
-734.010	-111.684	-0.330	0.067
-732.996	-174.620	-0.351	-0.010
-731.981	-142.043	-0.156	0.016
-730.966	-137.701	0.077	-0.009
-729.952	-200.000	-0.046	-0.693
-728.937	59.123	0.183	-0.181
-727.923	170.041	-0.072	-0.103
-726.908	128.506	0.021	-0.027
-725.894	-33.538	-0.195	-0.108
-724.879	26.347	-0.202	-0.169
-723.864	-32.728	0.063	-0.035
-722.850	-129.133	-0.114	-0.016
-721.835	197.052	0.025	-0.038
-720.821	-139.480	0.327	-0.035
-719.806	-200.000	-0.022	-0.192
-718.791	215.926	0.195	-0.311
-717.777	133.122	-0.231	0.299
-716.762	-106.322	-0.548	-0.123
-715.748	-131.101	-0.124	-0.017
-714.733	-174.650	0.193	0.006
-713.718	200.588	0.162	0.250
-712.704	-95.669	-0.225	0.060
-711.689	76.414	0.046	0.049
-710.675	-200.000	-0.037	0.528
-709.660	136.777	0.122	-0.160
-708.645	94.659	0.108	-0.124
-707.631	-90.826	-0.110	-0.032
-706.616	422.909	-0.022	-0.048
-705.602	-97.123	0.249	-0.065
-704.587	2.631	0.272	-0.198
-703.572	473.890	-0.107	-0.242
-702.558	8.116	-0.218	0.164
-701.543	-200.000	-0.055	0.280
-700.529	-117.458	0.305	0.055
-699.514	-39.622	-0.173	0.091
-698.499	800.000	-0.064	-0.205
-697.485	800.000	-0.084	-0.258
-696.470	-200.000	0.010	-0.132
-695.456	800.000	-0.027	-0.090
-694.441	299.972	-0.094	0.174
-693.426	8.957	0.133	0.100
-692.412	800.000	0.161	0.482
-691.397	10.876	0.173	0.133
-690.383	76.322	-0.112	0.119
-689.368	250.427	0.034	-0.058
-688.354	167.698	0.056	0.080
-687.339	23.620	-0.161	0.133
-686.324	-139.994	-0.152	-0.016
-685.310	-3.005	0.222	-0.155
-684.295	151.137	0.078	-0.107
-683.281	486.039	0.102	0.233
-682.266	126.627	-0.016	-0.020
-681.251	25.703	0.087	0.073
-680.237	173.305	-0.190	0.274
-679.222	-90.612	-0.325	-0.094
-678.208	738.990	-0.119	0.319
-677.193	759.559	0.029	0.079
-676.178	-50.669	0.134	0.063
-675.164	147.495	-0.049	-0.066
-674.149	731.276	-0.045	-0.121
-673.135	-139.005	0.119	-0.013
-672.120	60.483	-0.122	-0.121
-671.105	-42.284	0.098	0.050
-670.091	66.923	0.214	-0.218
-669.076	-98.240	0.119	-0.031
-668.062	800.000	-0.026	-0.108
-667.047	34.144	-0.282	-0.246
-666.032	-51.652	0.146	-0.068
-665.018	200.603	-0.105	-0.162
-664.003	-89.835	-0.305	-0.090
-662.989	40.421	0.118	0.107
-661.974	-127.319	0.550	-0.080
-660.959	-120.814	0.043	0.007
-659.945	-90.316	0.052	0.015
-658.930	800.000	0.099	0.369
-657.916	36.385	-0.233	-0.206
-656.901	3.382	-0.125	-0.091
-655.886	203.790	0.090	0.140
-654.872	-101.375	0.098	-0.024
-653.857	70.138	-0.129	-0.134
-652.843	28.628	-0.154	-0.131
-651.828	206.766	-0.123	0.193
-650.814	87.930	-0.086	-0.095
-649.799	-47.559	0.154	0.075
-648.784	416.695	0.063	-0.135
-647.770	800.000	0.056	0.191
-646.755	81.682	-0.231	0.251
-645.741	-85.140	-0.342	0.107
-644.726	-22.409	-0.268	0.163
-643.711	431.275	-0.041	-0.090
-642.697	-56.531	-0.205	0.091
-641.682	-200.000	-0.042	-0.230
-640.668	411.362	-0.070	0.148
-639.653	-45.093	-0.276	0.137
-638.638	31.068	-0.193	0.166
-637.624	-107.349	0.197	0.043
-636.609	-63.788	0.174	0.071
-635.595	362.639	0.162	-0.325
-634.580	47.943	-0.131	0.122
-633.565	16.780	0.169	0.134
-632.551	41.933	-0.097	0.088
-631.536	341.929	0.121	0.236
-630.522	38.629	-0.047	-0.042
-629.507	-33.743	-0.033	0.018
-628.492	-48.152	0.231	0.112
-627.478	-99.880	0.306	-0.076
-626.463	381.582	-0.161	-0.331
-625.449	-161.487	0.260	0.013
-624.434	-75.326	-0.067	-0.024
-623.419	-183.482	-0.101	-0.002
-622.405	-200.000	0.010	-0.076
-621.390	-56.531	0.233	-0.103
-620.376	338.536	0.123	0.240
-619.361	-129.312	-0.214	0.030
-618.346	-200.000	-0.012	-0.490
-617.332	36.087	-0.063	0.055
-616.317	-200.000	0.045	-0.247
-615.303	-142.876	0.157	-0.015
-614.288	-129.612	-0.259	-0.036
-613.273	-126.630	0.169	-0.025
-612.259	800.000	0.025	0.107
-611.244	800.000	-0.006	0.020
-610.230	-124.283	-0.165	0.026
-609.215	83.033	0.260	-0.283
-608.201	448.317	0.068	0.150
-607.186	135.233	0.186	-0.242
-606.171	565.570	-0.115	0.278
-605.157	-200.000	0.028	-0.337
-604.142	-111.437	-0.103	-0.021
-603.128	13.425	0.155	-0.120
-602.113	-200.000	-0.014	-0.328
-601.098	-143.927	0.091	-0.009
-600.084	181.486	-0.241	0.355
-599.069	-14.767	0.279	-0.179
-598.055	132.698	-0.144	0.186
-597.040	800.000	-0.094	-0.314
-596.025	27.721	-0.067	-0.056
-595.011	-200.000	0.048	-0.248
-593.996	-0.531	0.170	0.120
-592.982	-141.039	0.225	0.023
-591.967	-29.130	-0.171	0.098
-590.952	-18.902	-0.320	0.199
-589.938	-200.000	0.017	-0.186
-588.923	1.415	-0.333	-0.239
-587.909	119.490	0.112	-0.139
-586.894	-200.000	-0.006	-0.072
-585.879	451.413	-0.083	-0.183
-584.865	-89.042	0.139	0.041
-583.850	-62.710	0.075	0.031
-582.836	56.275	-0.177	-0.172
-581.821	181.229	0.157	-0.231
-580.806	-142.442	-0.366	0.036
-579.792	79.775	0.026	0.028
-578.777	-15.993	-0.141	0.090
-577.763	-85.714	-0.259	-0.080
-576.748	-119.884	-0.406	-0.070
-575.733	-39.021	-0.231	-0.121
-574.719	-5.632	-0.177	-0.121
-573.704	-152.626	-0.216	0.015
-572.690	193.428	0.194	-0.293
-571.675	-145.983	0.275	-0.024
-570.661	-13.203	0.282	-0.183
-569.646	36.829	-0.080	0.070
-568.631	800.000	0.062	0.212
-567.617	-79.493	0.073	0.024
-566.602	-74.768	-0.196	-0.070
-565.588	-125.029	0.184	0.028
-564.573	97.930	-0.084	0.097
-563.558	0.352	0.344	0.246
-562.544	-37.236	0.140	0.075
-561.529	53.129	-0.168	0.161
-560.515	135.059	-0.123	-0.160
-559.500	-200.000	0.090	0.564
-558.485	-200.000	-0.002	-0.020
-557.471	174.909	0.097	-0.141
-556.456	-62.486	-0.115	-0.048
-555.442	-59.260	-0.359	-0.154
-554.427	785.696	0.077	0.210
-553.412	715.517	-0.105	-0.277
-552.398	-41.123	-0.263	-0.135
-551.383	-102.287	-0.516	0.124
-550.369	-200.000	0.068	-0.404
-549.354	121.827	-0.099	0.123
-548.339	23.479	0.089	0.073
-547.325	-110.688	0.155	0.032
-546.310	34.224	0.110	-0.096
-545.296	-200.000	-0.044	-0.230
-544.281	43.807	-0.205	0.187
-543.266	70.944	0.319	0.329
-542.252	-65.023	0.261	-0.105
-541.237	-154.333	-0.170	-0.011
-540.223	-152.125	-0.369	0.027
-539.208	-200.000	0.007	-0.128
-538.193	-2.257	0.085	0.060
-537.179	-200.000	0.032	0.238
-536.164	296.701	-0.042	-0.077
-535.150	800.000	-0.070	-0.251
-534.135	596.147	0.027	0.067
-533.121	-137.402	0.511	0.058
-532.106	62.065	-0.090	0.089
-531.091	-116.492	-0.348	-0.064
-530.077	87.122	0.147	-0.162
-529.062	419.987	-0.157	-0.335
-528.048	-58.192	-0.086	-0.037
-527.033	22.713	-0.258	0.210
-526.018	57.439	-0.087	0.085
-525.004	-68.613	-0.166	0.064
-523.989	-177.056	-0.088	-0.002
-522.975	-200.000	-0.017	0.092
-521.960	-177.179	0.133	0.003
-520.945	117.077	-0.141	-0.173
-519.931	-200.000	-0.006	0.187
-518.916	-100.016	0.291	-0.072
-517.902	-55.394	-0.075	0.033
-516.887	-72.556	0.121	0.045
-515.872	-68.340	-0.234	0.091
-514.858	-47.833	0.266	-0.128
-513.843	44.498	0.062	-0.057
-512.829	9.291	0.157	-0.118
-511.814	-200.000	-0.060	-0.263
-510.799	-28.944	0.225	-0.129
-509.785	211.760	0.031	-0.048
-508.770	568.150	-0.089	-0.216
-507.756	162.353	-0.157	0.220
-506.741	-200.000	0.040	0.261
-505.726	-122.037	0.243	0.040
-504.712	-200.000	-0.073	-0.326
-503.697	89.114	-0.265	-0.294
-502.683	-135.879	0.188	-0.022
-501.668	254.592	0.074	-0.126
-500.653	6.128	0.086	0.063
-499.639	30.927	0.172	0.147
-498.624	800.000	0.059	0.193
-497.610	95.537	-0.087	-0.099
-496.595	19.329	-0.179	-0.143
-495.581	105.672	-0.152	0.179
-494.566	-145.450	0.483	0.043
-493.551	800.000	-0.016	0.053
-492.537	76.788	-0.024	-0.025
-491.522	-200.000	-0.003	0.320
-490.508	800.000	-0.105	0.407
-489.493	-55.438	-0.176	-0.079
-488.478	-21.408	0.327	0.199
-487.464	-7.839	-0.174	-0.117
-486.449	592.345	-0.064	-0.157
-485.435	24.055	0.139	0.114
-484.420	82.253	0.188	-0.203
-483.405	-155.575	0.175	-0.011
-482.391	-14.850	0.131	0.083
-481.376	-200.000	-0.013	-0.103
-480.362	-200.000	0.027	-0.388
-479.347	-104.807	0.109	-0.025
-478.332	24.289	-0.144	-0.119
-477.318	800.000	0.086	-0.349
-476.303	34.172	0.128	0.111
-475.289	-127.969	0.136	0.019
-474.274	-200.000	-0.036	-0.177
-473.259	-200.000	0.006	-0.092
-472.245	459.490	0.088	-0.194
-471.230	-200.000	-0.011	-0.115
-470.216	-200.000	0.012	0.056
-469.201	428.950	0.043	-0.092
-468.186	2.914	-0.130	-0.094
-467.172	-103.529	-0.216	0.051
-466.157	-130.600	0.140	0.019
-465.143	24.318	0.299	0.246
-464.128	800.000	-0.029	-0.127
-463.113	793.746	-0.040	-0.110
-462.099	6.321	0.118	0.087
-461.084	-107.543	-0.121	0.026
-460.070	234.139	0.138	-0.226
-459.055	25.374	-0.105	-0.087
-458.040	-184.988	0.161	0.003
-457.026	800.000	-0.101	0.371
-456.011	121.907	0.190	-0.235
-454.997	-35.286	-0.179	-0.097
-453.982	613.751	-0.155	-0.385
-452.968	-200.000	-0.083	0.383
-451.953	608.411	-0.019	0.047
-450.938	-150.112	0.418	-0.032
-449.924	-200.000	-0.001	-0.317
-448.909	72.443	-0.162	0.168
-447.895	618.959	-0.072	0.179
-446.880	109.302	0.222	0.264
-445.865	-131.583	0.424	0.055
-444.851	72.887	0.187	0.194
-443.836	800.000	0.086	-0.271
-442.822	-10.213	-0.295	-0.195
-441.807	189.530	0.246	0.367
-440.792	-200.000	-0.034	0.315
-439.778	-78.573	0.091	0.031
-438.763	800.000	0.056	-0.218
-437.749	-190.018	-0.160	0.002
-436.734	322.961	-0.199	-0.376
-435.719	800.000	-0.052	0.153
-434.705	-143.803	0.177	0.017
-433.690	111.960	0.010	0.012
-432.676	-85.092	0.098	-0.030
-431.661	152.764	-0.207	0.281
-430.646	-200.000	-0.012	0.088
-429.632	-115.294	-0.239	0.045
-428.617	800.000	-0.039	-0.140
-427.603	-53.507	-0.099	0.045
-426.588	-94.121	-0.144	-0.039
-425.573	-63.726	0.203	-0.083
-424.559	85.890	0.281	0.307
-423.544	-198.449	-0.287	-0.002
-422.530	297.342	0.112	0.204
-421.515	324.721	0.141	-0.268
-420.500	-156.091	-0.408	-0.026
-419.486	-200.000	0.021	0.249
-418.471	-148.949	0.264	-0.021
-417.457	398.940	0.092	0.191
-416.442	104.506	0.054	-0.063
-415.428	-200.000	0.027	-0.187
-414.413	-73.731	-0.261	0.094
-413.398	576.722	-0.048	0.116
-412.384	-1.842	0.278	0.194
-411.369	82.306	0.104	0.112
-410.355	-127.135	-0.339	0.049
-409.340	-177.467	-0.213	-0.005
-408.325	-90.292	-0.341	-0.098
-407.311	-200.000	-0.016	0.158
-406.296	-53.365	-0.243	0.110
-405.282	-102.349	-0.139	-0.033
-404.267	-130.246	0.545	-0.074
-403.252	519.652	-0.088	-0.204
-402.238	-50.036	0.319	0.150
-401.223	-39.977	0.354	-0.183
-400.209	157.685	-0.111	-0.153
-399.194	-18.706	0.253	-0.156
-398.179	-200.000	0.016	0.393
-397.165	224.999	0.079	-0.127
-396.150	-141.258	0.296	-0.030
-395.136	212.876	-0.168	-0.264
-394.121	54.154	0.122	-0.116
-393.106	19.808	-0.170	0.136
-392.092	-49.398	0.299	0.142
-391.077	-200.000	-0.014	0.069
-390.063	800.000	0.030	-0.106
-389.048	-18.258	0.039	-0.024
-388.033	800.000	0.145	-0.482
-387.019	800.000	0.050	0.141
-386.004	40.605	0.181	0.162
-384.990	64.659	0.107	-0.107
-383.975	643.513	-0.116	-0.294
-382.960	-64.090	0.005	-0.002
-381.946	-200.000	-0.023	0.202
-380.931	-129.861	-0.320	-0.044
-379.917	84.118	-0.327	-0.354
-378.902	662.694	-0.032	0.082
-377.888	-130.453	-0.370	0.050
-376.873	21.304	0.057	0.046
-375.858	126.208	-0.123	-0.154
-374.844	-64.416	0.188	0.076
-373.829	-156.754	0.132	0.008
-372.815	-30.459	-0.195	0.110
-371.800	-200.000	0.003	0.107
-370.785	-109.222	0.106	0.022
-369.771	400.832	0.094	-0.195
-368.756	-76.719	-0.200	-0.069
-367.742	-8.630	0.196	0.131
-366.727	-88.063	-0.150	0.044
-365.712	-47.248	-0.137	-0.066
-364.698	-140.739	-0.449	-0.046
-363.683	-43.822	0.220	0.110
-362.669	-99.517	0.171	-0.043
-361.654	159.511	0.140	0.193
-360.639	-64.957	0.084	-0.034
-359.625	-118.486	-0.389	-0.068
-358.610	-200.000	0.043	-0.235
-357.596	17.885	-0.161	-0.127
-356.581	800.000	0.048	-0.149
-355.566	-83.279	-0.187	0.059
-354.552	160.807	-0.047	-0.065
-353.537	-39.704	-0.182	0.094
-352.523	800.000	0.127	0.422
-351.508	683.083	-0.100	0.259
-350.493	-97.705	0.183	-0.047
-349.479	66.273	0.091	-0.092
-348.464	118.777	0.239	0.293
-347.450	-78.014	0.133	-0.045
-346.435	94.397	0.198	0.222
-345.420	27.006	-0.032	0.026
-344.406	12.516	-0.252	0.192
-343.391	-19.593	0.104	-0.064
-342.377	800.000	0.082	-0.328
-341.362	-76.302	-0.125	-0.043
-340.348	800.000	-0.066	-0.184
-339.333	387.796	0.048	-0.098
-338.318	-41.234	-0.128	-0.066
-337.304	367.698	-0.174	0.348
-336.289	139.954	-0.010	-0.013
-335.275	70.180	0.257	0.263
-334.260	-83.414	-0.229	0.073
-333.245	-200.000	0.018	-0.144
-332.231	800.000	0.044	0.129
-331.216	-200.000	-0.130	0.654
-330.202	17.461	-0.310	-0.244
-329.187	-200.000	0.018	0.156
-328.172	-200.000	-0.014	0.082
-327.158	-44.073	-0.305	-0.152
-326.143	800.000	-0.058	0.162
-325.129	109.845	0.072	0.085
-324.114	-37.067	-0.180	0.095
-323.099	-158.837	-0.108	0.006
-322.085	-32.821	-0.225	0.124
-321.070	-200.000	-0.004	0.093
-320.056	-200.000	-0.004	-0.125
-319.041	-200.000	0.002	0.025
-318.026	15.127	0.064	-0.050
-317.012	-118.611	-0.265	-0.046
-315.997	-106.717	0.589	0.129
-314.983	346.102	-0.040	0.078
-313.968	102.655	0.182	-0.210
-312.953	748.057	-0.068	0.180
-311.939	-176.446	0.069	-0.002
-310.924	478.327	0.107	0.239
-309.910	800.000	-0.082	0.225
-308.895	800.000	0.036	0.116
-307.880	33.235	-0.238	-0.204
-306.866	374.849	0.129	-0.260
-305.851	-136.680	0.227	-0.026
-304.837	-143.317	-0.262	0.025
-303.822	-200.000	-0.026	-0.150
-302.807	-31.918	0.353	0.195
-301.793	-200.000	-0.051	0.283
-300.778	-135.419	0.162	-0.019
-299.764	-126.042	0.377	0.056
-298.749	-148.589	-0.292	-0.024
-297.735	800.000	-0.064	0.252
-296.720	-63.517	0.056	-0.023
-295.705	-200.000	-0.083	0.421
-294.691	39.824	-0.204	0.181
-293.676	-194.732	-0.191	-0.001
-292.662	23.643	0.183	0.149
-291.647	-200.000	-0.013	-0.070
-290.632	-200.000	-0.002	-0.030
-289.618	545.025	0.122	0.289
-288.603	-2.855	-0.081	0.056
-287.589	-200.000	-0.001	0.031
-286.574	67.864	-0.121	-0.122
-285.559	63.267	-0.133	0.132
-284.545	-200.000	0.007	-0.345
-283.530	-200.000	0.019	-0.215
-282.516	140.661	0.068	0.088
-281.501	248.861	-0.096	-0.160
-280.486	-53.016	0.173	-0.078
-279.472	500.534	0.074	0.168
-278.457	344.668	-0.098	0.190
-277.443	-122.217	-0.184	-0.030
-276.428	-200.000	0.049	-0.489
-275.413	-200.000	0.019	-0.093
-274.399	276.628	-0.148	-0.260
-273.384	-45.032	0.110	0.054
-272.370	-91.640	-0.426	0.120
-271.355	-200.000	-0.000	0.146
-270.340	-81.880	0.195	0.063
-269.326	-108.697	0.163	-0.035
-268.311	16.304	0.202	-0.157
-267.297	-200.000	0.010	0.117
-266.282	159.296	0.317	0.435
-265.267	-200.000	0.030	-0.264
-264.253	672.925	0.142	0.362
-263.238	-1.478	0.023	-0.016
-262.224	-89.151	-0.123	0.036
-261.209	85.009	0.192	0.208
-260.195	36.025	0.335	0.291
-259.180	-39.822	0.135	0.069
-258.165	43.484	-0.287	-0.259
-257.151	467.066	0.098	0.217
-256.136	383.365	-0.114	0.231
-255.122	-200.000	-0.086	0.478
-254.107	137.884	-0.113	0.147
-253.092	-153.316	-0.280	0.019
-252.078	-27.898	0.180	-0.103
-251.063	-39.652	-0.079	0.041
-250.049	93.417	0.034	-0.038
-249.034	163.071	-0.315	0.437
-248.019	0.497	-0.151	0.106
-247.005	67.102	-0.030	0.030
-245.990	800.000	0.008	0.025
-244.976	-108.677	0.111	-0.023
-243.961	-18.361	-0.238	-0.147
-242.946	-8.532	0.358	0.237
-241.932	113.831	-0.096	-0.115
-240.917	58.836	-0.072	0.069
-239.903	60.676	0.052	0.051
-238.888	-200.000	-0.010	0.143
-237.873	85.622	0.152	-0.165
-236.859	62.489	-0.165	0.163
-235.844	200.085	0.123	-0.186
-234.830	285.927	0.070	-0.125
-233.815	-200.000	0.039	0.181
-232.800	-200.000	0.036	-0.254
-231.786	-16.301	-0.212	0.133
-230.771	800.000	0.019	-0.075
-229.757	58.743	-0.144	-0.140
-228.742	-28.567	0.074	0.042
-227.727	67.011	0.166	-0.166
-226.713	9.098	-0.167	-0.124
-225.698	-116.672	0.086	-0.016
-224.684	316.422	0.105	-0.196
-223.669	-200.000	0.050	0.328
-222.655	-91.062	0.105	0.030
-221.640	-45.563	0.212	-0.103
-220.625	-28.817	-0.125	0.071
-219.611	-39.106	0.046	-0.024
-218.596	238.062	-0.072	-0.118
-217.582	-134.402	0.128	0.015
-216.567	14.368	-0.019	0.014
-215.552	-156.067	-0.114	-0.007
-214.538	-145.579	0.296	-0.026
-213.523	-47.161	0.093	-0.045
-212.509	-40.804	-0.187	-0.096
-211.494	-200.000	0.072	-0.407
-210.479	-95.069	0.518	-0.138
-209.465	-31.979	-0.175	-0.096
-208.450	-136.589	0.206	-0.023
-207.436	-200.000	-0.035	0.203
-206.421	0.179	0.171	0.120
-205.406	-142.900	0.280	-0.027
-204.392	24.907	0.330	-0.269
-203.377	-71.726	0.274	-0.101
-202.363	-82.247	-0.341	0.109
-201.348	-72.198	0.233	-0.085
-200.333	-77.079	0.029	-0.010
-199.319	-152.073	-0.114	0.008
-198.304	-200.000	-0.056	0.380
-197.290	-138.432	-0.113	0.012
-196.275	-200.000	0.010	-0.102
-195.260	-30.324	0.099	-0.055
-194.246	282.682	-0.068	-0.120
-193.231	-46.300	-0.193	-0.093
-192.217	-124.853	0.372	0.057
-191.202	492.973	-0.118	-0.267
-190.187	-200.000	-0.010	-0.093
-189.173	56.149	0.339	0.324
-188.158	519.795	0.113	-0.261
-187.144	-149.263	0.245	-0.019
-186.129	241.589	-0.226	-0.371
-185.114	-47.135	0.252	0.121
-184.100	-117.705	-0.152	0.027
-183.085	-200.000	0.001	0.011
-182.071	-200.000	0.008	-0.154
-181.056	-200.000	-0.042	0.205
-180.042	-6.860	0.388	0.260
-179.027	800.000	-0.032	-0.088
-178.012	-200.000	0.020	-0.131
-176.998	12.473	-0.271	-0.205
-175.983	146.426	-0.309	-0.408
-174.969	29.330	-0.158	0.132
-173.954	-104.772	0.096	0.022
-172.939	-107.668	0.279	-0.060
-171.925	-200.000	-0.007	0.090
-170.910	-114.634	-0.232	-0.044
-169.896	68.484	0.019	0.019
-168.881	-95.338	-0.153	0.040
-167.866	58.692	-0.263	-0.254
-166.852	800.000	-0.054	0.222
-165.837	79.897	-0.142	0.150
-164.823	-200.000	0.052	-0.240
-163.808	-98.406	0.131	0.033
-162.793	-200.000	0.002	0.114
-161.779	-189.687	-0.342	0.004
-160.764	-200.000	0.092	0.648
-159.750	318.506	0.004	0.008
-158.735	-140.577	-0.112	-0.011
-157.720	-21.118	-0.127	-0.076
-156.706	-167.980	-0.228	0.009
-155.691	-112.033	-0.083	0.016
-154.677	-200.000	-0.006	-0.270
-153.662	53.921	-0.192	-0.181
-152.647	-200.000	0.007	-0.141
-151.633	-48.802	0.280	-0.132
-150.618	282.096	-0.243	-0.427
-149.604	-200.000	-0.025	-0.217
-148.589	281.309	-0.081	0.143
-147.574	-169.159	-0.216	-0.008
-146.560	-200.000	-0.021	-0.223
-145.545	-200.000	-0.006	-0.049
-144.531	-68.492	0.204	-0.078
-143.516	-200.000	-0.080	0.407
-142.502	-62.161	0.226	0.093
-141.487	-156.361	-0.121	0.007
-140.472	800.000	0.050	0.190
-139.458	33.321	-0.137	0.117
-138.443	406.487	0.050	0.103
-137.429	632.780	0.215	0.535
-136.414	-40.057	-0.312	0.159
-135.399	-134.229	0.189	0.023
-134.385	-200.000	0.055	0.258
-133.370	-29.920	0.544	0.304
-132.356	-200.000	-0.002	-0.168
-131.341	105.444	-0.154	0.179
-130.326	53.157	-0.199	0.187
-129.312	19.832	0.032	0.025
-128.297	-200.000	-0.020	0.090
-127.283	800.000	0.045	0.164
-126.268	-200.000	-0.020	0.181
-125.253	13.040	-0.086	-0.066
-124.239	800.000	-0.047	-0.191
-123.224	206.809	0.124	-0.190
-122.210	-200.000	0.069	0.531
-121.195	396.451	-0.048	0.099
-120.180	-71.192	0.251	-0.092
-119.166	17.156	-0.171	-0.133
-118.151	56.953	-0.314	-0.301
-117.137	318.743	-0.059	-0.109
-116.122	800.000	0.021	-0.087
-115.107	4.794	-0.203	-0.146
-114.093	800.000	0.086	0.298
-113.078	-200.000	0.009	-0.126
-112.064	-131.632	-0.366	0.047
-111.049	231.692	-0.078	-0.125
-110.034	680.992	0.108	0.275
-109.020	800.000	-0.033	0.107
-108.005	-96.877	0.263	0.068
-106.991	-200.000	-0.019	-0.177
-105.976	211.846	0.142	0.219
-104.962	-200.000	0.053	-0.365
-103.947	800.000	-0.033	-0.131
-102.932	161.162	0.128	0.176
-101.918	64.288	0.288	-0.284
-100.903	325.991	0.112	-0.210
-99.889	-162.204	0.205	-0.010
-98.874	-81.754	0.299	0.096
-97.859	800.000	-0.102	-0.396
-96.845	212.524	0.275	0.426
-95.830	204.513	0.098	0.149
-94.816	800.000	-0.024	-0.073
-93.801	82.344	0.195	-0.207
-92.786	431.196	-0.008	-0.018
-91.772	231.384	0.196	-0.315
-90.757	137.910	-0.171	0.220
-89.743	104.580	-0.193	0.222
-88.728	-67.083	0.107	0.041
-87.713	-58.148	-0.226	-0.097
-86.699	-170.495	-0.308	0.011
-85.684	388.986	-0.123	-0.250
-84.670	-15.665	-0.034	-0.022
-83.655	277.298	0.113	-0.197
-82.640	-73.528	-0.131	-0.047
-81.626	85.577	-0.083	0.089
-80.611	8.915	0.280	-0.207
-79.597	32.077	-0.061	0.052
-78.582	-200.000	0.009	0.000
-77.567	800.000	-0.033	-0.121
-76.553	800.000	-0.043	0.176
-75.538	226.426	0.131	-0.208
-74.524	4.775	-0.160	-0.115
-73.509	-27.795	-0.093	-0.053
-72.494	-148.232	0.099	-0.008
-71.480	-58.766	-0.077	-0.033
-70.465	-170.951	0.226	0.008
-69.451	-200.000	-0.013	-0.339
-68.436	-120.282	0.348	0.058
-67.422	800.000	-0.078	0.228
-66.407	-136.750	0.205	-0.023
-65.392	354.578	-0.121	0.236
-64.378	800.000	-0.091	0.332
-63.363	-200.000	-0.016	0.722
-62.349	265.303	-0.059	0.101
-61.334	358.569	-0.683	-1.336
-60.319	-28.208	0.731	0.414
-59.305	136.483	-0.737	-0.941
-58.290	292.364	0.755	1.347
-57.276	800.000	0.349	1.306
-56.261	-200.000	113.898	648.016
-55.246	542.219	1518.672	3543.882
-54.232	179.703	2681.857	3844.621
-53.217	109.925	2168.310	2545.890
-52.203	38.439	1698.665	1481.636
-51.188	31.066	1518.488	1274.283
-50.173	28.687	1494.362	1237.968
-49.159	52.483	1552.039	1449.822
-48.144	51.498	1567.751	1457.685
-47.130	31.311	1523.468	1279.936
-46.115	28.093	1509.204	1246.022
-45.100	27.967	1505.626	1242.163
-44.086	27.887	1503.894	1240.136
-43.071	27.817	1502.144	1238.172
-42.057	27.893	1500.526	1237.302
-41.042	27.889	1499.126	1236.071
-40.027	27.758	1498.098	1234.291
-39.013	27.821	1496.149	1233.061
-37.998	27.740	1495.445	1231.888
-36.984	27.768	1493.981	1230.822
-35.969	27.906	1492.129	1230.173
-34.954	27.832	1491.174	1228.838
-33.940	27.855	1489.393	1227.478
-32.925	27.826	1488.245	1226.290
-31.911	27.828	1487.073	1225.289
-30.896	28.029	1485.064	1224.933
-29.881	27.965	1484.173	1223.722
-28.867	27.929	1482.905	1222.383
-27.852	27.916	1482.212	1221.678
-26.838	27.945	1480.520	1220.429
-25.823	27.912	1479.100	1218.986
-24.809	28.035	1477.078	1218.090
-23.794	27.956	1476.103	1216.716
-22.779	27.802	1476.003	1215.562
-21.765	27.935	1473.936	1214.693
-20.750	27.852	1473.296	1213.562
-19.736	27.891	1471.876	1212.605
-18.721	27.849	1470.646	1211.264
-17.706	27.880	1469.853	1210.773
-16.692	27.898	1468.215	1209.493
-15.677	27.903	1467.285	1208.708
-14.663	27.884	1466.609	1207.978
-13.648	27.901	1465.241	1206.918
-12.633	27.829	1465.069	1206.255
-11.619	27.872	1464.140	1205.726
-10.604	27.798	1463.159	1204.383
-9.590	27.861	1462.392	1204.116
-8.575	27.950	1460.946	1203.467
-7.560	27.837	1460.763	1202.525
-6.546	27.911	1459.380	1201.826
-5.531	27.874	1458.754	1201.017
-4.517	27.800	1457.706	1199.620
-3.502	27.828	1456.827	1199.029
-2.487	27.860	1455.820	1198.368
-1.473	27.852	1454.526	1197.203
-0.458	27.848	1453.573	1196.344
0.556	29.211	1443.874	1184.582
1.571	26.185	1418.912	1144.846
2.586	22.558	1361.250	1076.120
3.600	20.942	1278.986	1001.716
4.615	19.666	1232.838	958.414
5.629	17.293	1176.861	902.236
6.644	10.228	1094.945	804.363
7.659	4.647	1057.270	749.769
8.673	3.905	1051.755	742.236
9.688	3.780	1047.993	738.914
10.702	3.476	1046.346	736.237
11.717	3.680	1044.083	735.551
12.731	6.169	1046.602	749.131
13.746	13.692	1057.312	792.822
14.761	20.547	1066.424	832.533
15.775	22.761	1067.818	844.150
16.790	22.403	1066.487	841.314
17.804	21.454	1064.406	835.066
18.819	20.779	1063.049	830.712
19.834	20.337	1062.367	827.996
20.848	20.352	1061.505	827.325
21.863	20.513	1061.085	827.689
22.877	20.372	1060.713	826.653
23.892	20.251	1059.526	825.079
24.907	20.133	1058.185	823.403
25.921	19.931	1058.342	822.494
26.936	19.965	1056.758	821.352
27.950	19.905	1055.913	820.338
28.965	19.911	1054.730	819.370
29.980	19.920	1053.905	818.701
30.994	20.194	1052.858	819.112
32.009	20.374	1052.023	819.239
33.023	20.372	1051.378	818.654
34.038	20.484	1050.382	818.331
35.053	20.146	1049.909	816.300
36.067	20.060	1048.731	814.907
37.082	19.890	1048.151	813.585
38.096	20.002	1046.935	813.098
39.111	20.266	1046.570	813.977
40.126	20.393	1045.477	813.653
41.140	20.216	1044.286	811.826
42.155	19.805	1043.134	808.936
43.169	19.518	1042.013	806.653
44.184	19.398	1040.806	805.089
45.199	19.435	1039.952	804.528
46.213	19.505	1038.528	803.681
47.228	19.524	1038.329	803.546
48.242	19.912	1037.700	804.793
49.257	20.168	1036.929	805.311
50.271	20.048	1036.207	804.122
51.286	20.198	1034.707	803.583
52.301	20.231	1034.578	803.566
53.315	20.126	1034.104	802.639
54.330	20.122	1032.566	801.356
55.344	19.789	1032.189	799.454
56.359	19.775	1031.151	798.517
57.374	19.758	1030.072	797.528
58.388	19.721	1029.562	796.894
59.403	19.575	1028.320	795.190
60.417	19.518	1027.388	794.136
61.432	19.493	1026.672	793.396
62.447	19.503	1026.497	793.238
63.461	19.392	1025.741	792.073
64.476	19.334	1024.131	790.494
65.490	19.266	1023.668	789.755
66.505	19.260	1022.249	788.563
67.520	19.291	1021.854	788.331
68.534	19.467	1021.611	788.878
69.549	19.423	1020.421	787.689
70.563	19.318	1019.622	786.524
71.578	19.204	1019.285	785.672
72.593	19.126	1017.809	784.113
73.607	18.883	1016.963	782.287
74.622	18.826	1015.826	781.082
75.636	19.016	1015.173	781.372
76.651	19.009	1014.631	780.855
77.666	19.105	1013.868	780.633
78.680	19.194	1013.118	780.390
79.695	19.119	1012.498	779.505
80.709	19.097	1011.730	778.747
81.724	19.317	1011.318	779.354
82.739	19.424	1010.644	779.247
83.753	19.643	1009.753	779.479
84.768	19.953	1009.130	780.330
85.782	20.131	1009.355	781.237
86.797	20.648	1008.596	782.907
87.812	20.630	1007.840	782.171
88.826	20.316	1006.846	779.918
89.841	20.272	1005.967	778.970
90.855	20.354	1005.062	778.568
91.870	20.413	1004.963	778.688
92.884	20.396	1003.843	777.676
93.899	20.476	1002.872	777.210
94.914	20.357	1002.480	776.307
95.928	20.517	1001.428	776.141
96.943	20.413	1001.124	775.371
97.957	20.432	999.761	774.331
98.972	20.244	998.634	772.551
99.987	20.380	997.962	772.569
101.001	20.294	997.705	771.917
102.016	20.278	996.441	770.801
103.030	20.287	995.570	770.098
104.045	20.352	994.565	769.543
105.060	20.376	993.881	769.053
106.074	20.189	992.594	767.161
107.089	19.859	991.373	764.693
108.103	19.636	990.240	762.766
109.118	19.481	989.447	761.401
110.133	19.484	988.346	760.500
111.147	19.263	987.072	758.481
112.162	19.134	986.295	757.250
113.176	19.245	985.795	757.287
114.191	19.387	984.729	757.023
115.206	19.535	984.258	757.244
116.220	19.457	983.518	756.265
117.235	19.520	982.369	755.590
118.249	19.375	981.534	754.246
119.264	19.221	980.832	752.966
120.279	19.236	979.722	752.116
121.293	19.114	978.900	750.885
122.308	19.045	978.261	750.027
123.322	18.962	977.674	749.148
124.337	19.016	976.224	748.208
125.352	18.778	975.270	746.378
126.366	18.959	974.516	746.521
127.381	18.957	973.332	745.538
128.395	19.082	972.192	745.138
129.410	19.013	971.713	744.410
130.424	18.861	971.290	743.362
131.439	19.164	969.968	743.591
132.454	19.448	969.405	744.319
133.468	19.522	968.697	744.030
134.483	19.463	968.854	743.831
135.497	19.452	967.871	742.961
136.512	19.481	967.022	742.369
137.527	19.500	965.981	741.588
138.541	19.346	966.014	740.882
139.556	19.584	964.688	740.825
140.570	19.508	964.258	740.101
141.585	19.707	963.491	740.301
142.600	20.005	962.696	740.897
143.614	20.127	961.862	740.711
144.629	20.233	961.527	740.842
145.643	20.307	960.990	740.676
146.658	20.268	960.016	739.695
147.673	20.161	958.428	737.952
148.687	19.882	957.569	736.039
149.702	19.588	956.774	734.113
150.716	19.526	955.930	733.134
151.731	19.640	954.405	732.387
152.746	19.659	953.628	731.804
153.760	19.589	953.424	731.289
154.775	19.724	952.496	731.080
155.789	19.777	952.262	731.060
156.804	19.966	950.819	730.685
157.819	19.894	950.032	729.713
158.833	19.920	949.566	729.399
159.848	20.020	949.491	729.697
160.862	20.273	948.914	730.257
161.877	20.361	947.418	729.411
162.892	19.843	946.663	726.591
163.906	19.534	945.437	724.286
164.921	19.505	944.247	723.191
165.935	19.450	943.606	722.408
166.950	19.643	942.630	722.403
167.964	19.692	941.709	721.837
168.979	19.729	940.667	721.127
169.994	19.619	939.598	719.788
171.008	19.636	938.529	718.976
172.023	19.719	938.063	718.898
173.037	19.957	937.490	719.384
174.052	20.045	937.296	719.537
175.067	20.059	936.501	718.924
176.081	19.716	935.233	716.462
177.096	19.393	934.084	714.181
178.110	19.332	933.427	713.367
179.125	19.361	932.931	713.044
180.140	19.349	932.144	712.329
181.154	19.515	931.737	712.642
182.169	19.904	931.061	713.665
183.183	20.047	930.661	713.885
184.198	20.075	930.037	713.459
185.213	20.032	929.226	712.595
186.227	20.087	928.447	712.162
187.242	20.031	928.529	711.931
188.256	20.229	927.559	711.939
189.271	20.326	927.087	711.908
190.286	20.389	926.339	711.532
191.300	20.162	925.108	709.595
192.315	19.547	923.793	706.008
193.329	19.234	922.701	703.830
194.344	19.363	922.203	703.915
195.359	19.448	922.111	704.133
196.373	19.595	921.418	704.140
197.388	19.732	921.402	704.621
198.402	20.092	920.727	705.509
199.417	20.339	920.664	706.403
200.432	20.354	920.594	706.347
201.446	20.681	919.802	707.006
202.461	20.739	919.804	707.181
203.475	20.863	918.929	706.952
204.490	20.700	918.683	706.037
205.504	20.438	917.000	703.623
206.519	20.161	916.236	701.851
207.534	20.071	915.506	700.867
208.548	20.123	914.821	700.490
209.563	20.210	913.922	700.089
210.577	20.313	913.084	699.800
211.592	20.147	912.849	698.890
212.607	20.507	912.646	700.125
213.621	20.548	912.534	700.143
214.636	20.584	910.890	698.963
215.650	20.527	910.375	698.278
216.665	20.576	910.109	698.207
217.680	20.461	909.909	697.529
218.694	20.568	909.455	697.552
219.709	20.793	908.949	698.004
220.723	20.640	908.232	696.777
221.738	20.487	908.011	695.934
222.753	20.585	906.754	695.301
223.767	20.336	905.880	693.572
224.782	20.482	905.386	693.717
225.796	20.687	904.691	693.942
226.811	20.874	904.207	694.252
227.826	20.629	903.624	692.770
228.840	20.412	902.705	691.139
229.855	20.408	901.674	690.274
230.869	20.434	901.400	690.106
231.884	20.298	900.720	688.982
232.899	20.189	900.079	688.001
233.913	20.156	898.970	686.960
234.928	20.160	898.174	686.310
235.942	19.987	897.199	684.817
236.957	19.864	896.676	683.872
237.972	19.831	896.162	683.290
238.986	19.884	895.544	682.967
240.001	19.917	894.718	682.406
241.015	20.121	894.027	682.624
242.030	20.105	893.319	681.959
243.045	20.241	892.710	681.967
244.059	20.372	892.570	682.316
245.074	20.201	892.256	681.344
246.088	20.286	891.646	681.151
247.103	20.496	891.024	681.438
248.117	20.592	890.419	681.293
249.132	20.954	890.055	682.369
250.147	21.159	890.246	683.261
251.161	21.528	889.792	684.295
252.176	21.683	888.966	684.204
253.190	21.608	888.817	683.735
254.205	21.581	888.258	683.140
255.220	21.902	887.462	683.717
256.234	21.641	886.430	681.845
257.249	21.460	885.986	680.741
258.263	21.467	885.374	680.236
259.278	21.603	884.667	680.162
260.293	21.453	884.657	679.512
261.307	21.536	884.020	679.286
262.322	21.667	883.130	679.046
263.336	21.678	882.579	678.606
264.351	21.593	882.739	678.340
265.366	21.592	881.719	677.493
266.380	21.818	880.741	677.556
267.395	21.800	880.051	676.893
268.409	21.583	879.610	675.659
269.424	21.412	878.892	674.385
270.439	21.389	878.064	673.603
271.453	21.420	877.012	672.857
272.468	21.398	876.192	672.085
273.482	21.181	875.834	670.915
274.497	21.175	875.368	670.477
275.512	21.261	874.030	669.720
276.526	21.148	873.317	668.682
277.541	21.188	872.992	668.528
278.555	21.178	872.878	668.344
279.570	21.486	872.367	669.070
280.585	21.894	871.630	670.005
281.599	21.853	871.297	669.535
282.614	21.580	870.452	667.784
283.628	21.345	869.448	666.057
284.643	21.258	869.042	665.358
285.657	21.199	868.882	664.952
286.672	21.327	868.507	665.092
287.687	21.314	867.542	664.244
288.701	21.361	867.312	664.189
289.716	21.411	866.711	663.859
290.730	21.391	866.184	663.320
291.745	21.407	865.560	662.848
292.760	21.373	864.922	662.169
293.774	21.570	864.277	662.363
294.789	21.821	864.209	663.202
295.803	21.880	863.313	662.680
296.818	21.448	862.956	660.713
297.833	21.380	862.093	659.738
298.847	21.284	861.288	658.704
299.862	21.377	860.665	658.519
300.876	21.410	859.949	658.035
301.891	21.737	859.279	658.693
302.906	21.724	859.107	658.455
303.920	21.869	858.893	658.778
304.935	22.138	858.127	659.141
305.949	22.236	857.892	659.269
306.964	22.138	856.736	657.955
307.979	21.832	856.154	656.304
308.993	21.791	855.515	655.604
310.008	21.835	855.129	655.415
311.022	21.941	854.613	655.359
312.037	22.006	854.154	655.190
313.052	21.814	853.473	653.895
314.066	21.531	852.702	652.190
315.081	21.234	852.048	650.526
316.095	21.344	851.166	650.204
317.110	21.437	850.502	649.986
318.125	21.368	849.720	649.075
319.139	21.340	849.568	648.798
320.154	21.304	848.922	648.112
321.168	21.282	848.318	647.514
322.183	21.426	848.150	647.863
323.197	21.466	847.655	647.573
324.212	21.513	846.883	647.100
325.227	21.588	846.253	646.840
326.241	21.471	845.829	646.025
327.256	21.433	845.306	645.428
328.270	21.316	844.756	644.520
329.285	21.496	844.077	644.607
330.300	21.362	843.833	643.871
331.314	21.257	842.814	642.649
332.329	21.322	842.457	642.561
333.343	21.564	842.058	643.089
334.358	21.755	841.686	643.450
335.373	21.772	841.293	643.153
336.387	21.827	840.596	642.765
337.402	22.016	839.976	642.926
338.416	22.099	839.490	642.802
339.431	22.163	839.120	642.696
340.446	22.231	839.193	642.942
341.460	22.403	838.714	643.149
342.475	22.698	837.406	643.163
343.489	22.615	837.565	642.927
344.504	22.513	836.850	641.950
345.519	22.753	836.200	642.266
346.533	22.926	835.608	642.387
347.548	22.685	835.285	641.202
348.562	22.517	834.442	639.891
349.577	22.107	833.411	637.553
350.592	21.951	832.859	636.511
351.606	21.868	832.453	635.843
352.621	21.819	831.814	635.119
353.635	21.696	831.571	634.434
354.650	21.761	831.550	634.595
355.665	21.942	830.821	634.637
356.679	22.058	830.177	634.511
357.694	22.196	829.745	634.621
358.708	22.256	829.224	634.385
359.723	22.312	828.556	634.018
360.738	22.078	827.936	632.644
361.752	22.055	827.749	632.365
362.767	22.125	827.350	632.254
363.781	22.243	827.109	632.438
364.796	22.382	827.186	632.941
365.810	22.718	826.711	633.732
366.825	22.903	826.341	634.053
367.840	23.090	825.798	634.253
368.854	23.138	825.365	634.035
369.869	22.665	824.723	631.793
370.883	22.668	823.830	631.063
371.898	22.481	823.539	630.115
372.913	22.684	823.072	630.429
373.927	22.888	822.290	630.502
374.942	22.897	821.200	629.640
375.956	22.648	821.160	628.670
376.971	22.740	820.683	628.576
377.986	22.960	820.205	628.937
379.000	22.872	820.050	628.447
380.015	23.196	819.278	628.952
381.029	23.036	818.493	627.726
382.044	23.031	817.949	627.237
383.059	23.054	817.101	626.613
384.073	22.994	816.742	626.068
385.088	22.820	816.425	625.155
386.102	22.730	815.484	624.059
387.117	22.540	814.393	622.498
388.132	22.474	813.861	621.804
389.146	22.438	813.592	621.417
390.161	22.691	813.269	622.007
391.175	22.596	813.502	621.795
392.190	22.907	812.864	622.347
393.205	22.915	812.237	621.842
394.219	22.646	811.513	620.286
395.234	22.452	811.055	619.197
396.248	22.424	810.495	618.616
397.263	22.287	809.772	617.530
398.278	22.257	809.091	616.851
399.292	22.155	808.572	616.044
400.307	22.092	808.463	615.685
401.321	22.296	808.073	616.047
402.336	22.318	807.762	615.834
403.350	22.469	807.353	615.995
404.365	22.565	806.790	615.847
405.380	22.702	807.038	616.459
406.394	22.999	806.342	616.912
407.409	23.164	806.173	617.302
408.423	23.248	806.025	617.428
409.438	23.202	805.296	616.656
410.453	23.415	805.035	617.143
411.467	23.540	804.255	616.924
412.482	23.432	804.081	616.360
413.496	23.578	803.635	616.473
414.511	23.679	803.293	616.506
415.526	23.602	803.099	616.035
416.540	23.306	802.755	614.688
417.555	23.313	801.735	613.877
418.569	23.385	801.294	613.734
419.584	23.426	800.600	613.291
420.599	23.323	800.047	612.455
421.613	163.730	1371.880	1798.259
422.628	142.216	1455.206	1798.345
