DTS Sentinel unit serial number:	SN413079Multiplexer serial number:	ORYXHardware model number:	OX4-SRSoftware version number:	ORYX F/W v4.00 Oryx Data Collector v3.7.2.0data status	okinstallation	princeton_trtdifferential loss correction	single-endedforward channel	channel 3reverse channel	N/Adate	2019/09/16time	10:00:34forward acquisition time	60.00reverse acquisition time	0.00gamma	496.2192k internal	0.2315k external	0.2315temperature offset calibration	0.9948default loss term (dB/km)	0.3790temperature slope calibration	1.0000multiplexer offset coefficient	1.0000multiplexer slope coefficient	1.0000fibre end	0.00T internal ref (°C)	33.45T ext. ref 1 (°C)	12.38T ext. ref 2 (°C)	31.89length (m)	temperature (°C)	Stokes	anti-Stokes-747.200	-35.337	-0.125	0.069
-746.185	800.000	-0.038	0.154
-745.171	-107.165	0.246	0.055
-744.156	-169.744	0.298	0.011
-743.142	-48.177	0.214	0.105
-742.127	-169.355	0.296	-0.011
-741.112	-60.192	-0.249	-0.108
-740.098	-75.075	0.033	0.012
-739.083	190.431	0.129	-0.196
-738.069	-147.710	-0.385	0.033
-737.054	800.000	0.016	-0.056
-736.039	-155.136	0.080	0.005
-735.025	252.659	0.105	0.181
-734.010	122.798	0.225	0.285
-732.996	-83.952	-0.232	0.075
-731.981	187.949	0.104	0.157
-730.966	-10.471	0.050	0.033
-729.952	-107.337	0.134	-0.030
-728.937	345.619	-0.029	0.058
-727.923	197.053	0.173	0.267
-726.908	403.470	0.207	0.442
-725.894	-114.067	-0.096	0.019
-724.879	800.000	0.060	-0.229
-723.864	429.612	0.037	-0.080
-722.850	-108.928	-0.370	-0.080
-721.835	-200.000	-0.016	0.197
-720.821	-200.000	0.016	0.424
-719.806	174.638	-0.240	-0.352
-718.791	170.852	-0.034	0.050
-717.777	-85.775	0.407	0.128
-716.762	-200.000	0.033	0.177
-715.748	540.085	0.117	-0.282
-714.733	-155.950	0.170	-0.011
-713.718	-154.757	0.132	0.009
-712.704	510.777	-0.004	-0.009
-711.689	757.048	-0.127	0.349
-710.675	-104.102	-0.109	0.026
-709.660	-16.815	0.096	0.061
-708.645	-120.911	0.364	-0.062
-707.631	92.241	0.069	0.079
-706.616	-26.610	0.125	-0.074
-705.602	57.021	-0.089	0.088
-704.587	-200.000	0.018	-0.238
-703.572	800.000	-0.042	-0.129
-702.558	82.020	0.241	0.264
-701.543	261.413	-0.127	0.223
-700.529	-32.121	-0.218	0.124
-699.514	-49.804	-0.065	-0.031
-698.499	800.000	-0.039	0.157
-697.485	37.790	-0.272	0.245
-696.470	-32.777	-0.238	0.134
-695.456	-107.948	-0.186	-0.041
-694.441	-80.638	-0.249	-0.084
-693.426	800.000	-0.037	-0.147
-692.412	-200.000	-0.014	-0.091
-691.397	486.522	0.089	-0.204
-690.383	85.614	-0.138	-0.153
-689.368	-63.532	0.250	0.104
-688.354	-200.000	-0.025	0.143
-687.339	322.857	-0.165	-0.317
-686.324	800.000	0.073	-0.273
-685.310	129.899	-0.116	-0.150
-684.295	-10.287	-0.054	-0.036
-683.281	-177.427	-0.104	-0.003
-682.266	-74.897	-0.062	-0.022
-681.251	800.000	0.051	0.149
-680.237	-41.289	0.089	-0.047
-679.222	-200.000	-0.039	-0.187
-678.208	34.416	0.104	0.092
-677.193	-58.905	-0.139	0.061
-676.178	-38.003	-0.124	0.067
-675.164	-181.247	-0.277	-0.006
-674.149	318.115	-0.120	0.229
-673.135	-200.000	-0.195	0.000
-672.120	-200.000	0.008	-0.305
-671.105	-66.913	0.024	-0.010
-670.091	-200.000	0.000	-0.087
-669.076	37.782	-0.125	0.112
-668.062	487.913	0.161	0.371
-667.047	199.273	0.172	-0.266
-666.032	-47.386	-0.210	-0.103
-665.018	-34.541	0.150	-0.083
-664.003	-146.515	0.163	0.014
-662.989	187.636	-0.100	-0.151
-661.974	-42.268	-0.283	-0.146
-660.959	-43.731	0.090	0.046
-659.945	87.161	0.287	-0.321
-658.930	573.018	0.142	-0.351
-657.916	302.946	0.007	-0.013
-656.901	602.743	-0.132	-0.331
-655.886	135.977	0.247	-0.325
-654.872	-136.098	0.102	-0.012
-653.857	280.871	-0.033	-0.059
-652.843	-200.000	-0.150	0.000
-651.828	-27.220	0.300	-0.177
-650.814	800.000	0.025	0.092
-649.799	-155.973	-0.191	-0.012
-648.784	-16.247	0.302	0.194
-647.770	-93.101	-0.069	-0.020
-646.755	-141.680	0.152	-0.015
-645.741	86.599	0.193	0.214
-644.726	269.132	0.083	0.147
-643.711	-96.972	-0.082	-0.022
-642.697	93.118	0.126	0.144
-641.682	209.655	-0.026	-0.041
-640.668	-40.355	-0.357	-0.187
-639.653	171.873	-0.171	-0.249
-638.638	206.754	0.030	-0.046
-637.624	233.697	-0.064	-0.107
-636.609	739.047	-0.027	-0.073
-635.595	-78.677	-0.178	0.061
-634.580	320.402	0.077	-0.147
-633.565	800.000	0.043	-0.125
-632.551	-200.000	-0.239	0.000
-631.536	-60.894	0.051	-0.022
-630.522	-143.864	-0.521	-0.050
-629.507	146.639	0.141	-0.191
-628.492	12.001	-0.321	0.249
-627.478	34.524	-0.061	0.054
-626.463	-152.377	0.463	0.034
-625.449	129.246	0.237	0.306
-624.434	51.810	0.088	-0.085
-623.419	178.063	0.207	-0.304
-622.405	-200.000	0.026	-0.329
-621.390	-189.140	-0.155	-0.002
-620.376	-168.621	-0.106	-0.004
-619.361	-33.203	-0.291	-0.162
-618.346	102.416	-0.102	-0.120
-617.332	-158.643	0.259	0.015
-616.317	800.000	-0.059	0.221
-615.303	156.578	-0.094	0.131
-614.288	-22.442	-0.093	-0.057
-613.273	-11.019	-0.163	0.109
-612.259	45.827	-0.224	-0.209
-611.244	84.914	0.177	0.196
-610.230	800.000	-0.169	0.580
-609.215	-131.304	0.293	-0.039
-608.201	21.632	0.040	0.033
-607.186	116.084	0.251	0.310
-606.171	446.693	-0.047	-0.103
-605.157	-82.412	0.193	0.063
-604.142	-161.120	-0.336	-0.018
-603.128	800.000	0.074	-0.246
-602.113	-200.000	-0.008	0.246
-601.098	-131.312	-0.127	-0.017
-600.084	-120.973	-0.244	-0.041
-599.069	681.647	0.090	-0.235
-598.055	110.219	0.138	-0.167
-597.040	56.564	-0.117	-0.114
-596.025	800.000	-0.040	0.157
-595.011	-41.003	-0.333	-0.173
-593.996	-158.616	-0.321	-0.019
-592.982	-184.070	-0.127	0.002
-591.967	-114.036	0.174	0.034
-590.952	105.192	0.071	-0.085
-589.938	68.665	0.160	0.166
-588.923	-41.440	-0.115	0.060
-587.909	-2.366	0.327	-0.231
-586.894	207.894	0.024	-0.038
-585.879	168.691	0.223	0.320
-584.865	-200.000	0.036	0.310
-583.850	-200.000	-0.010	-0.136
-582.836	-184.376	-0.363	0.006
-581.821	-72.040	0.249	-0.093
-580.806	800.000	-0.012	0.049
-579.792	-46.671	0.068	0.033
-578.777	-200.000	-0.070	-0.381
-577.763	114.762	-0.170	-0.209
-576.748	-70.950	-0.306	-0.116
-575.733	800.000	-0.023	0.100
-574.719	46.514	-0.211	-0.197
-573.704	-124.292	0.241	-0.038
-572.690	-4.392	0.080	0.056
-571.675	-200.000	-0.017	-0.229
-570.661	-200.000	0.028	-0.207
-569.646	113.987	-0.079	-0.096
-568.631	279.532	0.045	0.080
-567.617	-60.961	0.310	-0.132
-566.602	-147.064	0.173	-0.015
-565.588	800.000	0.135	-0.523
-564.573	567.044	-0.115	-0.281
-563.558	123.598	0.122	0.154
-562.544	-95.492	0.133	0.036
-561.529	462.899	-0.076	-0.171
-560.515	432.453	-0.110	0.240
-559.500	-78.182	0.171	0.059
-558.485	274.530	-0.078	-0.139
-557.471	239.668	0.172	0.288
-556.456	-200.000	0.084	-0.442
-555.442	195.207	0.071	-0.109
-554.427	800.000	-0.079	-0.237
-553.412	-49.022	0.308	-0.148
-552.398	48.741	0.258	0.243
-551.383	-61.851	-0.104	-0.044
-550.369	-200.000	-0.038	0.344
-549.354	-107.101	0.064	-0.014
-548.339	-111.442	-0.176	0.036
-547.325	197.030	0.025	0.038
-546.310	-141.334	-0.152	-0.016
-545.296	55.097	0.276	0.268
-544.281	50.162	-0.105	0.100
-543.266	1.842	0.185	0.134
-542.252	27.349	-0.135	0.114
-541.237	800.000	-0.039	0.118
-540.223	-29.088	0.223	-0.128
-539.208	-200.000	-0.002	0.310
-538.193	-82.053	-0.111	-0.036
-537.179	-37.702	-0.145	-0.078
-536.164	74.438	-0.237	-0.250
-535.150	-4.043	0.270	0.188
-534.135	460.558	0.078	0.174
-533.121	800.000	-0.131	0.427
-532.106	272.747	-0.095	0.168
-531.091	391.950	0.034	0.070
-530.077	68.519	-0.089	0.091
-529.062	92.545	-0.149	0.168
-528.048	-200.000	0.001	0.270
-527.033	-101.886	0.219	0.053
-526.018	-57.318	0.200	0.088
-525.004	-92.355	-0.228	-0.065
-523.989	800.000	-0.075	-0.210
-522.975	-185.414	0.187	-0.003
-521.960	203.435	-0.099	0.154
-520.945	-200.000	0.030	0.192
-519.931	31.308	-0.182	0.157
-518.916	-199.208	-0.039	-0.000
-517.902	-126.740	0.203	0.030
-516.887	-127.903	-0.200	0.029
-515.872	214.849	-0.072	0.115
-514.858	382.893	-0.113	0.234
-513.843	-171.391	-0.135	-0.005
-512.829	385.540	-0.095	0.198
-511.814	623.797	0.173	0.438
-510.799	-131.502	-0.241	0.032
-509.785	-81.853	-0.380	0.125
-508.770	-200.000	-0.026	-0.205
-507.756	-66.080	-0.189	-0.076
-506.741	304.628	-0.091	0.170
-505.726	147.382	0.136	0.183
-504.712	-72.122	-0.140	0.052
-503.697	-121.932	0.383	0.063
-502.683	297.107	0.064	-0.118
-501.668	65.098	0.191	0.194
-500.653	-31.583	0.158	-0.089
-499.639	0.391	0.220	-0.157
-498.624	-167.556	0.346	-0.014
-497.610	800.000	0.039	-0.149
-496.595	37.059	0.020	-0.018
-495.581	-108.069	0.481	-0.105
-494.566	-200.000	0.013	-0.060
-493.551	-156.530	-0.089	0.006
-492.537	-59.966	0.159	-0.068
-491.522	-102.616	0.129	0.031
-490.508	-61.208	-0.254	0.107
-489.493	800.000	0.095	-0.393
-488.478	306.459	-0.036	-0.067
-487.464	425.199	-0.051	-0.111
-486.449	190.864	0.028	0.042
-485.435	-200.000	-0.067	-0.323
-484.420	179.739	0.166	-0.244
-483.405	54.549	-0.151	0.146
-482.391	-18.986	0.045	0.028
-481.376	-40.877	0.040	-0.021
-480.362	-50.710	-0.153	0.072
-479.347	-96.367	-0.082	-0.022
-478.332	-110.176	0.141	-0.029
-477.318	-200.000	0.011	0.131
-476.303	-135.460	-0.180	-0.022
-475.289	225.739	-0.104	0.170
-474.274	-78.165	0.148	0.051
-473.259	8.412	0.153	0.115
-472.245	-200.000	0.086	-0.435
-471.230	-22.561	0.231	0.140
-470.216	800.000	0.029	0.090
-469.201	230.190	0.189	0.309
-468.186	800.000	-0.038	-0.124
-467.172	-46.046	-0.080	0.040
-466.157	66.685	0.209	-0.213
-465.143	-58.275	-0.263	-0.115
-464.128	-133.670	0.315	0.039
-463.113	-95.073	-0.234	0.063
-462.099	191.245	0.239	-0.360
-461.084	-58.885	0.052	-0.022
-460.070	26.346	-0.200	-0.168
-459.055	11.712	-0.110	-0.084
-458.040	-91.282	0.125	0.036
-457.026	154.144	0.007	0.010
-456.011	173.701	-0.106	0.154
-454.997	24.043	0.165	-0.136
-453.982	-200.000	-0.063	0.326
-452.968	-200.000	0.018	0.168
-451.953	-11.774	0.046	-0.030
-450.938	-43.098	-0.092	0.046
-449.924	79.505	-0.102	-0.110
-448.909	-75.026	0.140	-0.050
-447.895	92.169	0.045	-0.051
-446.880	800.000	0.065	-0.183
-445.865	275.823	0.092	0.164
-444.851	-200.000	0.056	0.317
-443.836	-200.000	-0.008	-0.166
-442.822	-103.257	-0.134	-0.032
-441.807	-48.159	0.181	0.088
-440.792	-152.737	0.165	0.012
-439.778	-191.226	0.355	0.004
-438.763	300.742	0.032	-0.060
-437.749	-111.552	-0.514	-0.105
-436.734	17.932	0.109	-0.087
-435.719	681.174	-0.059	0.155
-434.705	116.442	0.206	-0.253
-433.690	-174.213	-0.043	-0.001
-432.676	-200.000	-0.056	0.385
-431.661	-176.432	-0.191	-0.005
-430.646	235.702	0.179	0.297
-429.632	50.245	-0.129	-0.122
-428.617	74.589	0.291	-0.307
-427.603	37.770	-0.170	-0.151
-426.588	-200.000	-0.004	-0.090
-425.573	424.181	-0.120	0.258
-424.559	-161.871	0.092	-0.005
-423.544	-53.478	0.235	-0.107
-422.530	-195.313	0.211	-0.002
-421.515	-40.512	0.364	0.189
-420.500	-200.000	-0.008	0.042
-419.486	699.075	-0.089	0.235
-418.471	-200.000	0.010	-0.373
-417.457	-64.964	-0.114	-0.046
-416.442	358.524	-0.072	-0.143
-415.428	538.711	-0.086	-0.204
-414.413	-200.000	0.001	0.011
-413.398	-133.080	-0.357	-0.045
-412.384	132.338	-0.182	0.235
-411.369	800.000	0.046	-0.189
-410.355	-67.303	-0.353	0.139
-409.340	-11.030	-0.324	-0.214
-408.325	-184.238	0.239	-0.004
-407.311	-200.000	-0.038	-0.446
-406.296	800.000	-0.089	0.302
-405.282	-111.319	0.438	-0.089
-404.267	-85.883	-0.177	0.055
-403.252	284.511	-0.030	-0.055
-402.238	-117.941	0.325	-0.058
-401.223	297.611	0.052	-0.095
-400.209	-33.427	-0.124	0.069
-399.194	-66.763	-0.441	0.174
-398.179	-75.544	-0.092	-0.033
-397.165	-129.151	-0.167	0.023
-396.150	-200.000	-0.031	-0.494
-395.136	243.960	0.069	-0.116
-394.121	433.761	-0.083	0.181
-393.106	-74.502	-0.425	-0.153
-392.092	201.355	0.141	-0.217
-391.077	-50.740	-0.200	-0.094
-390.063	-200.000	0.025	-0.170
-389.048	-25.663	0.242	-0.143
-388.033	800.000	0.049	0.211
-387.019	800.000	0.053	0.202
-386.004	-116.144	-0.087	0.016
-384.990	-30.822	0.254	-0.143
-383.975	109.184	-0.142	0.170
-382.960	45.571	0.234	0.216
-381.946	352.060	-0.094	0.187
-380.931	800.000	-0.063	0.184
-379.917	-200.000	-0.015	-0.086
-378.902	-169.581	-0.483	-0.018
-377.888	-69.563	0.156	-0.060
-376.873	16.925	0.155	0.123
-375.858	27.478	0.117	0.099
-374.844	370.769	-0.136	0.275
-373.829	-142.940	-0.344	-0.033
-372.815	217.014	0.047	0.075
-371.800	-102.143	0.074	0.018
-370.785	224.911	-0.103	-0.167
-369.771	-91.322	0.463	0.132
-368.756	-90.913	-0.217	-0.062
-367.742	800.000	-0.045	0.189
-366.727	-134.328	-0.251	0.031
-365.712	-65.955	0.213	-0.085
-364.698	-200.000	-0.034	-0.241
-363.683	-108.778	-0.274	0.058
-362.669	546.108	0.046	-0.110
-361.654	-200.000	0.017	0.146
-360.639	-26.494	0.240	0.141
-359.625	-126.057	0.109	-0.016
-358.610	-109.509	-0.064	0.013
-357.596	118.059	0.084	-0.104
-356.581	151.591	-0.145	-0.197
-355.566	-158.350	0.017	-0.001
-354.552	108.483	-0.170	0.203
-353.537	53.119	-0.222	-0.213
-352.523	-200.000	-0.012	0.099
-351.508	800.000	-0.073	0.211
-350.493	-14.776	-0.162	-0.104
-349.479	-63.728	0.176	-0.072
-348.464	14.704	0.073	-0.057
-347.450	35.662	0.087	-0.076
-346.435	248.065	-0.125	0.210
-345.420	61.313	0.287	-0.284
-344.406	800.000	0.024	-0.067
-343.391	477.966	0.064	-0.145
-342.377	800.000	-0.051	0.156
-341.362	588.261	0.051	0.125
-340.348	800.000	-0.052	-0.193
-339.333	-200.000	0.011	0.096
-338.318	296.652	-0.073	-0.134
-337.304	-49.562	-0.228	-0.108
-336.289	115.640	0.062	0.076
-335.275	9.591	-0.059	-0.045
-334.260	-200.000	0.056	-0.274
-333.245	-200.000	0.011	0.091
-332.231	70.093	-0.089	-0.092
-331.216	-43.171	0.180	-0.091
-330.202	-172.294	-0.249	0.008
-329.187	-6.511	-0.149	-0.101
-328.172	122.243	0.116	0.144
-327.158	-14.825	-0.298	0.190
-326.143	-147.905	0.251	-0.021
-325.129	47.445	0.221	0.205
-324.114	-200.000	0.013	-0.516
-323.099	-121.851	-0.301	-0.049
-322.085	-85.976	0.122	-0.038
-321.070	800.000	-0.135	0.403
-320.056	-53.768	-0.316	0.144
-319.041	800.000	-0.078	0.257
-318.026	356.464	-0.104	-0.206
-317.012	800.000	-0.082	0.271
-315.997	340.815	-0.107	0.208
-314.983	-200.000	0.005	0.069
-313.968	-200.000	0.004	-0.189
-312.953	-200.000	-0.027	-0.282
-311.939	-195.187	0.205	-0.002
-310.924	-19.126	0.113	-0.070
-309.910	-5.144	-0.068	-0.047
-308.895	-70.014	-0.169	0.064
-307.880	128.082	-0.141	-0.178
-306.866	-9.402	-0.168	0.112
-305.851	-171.084	0.379	-0.013
-304.837	-105.466	-0.180	-0.041
-303.822	-200.000	0.002	0.117
-302.807	-200.000	0.033	0.155
-301.793	-173.426	-0.175	0.005
-300.778	800.000	-0.053	0.217
-299.764	17.849	-0.222	0.176
-298.749	-191.264	0.140	-0.001
-297.735	-97.166	-0.254	-0.066
-296.720	-200.000	0.048	-0.352
-295.705	-179.965	0.283	0.006
-294.691	-90.113	-0.118	-0.034
-293.676	-47.073	0.264	0.128
-292.662	107.788	-0.048	-0.057
-291.647	-33.662	-0.185	0.102
-290.632	800.000	0.026	0.084
-289.618	-36.553	0.360	0.193
-288.603	8.275	0.229	0.171
-287.589	-200.000	0.038	0.200
-286.574	-200.000	0.026	-0.151
-285.559	-196.702	-0.282	0.002
-284.545	-200.000	-0.010	0.122
-283.530	-200.000	0.024	-0.237
-282.516	51.185	0.171	-0.162
-281.501	285.098	-0.192	-0.344
-280.486	113.449	0.218	0.263
-279.472	-16.500	0.179	-0.113
-278.457	-94.026	-0.119	0.033
-277.443	-200.000	-0.010	0.072
-276.428	53.012	-0.201	0.192
-275.413	-100.691	0.209	0.051
-274.399	-32.809	0.199	-0.110
-273.384	16.092	-0.160	0.126
-272.370	-117.362	-0.201	0.036
-271.355	-22.533	-0.204	-0.123
-270.340	-200.000	-0.023	-0.213
-269.326	-200.000	-0.014	-0.496
-268.311	-4.578	-0.162	-0.111
-267.297	321.793	0.128	-0.241
-266.282	-18.357	-0.076	-0.047
-265.267	-50.076	0.227	0.107
-264.253	53.051	-0.063	-0.060
-263.238	124.532	-0.110	0.137
-262.224	-200.000	-0.022	-0.337
-261.209	-9.132	0.188	-0.125
-260.195	704.727	-0.097	0.254
-259.180	800.000	0.050	-0.155
-258.165	-174.978	-0.007	0.000
-257.151	-105.288	0.025	0.006
-256.136	-27.865	0.234	0.135
-255.122	-72.219	-0.272	0.100
-254.107	-37.055	0.199	-0.106
-253.092	1.924	0.272	0.195
-252.078	423.358	-0.079	-0.168
-251.063	800.000	0.069	-0.249
-250.049	-200.000	0.033	-0.368
-249.034	-200.000	0.002	-0.155
-248.019	-113.152	0.086	-0.017
-247.005	-200.000	-0.008	0.253
-245.990	17.825	0.319	-0.252
-244.976	-200.000	0.050	0.314
-243.961	654.798	0.086	-0.219
-242.946	452.018	0.133	0.292
-241.932	10.441	0.250	-0.189
-240.917	-200.000	-0.054	-0.439
-239.903	-20.148	-0.063	0.039
-238.888	276.808	0.250	0.442
-237.873	-127.146	-0.037	0.005
-236.859	339.447	-0.051	0.099
-235.844	-200.000	-0.071	0.367
-234.830	800.000	0.131	0.443
-233.815	800.000	-0.061	0.246
-232.800	445.195	0.185	0.403
-231.786	-134.793	-0.345	0.042
-230.771	-73.595	0.136	-0.049
-229.757	-151.310	0.191	-0.014
-228.742	397.631	0.079	0.164
-227.727	268.978	-0.194	-0.338
-226.713	-29.599	0.189	0.107
-225.698	-50.717	-0.310	-0.145
-224.684	6.008	0.078	-0.057
-223.669	156.079	0.119	0.163
-222.655	-116.060	-0.243	-0.045
-221.640	-49.085	0.195	-0.093
-220.625	611.270	0.069	0.171
-219.611	407.504	-0.083	-0.175
-218.596	112.823	-0.161	-0.193
-217.582	-28.435	-0.227	-0.130
-216.567	800.000	0.019	0.069
-215.552	-141.112	0.134	-0.014
-214.538	-102.936	0.085	0.020
-213.523	233.449	-0.027	0.045
-212.509	71.196	0.209	0.215
-211.494	109.336	0.097	0.116
-210.479	-26.962	-0.111	-0.064
-209.465	-29.284	-0.146	0.083
-208.450	80.401	0.033	-0.035
-207.436	366.048	-0.065	-0.130
-206.421	217.614	0.138	-0.219
-205.406	379.365	0.096	-0.194
-204.392	-89.822	0.124	0.036
-203.377	-29.435	-0.327	0.185
-202.363	-200.000	0.002	0.214
-201.348	5.333	0.045	-0.033
-200.333	-21.079	-0.338	-0.205
-199.319	-200.000	0.049	-0.308
-198.304	145.103	-0.263	0.349
-197.290	-13.195	0.202	-0.130
-196.275	-66.749	0.197	-0.077
-195.260	-52.441	-0.158	0.072
-194.246	-50.215	0.163	-0.076
-193.231	223.322	-0.164	0.262
-192.217	-200.000	0.057	0.371
-191.202	-123.891	0.213	0.033
-190.187	-200.000	-0.016	0.150
-189.173	250.843	0.080	-0.135
-188.158	293.328	0.113	-0.205
-187.144	185.540	0.073	0.107
-186.129	92.335	0.352	0.393
-185.114	-119.110	0.336	-0.058
-184.100	-200.000	0.037	-0.264
-183.085	104.602	-0.246	-0.287
-182.071	-75.801	-0.232	0.082
-181.056	27.236	0.168	0.140
-180.042	321.196	0.054	-0.102
-179.027	243.932	0.105	-0.175
-178.012	800.000	-0.128	-0.373
-176.998	-114.741	0.226	-0.043
-175.983	86.212	0.100	-0.110
-174.969	-91.712	-0.315	0.089
-173.954	-200.000	-0.056	-0.248
-172.939	553.549	-0.029	-0.069
-171.925	-94.684	-0.485	-0.131
-170.910	-68.160	-0.103	-0.040
-169.896	-114.715	-0.083	0.016
-168.881	111.849	0.102	0.122
-167.866	51.531	0.177	0.167
-166.852	-65.777	0.317	0.126
-165.837	-180.109	0.132	0.003
-164.823	-10.030	-0.167	-0.110
-163.808	366.042	-0.107	-0.213
-162.793	-200.000	-0.035	0.303
-161.779	639.292	0.130	0.328
-160.764	-200.000	-0.016	-0.111
-159.750	-140.602	-0.220	-0.023
-158.735	-16.766	-0.220	-0.138
-157.720	-115.425	0.213	0.040
-156.706	800.000	0.080	0.235
-155.691	800.000	0.038	0.125
-154.677	-146.510	0.123	0.011
-153.662	-114.216	-0.225	0.043
-152.647	-200.000	-0.035	0.343
-151.633	-32.308	-0.281	-0.155
-150.618	345.410	-0.140	-0.272
-149.604	-144.553	-0.152	0.014
-148.589	-39.342	0.137	0.071
-147.574	268.531	0.125	-0.217
-146.560	406.090	-0.090	0.188
-145.545	399.096	-0.089	0.185
-144.531	-50.017	0.231	-0.108
-143.516	453.107	0.053	-0.116
-142.502	-42.353	-0.186	-0.094
-141.487	133.117	0.103	0.132
-140.472	155.151	0.154	0.210
-139.458	-57.156	0.193	0.084
-138.443	-38.343	-0.164	-0.086
-137.429	40.385	0.147	-0.131
-136.414	247.304	0.097	0.162
-135.399	-200.000	0.076	-0.364
-134.385	-159.668	0.202	0.011
-133.370	-146.363	-0.165	-0.014
-132.356	-78.446	0.499	0.169
-131.341	267.973	0.177	-0.306
-130.326	-86.411	-0.137	0.042
-129.312	-200.000	-0.029	-0.296
-128.297	91.101	-0.125	-0.138
-127.283	160.512	-0.107	-0.148
-126.268	322.147	-0.108	-0.203
-125.253	-92.717	0.299	0.083
-124.239	-200.000	0.014	0.087
-123.224	800.000	-0.077	0.218
-122.210	425.291	0.093	-0.197
-121.195	-155.310	-0.218	0.014
-120.180	-200.000	-0.004	-0.358
-119.166	9.179	0.270	0.202
-118.151	-74.299	0.201	0.072
-117.137	-29.430	-0.333	0.188
-116.122	800.000	0.034	0.144
-115.107	405.833	-0.024	0.051
-114.093	322.574	-0.181	-0.340
-113.078	-55.499	0.063	0.028
-112.064	-163.390	0.080	0.004
-111.049	-200.000	-0.012	-0.090
-110.034	800.000	-0.034	-0.099
-109.020	489.783	-0.047	0.106
-108.005	107.012	-0.177	0.208
-106.991	-200.000	-0.014	-0.167
-105.976	13.132	-0.228	-0.174
-104.962	-28.948	0.192	0.109
-103.947	123.650	-0.140	-0.173
-102.932	-195.592	-0.095	0.001
-101.918	-200.000	-0.060	-0.400
-100.903	117.571	0.141	-0.171
-99.889	-125.254	0.214	-0.032
-98.874	75.923	-0.177	-0.185
-97.859	800.000	-0.046	0.172
-96.845	-200.000	0.016	-0.285
-95.830	201.413	-0.224	0.341
-94.816	-200.000	-0.007	-0.392
-93.801	800.000	0.015	0.040
-92.786	123.867	0.128	0.159
-91.772	-200.000	0.028	0.351
-90.757	567.172	-0.154	0.369
-89.743	-127.072	-0.214	0.031
-88.728	215.440	-0.181	-0.283
-87.713	-200.000	-0.014	-0.236
-86.699	-200.000	0.231	-0.000
-85.684	-145.087	0.254	-0.023
-84.670	-11.438	0.281	0.183
-83.655	145.253	0.240	0.317
-82.640	-200.000	-0.002	0.452
-81.626	6.917	-0.184	0.135
-80.611	236.210	0.169	0.275
-79.597	537.671	0.073	-0.171
-78.582	55.257	0.147	0.140
-77.567	152.354	-0.198	-0.267
-76.553	-3.167	0.273	0.188
-75.538	507.064	0.123	-0.281
-74.524	-134.238	-0.077	-0.009
-73.509	-200.000	0.031	-0.151
-72.494	289.570	0.122	-0.219
-71.480	-47.094	-0.109	-0.052
-70.465	-104.920	0.151	0.034
-69.451	71.235	-0.164	0.167
-68.436	-19.519	0.144	-0.088
-67.422	-101.243	-0.356	-0.086
-66.407	63.578	0.122	0.121
-65.392	37.833	-0.111	0.097
-64.378	-81.665	0.179	-0.058
-63.363	-52.735	0.385	0.175
-62.349	373.681	0.078	0.156
-61.334	48.071	-0.823	-0.760
-60.319	-200.000	0.071	0.515
-59.305	172.545	-0.358	-0.508
-58.290	708.317	0.479	1.250
-57.276	798.609	0.658	1.791
-56.261	-200.000	96.781	563.548
-55.246	509.497	1430.311	3279.528
-54.232	145.615	2645.664	3496.489
-53.217	109.679	2232.249	2639.462
-52.203	43.768	1755.628	1585.305
-51.188	36.519	1565.347	1362.558
-50.173	34.225	1537.963	1322.756
-49.159	52.549	1588.757	1496.305
-48.144	55.190	1607.127	1532.208
-47.130	36.883	1563.333	1363.151
-46.115	33.757	1547.558	1327.524
-45.100	33.544	1544.177	1323.084
-44.086	33.592	1542.169	1321.646
-43.071	33.441	1540.362	1318.992
-42.057	33.499	1538.345	1317.619
-41.042	33.514	1537.169	1316.661
-40.027	33.383	1536.352	1315.002
-39.013	33.457	1534.309	1313.712
-37.998	33.414	1533.104	1312.336
-36.984	33.496	1531.999	1311.900
-35.969	33.463	1530.690	1310.498
-34.954	33.481	1529.221	1309.316
-33.940	33.479	1527.377	1307.672
-32.925	33.468	1526.273	1306.596
-31.911	33.490	1525.196	1305.775
-30.896	33.489	1523.470	1304.236
-29.881	33.503	1522.423	1303.385
-28.867	33.567	1520.785	1302.370
-27.852	33.576	1519.440	1301.231
-26.838	33.499	1518.240	1299.623
-25.823	33.575	1516.233	1298.376
-24.809	33.480	1515.223	1296.808
-23.794	33.486	1513.026	1294.921
-22.779	33.473	1512.258	1294.121
-21.765	33.586	1510.738	1293.539
-20.750	33.492	1509.778	1292.024
-19.736	33.461	1508.955	1291.060
-18.721	33.383	1507.838	1289.523
-17.706	33.500	1506.410	1289.044
-16.692	33.501	1505.813	1288.486
-15.677	33.441	1504.337	1286.766
-14.663	33.464	1503.450	1286.114
-13.648	33.370	1502.747	1284.824
-12.633	33.419	1501.680	1284.189
-11.619	33.385	1500.988	1283.320
-10.604	33.308	1500.185	1282.057
-9.590	33.429	1499.122	1281.918
-8.575	33.403	1498.202	1280.907
-7.560	33.429	1497.569	1280.489
-6.546	33.300	1497.057	1279.130
-5.531	33.370	1495.765	1278.447
-4.517	33.341	1494.519	1277.135
-3.502	33.322	1493.630	1276.198
-2.487	33.409	1492.424	1275.702
-1.473	33.424	1491.408	1274.886
-0.458	33.456	1490.008	1273.853
0.556	32.130	1481.269	1265.940
1.571	30.052	1456.170	1230.590
2.586	27.160	1395.805	1161.031
3.600	25.569	1312.592	1082.151
4.615	24.001	1265.550	1034.168
5.629	22.141	1210.391	978.661
6.644	17.346	1128.285	887.236
7.659	13.139	1089.540	835.456
8.673	12.457	1084.308	827.938
9.688	12.408	1081.045	825.127
10.702	12.288	1079.836	823.528
11.717	12.358	1077.757	822.221
12.731	14.328	1079.248	833.154
13.746	18.827	1084.811	859.942
14.761	19.984	1085.829	866.466
15.775	18.265	1082.572	855.207
16.790	17.157	1079.237	846.973
17.804	16.064	1077.156	839.826
18.819	15.009	1075.613	833.297
19.834	14.510	1073.915	829.428
20.848	14.097	1072.899	826.516
21.863	13.934	1071.986	824.928
22.877	13.648	1071.348	822.948
23.892	13.438	1070.364	821.075
24.907	13.471	1069.389	820.421
25.921	13.362	1068.794	819.347
26.936	13.260	1068.033	818.191
27.950	13.434	1067.104	818.266
28.965	13.460	1065.945	817.433
29.980	13.476	1064.657	816.451
30.994	13.572	1063.590	816.034
32.009	13.557	1062.725	815.224
33.023	13.755	1061.687	815.330
34.038	13.663	1060.946	814.234
35.053	13.587	1060.284	813.282
36.067	13.585	1059.253	812.410
37.082	13.566	1058.553	811.706
38.096	13.574	1057.704	811.026
39.111	13.669	1056.962	810.848
40.126	13.590	1056.133	809.753
41.140	13.620	1054.864	808.855
42.155	13.434	1053.717	806.998
43.169	13.374	1052.698	805.854
44.184	13.331	1051.803	804.890
45.199	13.262	1050.935	803.818
46.213	13.327	1049.660	803.088
47.228	13.454	1048.337	802.620
48.242	13.374	1047.607	801.601
49.257	13.496	1046.874	801.562
50.271	13.386	1045.997	800.285
51.286	13.456	1044.945	799.748
52.301	13.455	1044.148	799.066
53.315	13.524	1043.624	798.927
54.330	13.505	1042.846	798.165
55.344	13.398	1041.757	796.745
56.359	13.410	1040.632	795.873
57.374	13.516	1039.552	795.487
58.388	13.347	1038.905	794.112
59.403	13.399	1038.119	793.687
60.417	13.287	1037.486	792.599
61.432	13.298	1036.721	791.996
62.447	13.216	1035.898	790.903
63.461	13.427	1034.468	790.749
64.476	13.354	1033.805	789.827
65.490	13.401	1032.681	789.119
66.505	13.273	1032.245	788.109
67.520	13.215	1031.804	787.427
68.534	13.464	1030.373	787.449
69.549	13.418	1029.693	786.643
70.563	13.294	1029.119	785.542
71.578	13.313	1028.548	785.129
72.593	13.262	1027.645	784.127
73.607	13.215	1026.489	782.955
74.622	13.116	1025.940	781.997
75.636	13.095	1025.197	781.260
76.651	13.212	1024.097	780.907
77.666	13.209	1023.570	780.421
78.680	13.358	1022.545	780.276
79.695	13.288	1022.239	779.644
80.709	13.195	1021.921	778.890
81.724	13.412	1020.645	778.873
82.739	13.340	1020.042	778.004
83.753	13.368	1019.001	777.271
84.768	13.388	1018.228	776.709
85.782	13.562	1017.489	776.895
86.797	13.580	1016.269	775.977
87.812	13.569	1015.739	775.452
88.826	13.393	1015.074	774.053
89.841	13.509	1014.139	773.812
90.855	13.425	1013.468	772.839
91.870	13.541	1012.627	772.672
92.884	13.529	1011.693	771.835
93.899	13.659	1010.732	771.640
94.914	13.554	1010.617	770.993
95.928	13.600	1009.655	770.407
96.943	13.621	1008.853	769.820
97.957	13.675	1008.053	769.393
98.972	13.546	1007.289	768.146
99.987	13.514	1006.587	767.391
101.001	13.478	1006.177	766.847
102.016	13.669	1004.976	766.748
103.030	13.582	1004.282	765.746
104.045	13.548	1002.942	764.500
105.060	13.644	1002.179	764.297
106.074	13.608	1000.951	763.124
107.089	13.466	1000.275	761.889
108.103	13.393	999.922	761.215
109.118	13.353	998.660	760.003
110.133	13.317	997.786	759.107
111.147	13.404	996.854	758.729
112.162	13.309	996.132	757.676
113.176	13.407	995.253	757.392
114.191	13.357	994.450	756.486
115.206	13.552	993.072	756.259
116.220	13.297	993.030	754.994
117.235	13.392	992.074	754.634
118.249	13.375	991.398	753.979
119.264	13.458	990.048	753.263
120.279	13.435	989.405	752.602
121.293	13.362	988.649	751.629
122.308	13.306	987.799	750.662
123.322	13.264	986.874	749.702
124.337	13.378	985.627	749.202
125.352	13.345	984.637	748.235
126.366	13.255	983.435	746.848
127.381	13.279	982.739	746.363
128.395	13.425	981.134	745.737
129.410	13.430	980.378	745.119
130.424	13.346	979.361	743.900
131.439	13.448	978.510	743.649
132.454	13.333	977.978	742.660
133.468	13.414	976.998	742.216
134.483	13.382	976.834	741.880
135.497	13.510	976.061	741.799
136.512	13.467	974.826	740.604
137.527	13.484	973.911	739.922
138.541	13.419	973.186	739.015
139.556	13.514	972.432	738.799
140.570	13.463	971.607	737.881
141.585	13.473	971.319	737.641
142.600	13.576	970.294	737.254
143.614	13.665	969.225	736.774
144.629	13.675	968.523	736.217
145.643	13.607	967.987	735.444
146.658	13.674	967.243	735.109
147.673	13.584	966.340	733.963
148.687	13.572	965.063	732.873
149.702	13.504	964.376	731.987
150.716	13.562	963.708	731.668
151.731	13.444	962.537	730.197
152.746	13.451	962.117	729.842
153.760	13.546	961.479	729.712
154.775	13.488	960.660	728.772
155.789	13.507	959.438	727.866
156.804	13.532	958.791	727.417
157.819	13.525	958.125	726.821
158.833	13.631	957.598	726.818
159.848	13.787	956.793	726.829
160.862	13.760	956.147	726.153
161.877	13.807	955.323	725.668
162.892	13.591	954.365	723.936
163.906	13.568	953.651	723.230
164.921	13.627	952.341	722.429
165.935	13.688	951.700	722.145
166.950	13.609	950.769	721.028
167.964	13.645	949.873	720.441
168.979	13.741	948.828	720.004
169.994	13.659	947.723	718.743
171.008	13.821	946.760	718.655
172.023	13.753	946.147	717.832
173.037	13.798	945.395	717.389
174.052	13.712	944.518	716.289
175.067	13.780	944.018	716.142
176.081	13.788	942.880	715.251
177.096	13.644	942.333	714.150
178.110	13.723	941.366	713.694
179.125	13.691	940.963	713.187
180.140	13.690	940.141	712.497
181.154	13.684	939.427	711.866
182.169	13.723	938.870	711.549
183.183	13.800	938.053	711.198
184.198	13.841	937.227	710.683
185.213	13.975	936.144	710.373
186.227	13.974	935.936	710.147
187.242	13.972	935.621	709.837
188.256	13.968	934.759	709.104
189.271	13.981	934.112	708.604
190.286	14.053	933.273	708.212
191.300	13.886	932.674	706.984
192.315	13.677	931.829	705.391
193.329	13.761	930.911	704.994
194.344	13.639	930.460	704.072
195.359	13.869	929.612	704.343
196.373	13.891	929.151	704.023
197.388	14.016	928.576	704.058
198.402	14.063	928.156	703.875
199.417	14.271	927.384	704.107
200.432	14.085	927.300	703.194
201.446	14.183	926.864	703.217
202.461	14.211	926.475	702.975
203.475	14.296	925.611	702.616
204.490	14.206	925.427	702.037
205.504	14.237	924.218	701.184
206.519	14.198	923.447	700.377
207.534	14.181	922.938	699.858
208.548	14.098	922.352	699.001
209.563	14.152	921.043	698.172
210.577	14.103	920.623	697.587
211.592	14.248	920.054	697.701
212.607	14.178	919.861	697.200
213.621	14.304	919.134	697.115
214.636	14.235	918.245	696.092
215.650	14.156	917.682	695.272
216.665	14.270	917.123	695.266
217.680	14.317	916.066	694.598
218.694	14.425	915.886	694.851
219.709	14.470	915.246	694.489
220.723	14.551	914.402	694.126
221.738	14.493	913.441	693.092
222.753	14.405	913.209	692.490
223.767	14.226	912.778	691.357
224.782	14.382	911.955	691.323
225.796	14.539	911.119	691.276
226.811	14.471	910.457	690.433
227.826	14.741	909.277	690.591
228.840	14.595	908.729	689.512
229.855	14.431	908.539	688.630
230.869	14.456	907.894	688.183
231.884	14.585	907.212	688.139
232.899	14.500	906.319	687.047
233.913	14.583	905.586	686.774
234.928	14.438	904.586	685.361
235.942	14.448	904.372	685.176
236.957	14.356	903.742	684.262
237.972	14.384	902.989	683.744
238.986	14.527	902.473	683.880
240.001	14.548	901.358	683.062
241.015	14.479	900.970	682.426
242.030	14.524	900.109	681.895
243.045	14.729	899.090	681.902
244.059	14.603	899.143	681.366
245.074	14.650	898.233	680.806
246.088	14.609	897.491	680.019
247.103	14.719	896.728	679.828
248.117	14.699	896.559	679.556
249.132	14.869	895.785	679.603
250.147	14.846	895.496	679.228
251.161	14.837	894.937	678.709
252.176	15.030	894.197	678.869
253.190	15.016	893.642	678.331
254.205	14.968	892.803	677.442
255.220	15.157	892.292	677.760
256.234	15.080	891.506	676.789
257.249	14.987	891.040	675.999
258.263	15.062	890.241	675.638
259.278	15.075	889.657	675.185
260.293	15.190	889.218	675.259
261.307	15.076	889.221	674.739
262.322	15.096	888.143	673.943
263.336	15.157	887.994	674.016
264.351	15.098	886.761	672.782
265.366	15.153	886.455	672.712
266.380	15.247	885.492	672.301
267.395	15.398	884.617	672.179
268.409	15.280	883.968	671.154
269.424	15.156	883.349	670.130
270.439	15.109	883.307	669.849
271.453	15.234	882.081	669.362
272.468	15.243	881.191	668.662
273.482	15.224	880.647	668.113
274.497	15.259	880.060	667.749
275.512	15.321	879.494	667.508
276.526	15.204	878.759	666.426
277.541	15.334	877.914	666.241
278.555	15.228	877.418	665.385
279.570	15.282	876.904	665.151
280.585	15.475	876.196	665.321
281.599	15.443	875.765	664.808
282.614	15.311	875.097	663.720
283.628	15.248	874.853	663.228
284.643	15.343	873.992	662.890
285.657	15.469	873.179	662.713
286.672	15.430	872.843	662.244
287.687	15.443	872.373	661.880
288.701	15.325	872.005	661.077
289.716	15.347	871.586	660.790
290.730	15.563	870.535	660.784
291.745	15.547	870.137	660.361
292.760	15.529	869.397	659.669
293.774	15.608	868.754	659.431
294.789	15.528	868.247	658.676
295.803	15.604	867.476	658.330
296.818	15.609	866.882	657.840
297.833	15.574	866.334	657.229
298.847	15.580	865.531	656.588
299.862	15.607	865.063	656.280
300.876	15.606	864.314	655.648
301.891	15.729	863.849	655.719
302.906	15.804	862.520	654.941
303.920	15.764	862.063	654.381
304.935	15.792	861.444	653.962
305.949	15.833	861.087	653.794
306.964	15.869	860.316	653.291
307.979	15.849	860.065	652.964
308.993	15.891	859.418	652.578
310.008	15.894	858.971	652.191
311.022	15.944	858.262	651.791
312.037	15.917	858.025	651.447
313.052	15.732	857.744	650.461
314.066	15.765	856.884	649.880
315.081	15.718	856.118	649.061
316.095	15.807	855.564	648.926
317.110	15.806	854.857	648.326
318.125	15.802	854.473	647.965
319.139	15.864	854.083	647.848
320.154	16.001	853.298	647.721
321.168	15.923	852.928	647.083
322.183	15.879	852.382	646.447
323.197	15.885	851.991	646.113
324.212	15.911	851.186	645.544
325.227	15.934	850.520	645.073
326.241	15.854	850.248	644.502
327.256	15.884	849.540	644.025
328.270	16.065	848.671	643.999
329.285	15.804	848.445	642.773
330.300	15.827	847.969	642.445
331.314	15.866	847.464	642.154
332.329	16.043	846.464	642.013
333.343	16.031	846.116	641.646
334.358	16.226	845.293	641.709
335.373	16.124	844.676	640.794
336.387	16.065	844.074	640.058
337.402	16.204	843.447	640.053
338.416	16.102	843.609	639.730
339.431	16.092	843.056	639.218
340.446	16.277	841.999	639.058
341.460	16.376	841.316	638.860
342.475	16.258	840.945	638.077
343.489	16.387	840.240	637.971
344.504	16.440	839.643	637.663
345.519	16.466	839.292	637.437
346.533	16.468	838.709	636.944
347.548	16.526	838.187	636.709
348.562	16.392	837.895	635.929
349.577	16.461	836.816	635.312
350.592	16.315	836.468	634.444
351.606	16.357	835.855	634.078
352.621	16.292	835.880	633.800
353.635	16.280	835.438	633.361
354.650	16.324	834.952	633.101
355.665	16.328	834.416	632.656
356.679	16.495	833.847	632.794
357.694	16.442	833.420	632.214
358.708	16.507	832.770	631.909
359.723	16.571	832.190	631.650
360.738	16.477	831.773	630.929
361.752	16.567	831.299	630.848
362.767	16.626	830.913	630.719
363.781	16.633	830.542	630.407
364.796	16.679	830.170	630.242
365.810	16.636	829.574	629.574
366.825	16.819	829.376	630.049
367.840	16.879	828.990	629.921
368.854	16.802	828.105	628.906
369.869	16.782	828.026	628.718
370.883	16.875	827.123	628.321
371.898	16.754	826.722	627.513
372.913	16.669	826.264	626.794
373.927	16.861	825.419	626.809
374.942	16.814	824.645	625.992
375.956	16.913	824.309	626.046
376.971	16.945	823.337	625.373
377.986	16.894	823.285	625.090
379.000	17.077	822.717	625.277
380.015	16.925	822.477	624.480
381.029	16.941	821.806	623.973
382.044	17.088	821.163	623.971
383.059	17.040	820.366	623.134
384.073	16.963	820.340	622.774
385.088	16.842	819.556	621.682
386.102	16.848	819.185	621.366
387.117	16.883	818.622	621.013
388.132	16.862	817.898	620.330
389.146	17.017	817.408	620.471
390.161	17.042	817.018	620.212
391.175	17.024	816.911	620.011
392.190	17.045	816.565	619.768
393.205	17.078	815.889	619.322
394.219	17.064	815.504	618.924
395.234	16.996	814.881	618.149
396.248	16.825	814.710	617.342
397.263	17.088	813.571	617.382
398.278	17.071	813.268	617.034
399.292	16.940	813.247	616.488
400.307	17.003	812.603	616.173
401.321	17.028	812.234	615.928
402.336	17.064	811.781	615.663
403.350	17.057	811.352	615.257
404.365	17.277	810.619	615.442
405.380	17.146	810.621	614.917
406.394	17.154	810.150	614.533
407.409	17.250	809.776	614.542
408.423	17.445	809.138	614.708
409.438	17.255	808.737	613.664
410.453	17.288	808.419	613.486
411.467	17.379	807.845	613.327
412.482	17.411	807.223	612.916
413.496	17.460	806.580	612.547
414.511	17.644	806.159	612.836
415.526	17.501	805.880	612.055
416.540	17.421	805.865	611.701
417.555	17.572	805.206	611.689
418.569	17.431	804.976	610.955
419.584	17.525	804.353	610.764
420.599	17.740	803.403	610.761
421.613	104.948	1285.646	1448.423
422.628	90.265	1355.908	1448.567
