DTS Sentinel unit serial number:	SN413079Multiplexer serial number:	ORYXHardware model number:	OX4-SRSoftware version number:	ORYX F/W v4.00 Oryx Data Collector v3.7.2.0data status	okinstallation	princeton_trtdifferential loss correction	single-endedforward channel	channel 3reverse channel	N/Adate	2019/09/16time	09:52:35forward acquisition time	60.00reverse acquisition time	0.00gamma	496.2192k internal	0.2316k external	0.2316temperature offset calibration	0.9954default loss term (dB/km)	0.3790temperature slope calibration	1.0000multiplexer offset coefficient	1.0000multiplexer slope coefficient	1.0000fibre end	0.00T internal ref (°C)	32.98T ext. ref 1 (°C)	12.34T ext. ref 2 (°C)	31.00length (m)	temperature (°C)	Stokes	anti-Stokes-747.200	69.322	0.181	0.189
-746.185	800.000	0.057	-0.176
-745.171	18.998	-0.174	0.141
-744.156	-200.000	-0.045	0.233
-743.142	96.707	0.156	0.181
-742.127	643.811	-0.182	0.469
-741.112	300.588	0.024	0.044
-740.098	-200.000	0.060	0.409
-739.083	-63.891	0.322	-0.133
-738.069	-88.244	0.421	-0.128
-737.054	-45.349	-0.178	-0.089
-736.039	197.624	-0.116	-0.179
-735.025	-71.222	0.347	0.132
-734.010	176.079	0.069	-0.102
-732.996	-31.933	-0.259	-0.147
-731.981	-175.674	0.240	-0.007
-730.966	164.689	0.336	-0.479
-729.952	-163.559	0.118	-0.006
-728.937	-137.161	-0.546	-0.063
-727.923	-84.427	0.179	0.057
-726.908	-175.109	0.217	-0.006
-725.894	-146.920	-0.099	-0.009
-724.879	-200.000	0.004	0.098
-723.864	442.506	-0.205	-0.455
-722.850	-38.255	-0.076	0.041
-721.835	-170.984	0.275	0.009
-720.821	206.974	-0.095	-0.149
-719.806	-43.080	-0.562	-0.288
-718.791	75.080	0.134	-0.143
-717.777	290.545	0.097	-0.179
-716.762	93.339	-0.217	-0.249
-715.748	-103.046	-0.111	0.027
-714.733	56.630	-0.359	0.353
-713.718	595.145	-0.042	0.104
-712.704	591.588	0.048	0.119
-711.689	-133.354	-0.226	-0.029
-710.675	234.059	0.114	-0.190
-709.660	26.736	0.078	-0.066
-708.645	210.097	0.056	0.089
-707.631	214.236	-0.121	-0.194
-706.616	338.682	0.081	0.159
-705.602	-200.000	0.028	0.182
-704.587	800.000	0.037	-0.118
-703.572	310.734	0.070	-0.133
-702.558	-118.036	-0.381	-0.069
-701.543	63.142	0.183	-0.186
-700.529	703.596	0.020	-0.052
-699.514	-180.721	-0.200	0.004
-698.499	78.097	0.185	-0.199
-697.485	492.222	-0.061	-0.141
-696.470	-59.171	0.339	0.148
-695.456	145.547	-0.186	-0.251
-694.441	67.188	0.169	-0.174
-693.426	106.917	-0.158	-0.190
-692.412	-113.979	-0.233	-0.046
-691.397	65.378	0.044	0.045
-690.383	654.039	-0.134	-0.348
-689.368	481.309	-0.072	-0.164
-688.354	-148.813	0.437	-0.036
-687.339	-107.798	-0.213	-0.047
-686.324	-80.683	0.108	-0.036
-685.310	-200.000	-0.050	-0.568
-684.295	-200.000	-0.040	-0.276
-683.281	-122.606	-0.269	0.044
-682.266	-97.953	-0.384	0.100
-681.251	-20.999	0.100	-0.062
-680.237	-155.670	0.179	-0.012
-679.222	-99.456	-0.416	-0.106
-678.208	-200.000	0.015	0.300
-677.193	-172.656	0.149	0.005
-676.178	800.000	-0.098	0.301
-675.164	-93.473	0.284	0.080
-674.149	181.003	0.138	-0.205
-673.135	800.000	-0.053	0.224
-672.120	-45.889	0.298	-0.148
-671.105	-200.000	0.038	-0.429
-670.091	-57.858	0.346	0.153
-669.076	-200.000	0.010	-0.178
-668.062	69.502	0.253	-0.263
-667.047	-200.000	-0.005	0.129
-666.032	13.369	-0.080	0.062
-665.018	40.272	0.337	-0.306
-664.003	-200.000	-0.053	-0.264
-662.989	-115.310	0.257	-0.049
-661.974	-66.078	-0.406	-0.163
-660.959	632.310	-0.015	-0.038
-659.945	371.579	-0.125	-0.256
-658.930	204.249	-0.135	-0.212
-657.916	-200.000	-0.068	-0.334
-656.901	563.261	0.059	-0.143
-655.886	-142.111	-0.218	-0.022
-654.872	75.894	-0.114	-0.121
-653.857	20.772	0.125	-0.102
-652.843	52.208	-0.140	-0.134
-651.828	215.131	-0.187	0.299
-650.814	-39.710	-0.259	-0.137
-649.799	-48.493	-0.221	0.107
-648.784	-39.757	-0.237	-0.125
-647.770	800.000	0.100	-0.365
-646.755	105.086	0.060	0.071
-645.741	-61.829	-0.116	-0.049
-644.726	800.000	0.039	0.149
-643.711	-200.000	-0.005	0.509
-642.697	29.719	-0.270	-0.232
-641.682	-111.143	0.274	0.057
-640.668	52.753	0.320	0.309
-639.653	800.000	-0.014	0.048
-638.638	-132.179	-0.159	0.021
-637.624	800.000	0.007	0.026
-636.609	213.887	-0.047	-0.075
-635.595	800.000	-0.085	0.279
-634.580	404.491	-0.041	-0.088
-633.565	545.741	-0.042	0.101
-632.551	-200.000	-0.014	0.070
-631.536	-200.000	0.011	0.237
-630.522	212.108	0.026	-0.041
-629.507	-68.326	-0.176	-0.069
-628.492	533.408	-0.142	-0.339
-627.478	-200.000	0.032	0.233
-626.463	-200.000	-0.049	-0.506
-625.449	215.323	0.102	-0.163
-624.434	394.056	0.088	-0.184
-623.419	133.777	0.240	0.312
-622.405	-26.965	0.078	0.046
-621.390	-33.252	0.111	-0.062
-620.376	28.218	-0.116	-0.099
-619.361	-97.657	0.126	0.033
-618.346	-54.828	-0.191	0.087
-617.332	56.270	0.122	-0.119
-616.317	293.023	-0.075	0.138
-615.303	-30.945	-0.134	-0.076
-614.288	249.471	0.168	-0.287
-613.273	-163.550	0.168	-0.008
-612.259	-45.827	-0.161	0.080
-611.244	800.000	-0.009	-0.031
-610.230	77.659	0.046	0.049
-609.215	800.000	-0.048	0.160
-608.201	-200.000	0.102	-0.484
-607.186	188.117	0.137	0.206
-606.171	-200.000	0.045	0.319
-605.157	119.563	-0.155	0.193
-604.142	-81.107	-0.271	-0.090
-603.128	-22.489	0.225	0.137
-602.113	171.577	-0.086	0.125
-601.098	180.265	-0.096	-0.142
-600.084	800.000	0.032	-0.097
-599.069	-200.000	-0.015	-0.139
-598.055	-63.204	0.211	0.088
-597.040	-165.709	0.095	0.004
-596.025	138.933	0.273	0.361
-595.011	-92.687	-0.490	0.138
-593.996	800.000	-0.131	-0.402
-592.982	-69.737	0.214	0.082
-591.967	-50.301	-0.281	-0.134
-590.952	62.067	0.020	0.020
-589.938	800.000	-0.048	-0.195
-588.923	-200.000	0.036	0.397
-587.909	120.302	-0.151	0.188
-586.894	100.535	-0.211	0.247
-585.879	-81.424	0.179	0.059
-584.865	-200.000	-0.023	-0.218
-583.850	43.860	-0.087	0.080
-582.836	800.000	0.043	-0.148
-581.821	800.000	-0.112	-0.317
-580.806	-55.386	-0.186	-0.084
-579.792	196.278	0.079	0.121
-578.777	-117.603	-0.164	-0.030
-577.763	281.341	0.265	0.477
-576.748	92.865	0.152	0.173
-575.733	224.914	0.081	-0.131
-574.719	317.760	0.080	0.152
-573.704	-54.710	-0.105	0.048
-572.690	-43.677	0.495	0.251
-571.675	-109.539	-0.061	0.013
-570.661	-92.691	0.423	0.119
-569.646	-50.677	-0.082	0.039
-568.631	35.225	-0.179	-0.158
-567.617	-97.897	0.207	0.054
-566.602	-200.000	-0.007	0.317
-565.588	89.064	0.161	-0.180
-564.573	129.240	0.163	0.209
-563.558	179.369	-0.042	0.061
-562.544	446.766	0.121	0.269
-561.529	-200.000	0.002	0.220
-560.515	30.128	0.048	-0.041
-559.500	495.466	-0.079	0.183
-558.485	25.379	0.075	0.063
-557.471	55.608	-0.424	0.413
-556.456	556.205	-0.115	0.278
-555.442	-15.677	-0.242	0.155
-554.427	-149.326	0.018	0.001
-553.412	51.964	0.224	0.214
-552.398	-161.858	0.143	-0.007
-551.383	18.176	-0.090	-0.072
-550.369	-28.539	-0.186	-0.108
-549.354	-200.000	-0.042	0.250
-548.339	-165.263	-0.446	-0.020
-547.325	-200.000	-0.021	-0.232
-546.310	800.000	0.162	0.453
-545.296	-65.331	-0.214	0.086
-544.281	-51.140	0.085	-0.040
-543.266	800.000	0.025	-0.082
-542.252	-59.603	-0.400	-0.172
-541.237	-79.649	-0.231	0.078
-540.223	-53.254	-0.271	-0.125
-539.208	-200.000	0.112	-0.604
-538.193	-200.000	-0.054	-0.408
-537.179	-194.074	-0.218	-0.002
-536.164	-122.555	0.148	0.024
-535.150	227.345	-0.117	0.191
-534.135	114.181	0.352	-0.430
-533.121	-64.704	-0.148	-0.060
-532.106	800.000	0.023	-0.093
-531.091	180.256	-0.157	-0.231
-530.077	-5.372	-0.272	-0.188
-529.062	-21.026	-0.134	0.082
-528.048	-200.000	0.010	-0.404
-527.033	284.910	-0.177	-0.320
-526.018	74.466	0.204	0.216
-525.004	-200.000	0.004	0.259
-523.989	800.000	0.042	-0.151
-522.975	-19.642	0.197	0.123
-521.960	-24.379	-0.132	0.079
-520.945	401.026	0.012	-0.026
-519.931	-72.082	0.354	0.132
-518.916	19.850	-0.078	0.063
-517.902	122.128	-0.231	-0.290
-516.887	288.647	0.099	-0.180
-515.872	26.841	0.350	-0.294
-514.858	189.761	0.174	0.262
-513.843	-174.526	-0.254	-0.007
-512.829	-110.155	-0.312	-0.065
-511.814	47.111	-0.262	0.245
-510.799	-200.000	-0.023	-0.125
-509.785	-200.000	0.015	-0.103
-508.770	373.847	0.116	-0.237
-507.756	-52.870	-0.192	0.089
-506.741	-200.000	0.056	-0.258
-505.726	-109.055	0.400	-0.085
-504.712	-12.192	-0.186	0.122
-503.697	-57.442	0.163	0.072
-502.683	557.032	0.074	-0.178
-501.668	-200.000	-0.005	-0.050
-500.653	93.162	0.157	0.178
-499.639	138.835	-0.257	0.339
-498.624	-47.321	-0.229	0.112
-497.610	29.015	-0.123	0.105
-496.595	-200.000	0.033	-0.235
-495.581	800.000	-0.082	-0.283
-494.566	-178.003	0.198	0.005
-493.551	10.151	-0.100	0.077
-492.537	225.917	-0.079	-0.129
-491.522	-32.860	0.307	0.171
-490.508	37.901	0.375	0.334
-489.493	24.605	0.069	0.058
-488.478	23.805	-0.079	-0.065
-487.464	800.000	0.075	-0.232
-486.449	-127.288	0.334	0.049
-485.435	-147.372	-0.267	-0.023
-484.420	49.994	0.223	0.211
-483.405	-100.460	-0.126	0.031
-482.391	-200.000	-0.016	0.172
-481.376	-52.261	-0.459	0.213
-480.362	2.479	-0.147	0.107
-479.347	38.973	-0.059	0.053
-478.332	-156.083	-0.265	-0.017
-477.318	800.000	0.079	0.342
-476.303	-7.661	0.222	-0.150
-475.289	-200.000	-0.028	0.335
-474.274	44.649	0.280	0.258
-473.259	51.131	0.215	0.204
-472.245	369.479	0.117	0.237
-471.230	-113.867	0.113	0.022
-470.216	41.178	0.350	-0.317
-469.201	543.397	-0.020	-0.047
-468.186	46.356	0.239	0.222
-467.172	-200.000	-0.019	-0.268
-466.157	800.000	-0.048	-0.159
-465.143	74.817	0.099	0.105
-464.128	800.000	0.058	0.163
-463.113	-200.000	-0.016	-0.170
-462.099	1.278	-0.305	0.219
-461.084	11.403	-0.318	0.244
-460.070	-84.617	0.420	0.133
-459.055	800.000	-0.042	0.169
-458.040	-31.669	-0.581	0.327
-457.026	34.909	0.219	0.192
-456.011	532.382	-0.031	-0.074
-454.997	99.183	-0.144	-0.167
-453.982	286.649	-0.145	0.261
-452.968	114.679	0.047	0.057
-451.953	448.875	0.261	0.575
-450.938	-182.735	-0.189	-0.003
-449.924	-107.186	0.283	-0.063
-448.909	-200.000	0.009	-0.272
-447.895	10.050	-0.121	-0.092
-446.880	-200.000	-0.008	0.090
-445.865	703.764	0.059	-0.157
-444.851	-200.000	0.062	-0.444
-443.836	14.413	-0.212	0.166
-442.822	115.523	-0.160	-0.196
-441.807	800.000	0.028	-0.116
-440.792	800.000	-0.055	-0.177
-439.778	248.944	-0.163	-0.276
-438.763	95.541	-0.033	-0.038
-437.749	800.000	0.092	0.384
-436.734	-200.000	-0.002	0.261
-435.719	800.000	-0.058	-0.194
-434.705	-115.430	0.377	0.071
-433.690	-200.000	0.043	-0.265
-432.676	800.000	-0.075	0.284
-431.661	-194.916	0.350	-0.003
-430.646	113.963	-0.093	0.113
-429.632	800.000	0.049	-0.190
-428.617	-35.126	0.195	-0.106
-427.603	31.825	-0.216	0.186
-426.588	-166.285	0.140	0.006
-425.573	-100.541	0.137	0.034
-424.559	-16.065	0.207	0.131
-423.544	-164.264	0.430	-0.020
-422.530	51.979	-0.261	-0.248
-421.515	118.420	-0.204	-0.252
-420.500	182.783	-0.233	-0.344
-419.486	-200.000	-0.031	0.163
-418.471	58.693	0.119	-0.116
-417.457	-15.058	-0.243	-0.156
-416.442	267.933	-0.112	-0.195
-415.428	-164.513	0.127	0.006
-414.413	800.000	-0.036	0.142
-413.398	-200.000	-0.036	-0.232
-412.384	-11.825	-0.101	-0.066
-411.369	151.071	-0.107	0.145
-410.355	35.941	0.072	-0.063
-409.340	24.765	-0.156	0.129
-408.325	-161.681	0.078	0.004
-407.311	-158.392	-0.130	0.008
-406.296	-200.000	-0.005	0.041
-405.282	96.590	-0.260	0.298
-404.267	-67.088	0.156	0.061
-403.252	-88.273	0.099	-0.030
-402.238	-77.918	-0.272	-0.094
-401.223	-200.000	-0.004	-0.080
-400.209	-200.000	0.007	-0.294
-399.194	-119.830	-0.316	0.054
-398.179	-38.643	-0.080	-0.042
-397.165	-126.147	-0.166	-0.025
-396.150	-54.394	-0.146	-0.066
-395.136	-101.759	0.148	0.036
-394.121	-77.474	0.209	-0.072
-393.106	199.610	-0.069	-0.106
-392.092	-127.562	-0.109	-0.016
-391.077	9.314	0.086	0.065
-390.063	32.967	-0.124	0.107
-389.048	-122.840	0.371	-0.060
-388.033	-99.658	-0.122	0.031
-387.019	-122.133	-0.225	0.037
-386.004	-200.000	-0.034	-0.217
-384.990	-99.417	-0.107	0.027
-383.975	155.020	0.107	-0.147
-382.960	187.160	0.158	0.236
-381.946	-72.710	0.138	0.051
-380.931	-200.000	-0.024	-0.348
-379.917	-200.000	-0.041	-0.269
-378.902	-200.000	-0.011	0.202
-377.888	-3.620	-0.263	-0.182
-376.873	-115.686	0.290	-0.054
-375.858	246.889	0.096	-0.161
-374.844	293.945	0.086	-0.156
-373.829	-32.043	-0.474	-0.265
-372.815	800.000	-0.054	-0.174
-371.800	510.701	-0.133	-0.308
-370.785	221.080	0.133	0.214
-369.771	262.435	0.120	0.208
-368.756	-100.427	0.085	-0.021
-367.742	-58.521	0.318	0.138
-366.727	-141.995	0.114	-0.011
-365.712	800.000	-0.032	-0.128
-364.698	800.000	0.007	0.029
-363.683	21.451	-0.301	-0.244
-362.669	515.043	0.185	-0.430
-361.654	-88.663	0.029	0.009
-360.639	49.802	-0.164	0.155
-359.625	-129.498	0.174	-0.024
-358.610	80.782	-0.273	0.293
-357.596	-80.338	-0.150	0.050
-356.581	-200.000	-0.083	0.398
-355.566	-200.000	-0.006	-0.133
-354.552	-106.315	0.214	-0.048
-353.537	-139.086	-0.271	0.029
-352.523	-130.101	0.055	0.008
-351.508	800.000	0.088	-0.275
-350.493	199.354	-0.196	0.300
-349.479	-91.273	-0.199	-0.057
-348.464	76.986	0.077	0.081
-347.450	57.418	-0.281	-0.273
-346.435	-4.865	-0.072	0.049
-345.420	49.221	-0.105	-0.099
-344.406	-127.829	-0.306	0.044
-343.391	800.000	-0.074	0.204
-342.377	-115.125	0.643	0.122
-341.362	6.581	-0.127	0.094
-340.348	-148.814	0.055	0.004
-339.333	-200.000	0.012	-0.159
-338.318	-146.493	-0.185	-0.016
-337.304	710.166	-0.194	0.512
-336.289	-84.588	0.313	-0.098
-335.275	-14.246	0.094	0.060
-334.260	13.100	-0.053	0.041
-333.245	62.749	0.147	-0.146
-332.231	153.205	0.165	-0.225
-331.216	-200.000	-0.027	0.168
-330.202	-167.619	-0.334	-0.013
-329.187	366.813	0.047	-0.095
-328.172	800.000	0.049	-0.156
-327.158	-200.000	0.004	0.369
-326.143	-191.588	0.167	-0.002
-325.129	332.854	0.132	-0.253
-324.114	-200.000	-0.045	-0.246
-323.099	-175.098	-0.246	0.007
-322.085	-80.741	-0.359	0.119
-321.070	37.651	-0.057	0.051
-320.056	53.502	0.168	0.160
-319.041	-47.461	0.048	-0.023
-318.026	550.099	-0.064	-0.152
-317.012	99.632	0.081	0.094
-315.997	41.478	0.056	-0.050
-314.983	-200.000	0.017	-0.191
-313.968	-87.906	-0.144	0.043
-312.953	34.494	-0.163	0.141
-311.939	178.454	0.099	0.143
-310.924	176.902	0.106	-0.154
-309.910	136.021	0.185	0.240
-308.895	-200.000	-0.017	-0.280
-307.880	-200.000	-0.001	0.018
-306.866	-125.673	-0.116	0.017
-305.851	-164.091	-0.216	-0.010
-304.837	-83.514	0.076	0.024
-303.822	303.512	0.134	-0.247
-302.807	-85.066	-0.171	-0.053
-301.793	-119.149	0.055	-0.010
-300.778	-126.268	-0.196	-0.029
-299.764	-85.239	0.093	0.029
-298.749	-76.122	0.192	-0.067
-297.735	-105.911	0.276	0.062
-296.720	-200.000	0.027	0.130
-295.705	59.142	0.270	0.264
-294.691	-64.656	0.301	0.121
-293.676	8.721	0.133	-0.100
-292.662	-162.878	-0.275	0.013
-291.647	-119.022	0.139	0.024
-290.632	800.000	0.051	-0.203
-289.618	-188.361	-0.216	-0.003
-288.603	779.488	-0.166	-0.452
-287.589	377.275	0.038	0.078
-286.574	789.219	0.084	-0.230
-285.559	-200.000	-0.023	0.111
-284.545	49.911	-0.172	-0.161
-283.530	373.890	-0.047	-0.094
-282.516	-41.955	-0.106	-0.054
-281.501	800.000	0.061	0.169
-280.486	-34.333	0.235	0.128
-279.472	-127.748	0.063	-0.009
-278.457	-43.234	0.031	0.015
-277.443	402.451	0.110	-0.229
-276.428	113.523	0.118	-0.142
-275.413	60.532	0.121	0.119
-274.399	-200.000	0.100	0.465
-273.384	-138.207	0.186	-0.021
-272.370	603.404	0.072	0.179
-271.355	-158.111	0.204	-0.012
-270.340	800.000	0.115	-0.451
-269.326	460.568	-0.154	-0.341
-268.311	-200.000	-0.007	-0.307
-267.297	-69.229	-0.086	0.033
-266.282	-200.000	-0.005	-0.250
-265.267	65.754	-0.111	-0.112
-264.253	-156.254	0.185	0.012
-263.238	-18.283	0.237	-0.147
-262.224	800.000	0.143	0.453
-261.209	-101.299	0.288	-0.070
-260.195	203.359	-0.183	0.281
-259.180	-39.651	-0.065	-0.034
-258.165	-36.420	0.010	-0.006
-257.151	-17.443	0.030	0.019
-256.136	58.957	-0.225	0.220
-255.122	-99.012	-0.250	-0.063
-254.107	127.163	-0.153	-0.192
-253.092	755.641	0.026	0.070
-252.078	-200.000	-0.005	0.144
-251.063	-134.856	0.226	-0.027
-250.049	-200.000	0.028	-0.180
-249.034	150.469	-0.242	-0.326
-248.019	-123.318	-0.198	0.031
-247.005	-110.699	0.108	-0.022
-245.990	-37.792	0.254	0.134
-244.976	800.000	0.066	0.285
-243.961	648.281	0.082	-0.207
-242.946	-101.357	-0.219	-0.053
-241.932	91.864	0.057	-0.063
-240.917	-200.000	-0.007	0.248
-239.903	53.601	-0.261	0.248
-238.888	-200.000	-0.013	-0.181
-237.873	296.278	-0.114	-0.207
-236.859	-102.719	0.125	0.030
-235.844	75.122	0.069	0.072
-234.830	276.492	-0.093	-0.164
-233.815	352.249	0.116	-0.229
-232.800	83.914	0.101	-0.110
-231.786	560.893	0.158	0.379
-230.771	256.625	0.224	-0.381
-229.757	-200.000	-0.017	0.210
-228.742	-200.000	0.004	0.027
-227.727	-200.000	0.006	0.025
-226.713	241.672	-0.065	0.108
-225.698	338.264	0.144	0.279
-224.684	-53.509	0.062	0.028
-223.669	3.542	-0.195	-0.141
-222.655	-121.655	-0.071	-0.012
-221.640	-200.000	0.032	-0.144
-220.625	-65.622	0.163	0.065
-219.611	-200.000	-0.028	0.194
-218.596	616.825	0.057	0.143
-217.582	-7.451	0.170	0.114
-216.567	-200.000	0.010	-0.060
-215.552	287.954	0.052	-0.093
-214.538	40.268	-0.082	-0.073
-213.523	-101.440	0.074	0.018
-212.509	23.404	0.139	0.113
-211.494	-37.595	0.125	0.066
-210.479	112.805	-0.045	-0.053
-209.465	-200.000	0.015	0.174
-208.450	44.107	-0.034	0.031
-207.436	-147.429	0.088	0.007
-206.421	-200.000	0.004	-0.043
-205.406	-89.844	-0.348	-0.101
-204.392	-106.874	-0.307	0.068
-203.377	-200.000	-0.016	0.175
-202.363	432.827	0.144	-0.310
-201.348	-200.000	-0.035	-0.176
-200.333	800.000	0.065	0.202
-199.319	217.948	0.180	-0.284
-198.304	-133.277	-0.207	-0.026
-197.290	800.000	-0.037	-0.151
-196.275	-170.560	-0.479	-0.017
-195.260	-112.114	0.131	0.026
-194.246	-112.905	-0.136	-0.027
-193.231	152.596	0.106	-0.143
-192.217	-200.000	0.024	-0.462
-191.202	800.000	0.103	-0.285
-190.187	800.000	-0.075	0.315
-189.173	-138.244	-0.327	0.036
-188.158	-13.632	0.276	-0.177
-187.144	402.843	-0.100	0.209
-186.129	122.400	-0.071	-0.087
-185.114	211.241	0.141	-0.219
-184.100	724.227	-0.110	-0.290
-183.085	97.403	0.159	0.181
-182.071	-73.257	-0.219	-0.079
-181.056	-14.403	0.170	0.108
-180.042	402.489	0.033	0.069
-179.027	-198.201	0.234	-0.001
-178.012	-162.346	0.358	0.018
-176.998	-160.582	0.177	-0.009
-175.983	-200.000	0.054	0.464
-174.969	252.546	-0.143	0.242
-173.954	-120.719	0.177	-0.030
-172.939	-200.000	0.014	-0.124
-171.925	11.719	-0.275	-0.209
-170.910	111.744	-0.130	0.156
-169.896	384.478	-0.108	0.220
-168.881	80.044	0.204	-0.217
-167.866	-200.000	-0.016	-0.159
-166.852	-108.918	0.117	0.025
-165.837	-3.755	0.222	-0.153
-164.823	-200.000	-0.008	0.169
-163.808	-19.117	-0.190	-0.117
-162.793	151.316	-0.027	-0.037
-161.779	-200.000	-0.011	-0.092
-160.764	-33.515	0.391	-0.214
-159.750	800.000	0.060	0.183
-158.735	7.317	0.134	0.099
-157.720	-119.160	-0.501	-0.087
-156.706	-125.152	0.257	-0.039
-155.691	-200.000	0.021	0.177
-154.677	-200.000	0.002	0.110
-153.662	-200.000	0.008	-0.044
-152.647	-200.000	0.002	0.268
-151.633	-121.030	0.090	-0.015
-150.618	-200.000	-0.001	0.090
-149.604	442.635	-0.110	-0.239
-148.589	-200.000	-0.043	0.254
-147.574	-140.351	-0.171	0.018
-146.560	49.620	0.020	-0.019
-145.545	-200.000	-0.028	-0.243
-144.531	-200.000	-0.024	0.112
-143.516	-64.004	0.328	0.133
-142.502	26.219	-0.299	0.247
-141.487	452.755	-0.151	0.331
-140.472	339.491	-0.052	-0.100
-139.458	42.539	0.165	0.149
-138.443	245.686	0.111	0.185
-137.429	71.591	0.163	-0.167
-136.414	404.587	-0.120	-0.251
-135.399	214.852	-0.040	-0.062
-134.385	179.522	0.067	-0.096
-133.370	258.524	-0.195	-0.333
-132.356	-200.000	-0.296	0.000
-131.341	142.921	0.032	-0.042
-130.326	-189.856	0.012	0.000
-129.312	-79.850	0.097	-0.032
-128.297	73.564	0.066	-0.068
-127.283	41.085	0.232	0.207
-126.268	-159.590	0.062	0.003
-125.253	-143.179	-0.169	-0.016
-124.239	-5.890	-0.118	0.080
-123.224	-200.000	-0.035	-0.454
-122.210	651.009	-0.039	0.099
-121.195	720.218	-0.061	0.161
-120.180	-26.834	0.101	-0.059
-119.166	800.000	0.063	0.227
-118.151	108.353	0.286	0.337
-117.137	194.167	-0.142	-0.212
-116.122	-1.218	-0.190	-0.133
-115.107	-139.261	0.153	0.016
-114.093	-127.747	0.162	-0.023
-113.078	668.011	0.207	-0.530
-112.064	-200.000	-0.006	-0.088
-111.049	-10.208	0.236	-0.155
-110.034	138.095	-0.146	0.190
-109.020	301.335	0.159	-0.291
-108.005	-50.439	0.264	0.123
-106.991	181.107	-0.149	-0.217
-105.976	243.780	-0.089	-0.147
-104.962	77.058	-0.188	-0.197
-103.947	-9.658	0.172	-0.113
-102.932	-143.046	0.301	0.029
-101.918	-54.514	0.492	0.220
-100.903	-200.000	0.063	-0.353
-99.889	455.960	0.056	-0.123
-98.874	-18.584	-0.173	0.107
-97.859	117.061	-0.167	0.203
-96.845	389.702	0.034	-0.071
-95.830	-200.000	0.004	0.191
-94.816	-104.597	-0.107	-0.024
-93.801	-106.062	-0.163	0.036
-92.786	-118.162	0.348	-0.061
-91.772	11.093	0.155	-0.117
-90.757	800.000	0.041	-0.114
-89.743	496.270	0.126	0.286
-88.728	78.511	-0.322	0.340
-87.713	-61.893	0.093	0.039
-86.699	-80.695	-0.169	0.055
-85.684	-116.813	0.200	-0.036
-84.670	60.137	0.073	-0.072
-83.655	272.602	-0.042	-0.072
-82.640	301.678	-0.204	0.372
-81.626	140.387	0.099	0.129
-80.611	-111.478	-0.353	-0.071
-79.597	-200.000	0.227	-0.001
-78.582	-150.532	-0.237	0.018
-77.567	-200.000	-0.034	0.323
-76.553	-125.294	0.372	0.056
-75.538	233.147	0.025	0.040
-74.524	-200.000	-0.008	-0.132
-73.509	89.220	-0.143	-0.157
-72.494	800.000	0.111	-0.352
-71.480	800.000	-0.051	0.160
-70.465	800.000	0.055	0.181
-69.451	63.668	-0.261	0.259
-68.436	-19.575	-0.373	-0.228
-67.422	90.305	0.040	0.044
-66.407	-85.674	-0.207	0.064
-65.392	90.375	0.077	-0.085
-64.378	-25.816	0.380	0.221
-63.363	800.000	-0.047	-0.150
-62.349	-200.000	-0.021	0.107
-61.334	104.741	-0.939	-1.091
-60.319	32.606	0.622	0.531
-59.305	-200.000	-0.152	-0.965
-58.290	706.249	0.290	0.755
-57.276	371.750	0.868	1.738
-56.261	-200.000	95.747	561.029
-55.246	501.328	1435.138	3266.366
-54.232	147.217	2637.824	3499.439
-53.217	108.345	2226.483	2618.891
-52.203	43.258	1749.869	1575.015
-51.188	36.113	1559.826	1353.952
-50.173	33.766	1532.656	1314.090
-49.159	51.810	1581.343	1483.123
-48.144	54.393	1599.620	1518.379
-47.130	36.388	1558.460	1354.476
-46.115	33.343	1543.169	1319.943
-45.100	33.117	1539.544	1315.219
-44.086	33.077	1537.875	1313.460
-43.071	33.020	1535.815	1311.258
-42.057	33.027	1534.201	1309.870
-41.042	32.990	1533.022	1308.556
-40.027	33.071	1531.133	1307.453
-39.013	33.047	1529.868	1306.159
-37.998	32.917	1529.383	1304.789
-36.984	33.005	1527.806	1304.004
-35.969	33.055	1525.919	1302.684
-34.954	32.950	1525.217	1301.309
-33.940	33.012	1523.003	1299.795
-32.925	33.019	1521.607	1298.602
-31.911	33.089	1520.434	1298.032
-30.896	33.177	1518.959	1297.321
-29.881	33.099	1517.541	1295.528
-28.867	32.935	1516.391	1293.368
-27.852	33.030	1514.659	1292.490
-26.838	33.002	1513.570	1291.318
-25.823	33.000	1511.988	1289.901
-24.809	32.978	1510.556	1288.483
-23.794	33.004	1508.797	1287.104
-22.779	33.003	1507.460	1285.907
-21.765	32.983	1506.531	1284.927
-20.750	33.017	1505.572	1284.293
-19.736	33.018	1504.134	1283.018
-18.721	33.086	1503.309	1282.727
-17.706	32.998	1502.087	1281.035
-16.692	32.921	1500.900	1279.454
-15.677	32.955	1500.056	1278.911
-14.663	33.002	1499.259	1278.502
-13.648	32.959	1498.200	1277.255
-12.633	32.832	1497.626	1275.859
-11.619	32.936	1496.761	1275.770
-10.604	32.995	1496.002	1275.473
-9.590	32.951	1494.534	1273.870
-8.575	32.964	1494.117	1273.554
-7.560	32.904	1492.899	1272.060
-6.546	32.970	1491.697	1271.432
-5.531	32.896	1491.118	1270.390
-4.517	32.938	1489.992	1269.660
-3.502	32.889	1489.604	1268.949
-2.487	32.879	1488.230	1267.664
-1.473	32.898	1487.026	1266.718
-0.458	32.980	1485.322	1265.761
0.556	31.795	1476.555	1258.021
1.571	29.569	1451.389	1221.763
2.586	26.807	1390.350	1152.747
3.600	25.158	1307.602	1074.177
4.615	23.553	1261.214	1026.698
5.629	21.811	1206.214	972.189
6.644	17.167	1125.149	882.691
7.659	13.144	1086.669	832.200
8.673	12.482	1081.653	824.963
9.688	12.286	1078.723	821.678
10.702	12.237	1076.841	819.926
11.717	12.335	1074.794	818.781
12.731	14.210	1076.728	829.538
13.746	18.728	1081.927	856.048
14.761	19.910	1083.014	862.727
15.775	18.331	1079.966	852.370
16.790	17.153	1076.856	843.992
17.804	16.039	1074.701	836.698
18.819	15.177	1072.622	830.732
19.834	14.644	1071.069	826.817
20.848	14.170	1070.148	823.685
21.863	13.913	1069.272	821.669
22.877	13.748	1068.544	820.218
23.892	13.446	1067.971	818.216
24.907	13.339	1067.048	816.906
25.921	13.505	1066.200	817.005
26.936	13.570	1065.473	816.695
27.950	13.514	1064.640	815.709
28.965	13.641	1062.950	814.967
29.980	13.554	1062.145	813.849
30.994	13.601	1061.218	813.298
32.009	13.693	1060.142	812.851
33.023	13.639	1059.128	811.740
34.038	13.762	1058.541	811.820
35.053	13.656	1057.768	810.636
36.067	13.706	1056.107	809.536
37.082	13.609	1055.502	808.528
38.096	13.558	1055.048	807.858
39.111	13.595	1054.216	807.331
40.126	13.609	1053.434	806.728
41.140	13.612	1052.274	805.783
42.155	13.418	1051.272	804.004
43.169	13.471	1050.326	803.466
44.184	13.437	1049.043	802.249
45.199	13.229	1048.411	800.687
46.213	13.442	1046.996	800.566
47.228	13.444	1046.324	799.990
48.242	13.531	1045.534	799.733
49.257	13.502	1044.544	798.766
50.271	13.611	1043.218	798.206
51.286	13.557	1042.276	797.158
52.301	13.577	1041.671	796.721
53.315	13.615	1040.684	796.077
54.330	13.498	1040.057	794.966
55.344	13.537	1039.138	794.377
56.359	13.462	1038.227	793.252
57.374	13.361	1037.436	792.096
58.388	13.500	1036.204	791.748
59.403	13.471	1035.782	791.217
60.417	13.411	1034.936	790.215
61.432	13.332	1033.966	789.027
62.447	13.386	1033.196	788.628
63.461	13.332	1032.456	787.738
64.476	13.302	1031.508	786.799
65.490	13.313	1030.491	786.008
66.505	13.271	1029.974	785.346
67.520	13.324	1029.060	784.829
68.534	13.326	1028.149	784.073
69.549	13.345	1027.205	783.377
70.563	13.361	1027.149	783.339
71.578	13.418	1026.018	782.675
72.593	13.276	1025.309	781.397
73.607	13.227	1023.757	779.913
74.622	13.193	1023.267	779.310
75.636	13.204	1022.137	778.430
76.651	13.089	1022.075	777.773
77.666	13.260	1020.581	777.373
78.680	13.215	1020.247	776.839
79.695	13.228	1019.868	776.540
80.709	13.169	1019.148	775.649
81.724	13.410	1017.896	775.757
82.739	13.218	1017.751	774.677
83.753	13.412	1016.767	774.766
84.768	13.525	1015.197	774.030
85.782	13.436	1014.887	773.311
86.797	13.724	1014.178	774.048
87.812	13.593	1013.057	772.511
88.826	13.503	1012.621	771.692
89.841	13.486	1011.526	770.711
90.855	13.544	1010.902	770.436
91.870	13.530	1010.000	769.616
92.884	13.689	1009.264	769.723
93.899	13.683	1008.819	769.287
94.914	13.601	1007.940	768.169
95.928	13.621	1007.561	767.908
96.943	13.750	1006.289	767.466
97.957	13.686	1005.645	766.608
98.972	13.571	1004.849	765.405
99.987	13.724	1003.764	765.217
101.001	13.664	1003.558	764.717
102.016	13.503	1002.813	763.339
103.030	13.608	1001.745	762.939
104.045	13.481	1000.704	761.497
105.060	13.654	999.455	761.275
106.074	13.543	998.980	760.336
107.089	13.508	997.875	759.268
108.103	13.501	997.166	758.625
109.118	13.384	995.967	757.112
110.133	13.425	995.030	756.522
111.147	13.365	994.706	755.932
112.162	13.417	993.574	755.241
113.176	13.544	992.685	755.079
114.191	13.544	991.840	754.371
115.206	13.568	990.770	753.599
116.220	13.505	990.359	752.934
117.235	13.466	989.708	752.193
118.249	13.279	988.665	750.485
119.264	13.437	987.738	750.433
120.279	13.562	986.502	749.991
121.293	13.338	986.297	748.759
122.308	13.421	985.295	748.306
123.322	13.459	984.252	747.618
124.337	13.431	983.385	746.769
125.352	13.293	982.455	745.374
126.366	13.331	981.167	744.501
127.381	13.437	979.864	743.923
128.395	13.325	979.266	742.902
129.410	13.390	977.967	742.141
130.424	13.518	976.911	741.848
131.439	13.491	976.400	741.273
132.454	13.429	975.583	740.309
133.468	13.447	974.787	739.719
134.483	13.533	974.289	739.661
135.497	13.620	973.262	739.203
136.512	13.530	972.571	738.215
137.527	13.548	972.029	737.815
138.541	13.580	971.396	737.411
139.556	13.532	970.475	736.434
140.570	13.514	969.409	735.482
141.585	13.580	968.771	735.226
142.600	13.590	968.017	734.633
143.614	13.509	967.976	734.177
144.629	13.671	966.529	733.732
145.643	13.749	966.078	733.670
146.658	13.716	964.868	732.537
147.673	13.527	964.536	731.388
148.687	13.629	963.358	730.881
149.702	13.555	962.807	730.070
150.716	13.617	961.902	729.592
151.731	13.533	960.950	728.439
152.746	13.450	960.294	727.512
153.760	13.678	959.060	727.514
154.775	13.594	958.683	726.795
155.789	13.783	957.480	726.644
156.804	13.725	956.994	725.956
157.819	13.711	956.333	725.329
158.833	13.737	956.001	725.127
159.848	13.789	955.280	724.746
160.862	13.745	954.503	723.900
161.877	13.717	953.722	723.121
162.892	13.728	952.553	722.217
163.906	13.646	952.000	721.379
164.921	13.609	951.126	720.491
165.935	13.511	950.454	719.495
166.950	13.706	948.916	719.108
167.964	13.723	947.832	718.301
168.979	13.758	947.158	717.875
169.994	13.625	946.367	716.637
171.008	13.718	945.221	716.109
172.023	13.768	944.233	715.511
173.037	13.816	943.794	715.325
174.052	13.855	943.172	714.956
175.067	13.934	942.340	714.600
176.081	13.690	941.769	713.058
177.096	13.732	940.686	712.353
178.110	13.831	939.760	712.015
179.125	13.801	938.899	711.172
180.140	13.768	938.449	710.625
181.154	13.852	937.906	710.511
182.169	13.683	937.517	709.432
183.183	13.850	936.502	709.315
184.198	14.021	935.320	709.085
185.213	14.030	935.096	708.891
186.227	14.011	934.273	708.125
187.242	14.001	934.033	707.836
188.256	14.059	933.140	707.343
189.271	14.202	932.202	707.176
190.286	14.054	931.833	706.208
191.300	13.971	930.872	705.063
192.315	13.809	930.346	703.918
193.329	13.915	929.206	703.440
194.344	13.853	928.395	702.501
195.359	13.801	928.029	701.941
196.373	13.890	927.537	701.883
197.388	14.037	927.199	702.186
198.402	14.047	926.749	701.827
199.417	14.096	925.911	701.339
200.432	14.204	925.811	701.655
201.446	14.148	925.234	700.917
202.461	14.358	924.466	701.157
203.475	14.257	924.257	700.512
204.490	14.336	923.712	700.372
205.504	14.234	922.534	698.988
206.519	14.292	921.734	698.561
207.534	14.105	921.120	697.253
208.548	14.073	920.403	696.512
209.563	14.375	919.503	697.035
210.577	14.142	919.052	695.657
211.592	14.194	918.488	695.386
212.607	14.427	917.534	695.575
213.621	14.318	917.314	694.891
214.636	14.373	916.393	694.359
215.650	14.414	915.860	694.065
216.665	14.338	915.338	693.290
217.680	14.335	914.773	692.790
218.694	14.253	914.532	692.208
219.709	14.513	913.794	692.666
220.723	14.365	913.145	691.498
221.738	14.501	911.923	691.078
222.753	14.450	911.436	690.433
223.767	14.597	910.650	690.387
224.782	14.505	909.873	689.356
225.796	14.547	909.317	689.049
226.811	14.590	908.324	688.412
227.826	14.619	907.590	687.912
228.840	14.638	907.313	687.722
229.855	14.479	906.682	686.528
230.869	14.582	905.897	686.297
231.884	14.507	905.441	685.581
232.899	14.533	904.451	684.879
233.913	14.562	903.675	684.349
234.928	14.366	903.415	683.287
235.942	14.491	902.677	683.181
236.957	14.483	901.705	682.351
237.972	14.527	901.169	682.067
238.986	14.509	900.569	681.477
240.001	14.568	899.709	681.010
241.015	14.571	899.695	680.949
242.030	14.797	898.544	680.939
243.045	14.705	897.879	680.000
244.059	14.572	897.545	679.146
245.074	14.828	896.249	679.144
246.088	14.803	895.831	678.667
247.103	14.624	895.666	677.754
248.117	14.789	894.939	677.814
249.132	14.780	894.336	677.260
250.147	14.878	893.710	677.124
251.161	14.938	893.106	676.849
252.176	15.063	892.358	676.728
253.190	15.025	891.358	675.758
254.205	15.083	891.049	675.697
255.220	15.150	890.561	675.535
256.234	15.147	889.681	674.797
257.249	15.070	889.097	673.986
258.263	15.229	888.416	674.049
259.278	15.113	887.752	673.020
260.293	15.077	887.940	672.959
261.307	15.145	886.938	672.411
262.322	15.187	886.407	672.119
263.336	15.119	885.704	671.253
264.351	15.110	885.454	670.967
265.366	15.370	884.559	671.270
266.380	15.381	883.852	670.718
267.395	15.341	883.122	669.946
268.409	15.323	882.430	669.289
269.424	15.203	881.745	668.232
270.439	15.276	880.942	667.855
271.453	15.253	880.336	667.245
272.468	15.357	879.182	666.725
273.482	15.216	878.811	665.825
274.497	15.273	878.111	665.462
275.512	15.365	877.263	665.124
276.526	15.240	876.841	664.249
277.541	15.240	876.057	663.597
278.555	15.285	875.321	663.159
279.570	15.417	875.206	663.535
280.585	15.550	874.226	663.261
281.599	15.582	873.969	663.130
282.614	15.501	873.306	662.250
283.628	15.482	872.290	661.348
284.643	15.377	872.078	660.713
285.657	15.408	871.485	660.327
286.672	15.457	871.188	660.238
287.687	15.557	870.528	660.071
288.701	15.471	870.065	659.324
289.716	15.431	869.240	658.485
290.730	15.594	868.460	658.474
291.745	15.551	867.793	657.742
292.760	15.613	867.252	657.518
293.774	15.586	867.003	657.164
294.789	15.684	866.080	656.787
295.803	15.654	865.815	656.413
296.818	15.601	864.788	655.370
297.833	15.667	864.129	655.069
298.847	15.642	863.435	654.386
299.862	15.552	863.161	653.770
300.876	15.740	862.050	653.601
301.891	15.605	861.521	652.620
302.906	15.759	860.981	652.751
303.920	15.700	860.435	652.048
304.935	15.880	859.683	652.119
305.949	15.911	858.685	651.424
306.964	15.943	858.220	651.138
307.979	15.856	858.009	650.584
308.993	15.857	857.343	650.027
310.008	15.953	856.867	649.980
311.022	15.929	856.752	649.740
312.037	15.962	855.611	648.946
313.052	15.971	854.888	648.373
314.066	15.789	854.834	647.574
315.081	15.722	854.519	647.022
316.095	15.806	853.617	646.603
317.110	15.868	853.160	646.438
318.125	15.816	852.477	645.663
319.139	15.916	851.776	645.459
320.154	15.903	851.355	645.035
321.168	15.889	850.960	644.621
322.183	15.929	850.341	644.250
323.197	16.061	849.700	644.212
324.212	16.029	848.907	643.433
325.227	16.029	848.577	643.124
326.241	15.936	848.138	642.380
327.256	16.055	847.131	642.016
328.270	16.051	846.802	641.693
329.285	15.979	846.448	641.092
330.300	16.110	845.718	640.982
331.314	15.969	845.011	639.856
332.329	15.951	844.789	639.559
333.343	16.045	843.974	639.243
334.358	16.065	843.465	638.877
335.373	16.164	843.024	638.861
336.387	16.020	842.743	638.049
337.402	16.108	842.105	637.841
338.416	16.233	841.265	637.619
339.431	16.198	841.061	637.278
340.446	16.338	840.387	637.237
341.460	16.417	839.026	636.449
342.475	16.276	839.094	635.913
343.489	16.409	838.516	635.920
344.504	16.351	837.989	635.244
345.519	16.552	837.365	635.470
346.533	16.576	836.863	635.122
347.548	16.473	836.580	634.467
348.562	16.431	835.999	633.812
349.577	16.555	834.995	633.457
350.592	16.361	834.817	632.539
351.606	16.347	834.292	632.033
352.621	16.409	833.855	631.882
353.635	16.399	833.503	631.519
354.650	16.374	832.784	630.825
355.665	16.410	832.795	630.914
356.679	16.474	832.025	630.511
357.694	16.546	831.410	630.260
358.708	16.610	830.797	629.976
359.723	16.637	830.215	629.581
360.738	16.464	829.948	628.680
361.752	16.490	829.493	628.376
362.767	16.624	828.819	628.306
363.781	16.527	828.446	627.606
364.796	16.610	828.180	627.660
365.810	16.611	827.917	627.409
366.825	16.746	827.130	627.255
367.840	16.942	826.740	627.628
368.854	16.731	826.492	626.604
369.869	16.780	825.880	626.267
370.883	16.775	825.507	625.912
371.898	16.791	824.851	625.418
372.913	16.783	824.259	624.883
373.927	16.929	823.234	624.590
374.942	16.872	822.939	624.100
375.956	16.916	822.057	623.537
376.971	16.920	821.936	623.405
377.986	17.052	821.069	623.176
379.000	16.994	820.459	622.445
380.015	17.017	820.085	622.192
381.029	16.926	819.726	621.531
382.044	17.086	818.994	621.507
383.059	17.115	818.281	621.017
384.073	17.011	817.799	620.215
385.088	17.108	817.271	620.112
386.102	17.060	816.726	619.469
387.117	16.985	816.659	619.091
388.132	16.957	816.001	618.435
389.146	17.055	815.655	618.476
390.161	17.075	815.421	618.318
391.175	17.006	815.172	617.821
392.190	17.157	814.441	617.763
393.205	17.090	813.754	616.942
394.219	17.255	813.189	617.059
395.234	17.183	812.902	616.524
396.248	17.091	812.475	615.815
397.263	16.907	812.290	614.951
398.278	17.039	811.492	614.771
399.292	16.993	811.326	614.425
400.307	16.822	811.069	613.556
401.321	17.118	810.627	614.239
402.336	17.042	810.051	613.472
403.350	17.249	809.617	613.839
404.365	17.181	809.227	613.242
405.380	17.220	808.632	612.877
406.394	17.227	807.972	612.349
407.409	17.395	807.669	612.671
408.423	17.419	807.187	612.338
409.438	17.322	806.628	611.511
410.453	17.451	806.285	611.658
411.467	17.424	805.959	611.261
412.482	17.453	805.444	610.919
413.496	17.556	804.713	610.681
414.511	17.565	804.560	610.544
415.526	17.598	804.155	610.299
416.540	17.497	803.840	609.645
417.555	17.496	803.439	609.284
418.569	17.632	802.462	608.973
419.584	17.512	802.142	608.251
420.599	17.565	801.988	608.267
421.613	105.542	1287.358	1451.454
422.628	90.743	1358.045	1451.568
