DTS Sentinel unit serial number:	SN413079Multiplexer serial number:	ORYXHardware model number:	OX4-SRSoftware version number:	ORYX F/W v4.00 Oryx Data Collector v3.7.2.0data status	okinstallation	princeton_trtdifferential loss correction	single-endedforward channel	channel 3reverse channel	N/Adate	2019/09/19time	06:40:35forward acquisition time	60.00reverse acquisition time	0.00gamma	496.2192k internal	0.2348k external	0.2348temperature offset calibration	0.9991default loss term (dB/km)	0.3790temperature slope calibration	1.0000multiplexer offset coefficient	1.0000multiplexer slope coefficient	1.0000fibre end	0.00T internal ref (°C)	19.00T ext. ref 1 (°C)	0.57T ext. ref 2 (°C)	12.79length (m)	temperature (°C)	Stokes	anti-Stokes-747.200	-121.626	0.210	0.035
-746.185	-44.512	-0.118	-0.059
-745.171	523.087	-0.094	0.222
-744.156	172.833	-0.135	-0.194
-743.142	143.997	0.024	-0.031
-742.127	55.192	-0.141	0.136
-741.112	800.000	-0.018	-0.075
-740.098	354.119	0.046	0.091
-739.083	-71.387	-0.292	0.109
-738.069	10.953	-0.305	0.233
-737.054	84.032	0.106	0.116
-736.039	-68.850	-0.134	-0.052
-735.025	-108.508	0.349	-0.075
-734.010	71.494	0.071	-0.073
-732.996	341.927	-0.116	-0.226
-731.981	-18.805	-0.187	-0.116
-730.966	19.365	-0.089	-0.071
-729.952	-90.978	-0.493	0.142
-728.937	57.958	-0.111	-0.109
-727.923	800.000	-0.058	0.226
-726.908	-88.866	-0.334	-0.099
-725.894	-79.192	-0.107	0.036
-724.879	-200.000	0.027	-0.227
-723.864	-69.520	-0.158	0.060
-722.850	-123.867	-0.398	-0.063
-721.835	10.205	0.172	-0.131
-720.821	-72.082	0.274	0.101
-719.806	89.678	0.075	-0.084
-718.791	800.000	-0.075	0.230
-717.777	-13.680	0.073	-0.047
-716.762	-37.526	-0.264	0.141
-715.748	-99.529	0.113	-0.028
-714.733	-200.000	-0.006	-0.144
-713.718	231.087	0.088	0.144
-712.704	-54.765	-0.389	-0.175
-711.689	12.284	0.288	0.222
-710.675	2.228	0.166	0.119
-709.660	230.045	0.161	0.262
-708.645	800.000	0.035	0.098
-707.631	525.755	0.046	0.109
-706.616	-97.962	0.334	-0.086
-705.602	-52.825	-0.315	-0.145
-704.587	-136.271	-0.180	-0.021
-703.572	-200.000	-0.048	-0.349
-702.558	258.515	0.174	-0.298
-701.543	-181.033	-0.435	0.009
-700.529	752.726	0.034	0.092
-699.514	619.903	0.206	0.516
-698.499	800.000	-0.130	0.400
-697.485	-20.214	-0.197	0.121
-696.470	73.344	-0.079	-0.082
-695.456	-108.343	-0.295	-0.063
-694.441	-200.000	0.020	0.346
-693.426	20.597	0.168	0.136
-692.412	535.203	0.097	0.229
-691.397	-116.330	-0.087	-0.016
-690.383	240.272	-0.074	-0.123
-689.368	751.374	0.026	0.069
-688.354	-13.167	0.120	0.078
-687.339	-200.000	-0.037	-0.246
-686.324	-131.854	-0.105	0.014
-685.310	800.000	0.048	0.137
-684.295	128.629	0.132	0.167
-683.281	421.123	-0.079	0.169
-682.266	-101.804	0.153	0.037
-681.251	48.265	-0.222	-0.207
-680.237	-200.000	0.004	-0.073
-679.222	-34.937	0.225	-0.122
-678.208	-18.675	0.150	0.093
-677.193	341.296	0.115	-0.224
-676.178	800.000	-0.088	-0.329
-675.164	139.417	-0.101	-0.132
-674.149	-200.000	0.005	0.039
-673.135	-67.360	-0.371	0.145
-672.120	18.228	-0.105	0.083
-671.105	-21.350	-0.315	-0.191
-670.091	184.201	0.060	-0.089
-669.076	-118.517	0.052	-0.009
-668.062	-46.015	-0.323	0.158
-667.047	-110.544	0.385	0.079
-666.032	101.797	0.112	0.130
-665.018	-84.164	-0.114	-0.036
-664.003	-131.969	0.264	-0.034
-662.989	90.890	0.170	-0.190
-661.974	-15.674	-0.234	-0.149
-660.959	-200.000	0.005	-0.049
-659.945	470.226	0.085	-0.191
-658.930	148.978	-0.226	0.304
-657.916	-99.219	0.228	-0.057
-656.901	-87.169	0.105	0.032
-655.886	-200.000	0.039	0.182
-654.872	-200.000	0.008	-0.316
-653.857	800.000	-0.040	0.119
-652.843	8.315	0.057	0.043
-651.828	-97.775	-0.217	0.056
-650.814	-200.000	0.002	0.035
-649.799	-86.926	-0.123	0.037
-648.784	117.430	-0.218	0.267
-647.770	-200.000	-0.015	-0.207
-646.755	-200.000	-0.067	0.321
-645.741	-200.000	-0.004	-0.153
-644.726	800.000	0.130	0.381
-643.711	-197.302	0.260	-0.002
-642.697	-109.908	0.246	0.051
-641.682	100.658	0.042	0.048
-640.668	-200.000	-0.050	0.318
-639.653	175.247	0.268	0.387
-638.638	48.791	-0.110	0.103
-637.624	19.505	-0.441	-0.353
-636.609	272.870	-0.081	-0.143
-635.595	480.366	-0.114	0.258
-634.580	75.398	-0.194	-0.204
-633.565	21.983	0.284	-0.230
-632.551	-111.217	0.061	-0.012
-631.536	87.374	-0.086	0.094
-630.522	-1.532	0.228	-0.160
-629.507	462.994	0.082	-0.182
-628.492	554.498	0.158	-0.379
-627.478	158.238	-0.112	-0.155
-626.463	-83.862	-0.174	0.055
-625.449	-73.922	0.177	0.064
-624.434	-69.051	0.208	0.080
-623.419	-64.595	0.277	0.112
-622.405	-24.371	0.293	0.174
-621.390	622.807	-0.070	-0.176
-620.376	-155.159	-0.138	0.009
-619.361	32.481	-0.284	0.244
-618.346	115.908	0.062	0.075
-617.332	-76.517	0.084	-0.029
-616.317	-41.765	0.490	-0.250
-615.303	28.361	0.086	0.073
-614.288	-91.385	-0.306	0.087
-613.273	158.389	0.203	-0.280
-612.259	142.894	-0.168	-0.221
-611.244	-125.240	0.140	-0.021
-610.230	-26.794	0.132	-0.077
-609.215	800.000	0.051	-0.190
-608.201	175.604	0.183	-0.264
-607.186	-68.278	0.101	-0.039
-606.171	-30.278	-0.178	-0.100
-605.157	-77.524	-0.208	-0.072
-604.142	-58.711	-0.216	0.093
-603.128	185.763	-0.046	0.068
-602.113	263.498	-0.045	0.078
-601.098	-200.000	0.007	-0.166
-600.084	-81.466	-0.296	-0.097
-599.069	-198.516	0.158	0.001
-598.055	800.000	0.072	-0.256
-597.040	-53.740	-0.102	-0.046
-596.025	19.019	0.026	-0.021
-595.011	-200.000	0.024	-0.540
-593.996	-7.580	0.426	-0.286
-592.982	431.220	-0.105	0.226
-591.967	432.006	0.017	-0.037
-590.952	800.000	-0.079	-0.284
-589.938	-158.422	-0.125	-0.007
-588.923	44.455	0.145	-0.133
-587.909	-34.315	-0.198	-0.108
-586.894	275.057	0.077	-0.135
-585.879	27.499	0.062	-0.052
-584.865	-200.000	-0.010	0.246
-583.850	694.774	-0.100	-0.260
-582.836	-73.823	-0.282	-0.102
-581.821	-48.502	0.211	0.101
-580.806	159.813	-0.159	0.220
-579.792	116.584	-0.277	0.337
-578.777	205.638	-0.060	-0.092
-577.763	-200.000	0.013	-0.401
-576.748	-26.406	-0.090	0.053
-575.733	581.541	0.163	0.397
-574.719	-200.000	-0.036	-0.254
-573.704	-49.797	0.152	0.072
-572.690	334.547	-0.280	0.538
-571.675	-119.014	0.126	-0.022
-570.661	-77.822	0.257	-0.088
-569.646	-52.713	-0.146	0.067
-568.631	-10.748	0.165	-0.108
-567.617	-62.234	0.067	0.028
-566.602	-70.587	0.119	0.045
-565.588	-200.000	-0.022	-0.095
-564.573	51.395	0.252	-0.237
-563.558	-114.352	0.292	0.056
-562.544	-146.874	-0.304	0.026
-561.529	-11.704	0.302	-0.197
-560.515	124.762	-0.272	-0.339
-559.500	396.347	-0.096	0.199
-558.485	-200.000	-0.017	-0.083
-557.471	-121.722	-0.206	-0.034
-556.456	-53.439	-0.333	-0.151
-555.442	-200.000	0.018	0.264
-554.427	546.329	-0.040	0.095
-553.412	-91.019	0.193	0.055
-552.398	86.487	0.268	-0.294
-551.383	-140.159	0.321	-0.033
-550.369	-134.356	-0.329	-0.040
-549.354	-200.000	0.010	-0.151
-548.339	34.819	0.162	0.141
-547.325	-25.377	-0.175	-0.103
-546.310	260.764	0.124	0.213
-545.296	-8.107	-0.245	0.163
-544.281	73.457	0.110	0.114
-543.266	-200.000	-0.041	-0.368
-542.252	800.000	0.018	0.072
-541.237	116.585	-0.035	0.043
-540.223	87.435	-0.071	-0.078
-539.208	772.804	-0.054	0.147
-538.193	-96.030	-0.223	-0.059
-537.179	-105.308	-0.220	-0.050
-536.164	-11.298	-0.345	0.225
-535.150	-107.990	-0.197	0.042
-534.135	21.568	0.338	0.273
-533.121	-200.000	0.042	0.207
-532.106	-200.000	-0.002	0.023
-531.091	572.090	0.037	-0.089
-530.077	385.027	0.034	0.069
-529.062	23.506	-0.213	0.173
-528.048	264.122	0.153	-0.264
-527.033	-200.000	0.002	-0.246
-526.018	-66.318	-0.465	0.183
-525.004	84.655	-0.285	-0.309
-523.989	398.816	0.080	0.166
-522.975	-126.959	0.218	-0.032
-521.960	295.039	-0.084	0.153
-520.945	-36.615	0.055	-0.029
-519.931	77.850	-0.212	0.223
-518.916	46.205	0.081	0.074
-517.902	544.403	0.216	0.510
-516.887	411.359	-0.051	0.108
-515.872	-42.450	0.467	-0.236
-514.858	37.924	-0.135	-0.119
-513.843	94.780	0.243	0.274
-512.829	-200.000	-0.014	0.230
-511.814	8.687	0.163	-0.121
-510.799	66.154	0.208	0.209
-509.785	-113.408	0.392	0.076
-508.770	-200.000	-0.064	-0.422
-507.756	-22.303	0.146	-0.088
-506.741	-80.664	0.257	0.084
-505.726	-200.000	0.006	-0.090
-504.712	665.404	0.044	-0.112
-503.697	-200.000	-0.006	0.182
-502.683	-200.000	-0.006	-0.222
-501.668	-185.004	-0.371	0.006
-500.653	-137.872	-0.294	-0.033
-499.639	-51.102	0.171	-0.079
-498.624	238.262	0.153	0.251
-497.610	39.767	-0.032	0.028
-496.595	-68.118	-0.392	-0.151
-495.581	-133.653	0.341	0.042
-494.566	800.000	-0.020	-0.057
-493.551	195.144	0.082	0.123
-492.537	-188.241	-0.087	-0.001
-491.522	-200.000	0.015	-0.509
-490.508	-36.097	-0.422	-0.226
-489.493	460.573	-0.042	0.092
-488.478	800.000	-0.058	0.224
-487.464	-200.000	-0.048	0.227
-486.449	713.785	0.072	-0.188
-485.435	800.000	-0.056	0.221
-484.420	-194.513	-0.139	-0.001
-483.405	50.748	-0.277	-0.259
-482.391	509.836	0.026	-0.060
-481.376	323.475	0.123	-0.231
-480.362	-109.940	-0.102	-0.021
-479.347	276.255	0.097	-0.170
-478.332	-100.289	0.207	0.051
-477.318	-20.418	-0.213	-0.130
-476.303	-65.837	0.234	0.092
-475.289	472.743	-0.056	0.125
-474.274	354.973	0.147	0.289
-473.259	48.900	0.093	0.086
-472.245	-93.729	-0.165	0.045
-471.230	19.203	-0.122	-0.097
-470.216	116.480	0.145	-0.176
-469.201	207.640	-0.215	-0.332
-468.186	251.303	-0.111	0.187
-467.172	-200.000	0.003	-0.079
-466.157	800.000	-0.146	-0.412
-465.143	-4.964	0.148	-0.101
-464.128	198.994	-0.079	0.119
-463.113	-18.736	-0.272	0.168
-462.099	-200.000	0.003	-0.176
-461.084	-2.846	-0.192	0.132
-460.070	1.781	0.138	-0.098
-459.055	357.060	-0.058	0.114
-458.040	-122.411	-0.009	-0.001
-457.026	-8.752	0.284	0.189
-456.011	-36.831	-0.073	-0.038
-454.997	-165.751	0.306	0.013
-453.982	-83.697	-0.114	0.036
-452.968	304.047	-0.134	-0.245
-451.953	178.782	0.110	-0.158
-450.938	-43.592	-0.251	0.125
-449.924	238.175	-0.084	-0.138
-448.909	-97.852	-0.116	-0.030
-447.895	-3.433	-0.042	0.029
-446.880	-200.000	0.005	-0.214
-445.865	-138.939	0.377	0.040
-444.851	-107.452	-0.330	-0.071
-443.836	-12.156	-0.154	0.100
-442.822	340.983	0.090	0.173
-441.807	340.183	-0.057	-0.109
-440.792	-54.022	0.109	0.049
-439.778	236.534	-0.139	-0.227
-438.763	-103.439	0.310	-0.072
-437.749	-70.383	-0.147	-0.055
-436.734	397.731	0.055	0.113
-435.719	-150.011	-0.038	0.003
-434.705	-200.000	0.030	-0.129
-433.690	163.961	-0.062	0.086
-432.676	78.794	-0.237	-0.250
-431.661	-8.212	0.175	0.116
-430.646	133.508	0.061	-0.078
-429.632	-200.000	0.007	-0.307
-428.617	409.261	-0.093	0.195
-427.603	-147.597	-0.214	0.018
-426.588	47.003	0.344	0.316
-425.573	737.586	0.056	0.147
-424.559	-14.309	0.206	0.131
-423.544	800.000	0.105	0.321
-422.530	-200.000	-0.023	0.346
-421.515	-4.356	0.223	-0.152
-420.500	800.000	-0.081	0.268
-419.486	-200.000	-0.016	0.227
-418.471	667.879	0.031	-0.079
-417.457	105.750	-0.101	-0.118
-416.442	-200.000	0.003	0.351
-415.428	-200.000	-0.028	-0.182
-414.413	-85.131	-0.116	0.036
-413.398	-105.258	-0.294	-0.066
-412.384	35.834	-0.124	-0.107
-411.369	-4.230	0.385	0.263
-410.355	-200.000	-0.005	0.432
-409.340	296.903	0.017	0.031
-408.325	800.000	0.033	0.135
-407.311	518.261	0.041	0.096
-406.296	800.000	-0.067	0.271
-405.282	78.626	0.219	0.231
-404.267	-162.928	-0.214	-0.010
-403.252	-138.162	0.192	0.021
-402.238	688.514	-0.176	0.454
-401.223	-10.188	0.071	0.047
-400.209	-153.725	-0.359	0.024
-399.194	-47.509	-0.171	-0.082
-398.179	460.108	0.140	0.308
-397.165	-83.355	-0.125	0.039
-396.150	-59.900	0.078	0.033
-395.136	-28.073	-0.038	-0.021
-394.121	-200.000	-0.008	-0.179
-393.106	431.924	0.052	-0.111
-392.092	-200.000	-0.066	-0.297
-391.077	-155.749	-0.255	-0.016
-390.063	-30.090	-0.323	-0.181
-389.048	-200.000	0.050	0.268
-388.033	54.036	0.150	0.142
-387.019	266.997	0.062	0.107
-386.004	-130.659	-0.083	-0.011
-384.990	438.619	0.117	0.252
-383.975	-60.536	0.115	0.048
-382.960	-200.000	-0.051	0.332
-381.946	-19.153	0.198	-0.121
-380.931	171.948	-0.151	0.214
-379.917	-29.002	-0.237	0.134
-378.902	329.027	0.068	0.128
-377.888	-200.000	0.015	0.089
-376.873	94.299	-0.146	0.163
-375.858	800.000	0.057	0.218
-374.844	-8.852	-0.042	0.028
-373.829	-200.000	0.004	0.036
-372.815	-66.725	0.083	0.032
-371.800	-45.448	-0.160	-0.078
-370.785	439.319	0.049	0.105
-369.771	-91.962	0.200	-0.056
-368.756	68.199	-0.313	-0.316
-367.742	-34.544	0.171	0.092
-366.727	800.000	-0.067	-0.251
-365.712	-160.931	-0.189	0.010
-364.698	95.979	0.067	0.075
-363.683	-40.498	-0.061	0.031
-362.669	-134.703	0.206	-0.025
-361.654	-45.407	0.069	-0.034
-360.639	80.123	-0.118	0.125
-359.625	100.369	-0.244	-0.279
-358.610	-200.000	-0.061	-0.425
-357.596	-93.225	0.120	0.033
-356.581	-189.700	-0.084	-0.001
-355.566	540.633	0.091	-0.213
-354.552	384.194	0.129	0.261
-353.537	-200.000	0.003	0.237
-352.523	800.000	-0.097	0.293
-351.508	66.686	0.295	0.296
-350.493	356.591	-0.078	0.153
-349.479	-22.468	0.185	-0.110
-348.464	-128.672	-0.255	0.035
-347.450	800.000	0.052	-0.210
-346.435	-94.519	0.369	-0.099
-345.420	-27.502	0.208	-0.119
-344.406	-28.948	0.444	-0.251
-343.391	194.727	0.117	-0.174
-342.377	626.037	0.051	0.125
-341.362	234.284	-0.082	0.133
-340.348	-200.000	-0.021	-0.208
-339.333	31.422	-0.180	0.152
-338.318	-83.800	0.470	0.147
-337.304	102.327	0.034	0.039
-336.289	800.000	0.044	-0.138
-335.275	-200.000	0.008	-0.078
-334.260	-161.398	0.165	0.008
-333.245	150.338	-0.059	-0.078
-332.231	323.912	0.147	0.276
-331.216	-61.677	-0.430	-0.177
-330.202	127.534	0.052	0.065
-329.187	400.144	-0.103	-0.211
-328.172	-95.279	-0.298	0.079
-327.158	-200.000	0.005	-0.032
-326.143	285.371	0.142	0.251
-325.129	-21.237	0.163	-0.098
-324.114	2.373	-0.189	-0.134
-323.099	-200.000	0.035	0.193
-322.085	91.151	-0.152	0.168
-321.070	77.239	0.239	-0.249
-320.056	-142.962	0.088	0.008
-319.041	272.154	0.131	0.226
-318.026	-200.000	-0.016	0.156
-317.012	380.559	0.096	0.193
-315.997	75.467	0.267	-0.277
-314.983	35.116	0.145	0.125
-313.968	-128.324	-0.353	0.049
-312.953	-168.040	0.286	0.011
-311.939	-200.000	0.052	-0.403
-310.924	142.594	-0.120	-0.156
-309.910	100.117	0.148	-0.169
-308.895	800.000	0.046	-0.153
-307.880	-68.239	0.239	-0.091
-306.866	710.028	0.128	-0.334
-305.851	440.030	0.093	-0.200
-304.837	18.173	-0.040	0.032
-303.822	42.794	-0.067	-0.060
-302.807	319.450	-0.161	-0.300
-301.793	136.284	-0.192	0.245
-300.778	-90.728	0.110	-0.031
-299.764	-64.613	0.262	-0.104
-298.749	505.954	-0.053	-0.120
-297.735	531.630	0.040	-0.093
-296.720	800.000	-0.073	0.217
-295.705	-81.867	0.023	-0.007
-294.691	-200.000	0.018	-0.315
-293.676	-145.581	-0.284	0.025
-292.662	-5.733	0.347	-0.233
-291.647	-24.636	-0.205	-0.119
-290.632	-200.000	-0.066	-0.370
-289.618	-113.349	0.104	0.020
-288.603	17.950	0.135	-0.106
-287.589	-52.694	0.075	-0.034
-286.574	-200.000	-0.005	-0.119
-285.559	16.671	0.119	-0.092
-284.545	-146.079	-0.103	0.009
-283.530	44.994	0.141	-0.127
-282.516	311.311	-0.085	-0.156
-281.501	265.533	-0.119	-0.203
-280.486	-200.000	-0.059	0.283
-279.472	-146.886	0.456	-0.038
-278.457	-56.705	0.108	0.047
-277.443	-77.892	0.258	0.087
-276.428	146.478	-0.153	-0.202
-275.413	-8.499	-0.094	-0.062
-274.399	225.464	-0.131	0.208
-273.384	-24.981	0.230	-0.134
-272.370	-200.000	-0.054	0.256
-271.355	800.000	-0.081	0.293
-270.340	-109.680	-0.244	0.050
-269.326	800.000	0.042	-0.147
-268.311	560.714	0.110	-0.261
-267.297	-173.512	0.244	0.007
-266.282	-200.000	0.049	0.594
-265.267	-200.000	0.023	0.248
-264.253	-177.012	-0.120	0.003
-263.238	0.088	-0.127	0.089
-262.224	-51.024	-0.213	-0.098
-261.209	1.392	-0.131	-0.092
-260.195	-200.000	0.016	0.086
-259.180	-200.000	-0.032	0.281
-258.165	-200.000	0.011	-0.359
-257.151	-43.429	-0.242	-0.120
-256.136	-3.393	0.068	0.047
-255.122	-200.000	0.043	-0.288
-254.107	-101.682	-0.142	0.034
-253.092	464.249	0.139	-0.304
-252.078	19.977	-0.181	0.143
-251.063	-200.000	-0.031	0.274
-250.049	-169.814	-0.118	0.004
-249.034	-106.087	-0.147	0.032
-248.019	800.000	-0.074	-0.287
-247.005	-200.000	0.012	0.103
-245.990	28.082	-0.027	-0.023
-244.976	20.620	-0.151	0.120
-243.961	-200.000	-0.010	0.093
-242.946	-49.146	0.355	-0.166
-241.932	-200.000	-0.024	0.139
-240.917	-200.000	-0.025	-0.447
-239.903	-200.000	-0.002	-0.113
-238.888	-67.757	-0.098	-0.038
-237.873	657.705	-0.173	-0.435
-236.859	-85.367	0.236	0.072
-235.844	-9.681	0.159	0.104
-234.830	-30.685	-0.438	-0.243
-233.815	384.665	-0.182	-0.368
-232.800	76.821	-0.114	-0.118
-231.786	800.000	0.106	0.350
-230.771	137.869	0.158	-0.202
-229.757	-200.000	0.087	0.391
-228.742	1.883	-0.242	0.171
-227.727	-200.000	-0.023	-0.103
-226.713	223.090	0.120	0.189
-225.698	-200.000	-0.031	-0.216
-224.684	-200.000	0.060	0.439
-223.669	-86.704	0.262	-0.079
-222.655	800.000	-0.138	0.431
-221.640	-140.057	0.332	0.034
-220.625	426.040	-0.091	0.192
-219.611	-106.903	0.092	0.020
-218.596	-142.658	-0.573	0.055
-217.582	-200.000	0.035	-0.185
-216.567	800.000	0.032	0.117
-215.552	107.138	-0.113	0.131
-214.538	-200.000	-0.047	0.478
-213.523	800.000	0.046	0.148
-212.509	-200.000	-0.114	-0.000
-211.494	-200.000	0.006	-0.033
-210.479	-106.784	0.153	0.033
-209.465	800.000	0.047	-0.137
-208.450	189.753	-0.026	0.038
-207.436	-200.000	0.015	-0.358
-206.421	73.993	-0.104	0.106
-205.406	-24.013	0.273	0.160
-204.392	319.871	-0.214	-0.397
-203.377	73.237	-0.059	-0.060
-202.363	-135.653	-0.220	-0.026
-201.348	-176.797	-0.101	0.003
-200.333	-100.650	0.177	-0.043
-199.319	-132.755	-0.174	-0.022
-198.304	133.234	0.153	-0.194
-197.290	800.000	0.077	0.279
-196.275	664.261	-0.082	0.207
-195.260	-185.516	0.319	-0.005
-194.246	-22.219	-0.152	-0.090
-193.231	99.361	0.071	-0.081
-192.217	800.000	-0.057	-0.211
-191.202	-42.981	-0.186	-0.092
-190.187	159.767	-0.153	-0.208
-189.173	-6.446	0.060	0.040
-188.158	-200.000	-0.028	-0.161
-187.144	121.341	0.026	-0.031
-186.129	-55.368	-0.169	-0.074
-185.114	-200.000	-0.041	0.239
-184.100	-200.000	0.040	0.197
-183.085	-42.344	-0.319	0.159
-182.071	-114.209	0.251	0.047
-181.056	-73.019	-0.340	-0.122
-180.042	420.520	0.128	-0.267
-179.027	-200.000	0.015	0.205
-178.012	-111.860	0.430	-0.085
-176.998	-22.150	-0.363	0.215
-175.983	-74.595	-0.249	0.088
-174.969	800.000	0.057	0.233
-173.954	117.863	0.234	-0.281
-172.939	-200.000	-0.066	-0.393
-171.925	-200.000	0.001	0.077
-170.910	94.740	0.342	0.380
-169.896	51.145	-0.226	0.209
-168.881	-90.371	0.075	-0.021
-167.866	-200.000	0.075	0.465
-166.852	80.535	0.193	0.203
-165.837	214.832	0.074	0.115
-164.823	134.096	-0.048	-0.060
-163.808	-200.000	0.032	0.394
-162.793	-82.912	0.218	-0.069
-161.779	800.000	0.018	0.062
-160.764	-13.912	-0.338	0.213
-159.750	-200.000	0.058	0.357
-158.735	1.901	0.142	-0.100
-157.720	418.590	-0.120	-0.250
-156.706	-103.151	0.031	0.007
-155.691	101.276	-0.202	-0.229
-154.677	-200.000	-0.055	-0.265
-153.662	551.600	-0.084	-0.196
-152.647	-200.000	0.022	0.099
-151.633	15.446	0.314	-0.240
-150.618	21.051	-0.103	-0.082
-149.604	156.818	-0.084	0.113
-148.589	47.706	0.043	0.040
-147.574	-200.000	0.011	-0.084
-146.560	800.000	0.062	0.172
-145.545	19.490	-0.138	0.108
-144.531	-122.760	-0.322	0.051
-143.516	-6.216	0.090	0.060
-142.502	58.627	0.245	-0.235
-141.487	-153.204	-0.333	-0.023
-140.472	-108.340	0.151	-0.032
-139.458	-200.000	-0.020	-0.089
-138.443	-200.000	0.011	0.184
-137.429	-200.000	-0.027	0.175
-136.414	-135.505	-0.198	-0.023
-135.399	-200.000	-0.012	-0.146
-134.385	-32.397	-0.148	-0.081
-133.370	-102.527	-0.325	-0.076
-132.356	701.635	-0.173	0.444
-131.341	-21.065	-0.064	0.038
-130.326	-200.000	-0.018	0.098
-129.312	72.114	-0.130	0.132
-128.297	312.913	0.129	0.237
-127.283	-83.626	-0.099	0.031
-126.268	376.813	0.039	-0.077
-125.253	800.000	0.014	0.056
-124.239	-200.000	0.031	0.348
-123.224	-92.417	0.224	0.061
-122.210	800.000	0.049	0.160
-121.195	32.418	-0.138	-0.116
-120.180	637.068	0.088	0.217
-119.166	-37.614	0.252	0.131
-118.151	42.411	0.149	-0.132
-117.137	-191.376	0.069	0.001
-116.122	-200.000	-0.059	-0.408
-115.107	-44.995	0.242	-0.117
-114.093	-93.004	-0.181	-0.049
-113.078	253.531	0.188	-0.313
-112.064	-118.810	-0.304	0.052
-111.049	-5.104	0.267	0.179
-110.034	800.000	-0.048	0.141
-109.020	-15.142	0.230	0.144
-108.005	14.037	0.214	0.162
-106.991	196.589	0.080	-0.118
-105.976	-104.907	0.141	0.031
-104.962	136.782	0.366	0.465
-103.947	-64.389	0.115	-0.045
-102.932	10.236	0.261	0.193
-101.918	-16.817	0.092	-0.057
-100.903	-200.000	0.031	-0.278
-99.889	-186.642	0.215	-0.003
-98.874	-61.530	0.183	0.075
-97.859	57.147	0.158	-0.150
-96.845	151.752	-0.035	0.046
-95.830	273.235	0.102	-0.176
-94.816	-94.623	0.326	0.086
-93.801	-106.157	0.284	-0.062
-92.786	800.000	0.065	-0.260
-91.772	379.644	-0.244	-0.487
-90.757	-200.000	-0.038	-0.320
-89.743	-200.000	0.023	0.175
-88.728	152.580	-0.200	0.266
-87.713	-59.402	-0.129	-0.054
-86.699	-129.676	0.408	0.055
-85.684	319.819	0.039	0.072
-84.670	66.242	-0.207	-0.205
-83.655	499.327	-0.085	0.191
-82.640	498.236	-0.089	-0.201
-81.626	-200.000	0.017	0.116
-80.611	-200.000	0.015	-0.185
-79.597	800.000	-0.078	-0.217
-78.582	-89.472	-0.189	-0.054
-77.567	-67.752	0.351	-0.134
-76.553	127.967	0.064	0.079
-75.538	-145.303	-0.236	0.021
-74.524	560.563	-0.006	0.014
-73.509	800.000	0.042	0.180
-72.494	192.472	0.113	-0.166
-71.480	102.917	0.149	0.169
-70.465	16.416	-0.206	-0.158
-69.451	800.000	0.063	-0.224
-68.436	-96.182	0.532	-0.137
-67.422	800.000	0.043	0.129
-66.407	-200.000	-0.014	0.137
-65.392	-200.000	-0.053	0.261
-64.378	19.352	0.224	-0.175
-63.363	-66.984	-0.161	0.062
-62.349	-89.463	-0.075	-0.022
-61.334	120.381	-1.089	-1.316
-60.319	-17.053	1.111	0.682
-59.305	557.629	-0.620	-1.453
-58.290	191.030	0.842	1.232
-57.276	230.409	0.848	1.348
-56.261	-200.000	135.678	628.029
-55.246	347.772	1631.573	3126.429
-54.232	138.803	2767.814	3535.934
-53.217	80.701	2175.139	2280.027
-52.203	28.695	1696.335	1396.414
-51.188	21.857	1521.734	1205.801
-50.173	20.384	1501.576	1179.783
-49.159	43.713	1577.752	1403.878
-48.144	39.430	1588.358	1383.256
-47.130	21.871	1537.238	1217.990
-46.115	19.265	1522.004	1187.935
-45.100	19.054	1518.621	1183.792
-44.086	18.979	1516.454	1181.544
-43.071	18.896	1515.160	1179.915
-42.057	18.977	1513.344	1179.014
-41.042	19.002	1512.131	1178.189
-40.027	18.996	1510.142	1176.553
-39.013	18.895	1509.350	1175.199
-37.998	18.925	1507.653	1174.034
-36.984	18.905	1506.574	1173.010
-35.969	18.930	1505.112	1171.999
-34.954	18.962	1503.398	1170.834
-33.940	18.923	1502.102	1169.516
-32.925	18.949	1500.801	1168.630
-31.911	18.962	1499.632	1167.759
-30.896	18.983	1498.865	1167.258
-29.881	19.124	1497.118	1166.811
-28.867	19.128	1495.566	1165.582
-27.852	19.050	1494.264	1163.991
-26.838	18.993	1493.494	1162.963
-25.823	19.125	1491.266	1162.071
-24.809	18.998	1490.033	1160.211
-23.794	19.078	1488.802	1159.741
-22.779	19.060	1487.376	1158.462
-21.765	19.134	1486.449	1158.197
-20.750	19.158	1484.620	1156.884
-19.736	19.058	1484.121	1155.780
-18.721	18.950	1483.235	1154.314
-17.706	19.026	1482.139	1153.928
-16.692	19.033	1480.914	1152.979
-15.677	19.080	1479.896	1152.451
-14.663	18.946	1478.838	1150.686
-13.648	18.968	1478.254	1150.331
-12.633	18.984	1477.217	1149.584
-11.619	18.949	1476.450	1148.710
-10.604	18.948	1475.612	1148.008
-9.590	19.035	1474.577	1147.735
-8.575	19.068	1473.369	1146.972
-7.560	19.036	1472.603	1146.113
-6.546	18.930	1471.998	1144.894
-5.531	18.936	1471.539	1144.532
-4.517	19.047	1469.812	1143.877
-3.502	18.998	1468.918	1142.815
-2.487	18.921	1467.905	1141.466
-1.473	18.886	1467.260	1140.690
-0.458	19.045	1465.488	1140.317
0.556	18.039	1455.581	1128.654
1.571	14.885	1431.916	1089.677
2.586	11.459	1371.174	1021.943
3.600	10.088	1287.447	951.396
4.615	9.318	1243.933	914.781
5.629	8.284	1187.973	867.930
6.644	4.303	1108.791	789.773
7.659	1.136	1075.753	750.513
8.673	0.716	1070.840	744.950
9.688	0.484	1067.612	741.499
10.702	0.471	1066.466	740.571
11.717	0.599	1063.350	738.972
12.731	1.785	1063.298	744.669
13.746	6.761	1069.096	773.076
14.761	13.075	1078.265	810.727
15.775	16.714	1082.829	832.002
16.790	16.860	1081.422	831.561
17.804	15.856	1079.875	825.375
18.819	14.997	1078.253	819.859
19.834	14.586	1076.656	816.561
20.848	14.362	1075.583	814.576
21.863	14.195	1074.483	812.857
22.877	13.959	1073.987	811.260
23.892	13.732	1072.864	809.232
24.907	13.535	1072.665	808.046
25.921	13.697	1071.238	807.692
26.936	13.774	1070.734	807.612
27.950	13.653	1070.548	806.813
28.965	13.797	1069.196	806.421
29.980	13.842	1068.613	806.132
30.994	13.985	1067.025	805.555
32.009	13.903	1066.696	804.840
33.023	13.969	1065.913	804.496
34.038	13.971	1065.048	803.780
35.053	13.892	1064.145	802.645
36.067	13.797	1063.510	801.639
37.082	13.859	1062.744	801.290
38.096	13.866	1061.574	800.370
39.111	13.837	1061.138	799.828
40.126	13.846	1060.145	799.055
41.140	13.831	1058.797	797.892
42.155	13.813	1058.133	797.238
43.169	13.779	1057.166	796.276
44.184	13.661	1055.991	794.753
45.199	13.706	1054.505	793.783
46.213	13.805	1053.916	793.741
47.228	13.640	1053.068	792.242
48.242	13.864	1051.421	792.004
49.257	13.771	1051.018	791.188
50.271	13.754	1050.300	790.496
51.286	13.826	1049.141	789.893
52.301	13.719	1048.294	788.680
53.315	13.767	1047.383	788.153
54.330	13.875	1046.357	787.821
55.344	13.683	1045.907	786.503
56.359	13.740	1044.381	785.554
57.374	13.875	1043.638	785.564
58.388	13.768	1043.098	784.583
59.403	13.729	1042.057	783.548
60.417	13.618	1041.808	782.766
61.432	13.668	1040.944	782.286
62.447	13.689	1040.444	781.937
63.461	13.693	1039.343	781.061
64.476	13.614	1038.374	779.893
65.490	13.559	1037.773	779.115
66.505	13.649	1036.781	778.724
67.520	13.503	1036.157	777.499
68.534	13.704	1035.046	777.541
69.549	13.670	1034.544	776.932
70.563	13.665	1033.843	776.316
71.578	13.876	1032.600	776.299
72.593	13.788	1032.023	775.388
73.607	13.551	1031.035	773.470
74.622	13.658	1029.781	772.960
75.636	13.480	1029.454	771.815
76.651	13.568	1028.205	771.220
77.666	13.681	1027.556	771.192
78.680	13.634	1027.033	770.510
79.695	13.772	1026.345	770.570
80.709	13.715	1025.827	769.848
81.724	13.732	1024.780	769.073
82.739	13.801	1024.018	768.751
83.753	13.620	1023.468	767.431
84.768	13.804	1022.606	767.568
85.782	13.808	1021.734	766.866
86.797	13.918	1020.684	766.517
87.812	13.876	1020.194	765.885
88.826	13.856	1019.159	764.949
89.841	13.684	1018.381	763.509
90.855	13.714	1017.728	763.086
91.870	13.829	1016.985	762.990
92.884	13.783	1016.368	762.250
93.899	13.844	1015.383	761.721
94.914	13.853	1014.864	761.310
95.928	13.985	1013.582	760.886
96.943	14.002	1013.251	760.644
97.957	13.904	1012.452	759.529
98.972	13.914	1011.594	758.864
99.987	13.886	1010.732	758.023
101.001	13.941	1009.946	757.619
102.016	13.818	1009.509	756.661
103.030	13.908	1008.111	755.956
104.045	13.929	1007.023	755.171
105.060	13.971	1006.019	754.541
106.074	13.913	1004.965	753.420
107.089	13.868	1004.260	752.623
108.103	13.856	1003.807	752.159
109.118	13.836	1002.343	750.905
110.133	13.639	1002.359	749.963
111.147	13.739	1001.294	749.549
112.162	13.711	1000.065	748.436
113.176	13.785	999.146	748.018
114.191	13.847	998.379	747.657
115.206	13.932	997.431	747.263
116.220	13.931	996.808	746.724
117.235	13.845	995.676	745.426
118.249	13.841	995.357	745.101
119.264	13.782	994.265	743.956
120.279	13.971	992.497	743.409
121.293	13.726	992.729	742.422
122.308	13.750	991.701	741.697
123.322	13.830	990.441	741.045
124.337	13.660	990.025	739.910
125.352	13.701	988.655	739.000
126.366	13.736	987.353	738.121
127.381	13.729	986.377	737.293
128.395	13.789	984.960	736.437
129.410	13.657	984.265	735.265
130.424	13.731	983.502	734.956
131.439	13.850	982.549	734.707
132.454	13.847	981.621	733.936
133.468	13.795	980.957	733.143
134.483	13.797	980.562	732.794
135.497	13.899	979.485	732.375
136.512	13.740	979.057	731.289
137.527	13.757	978.034	730.535
138.541	13.879	976.912	730.167
139.556	13.897	976.264	729.698
140.570	13.860	975.826	729.142
141.585	13.908	975.096	728.746
142.600	13.961	974.291	728.309
143.614	13.919	973.850	727.730
144.629	14.022	973.125	727.576
145.643	14.062	971.507	726.479
146.658	13.926	971.374	725.718
147.673	13.931	970.198	724.801
148.687	13.923	969.543	724.212
149.702	13.996	968.419	723.625
150.716	13.951	967.800	722.901
151.731	13.952	967.085	722.308
152.746	13.997	966.055	721.670
153.760	13.841	965.427	720.460
154.775	14.062	964.477	720.645
155.789	14.054	963.873	720.097
156.804	14.055	963.176	719.516
157.819	14.048	962.264	718.740
158.833	14.174	961.412	718.586
159.848	14.161	960.749	717.969
160.862	14.147	960.298	717.510
161.877	14.005	959.641	716.343
162.892	14.165	958.736	716.291
163.906	14.093	957.735	715.172
164.921	14.125	957.095	714.766
165.935	13.972	955.975	713.211
166.950	14.072	955.220	713.015
167.964	14.107	954.250	712.377
168.979	14.210	952.800	711.674
169.994	14.195	952.278	711.156
171.008	14.095	951.686	710.221
172.023	14.188	950.453	709.637
173.037	14.217	949.983	709.347
174.052	14.175	949.288	708.586
175.067	14.251	948.336	708.138
176.081	14.346	947.296	707.701
177.096	14.183	946.953	706.688
178.110	14.219	946.329	706.315
179.125	14.300	945.344	705.862
180.140	14.234	944.248	704.698
181.154	14.131	944.217	704.177
182.169	14.289	943.295	704.095
183.183	14.281	942.662	703.528
184.198	14.369	941.741	703.151
185.213	14.382	940.841	702.471
186.227	14.439	940.763	702.591
187.242	14.286	940.404	701.614
188.256	14.465	939.329	701.505
189.271	14.449	938.389	700.672
190.286	14.439	937.562	699.953
191.300	14.346	937.242	699.260
192.315	14.312	936.144	698.238
193.329	14.385	935.305	697.856
194.344	14.424	934.504	697.360
195.359	14.262	934.633	696.717
196.373	14.426	933.916	696.803
197.388	14.477	932.838	696.153
198.402	14.361	932.961	695.699
199.417	14.494	932.529	695.869
200.432	14.569	931.921	695.668
201.446	14.646	931.347	695.497
202.461	14.565	931.260	695.033
203.475	14.763	930.005	694.860
204.490	14.792	928.864	694.068
205.504	14.728	928.579	693.524
206.519	14.492	928.308	692.283
207.534	14.644	927.340	692.128
208.548	14.675	926.340	691.451
209.563	14.653	926.026	691.065
210.577	14.739	925.115	690.680
211.592	14.665	924.394	689.775
212.607	14.791	923.999	689.938
213.621	14.768	923.770	689.611
214.636	14.831	922.188	688.627
215.650	14.782	921.379	687.763
216.665	14.793	921.339	687.717
217.680	14.815	920.896	687.416
218.694	14.841	920.460	687.135
219.709	14.870	919.481	686.461
220.723	14.937	918.899	686.244
221.738	14.897	918.169	685.473
222.753	14.897	917.528	684.933
223.767	14.928	916.385	684.147
224.782	14.863	916.050	683.570
225.796	15.081	914.836	683.495
226.811	14.986	914.452	682.759
227.826	14.916	913.689	681.841
228.840	14.969	913.063	681.529
229.855	15.040	912.171	681.095
230.869	15.112	911.851	681.087
231.884	14.984	911.265	680.070
232.899	14.994	910.479	679.466
233.913	14.931	909.763	678.613
234.928	14.942	909.236	678.204
235.942	15.005	908.580	677.912
236.957	14.982	907.568	677.003
237.972	15.035	906.810	676.592
238.986	14.919	906.521	675.846
240.001	15.005	905.857	675.638
241.015	14.897	905.301	674.730
242.030	14.983	904.583	674.480
243.045	15.046	903.813	674.101
244.059	14.994	903.292	673.442
245.074	15.007	902.383	672.760
246.088	15.130	901.879	672.816
247.103	15.235	901.429	672.845
248.117	15.167	900.631	671.915
249.132	15.278	899.669	671.585
250.147	15.218	899.543	671.189
251.161	15.285	898.857	670.889
252.176	15.431	897.995	670.768
253.190	15.541	896.681	670.166
254.205	15.519	896.570	669.934
255.220	15.579	895.299	669.167
256.234	15.544	895.035	668.771
257.249	15.364	894.957	667.937
258.263	15.648	894.063	668.338
259.278	15.495	893.831	667.498
260.293	15.469	893.506	667.093
261.307	15.576	892.518	666.720
262.322	15.700	891.739	666.570
263.336	15.628	891.211	665.833
264.351	15.769	889.983	665.413
265.366	15.669	889.538	664.627
266.380	15.670	888.986	664.159
267.395	15.871	888.280	664.366
268.409	15.669	887.505	662.932
269.424	15.614	886.993	662.274
270.439	15.667	886.537	662.085
271.453	15.731	885.734	661.678
272.468	15.785	884.912	661.216
273.482	15.768	884.481	660.770
274.497	15.595	884.064	659.720
275.512	15.735	882.855	659.310
276.526	15.731	882.395	658.891
277.541	15.677	881.665	658.078
278.555	15.734	881.098	657.817
279.570	15.859	880.359	657.697
280.585	15.983	879.903	657.781
281.599	16.025	878.813	657.073
282.614	16.096	878.054	656.724
283.628	15.832	877.911	655.529
284.643	15.966	877.492	655.680
285.657	15.805	876.802	654.482
286.672	15.771	876.796	654.286
287.687	16.031	875.367	654.170
288.701	15.934	875.498	653.835
289.716	15.983	874.853	653.485
290.730	16.032	873.931	652.929
291.745	16.146	873.007	652.623
292.760	16.088	872.449	651.924
293.774	16.145	871.624	651.469
294.789	16.173	871.324	651.295
295.803	16.266	870.456	650.949
296.818	16.183	869.946	650.191
297.833	16.234	869.451	649.956
298.847	16.103	868.949	649.021
299.862	16.175	868.097	648.605
300.876	16.088	867.453	647.732
301.891	16.204	866.808	647.636
302.906	16.274	866.214	647.404
303.920	16.282	865.272	646.674
304.935	16.422	864.542	646.605
305.949	16.300	864.366	645.952
306.964	16.372	863.696	645.668
307.979	16.276	862.895	644.645
308.993	16.287	862.885	644.623
310.008	16.347	861.903	644.061
311.022	16.334	861.794	643.874
312.037	16.287	861.130	643.140
313.052	16.416	860.521	643.120
314.066	16.410	859.696	642.425
315.081	16.254	859.163	641.377
316.095	16.559	858.547	642.018
317.110	16.355	858.473	641.132
318.125	16.412	857.264	640.388
319.139	16.408	856.981	640.104
320.154	16.436	856.205	639.577
321.168	16.418	855.844	639.182
322.183	16.440	855.337	638.829
323.197	16.526	854.434	638.421
324.212	16.542	854.088	638.169
325.227	16.444	853.708	637.457
326.241	16.609	853.171	637.620
327.256	16.549	852.663	636.960
328.270	16.562	851.985	636.445
329.285	16.503	851.394	635.727
330.300	16.608	850.931	635.720
331.314	16.727	850.111	635.497
332.329	16.607	849.792	634.751
333.343	16.523	849.192	633.932
334.358	16.731	848.477	634.121
335.373	16.587	848.008	633.176
336.387	16.661	847.445	632.977
337.402	16.708	847.226	632.931
338.416	16.648	846.278	631.943
339.431	16.667	845.801	631.605
340.446	16.793	845.339	631.673
341.460	16.740	844.512	630.802
342.475	16.870	843.873	630.750
343.489	16.859	843.648	630.488
344.504	16.866	842.991	629.965
345.519	16.908	842.507	629.703
346.533	16.869	841.984	629.115
347.548	16.882	841.586	628.809
348.562	17.079	840.811	628.903
349.577	16.871	840.295	627.692
350.592	16.976	839.481	627.417
351.606	16.918	839.098	626.861
352.621	16.848	839.179	626.605
353.635	16.864	838.482	626.088
354.650	16.954	838.382	626.292
355.665	16.929	837.741	625.665
356.679	16.948	837.026	625.145
357.694	16.939	836.831	624.912
358.708	17.146	836.055	625.037
359.723	17.030	835.349	624.030
360.738	17.148	834.669	623.899
361.752	17.122	834.242	623.430
362.767	17.155	833.989	623.306
363.781	17.063	833.696	622.694
364.796	17.219	833.195	622.838
365.810	17.142	832.632	622.078
366.825	17.274	832.186	622.174
367.840	17.343	831.854	622.122
368.854	17.249	831.613	621.545
369.869	17.146	830.970	620.631
370.883	17.246	830.616	620.680
371.898	17.194	829.735	619.775
372.913	17.481	829.118	620.305
373.927	17.406	828.637	619.617
374.942	17.586	827.353	619.259
375.956	17.359	827.216	618.277
376.971	17.448	826.619	618.099
377.986	17.393	825.958	617.349
379.000	17.570	825.365	617.494
380.015	17.523	825.037	617.023
381.029	17.494	824.656	616.578
382.044	17.502	823.844	615.947
383.059	17.578	823.131	615.633
384.073	17.576	823.008	615.477
385.088	17.693	822.146	615.203
386.102	17.574	821.881	614.520
387.117	17.465	821.496	613.787
388.132	17.546	821.059	613.697
389.146	17.389	820.565	612.708
390.161	17.637	819.948	613.084
391.175	17.526	819.730	612.466
392.190	17.637	819.278	612.475
393.205	17.604	818.846	611.979
394.219	17.557	818.553	611.537
395.234	17.862	817.528	611.811
396.248	17.541	817.345	610.469
397.263	17.632	816.831	610.358
398.278	17.555	816.571	609.835
399.292	17.691	815.742	609.649
400.307	17.585	815.681	609.170
401.321	17.616	814.977	608.699
402.336	17.724	814.651	608.789
403.350	17.724	814.318	608.485
404.365	17.722	813.875	608.093
405.380	17.694	813.783	607.871
406.394	17.783	813.046	607.584
407.409	17.902	812.396	607.468
408.423	17.897	811.795	606.945
409.438	17.857	811.477	606.513
410.453	17.972	811.122	606.601
411.467	17.870	810.948	606.057
412.482	18.005	809.897	605.696
413.496	17.993	810.055	605.719
414.511	18.023	809.064	605.029
415.526	18.065	809.155	605.193
416.540	18.108	808.488	604.794
417.555	18.023	808.020	604.088
418.569	18.217	807.367	604.232
419.584	18.063	807.005	603.365
420.599	18.157	806.487	603.254
421.613	116.370	1299.926	1493.868
422.628	100.623	1371.769	1493.922
