DTS Sentinel unit serial number:	SN413079Multiplexer serial number:	ORYXHardware model number:	OX4-SRSoftware version number:	ORYX F/W v4.00 Oryx Data Collector v3.7.2.0data status	okinstallation	princeton_trtdifferential loss correction	single-endedforward channel	channel 3reverse channel	N/Adate	2019/09/16time	20:52:35forward acquisition time	60.00reverse acquisition time	0.00gamma	496.2192k internal	0.2325k external	0.2325temperature offset calibration	0.9934default loss term (dB/km)	0.3790temperature slope calibration	1.0000multiplexer offset coefficient	1.0000multiplexer slope coefficient	1.0000fibre end	0.00T internal ref (°C)	32.19T ext. ref 1 (°C)	0.06T ext. ref 2 (°C)	25.56length (m)	temperature (°C)	Stokes	anti-Stokes-747.200	-68.913	0.301	0.117
-746.185	-173.463	-0.255	0.008
-745.171	-14.586	-0.191	0.124
-744.156	252.985	-0.255	0.440
-743.142	-143.560	0.126	0.012
-742.127	-34.438	-0.202	0.111
-741.112	1.771	0.252	-0.183
-740.098	800.000	0.056	0.177
-739.083	49.291	0.230	0.218
-738.069	143.378	-0.257	0.345
-737.054	1.694	-0.263	-0.191
-736.039	-41.695	-0.133	-0.069
-735.025	-46.881	0.273	0.134
-734.010	71.352	-0.097	0.102
-732.996	126.414	-0.113	-0.145
-731.981	393.636	-0.022	0.046
-730.966	-200.000	0.011	0.134
-729.952	-38.533	-0.207	0.110
-728.937	800.000	-0.013	0.049
-727.923	371.790	-0.056	-0.116
-726.908	-11.532	0.148	-0.098
-725.894	-90.853	-0.305	-0.088
-724.879	77.496	0.200	-0.215
-723.864	19.873	0.208	-0.169
-722.850	-200.000	-0.002	0.217
-721.835	312.756	-0.210	0.398
-720.821	-200.000	0.034	-0.401
-719.806	77.092	-0.122	-0.131
-718.791	-81.191	-0.182	-0.061
-717.777	800.000	-0.084	0.248
-716.762	197.648	-0.340	0.523
-715.748	54.638	-0.033	-0.032
-714.733	-71.670	0.319	0.120
-713.718	-200.000	-0.006	0.064
-712.704	177.278	0.030	0.044
-711.689	18.478	0.084	0.068
-710.675	800.000	-0.073	-0.235
-709.660	397.897	-0.071	-0.151
-708.645	124.650	-0.089	0.113
-707.631	204.563	0.067	-0.105
-706.616	800.000	-0.045	0.180
-705.602	-67.334	0.104	-0.041
-704.587	-200.000	0.029	-0.276
-703.572	-200.000	-0.006	0.350
-702.558	-200.000	-0.023	-0.152
-701.543	-200.000	-0.017	0.261
-700.529	515.538	0.170	0.400
-699.514	280.107	0.024	-0.042
-698.499	-74.658	0.157	-0.057
-697.485	162.397	-0.138	-0.195
-696.470	469.234	0.039	-0.088
-695.456	-200.000	-0.063	0.322
-694.441	573.828	0.092	-0.226
-693.426	-200.000	-0.017	0.111
-692.412	-68.262	0.055	-0.022
-691.397	-200.000	0.023	-0.373
-690.383	286.314	-0.034	0.062
-689.368	447.109	-0.090	0.200
-688.354	-97.873	0.404	-0.105
-687.339	34.263	0.137	0.120
-686.324	332.183	0.001	0.002
-685.310	-127.313	-0.128	-0.019
-684.295	-175.265	0.394	-0.011
-683.281	-77.515	0.086	-0.030
-682.266	-59.674	-0.081	0.035
-681.251	-6.629	0.173	-0.118
-680.237	-107.034	-0.266	0.059
-679.222	-76.038	-0.127	0.045
-678.208	-200.000	0.032	-0.359
-677.193	-200.000	-0.161	-0.001
-676.178	584.551	-0.116	0.286
-675.164	23.661	0.301	0.249
-674.149	-135.153	-0.023	-0.003
-673.135	-115.057	-0.121	0.023
-672.120	-200.000	0.021	0.243
-671.105	-51.041	-0.058	0.028
-670.091	77.665	-0.173	0.185
-669.076	-200.000	-0.014	-0.205
-668.062	-4.785	0.253	-0.176
-667.047	118.257	-0.160	0.198
-666.032	-200.000	0.003	0.080
-665.018	-200.000	0.013	-0.318
-664.003	-70.141	-0.080	0.031
-662.989	42.608	0.151	0.138
-661.974	-73.372	-0.233	0.086
-660.959	-65.081	0.153	-0.062
-659.945	351.936	-0.094	0.187
-658.930	494.991	-0.145	0.335
-657.916	-84.059	-0.182	0.058
-656.901	499.063	-0.106	-0.245
-655.886	-126.008	0.236	-0.036
-654.872	-14.635	-0.279	0.181
-653.857	170.573	0.211	0.304
-652.843	67.827	-0.057	-0.059
-651.828	800.000	-0.121	-0.460
-650.814	100.944	0.115	-0.135
-649.799	-59.371	-0.195	-0.084
-648.784	-58.191	-0.112	-0.049
-647.770	142.495	0.112	0.149
-646.755	16.216	-0.136	0.107
-645.741	800.000	0.019	-0.055
-644.726	149.426	-0.123	0.167
-643.711	-53.604	-0.253	0.116
-642.697	-128.116	-0.127	-0.018
-641.682	-52.257	0.230	0.107
-640.668	764.233	-0.037	-0.102
-639.653	373.218	-0.070	-0.142
-638.638	-131.264	0.161	-0.021
-637.624	800.000	-0.037	-0.121
-636.609	-19.676	0.151	-0.094
-635.595	-200.000	-0.057	-0.379
-634.580	505.005	-0.100	0.233
-633.565	-200.000	0.001	0.043
-632.551	-136.922	-0.084	0.010
-631.536	-125.393	0.118	0.018
-630.522	800.000	0.055	0.229
-629.507	300.932	0.026	-0.048
-628.492	38.984	0.075	-0.067
-627.478	393.710	-0.139	-0.290
-626.463	-143.485	0.095	0.009
-625.449	-143.023	0.095	0.009
-624.434	145.417	0.102	0.137
-623.419	800.000	-0.082	-0.337
-622.405	-103.349	0.205	-0.048
-621.390	349.744	0.169	0.335
-620.376	800.000	0.049	-0.164
-619.361	119.628	-0.242	0.301
-618.346	800.000	-0.078	0.271
-617.332	727.886	0.103	-0.277
-616.317	800.000	0.067	-0.214
-615.303	-27.162	-0.111	0.065
-614.288	210.064	0.091	-0.143
-613.273	-200.000	-0.069	-0.382
-612.259	-25.475	0.154	0.091
-611.244	-41.951	-0.339	-0.174
-610.230	-200.000	-0.019	0.129
-609.215	800.000	-0.078	-0.296
-608.201	147.677	0.102	0.138
-607.186	-72.224	-0.150	0.056
-606.171	-53.641	-0.198	-0.091
-605.157	-58.471	-0.181	0.079
-604.142	-101.002	-0.173	-0.042
-603.128	37.115	0.090	0.080
-602.113	-61.217	-0.325	0.138
-601.098	207.525	0.111	-0.173
-600.084	-136.841	0.146	-0.017
-599.069	-158.380	0.139	-0.008
-598.055	-30.530	-0.243	0.138
-597.040	-78.406	-0.378	-0.130
-596.025	82.706	-0.214	-0.233
-595.011	600.129	0.059	0.148
-593.996	-140.900	0.199	0.021
-592.982	-78.559	0.307	0.105
-591.967	-200.000	-0.021	0.604
-590.952	195.011	-0.207	0.315
-589.938	171.816	-0.067	-0.096
-588.923	-186.655	-0.056	0.001
-587.909	110.004	0.190	-0.229
-586.894	800.000	0.149	-0.420
-585.879	339.580	-0.192	0.375
-584.865	317.024	0.089	0.168
-583.850	-129.698	-0.249	0.034
-582.836	119.173	0.092	0.114
-581.821	-144.100	0.168	-0.016
-580.806	130.214	0.086	0.111
-579.792	35.123	0.159	0.140
-578.777	800.000	0.098	-0.401
-577.763	-56.599	-0.262	0.116
-576.748	-200.000	0.025	0.123
-575.733	-83.257	-0.127	-0.041
-574.719	-50.668	-0.122	-0.057
-573.704	-104.028	0.068	-0.016
-572.690	-43.759	0.112	-0.057
-571.675	-133.679	-0.299	-0.037
-570.661	-138.093	0.155	-0.017
-569.646	76.971	0.137	0.145
-568.631	459.861	0.137	0.305
-567.617	26.997	0.167	0.141
-566.602	51.535	-0.226	0.216
-565.588	-200.000	0.011	-0.083
-564.573	429.171	0.070	-0.153
-563.558	-200.000	0.023	0.279
-562.544	-200.000	0.047	0.226
-561.529	-139.760	-0.153	-0.016
-560.515	-200.000	0.052	-0.283
-559.500	173.638	0.073	0.106
-558.485	86.409	-0.140	0.154
-557.471	-101.368	-0.094	-0.023
-556.456	-200.000	-0.027	-0.215
-555.442	324.829	-0.130	-0.248
-554.427	-135.833	-0.299	0.035
-553.412	-30.871	-0.039	0.022
-552.398	-162.558	-0.316	0.016
-551.383	-39.769	-0.048	0.025
-550.369	66.307	-0.143	-0.145
-549.354	-20.738	0.311	-0.191
-548.339	36.337	-0.241	-0.213
-547.325	-111.705	0.475	0.096
-546.310	133.456	-0.107	-0.138
-545.296	31.816	0.133	-0.115
-544.281	-200.000	0.017	-0.083
-543.266	-66.914	-0.152	-0.060
-542.252	47.052	0.198	0.184
-541.237	800.000	-0.128	-0.408
-540.223	-41.393	0.390	-0.201
-539.208	800.000	0.011	-0.040
-538.193	-200.000	-0.017	-0.078
-537.179	85.996	0.268	0.295
-536.164	210.669	0.127	0.199
-535.150	-9.552	0.252	-0.168
-534.135	66.522	-0.081	-0.082
-533.121	800.000	-0.051	0.218
-532.106	400.937	0.137	0.288
-531.091	-200.000	0.003	0.299
-530.077	800.000	-0.038	-0.144
-529.062	800.000	-0.047	-0.144
-528.048	-200.000	0.016	-0.165
-527.033	678.191	-0.037	0.096
-526.018	800.000	-0.037	0.117
-525.004	-76.958	0.265	-0.093
-523.989	-200.000	0.003	-0.341
-522.975	747.489	0.042	0.114
-521.960	139.388	0.265	0.348
-520.945	-34.991	-0.093	0.051
-519.931	35.203	0.236	-0.207
-518.916	73.191	-0.267	0.279
-517.902	-40.568	0.369	-0.192
-516.887	800.000	-0.119	0.358
-515.872	27.125	-0.334	-0.280
-514.858	322.459	0.121	0.231
-513.843	179.178	0.087	-0.127
-512.829	426.896	0.015	-0.033
-511.814	-48.725	-0.084	0.040
-510.799	224.873	-0.171	-0.276
-509.785	-43.927	-0.331	0.166
-508.770	-13.370	0.164	-0.106
-507.756	-75.049	-0.206	0.074
-506.741	-110.662	0.170	0.035
-505.726	106.781	-0.171	-0.202
-504.712	3.323	0.143	-0.104
-503.697	-200.000	0.005	-0.155
-502.683	42.259	-0.222	-0.201
-501.668	-200.000	-0.028	-0.211
-500.653	-48.620	0.178	-0.086
-499.639	-200.000	-0.018	-0.242
-498.624	745.186	-0.062	-0.166
-497.610	-85.849	-0.260	0.081
-496.595	800.000	-0.076	0.282
-495.581	-119.586	-0.118	0.020
-494.566	-123.656	-0.266	0.042
-493.551	800.000	0.138	0.477
-492.537	8.513	0.148	-0.111
-491.522	-42.935	-0.089	0.045
-490.508	197.301	-0.185	0.282
-489.493	-200.000	-0.044	-0.241
-488.478	102.572	-0.187	0.219
-487.464	473.867	-0.116	0.262
-486.449	133.630	0.096	-0.123
-485.435	-100.584	-0.135	0.033
-484.420	-200.000	-0.023	-0.432
-483.405	-116.872	-0.152	-0.028
-482.391	-200.000	-0.016	0.211
-481.376	50.393	-0.211	-0.199
-480.362	-68.564	0.058	-0.023
-479.347	-200.000	0.007	0.265
-478.332	-62.179	-0.293	-0.122
-477.318	-200.000	0.042	-0.187
-476.303	172.755	-0.173	-0.249
-475.289	61.773	0.067	0.066
-474.274	100.901	-0.102	-0.118
-473.259	-200.000	-0.009	0.192
-472.245	199.872	-0.114	0.174
-471.230	81.427	0.162	-0.175
-470.216	200.171	-0.135	0.207
-469.201	-118.150	-0.237	0.042
-468.186	-6.298	-0.146	-0.100
-467.172	35.630	-0.452	0.397
-466.157	37.225	-0.053	0.047
-465.143	-6.725	-0.357	0.243
-464.128	-139.649	0.340	0.036
-463.113	-200.000	-0.060	0.301
-462.099	-68.299	0.382	-0.148
-461.084	59.306	-0.082	-0.081
-460.070	-11.759	-0.222	0.146
-459.055	800.000	0.072	0.287
-458.040	800.000	0.039	-0.161
-457.026	-53.759	-0.311	-0.141
-456.011	-21.002	0.226	-0.138
-454.997	71.946	-0.290	0.301
-453.982	-54.616	-0.105	0.047
-452.968	22.330	-0.294	-0.240
-451.953	332.710	0.110	0.211
-450.938	800.000	-0.029	0.103
-449.924	-84.433	-0.306	-0.096
-448.909	-31.723	-0.007	0.004
-447.895	-115.081	-0.210	0.040
-446.880	140.739	-0.214	-0.281
-445.865	17.641	0.269	0.213
-444.851	183.605	0.189	0.279
-443.836	405.313	-0.105	-0.221
-442.822	-42.037	-0.047	0.024
-441.807	-16.113	-0.187	0.119
-440.792	75.361	0.136	-0.143
-439.778	213.917	0.143	0.226
-438.763	33.271	0.218	0.189
-437.749	-200.000	0.053	-0.316
-436.734	81.733	0.256	-0.277
-435.719	30.570	0.269	-0.230
-434.705	-200.000	0.005	0.149
-433.690	161.858	-0.077	0.107
-432.676	774.480	-0.047	-0.129
-431.661	-158.666	0.125	0.007
-430.646	-200.000	0.028	0.281
-429.632	-62.831	-0.209	-0.086
-428.617	-200.000	-0.034	0.284
-427.603	-200.000	-0.006	-0.026
-426.588	-200.000	-0.009	-0.161
-425.573	182.633	-0.208	-0.306
-424.559	-106.449	-0.256	-0.057
-423.544	-200.000	0.001	0.296
-422.530	-121.659	0.301	-0.050
-421.515	315.634	-0.120	0.225
-420.500	-36.425	-0.211	-0.113
-419.486	144.027	-0.195	0.259
-418.471	-33.321	-0.233	0.129
-417.457	240.434	-0.104	0.172
-416.442	366.549	-0.084	-0.170
-415.428	14.738	0.299	-0.233
-414.413	337.725	-0.281	0.544
-413.398	143.994	0.104	0.138
-412.384	-109.026	0.296	-0.063
-411.369	-151.253	0.312	-0.023
-410.355	94.080	-0.220	-0.248
-409.340	678.660	-0.175	-0.454
-408.325	547.069	-0.153	-0.364
-407.311	-125.613	-0.493	-0.075
-406.296	-44.199	0.180	0.090
-405.282	334.773	-0.236	-0.455
-404.267	-67.662	-0.228	-0.089
-403.252	21.734	-0.272	-0.220
-402.238	-200.000	0.005	-0.215
-401.223	300.412	0.121	0.221
-400.209	-87.072	-0.409	-0.124
-399.194	-200.000	-0.047	0.266
-398.179	-200.000	0.011	-0.065
-397.165	430.207	0.068	0.147
-396.150	179.439	0.099	-0.145
-395.136	-102.999	0.259	-0.061
-394.121	110.191	-0.245	0.293
-393.106	226.736	-0.161	0.260
-392.092	-200.000	-0.003	-0.170
-391.077	124.481	0.176	-0.221
-390.063	-200.000	-0.006	-0.234
-389.048	135.006	0.333	-0.430
-388.033	30.859	0.031	0.026
-387.019	211.684	-0.107	0.168
-386.004	155.822	0.151	0.207
-384.990	4.456	0.140	0.102
-383.975	-33.886	0.144	-0.079
-382.960	-67.581	-0.184	-0.072
-381.946	-22.931	-0.119	-0.071
-380.931	-200.000	-0.025	-0.207
-379.917	234.253	0.214	-0.351
-378.902	62.945	0.304	0.303
-377.888	197.149	0.058	-0.088
-376.873	17.146	0.170	0.134
-375.858	-200.000	0.033	0.264
-374.844	-200.000	-0.028	-0.178
-373.829	268.228	-0.071	0.124
-372.815	-12.991	0.188	-0.121
-371.800	-116.727	0.243	-0.044
-370.785	-90.472	0.258	0.074
-369.771	-33.101	0.186	0.103
-368.756	739.326	-0.087	0.232
-367.742	-200.000	0.004	-0.048
-366.727	47.729	-0.208	-0.193
-365.712	-93.385	0.248	0.068
-364.698	179.557	-0.129	-0.188
-363.683	24.249	0.120	-0.098
-362.669	148.443	0.057	0.077
-361.654	-73.991	-0.265	0.096
-360.639	121.060	-0.162	-0.200
-359.625	-73.308	-0.220	-0.080
-358.610	-87.188	-0.057	-0.017
-357.596	130.912	0.190	-0.242
-356.581	373.144	0.115	-0.233
-355.566	97.686	0.081	-0.092
-354.552	60.005	0.260	0.256
-353.537	8.324	0.220	-0.164
-352.523	358.249	0.102	-0.202
-351.508	800.000	-0.150	-0.442
-350.493	9.014	-0.175	0.131
-349.479	98.142	0.134	-0.153
-348.464	-42.488	0.068	-0.034
-347.450	271.716	0.187	-0.328
-346.435	-80.044	-0.145	-0.048
-345.420	155.659	0.129	-0.176
-344.406	-200.000	-0.013	0.162
-343.391	-71.312	0.337	0.125
-342.377	439.588	-0.153	-0.332
-341.362	-148.269	-0.070	-0.006
-340.348	-200.000	-0.051	-0.401
-339.333	-144.926	0.395	-0.036
-338.318	-21.169	-0.078	-0.048
-337.304	111.016	-0.170	0.203
-336.289	-200.000	-0.001	-0.270
-335.275	90.136	-0.085	0.095
-334.260	251.235	0.079	-0.134
-333.245	25.764	-0.253	-0.209
-332.231	800.000	0.075	-0.307
-331.216	-31.612	0.103	0.057
-330.202	-200.000	-0.066	-0.392
-329.187	-200.000	0.093	0.503
-328.172	-200.000	0.003	0.062
-327.158	-94.151	-0.254	-0.069
-326.143	-89.160	-0.384	0.112
-325.129	65.146	0.217	-0.218
-324.114	800.000	-0.029	-0.106
-323.099	-145.328	-0.075	0.007
-322.085	-200.000	0.060	0.288
-321.070	141.372	0.119	0.157
-320.056	180.648	-0.116	-0.169
-319.041	-128.336	-0.132	0.019
-318.026	172.958	-0.072	-0.103
-317.012	800.000	0.052	0.144
-315.997	-48.524	0.109	-0.052
-314.983	800.000	0.089	-0.258
-313.968	-150.384	0.442	-0.034
-312.953	-61.707	-0.070	0.029
-311.939	-12.983	-0.211	0.136
-310.924	-8.073	0.354	0.237
-309.910	-140.722	0.231	0.024
-308.895	-200.000	-0.024	-0.144
-307.880	800.000	0.059	0.249
-306.866	-93.937	-0.068	0.018
-305.851	800.000	0.034	0.102
-304.837	800.000	-0.118	0.429
-303.822	26.733	-0.063	-0.053
-302.807	-112.190	0.178	0.035
-301.793	-145.559	-0.107	0.010
-300.778	-109.230	0.194	0.041
-299.764	-89.032	0.290	0.085
-298.749	-123.032	-0.126	-0.020
-297.735	595.109	-0.034	0.083
-296.720	390.297	0.185	0.381
-295.705	800.000	-0.036	0.142
-294.691	-49.882	0.287	-0.135
-293.676	-60.943	-0.323	-0.135
-292.662	-96.979	0.241	-0.063
-291.647	197.765	-0.039	0.058
-290.632	-54.298	0.133	-0.060
-289.618	-51.666	0.190	-0.088
-288.603	-38.728	0.269	-0.141
-287.589	88.129	-0.081	-0.090
-286.574	-26.608	0.255	0.148
-285.559	-93.959	0.261	-0.071
-284.545	800.000	0.097	-0.273
-283.530	-154.275	0.447	0.030
-282.516	114.414	-0.171	-0.206
-281.501	-200.000	-0.020	0.245
-280.486	-200.000	0.009	0.132
-279.472	-43.296	0.156	0.078
-278.457	-200.000	0.015	-0.227
-277.443	-200.000	0.011	0.158
-276.428	67.076	0.073	-0.073
-275.413	17.280	-0.111	-0.087
-274.399	-200.000	0.025	0.205
-273.384	-155.370	-0.151	0.010
-272.370	-151.392	0.070	-0.005
-271.355	357.260	0.084	-0.165
-270.340	800.000	0.127	-0.446
-269.326	483.387	-0.110	-0.249
-268.311	-10.900	0.062	0.041
-267.297	70.020	-0.119	-0.122
-266.282	207.779	0.185	0.286
-265.267	800.000	0.046	-0.131
-264.253	26.788	0.191	0.159
-263.238	-125.195	0.308	0.047
-262.224	125.715	0.085	-0.106
-261.209	140.708	0.247	-0.323
-260.195	9.944	0.207	-0.156
-259.180	-200.000	-0.021	0.132
-258.165	34.701	-0.124	-0.107
-257.151	-200.000	-0.037	0.310
-256.136	325.079	-0.146	0.276
-255.122	-200.000	0.047	-0.224
-254.107	83.169	0.255	0.275
-253.092	800.000	0.061	0.168
-252.078	-200.000	0.019	0.506
-251.063	-151.856	0.234	0.017
-250.049	-61.781	-0.122	-0.051
-249.034	207.103	-0.192	-0.296
-248.019	255.644	0.210	-0.357
-247.005	-200.000	-0.023	0.103
-245.990	279.427	-0.103	0.183
-244.976	800.000	0.095	0.307
-243.961	122.013	0.045	-0.055
-242.946	106.746	-0.010	0.012
-241.932	-137.903	-0.279	-0.031
-240.917	-33.617	-0.117	0.064
-239.903	-10.088	-0.260	-0.171
-238.888	-5.009	-0.194	-0.132
-237.873	238.175	0.171	-0.280
-236.859	-76.015	0.443	0.155
-235.844	-200.000	0.036	0.260
-234.830	800.000	-0.016	0.048
-233.815	75.807	0.110	-0.115
-232.800	-145.840	-0.239	0.021
-231.786	800.000	0.038	-0.151
-230.771	102.948	-0.178	0.206
-229.757	-200.000	0.052	0.392
-228.742	379.156	0.244	0.493
-227.727	800.000	0.070	0.246
-226.713	12.117	0.093	0.071
-225.698	317.852	0.141	-0.263
-224.684	56.850	0.196	-0.188
-223.669	205.070	-0.014	0.021
-222.655	468.062	0.080	0.177
-221.640	101.549	-0.237	0.273
-220.625	13.215	-0.152	-0.116
-219.611	426.529	0.082	-0.175
-218.596	5.699	-0.221	0.162
-217.582	-200.000	-0.022	0.167
-216.567	7.554	0.120	-0.089
-215.552	800.000	-0.051	0.145
-214.538	-42.065	0.099	0.050
-213.523	-116.375	-0.137	0.025
-212.509	310.336	0.180	0.333
-211.494	477.564	0.112	0.250
-210.479	-0.905	-0.148	-0.104
-209.465	486.878	-0.073	0.165
-208.450	40.481	0.128	0.114
-207.436	-104.815	0.261	0.059
-206.421	118.718	-0.111	0.136
-205.406	-32.638	0.135	0.074
-204.392	-76.684	-0.189	0.065
-203.377	12.266	0.068	-0.052
-202.363	34.848	-0.090	0.078
-201.348	396.405	0.077	0.158
-200.333	221.793	-0.028	0.045
-199.319	447.988	-0.062	0.135
-198.304	-154.386	-0.149	0.010
-197.290	89.718	-0.092	-0.101
-196.275	105.137	-0.094	0.109
-195.260	-173.710	0.114	-0.003
-194.246	-100.775	-0.550	-0.134
-193.231	-35.567	-0.196	-0.105
-192.217	-200.000	-0.003	0.232
-191.202	115.714	0.301	0.363
-190.187	640.219	0.086	-0.217
-189.173	-12.426	0.034	-0.022
-188.158	-50.525	-0.160	0.074
-187.144	-200.000	0.004	0.057
-186.129	-200.000	0.015	-0.119
-185.114	-165.862	-0.071	0.003
-184.100	-122.633	0.267	0.043
-183.085	509.478	0.106	0.242
-182.071	119.171	-0.204	0.250
-181.056	-93.706	-0.317	0.086
-180.042	-29.823	0.117	-0.066
-179.027	83.662	-0.067	-0.072
-178.012	308.701	-0.031	-0.058
-176.998	20.086	0.042	-0.033
-175.983	-75.332	-0.164	-0.058
-174.969	-50.956	0.042	-0.019
-173.954	800.000	-0.101	-0.318
-172.939	-42.292	-0.201	0.101
-171.925	298.767	0.104	0.188
-170.910	-51.523	-0.180	0.083
-169.896	242.155	0.032	0.053
-168.881	-150.912	-0.053	-0.004
-167.866	-11.278	0.397	0.258
-166.852	800.000	-0.050	0.210
-165.837	-200.000	-0.030	-0.248
-164.823	-34.548	0.196	-0.106
-163.808	43.811	0.059	0.054
-162.793	-112.884	0.277	-0.054
-161.779	-200.000	0.029	-0.243
-160.764	-94.499	0.067	-0.018
-159.750	18.397	0.393	-0.310
-158.735	-200.000	0.003	0.147
-157.720	-200.000	-0.013	-0.094
-156.706	-200.000	-0.015	0.066
-155.691	-200.000	-0.058	-0.279
-154.677	-76.855	0.227	-0.078
-153.662	-200.000	-0.009	-0.127
-152.647	207.677	-0.214	0.330
-151.633	800.000	-0.028	-0.117
-150.618	40.861	-0.086	0.076
-149.604	17.820	0.108	-0.085
-148.589	-200.000	0.020	-0.407
-147.574	24.266	0.130	-0.106
-146.560	-200.000	0.022	0.160
-145.545	-38.726	-0.377	-0.196
-144.531	-200.000	0.074	-0.345
-143.516	-176.006	0.105	-0.003
-142.502	610.069	-0.132	-0.325
-141.487	-200.000	-0.048	0.407
-140.472	-71.298	-0.123	-0.045
-139.458	57.891	0.216	0.208
-138.443	76.475	-0.182	-0.190
-137.429	-13.264	-0.446	-0.286
-136.414	765.893	0.090	0.242
-135.399	800.000	0.054	0.199
-134.385	-200.000	0.009	-0.093
-133.370	175.707	-0.156	-0.223
-132.356	-84.590	0.298	0.093
-131.341	-11.996	-0.201	-0.130
-130.326	-200.000	0.004	0.322
-129.312	-178.987	0.097	-0.002
-128.297	777.712	-0.085	-0.230
-127.283	800.000	0.072	-0.287
-126.268	-35.071	0.345	-0.185
-125.253	-200.000	-0.025	0.207
-124.239	-146.238	-0.248	0.021
-123.224	231.342	-0.015	0.024
-122.210	-33.929	-0.268	0.146
-121.195	-95.967	-0.325	-0.085
-120.180	-132.710	0.566	-0.071
-119.166	-92.889	-0.154	0.042
-118.151	-200.000	0.075	0.429
-117.137	-75.382	0.142	-0.050
-116.122	-139.923	0.232	-0.024
-115.107	-21.110	-0.165	0.099
-114.093	88.324	0.087	-0.095
-113.078	72.171	0.143	0.147
-112.064	-171.006	0.117	0.004
-111.049	196.507	0.068	-0.101
-110.034	-23.840	-0.330	0.194
-109.020	-200.000	-0.032	0.159
-108.005	-20.553	-0.240	0.145
-106.991	3.092	-0.162	0.116
-105.976	-30.151	-0.170	-0.095
-104.962	-51.470	0.281	0.129
-103.947	36.112	-0.332	0.288
-102.932	-49.777	0.135	-0.063
-101.918	495.498	0.066	-0.150
-100.903	350.837	0.097	-0.188
-99.889	203.101	-0.106	-0.162
-98.874	354.111	0.091	0.178
-97.859	84.359	-0.143	0.154
-96.845	-13.860	0.301	0.191
-95.830	-82.566	0.124	-0.040
-94.816	-200.000	-0.016	0.189
-93.801	-6.456	-0.073	-0.049
-92.786	-72.878	0.258	0.093
-91.772	-116.252	0.350	0.064
-90.757	250.710	-0.080	-0.134
-89.743	-50.936	-0.284	0.131
-88.728	-94.661	-0.076	-0.020
-87.713	224.740	-0.185	-0.294
-86.699	-200.000	0.033	-0.223
-85.684	-200.000	-0.003	-0.133
-84.670	-71.799	-0.118	-0.043
-83.655	614.952	-0.092	-0.226
-82.640	-200.000	0.003	0.079
-81.626	21.191	0.284	0.227
-80.611	-163.132	-0.205	0.010
-79.597	128.414	-0.093	0.116
-78.582	-200.000	0.011	0.102
-77.567	-45.782	-0.160	-0.078
-76.553	137.074	-0.091	-0.118
-75.538	1.054	0.102	-0.072
-74.524	26.599	-0.158	0.130
-73.509	-93.872	0.152	-0.041
-72.494	-200.000	0.038	0.183
-71.480	307.617	-0.070	-0.127
-70.465	-2.731	-0.251	-0.173
-69.451	80.788	-0.103	-0.109
-68.436	-175.040	0.219	0.006
-67.422	-200.000	0.031	-0.248
-66.407	-101.246	0.410	0.098
-65.392	-181.814	0.160	0.003
-64.378	0.700	0.076	0.053
-63.363	-127.124	-0.145	0.021
-62.349	-200.000	-0.057	0.431
-61.334	59.721	-0.678	-0.657
-60.319	205.487	0.424	0.647
-59.305	-200.000	-0.241	-1.098
-58.290	231.037	0.638	1.027
-57.276	800.000	0.557	1.657
-56.261	-200.000	95.162	587.403
-55.246	566.997	1367.954	3261.452
-54.232	164.697	2532.169	3508.576
-53.217	114.399	2153.611	2575.785
-52.203	43.051	1699.319	1522.392
-51.188	35.447	1511.406	1302.632
-50.173	32.936	1484.583	1262.695
-49.159	52.696	1532.261	1437.823
-48.144	54.367	1550.892	1466.598
-47.130	35.579	1511.191	1303.138
-46.115	32.480	1496.408	1269.478
-45.100	32.270	1493.184	1265.282
-44.086	32.314	1491.285	1263.913
-43.071	32.171	1489.682	1261.550
-42.057	32.261	1487.691	1260.415
-41.042	32.136	1486.632	1258.626
-40.027	32.115	1485.150	1257.183
-39.013	32.114	1483.624	1255.837
-37.998	32.149	1482.034	1254.676
-36.984	32.069	1481.054	1253.262
-35.969	32.118	1479.782	1252.461
-34.954	32.180	1478.048	1251.356
-33.940	32.242	1476.813	1250.677
-32.925	32.363	1474.913	1249.818
-31.911	32.251	1474.134	1248.366
-30.896	32.202	1472.819	1246.877
-29.881	32.279	1471.407	1246.145
-28.867	32.331	1469.692	1244.982
-27.852	32.259	1468.838	1243.736
-26.838	32.236	1467.797	1242.651
-25.823	32.217	1465.884	1240.860
-24.809	32.244	1464.233	1239.589
-23.794	32.264	1462.260	1238.003
-22.779	32.219	1461.740	1237.216
-21.765	32.211	1460.617	1236.164
-20.750	32.271	1459.667	1235.704
-19.736	32.236	1458.322	1234.289
-18.721	32.185	1457.289	1233.030
-17.706	32.189	1455.810	1231.757
-16.692	32.197	1455.073	1231.137
-15.677	32.120	1454.031	1229.704
-14.663	32.159	1452.942	1228.984
-13.648	32.123	1452.339	1228.195
-12.633	32.136	1451.339	1227.381
-11.619	32.166	1450.226	1226.587
-10.604	32.133	1449.519	1225.725
-9.590	32.145	1448.627	1225.006
-8.575	32.106	1447.918	1224.098
-7.560	32.184	1446.925	1223.723
-6.546	32.112	1445.821	1222.267
-5.531	32.193	1445.193	1222.218
-4.517	32.195	1443.822	1221.019
-3.502	32.217	1442.748	1220.207
-2.487	32.113	1442.126	1218.961
-1.473	32.175	1440.879	1218.258
-0.458	32.125	1439.447	1216.675
0.556	30.001	1429.580	1204.448
1.571	26.761	1403.991	1162.053
2.586	23.084	1343.357	1089.173
3.600	21.169	1262.150	1012.146
4.615	19.848	1216.979	968.448
5.629	17.082	1160.743	908.827
6.644	8.615	1075.570	799.894
7.659	1.333	1034.281	734.010
8.673	0.308	1028.024	724.581
9.688	0.030	1025.408	721.337
10.702	-0.094	1024.134	719.782
11.717	-0.013	1022.137	718.703
12.731	2.709	1024.467	733.309
13.746	11.118	1036.021	782.036
14.761	17.283	1043.471	817.321
15.775	17.444	1042.469	817.240
16.790	16.379	1040.129	810.226
17.804	15.314	1038.358	803.671
18.819	14.414	1036.877	798.146
19.834	14.136	1034.907	795.232
20.848	13.705	1034.107	792.486
21.863	13.360	1033.985	790.676
22.877	13.278	1032.603	789.158
23.892	13.079	1031.895	787.595
24.907	12.985	1030.596	786.088
25.921	12.928	1030.247	785.483
26.936	13.048	1029.761	785.609
27.950	13.026	1029.296	785.084
28.965	13.183	1028.106	784.852
29.980	13.244	1027.146	784.338
30.994	13.122	1026.716	783.363
32.009	13.244	1025.875	783.230
33.023	13.282	1025.077	782.732
34.038	13.215	1024.556	781.947
35.053	13.293	1023.277	781.269
36.067	13.180	1022.560	780.118
37.082	13.058	1022.229	779.223
38.096	13.197	1020.784	778.706
39.111	13.297	1020.329	778.763
40.126	13.283	1019.412	777.926
41.140	13.229	1017.851	776.416
42.155	13.278	1016.814	775.783
43.169	12.947	1016.742	774.106
44.184	13.090	1015.464	773.735
45.199	13.062	1013.842	772.300
46.213	12.978	1013.372	771.481
47.228	12.911	1012.793	770.660
48.242	13.125	1011.119	770.315
49.257	13.107	1010.530	769.712
50.271	13.109	1009.738	769.050
51.286	13.156	1008.435	768.210
52.301	13.098	1008.033	767.567
53.315	13.177	1007.097	767.152
54.330	13.140	1006.293	766.301
55.344	13.047	1005.657	765.316
56.359	13.192	1004.371	764.941
57.374	13.021	1004.054	763.842
58.388	13.031	1003.064	763.066
59.403	12.973	1002.240	762.105
60.417	13.000	1001.240	761.402
61.432	13.096	1000.744	761.400
62.447	12.855	1000.414	759.971
63.461	12.935	999.102	759.274
64.476	12.935	998.085	758.433
65.490	12.937	997.312	757.790
66.505	13.001	996.796	757.623
67.520	12.824	996.327	756.389
68.534	12.990	995.218	756.241
69.549	12.980	994.505	755.588
70.563	12.991	993.939	755.141
71.578	13.026	993.188	754.662
72.593	12.855	992.304	753.145
73.607	12.914	991.148	752.468
74.622	12.807	990.336	751.299
75.636	12.893	989.299	750.834
76.651	12.827	988.672	749.996
77.666	12.933	988.255	750.091
78.680	12.989	987.159	749.446
79.695	12.808	986.959	748.406
80.709	12.934	985.842	748.068
81.724	13.008	985.496	748.074
82.739	12.940	984.619	747.033
83.753	13.035	983.959	746.896
84.768	13.136	982.956	746.528
85.782	13.140	982.389	746.048
86.797	13.208	981.761	745.813
87.812	13.169	980.801	744.839
88.826	13.221	979.907	744.332
89.841	13.122	979.257	743.326
90.855	13.190	978.206	742.768
91.870	13.228	977.338	742.214
92.884	13.150	977.398	741.843
93.899	13.271	976.405	741.567
94.914	13.175	975.849	740.648
95.928	13.331	974.503	740.259
96.943	13.248	974.107	739.519
97.957	13.277	973.097	738.820
98.972	13.300	972.690	738.548
99.987	13.244	971.614	737.414
101.001	13.255	971.080	736.995
102.016	13.154	970.386	735.951
103.030	13.141	969.291	734.996
104.045	13.161	968.648	734.532
105.060	13.240	967.672	734.079
106.074	13.294	966.277	733.195
107.089	13.115	965.881	732.037
108.103	13.023	964.983	730.884
109.118	13.033	963.959	730.090
110.133	13.016	963.135	729.324
111.147	12.918	962.606	728.427
112.162	13.062	961.795	728.383
113.176	13.050	960.937	727.617
114.191	13.179	960.017	727.423
115.206	13.089	959.194	726.338
116.220	13.010	958.593	725.476
117.235	13.072	957.602	724.931
118.249	13.114	956.776	724.428
119.264	13.091	955.854	723.564
120.279	13.049	955.196	722.819
121.293	13.043	954.583	722.265
122.308	13.026	953.908	721.614
123.322	12.930	952.825	720.312
124.337	12.984	952.035	719.889
125.352	13.043	950.557	718.961
126.366	13.101	949.592	718.422
127.381	13.047	948.597	717.371
128.395	13.032	947.893	716.711
129.410	13.009	946.975	715.853
130.424	13.026	946.087	715.191
131.439	13.218	944.519	714.771
132.454	13.152	943.856	713.921
133.468	13.069	943.592	713.302
134.483	13.214	942.887	713.331
135.497	13.185	942.243	712.658
136.512	13.135	941.451	711.780
137.527	13.062	940.740	710.866
138.541	13.204	939.992	710.844
139.556	13.273	939.356	710.598
140.570	13.139	938.447	709.274
141.585	13.203	937.605	708.848
142.600	13.307	936.902	708.702
143.614	13.258	936.430	708.072
144.629	13.353	935.348	707.597
145.643	13.360	934.659	707.042
146.658	13.283	934.323	706.396
147.673	13.327	932.977	705.504
148.687	13.211	932.623	704.680
149.702	13.370	931.027	704.088
150.716	13.252	930.383	703.036
151.731	13.234	930.040	702.639
152.746	13.195	929.169	701.754
153.760	13.232	928.362	701.240
154.775	13.215	927.679	700.586
155.789	13.276	926.963	700.243
156.804	13.208	926.347	699.428
157.819	13.432	925.551	699.713
158.833	13.391	924.715	698.848
159.848	13.462	924.419	698.861
160.862	13.413	923.946	698.234
161.877	13.460	922.994	697.649
162.892	13.402	921.871	696.496
163.906	13.298	921.437	695.668
164.921	13.364	919.898	694.722
165.935	13.386	919.363	694.352
166.950	13.473	918.200	693.776
167.964	13.309	917.440	692.451
168.979	13.469	916.461	692.321
169.994	13.312	915.499	690.877
171.008	13.278	915.083	690.362
172.023	13.382	914.064	689.965
173.037	13.364	913.275	689.231
174.052	13.427	912.424	688.791
175.067	13.386	912.027	688.260
176.081	13.500	911.057	687.942
177.096	13.488	910.027	687.053
178.110	13.440	909.226	686.189
179.125	13.311	909.167	685.548
180.140	13.379	908.060	684.934
181.154	13.576	907.344	685.150
182.169	13.535	906.817	684.523
183.183	13.544	906.053	683.921
184.198	13.563	905.452	683.484
185.213	13.616	904.668	683.050
186.227	13.551	904.455	682.561
187.242	13.657	903.883	682.508
188.256	13.791	903.238	682.511
189.271	13.770	902.457	681.772
190.286	13.792	901.650	681.195
191.300	13.607	900.886	679.799
192.315	13.601	900.372	679.324
193.329	13.479	899.375	678.014
194.344	13.399	898.978	677.324
195.359	13.524	897.909	676.974
196.373	13.567	898.069	677.207
197.388	13.607	897.289	676.725
198.402	13.800	896.638	676.961
199.417	13.822	896.373	676.792
200.432	13.742	895.759	675.938
201.446	13.952	895.287	676.380
202.461	13.969	895.011	676.179
203.475	14.036	894.286	675.847
204.490	14.074	893.333	675.218
205.504	13.891	892.924	674.106
206.519	13.809	892.234	673.193
207.534	13.964	891.710	673.370
208.548	13.814	890.412	671.723
209.563	13.825	889.799	671.245
210.577	13.916	889.343	671.209
211.592	13.825	888.394	670.066
212.607	13.880	888.208	670.086
213.621	14.143	887.470	670.534
214.636	14.055	886.920	669.702
215.650	14.006	886.188	668.893
216.665	14.088	885.473	668.625
217.680	14.030	884.713	667.757
218.694	14.124	884.517	667.929
219.709	14.050	884.273	667.387
220.723	14.140	883.470	667.084
221.738	14.140	882.712	666.454
222.753	14.157	882.062	665.972
223.767	14.121	881.513	665.353
224.782	14.158	880.625	664.771
225.796	14.106	880.267	664.234
226.811	14.282	879.101	663.997
227.826	14.182	878.893	663.386
228.840	14.253	877.721	662.724
229.855	14.286	877.286	662.467
230.869	14.231	876.817	661.838
231.884	14.222	876.353	661.392
232.899	14.277	875.372	660.811
233.913	14.194	874.867	660.042
234.928	14.144	874.094	659.201
235.942	14.252	873.350	659.009
236.957	14.182	872.667	658.160
237.972	14.271	871.855	657.841
238.986	14.070	872.001	657.097
240.001	14.217	871.064	656.915
241.015	14.215	870.162	656.167
242.030	14.245	869.548	655.765
243.045	14.189	869.294	655.295
244.059	14.412	868.231	655.312
245.074	14.409	867.647	654.802
246.088	14.421	866.938	654.257
247.103	14.419	866.609	653.944
248.117	14.416	866.015	653.424
249.132	14.540	865.502	653.467
250.147	14.622	864.985	653.339
251.161	14.576	864.079	652.418
252.176	14.624	863.579	652.168
253.190	14.625	863.183	651.817
254.205	14.718	862.154	651.342
255.220	14.664	862.113	651.045
256.234	14.800	860.744	650.482
257.249	14.784	860.339	650.059
258.263	14.734	860.104	649.627
259.278	14.783	859.637	649.407
260.293	14.721	858.921	648.570
261.307	14.775	858.517	648.416
262.322	14.845	857.755	648.055
263.336	15.031	856.896	648.070
264.351	14.952	856.608	647.487
265.366	15.032	855.659	647.023
266.380	14.946	854.924	646.078
267.395	15.046	854.635	646.190
268.409	14.990	853.694	645.203
269.424	14.981	852.871	644.490
270.439	14.868	852.414	643.651
271.453	14.872	851.904	643.227
272.468	14.941	850.878	642.661
273.482	14.810	850.560	641.858
274.497	14.882	849.944	641.612
275.512	14.824	849.302	640.848
276.526	14.947	848.517	640.672
277.541	15.051	847.629	640.341
278.555	14.964	847.092	639.549
279.570	14.935	846.881	639.222
280.585	14.995	846.270	638.931
281.599	15.137	845.451	638.799
282.614	15.064	845.154	638.241
283.628	15.098	844.402	637.743
284.643	15.227	843.526	637.520
285.657	15.151	843.166	636.901
286.672	15.087	843.156	636.594
287.687	15.088	842.579	636.104
288.701	15.053	841.858	635.370
289.716	15.231	841.077	635.401
290.730	15.184	840.685	634.870
291.745	15.171	840.150	634.361
292.760	15.371	839.039	634.222
293.774	15.214	838.768	633.369
294.789	15.355	838.355	633.532
295.803	15.384	837.653	633.055
296.818	15.329	837.219	632.465
297.833	15.405	836.609	632.233
298.847	15.120	835.749	630.454
299.862	15.466	834.972	631.113
300.876	15.323	834.628	630.262
301.891	15.511	833.633	630.159
302.906	15.426	833.151	629.419
303.920	15.371	832.744	628.852
304.935	15.597	831.722	628.868
305.949	15.593	831.030	628.277
306.964	15.620	830.707	628.078
307.979	15.380	830.516	626.980
308.993	15.637	829.708	627.272
310.008	15.529	829.217	626.444
311.022	15.624	828.649	626.315
312.037	15.549	828.298	625.715
313.052	15.486	827.944	625.157
314.066	15.460	827.409	624.602
315.081	15.532	826.780	624.337
316.095	15.484	825.849	623.401
317.110	15.609	825.214	623.329
318.125	15.530	825.141	622.926
319.139	15.541	824.250	622.240
320.154	15.612	823.741	622.063
321.168	15.453	823.697	621.385
322.183	15.607	822.682	621.136
323.197	15.596	822.101	620.602
324.212	15.620	821.601	620.256
325.227	15.706	821.440	620.400
326.241	15.752	820.836	620.055
327.256	15.626	820.306	619.137
328.270	15.679	819.511	618.680
329.285	15.739	818.993	618.453
330.300	15.810	818.557	618.328
331.314	15.627	818.033	617.209
332.329	15.672	817.613	617.002
333.343	15.693	816.635	616.284
334.358	15.762	816.346	616.265
335.373	15.793	815.862	615.958
336.387	15.772	815.304	615.408
337.402	15.913	814.646	615.369
338.416	15.898	813.904	614.700
339.431	15.914	813.615	614.485
340.446	16.002	812.911	614.222
341.460	15.932	812.626	613.695
342.475	16.043	811.985	613.563
343.489	16.208	811.189	613.504
344.504	16.172	810.763	612.999
345.519	16.209	810.116	612.591
346.533	16.248	809.671	612.342
347.548	16.070	809.589	611.577
348.562	16.057	809.010	611.040
349.577	15.962	808.563	610.304
350.592	16.142	807.345	609.984
351.606	15.999	806.989	609.142
352.621	16.103	806.581	609.156
353.635	16.055	806.572	608.923
354.650	16.051	806.213	608.583
355.665	16.259	805.554	608.782
356.679	16.094	805.533	608.118
357.694	16.118	804.685	607.510
358.708	16.172	804.344	607.393
359.723	16.171	803.568	606.748
360.738	16.128	803.265	606.313
361.752	16.171	802.638	605.938
362.767	16.237	801.979	605.624
363.781	16.453	801.701	606.136
364.796	16.353	801.494	605.570
365.810	16.339	800.693	604.860
366.825	16.408	800.621	605.000
367.840	16.593	800.151	605.250
368.854	16.424	799.920	604.420
369.869	16.491	798.830	603.781
370.883	16.431	798.565	603.312
371.898	16.426	798.068	602.865
372.913	16.414	797.388	602.256
373.927	16.503	796.823	602.093
374.942	16.529	796.375	601.794
375.956	16.624	795.597	601.489
376.971	16.714	795.023	601.325
377.986	16.620	794.683	600.678
379.000	16.713	794.218	600.605
380.015	16.760	793.585	600.241
381.029	16.819	793.061	599.998
382.044	16.847	792.200	599.393
383.059	16.760	791.840	598.759
384.073	16.819	791.577	598.716
385.088	16.738	791.072	597.995
386.102	16.732	790.561	597.535
387.117	16.594	790.084	596.636
388.132	16.534	789.493	595.924
389.146	16.818	788.828	596.368
390.161	16.689	788.768	595.819
391.175	16.664	788.563	595.522
392.190	16.804	787.940	595.491
393.205	16.708	787.751	594.957
394.219	16.765	787.509	594.924
395.234	16.716	786.819	594.177
396.248	16.696	786.139	593.540
397.263	16.751	785.366	593.097
398.278	16.582	785.235	592.353
399.292	16.694	784.961	592.487
400.307	16.732	784.521	592.235
401.321	16.679	784.242	591.788
402.336	16.869	783.758	592.035
403.350	16.839	782.870	591.204
404.365	16.803	782.706	590.903
405.380	16.890	782.248	590.810
406.394	16.955	781.698	590.568
407.409	16.942	781.525	590.338
408.423	16.980	781.095	590.096
409.438	16.955	780.515	589.519
410.453	16.897	780.246	589.061
411.467	17.194	779.790	589.694
412.482	17.206	779.041	589.119
413.496	17.346	778.597	589.216
414.511	17.294	778.234	588.709
415.526	17.226	778.218	588.408
416.540	17.164	777.765	587.801
417.555	17.032	777.480	587.075
418.569	17.180	777.174	587.305
419.584	17.152	776.487	586.636
420.599	17.335	775.846	586.731
421.613	107.855	1287.156	1460.543
422.628	92.125	1361.642	1460.665
