DTS Sentinel unit serial number:	SN413079Multiplexer serial number:	ORYXHardware model number:	OX4-SRSoftware version number:	ORYX F/W v4.00 Oryx Data Collector v3.7.2.0data status	okinstallation	princeton_trtdifferential loss correction	single-endedforward channel	channel 3reverse channel	N/Adate	2019/09/19time	10:40:34forward acquisition time	60.00reverse acquisition time	0.00gamma	496.2192k internal	0.2342k external	0.2342temperature offset calibration	0.9978default loss term (dB/km)	0.3790temperature slope calibration	1.0000multiplexer offset coefficient	1.0000multiplexer slope coefficient	1.0000fibre end	0.00T internal ref (°C)	24.56T ext. ref 1 (°C)	0.74T ext. ref 2 (°C)	20.09length (m)	temperature (°C)	Stokes	anti-Stokes-747.200	-200.000	0.010	-0.149
-746.185	280.259	0.094	-0.169
-745.171	-72.586	-0.254	0.094
-744.156	-200.000	0.008	-0.135
-743.142	781.652	-0.088	0.242
-742.127	75.127	0.072	0.076
-741.112	209.994	0.319	0.501
-740.098	-144.782	-0.134	0.012
-739.083	-168.641	-0.074	0.003
-738.069	66.023	-0.029	-0.029
-737.054	40.417	0.065	0.059
-736.039	-82.372	-0.265	-0.086
-735.025	583.796	0.063	-0.154
-734.010	-147.373	-0.299	-0.025
-732.996	-200.000	-0.006	0.080
-731.981	-200.000	-0.025	-0.238
-730.966	102.964	-0.353	-0.414
-729.952	-25.690	-0.167	0.099
-728.937	-200.000	0.018	0.282
-727.923	-1.892	0.065	0.046
-726.908	800.000	-0.042	0.138
-725.894	21.117	-0.459	-0.373
-724.879	271.732	-0.077	0.136
-723.864	-200.000	0.002	-0.144
-722.850	63.493	-0.231	0.232
-721.835	57.975	-0.146	0.143
-720.821	-42.449	-0.264	-0.135
-719.806	-82.413	0.380	0.123
-718.791	439.035	-0.083	-0.181
-717.777	-200.000	0.009	-0.149
-716.762	-200.000	0.059	-0.352
-715.748	-19.987	0.216	-0.133
-714.733	711.177	-0.082	-0.218
-713.718	800.000	-0.048	-0.188
-712.704	-89.465	-0.080	-0.024
-711.689	-133.878	0.385	0.048
-710.675	389.460	-0.061	-0.126
-709.660	80.606	-0.176	0.189
-708.645	43.626	-0.081	0.074
-707.631	285.727	-0.157	-0.283
-706.616	5.159	-0.226	0.167
-705.602	800.000	-0.111	-0.311
-704.587	13.425	-0.234	0.181
-703.572	-200.000	0.006	0.202
-702.558	162.751	-0.153	-0.214
-701.543	-26.535	0.159	0.093
-700.529	-67.114	-0.157	0.062
-699.514	-154.828	0.054	-0.004
-698.499	-101.319	-0.145	-0.035
-697.485	-111.621	-0.072	-0.015
-696.470	-200.000	0.019	-0.227
-695.456	-200.000	-0.010	0.118
-694.441	800.000	0.041	-0.115
-693.426	-12.312	0.072	-0.047
-692.412	91.353	-0.054	0.060
-691.397	-200.000	-0.043	0.197
-690.383	-58.762	-0.243	0.105
-689.368	-200.000	0.012	-0.072
-688.354	134.335	-0.183	-0.237
-687.339	280.119	-0.019	0.034
-686.324	414.028	-0.088	0.186
-685.310	800.000	0.011	-0.044
-684.295	800.000	-0.082	0.237
-683.281	-200.000	-0.022	-0.232
-682.266	800.000	-0.030	-0.115
-681.251	-45.184	0.170	-0.085
-680.237	-200.000	-0.005	-0.240
-679.222	38.163	0.095	-0.085
-678.208	181.827	0.102	0.150
-677.193	-200.000	0.005	-0.170
-676.178	249.582	-0.111	-0.188
-675.164	-141.314	0.206	-0.021
-674.149	-73.835	0.056	0.020
-673.135	-200.000	-0.078	-0.374
-672.120	766.421	0.105	-0.284
-671.105	-200.000	0.022	0.263
-670.091	-200.000	0.020	0.178
-669.076	46.295	0.124	-0.114
-668.062	166.589	-0.089	0.126
-667.047	-0.357	-0.156	0.110
-666.032	420.657	-0.121	-0.258
-665.018	469.730	-0.089	-0.199
-664.003	-156.520	0.368	-0.023
-662.989	-200.000	-0.016	0.276
-661.974	252.599	-0.191	0.325
-660.959	800.000	0.094	-0.350
-659.945	88.919	-0.205	-0.228
-658.930	69.111	0.119	0.122
-657.916	385.192	-0.076	0.156
-656.901	446.511	-0.101	-0.221
-655.886	255.869	-0.041	-0.070
-654.872	-50.781	-0.289	-0.136
-653.857	480.044	-0.109	0.248
-652.843	-141.474	-0.250	-0.025
-651.828	-115.522	-0.355	-0.067
-650.814	182.770	0.009	-0.013
-649.799	35.995	0.035	-0.030
-648.784	-200.000	-0.006	-0.313
-647.770	18.503	0.227	-0.181
-646.755	69.400	-0.232	-0.238
-645.741	-35.783	-0.406	0.219
-644.726	-188.142	0.244	-0.003
-643.711	-166.706	-0.215	-0.009
-642.697	800.000	0.035	-0.111
-641.682	-30.091	-0.103	0.058
-640.668	115.807	-0.116	-0.141
-639.653	-69.089	-0.332	0.128
-638.638	-1.610	-0.226	-0.159
-637.624	-20.532	-0.225	0.138
-636.609	144.225	0.190	-0.252
-635.595	48.265	-0.297	-0.277
-634.580	800.000	0.135	0.421
-633.565	-140.479	-0.084	0.009
-632.551	-200.000	-0.003	0.139
-631.536	562.069	-0.065	-0.156
-630.522	9.750	0.029	0.022
-629.507	-142.065	0.132	0.013
-628.492	-131.348	-0.170	-0.022
-627.478	-200.000	-0.015	-0.315
-626.463	-200.000	0.009	0.065
-625.449	96.807	0.090	0.103
-624.434	-136.286	-0.032	-0.004
-623.419	-147.825	-0.288	0.024
-622.405	-48.705	-0.188	0.090
-621.390	353.186	-0.200	-0.396
-620.376	657.678	-0.117	-0.299
-619.361	403.246	0.120	0.251
-618.346	-145.805	-0.127	0.011
-617.332	-79.576	-0.136	0.046
-616.317	5.508	0.024	-0.018
-615.303	117.066	0.154	0.188
-614.288	-127.606	0.240	-0.035
-613.273	519.009	0.159	-0.371
-612.259	76.391	0.173	0.183
-611.244	-200.000	-0.052	-0.293
-610.230	-144.235	-0.171	-0.016
-609.215	91.453	0.084	-0.094
-608.201	-157.600	0.543	0.032
-607.186	-67.442	-0.182	0.071
-606.171	800.000	0.113	-0.323
-605.157	147.850	-0.158	-0.212
-604.142	-30.000	0.123	0.070
-603.128	-65.939	0.131	-0.052
-602.113	252.113	0.183	-0.311
-601.098	307.152	-0.080	-0.149
-600.084	91.331	-0.113	-0.126
-599.069	74.467	0.388	-0.406
-598.055	-116.338	0.357	-0.066
-597.040	29.579	0.246	0.208
-596.025	-36.646	0.149	0.080
-595.011	-200.000	-0.030	0.289
-593.996	-96.555	0.234	0.061
-592.982	-174.284	-0.134	0.004
-591.967	800.000	0.014	0.051
-590.952	-61.065	-0.112	-0.047
-589.938	315.523	0.098	0.185
-588.923	258.435	0.084	0.144
-587.909	507.415	-0.070	-0.162
-586.894	0.389	-0.117	-0.083
-585.879	-110.476	-0.340	-0.070
-584.865	800.000	0.089	-0.266
-583.850	678.302	0.042	0.109
-582.836	247.114	-0.180	0.303
-581.821	-200.000	0.006	0.133
-580.806	-200.000	0.046	-0.343
-579.792	-200.000	0.012	0.054
-578.777	4.350	0.197	-0.144
-577.763	1.981	0.058	0.042
-576.748	143.820	-0.295	-0.392
-575.733	253.849	-0.026	-0.044
-574.719	187.498	0.107	0.159
-573.704	-79.401	-0.289	-0.097
-572.690	-78.828	0.260	-0.088
-571.675	271.069	-0.042	0.074
-570.661	-173.614	-0.194	0.006
-569.646	-73.130	-0.222	-0.081
-568.631	-51.072	0.105	0.049
-567.617	102.895	0.046	0.053
-566.602	-49.553	-0.131	-0.062
-565.588	-200.000	0.027	0.153
-564.573	800.000	-0.087	0.366
-563.558	-91.749	-0.419	0.118
-562.544	-59.745	0.271	-0.115
-561.529	-200.000	-0.029	-0.294
-560.515	347.030	-0.109	0.213
-559.500	460.149	-0.067	-0.149
-558.485	-23.749	-0.103	-0.061
-557.471	800.000	0.076	-0.213
-556.456	-6.117	0.118	0.080
-555.442	-58.948	-0.070	-0.030
-554.427	-22.388	0.388	-0.234
-553.412	-200.000	-0.007	0.127
-552.398	-45.084	-0.141	-0.070
-551.383	-200.000	0.076	-0.412
-550.369	-200.000	-0.028	0.184
-549.354	-88.473	0.198	0.059
-548.339	-115.337	0.251	0.047
-547.325	-75.300	0.267	0.095
-546.310	93.626	0.132	-0.148
-545.296	-44.176	-0.207	-0.103
-544.281	412.955	0.078	-0.165
-543.266	-93.811	-0.290	0.079
-542.252	-16.091	0.102	-0.064
-541.237	262.450	0.124	-0.214
-540.223	337.058	-0.160	0.310
-539.208	58.289	-0.189	0.184
-538.193	-200.000	0.006	0.242
-537.179	-134.198	-0.165	0.020
-536.164	-44.052	0.180	0.090
-535.150	141.599	0.225	-0.296
-534.135	190.687	0.014	-0.021
-533.121	-200.000	-0.001	-0.172
-532.106	121.774	-0.096	0.119
-531.091	290.330	0.106	0.191
-530.077	-200.000	0.011	0.143
-529.062	36.723	-0.238	0.209
-528.048	26.824	0.111	0.092
-527.033	89.785	0.292	0.323
-526.018	800.000	0.020	-0.068
-525.004	789.649	0.063	-0.173
-523.989	-90.886	-0.359	-0.103
-522.975	66.024	0.323	-0.325
-521.960	106.606	0.121	-0.142
-520.945	-6.895	0.251	-0.169
-519.931	-86.642	0.371	0.113
-518.916	-200.000	0.008	-0.059
-517.902	800.000	0.048	0.172
-516.887	-75.785	-0.371	-0.131
-515.872	232.709	0.138	0.225
-514.858	800.000	0.076	-0.217
-513.843	-200.000	-0.039	-0.221
-512.829	148.632	0.236	-0.316
-511.814	-200.000	-0.043	-0.365
-510.799	-200.000	0.037	-0.285
-509.785	-89.873	-0.180	-0.052
-508.770	244.572	0.037	-0.061
-507.756	15.126	-0.280	-0.218
-506.741	-113.361	-0.216	0.042
-505.726	106.705	-0.062	-0.073
-504.712	177.464	0.152	-0.220
-503.697	-114.663	0.136	-0.026
-502.683	-200.000	-0.000	-0.305
-501.668	800.000	-0.010	-0.036
-500.653	-51.603	0.196	-0.091
-499.639	-139.848	0.399	-0.042
-498.624	-200.000	-0.110	-0.502
-497.610	292.533	0.046	0.083
-496.595	-53.848	-0.087	-0.039
-495.581	-99.597	0.139	-0.035
-494.566	800.000	-0.003	-0.008
-493.551	-200.000	0.041	-0.201
-492.537	-200.000	0.065	0.485
-491.522	-158.956	0.142	0.008
-490.508	800.000	0.036	0.144
-489.493	181.199	-0.124	0.181
-488.478	450.657	-0.080	0.176
-487.464	8.030	0.020	-0.015
-486.449	-200.000	0.019	0.179
-485.435	138.701	-0.067	-0.087
-484.420	-62.359	-0.184	0.076
-483.405	176.572	0.100	-0.144
-482.391	689.383	0.084	0.218
-481.376	56.955	0.181	-0.175
-480.362	-23.378	-0.033	0.019
-479.347	800.000	0.071	0.221
-478.332	-157.723	-0.111	-0.007
-477.318	-82.066	0.352	0.114
-476.303	323.760	-0.225	-0.425
-475.289	530.999	0.010	0.024
-474.274	452.321	-0.044	-0.096
-473.259	465.866	0.128	0.283
-472.245	-194.146	-0.292	-0.002
-471.230	234.809	-0.132	0.216
-470.216	-177.621	-0.271	0.007
-469.201	800.000	0.067	0.280
-468.186	-50.394	-0.242	0.113
-467.172	-15.027	0.009	-0.006
-466.157	640.580	0.114	0.287
-465.143	166.384	-0.195	0.273
-464.128	-200.000	0.022	0.232
-463.113	-82.786	-0.270	0.086
-462.099	-56.028	-0.264	0.116
-461.084	-35.208	0.145	-0.078
-460.070	-146.301	-0.210	-0.018
-459.055	-142.535	-0.040	-0.004
-458.040	-102.203	0.184	0.044
-457.026	-200.000	0.018	-0.248
-456.011	223.574	-0.105	-0.167
-454.997	630.343	-0.085	-0.213
-453.982	-136.268	0.223	-0.026
-452.968	575.684	0.057	-0.138
-451.953	21.618	0.131	0.105
-450.938	-200.000	-0.052	0.235
-449.924	33.816	0.299	0.257
-448.909	-103.930	0.099	0.023
-447.895	32.177	0.098	-0.083
-446.880	-26.931	0.115	0.067
-445.865	-113.775	-0.225	0.043
-444.851	-119.514	-0.137	0.024
-443.836	800.000	0.041	-0.148
-442.822	-200.000	-0.079	-0.412
-441.807	800.000	-0.136	-0.417
-440.792	602.826	-0.175	-0.431
-439.778	-200.000	-0.000	0.347
-438.763	185.321	-0.153	0.225
-437.749	-68.400	-0.300	0.115
-436.734	-200.000	-0.014	0.231
-435.719	175.545	-0.024	0.034
-434.705	11.921	0.141	-0.107
-433.690	178.932	0.023	-0.033
-432.676	-150.946	-0.290	-0.022
-431.661	-107.533	0.267	0.058
-430.646	250.582	0.098	0.165
-429.632	77.351	0.170	-0.179
-428.617	54.930	0.044	0.042
-427.603	-147.675	-0.179	0.015
-426.588	-200.000	0.007	0.043
-425.573	-66.139	0.079	0.031
-424.559	47.143	-0.402	0.370
-423.544	187.122	-0.052	-0.076
-422.530	34.285	0.204	0.176
-421.515	61.911	-0.275	0.271
-420.500	-200.000	0.021	0.130
-419.486	800.000	0.070	-0.219
-418.471	25.871	-0.141	-0.117
-417.457	-135.493	0.289	-0.034
-416.442	-103.925	0.196	0.045
-415.428	-200.000	0.007	0.072
-414.413	-169.986	-0.172	0.006
-413.398	224.478	0.108	-0.172
-412.384	147.242	0.174	0.231
-411.369	75.984	0.221	0.231
-410.355	19.772	-0.107	0.085
-409.340	-106.633	-0.258	-0.057
-408.325	222.878	0.030	0.048
-407.311	145.476	0.207	-0.274
-406.296	800.000	-0.031	-0.089
-405.282	-48.103	0.089	-0.043
-404.267	350.610	-0.098	-0.192
-403.252	-200.000	-0.001	0.246
-402.238	800.000	-0.166	-0.498
-401.223	-155.683	0.330	0.021
-400.209	-200.000	0.010	0.056
-399.194	383.810	-0.122	-0.248
-398.179	582.045	-0.110	0.267
-397.165	-200.000	0.031	0.266
-396.150	-151.257	0.098	0.007
-395.136	800.000	0.017	0.048
-394.121	-95.095	-0.203	-0.054
-393.106	-200.000	-0.000	0.099
-392.092	49.124	0.193	-0.179
-391.077	191.212	0.196	-0.292
-390.063	-43.386	-0.059	-0.030
-389.048	-197.009	0.139	-0.001
-388.033	60.775	0.046	-0.045
-387.019	800.000	-0.046	0.157
-386.004	800.000	0.078	-0.247
-384.990	-34.914	0.188	-0.101
-383.975	-31.673	-0.259	-0.143
-382.960	-188.103	0.035	-0.000
-381.946	22.815	0.089	0.072
-380.931	-135.083	0.122	0.015
-379.917	88.848	-0.150	0.164
-378.902	800.000	-0.035	-0.118
-377.888	-96.971	0.350	-0.091
-376.873	196.282	0.090	-0.135
-375.858	278.702	0.015	-0.026
-374.844	-200.000	-0.022	0.157
-373.829	-200.000	0.015	-0.317
-372.815	34.881	-0.127	-0.110
-371.800	-200.000	-0.023	0.120
-370.785	-51.221	-0.100	0.046
-369.771	-32.251	0.031	0.017
-368.756	127.283	0.070	0.088
-367.742	77.260	0.095	0.100
-366.727	-200.000	0.001	0.194
-365.712	152.452	-0.125	0.168
-364.698	-82.338	-0.103	-0.033
-363.683	70.562	-0.342	0.349
-362.669	800.000	0.041	-0.146
-361.654	-173.740	0.283	-0.008
-360.639	24.916	-0.121	-0.099
-359.625	-41.827	-0.005	-0.003
-358.610	800.000	0.108	0.342
-357.596	81.405	-0.298	-0.318
-356.581	-26.625	0.037	0.022
-355.566	-46.531	0.168	-0.081
-354.552	800.000	-0.040	-0.137
-353.537	-200.000	-0.014	0.118
-352.523	296.761	-0.057	0.102
-351.508	-30.917	-0.229	-0.128
-350.493	-125.405	0.233	0.035
-349.479	-200.000	0.022	-0.145
-348.464	237.907	-0.115	-0.189
-347.450	-25.416	-0.320	-0.187
-346.435	-183.482	0.443	0.008
-345.420	-175.109	0.325	0.009
-344.406	9.295	-0.319	0.238
-343.391	-125.526	0.065	0.010
-342.377	-57.477	0.246	-0.106
-341.362	36.349	0.256	0.222
-340.348	-200.000	0.000	-0.250
-339.333	87.954	-0.084	0.091
-338.318	90.622	-0.234	0.258
-337.304	181.358	-0.169	0.245
-336.289	800.000	-0.037	0.154
-335.275	800.000	-0.075	-0.292
-334.260	-62.359	0.168	-0.069
-333.245	519.777	0.192	-0.443
-332.231	-79.508	-0.122	-0.041
-331.216	533.411	-0.075	0.175
-330.202	103.009	-0.267	0.308
-329.187	27.440	0.192	0.159
-328.172	800.000	-0.056	0.176
-327.158	-200.000	-0.038	0.334
-326.143	-19.431	-0.040	-0.024
-325.129	-67.463	0.396	-0.153
-324.114	-41.308	-0.049	-0.025
-323.099	481.437	-0.055	-0.123
-322.085	347.925	-0.020	0.039
-321.070	800.000	0.050	-0.158
-320.056	-200.000	0.002	0.243
-319.041	-142.995	0.260	0.025
-318.026	136.857	-0.251	0.324
-317.012	8.371	0.408	0.302
-315.997	-14.768	-0.079	-0.050
-314.983	-55.902	-0.353	-0.155
-313.968	-200.000	-0.020	0.206
-312.953	535.206	-0.068	0.159
-311.939	117.620	-0.056	0.068
-310.924	132.615	-0.153	0.195
-309.910	433.748	0.140	-0.300
-308.895	-97.869	-0.123	0.031
-307.880	-164.926	0.323	-0.014
-306.866	-151.050	-0.128	-0.009
-305.851	-200.000	0.037	0.206
-304.837	219.872	0.144	0.227
-303.822	-200.000	-0.067	0.293
-302.807	-200.000	-0.042	-0.198
-301.793	220.456	-0.129	-0.204
-300.778	521.770	0.062	-0.144
-299.764	-51.431	0.147	-0.067
-298.749	356.196	-0.098	-0.191
-297.735	-200.000	0.012	0.138
-296.720	-56.534	0.465	0.203
-295.705	599.569	-0.130	0.317
-294.691	-18.453	0.206	0.126
-293.676	-200.000	-0.067	0.380
-292.662	89.490	0.095	0.105
-291.647	-200.000	0.029	-0.284
-290.632	147.747	-0.180	0.239
-289.618	800.000	-0.076	0.244
-288.603	-29.912	0.259	0.145
-287.589	570.555	-0.098	0.235
-286.574	-64.881	0.196	0.078
-285.559	193.836	-0.238	-0.354
-284.545	142.589	0.173	-0.226
-283.530	-44.962	0.183	-0.090
-282.516	158.775	0.191	-0.261
-281.501	-72.043	-0.157	-0.057
-280.486	-99.516	-0.216	-0.054
-279.472	-199.695	0.236	-0.001
-278.457	346.176	-0.045	-0.087
-277.443	32.322	-0.133	-0.113
-276.428	153.224	0.178	0.240
-275.413	800.000	0.061	-0.177
-274.399	58.635	-0.076	-0.073
-273.384	326.489	0.154	-0.290
-272.370	-115.679	0.147	-0.027
-271.355	-45.258	-0.125	0.061
-270.340	-62.021	-0.041	-0.017
-269.326	-95.717	0.358	0.094
-268.311	464.528	0.063	0.138
-267.297	-40.123	0.207	0.106
-266.282	132.247	0.202	-0.256
-265.267	80.302	-0.110	0.117
-264.253	-154.673	-0.243	0.016
-263.238	-7.455	0.117	0.078
-262.224	-200.000	-0.004	0.289
-261.209	-9.067	-0.043	0.028
-260.195	-94.936	-0.103	-0.027
-259.180	-141.611	-0.437	-0.043
-258.165	-200.000	-0.069	-0.307
-257.151	-106.666	-0.035	-0.008
-256.136	-200.000	0.038	-0.339
-255.122	-200.000	0.000	-0.053
-254.107	81.672	-0.215	0.228
-253.092	-106.029	-0.260	-0.057
-252.078	800.000	-0.066	0.231
-251.063	-62.997	0.224	-0.091
-250.049	36.648	0.052	0.045
-249.034	564.009	-0.053	0.127
-248.019	-200.000	0.024	0.433
-247.005	-200.000	0.031	0.280
-245.990	195.867	0.251	-0.376
-244.976	800.000	0.088	-0.264
-243.961	307.887	-0.110	0.202
-242.946	20.586	0.170	-0.135
-241.932	45.748	-0.175	-0.159
-240.917	-13.550	-0.230	-0.147
-239.903	179.864	-0.229	-0.329
-238.888	61.293	-0.055	-0.053
-237.873	-200.000	-0.005	0.105
-236.859	127.889	0.031	0.039
-235.844	24.325	0.324	-0.263
-234.830	-200.000	-0.073	0.345
-233.815	800.000	-0.061	0.188
-232.800	250.627	-0.257	0.429
-231.786	-180.236	-0.079	-0.002
-230.771	-200.000	-0.032	-0.138
-229.757	-65.859	0.111	0.044
-228.742	-200.000	-0.158	0.001
-227.727	17.747	0.075	-0.058
-226.713	-200.000	0.009	-0.283
-225.698	-17.751	-0.138	-0.085
-224.684	800.000	0.121	0.349
-223.669	-20.890	-0.091	0.055
-222.655	-20.029	-0.182	0.110
-221.640	225.263	0.177	0.281
-220.625	-200.000	-0.114	0.526
-219.611	13.368	0.175	0.133
-218.596	-35.986	-0.212	0.112
-217.582	178.299	-0.125	0.180
-216.567	-104.700	0.261	0.059
-215.552	-156.545	-0.277	-0.017
-214.538	-200.000	0.016	0.101
-213.523	203.734	-0.066	-0.100
-212.509	-200.000	-0.012	0.105
-211.494	-179.504	-0.180	0.004
-210.479	109.657	0.260	0.306
-209.465	-29.334	-0.092	-0.052
-208.450	-43.273	0.201	-0.100
-207.436	345.045	0.107	0.207
-206.421	-200.000	0.020	-0.127
-205.406	-200.000	0.004	-0.060
-204.392	749.234	-0.059	-0.155
-203.377	39.620	-0.185	0.163
-202.363	280.248	0.179	0.313
-201.348	120.128	-0.222	0.270
-200.333	292.153	-0.097	-0.173
-199.319	272.580	-0.112	0.193
-198.304	-162.393	0.174	0.008
-197.290	800.000	0.062	-0.243
-196.275	236.614	-0.104	-0.169
-195.260	46.601	-0.136	0.124
-194.246	554.170	-0.107	-0.252
-193.231	16.551	0.271	0.210
-192.217	-37.764	0.082	0.043
-191.202	800.000	-0.087	-0.364
-190.187	800.000	0.083	-0.267
-189.173	85.602	0.233	0.250
-188.158	-200.000	-0.023	0.143
-187.144	-194.209	-0.185	0.001
-186.129	-12.496	-0.128	0.082
-185.114	194.995	0.251	-0.374
-184.100	3.056	-0.055	-0.039
-183.085	31.715	-0.162	0.137
-182.071	-128.440	0.276	0.038
-181.056	800.000	0.033	0.102
-180.042	46.209	0.249	-0.226
-179.027	-120.082	0.274	0.046
-178.012	-54.045	-0.141	0.063
-176.998	-49.266	-0.296	-0.139
-175.983	-200.000	0.001	-0.239
-174.969	-200.000	-0.001	0.121
-173.954	-87.427	0.427	0.127
-172.939	-14.555	-0.192	-0.121
-171.925	11.102	-0.230	0.172
-170.910	504.492	0.097	-0.219
-169.896	-55.802	0.080	0.035
-168.881	397.404	-0.110	0.225
-167.866	83.206	-0.086	-0.091
-166.852	-200.000	0.015	-0.316
-165.837	-95.090	-0.114	0.030
-164.823	307.337	0.103	-0.188
-163.808	136.099	-0.108	0.137
-162.793	800.000	0.083	0.292
-161.779	80.977	-0.223	-0.236
-160.764	-6.236	0.093	-0.062
-159.750	-72.552	0.070	0.025
-158.735	-41.248	-0.116	0.059
-157.720	88.259	0.080	-0.087
-156.706	4.449	-0.182	0.130
-155.691	-200.000	-0.060	0.277
-154.677	-18.580	-0.082	0.050
-153.662	-187.771	-0.254	0.003
-152.647	284.897	0.136	0.239
-151.633	-129.916	-0.132	0.018
-150.618	160.233	0.077	0.105
-149.604	-112.484	0.341	-0.067
-148.589	-200.000	0.101	0.455
-147.574	719.621	0.037	0.097
-146.560	277.983	-0.203	0.353
-145.545	-53.957	-0.103	-0.046
-144.531	104.151	0.119	-0.137
-143.516	516.578	0.056	0.128
-142.502	7.174	-0.222	0.162
-141.487	800.000	-0.057	-0.206
-140.472	-52.983	0.247	0.111
-139.458	-113.056	0.360	0.070
-138.443	-173.173	-0.188	0.006
-137.429	-59.608	0.156	0.065
-136.414	667.980	-0.087	0.219
-135.399	294.268	-0.097	0.174
-134.385	170.719	-0.092	-0.129
-133.370	-151.566	-0.242	-0.017
-132.356	-200.000	-0.071	-0.402
-131.341	-200.000	-0.051	-0.328
-130.326	-82.005	0.183	-0.059
-129.312	-16.668	-0.430	0.266
-128.297	-89.856	0.217	0.062
-127.283	800.000	-0.040	0.112
-126.268	123.448	0.181	0.222
-125.253	101.342	-0.147	-0.167
-124.239	800.000	-0.054	0.205
-123.224	-200.000	-0.186	0.000
-122.210	7.975	0.224	0.164
-121.195	-200.000	-0.002	0.090
-120.180	-52.780	-0.074	0.034
-119.166	117.609	-0.091	-0.110
-118.151	-106.419	-0.442	0.097
-117.137	58.677	0.111	-0.107
-116.122	-43.931	0.298	-0.146
-115.107	-3.563	-0.074	-0.050
-114.093	-33.895	0.252	-0.136
-113.078	800.000	0.077	-0.282
-112.064	201.201	-0.246	0.371
-111.049	-200.000	-0.029	-0.248
-110.034	-200.000	0.060	-0.314
-109.020	-43.917	-0.214	0.105
-108.005	-79.650	-0.274	0.090
-106.991	-172.859	-0.059	-0.002
-105.976	800.000	0.010	0.041
-104.962	-200.000	-0.015	0.408
-103.947	600.900	-0.123	0.298
-102.932	-174.167	-0.109	-0.003
-101.918	-200.000	0.012	0.075
-100.903	-35.368	-0.417	-0.221
-99.889	-83.874	0.132	0.041
-98.874	-118.213	0.129	0.022
-97.859	800.000	0.010	0.032
-96.845	-25.012	-0.364	0.211
-95.830	22.021	-0.172	-0.137
-94.816	-39.157	0.281	-0.144
-93.801	209.482	-0.109	-0.167
-92.786	324.190	-0.055	0.103
-91.772	182.689	-0.169	-0.243
-90.757	238.606	0.189	-0.307
-89.743	325.191	0.040	0.074
-88.728	660.303	0.047	-0.117
-87.713	199.537	-0.018	-0.027
-86.699	-200.000	0.015	0.099
-85.684	118.689	-0.086	-0.103
-84.670	525.536	-0.086	0.198
-83.655	305.669	0.035	0.064
-82.640	322.784	-0.118	-0.220
-81.626	109.519	-0.069	-0.080
-80.611	-24.492	0.092	0.054
-79.597	96.694	0.217	0.243
-78.582	418.424	0.070	-0.146
-77.567	539.382	0.124	0.288
-76.553	-64.576	0.307	-0.122
-75.538	-6.533	0.098	-0.065
-74.524	-200.000	-0.012	0.223
-73.509	800.000	0.100	-0.285
-72.494	-92.233	-0.248	0.068
-71.480	11.354	0.262	0.196
-70.465	-200.000	-0.370	0.002
-69.451	66.981	0.151	0.150
-68.436	224.178	-0.102	0.161
-67.422	346.351	-0.028	0.053
-66.407	-22.235	0.178	0.105
-65.392	-91.914	0.078	-0.022
-64.378	-65.384	-0.056	-0.022
-63.363	77.932	0.174	0.181
-62.349	629.653	-0.119	0.294
-61.334	13.706	-1.135	-0.860
-60.319	145.689	0.532	0.695
-59.305	713.408	-0.438	-1.132
-58.290	800.000	0.480	1.631
-57.276	408.789	0.775	1.600
-56.261	-200.000	122.139	622.849
-55.246	384.249	1580.130	3173.032
-54.232	139.765	2750.589	3532.594
-53.217	94.960	2209.160	2451.050
-52.203	35.218	1720.210	1469.832
-51.188	27.607	1535.649	1259.725
-50.173	25.565	1510.940	1225.509
-49.159	47.973	1578.415	1437.529
-48.144	46.049	1593.260	1437.533
-47.130	27.636	1543.359	1266.051
-46.115	24.854	1527.474	1233.826
-45.100	24.672	1523.711	1229.485
-44.086	24.596	1521.999	1227.531
-43.071	24.530	1519.822	1225.276
-42.057	24.528	1518.086	1223.808
-41.042	24.640	1516.627	1223.351
-40.027	24.588	1515.383	1221.944
-39.013	24.611	1513.740	1220.733
-37.998	24.549	1512.795	1219.496
-36.984	24.502	1511.495	1218.082
-35.969	24.445	1510.083	1216.502
-34.954	24.507	1508.479	1215.585
-33.940	24.527	1507.098	1214.558
-32.925	24.498	1505.808	1213.274
-31.911	24.487	1504.491	1212.093
-30.896	24.602	1502.985	1211.610
-29.881	24.587	1501.662	1210.395
-28.867	24.575	1500.864	1209.623
-27.852	24.618	1499.002	1208.365
-26.838	24.583	1497.931	1207.216
-25.823	24.623	1496.051	1205.925
-24.809	24.599	1494.651	1204.584
-23.794	24.604	1492.927	1203.179
-22.779	24.586	1492.063	1202.313
-21.765	24.593	1491.169	1201.597
-20.750	24.718	1489.406	1200.968
-19.736	24.611	1488.779	1199.697
-18.721	24.658	1487.752	1199.137
-17.706	24.560	1486.943	1197.777
-16.692	24.628	1485.468	1197.000
-15.677	24.524	1484.635	1195.584
-14.663	24.536	1483.700	1194.861
-13.648	24.516	1482.875	1194.019
-12.633	24.539	1481.855	1193.300
-11.619	24.560	1481.096	1192.786
-10.604	24.533	1480.069	1191.732
-9.590	24.538	1479.402	1191.177
-8.575	24.629	1478.277	1190.828
-7.560	24.578	1477.263	1189.626
-6.546	24.553	1476.599	1188.879
-5.531	24.568	1475.150	1187.766
-4.517	24.576	1474.035	1186.877
-3.502	24.590	1473.314	1186.340
-2.487	24.644	1472.309	1185.843
-1.473	24.437	1472.086	1184.239
-0.458	24.512	1470.516	1183.428
0.556	23.581	1460.445	1173.499
1.571	20.729	1436.307	1135.429
2.586	17.361	1373.705	1064.795
3.600	15.732	1288.167	988.830
4.615	14.653	1244.422	949.034
5.629	12.755	1188.267	895.818
6.644	6.655	1104.788	801.887
7.659	1.476	1067.845	749.513
8.673	0.788	1062.598	742.389
9.688	0.761	1059.031	739.699
10.702	0.732	1057.801	738.634
11.717	0.669	1055.794	736.856
12.731	2.834	1057.040	748.223
13.746	9.115	1065.879	785.208
14.761	15.076	1073.172	819.784
15.775	16.973	1075.324	830.652
16.790	16.935	1073.886	829.283
17.804	15.921	1071.791	822.639
18.819	15.089	1070.088	817.199
19.834	14.658	1068.553	813.857
20.848	14.271	1067.788	811.314
21.863	14.105	1067.304	810.068
22.877	13.842	1066.183	807.864
23.892	13.701	1065.220	806.380
24.907	13.515	1064.824	805.102
25.921	13.560	1063.573	804.303
26.936	13.600	1062.895	803.914
27.950	13.751	1062.066	803.948
28.965	13.623	1061.770	803.035
29.980	13.623	1061.103	802.457
30.994	13.840	1059.365	802.122
32.009	13.824	1058.803	801.547
33.023	13.787	1058.289	800.910
34.038	13.730	1057.587	800.033
35.053	13.643	1056.782	798.933
36.067	13.720	1055.908	798.571
37.082	13.718	1054.769	797.628
38.096	13.737	1053.995	797.064
39.111	13.834	1053.089	796.776
40.126	13.868	1052.065	796.093
41.140	13.752	1051.303	794.888
42.155	13.567	1050.398	793.251
43.169	13.586	1049.267	792.417
44.184	13.459	1048.410	791.093
45.199	13.684	1046.762	790.854
46.213	13.607	1046.241	790.021
47.228	13.568	1045.513	789.216
48.242	13.575	1044.341	788.294
49.257	13.630	1043.512	787.862
50.271	13.646	1042.452	787.067
51.286	13.604	1041.011	785.709
52.301	13.591	1040.664	785.317
53.315	13.661	1039.829	784.950
54.330	13.581	1038.838	783.754
55.344	13.605	1038.255	783.359
56.359	13.617	1037.039	782.427
57.374	13.605	1036.036	781.547
58.388	13.671	1035.264	781.203
59.403	13.586	1034.599	780.232
60.417	13.534	1034.125	779.561
61.432	13.538	1033.027	778.682
62.447	13.517	1032.607	778.199
63.461	13.526	1031.163	777.084
64.476	13.536	1030.692	776.708
65.490	13.502	1029.639	775.684
66.505	13.697	1028.624	775.763
67.520	13.560	1027.843	774.467
68.534	13.513	1027.251	773.733
69.549	13.502	1026.624	773.142
70.563	13.642	1025.392	772.797
71.578	13.635	1024.905	772.330
72.593	13.614	1024.108	771.562
73.607	13.611	1023.306	770.879
74.622	13.479	1022.339	769.468
75.636	13.536	1021.736	769.207
76.651	13.540	1020.329	768.102
77.666	13.448	1019.987	767.348
78.680	13.647	1019.095	767.531
79.695	13.607	1018.378	766.739
80.709	13.461	1018.353	765.975
81.724	13.529	1017.603	765.660
82.739	13.624	1016.389	765.116
83.753	13.556	1015.835	764.317
84.768	13.636	1015.080	764.050
85.782	13.510	1014.303	762.819
86.797	13.607	1013.582	762.656
87.812	13.710	1012.091	761.936
88.826	13.700	1011.285	761.220
89.841	13.580	1010.807	760.241
90.855	13.710	1009.748	759.974
91.870	13.717	1009.224	759.544
92.884	13.717	1008.564	758.978
93.899	13.649	1007.989	758.168
94.914	13.675	1007.467	757.830
95.928	13.933	1006.454	758.177
96.943	13.812	1005.986	757.203
97.957	13.840	1004.698	756.296
98.972	13.662	1004.021	754.910
99.987	13.764	1002.984	754.525
101.001	13.868	1002.272	754.398
102.016	13.858	1001.128	753.422
103.030	13.768	1000.497	752.472
104.045	13.738	999.841	751.775
105.060	13.814	998.847	751.310
106.074	13.671	998.059	750.002
107.089	13.651	997.532	749.447
108.103	13.616	996.310	748.309
109.118	13.608	995.225	747.388
110.133	13.642	994.325	746.801
111.147	13.544	993.765	745.871
112.162	13.769	992.467	745.845
113.176	13.684	992.279	745.254
114.191	13.805	990.578	744.454
115.206	13.740	989.950	743.623
116.220	13.688	989.524	743.006
117.235	13.673	988.558	742.147
118.249	13.640	987.512	741.149
119.264	13.693	986.519	740.575
120.279	13.776	985.822	740.356
121.293	13.619	985.190	739.116
122.308	13.752	983.774	738.581
123.322	13.684	983.355	737.896
124.337	13.614	982.003	736.508
125.352	13.752	981.045	736.337
126.366	13.819	979.745	735.592
127.381	13.803	978.649	734.636
128.395	13.610	978.112	733.312
129.410	13.680	976.768	732.550
130.424	13.736	975.782	731.990
131.439	13.727	975.199	731.451
132.454	13.635	974.657	730.571
133.468	13.739	973.576	730.158
134.483	13.606	973.186	729.213
135.497	13.775	971.940	728.957
136.512	13.697	971.601	728.297
137.527	13.763	970.558	727.743
138.541	13.750	969.700	726.976
139.556	13.650	969.393	726.245
140.570	13.838	968.445	726.291
141.585	13.861	967.826	725.861
142.600	13.892	966.757	725.135
143.614	13.878	966.197	724.589
144.629	13.818	965.842	723.997
145.643	13.872	965.062	723.584
146.658	13.926	963.859	722.850
147.673	13.885	962.915	721.899
148.687	13.856	962.214	721.185
149.702	13.848	961.184	720.316
150.716	13.799	960.675	719.655
151.731	13.846	959.400	718.841
152.746	13.746	959.203	718.200
153.760	13.747	958.382	717.524
154.775	13.775	957.878	717.206
155.789	13.901	957.089	717.095
156.804	13.899	956.382	716.493
157.819	13.988	954.993	715.773
158.833	13.982	954.720	715.478
159.848	13.978	954.106	714.935
160.862	14.090	953.086	714.593
161.877	14.028	952.521	713.837
162.892	13.955	951.759	712.891
163.906	13.913	950.902	712.006
164.921	13.857	950.458	711.368
165.935	14.037	948.656	710.727
166.950	13.926	948.444	710.032
167.964	14.019	946.889	709.200
168.979	13.983	945.749	708.131
169.994	13.980	945.382	707.782
171.008	13.953	944.571	706.996
172.023	14.194	943.361	707.052
173.037	13.988	942.923	705.788
174.052	14.132	942.213	705.804
175.067	14.227	941.470	705.588
176.081	14.104	940.700	704.427
177.096	14.018	939.393	703.024
178.110	14.077	938.909	702.847
179.125	14.201	938.010	702.635
180.140	14.208	937.507	702.227
181.154	14.134	936.969	701.450
182.169	14.196	936.250	701.111
183.183	14.203	935.656	700.632
184.198	14.263	934.673	700.087
185.213	14.328	934.080	699.856
186.227	14.212	933.561	698.915
187.242	14.389	933.138	699.279
188.256	14.271	932.560	698.291
189.271	14.334	931.801	697.926
190.286	14.315	931.065	697.234
191.300	14.339	930.052	696.513
192.315	14.123	929.718	695.300
193.329	14.072	929.233	694.659
194.344	14.246	927.898	694.326
195.359	14.173	928.090	694.103
196.373	14.255	927.053	693.610
197.388	14.301	926.778	693.536
198.402	14.361	926.581	693.574
199.417	14.444	925.608	693.131
200.432	14.525	924.734	692.750
201.446	14.522	924.782	692.713
202.461	14.563	923.910	692.170
203.475	14.652	923.444	692.128
204.490	14.605	922.983	691.526
205.504	14.526	921.927	690.346
206.519	14.521	920.996	689.569
207.534	14.477	920.415	688.892
208.548	14.525	919.643	688.447
209.563	14.422	919.580	687.917
210.577	14.569	918.235	687.453
211.592	14.496	918.059	686.963
212.607	14.544	917.364	686.577
213.621	14.751	916.087	686.411
214.636	14.748	915.299	685.748
215.650	14.675	914.697	684.940
216.665	14.647	914.416	684.552
217.680	14.688	913.395	683.897
218.694	14.662	913.582	683.869
219.709	14.624	913.298	683.438
220.723	14.539	912.921	682.747
221.738	14.765	911.366	682.450
222.753	14.721	910.552	681.601
223.767	14.842	909.863	681.518
224.782	14.842	909.215	680.969
225.796	14.902	908.430	680.568
226.811	14.868	907.918	679.987
227.826	15.061	906.935	679.974
228.840	14.984	906.321	679.138
229.855	14.818	906.040	678.197
230.869	14.830	905.561	677.826
231.884	14.966	904.177	677.279
232.899	14.929	903.519	676.579
233.913	14.926	902.936	676.068
234.928	14.916	902.444	675.602
235.942	14.854	901.962	674.929
236.957	14.922	901.052	674.463
237.972	14.884	900.559	673.882
238.986	14.940	899.962	673.601
240.001	14.973	899.070	673.007
241.015	15.022	898.341	672.596
242.030	14.851	897.941	671.551
243.045	14.850	896.998	670.783
244.059	14.968	896.498	670.822
245.074	15.056	895.641	670.477
246.088	15.168	894.672	670.138
247.103	15.084	894.553	669.655
248.117	15.093	894.153	669.330
249.132	15.131	893.535	668.962
250.147	15.188	893.072	668.782
251.161	15.212	892.219	668.182
252.176	15.166	891.139	667.131
253.190	15.295	890.628	667.202
254.205	15.398	889.952	667.045
255.220	15.439	889.427	666.755
256.234	15.334	888.812	665.818
257.249	15.376	888.417	665.631
258.263	15.324	887.907	664.984
259.278	15.353	887.125	664.455
260.293	15.368	886.460	663.955
261.307	15.374	886.076	663.634
262.322	15.459	885.682	663.616
263.336	15.494	884.803	663.037
264.351	15.582	883.821	662.590
265.366	15.686	883.220	662.488
266.380	15.555	882.745	661.561
267.395	15.638	882.108	661.352
268.409	15.644	881.234	660.658
269.424	15.685	880.335	660.088
270.439	15.546	880.017	659.248
271.453	15.551	878.992	658.439
272.468	15.510	878.641	657.956
273.482	15.496	878.313	657.599
274.497	15.615	877.266	657.221
275.512	15.709	876.780	657.166
276.526	15.644	876.142	656.377
277.541	15.432	875.644	655.118
278.555	15.663	874.868	655.382
279.570	15.693	874.161	654.910
280.585	15.697	873.805	654.602
281.599	15.724	873.561	654.464
282.614	15.756	872.648	653.849
283.628	15.857	871.621	653.414
284.643	15.720	871.351	652.620
285.657	15.780	870.975	652.515
286.672	15.867	870.418	652.376
287.687	15.813	869.978	651.778
288.701	15.856	869.329	651.403
289.716	15.742	868.906	650.589
290.730	15.874	868.203	650.511
291.745	15.892	867.522	650.016
292.760	15.905	866.527	649.263
293.774	16.084	865.541	649.157
294.789	16.099	865.063	648.798
295.803	15.982	864.924	648.186
296.818	16.006	864.548	647.939
297.833	16.035	863.466	647.183
298.847	16.048	862.794	646.669
299.862	16.122	861.849	646.189
300.876	16.037	861.260	645.363
301.891	16.004	860.715	644.772
302.906	16.100	860.269	644.750
303.920	16.104	859.775	644.337
304.935	16.144	859.295	644.073
305.949	16.155	858.417	643.400
306.964	16.112	857.822	642.734
307.979	16.026	857.375	642.013
308.993	16.257	856.610	642.263
310.008	16.167	856.305	641.636
311.022	16.279	855.620	641.490
312.037	16.173	855.534	640.966
313.052	16.256	854.746	640.633
314.066	16.336	853.826	640.190
315.081	16.189	853.391	639.251
316.095	16.240	853.260	639.289
317.110	16.252	852.223	638.503
318.125	16.358	851.409	638.235
319.139	16.207	851.139	637.407
320.154	16.295	850.750	637.389
321.168	16.257	850.108	636.711
322.183	16.414	849.404	636.720
323.197	16.289	849.031	635.912
324.212	16.436	848.300	635.863
325.227	16.482	847.668	635.505
326.241	16.447	846.988	634.806
327.256	16.298	846.875	634.107
328.270	16.354	846.193	633.750
329.285	16.410	845.544	633.417
330.300	16.471	845.150	633.296
331.314	16.316	844.955	632.510
332.329	16.518	843.733	632.295
333.343	16.420	843.495	631.696
334.358	16.533	842.598	631.390
335.373	16.603	842.179	631.282
336.387	16.575	841.582	630.672
337.402	16.558	840.915	630.056
338.416	16.577	840.182	629.520
339.431	16.656	840.290	629.841
340.446	16.684	839.325	629.167
341.460	16.811	838.477	628.946
342.475	16.703	838.366	628.406
343.489	16.778	837.180	627.738
344.504	16.907	836.852	627.913
345.519	16.844	836.415	627.297
346.533	16.870	836.117	627.115
347.548	16.716	835.918	626.341
348.562	16.680	835.260	625.659
349.577	16.778	834.841	625.651
350.592	16.756	834.117	624.972
351.606	16.673	833.787	624.364
352.621	16.863	833.237	624.598
353.635	16.728	832.962	623.838
354.650	16.892	832.342	623.924
355.665	16.731	831.792	622.864
356.679	16.855	831.320	622.912
357.694	16.926	831.239	623.057
358.708	16.813	830.445	621.991
359.723	16.927	829.630	621.744
360.738	16.992	828.965	621.428
361.752	16.860	828.828	620.785
362.767	17.029	828.166	620.853
363.781	17.004	828.018	620.597
364.796	17.009	827.124	619.889
365.810	16.984	827.183	619.787
366.825	17.076	826.468	619.533
367.840	16.955	826.502	619.064
368.854	17.155	825.649	619.098
369.869	17.202	825.183	618.865
370.883	17.003	825.100	618.022
371.898	17.156	824.100	617.777
372.913	17.124	823.712	617.314
373.927	17.215	822.545	616.716
374.942	17.192	822.247	616.355
375.956	17.269	821.800	616.242
376.971	17.278	821.143	615.729
377.986	17.268	820.454	615.120
379.000	17.329	820.076	615.003
380.015	17.300	819.449	614.375
381.029	17.401	819.331	614.595
382.044	17.297	818.416	613.479
383.059	17.416	818.109	613.626
384.073	17.390	817.363	612.916
385.088	17.408	816.951	612.619
386.102	17.436	816.117	612.043
387.117	17.421	815.716	611.632
388.132	17.426	815.236	611.236
389.146	17.309	815.417	610.897
390.161	17.544	814.189	610.766
391.175	17.522	813.966	610.467
392.190	17.479	813.847	610.167
393.205	17.472	813.266	609.653
394.219	17.505	812.458	609.111
395.234	17.500	812.307	608.927
396.248	17.354	811.770	607.951
397.263	17.548	811.140	608.117
398.278	17.537	810.623	607.637
399.292	17.385	810.575	607.002
400.307	17.555	809.915	607.060
401.321	17.489	809.469	606.439
402.336	17.416	809.478	606.131
403.350	17.573	808.780	606.115
404.365	17.574	807.935	605.429
405.380	17.607	807.905	605.472
406.394	17.666	807.158	605.068
407.409	17.744	806.459	604.768
408.423	17.741	806.532	604.759
409.438	17.834	805.987	604.626
410.453	17.838	805.445	604.177
411.467	17.913	805.017	604.068
412.482	17.865	804.623	603.551
413.496	18.062	803.686	603.489
414.511	17.846	803.727	602.704
415.526	17.880	803.426	602.547
416.540	17.917	803.077	602.363
417.555	17.946	802.556	602.019
418.569	18.106	801.950	602.075
419.584	18.066	801.338	601.420
420.599	17.914	801.424	600.899
421.613	114.227	1296.792	1485.442
422.628	98.562	1368.906	1485.515
