DTS Sentinel unit serial number:	SN413079Multiplexer serial number:	ORYXHardware model number:	OX4-SRSoftware version number:	ORYX F/W v4.00 Oryx Data Collector v3.7.2.0data status	okinstallation	princeton_trtdifferential loss correction	single-endedforward channel	channel 3reverse channel	N/Adate	2019/09/13time	04:00:35forward acquisition time	60.00reverse acquisition time	0.00gamma	496.2192k internal	0.2336k external	0.2336temperature offset calibration	1.0139default loss term (dB/km)	0.3790temperature slope calibration	1.0000multiplexer offset coefficient	1.0000multiplexer slope coefficient	1.0000fibre end	0.00T internal ref (°C)	27.00T ext. ref 1 (°C)	4.07T ext. ref 2 (°C)	21.30length (m)	temperature (°C)	Stokes	anti-Stokes-747.200	476.723	0.201	-0.456
-746.185	-91.754	-0.020	-0.006
-745.171	-200.000	-0.027	0.203
-744.156	149.249	-0.084	0.114
-743.142	-16.533	-0.175	0.112
-742.127	-102.058	0.146	0.035
-741.112	480.861	-0.087	0.199
-740.098	-62.349	0.164	0.068
-739.083	51.700	0.181	-0.173
-738.069	236.524	-0.064	0.106
-737.054	-157.506	-0.120	-0.007
-736.039	-200.000	-0.000	-0.191
-735.025	-123.768	0.503	-0.080
-734.010	800.000	-0.078	-0.242
-732.996	-28.365	-0.093	-0.054
-731.981	-200.000	-0.010	-0.305
-730.966	-84.254	0.181	-0.058
-729.952	-200.000	-0.010	0.104
-728.937	-131.819	-0.065	0.008
-727.923	98.699	-0.229	-0.265
-726.908	9.263	-0.192	-0.146
-725.894	-200.000	0.056	0.292
-724.879	-64.316	-0.482	-0.197
-723.864	-200.000	-0.030	0.276
-722.850	-200.000	0.011	-0.207
-721.835	158.244	-0.160	0.223
-720.821	2.951	0.337	-0.246
-719.806	117.842	0.088	-0.108
-718.791	-13.698	-0.249	0.162
-717.777	-200.000	0.189	0.000
-716.762	-41.668	-0.088	0.046
-715.748	-35.412	-0.138	-0.075
-714.733	800.000	0.031	-0.135
-713.718	-200.000	-0.001	0.206
-712.704	-108.073	0.164	-0.036
-711.689	-85.562	-0.161	0.050
-710.675	70.155	0.219	0.226
-709.660	-120.746	0.103	-0.017
-708.645	800.000	0.096	-0.356
-707.631	597.911	-0.112	-0.278
-706.616	-121.933	0.371	0.061
-705.602	-66.742	-0.238	-0.094
-704.587	-58.679	0.145	0.063
-703.572	746.209	-0.049	-0.131
-702.558	354.241	0.034	-0.067
-701.543	800.000	0.152	-0.445
-700.529	271.297	-0.189	-0.334
-699.514	76.370	-0.091	-0.096
-698.499	800.000	-0.038	-0.131
-697.485	26.093	-0.261	-0.219
-696.470	157.615	0.107	-0.149
-695.456	800.000	-0.125	-0.354
-694.441	-78.641	0.224	0.077
-693.426	-105.030	0.127	0.029
-692.412	800.000	-0.078	0.333
-691.397	800.000	-0.041	-0.128
-690.383	-123.377	0.313	-0.050
-689.368	7.852	-0.107	0.081
-688.354	-200.000	-0.022	0.257
-687.339	-33.293	-0.242	0.134
-686.324	227.695	-0.192	0.312
-685.310	5.772	0.287	-0.212
-684.295	467.922	0.056	-0.126
-683.281	12.023	-0.205	-0.158
-682.266	224.284	-0.167	-0.270
-681.251	231.331	0.063	0.104
-680.237	86.499	0.110	0.121
-679.222	-200.000	0.010	-0.171
-678.208	-200.000	-0.019	0.239
-677.193	-18.981	0.156	-0.097
-676.178	105.835	-0.232	-0.274
-675.164	-142.615	0.106	-0.010
-674.149	378.472	-0.184	0.378
-673.135	-61.908	0.114	0.048
-672.120	18.766	-0.085	-0.068
-671.105	-200.000	0.039	-0.243
-670.091	62.415	0.018	-0.018
-669.076	800.000	0.072	-0.314
-668.062	557.232	-0.037	-0.089
-667.047	-47.859	0.251	-0.122
-666.032	800.000	0.124	-0.345
-665.018	-107.204	-0.174	-0.038
-664.003	-169.844	-0.259	-0.009
-662.989	190.908	0.122	-0.183
-661.974	-4.482	0.284	0.196
-660.959	-46.942	0.179	-0.088
-659.945	-123.595	0.037	-0.006
-658.930	-71.182	-0.128	-0.048
-657.916	-200.000	-0.002	-0.201
-656.901	-139.716	-0.184	0.020
-655.886	-52.467	-0.270	-0.125
-654.872	-49.343	0.139	0.066
-653.857	800.000	-0.092	0.386
-652.843	1.056	0.063	-0.045
-651.828	15.090	-0.378	-0.296
-650.814	-110.832	-0.456	-0.094
-649.799	381.670	0.047	0.097
-648.784	-200.000	-0.031	-0.314
-647.770	-17.843	-0.144	0.090
-646.755	-200.000	0.029	-0.149
-645.741	800.000	0.023	0.075
-644.726	-200.000	-0.046	-0.378
-643.711	-68.179	-0.347	0.135
-642.697	800.000	-0.040	-0.132
-641.682	-144.499	-0.410	-0.038
-640.668	-2.169	-0.162	-0.114
-639.653	-68.483	-0.143	0.056
-638.638	-200.000	0.023	-0.112
-637.624	800.000	0.036	0.105
-636.609	520.283	0.059	0.139
-635.595	-200.000	0.034	-0.208
-634.580	-52.639	0.065	-0.030
-633.565	-89.411	0.098	0.029
-632.551	37.374	-0.070	0.062
-631.536	458.630	0.019	-0.042
-630.522	-137.035	0.375	0.043
-629.507	401.797	-0.095	0.199
-628.492	481.752	-0.083	0.188
-627.478	-60.780	-0.111	0.047
-626.463	-83.799	0.142	0.045
-625.449	165.661	-0.200	-0.282
-624.434	157.835	0.063	0.087
-623.419	123.543	-0.028	-0.036
-622.405	-91.656	0.338	-0.096
-621.390	-5.830	0.093	-0.063
-620.376	-200.000	0.013	-0.126
-619.361	800.000	0.097	-0.303
-618.346	-200.000	0.003	-0.052
-617.332	-200.000	0.004	0.022
-616.317	-110.481	-0.270	0.056
-615.303	-27.604	0.285	-0.166
-614.288	-99.493	-0.087	0.022
-613.273	151.647	-0.046	0.063
-612.259	-200.000	-0.032	0.158
-611.244	222.218	-0.167	-0.269
-610.230	43.187	0.150	0.136
-609.215	762.001	0.115	-0.311
-608.201	-35.897	0.165	0.089
-607.186	-200.000	0.012	-0.250
-606.171	-128.921	0.266	-0.037
-605.157	154.031	-0.118	0.162
-604.142	350.277	-0.105	-0.207
-603.128	8.421	0.098	-0.073
-602.113	89.753	-0.122	0.136
-601.098	800.000	0.025	-0.110
-600.084	26.094	0.089	-0.074
-599.069	-111.367	-0.393	0.080
-598.055	115.187	0.094	-0.114
-597.040	800.000	-0.072	-0.224
-596.025	-130.946	0.359	-0.048
-595.011	18.723	-0.176	0.141
-593.996	-167.188	-0.316	-0.013
-592.982	800.000	0.088	-0.308
-591.967	-96.484	0.133	-0.035
-590.952	800.000	-0.087	-0.288
-589.938	139.408	-0.169	-0.222
-588.923	2.857	0.164	0.119
-587.909	155.337	-0.151	0.207
-586.894	-200.000	0.019	0.158
-585.879	6.632	0.156	0.116
-584.865	-144.320	0.270	-0.025
-583.850	-175.216	-0.431	-0.012
-582.836	-200.000	-0.018	-0.122
-581.821	-21.768	0.079	-0.048
-580.806	-88.372	0.394	0.117
-579.792	312.722	0.068	0.128
-578.777	178.061	0.039	0.057
-577.763	408.765	-0.146	0.307
-576.748	-121.489	0.203	0.034
-575.733	321.431	0.177	0.336
-574.719	-31.614	-0.116	0.065
-573.704	800.000	0.051	-0.185
-572.690	-41.160	-0.192	0.099
-571.675	-111.226	-0.074	0.015
-570.661	-51.139	0.206	-0.096
-569.646	45.553	0.063	-0.058
-568.631	-159.779	0.216	0.012
-567.617	-200.000	0.031	0.157
-566.602	-28.947	-0.123	0.070
-565.588	312.790	-0.141	0.265
-564.573	-200.000	-0.006	-0.152
-563.558	214.432	0.168	0.266
-562.544	800.000	0.038	0.133
-561.529	110.445	-0.119	0.143
-560.515	206.674	-0.101	-0.157
-559.500	-200.000	0.031	-0.193
-558.485	-83.797	-0.162	0.051
-557.471	-105.430	0.495	0.112
-556.456	99.664	-0.078	-0.090
-555.442	34.309	-0.069	-0.060
-554.427	-89.495	0.373	-0.109
-553.412	-200.000	-0.123	-0.538
-552.398	-48.345	-0.217	-0.104
-551.383	-79.476	0.361	-0.121
-550.369	-29.600	-0.190	0.108
-549.354	31.416	0.404	0.346
-548.339	-45.731	0.347	0.171
-547.325	-90.531	0.136	0.039
-546.310	568.316	-0.028	0.069
-545.296	-200.000	-0.008	-0.345
-544.281	-200.000	-0.123	0.538
-543.266	102.797	-0.037	-0.043
-542.252	-59.445	-0.317	0.136
-541.237	-66.746	-0.186	0.073
-540.223	115.822	-0.120	-0.147
-539.208	-200.000	-0.024	0.152
-538.193	45.581	-0.063	0.058
-537.179	-200.000	-0.011	-0.076
-536.164	176.578	0.250	-0.362
-535.150	-95.378	-0.170	0.046
-534.135	-25.955	0.188	-0.110
-533.121	8.341	0.273	0.204
-532.106	121.562	-0.149	0.185
-531.091	417.337	-0.132	-0.280
-530.077	456.865	-0.021	-0.046
-529.062	65.397	-0.032	0.032
-528.048	588.349	-0.055	0.136
-527.033	-127.980	-0.118	0.017
-526.018	-48.851	0.201	-0.096
-525.004	-200.000	0.015	0.068
-523.989	800.000	-0.051	0.199
-522.975	-110.025	-0.164	-0.034
-521.960	-200.000	-0.005	0.212
-520.945	3.403	0.151	-0.110
-519.931	-200.000	0.026	-0.526
-518.916	800.000	-0.044	-0.170
-517.902	-102.092	-0.147	0.035
-516.887	-200.000	0.006	-0.351
-515.872	-200.000	-0.092	-0.402
-514.858	-130.390	0.114	0.015
-513.843	42.538	0.056	0.051
-512.829	800.000	-0.118	-0.329
-511.814	203.436	-0.045	0.069
-510.799	189.404	-0.017	0.025
-509.785	800.000	-0.089	0.321
-508.770	55.836	0.246	-0.237
-507.756	75.047	-0.180	-0.189
-506.741	119.206	0.047	-0.057
-505.726	96.997	0.197	-0.225
-504.712	-104.648	0.283	-0.065
-503.697	-200.000	-0.030	0.147
-502.683	186.233	-0.230	-0.340
-501.668	3.996	-0.057	-0.042
-500.653	800.000	0.048	0.163
-499.639	800.000	0.036	-0.122
-498.624	800.000	-0.047	0.133
-497.610	-16.355	0.175	0.111
-496.595	224.455	-0.095	-0.153
-495.581	-115.993	-0.315	-0.058
-494.566	241.598	-0.085	-0.142
-493.551	-36.496	-0.092	-0.049
-492.537	57.293	0.115	0.112
-491.522	-138.198	-0.255	0.028
-490.508	74.311	0.121	-0.127
-489.493	145.484	-0.053	-0.071
-488.478	34.681	-0.285	-0.248
-487.464	-200.000	0.026	-0.165
-486.449	-31.459	0.118	0.066
-485.435	-0.635	0.496	-0.350
-484.420	-45.557	0.175	-0.086
-483.405	-21.196	-0.214	0.130
-482.391	88.033	0.125	-0.138
-481.376	-48.776	0.207	-0.099
-480.362	800.000	0.057	0.233
-479.347	62.340	0.133	-0.132
-478.332	800.000	-0.071	-0.235
-477.318	201.180	0.106	-0.161
-476.303	17.114	-0.229	0.180
-475.289	-64.231	-0.251	0.102
-474.274	-153.827	-0.282	-0.019
-473.259	-200.000	0.030	-0.285
-472.245	2.277	-0.091	0.065
-471.230	343.523	-0.104	0.202
-470.216	124.047	0.399	-0.498
-469.201	-179.390	-0.265	0.006
-468.186	34.668	-0.240	-0.208
-467.172	-138.226	-0.250	-0.028
-466.157	-28.194	-0.283	0.162
-465.143	134.320	-0.040	0.052
-464.128	10.581	0.138	-0.104
-463.113	-55.972	-0.214	0.095
-462.099	-10.951	0.222	-0.146
-461.084	169.231	0.202	-0.286
-460.070	-84.047	-0.282	0.089
-459.055	25.970	0.218	-0.180
-458.040	44.405	-0.053	0.048
-457.026	-200.000	0.011	0.150
-456.011	-164.322	0.245	-0.011
-454.997	-200.000	0.014	-0.146
-453.982	-76.964	-0.067	-0.023
-452.968	677.740	0.101	-0.260
-451.953	-200.000	0.006	-0.029
-450.938	800.000	0.073	0.226
-449.924	-114.762	-0.526	-0.100
-448.909	-146.686	0.471	-0.040
-447.895	800.000	-0.060	-0.200
-446.880	800.000	-0.111	0.309
-445.865	-153.834	-0.317	-0.022
-444.851	425.516	0.055	-0.118
-443.836	-24.658	-0.312	-0.184
-442.822	-34.229	0.269	-0.146
-441.807	142.184	-0.057	-0.075
-440.792	775.745	-0.097	-0.263
-439.778	-200.000	0.005	-0.120
-438.763	-200.000	-0.002	0.188
-437.749	800.000	-0.098	0.408
-436.734	-43.205	0.560	-0.281
-435.719	800.000	0.127	0.359
-434.705	-118.670	0.178	-0.031
-433.690	-178.944	-0.058	0.001
-432.676	189.623	0.172	-0.256
-431.661	-115.365	-0.447	0.084
-430.646	-89.148	-0.193	0.057
-429.632	63.870	0.093	0.093
-428.617	800.000	0.062	0.269
-427.603	111.047	-0.288	-0.343
-426.588	118.295	0.095	0.116
-425.573	318.939	-0.073	-0.137
-424.559	508.943	-0.096	-0.222
-423.544	-59.552	0.271	-0.115
-422.530	-200.000	0.014	0.060
-421.515	-107.593	-0.247	0.054
-420.500	-132.811	-0.208	-0.026
-419.486	136.434	-0.068	0.087
-418.471	222.761	-0.040	-0.064
-417.457	-119.615	-0.137	-0.023
-416.442	293.617	0.030	0.054
-415.428	-10.605	0.151	-0.099
-414.413	282.899	0.080	-0.142
-413.398	265.322	-0.104	-0.179
-412.384	85.736	-0.061	-0.066
-411.369	72.317	0.159	0.164
-410.355	-200.000	0.055	0.329
-409.340	-61.929	0.367	0.152
-408.325	371.228	0.129	-0.260
-407.311	398.208	0.065	0.135
-406.296	-11.471	0.191	-0.124
-405.282	-200.000	0.020	0.101
-404.267	424.464	0.061	0.131
-403.252	-200.000	-0.050	-0.281
-402.238	19.948	0.338	-0.270
-401.223	667.089	-0.167	-0.427
-400.209	800.000	0.081	0.349
-399.194	-115.585	-0.241	-0.045
-398.179	143.868	0.081	-0.107
-397.165	-99.432	-0.313	-0.078
-396.150	1.085	0.179	-0.128
-395.136	636.144	0.069	0.173
-394.121	-102.239	-0.332	0.079
-393.106	342.261	-0.063	-0.121
-392.092	-30.962	-0.420	-0.235
-391.077	-51.293	0.353	-0.163
-390.063	300.075	0.188	0.343
-389.048	-94.621	-0.340	0.091
-388.033	104.147	0.202	0.235
-387.019	-40.535	-0.186	-0.096
-386.004	69.918	-0.222	0.227
-384.990	9.308	0.241	-0.180
-383.975	-147.042	-0.249	0.021
-382.960	-129.310	-0.374	0.052
-381.946	392.489	0.140	-0.288
-380.931	-54.004	-0.263	0.118
-379.917	-200.000	-0.033	-0.239
-378.902	800.000	0.071	0.271
-377.888	-200.000	-0.034	0.190
-376.873	452.276	-0.057	0.125
-375.858	649.664	-0.065	-0.165
-374.844	514.520	-0.172	-0.398
-373.829	-139.992	-0.452	0.047
-372.815	275.984	-0.188	0.330
-371.800	192.217	0.097	0.145
-370.785	444.404	-0.097	0.211
-369.771	19.904	-0.155	-0.123
-368.756	-186.816	-0.238	-0.003
-367.742	-200.000	-0.022	-0.227
-366.727	-68.543	0.225	0.086
-365.712	-63.500	-0.146	-0.059
-364.698	146.973	0.047	-0.062
-363.683	-200.000	0.082	0.472
-362.669	-117.132	0.178	-0.032
-361.654	-81.774	0.034	-0.011
-360.639	-200.000	0.033	-0.199
-359.625	-70.929	-0.193	0.072
-358.610	350.437	-0.092	0.181
-357.596	371.389	0.095	0.192
-356.581	-200.000	-0.014	-0.267
-355.566	12.664	-0.025	-0.019
-354.552	-20.502	-0.400	0.243
-353.537	-102.299	0.101	0.024
-352.523	-200.000	-0.003	0.244
-351.508	-47.808	0.123	0.059
-350.493	84.281	0.053	0.058
-349.479	-34.047	-0.034	0.019
-348.464	-200.000	0.074	-0.375
-347.450	100.814	0.145	0.167
-346.435	375.693	0.212	0.428
-345.420	343.303	-0.101	0.196
-344.406	-183.388	-0.300	0.005
-343.391	153.673	0.141	-0.192
-342.377	91.815	-0.056	0.063
-341.362	-200.000	0.027	-0.152
-340.348	-65.806	-0.035	0.014
-339.333	40.659	-0.109	0.097
-338.318	800.000	-0.104	-0.296
-337.304	193.122	-0.070	-0.105
-336.289	-81.914	0.361	0.117
-335.275	-7.343	-0.319	0.214
-334.260	106.813	0.127	0.149
-333.245	-125.584	0.502	0.075
-332.231	227.262	-0.024	-0.039
-331.216	18.900	0.142	-0.113
-330.202	563.644	0.010	-0.024
-329.187	108.067	-0.069	-0.081
-328.172	54.156	0.237	0.225
-327.158	-105.597	0.433	0.097
-326.143	-110.362	-0.288	0.059
-325.129	436.771	0.037	0.079
-324.114	19.205	-0.182	-0.144
-323.099	-200.000	-0.020	0.098
-322.085	148.955	0.132	0.176
-321.070	800.000	-0.053	0.181
-320.056	-35.945	0.305	-0.163
-319.041	-161.476	0.239	0.012
-318.026	-16.683	0.291	0.182
-317.012	-6.617	0.059	-0.040
-315.997	67.464	0.149	0.150
-314.983	113.511	0.125	0.150
-313.968	20.380	-0.213	-0.170
-312.953	-55.651	0.307	0.136
-311.939	170.120	0.173	0.244
-310.924	-126.743	-0.414	0.060
-309.910	1.382	0.226	0.161
-308.895	-166.340	0.110	-0.005
-307.880	-67.781	-0.031	-0.012
-306.866	223.847	0.143	-0.229
-305.851	-200.000	-0.004	0.178
-304.837	-125.326	0.300	-0.045
-303.822	-200.000	0.004	0.089
-302.807	-14.115	0.019	0.012
-301.793	76.676	0.156	-0.164
-300.778	-200.000	-0.073	-0.337
-299.764	800.000	-0.057	0.155
-298.749	-32.338	-0.287	0.158
-297.735	-25.513	-0.195	0.114
-296.720	124.039	-0.153	0.190
-295.705	800.000	-0.083	-0.320
-294.691	453.156	0.137	0.299
-293.676	355.038	0.158	-0.310
-292.662	-89.707	-0.188	0.054
-291.647	222.060	0.078	-0.124
-290.632	-51.249	-0.223	-0.103
-289.618	92.343	0.052	-0.058
-288.603	-37.896	0.203	-0.107
-287.589	657.828	-0.077	0.195
-286.574	-200.000	0.017	-0.176
-285.559	-50.570	0.269	0.125
-284.545	800.000	-0.039	0.139
-283.530	-89.395	0.150	0.043
-282.516	-76.304	0.181	0.063
-281.501	40.066	0.140	-0.124
-280.486	206.131	0.092	0.141
-279.472	25.002	0.187	0.153
-278.457	109.465	0.180	0.212
-277.443	-82.352	-0.198	-0.063
-276.428	274.348	-0.170	0.296
-275.413	-129.773	0.291	0.039
-274.399	535.505	0.088	0.205
-273.384	141.339	0.196	0.256
-272.370	8.247	-0.110	0.081
-271.355	-4.632	0.114	-0.078
-270.340	-200.000	0.011	0.195
-269.326	512.393	-0.116	0.267
-268.311	137.930	0.012	0.015
-267.297	67.338	0.242	0.243
-266.282	800.000	0.081	-0.253
-265.267	92.516	0.218	-0.243
-264.253	468.775	0.074	0.163
-263.238	-53.592	0.080	0.036
-262.224	95.940	-0.184	-0.207
-261.209	-200.000	-0.032	0.257
-260.195	-82.171	-0.329	-0.106
-259.180	4.242	0.121	0.088
-258.165	-88.252	0.276	0.081
-257.151	-200.000	0.034	0.231
-256.136	-200.000	0.021	0.172
-255.122	20.047	-0.120	-0.095
-254.107	-166.973	0.243	0.010
-253.092	-97.436	0.207	-0.053
-252.078	-37.422	-0.350	0.184
-251.063	-200.000	-0.006	0.157
-250.049	174.367	0.062	-0.089
-249.034	58.745	-0.034	0.033
-248.019	108.799	-0.153	-0.180
-247.005	-61.835	-0.289	-0.119
-245.990	-200.000	0.004	0.257
-244.976	248.870	0.073	-0.122
-243.961	-51.965	0.250	0.115
-242.946	-20.071	0.124	-0.075
-241.932	196.420	-0.122	-0.182
-240.917	230.752	0.082	-0.132
-239.903	-8.150	0.131	-0.087
-238.888	-119.788	0.100	-0.017
-237.873	-120.267	0.266	0.045
-236.859	57.784	0.051	-0.049
-235.844	138.879	-0.138	0.178
-234.830	800.000	0.092	0.314
-233.815	69.378	-0.080	0.081
-232.800	-138.041	0.046	-0.005
-231.786	-118.842	0.338	-0.059
-230.771	-200.000	-0.012	-0.315
-229.757	25.069	0.047	0.038
-228.742	61.178	-0.323	-0.315
-227.727	91.383	-0.201	-0.222
-226.713	89.644	-0.130	-0.143
-225.698	641.280	-0.033	0.082
-224.684	-200.000	0.029	0.445
-223.669	-0.929	0.289	0.201
-222.655	76.739	-0.185	0.193
-221.640	151.263	-0.130	-0.174
-220.625	-200.000	-0.032	0.333
-219.611	-51.244	0.093	0.043
-218.596	352.172	-0.075	0.146
-217.582	23.550	-0.072	-0.058
-216.567	511.807	-0.179	-0.410
-215.552	800.000	-0.040	0.120
-214.538	-20.572	-0.294	-0.178
-213.523	-98.421	-0.314	-0.079
-212.509	369.897	0.013	0.026
-211.494	282.817	-0.053	-0.093
-210.479	294.691	-0.152	0.273
-209.465	-97.141	0.061	-0.016
-208.450	148.705	-0.038	-0.050
-207.436	96.321	0.059	-0.067
-206.421	-200.000	0.032	0.307
-205.406	-6.169	-0.033	-0.022
-204.392	-46.172	-0.280	0.136
-203.377	-85.650	-0.378	-0.116
-202.363	-101.005	-0.113	0.027
-201.348	-200.000	0.003	-0.116
-200.333	-129.890	0.251	-0.034
-199.319	800.000	-0.130	0.379
-198.304	-125.970	-0.202	-0.030
-197.290	245.654	-0.063	-0.105
-196.275	74.806	0.309	0.319
-195.260	-13.531	-0.046	0.029
-194.246	-83.259	0.213	0.067
-193.231	25.475	-0.064	-0.053
-192.217	800.000	-0.041	0.132
-191.202	56.627	-0.221	-0.211
-190.187	-200.000	-0.069	-0.323
-189.173	-91.757	-0.216	0.060
-188.158	378.844	-0.137	0.276
-187.144	-167.625	0.231	-0.009
-186.129	-160.722	-0.366	0.019
-185.114	800.000	-0.104	-0.346
-184.100	800.000	-0.036	-0.129
-183.085	800.000	0.083	-0.329
-182.071	14.519	0.299	-0.229
-181.056	-200.000	-0.003	0.523
-180.042	-200.000	0.033	0.154
-179.027	-112.106	0.171	0.034
-178.012	38.699	0.193	-0.169
-176.998	-200.000	0.023	0.211
-175.983	-22.252	0.023	-0.014
-174.969	-122.746	0.161	0.026
-173.954	-92.161	-0.358	-0.099
-172.939	-200.000	0.011	-0.253
-171.925	-104.892	0.083	-0.019
-170.910	-200.000	-0.072	0.337
-169.896	-59.876	0.277	0.116
-168.881	-0.177	-0.106	-0.074
-167.866	19.799	0.277	0.219
-166.852	-122.551	-0.134	-0.021
-165.837	306.803	-0.195	0.356
-164.823	-15.496	0.107	0.067
-163.808	76.122	0.219	-0.227
-162.793	-137.609	0.136	0.015
-161.779	800.000	-0.073	-0.198
-160.764	15.876	-0.158	0.122
-159.750	-200.000	0.020	0.088
-158.735	259.154	-0.107	0.181
-157.720	-166.256	0.400	0.017
-156.706	-152.916	-0.282	-0.020
-155.691	-144.649	-0.359	-0.033
-154.677	800.000	0.050	0.193
-153.662	-200.000	0.018	0.152
-152.647	426.868	0.093	0.196
-151.633	-200.000	0.060	0.268
-150.618	2.004	0.233	0.165
-149.604	-2.720	-0.238	-0.163
-148.589	800.000	0.149	-0.523
-147.574	135.577	0.109	-0.139
-146.560	-200.000	0.027	-0.138
-145.545	156.615	0.038	0.052
-144.531	52.888	0.197	-0.184
-143.516	774.992	-0.023	0.061
-142.502	-78.762	0.022	0.007
-141.487	28.256	-0.297	0.246
-140.472	800.000	-0.089	0.349
-139.458	-138.982	0.099	0.011
-138.443	83.674	0.117	-0.125
-137.429	800.000	0.120	0.368
-136.414	-116.264	0.264	-0.048
-135.399	-200.000	0.030	0.197
-134.385	-64.810	0.048	0.019
-133.370	-84.118	0.255	-0.079
-132.356	111.687	-0.018	0.021
-131.341	57.858	0.230	0.220
-130.326	-200.000	0.017	-0.245
-129.312	-200.000	-0.062	-0.367
-128.297	312.595	0.075	0.138
-127.283	-141.002	-0.248	-0.025
-126.268	800.000	0.034	0.127
-125.253	153.312	0.142	0.190
-124.239	16.146	0.262	0.202
-123.224	-112.530	-0.247	-0.048
-122.210	-59.070	0.218	0.092
-121.195	243.701	-0.128	0.210
-120.180	47.992	-0.051	0.047
-119.166	-135.984	-0.493	-0.057
-118.151	129.070	-0.110	0.138
-117.137	-61.901	0.152	0.062
-116.122	35.586	0.227	0.195
-115.107	11.477	-0.265	0.199
-114.093	87.133	0.161	-0.174
-113.078	-155.284	-0.214	-0.014
-112.064	166.697	-0.369	0.513
-111.049	-200.000	-0.011	-0.070
-110.034	-28.003	0.131	0.074
-109.020	216.530	-0.092	0.144
-108.005	-47.205	0.149	0.071
-106.991	-9.475	-0.260	0.170
-105.976	670.841	-0.084	-0.214
-104.962	-8.423	0.084	-0.056
-103.947	82.887	0.163	0.174
-102.932	-64.340	0.273	0.109
-101.918	-94.457	-0.358	-0.096
-100.903	-149.843	0.238	-0.018
-99.889	139.021	0.221	0.284
-98.874	177.049	0.156	0.222
-97.859	-200.000	0.070	0.396
-96.845	-84.899	0.214	-0.066
-95.830	53.565	0.231	0.217
-94.816	-180.193	0.229	0.005
-93.801	-200.000	0.031	0.210
-92.786	-124.227	-0.292	-0.045
-91.772	-101.644	0.306	-0.073
-90.757	-113.974	0.438	0.083
-89.743	-200.000	0.008	0.273
-88.728	116.147	0.130	0.156
-87.713	45.156	-0.187	-0.168
-86.699	39.945	0.255	0.224
-85.684	17.869	-0.154	-0.120
-84.670	47.161	-0.090	-0.082
-83.655	800.000	-0.041	-0.173
-82.640	-16.337	-0.200	-0.124
-81.626	476.659	0.084	-0.186
-80.611	-81.197	0.250	0.081
-79.597	-131.395	0.192	0.025
-78.582	800.000	0.104	-0.319
-77.567	-200.000	0.272	0.001
-76.553	387.587	0.069	-0.140
-75.538	-42.275	-0.087	-0.043
-74.524	31.030	0.265	-0.222
-73.509	-200.000	0.058	-0.340
-72.494	-183.618	0.346	-0.006
-71.480	-200.000	-0.018	-0.117
-70.465	800.000	-0.110	0.415
-69.451	800.000	0.124	0.429
-68.436	-63.686	-0.236	0.094
-67.422	-2.720	-0.155	-0.106
-66.407	80.979	-0.101	0.106
-65.392	-200.000	-0.003	-0.121
-64.378	800.000	-0.075	0.253
-63.363	-43.989	-0.281	-0.138
-62.349	-48.801	-0.024	-0.011
-61.334	59.652	-1.124	-1.084
-60.319	95.511	0.453	0.505
-59.305	587.263	-0.451	-1.084
-58.290	253.995	0.764	1.277
-57.276	305.040	0.907	1.646
-56.261	-200.000	116.569	660.009
-55.246	528.423	1533.770	3537.056
-54.232	177.386	2700.775	3844.810
-53.217	106.953	2172.279	2521.446
-52.203	37.509	1693.711	1468.315
-51.188	30.092	1511.635	1260.206
-50.173	27.845	1486.552	1224.198
-49.159	52.014	1546.414	1439.458
-48.144	50.137	1560.768	1439.943
-47.130	30.232	1516.446	1264.973
-46.115	27.231	1501.172	1231.885
-45.100	27.046	1497.630	1227.682
-44.086	26.970	1496.113	1225.873
-43.071	26.922	1494.618	1224.276
-42.057	26.903	1493.033	1222.804
-41.042	26.972	1491.470	1221.936
-40.027	26.911	1490.219	1220.452
-39.013	27.036	1487.827	1219.285
-37.998	26.929	1487.156	1217.970
-36.984	26.951	1485.738	1216.903
-35.969	26.958	1485.043	1216.339
-34.954	27.027	1482.869	1214.972
-33.940	26.926	1481.945	1213.491
-32.925	27.023	1479.895	1212.408
-31.911	27.069	1478.711	1211.697
-30.896	27.033	1477.880	1210.731
-29.881	26.973	1476.758	1209.360
-28.867	27.087	1475.242	1208.828
-27.852	27.033	1474.427	1207.754
-26.838	27.091	1472.723	1206.697
-25.823	27.061	1471.153	1205.166
-24.809	27.165	1469.125	1204.145
-23.794	27.078	1468.248	1202.805
-22.779	26.949	1467.210	1201.050
-21.765	27.026	1465.684	1200.261
-20.750	27.006	1464.729	1199.298
-19.736	27.022	1463.712	1198.522
-18.721	27.040	1462.856	1197.895
-17.706	27.069	1461.411	1196.855
-16.692	26.996	1460.504	1195.587
-15.677	27.096	1459.366	1195.265
-14.663	27.017	1458.803	1194.234
-13.648	26.985	1457.783	1193.145
-12.633	26.940	1456.785	1191.985
-11.619	27.004	1456.325	1191.981
-10.604	26.925	1455.490	1190.731
-9.590	26.867	1454.389	1189.403
-8.575	26.944	1453.609	1189.220
-7.560	27.013	1452.408	1188.643
-6.546	26.957	1451.984	1187.882
-5.531	26.941	1450.784	1186.751
-4.517	26.910	1450.180	1186.003
-3.502	26.940	1449.071	1185.251
-2.487	26.945	1447.857	1184.243
-1.473	26.936	1446.920	1183.369
-0.458	27.025	1445.129	1182.437
0.556	28.775	1435.300	1171.219
1.571	25.391	1411.070	1130.093
2.586	21.695	1351.715	1060.140
3.600	19.931	1269.439	985.490
4.615	18.783	1223.916	943.763
5.629	16.589	1168.040	889.076
6.644	10.128	1086.937	795.577
7.659	4.983	1050.038	744.000
8.673	4.322	1044.908	737.162
9.688	4.146	1041.174	733.630
10.702	3.802	1039.726	730.918
11.717	4.030	1037.661	730.475
12.731	6.358	1039.477	742.680
13.746	13.669	1049.331	784.360
14.761	20.226	1058.250	822.137
15.775	22.325	1060.760	833.977
16.790	22.181	1059.091	831.910
17.804	21.255	1056.980	825.803
18.819	20.438	1055.367	820.609
19.834	20.170	1053.863	818.104
20.848	19.971	1053.575	816.871
21.863	20.141	1053.017	817.164
22.877	20.079	1052.362	816.293
23.892	19.896	1050.748	814.109
24.907	19.722	1050.601	813.105
25.921	19.569	1050.135	811.953
26.936	19.731	1048.972	811.742
27.950	19.608	1047.666	810.081
28.965	19.523	1047.221	809.268
29.980	19.678	1046.227	809.155
30.994	19.859	1044.957	808.947
32.009	20.034	1044.349	809.224
33.023	20.060	1043.799	808.844
34.038	19.904	1042.835	807.298
35.053	19.873	1042.222	806.609
36.067	19.778	1040.592	804.835
37.082	19.697	1039.793	803.769
38.096	19.646	1039.386	803.144
39.111	19.878	1038.416	803.400
40.126	19.963	1037.573	803.073
41.140	19.818	1036.426	801.440
42.155	19.539	1034.886	798.891
43.169	19.241	1034.127	796.854
44.184	19.203	1032.354	795.246
45.199	19.020	1031.980	794.040
46.213	19.125	1030.763	793.520
47.228	19.294	1030.472	794.001
48.242	19.652	1029.345	794.709
49.257	19.816	1028.564	794.792
50.271	19.722	1027.719	793.635
51.286	19.736	1027.142	793.186
52.301	19.845	1026.618	793.210
53.315	19.792	1025.893	792.338
54.330	19.744	1024.631	791.070
55.344	19.481	1023.917	789.248
56.359	19.429	1022.736	788.028
57.374	19.352	1022.198	787.196
58.388	19.282	1021.321	786.132
59.403	19.285	1020.420	785.382
60.417	19.183	1019.364	784.033
61.432	19.120	1018.994	783.395
62.447	19.090	1018.250	782.618
63.461	19.085	1017.087	781.629
64.476	19.052	1016.309	780.814
65.490	18.923	1015.574	779.594
66.505	18.993	1014.663	779.142
67.520	18.969	1013.764	778.275
68.534	19.043	1013.411	778.268
69.549	18.982	1012.637	777.331
70.563	18.919	1011.760	776.307
71.578	18.849	1010.987	775.326
72.593	18.623	1010.263	773.686
73.607	18.651	1008.661	772.513
74.622	18.642	1007.758	771.717
75.636	18.660	1007.101	771.224
76.651	18.786	1006.396	771.182
77.666	18.922	1005.176	770.787
78.680	18.910	1004.697	770.298
79.695	18.811	1004.657	769.759
80.709	18.818	1003.855	769.107
81.724	19.031	1003.158	769.458
82.739	19.225	1002.479	769.736
83.753	19.342	1001.679	769.574
84.768	19.640	1001.116	770.401
85.782	19.838	1001.173	771.260
86.797	20.105	1000.647	771.979
87.812	20.233	999.537	771.624
88.826	19.933	998.603	769.499
89.841	19.805	997.644	768.123
90.855	20.022	996.810	768.376
91.870	19.994	996.589	768.016
92.884	20.149	995.493	767.786
93.899	20.165	994.508	767.032
94.914	19.926	993.842	765.395
95.928	20.040	993.709	765.729
96.943	20.166	992.294	765.124
97.957	19.923	991.654	763.491
98.972	19.786	991.234	762.497
99.987	19.868	990.483	762.215
101.001	19.894	989.512	761.512
102.016	19.923	988.900	761.101
103.030	19.863	987.826	759.946
104.045	19.807	986.924	758.938
105.060	19.884	986.160	758.620
106.074	19.836	984.903	757.377
107.089	19.583	983.469	755.101
108.103	19.245	982.666	752.940
109.118	19.273	981.335	751.978
110.133	19.097	981.019	750.901
111.147	18.901	980.202	749.352
112.162	18.951	978.902	748.509
113.176	18.988	977.998	747.917
114.191	19.169	977.362	748.149
115.206	19.284	976.769	748.127
116.220	19.164	976.378	747.243
117.235	19.186	975.202	746.372
118.249	19.158	974.203	745.418
119.264	19.070	973.626	744.532
120.279	19.038	972.628	743.565
121.293	18.928	971.881	742.451
122.308	18.865	970.853	741.329
123.322	18.915	969.928	740.774
124.337	18.752	968.824	739.161
125.352	18.691	967.731	737.998
126.366	18.762	966.314	737.158
127.381	18.682	965.597	736.203
128.395	18.750	964.690	735.740
129.410	18.879	963.706	735.474
130.424	18.818	962.814	734.468
131.439	18.870	962.229	734.180
132.454	19.078	961.827	734.695
133.468	19.288	960.732	734.690
134.483	19.052	960.650	733.558
135.497	19.141	959.829	733.242
136.512	19.226	958.918	732.842
137.527	19.258	958.754	732.792
138.541	19.154	957.737	731.508
139.556	19.218	956.800	730.998
140.570	19.172	956.411	730.439
141.585	19.382	955.404	730.496
142.600	19.704	954.912	731.420
143.614	19.909	953.973	731.500
144.629	19.811	954.055	731.086
145.643	19.923	953.182	730.826
146.658	19.844	952.667	730.030
147.673	19.712	951.348	728.399
148.687	19.547	949.826	726.477
149.702	19.378	949.062	725.118
150.716	19.307	948.127	724.042
151.731	19.312	947.236	723.316
152.746	19.428	946.144	722.906
153.760	19.503	945.504	722.664
154.775	19.378	945.328	721.945
155.789	19.450	944.664	721.674
156.804	19.475	943.744	721.012
157.819	19.546	942.944	720.636
158.833	19.689	942.431	720.777
159.848	19.834	941.961	720.955
160.862	20.064	941.146	721.225
161.877	19.966	940.107	719.957
162.892	19.578	939.243	717.622
163.906	19.307	938.095	715.555
164.921	19.116	937.384	714.156
165.935	19.176	936.473	713.648
166.950	19.240	935.515	713.119
167.964	19.427	934.829	713.307
168.979	19.584	933.186	712.638
169.994	19.448	932.096	711.182
171.008	19.284	931.233	709.786
172.023	19.369	930.950	709.856
173.037	19.677	930.370	710.619
174.052	19.865	929.780	710.878
175.067	19.739	929.042	709.733
176.081	19.413	928.136	707.644
177.096	19.194	926.572	705.491
178.110	19.086	926.247	704.736
179.125	19.375	925.131	705.005
180.140	19.305	924.694	704.325
181.154	19.442	923.884	704.204
182.169	19.554	923.619	704.401
183.183	19.833	923.092	705.072
184.198	19.833	922.838	704.814
185.213	19.734	921.768	703.533
186.227	19.762	921.375	703.283
187.242	19.760	921.032	702.951
188.256	19.990	920.217	703.202
189.271	19.938	919.925	702.705
190.286	20.278	919.069	703.367
191.300	19.927	917.766	700.889
192.315	19.287	916.799	697.500
193.329	19.045	915.503	695.471
194.344	19.204	914.978	695.656
195.359	19.256	914.670	695.570
196.373	19.503	914.103	696.072
197.388	19.568	914.286	696.411
198.402	19.799	913.677	696.819
199.417	20.145	913.323	697.880
200.432	20.257	912.929	697.968
201.446	20.250	912.848	697.816
202.461	20.378	912.403	697.928
203.475	20.569	911.917	698.260
204.490	20.457	910.972	697.028
205.504	20.170	909.849	694.954
206.519	19.892	908.980	693.116
207.534	19.798	908.392	692.232
208.548	19.944	906.794	691.534
209.563	19.920	906.774	691.361
210.577	19.902	906.268	690.844
211.592	19.946	905.525	690.393
212.607	20.088	905.337	690.755
213.621	20.378	904.702	691.365
214.636	20.231	904.248	690.370
215.650	20.117	903.842	689.547
216.665	20.194	902.754	688.961
217.680	20.264	902.266	688.806
218.694	20.345	902.309	689.099
219.709	20.486	901.672	689.108
220.723	20.438	900.869	688.245
221.738	20.354	900.130	687.286
222.753	20.216	899.416	686.137
223.767	20.168	898.262	685.006
224.782	20.387	897.456	685.193
225.796	20.442	897.152	685.119
226.811	20.585	896.735	685.303
227.826	20.397	895.984	683.926
228.840	20.168	895.252	682.409
229.855	20.230	894.538	682.044
230.869	20.166	893.822	681.189
231.884	20.212	893.174	680.815
232.899	19.969	892.711	679.450
233.913	20.097	891.690	679.114
234.928	19.918	890.784	677.663
235.942	19.749	890.510	676.733
236.957	19.732	889.564	675.888
237.972	19.742	888.686	675.198
238.986	19.812	888.043	674.923
240.001	19.790	887.324	674.231
241.015	19.862	886.911	674.138
242.030	19.941	886.175	673.826
243.045	20.075	885.642	673.885
244.059	20.133	885.060	673.607
245.074	20.270	884.390	673.570
246.088	20.200	884.031	672.965
247.103	20.305	884.105	673.368
248.117	20.516	883.431	673.613
249.132	20.680	882.816	673.720
250.147	20.908	882.694	674.449
251.161	21.086	882.421	674.869
252.176	21.363	881.680	675.315
253.190	21.218	881.249	674.364
254.205	21.293	880.545	674.056
255.220	21.370	880.127	673.974
256.234	21.407	879.268	673.398
257.249	21.264	878.598	672.276
258.263	21.301	877.891	671.818
259.278	21.127	877.707	670.948
260.293	21.132	877.432	670.696
261.307	21.244	876.332	670.226
262.322	21.396	876.149	670.610
263.336	21.540	875.275	670.432
264.351	21.565	874.589	669.944
265.366	21.333	874.007	668.552
266.380	21.389	873.613	668.405
267.395	21.372	872.905	667.739
268.409	21.429	871.880	667.115
269.424	21.174	871.109	665.494
270.439	21.189	870.986	665.397
271.453	21.175	869.938	664.484
272.468	21.051	869.113	663.324
273.482	20.949	868.644	662.522
274.497	21.047	867.701	662.116
275.512	21.019	867.535	661.822
276.526	20.812	866.790	660.409
277.541	20.978	866.067	660.433
278.555	20.952	865.733	660.018
279.570	21.240	865.463	660.843
280.585	21.609	864.845	661.709
281.599	21.508	864.105	660.704
282.614	21.238	863.597	659.237
283.628	21.325	862.126	658.384
284.643	21.062	862.106	657.318
285.657	21.093	861.607	656.999
286.672	21.076	861.410	656.726
287.687	21.077	860.767	656.182
288.701	21.211	860.062	656.087
289.716	21.095	859.447	655.126
290.730	21.144	858.797	654.758
291.745	21.075	858.375	654.119
292.760	21.259	857.668	654.212
293.774	21.295	856.963	653.751
294.789	21.506	856.897	654.430
295.803	21.609	855.954	654.035
296.818	21.215	855.419	652.098
297.833	20.966	854.748	650.600
298.847	21.179	853.514	650.396
299.862	21.319	853.287	650.690
300.876	21.237	852.712	649.886
301.891	21.304	852.218	649.701
302.906	21.489	851.826	650.033
303.920	21.818	850.852	650.455
304.935	21.858	850.719	650.442
305.949	22.018	850.208	650.587
306.964	21.870	849.750	649.631
307.979	21.641	848.527	647.792
308.993	21.582	848.031	647.138
310.008	21.659	847.648	647.074
311.022	21.767	847.357	647.193
312.037	21.822	846.714	646.846
313.052	21.703	846.044	645.841
314.066	21.380	845.386	644.091
315.081	21.180	844.482	642.607
316.095	21.094	844.166	641.995
317.110	21.182	843.602	641.831
318.125	21.235	843.046	641.549
319.139	21.137	842.489	640.709
320.154	21.056	841.900	639.906
321.168	21.055	841.585	639.606
322.183	21.224	840.889	639.637
323.197	21.268	840.241	639.252
324.212	21.483	839.700	639.567
325.227	21.231	839.690	638.581
326.241	21.435	838.809	638.600
327.256	21.328	837.914	637.472
328.270	21.195	837.815	636.856
329.285	21.379	836.731	636.646
330.300	21.292	836.519	636.112
331.314	21.118	835.848	634.913
332.329	21.159	835.229	634.533
333.343	21.458	834.630	635.108
334.358	21.647	834.582	635.704
335.373	21.715	834.033	635.474
336.387	21.588	833.670	634.684
337.402	21.669	833.080	634.471
338.416	21.965	832.482	635.029
339.431	21.917	832.263	634.633
340.446	22.128	831.795	634.984
341.460	22.233	831.225	634.869
342.475	22.345	830.451	634.628
343.489	22.398	830.446	634.757
344.504	22.364	830.036	634.266
345.519	22.438	829.572	634.121
346.533	22.658	828.711	634.198
347.548	22.442	828.324	633.070
348.562	22.288	827.240	631.631
349.577	22.049	826.594	630.227
350.592	21.878	825.773	628.930
351.606	21.727	825.611	628.211
352.621	21.709	825.107	627.706
353.635	21.715	824.466	627.184
354.650	21.839	823.903	627.146
355.665	21.940	823.628	627.240
356.679	21.852	823.685	626.914
357.694	21.903	823.111	626.602
358.708	21.921	822.495	626.145
359.723	22.079	821.767	626.098
360.738	22.003	821.185	625.330
361.752	22.024	820.580	624.887
362.767	21.943	820.396	624.403
363.781	22.258	819.993	625.162
364.796	22.298	819.965	625.228
365.810	22.602	819.501	625.897
366.825	22.849	819.135	626.439
367.840	22.756	818.686	625.710
368.854	22.798	818.234	625.458
369.869	22.484	817.665	623.856
370.883	22.380	817.288	623.143
371.898	22.391	816.425	622.472
372.913	22.553	815.838	622.540
373.927	22.773	815.314	622.861
374.942	22.655	814.446	621.728
375.956	22.540	813.861	620.823
376.971	22.618	813.233	620.562
377.986	22.723	813.533	621.105
379.000	22.868	812.711	620.932
380.015	22.970	811.910	620.625
381.029	22.842	811.475	619.788
382.044	22.717	811.381	619.223
383.059	22.902	810.190	618.905
384.073	22.814	810.188	618.542
385.088	22.735	809.283	617.521
386.102	22.569	808.623	616.381
387.117	22.338	807.920	614.983
388.132	22.352	807.355	614.549
389.146	22.315	806.724	613.885
390.161	22.404	806.743	614.156
391.175	22.576	806.475	614.497
392.190	22.753	806.133	614.798
393.205	22.683	805.729	614.193
394.219	22.548	804.955	613.078
395.234	22.584	803.780	612.255
396.248	22.362	803.400	611.140
397.263	22.262	803.216	610.597
398.278	22.175	802.718	609.863
399.292	22.157	801.826	609.071
400.307	22.198	801.746	609.095
401.321	22.131	801.205	608.400
402.336	22.053	800.975	607.901
403.350	22.155	800.584	607.904
404.365	22.437	800.113	608.467
405.380	22.503	799.903	608.483
406.394	22.954	799.470	609.653
407.409	22.939	799.266	609.394
408.423	22.921	798.907	609.004
409.438	23.145	798.255	609.224
410.453	23.131	798.072	608.983
411.467	23.176	797.836	608.904
412.482	23.276	797.051	608.594
413.496	23.307	796.526	608.244
414.511	23.398	796.804	608.718
415.526	23.388	795.998	608.013
416.540	23.279	795.673	607.338
417.555	23.204	794.977	606.495
418.569	23.158	794.427	605.866
419.584	23.118	794.134	605.449
420.599	23.188	793.649	605.268
421.613	165.265	1371.273	1799.187
422.628	143.401	1455.416	1799.285
