DTS Sentinel unit serial number:	SN413079Multiplexer serial number:	ORYXHardware model number:	OX4-SRSoftware version number:	ORYX F/W v4.00 Oryx Data Collector v3.7.2.0data status	okinstallation	princeton_trtdifferential loss correction	single-endedforward channel	channel 3reverse channel	N/Adate	2019/09/19time	04:40:34forward acquisition time	60.00reverse acquisition time	0.00gamma	496.2192k internal	0.2347k external	0.2347temperature offset calibration	0.9991default loss term (dB/km)	0.3790temperature slope calibration	1.0000multiplexer offset coefficient	1.0000multiplexer slope coefficient	1.0000fibre end	0.00T internal ref (°C)	20.00T ext. ref 1 (°C)	0.61T ext. ref 2 (°C)	12.93length (m)	temperature (°C)	Stokes	anti-Stokes-747.200	-137.277	0.296	-0.034
-746.185	-87.780	-0.284	0.085
-745.171	-157.281	0.210	0.013
-744.156	-200.000	0.066	0.292
-743.142	-105.930	0.236	-0.053
-742.127	-8.552	-0.326	-0.219
-741.112	-22.349	0.067	0.040
-740.098	800.000	-0.095	0.303
-739.083	-3.257	-0.287	0.200
-738.069	48.144	0.309	0.289
-737.054	6.348	-0.089	-0.066
-736.039	-46.463	-0.186	-0.091
-735.025	-56.779	0.178	0.079
-734.010	416.038	0.084	-0.179
-732.996	-54.847	-0.384	-0.173
-731.981	-62.894	-0.207	-0.085
-730.966	641.218	-0.152	-0.387
-729.952	298.880	0.128	-0.236
-728.937	-200.000	-0.012	0.185
-727.923	-85.160	-0.446	0.139
-726.908	-34.757	-0.217	-0.118
-725.894	366.340	-0.153	-0.308
-724.879	800.000	-0.049	0.172
-723.864	800.000	0.049	-0.173
-722.850	126.185	0.099	-0.125
-721.835	-139.613	-0.356	0.038
-720.821	-152.631	0.190	-0.014
-719.806	-167.041	0.497	-0.020
-718.791	56.334	-0.205	0.199
-717.777	-27.211	0.039	-0.023
-716.762	-22.535	0.076	0.046
-715.748	800.000	-0.036	0.106
-714.733	16.157	-0.333	-0.262
-713.718	-172.445	-0.152	0.005
-712.704	15.337	-0.213	-0.167
-711.689	155.781	-0.167	-0.229
-710.675	800.000	-0.053	0.228
-709.660	800.000	0.044	0.187
-708.645	800.000	0.043	-0.121
-707.631	-200.000	-0.027	-0.386
-706.616	152.214	0.131	-0.178
-705.602	800.000	-0.018	-0.074
-704.587	-55.909	0.104	0.046
-703.572	198.288	-0.086	-0.131
-702.558	-44.837	0.282	0.140
-701.543	-54.502	0.279	0.126
-700.529	-82.707	-0.028	0.009
-699.514	-200.000	0.014	-0.104
-698.499	125.424	0.293	-0.369
-697.485	-80.779	-0.241	0.080
-696.470	-168.977	0.078	0.003
-695.456	558.015	0.130	-0.313
-694.441	82.379	-0.162	0.175
-693.426	-200.000	-0.017	0.098
-692.412	236.498	-0.101	-0.167
-691.397	763.362	-0.102	0.275
-690.383	-83.718	-0.132	0.042
-689.368	346.763	0.106	-0.209
-688.354	-1.670	-0.061	0.043
-687.339	-55.929	0.298	0.133
-686.324	-63.909	0.130	-0.053
-685.310	-200.000	-0.024	-0.286
-684.295	-200.000	0.018	-0.224
-683.281	-52.703	-0.189	0.087
-682.266	-60.120	-0.204	0.087
-681.251	171.685	0.137	0.197
-680.237	28.337	-0.190	-0.160
-679.222	-133.458	-0.188	-0.024
-678.208	-88.327	-0.346	0.103
-677.193	-200.000	-0.013	0.095
-676.178	-200.000	-0.020	0.121
-675.164	-200.000	-0.024	-0.107
-674.149	-200.000	-0.041	-0.283
-673.135	-200.000	0.007	0.389
-672.120	-145.013	-0.110	-0.010
-671.105	12.992	0.100	0.077
-670.091	227.669	0.121	-0.196
-669.076	469.943	-0.045	0.101
-668.062	-200.000	-0.022	-0.163
-667.047	-138.600	-0.075	-0.008
-666.032	762.949	0.018	-0.049
-665.018	-200.000	-0.028	-0.147
-664.003	618.705	-0.110	-0.274
-662.989	236.669	-0.172	0.283
-661.974	-173.736	-0.142	-0.004
-660.959	263.414	-0.083	0.145
-659.945	-72.081	-0.165	0.061
-658.930	-169.036	-0.102	-0.004
-657.916	390.671	-0.078	-0.162
-656.901	-200.000	0.004	-0.162
-655.886	219.377	-0.129	0.205
-654.872	800.000	-0.094	-0.314
-653.857	639.287	0.108	-0.274
-652.843	35.267	0.105	-0.092
-651.828	-35.795	-0.257	-0.138
-650.814	-103.603	0.397	0.093
-649.799	-14.065	0.216	-0.139
-648.784	385.455	-0.112	-0.230
-647.770	101.688	0.265	0.308
-646.755	-105.374	0.271	0.061
-645.741	-200.000	0.067	0.360
-644.726	-52.255	0.322	0.148
-643.711	-200.000	-0.065	0.402
-642.697	71.564	0.267	-0.277
-641.682	800.000	0.085	0.360
-640.668	98.908	0.113	-0.129
-639.653	800.000	0.046	-0.180
-638.638	591.926	0.078	-0.192
-637.624	-200.000	-0.037	-0.454
-636.609	-71.517	0.269	0.100
-635.595	527.156	-0.184	0.432
-634.580	-84.622	-0.046	0.014
-633.565	-61.622	-0.280	-0.117
-632.551	95.680	-0.075	-0.085
-631.536	150.882	0.233	-0.316
-630.522	-146.836	0.357	-0.031
-629.507	195.095	-0.178	-0.270
-628.492	-31.980	-0.380	-0.212
-627.478	800.000	-0.037	-0.136
-626.463	-187.297	0.259	-0.003
-625.449	800.000	-0.037	-0.108
-624.434	-49.761	0.388	0.183
-623.419	-200.000	-0.021	-0.171
-622.405	126.400	0.173	0.217
-621.390	-22.368	0.104	-0.063
-620.376	-200.000	-0.006	0.074
-619.361	49.042	-0.280	-0.261
-618.346	55.847	0.215	-0.207
-617.332	-200.000	-0.049	-0.335
-616.317	-200.000	-0.029	-0.323
-615.303	-101.973	0.254	0.061
-614.288	-200.000	0.039	-0.263
-613.273	-15.139	-0.225	0.143
-612.259	-200.000	-0.020	-0.095
-611.244	357.104	0.225	0.446
-610.230	-67.618	0.245	0.095
-609.215	-127.630	-0.481	-0.069
-608.201	-35.693	0.325	-0.175
-607.186	-159.738	0.399	0.022
-606.171	-200.000	0.040	0.230
-605.157	157.502	-0.272	0.374
-604.142	800.000	-0.029	0.102
-603.128	39.625	-0.067	-0.060
-602.113	155.345	-0.150	-0.205
-601.098	358.249	-0.132	-0.262
-600.084	-200.000	0.011	0.105
-599.069	8.281	-0.064	0.048
-598.055	39.090	-0.208	0.185
-597.040	-46.175	-0.161	0.079
-596.025	800.000	0.070	0.195
-595.011	-64.280	-0.054	0.022
-593.996	103.008	-0.067	-0.079
-592.982	-93.894	0.130	0.036
-591.967	204.440	-0.118	0.182
-590.952	-73.952	0.356	-0.128
-589.938	800.000	-0.072	-0.263
-588.923	-131.526	-0.162	-0.021
-587.909	74.904	0.107	0.112
-586.894	2.949	-0.196	-0.141
-585.879	-200.000	-0.041	-0.229
-584.865	800.000	0.083	-0.348
-583.850	59.798	0.142	-0.139
-582.836	-200.000	0.023	-0.392
-581.821	164.455	-0.173	0.242
-580.806	-39.444	-0.052	-0.027
-579.792	-30.105	0.081	-0.046
-578.777	-114.235	-0.469	0.090
-577.763	-200.000	-0.029	0.240
-576.748	-173.292	-0.380	0.011
-575.733	-117.625	-0.352	0.063
-574.719	-200.000	0.013	0.076
-573.704	272.270	0.077	0.136
-572.690	495.784	0.096	0.219
-571.675	88.872	0.139	-0.154
-570.661	-6.551	-0.249	0.169
-569.646	-84.203	-0.285	0.090
-568.631	-4.686	0.381	-0.261
-567.617	-200.000	0.033	0.000
-566.602	-200.000	0.087	0.508
-565.588	-57.956	0.222	0.096
-564.573	-25.076	0.147	0.087
-563.558	-29.979	-0.094	0.053
-562.544	-200.000	0.021	0.157
-561.529	-4.659	-0.313	0.214
-560.515	-74.588	0.308	0.110
-559.500	-104.294	0.150	-0.034
-558.485	5.750	0.278	-0.204
-557.471	237.137	0.136	0.224
-556.456	-44.483	-0.237	-0.118
-555.442	215.678	0.110	-0.173
-554.427	-10.329	0.186	-0.122
-553.412	800.000	0.021	-0.087
-552.398	-27.820	-0.318	-0.183
-551.383	-186.708	0.239	-0.003
-550.369	405.677	-0.060	0.126
-549.354	-48.113	0.082	0.039
-548.339	476.660	-0.072	-0.162
-547.325	149.258	-0.076	0.102
-546.310	273.743	0.151	0.265
-545.296	-200.000	-0.022	0.168
-544.281	-149.512	0.190	-0.015
-543.266	10.891	0.316	0.239
-542.252	14.160	-0.109	-0.084
-541.237	-141.499	-0.311	-0.031
-540.223	-89.798	0.141	-0.041
-539.208	-18.031	-0.211	-0.131
-538.193	-150.658	-0.091	-0.007
-537.179	-200.000	0.017	-0.118
-536.164	-116.216	-0.516	-0.095
-535.150	-159.251	0.246	0.014
-534.135	-2.718	-0.162	-0.112
-533.121	154.439	-0.209	-0.285
-532.106	-17.252	0.092	-0.058
-531.091	800.000	0.111	0.327
-530.077	-33.126	0.115	0.063
-529.062	-5.433	-0.096	-0.065
-528.048	142.260	-0.083	0.110
-527.033	75.592	-0.183	-0.192
-526.018	-200.000	-0.014	0.099
-525.004	-124.951	0.127	-0.019
-523.989	287.017	0.152	-0.272
-522.975	59.672	0.084	0.082
-521.960	-200.000	-0.026	0.219
-520.945	-49.255	-0.255	-0.121
-519.931	-96.473	-0.375	0.098
-518.916	-200.000	-0.051	-0.360
-517.902	-129.009	-0.475	-0.066
-516.887	800.000	-0.100	-0.286
-515.872	-62.613	0.277	0.114
-514.858	800.000	-0.082	0.319
-513.843	-200.000	-0.038	-0.196
-512.829	508.771	0.052	-0.120
-511.814	150.569	0.080	-0.107
-510.799	-7.508	-0.081	0.054
-509.785	232.530	-0.153	0.249
-508.770	79.814	0.173	-0.184
-507.756	-128.919	0.281	-0.039
-506.741	-7.820	-0.272	-0.182
-505.726	204.746	-0.089	0.137
-504.712	164.344	0.043	0.060
-503.697	-50.312	-0.305	0.143
-502.683	-145.922	0.276	-0.024
-501.668	-145.566	0.166	0.015
-500.653	-68.474	-0.235	0.090
-499.639	229.588	-0.232	0.376
-498.624	234.544	-0.205	0.334
-497.610	-147.227	0.270	-0.023
-496.595	-1.287	0.353	-0.247
-495.581	78.968	-0.181	-0.192
-494.566	-200.000	-0.026	-0.398
-493.551	800.000	-0.126	0.441
-492.537	-200.000	-0.049	-0.252
-491.522	309.883	-0.068	0.127
-490.508	800.000	-0.103	-0.284
-489.493	13.543	0.202	-0.155
-488.478	0.593	-0.172	0.122
-487.464	-108.262	0.352	0.075
-486.449	-75.556	-0.140	-0.049
-485.435	-200.000	-0.013	-0.356
-484.420	-97.279	-0.324	0.084
-483.405	800.000	-0.003	-0.008
-482.391	33.697	0.251	-0.216
-481.376	-200.000	-0.028	0.194
-480.362	49.871	-0.091	-0.085
-479.347	-25.795	0.222	-0.129
-478.332	-75.174	0.266	-0.094
-477.318	-73.382	0.219	-0.079
-476.303	-200.000	0.016	0.119
-475.289	-200.000	0.008	-0.052
-474.274	-200.000	0.018	0.191
-473.259	-30.246	0.008	-0.004
-472.245	-40.035	0.208	0.107
-471.230	124.138	0.182	0.226
-470.216	-91.107	0.083	0.024
-469.201	-85.318	0.248	0.076
-468.186	-50.211	0.132	-0.062
-467.172	-93.784	-0.287	-0.078
-466.157	-92.321	-0.087	-0.024
-465.143	800.000	-0.082	0.295
-464.128	-101.051	-0.252	-0.061
-463.113	-125.858	0.185	-0.028
-462.099	800.000	0.033	0.114
-461.084	800.000	0.056	0.184
-460.070	800.000	-0.114	-0.457
-459.055	-129.881	0.271	-0.037
-458.040	-200.000	-0.038	-0.238
-457.026	-200.000	0.013	0.396
-456.011	192.270	-0.105	-0.157
-454.997	-64.775	0.378	0.151
-453.982	-200.000	0.041	0.315
-452.968	-22.312	-0.167	-0.100
-451.953	150.229	-0.064	0.086
-450.938	-200.000	-0.002	-0.095
-449.924	-4.750	-0.175	0.119
-448.909	-86.103	-0.505	0.154
-447.895	-200.000	-0.042	0.197
-446.880	-147.700	0.114	0.009
-445.865	48.191	-0.122	-0.113
-444.851	-116.818	0.197	0.036
-443.836	-90.381	0.230	-0.066
-442.822	714.307	-0.098	-0.256
-441.807	276.491	-0.125	0.220
-440.792	-57.687	0.345	0.149
-439.778	18.780	-0.070	0.056
-438.763	-200.000	0.013	-0.074
-437.749	800.000	-0.066	0.202
-436.734	460.553	-0.126	-0.278
-435.719	288.318	-0.016	0.028
-434.705	-86.700	-0.073	-0.022
-433.690	-148.312	0.151	-0.012
-432.676	-14.861	-0.267	-0.169
-431.661	-159.811	-0.296	0.016
-430.646	-16.430	-0.202	-0.126
-429.632	-125.439	-0.075	0.011
-428.617	281.996	0.119	0.211
-427.603	800.000	0.088	-0.300
-426.588	160.620	-0.056	-0.077
-425.573	174.094	0.034	-0.048
-424.559	-200.000	-0.062	-0.359
-423.544	-104.865	-0.362	-0.082
-422.530	-22.362	-0.162	-0.097
-421.515	147.441	0.106	-0.140
-420.500	800.000	-0.031	0.101
-419.486	-46.594	-0.201	-0.097
-418.471	751.293	-0.074	-0.197
-417.457	-144.903	-0.114	-0.010
-416.442	150.788	-0.194	-0.260
-415.428	183.547	0.067	0.098
-414.413	746.221	-0.057	-0.152
-413.398	800.000	0.021	-0.090
-412.384	-54.801	-0.300	0.134
-411.369	-200.000	-0.005	0.054
-410.355	6.386	-0.267	-0.195
-409.340	28.907	-0.182	0.152
-408.325	115.373	0.171	-0.206
-407.311	-200.000	-0.001	0.135
-406.296	-71.551	-0.127	-0.047
-405.282	-200.000	-0.007	0.197
-404.267	-200.000	0.011	0.170
-403.252	503.692	0.128	0.292
-402.238	38.118	0.081	0.071
-401.223	-152.513	0.360	0.025
-400.209	18.798	0.164	-0.130
-399.194	-46.608	-0.138	0.067
-398.179	-2.972	-0.189	-0.130
-397.165	-30.309	-0.053	-0.030
-396.150	654.828	0.033	0.084
-395.136	46.807	-0.130	-0.119
-394.121	8.753	0.140	0.104
-393.106	800.000	-0.048	0.165
-392.092	-90.645	0.361	-0.103
-391.077	195.751	-0.214	0.321
-390.063	4.181	0.199	0.144
-389.048	0.510	-0.141	0.099
-388.033	-60.345	0.405	-0.170
-387.019	255.614	0.010	-0.018
-386.004	-200.000	0.005	-0.163
-384.990	800.000	-0.026	0.111
-383.975	19.650	-0.386	0.306
-382.960	-95.455	0.374	-0.099
-381.946	-146.367	0.221	-0.019
-380.931	112.635	-0.194	-0.232
-379.917	-89.688	0.192	0.055
-378.902	51.167	0.149	-0.140
-377.888	16.973	-0.137	0.107
-376.873	800.000	0.076	0.281
-375.858	-26.485	-0.067	-0.039
-374.844	405.737	-0.066	0.137
-373.829	93.652	-0.061	-0.068
-372.815	-200.000	0.015	-0.077
-371.800	125.161	0.273	-0.339
-370.785	94.944	0.173	0.194
-369.771	-97.885	-0.208	0.053
-368.756	1.913	-0.017	-0.012
-367.742	430.529	-0.048	0.102
-366.727	366.762	0.055	0.109
-365.712	-29.981	0.234	0.131
-364.698	81.504	-0.211	-0.225
-363.683	-64.637	0.386	-0.154
-362.669	396.105	-0.101	-0.207
-361.654	24.623	-0.191	-0.156
-360.639	630.017	0.084	-0.209
-359.625	38.529	-0.113	-0.099
-358.610	77.059	-0.318	-0.333
-357.596	503.688	-0.030	-0.067
-356.581	146.084	0.023	0.031
-355.566	-28.360	-0.180	-0.102
-354.552	800.000	0.087	0.330
-353.537	800.000	0.071	0.195
-352.523	21.357	0.252	-0.201
-351.508	106.096	-0.161	0.188
-350.493	166.935	0.131	0.182
-349.479	-200.000	0.009	-0.128
-348.464	434.366	-0.051	0.109
-347.450	-55.195	0.213	0.094
-346.435	335.479	0.153	0.291
-345.420	-66.566	0.115	0.045
-344.406	-200.000	0.076	0.364
-343.391	-200.000	0.001	-0.239
-342.377	800.000	0.061	-0.229
-341.362	-4.406	-0.496	0.337
-340.348	-10.909	-0.156	0.101
-339.333	40.348	-0.069	0.061
-338.318	-75.859	0.030	-0.011
-337.304	-34.309	-0.113	0.061
-336.289	-73.750	0.299	0.107
-335.275	-173.824	-0.216	0.006
-334.260	269.274	-0.186	0.321
-333.245	800.000	0.081	0.251
-332.231	46.519	-0.150	0.137
-331.216	-116.464	-0.205	-0.037
-330.202	196.062	0.029	0.044
-329.187	800.000	0.133	-0.544
-328.172	800.000	-0.046	0.143
-327.158	-11.979	-0.375	-0.242
-326.143	800.000	0.063	-0.198
-325.129	-179.142	-0.247	0.005
-324.114	-91.897	-0.115	-0.032
-323.099	-69.350	-0.279	0.105
-322.085	65.257	0.292	0.290
-321.070	159.728	0.064	0.087
-320.056	20.003	-0.093	-0.074
-319.041	-200.000	-0.029	0.152
-318.026	-111.006	-0.153	0.031
-317.012	800.000	-0.055	-0.182
-315.997	-200.000	-0.034	0.242
-314.983	42.182	0.191	0.170
-313.968	-48.042	-0.336	-0.160
-312.953	-200.000	-0.033	0.359
-311.939	-54.944	-0.180	-0.080
-310.924	36.193	0.311	0.270
-309.910	35.916	-0.246	0.212
-308.895	57.055	-0.198	0.190
-307.880	-200.000	0.070	0.365
-306.866	59.936	0.090	0.087
-305.851	56.479	0.035	0.034
-304.837	-118.725	-0.338	0.059
-303.822	-150.667	0.290	0.022
-302.807	-168.776	-0.242	-0.009
-301.793	136.072	0.184	-0.236
-300.778	800.000	0.041	-0.155
-299.764	444.186	0.050	0.108
-298.749	-55.598	0.198	-0.087
-297.735	-200.000	0.026	-0.178
-296.720	-138.738	-0.089	0.010
-295.705	-200.000	-0.039	-0.224
-294.691	-200.000	0.097	-0.438
-293.676	-31.285	-0.221	0.122
-292.662	-200.000	0.008	0.223
-291.647	-181.058	0.419	-0.008
-290.632	93.182	-0.169	-0.188
-289.618	172.855	-0.090	-0.128
-288.603	800.000	-0.060	0.245
-287.589	-82.946	-0.227	0.072
-286.574	452.032	0.116	-0.251
-285.559	-200.000	-0.074	-0.388
-284.545	-200.000	0.018	-0.285
-283.530	-148.886	-0.298	-0.024
-282.516	-100.765	0.327	0.079
-281.501	640.523	-0.018	0.046
-280.486	-26.699	-0.314	-0.180
-279.472	-141.201	0.620	-0.062
-278.457	-122.600	-0.124	0.020
-277.443	800.000	0.067	0.212
-276.428	-200.000	-0.021	0.210
-275.413	229.456	-0.021	-0.033
-274.399	-127.006	0.102	0.015
-273.384	-26.425	-0.156	0.090
-272.370	-105.760	0.378	-0.084
-271.355	800.000	0.064	0.269
-270.340	800.000	-0.115	0.375
-269.326	-96.458	0.377	-0.098
-268.311	766.823	0.098	-0.262
-267.297	107.419	0.190	0.222
-266.282	800.000	0.068	-0.196
-265.267	-74.095	0.216	-0.077
-264.253	-156.104	-0.171	-0.011
-263.238	63.774	0.220	0.217
-262.224	33.924	0.116	-0.099
-261.209	-200.000	-0.035	0.162
-260.195	-19.643	0.276	-0.167
-259.180	-200.000	-0.032	0.266
-258.165	-130.263	0.242	0.032
-257.151	-200.000	-0.014	-0.179
-256.136	148.829	0.104	0.138
-255.122	800.000	0.071	-0.295
-254.107	-40.632	-0.171	0.087
-253.092	21.400	-0.118	-0.094
-252.078	158.322	0.066	0.090
-251.063	441.949	0.097	-0.207
-250.049	444.610	0.137	0.294
-249.034	-51.439	-0.423	-0.194
-248.019	-181.184	0.156	-0.003
-247.005	-125.354	-0.327	-0.049
-245.990	-4.726	0.266	-0.180
-244.976	-33.466	-0.297	-0.161
-243.961	545.625	-0.098	-0.228
-242.946	800.000	0.011	-0.036
-241.932	-54.571	-0.056	-0.025
-240.917	266.768	0.093	-0.159
-239.903	-200.000	0.002	0.258
-238.888	774.916	0.126	0.336
-237.873	-39.540	0.255	-0.131
-236.859	183.658	0.143	-0.207
-235.844	381.596	0.007	-0.014
-234.830	786.917	-0.049	-0.132
-233.815	94.282	-0.157	-0.175
-232.800	800.000	-0.063	0.175
-231.786	89.974	-0.105	-0.115
-230.771	800.000	0.063	-0.188
-229.757	-200.000	0.088	0.473
-228.742	-180.899	-0.371	-0.007
-227.727	354.273	0.136	0.264
-226.713	45.569	0.147	0.133
-225.698	-67.272	0.060	-0.023
-224.684	-200.000	-0.005	-0.045
-223.669	800.000	0.073	0.295
-222.655	-200.000	0.016	0.111
-221.640	58.122	0.117	0.112
-220.625	12.542	0.461	0.348
-219.611	-90.566	-0.181	-0.051
-218.596	376.077	0.119	-0.239
-217.582	-102.894	-0.123	0.029
-216.567	103.092	-0.155	-0.177
-215.552	224.459	0.066	0.105
-214.538	800.000	-0.045	0.156
-213.523	-200.000	-0.004	-0.269
-212.509	24.089	-0.150	0.121
-211.494	-57.606	0.136	0.059
-210.479	490.562	0.126	-0.282
-209.465	-72.519	-0.138	-0.050
-208.450	106.344	-0.111	0.129
-207.436	-200.000	-0.029	0.130
-206.421	69.068	-0.192	0.193
-205.406	36.826	0.097	0.084
-204.392	4.789	-0.295	0.212
-203.377	-80.626	0.233	0.076
-202.363	574.907	-0.174	-0.415
-201.348	800.000	-0.053	-0.195
-200.333	113.785	-0.171	-0.204
-199.319	-200.000	0.022	-0.144
-198.304	42.497	0.221	-0.196
-197.290	35.721	0.063	0.055
-196.275	-4.801	-0.280	0.189
-195.260	-200.000	0.075	-0.460
-194.246	-200.000	0.055	-0.238
-193.231	-34.196	-0.335	0.180
-192.217	-200.000	0.002	0.084
-191.202	-65.926	-0.187	0.073
-190.187	-200.000	-0.031	0.272
-189.173	800.000	-0.106	0.434
-188.158	450.922	-0.136	-0.293
-187.144	130.659	0.109	-0.137
-186.129	-200.000	0.044	0.208
-185.114	230.089	0.242	0.386
-184.100	-200.000	-0.012	-0.149
-183.085	-117.657	0.159	-0.028
-182.071	-109.250	0.480	-0.100
-181.056	-200.000	-0.003	-0.072
-180.042	746.547	0.057	0.150
-179.027	800.000	0.035	-0.107
-178.012	-200.000	-0.011	-0.199
-176.998	-29.735	0.236	0.131
-175.983	-200.000	0.040	0.190
-174.969	-101.134	-0.241	-0.058
-173.954	-133.036	-0.119	-0.015
-172.939	-26.036	-0.189	0.109
-171.925	-119.482	0.342	0.058
-170.910	640.305	-0.075	0.187
-169.896	-91.997	0.084	-0.023
-168.881	-200.000	-0.038	-0.240
-167.866	-91.582	0.317	-0.088
-166.852	242.783	0.183	0.299
-165.837	347.835	0.121	0.233
-164.823	-25.119	0.167	0.096
-163.808	-107.781	-0.254	-0.054
-162.793	-130.471	0.109	-0.014
-161.779	11.116	-0.204	0.152
-160.764	-200.000	0.014	-0.275
-159.750	-200.000	-0.040	-0.190
-158.735	-38.834	-0.255	-0.131
-157.720	135.676	-0.142	0.181
-156.706	-182.503	0.194	-0.003
-155.691	-119.646	-0.294	-0.050
-154.677	86.147	0.122	-0.131
-153.662	-14.810	0.217	-0.136
-152.647	161.095	0.305	-0.416
-151.633	-89.280	-0.217	0.063
-150.618	-62.103	0.209	-0.085
-149.604	800.000	0.016	0.051
-148.589	-200.000	-0.009	0.082
-147.574	-105.447	-0.127	0.028
-146.560	2.442	-0.231	-0.163
-145.545	-200.000	0.041	-0.177
-144.531	28.945	0.396	-0.328
-143.516	2.463	-0.082	-0.058
-142.502	-200.000	-0.007	-0.115
-141.487	78.320	0.274	0.286
-140.472	28.634	0.115	-0.095
-139.458	5.747	0.140	0.101
-138.443	7.238	0.146	0.107
-137.429	52.029	0.080	-0.074
-136.414	412.968	0.047	0.097
-135.399	1.047	0.347	0.243
-134.385	175.765	0.104	0.147
-133.370	46.674	0.194	0.176
-132.356	-60.333	0.063	0.026
-131.341	-41.598	-0.101	-0.050
-130.326	-13.808	0.286	-0.181
-129.312	202.132	-0.093	-0.140
-128.297	616.793	-0.045	0.111
-127.283	-200.000	-0.016	-0.340
-126.268	800.000	0.062	-0.178
-125.253	45.647	0.178	-0.161
-124.239	70.768	0.135	-0.137
-123.224	196.514	0.161	-0.240
-122.210	-139.936	-0.366	0.038
-121.195	39.234	0.078	0.068
-120.180	-107.296	0.285	0.061
-119.166	-200.000	0.007	-0.060
-118.151	-106.004	0.181	-0.040
-117.137	-79.163	-0.136	-0.045
-116.122	-200.000	-0.023	0.154
-115.107	-27.678	0.129	-0.073
-114.093	338.098	0.112	-0.212
-113.078	158.202	-0.114	0.155
-112.064	-139.333	-0.209	-0.022
-111.049	15.104	0.103	-0.079
-110.034	800.000	-0.077	-0.227
-109.020	275.165	-0.096	-0.165
-108.005	-60.347	-0.340	0.141
-106.991	-99.455	0.252	-0.062
-105.976	-137.348	-0.104	-0.011
-104.962	-200.000	-0.001	0.108
-103.947	-200.000	-0.007	-0.096
-102.932	78.959	-0.128	-0.134
-101.918	-75.144	0.393	0.137
-100.903	53.967	-0.107	0.100
-99.889	114.265	0.080	0.095
-98.874	56.317	0.189	0.179
-97.859	155.930	0.098	0.131
-96.845	-86.860	-0.035	-0.010
-95.830	365.640	0.120	-0.235
-94.816	140.943	-0.118	-0.152
-93.801	35.926	-0.159	-0.136
-92.786	-62.866	-0.146	0.059
-91.772	-123.075	-0.053	-0.008
-90.757	379.239	-0.162	0.324
-89.743	800.000	0.147	-0.402
-88.728	-200.000	0.027	0.261
-87.713	-170.865	-0.331	-0.011
-86.699	23.209	-0.074	-0.060
-85.684	47.115	0.125	0.113
-84.670	-66.867	0.152	-0.059
-83.655	-119.866	0.221	-0.037
-82.640	-136.035	-0.357	-0.041
-81.626	276.265	0.105	0.181
-80.611	41.298	-0.151	0.133
-79.597	442.979	0.010	0.020
-78.582	-36.469	0.347	0.182
-77.567	-200.000	-0.064	0.415
-76.553	-200.000	-0.036	0.444
-75.538	-98.257	-0.318	0.080
-74.524	59.276	-0.182	0.174
-73.509	-93.209	-0.216	-0.058
-72.494	800.000	-0.040	0.112
-71.480	530.240	-0.124	-0.286
-70.465	85.597	-0.103	0.111
-69.451	147.735	-0.039	-0.051
-68.436	-200.000	0.029	0.272
-67.422	800.000	0.054	-0.178
-66.407	97.887	-0.048	0.054
-65.392	35.688	-0.180	-0.154
-64.378	107.694	-0.120	-0.139
-63.363	-94.198	0.207	0.055
-62.349	-200.000	-0.035	-0.161
-61.334	106.872	-1.115	-1.289
-60.319	71.299	0.840	0.848
-59.305	800.000	-0.506	-1.579
-58.290	322.612	0.875	1.621
-57.276	315.272	0.878	1.611
-56.261	-200.000	136.741	638.132
-55.246	337.682	1658.194	3137.241
-54.232	135.921	2790.396	3536.311
-53.217	83.054	2187.077	2314.955
-52.203	29.650	1705.369	1411.813
-51.188	22.699	1531.125	1219.638
-50.173	21.324	1510.230	1193.556
-49.159	44.436	1587.962	1418.674
-48.144	40.716	1596.584	1400.146
-47.130	22.934	1545.404	1232.452
-46.115	20.191	1529.954	1201.110
-45.100	20.052	1526.345	1197.269
-44.086	20.057	1524.406	1195.737
-43.071	19.999	1522.561	1193.840
-42.057	19.982	1521.194	1192.610
-41.042	20.064	1519.449	1191.755
-40.027	20.079	1517.931	1190.621
-39.013	20.009	1516.211	1188.741
-37.998	19.855	1515.453	1187.043
-36.984	19.902	1514.416	1186.511
-35.969	20.027	1512.793	1186.044
-34.954	20.042	1511.067	1184.745
-33.940	19.943	1510.214	1183.356
-32.925	19.954	1509.202	1182.591
-31.911	20.060	1507.070	1181.594
-30.896	20.001	1505.894	1180.222
-29.881	19.995	1505.319	1179.684
-28.867	20.044	1503.083	1178.222
-27.852	20.086	1502.213	1177.776
-26.838	19.968	1500.833	1175.846
-25.823	20.031	1499.069	1174.845
-24.809	19.985	1497.648	1173.375
-23.794	20.022	1496.388	1172.590
-22.779	20.026	1495.096	1171.560
-21.765	20.122	1493.979	1171.283
-20.750	20.089	1493.110	1170.334
-19.736	20.047	1492.048	1169.175
-18.721	20.084	1490.701	1168.321
-17.706	20.080	1489.776	1167.521
-16.692	20.012	1488.628	1166.121
-15.677	20.012	1487.798	1165.425
-14.663	20.072	1486.210	1164.538
-13.648	19.960	1485.918	1163.510
-12.633	20.000	1484.569	1162.677
-11.619	20.013	1483.952	1162.231
-10.604	19.902	1483.480	1161.069
-9.590	19.928	1482.556	1160.476
-8.575	20.018	1481.479	1160.192
-7.560	20.003	1480.045	1158.919
-6.546	20.006	1479.587	1158.535
-5.531	19.932	1478.534	1157.170
-4.517	19.927	1477.206	1156.055
-3.502	20.000	1476.121	1155.647
-2.487	19.910	1475.818	1154.762
-1.473	19.987	1474.424	1154.137
-0.458	20.112	1472.515	1153.428
0.556	18.968	1462.939	1141.128
1.571	15.381	1438.811	1098.757
2.586	11.745	1376.418	1028.200
3.600	10.157	1290.950	954.901
4.615	9.253	1247.295	917.372
5.629	8.308	1191.398	871.027
6.644	4.357	1112.275	792.953
7.659	1.058	1079.043	752.823
8.673	0.657	1073.626	746.992
9.688	0.608	1070.047	744.196
10.702	0.552	1068.623	742.866
11.717	0.633	1066.173	741.496
12.731	1.830	1065.977	747.164
13.746	6.868	1072.279	776.314
14.761	13.168	1081.450	814.016
15.775	16.853	1085.368	835.082
16.790	16.894	1084.739	834.727
17.804	15.907	1082.526	828.094
18.819	15.128	1080.470	822.628
19.834	14.638	1079.064	819.076
20.848	14.398	1078.310	817.254
21.863	14.285	1077.519	816.029
22.877	13.921	1077.119	813.872
23.892	13.842	1075.573	812.246
24.907	13.651	1075.082	810.867
25.921	13.651	1074.439	810.310
26.936	13.732	1073.955	810.270
27.950	13.839	1072.977	809.981
28.965	13.746	1072.220	808.884
29.980	13.712	1071.507	808.110
30.994	13.805	1070.403	807.658
32.009	13.780	1069.682	806.922
33.023	13.857	1068.762	806.530
34.038	13.940	1067.547	805.945
35.053	13.850	1067.197	805.175
36.067	13.848	1066.574	804.622
37.082	13.721	1065.783	803.339
38.096	13.827	1064.571	802.868
39.111	13.946	1063.627	802.659
40.126	13.944	1062.912	802.039
41.140	13.868	1061.278	800.371
42.155	13.741	1060.961	799.449
43.169	13.641	1060.347	798.433
44.184	13.739	1058.914	797.756
45.199	13.720	1057.849	796.792
46.213	13.657	1057.066	795.830
47.228	13.746	1055.930	795.328
48.242	13.743	1054.765	794.365
49.257	13.794	1053.673	793.720
50.271	13.819	1052.547	792.921
51.286	13.896	1051.526	792.445
52.301	13.847	1051.181	791.885
53.315	13.844	1050.375	791.193
54.330	13.895	1049.615	790.791
55.344	13.781	1048.968	789.690
56.359	13.760	1047.478	788.400
57.374	13.723	1046.733	787.595
58.388	13.909	1045.797	787.703
59.403	13.719	1045.153	786.248
60.417	13.782	1044.191	785.751
61.432	13.825	1043.496	785.361
62.447	13.683	1043.021	784.265
63.461	13.662	1041.958	783.299
64.476	13.680	1041.026	782.614
65.490	13.628	1040.287	781.741
66.505	13.708	1039.241	781.265
67.520	13.893	1038.137	781.235
68.534	13.757	1037.956	780.388
69.549	13.681	1037.496	779.618
70.563	13.797	1036.630	779.443
71.578	13.705	1035.841	778.347
72.593	13.714	1035.113	777.777
73.607	13.627	1034.187	776.601
74.622	13.695	1033.246	776.147
75.636	13.662	1032.191	775.130
76.651	13.627	1031.531	774.405
77.666	13.611	1030.626	773.581
78.680	13.579	1029.969	772.869
79.695	13.626	1029.407	772.596
80.709	13.681	1028.590	772.171
81.724	13.708	1027.932	771.734
82.739	13.710	1027.008	770.982
83.753	13.640	1026.554	770.247
84.768	13.799	1025.677	770.261
85.782	13.894	1024.620	769.838
86.797	13.968	1023.385	769.185
87.812	13.878	1022.542	768.069
88.826	13.878	1021.539	767.246
89.841	13.736	1021.309	766.348
90.855	13.771	1020.438	765.791
91.870	13.892	1019.991	765.944
92.884	13.897	1019.080	765.219
93.899	13.923	1018.093	764.526
94.914	13.879	1017.558	763.854
95.928	14.012	1016.882	763.892
96.943	14.044	1016.037	763.338
97.957	13.918	1015.421	762.230
98.972	13.901	1014.533	761.415
99.987	13.927	1013.623	760.785
101.001	13.993	1012.781	760.390
102.016	13.951	1012.133	759.640
103.030	13.811	1011.386	758.376
104.045	13.904	1010.765	758.267
105.060	14.000	1009.203	757.464
106.074	13.902	1008.464	756.397
107.089	13.781	1007.610	755.139
108.103	13.878	1006.671	754.812
109.118	13.874	1005.570	753.900
110.133	13.685	1005.113	752.631
111.147	13.941	1003.732	752.692
112.162	13.810	1003.356	751.747
113.176	13.788	1002.150	750.681
114.191	13.799	1001.437	750.130
115.206	13.848	1000.610	749.665
116.220	13.804	999.632	748.669
117.235	13.893	998.720	748.320
118.249	13.885	997.733	747.479
119.264	13.879	997.214	746.997
120.279	13.880	996.394	746.319
121.293	13.904	995.296	745.538
122.308	13.797	994.402	744.321
123.322	13.819	993.731	743.854
124.337	13.758	992.713	742.753
125.352	13.703	991.657	741.650
126.366	13.638	990.627	740.524
127.381	13.704	989.629	740.005
128.395	13.772	988.469	739.377
129.410	13.885	987.612	739.172
130.424	13.748	986.611	737.752
131.439	13.855	985.327	737.202
132.454	13.760	984.907	736.398
133.468	13.897	983.746	736.074
134.483	13.955	983.752	736.268
135.497	13.795	982.941	734.888
136.512	13.880	981.984	734.486
137.527	13.807	981.415	733.671
138.541	13.883	980.202	733.036
139.556	13.763	979.990	732.281
140.570	13.916	979.025	732.171
141.585	14.066	977.449	731.585
142.600	13.936	977.882	731.276
143.614	13.978	976.640	730.465
144.629	14.041	975.894	730.121
145.643	14.023	975.339	729.563
146.658	14.018	974.511	728.854
147.673	13.917	973.410	727.527
148.687	13.980	972.454	727.022
149.702	14.009	971.638	726.472
150.716	13.900	970.884	725.371
151.731	14.078	969.445	725.007
152.746	14.026	969.250	724.569
153.760	14.070	968.490	724.131
154.775	14.034	967.395	723.092
155.789	14.040	966.747	722.568
156.804	14.198	965.863	722.532
157.819	14.122	965.311	721.725
158.833	14.032	964.785	720.876
159.848	14.056	964.129	720.423
160.862	14.241	963.156	720.435
161.877	14.064	962.314	718.977
162.892	14.063	961.632	718.399
163.906	14.001	961.014	717.607
164.921	14.116	959.620	716.996
165.935	14.142	958.820	716.449
166.950	14.156	957.781	715.667
167.964	14.224	956.444	714.897
168.979	14.163	955.886	714.157
169.994	14.049	955.167	713.067
171.008	14.156	954.380	712.875
172.023	14.200	953.411	712.276
173.037	14.194	952.848	711.768
174.052	14.208	951.985	711.119
175.067	14.347	951.452	711.253
176.081	14.309	951.052	710.730
177.096	14.234	949.821	709.424
178.110	14.216	949.356	708.937
179.125	14.199	948.586	708.227
180.140	14.311	947.271	707.660
181.154	14.137	946.856	706.550
182.169	14.184	946.670	706.547
183.183	14.304	945.535	706.147
184.198	14.299	944.900	705.587
185.213	14.451	944.041	705.528
186.227	14.370	942.969	704.323
187.242	14.437	942.473	704.170
188.256	14.527	941.793	703.982
189.271	14.442	941.170	703.095
190.286	14.398	940.413	702.283
191.300	14.418	939.500	701.622
192.315	14.478	938.724	701.234
193.329	14.344	938.076	700.125
194.344	14.223	937.922	699.438
195.359	14.354	936.875	699.147
196.373	14.356	936.761	699.007
197.388	14.450	935.900	698.698
198.402	14.539	935.356	698.600
199.417	14.460	935.201	698.091
200.432	14.566	934.366	697.851
201.446	14.545	933.844	697.310
202.461	14.715	933.442	697.660
203.475	14.721	933.064	697.341
204.490	14.730	932.352	696.785
205.504	14.662	931.313	695.663
206.519	14.488	930.737	694.447
207.534	14.593	930.125	694.366
208.548	14.707	928.981	693.925
209.563	14.695	928.355	693.345
210.577	14.691	927.599	692.704
211.592	14.766	927.029	692.525
212.607	14.698	926.497	691.787
213.621	14.805	926.094	691.867
214.636	14.717	925.307	690.854
215.650	14.768	924.476	690.383
216.665	14.894	924.024	690.506
217.680	14.807	923.473	689.673
218.694	14.954	922.783	689.703
219.709	14.950	922.099	689.114
220.723	14.926	921.625	688.601
221.738	14.899	920.836	687.841
222.753	14.888	920.050	687.145
223.767	15.062	919.243	687.198
224.782	14.979	918.505	686.241
225.796	14.925	918.008	685.589
226.811	15.029	917.417	685.514
227.826	14.997	916.928	684.956
228.840	14.990	916.090	684.242
229.855	15.076	915.006	683.721
230.869	15.013	914.808	683.255
231.884	14.824	914.190	681.965
232.899	14.855	913.213	681.303
233.913	14.914	912.486	680.939
234.928	14.968	911.796	680.583
235.942	15.095	911.108	680.524
236.957	14.994	910.263	679.426
237.972	14.978	909.422	678.672
238.986	14.996	909.066	678.418
240.001	15.020	908.221	677.824
241.015	14.999	907.704	677.294
242.030	15.117	906.950	677.148
243.045	14.997	906.281	676.105
244.059	15.015	905.757	675.725
245.074	15.183	905.522	676.169
246.088	15.149	904.598	675.283
247.103	15.169	903.912	674.794
248.117	15.187	903.296	674.345
249.132	15.215	902.643	673.909
250.147	15.161	902.341	673.408
251.161	15.280	901.590	673.267
252.176	15.442	900.398	672.966
253.190	15.401	899.811	672.304
254.205	15.478	899.290	672.164
255.220	15.440	899.040	671.765
256.234	15.541	897.948	671.291
257.249	15.507	897.594	670.833
258.263	15.537	896.917	670.388
259.278	15.518	896.393	669.860
260.293	15.684	895.489	669.788
261.307	15.592	895.279	669.202
262.322	15.708	894.152	668.766
263.336	15.788	893.586	668.601
264.351	15.649	893.518	667.938
265.366	15.730	892.516	667.449
266.380	15.604	891.985	666.494
267.395	15.659	891.063	665.965
268.409	15.808	890.231	665.875
269.424	15.613	890.351	665.132
270.439	15.708	889.327	664.683
271.453	15.703	888.087	663.678
272.468	15.841	887.492	663.721
273.482	15.535	887.247	662.271
274.497	15.578	886.646	661.933
275.512	15.764	885.575	661.809
276.526	15.679	885.022	661.001
277.541	15.789	884.035	660.636
278.555	15.719	884.038	660.308
279.570	15.770	883.283	659.885
280.585	15.857	882.550	659.620
281.599	15.929	881.645	659.167
282.614	15.848	881.228	658.477
283.628	15.904	880.673	658.225
284.643	15.889	880.179	657.737
285.657	15.937	879.426	657.305
286.672	16.017	878.833	657.115
287.687	15.953	878.500	656.561
288.701	15.935	878.027	656.079
289.716	15.963	877.374	655.641
290.730	16.119	876.586	655.599
291.745	15.924	875.962	654.319
292.760	16.157	875.137	654.548
293.774	16.059	874.731	653.805
294.789	16.168	874.209	653.782
295.803	16.035	873.452	652.642
296.818	15.972	873.088	652.068
297.833	16.084	872.060	651.677
298.847	16.173	871.302	651.398
299.862	16.086	870.941	650.732
300.876	16.187	869.967	650.338
301.891	16.200	869.064	649.654
302.906	16.261	868.560	649.454
303.920	16.287	867.642	648.811
304.935	16.201	867.131	648.042
305.949	16.255	867.016	648.105
306.964	16.366	866.272	647.916
307.979	16.369	865.240	647.099
308.993	16.421	864.825	646.931
310.008	16.315	864.593	646.295
311.022	16.605	863.925	646.845
312.037	16.300	863.529	645.327
313.052	16.451	862.967	645.427
314.066	16.412	862.506	644.876
315.081	16.465	861.752	644.459
316.095	16.439	860.738	643.543
317.110	16.278	860.724	642.862
318.125	16.303	860.029	642.381
319.139	16.390	859.501	642.261
320.154	16.367	859.436	642.068
321.168	16.363	858.442	641.253
322.183	16.577	857.563	641.353
323.197	16.534	857.062	640.758
324.212	16.498	856.653	640.260
325.227	16.630	855.973	640.193
326.241	16.612	855.548	639.749
327.256	16.502	855.051	638.907
328.270	16.450	854.711	638.399
329.285	16.565	853.915	638.184
330.300	16.604	853.239	637.769
331.314	16.593	852.593	637.188
332.329	16.426	852.319	636.299
333.343	16.526	851.626	636.100
334.358	16.689	850.884	636.104
335.373	16.553	850.516	635.258
336.387	16.649	849.785	635.017
337.402	16.742	849.544	635.128
338.416	16.655	848.700	634.117
339.431	16.726	848.034	633.829
340.446	16.739	847.749	633.609
341.460	16.784	846.990	633.152
342.475	16.947	846.467	633.315
343.489	16.916	846.198	632.945
344.504	16.878	845.323	632.091
345.519	16.959	844.871	631.996
346.533	17.022	844.317	631.764
347.548	16.921	843.668	630.844
348.562	16.920	843.404	630.588
349.577	17.087	842.464	630.450
350.592	16.838	842.264	629.320
351.606	16.929	842.007	629.409
352.621	16.935	841.069	628.676
353.635	16.849	840.952	628.212
354.650	16.905	840.441	627.984
355.665	16.901	840.256	627.774
356.679	16.973	839.605	627.498
357.694	17.119	839.215	627.690
358.708	16.939	838.423	626.379
359.723	17.036	837.816	626.230
360.738	17.070	837.094	625.758
361.752	17.123	836.796	625.676
362.767	17.098	836.203	625.084
363.781	17.130	836.196	625.144
364.796	17.181	835.556	624.795
365.810	17.198	835.234	624.564
366.825	17.096	834.813	623.819
367.840	17.240	834.393	623.979
368.854	17.250	833.983	623.651
369.869	17.184	833.334	622.868
370.883	17.226	832.582	622.405
371.898	17.226	832.157	622.035
372.913	17.334	831.288	621.724
373.927	17.302	830.928	621.282
374.942	17.440	830.430	621.359
375.956	17.393	829.555	620.477
376.971	17.418	829.133	620.200
377.986	17.431	828.579	619.775
379.000	17.377	828.342	619.347
380.015	17.402	827.671	618.885
381.029	17.540	827.190	618.970
382.044	17.478	826.630	618.272
383.059	17.518	826.135	617.993
384.073	17.515	825.156	617.192
385.088	17.723	824.341	617.283
386.102	17.534	824.135	616.390
387.117	17.483	823.905	615.979
388.132	17.497	823.431	615.619
389.146	17.554	822.882	615.360
390.161	17.658	822.732	615.570
391.175	17.588	822.077	614.771
392.190	17.807	821.415	615.012
393.205	17.637	821.434	614.360
394.219	17.536	821.247	613.802
395.234	17.528	820.477	613.143
396.248	17.422	820.332	612.599
397.263	17.436	819.716	612.136
398.278	17.695	818.548	612.139
399.292	17.603	818.377	611.627
400.307	17.626	818.177	611.507
401.321	17.607	817.793	611.095
402.336	17.704	817.285	611.009
403.350	17.658	817.001	610.580
404.365	17.764	816.316	610.391
405.380	17.798	816.016	610.234
406.394	17.704	815.718	609.624
407.409	17.974	814.374	609.527
408.423	17.885	814.404	609.181
409.438	17.702	814.051	608.210
410.453	18.053	813.589	609.059
411.467	17.837	813.094	607.868
412.482	17.810	812.937	607.599
413.496	18.031	811.639	607.362
414.511	18.034	811.609	607.297
415.526	18.117	811.503	607.456
416.540	18.106	811.124	607.079
417.555	17.987	810.771	606.341
418.569	18.059	809.946	605.925
419.584	18.064	809.530	605.579
420.599	17.824	809.402	604.578
421.613	115.705	1300.566	1492.146
422.628	100.088	1372.093	1492.230
