DTS Sentinel unit serial number:	SN413079Multiplexer serial number:	ORYXHardware model number:	OX4-SRSoftware version number:	ORYX F/W v4.00 Oryx Data Collector v3.7.2.0data status	okinstallation	princeton_trtdifferential loss correction	single-endedforward channel	channel 3reverse channel	N/Adate	2019/09/16time	10:28:35forward acquisition time	60.00reverse acquisition time	0.00gamma	496.2192k internal	0.2306k external	0.2306temperature offset calibration	0.9947default loss term (dB/km)	0.3790temperature slope calibration	1.0000multiplexer offset coefficient	1.0000multiplexer slope coefficient	1.0000fibre end	0.00T internal ref (°C)	35.17T ext. ref 1 (°C)	12.56T ext. ref 2 (°C)	33.59length (m)	temperature (°C)	Stokes	anti-Stokes-747.200	-200.000	-0.001	0.039
-746.185	103.934	0.129	-0.155
-745.171	800.000	0.053	0.154
-744.156	-82.573	-0.077	0.025
-743.142	-187.835	-0.184	-0.002
-742.127	-200.000	0.119	0.544
-741.112	-10.017	0.111	0.075
-740.098	450.557	-0.154	0.345
-739.083	109.826	0.227	0.277
-738.069	-106.486	0.344	0.078
-737.054	800.000	-0.065	-0.191
-736.039	-147.921	-0.408	0.035
-735.025	-40.295	0.303	0.161
-734.010	-200.000	0.002	-0.141
-732.996	-23.128	-0.206	-0.126
-731.981	-74.404	0.216	0.079
-730.966	393.317	0.070	-0.147
-729.952	-200.000	-0.024	0.114
-728.937	-34.534	0.107	-0.060
-727.923	-187.237	-0.524	0.007
-726.908	411.207	-0.089	-0.192
-725.894	-103.718	-0.425	-0.101
-724.879	-25.926	0.162	0.097
-723.864	-200.000	-0.038	-0.221
-722.850	-200.000	0.038	0.189
-721.835	-77.164	-0.341	-0.121
-720.821	-100.337	-0.283	0.071
-719.806	-55.016	-0.311	0.142
-718.791	-155.097	-0.146	-0.010
-717.777	107.555	-0.138	-0.167
-716.762	-58.055	-0.126	-0.056
-715.748	-200.000	0.008	-0.087
-714.733	800.000	-0.066	-0.189
-713.718	-38.875	-0.298	0.160
-712.704	111.992	0.101	0.124
-711.689	182.486	-0.088	0.132
-710.675	312.828	0.069	0.132
-709.660	21.116	0.160	0.132
-708.645	-200.000	-0.031	0.186
-707.631	110.591	-0.141	-0.172
-706.616	394.936	-0.103	-0.219
-705.602	-40.516	0.077	0.040
-704.587	756.085	-0.055	-0.151
-703.572	326.629	0.159	0.310
-702.558	-5.929	0.228	0.158
-701.543	-165.193	0.232	-0.010
-700.529	-200.000	-0.035	0.238
-699.514	-25.719	-0.104	0.062
-698.499	-125.131	-0.363	-0.057
-697.485	-116.012	-0.299	0.057
-696.470	14.213	0.410	0.324
-695.456	146.290	-0.130	-0.177
-694.441	-200.000	-0.028	-0.187
-693.426	-17.137	0.203	0.130
-692.412	-23.281	-0.216	0.132
-691.397	173.414	-0.126	-0.184
-690.383	-9.698	0.234	-0.158
-689.368	248.412	-0.199	-0.342
-688.354	-200.000	0.042	-0.207
-687.339	-200.000	0.054	-0.349
-686.324	32.074	0.201	0.176
-685.310	800.000	-0.093	-0.268
-684.295	-78.294	-0.187	0.065
-683.281	29.699	0.219	-0.189
-682.266	-4.054	0.077	-0.054
-681.251	-4.472	0.169	-0.119
-680.237	-135.462	-0.361	-0.044
-679.222	-105.442	-0.219	-0.051
-678.208	800.000	-0.031	-0.101
-677.193	543.083	-0.115	-0.280
-676.178	-200.000	0.034	-0.352
-675.164	-42.793	-0.054	-0.028
-674.149	-24.437	-0.091	-0.055
-673.135	137.030	-0.067	0.089
-672.120	800.000	0.076	-0.237
-671.105	-191.879	-0.207	0.002
-670.091	635.834	0.050	0.130
-669.076	490.134	0.139	-0.323
-668.062	324.079	-0.123	0.239
-667.047	-170.793	0.161	0.006
-666.032	-200.000	-0.002	-0.073
-665.018	800.000	-0.090	0.280
-664.003	510.850	0.039	-0.091
-662.989	128.562	0.166	-0.214
-661.974	-14.443	-0.388	0.254
-660.959	92.876	-0.145	0.166
-659.945	-5.136	0.219	-0.153
-658.930	-95.310	-0.164	-0.045
-657.916	480.601	-0.154	-0.354
-656.901	-78.456	0.082	-0.029
-655.886	256.488	0.122	-0.213
-654.872	800.000	-0.039	-0.153
-653.857	-41.512	-0.161	-0.084
-652.843	-126.533	-0.225	0.034
-651.828	-200.000	0.013	0.441
-650.814	307.802	-0.100	0.190
-649.799	-112.403	-0.112	0.023
-648.784	34.644	0.301	-0.266
-647.770	-200.000	0.002	0.082
-646.755	-21.500	0.082	-0.050
-645.741	800.000	-0.012	0.040
-644.726	253.395	-0.173	-0.299
-643.711	32.143	-0.280	-0.245
-642.697	-200.000	-0.061	0.318
-641.682	515.549	-0.107	0.253
-640.668	-200.000	0.056	-0.477
-639.653	-200.000	-0.029	-0.205
-638.638	5.888	-0.293	-0.220
-637.624	-86.556	-0.267	0.083
-636.609	-81.777	-0.048	-0.016
-635.595	-23.524	0.148	-0.090
-634.580	800.000	-0.088	0.268
-633.565	-200.000	-0.069	0.448
-632.551	43.651	0.239	0.221
-631.536	297.542	-0.148	0.275
-630.522	18.670	-0.163	0.132
-629.507	800.000	0.143	0.462
-628.492	164.647	0.154	-0.220
-627.478	800.000	-0.114	0.415
-626.463	-98.685	-0.368	0.095
-625.449	280.982	-0.123	-0.223
-624.434	397.631	-0.020	-0.042
-623.419	-200.000	-0.017	0.228
-622.405	-200.000	0.073	-0.379
-621.390	175.800	0.115	-0.169
-620.376	-134.762	0.200	0.025
-619.361	145.951	0.152	0.207
-618.346	235.924	0.044	-0.073
-617.332	-22.343	-0.282	0.173
-616.317	202.830	-0.085	-0.132
-615.303	-94.250	-0.304	0.084
-614.288	98.986	-0.257	0.301
-613.273	-85.502	-0.149	0.047
-612.259	104.760	-0.216	-0.258
-611.244	264.313	0.036	0.063
-610.230	60.841	-0.154	0.155
-609.215	13.534	0.192	0.151
-608.201	-24.184	-0.073	0.044
-607.186	-200.000	0.003	-0.037
-606.171	-89.478	-0.158	0.047
-605.157	28.555	-0.128	0.109
-604.142	63.799	0.243	0.247
-603.128	4.115	0.168	-0.124
-602.113	800.000	-0.043	0.177
-601.098	109.263	-0.182	0.221
-600.084	-102.525	-0.118	0.028
-599.069	-73.230	0.155	-0.058
-598.055	229.038	0.081	-0.133
-597.040	800.000	-0.038	0.123
-596.025	-134.154	0.068	-0.008
-595.011	172.873	-0.090	0.132
-593.996	28.592	0.196	-0.168
-592.982	-20.489	-0.055	-0.034
-591.967	-200.000	-0.048	-0.229
-590.952	-83.579	0.322	0.104
-589.938	-78.339	-0.119	-0.041
-588.923	800.000	-0.054	-0.209
-587.909	-97.633	0.159	-0.042
-586.894	-39.772	0.166	-0.088
-585.879	800.000	0.020	-0.068
-584.865	-68.512	0.215	-0.084
-583.850	800.000	-0.045	0.139
-582.836	-124.543	-0.504	-0.079
-581.821	800.000	-0.139	-0.401
-580.806	-200.000	-0.033	-0.358
-579.792	-81.805	0.134	-0.044
-578.777	800.000	0.061	-0.227
-577.763	-31.662	-0.278	0.158
-576.748	208.403	-0.218	-0.344
-575.733	-54.117	0.060	-0.028
-574.719	800.000	-0.081	0.249
-573.704	800.000	0.021	-0.062
-572.690	-200.000	-0.020	-0.232
-571.675	-122.609	0.357	-0.059
-570.661	232.763	0.116	-0.193
-569.646	183.149	-0.210	-0.314
-568.631	-200.000	0.003	0.021
-567.617	153.929	-0.166	0.230
-566.602	603.291	-0.015	-0.037
-565.588	-32.109	0.072	-0.041
-564.573	-164.936	-0.228	0.010
-563.558	-61.943	-0.179	0.076
-562.544	-37.037	0.049	0.026
-561.529	166.395	-0.220	0.315
-560.515	-2.599	-0.065	-0.046
-559.500	-200.000	-0.063	0.000
-558.485	800.000	-0.038	0.157
-557.471	-133.955	0.234	0.029
-556.456	353.223	-0.117	-0.234
-555.442	-3.566	-0.188	0.132
-554.427	-89.360	-0.089	0.026
-553.412	-49.707	-0.208	-0.100
-552.398	-112.106	0.281	-0.057
-551.383	410.741	-0.100	-0.214
-550.369	-109.646	-0.099	0.021
-549.354	-36.156	0.235	-0.128
-548.339	-84.091	-0.189	0.061
-547.325	245.534	-0.112	-0.190
-546.310	-200.000	0.087	-0.387
-545.296	-200.000	-0.040	-0.248
-544.281	740.862	0.145	-0.394
-543.266	90.283	0.002	0.002
-542.252	800.000	0.119	-0.494
-541.237	-77.143	0.084	-0.030
-540.223	-200.000	0.069	0.351
-539.208	-200.000	-0.093	0.511
-538.193	47.375	0.230	-0.217
-537.179	-200.000	-0.039	0.195
-536.164	359.849	0.112	-0.227
-535.150	-19.050	-0.074	0.047
-534.135	800.000	-0.028	-0.105
-533.121	162.552	-0.097	-0.137
-532.106	479.655	-0.124	-0.283
-531.091	800.000	-0.090	-0.266
-530.077	-72.322	0.066	-0.025
-529.062	-133.524	0.151	0.019
-528.048	175.745	0.120	0.176
-527.033	-63.941	0.080	-0.033
-526.018	-59.085	0.252	-0.110
-525.004	123.820	0.085	-0.107
-523.989	800.000	-0.057	0.210
-522.975	406.747	0.070	0.149
-521.960	-200.000	0.090	0.000
-520.945	-61.103	-0.145	0.062
-519.931	204.716	0.090	-0.140
-518.916	107.159	0.149	-0.178
-517.902	-9.981	-0.130	0.087
-516.887	-162.586	0.126	-0.006
-515.872	-118.747	-0.126	0.022
-514.858	148.073	-0.114	0.155
-513.843	-13.496	0.039	-0.026
-512.829	800.000	-0.112	0.337
-511.814	293.808	0.153	-0.281
-510.799	800.000	0.035	-0.103
-509.785	505.714	-0.101	-0.235
-508.770	196.454	-0.171	-0.262
-507.756	-200.000	0.016	-0.312
-506.741	-42.474	0.103	0.053
-505.726	-78.599	0.146	-0.050
-504.712	-200.000	-0.025	0.173
-503.697	800.000	0.096	0.299
-502.683	-138.300	0.108	0.012
-501.668	-146.320	-0.085	-0.007
-500.653	89.646	0.041	0.046
-499.639	-67.825	-0.397	-0.156
-498.624	-200.000	0.003	-0.344
-497.610	383.531	-0.105	0.217
-496.595	-32.507	0.109	0.061
-495.581	15.226	0.198	0.157
-494.566	50.637	-0.048	0.046
-493.551	256.840	0.101	0.175
-492.537	-200.000	0.022	0.148
-491.522	-104.223	-0.033	0.008
-490.508	22.501	0.032	-0.026
-489.493	800.000	-0.040	0.129
-488.478	229.824	0.071	0.116
-487.464	-200.000	0.009	-0.059
-486.449	181.454	-0.069	-0.102
-485.435	-38.727	0.163	0.086
-484.420	-33.676	-0.036	0.020
-483.405	-71.066	0.253	-0.096
-482.391	178.850	-0.165	-0.244
-481.376	-39.488	-0.272	0.144
-480.362	-58.115	0.174	0.076
-479.347	-169.276	-0.242	0.009
-478.332	-200.000	0.024	-0.192
-477.318	-89.883	0.272	-0.080
-476.303	182.158	0.186	0.277
-475.289	178.752	0.044	-0.064
-474.274	420.751	-0.174	0.376
-473.259	-160.204	-0.135	-0.007
-472.245	-51.472	0.247	-0.116
-471.230	-136.975	0.232	-0.027
-470.216	-200.000	0.031	0.165
-469.201	122.548	0.096	0.120
-468.186	-70.502	0.211	0.081
-467.172	-95.120	-0.122	0.033
-466.157	800.000	0.046	0.163
-465.143	187.333	-0.045	0.067
-464.128	-200.000	-0.041	0.234
-463.113	376.263	-0.108	0.223
-462.099	-56.449	-0.241	-0.108
-461.084	-200.000	-0.047	0.230
-460.070	-200.000	-0.079	0.392
-459.055	-9.963	0.251	-0.168
-458.040	-133.458	-0.145	0.018
-457.026	242.514	-0.105	-0.176
-456.011	-62.921	0.395	-0.164
-454.997	-2.774	0.106	-0.074
-453.982	-110.146	0.166	0.035
-452.968	-108.670	-0.196	-0.042
-451.953	582.810	-0.070	-0.172
-450.938	-145.759	-0.155	-0.014
-449.924	-6.599	0.081	0.055
-448.909	-124.714	-0.549	0.086
-447.895	273.816	0.148	0.264
-446.880	800.000	0.024	-0.073
-445.865	800.000	0.041	0.133
-444.851	418.303	-0.037	-0.079
-443.836	-200.000	0.005	0.061
-442.822	800.000	0.103	-0.338
-441.807	-82.970	-0.148	-0.048
-440.792	290.148	-0.095	-0.174
-439.778	-120.540	-0.140	0.024
-438.763	370.126	0.055	0.111
-437.749	268.850	0.124	-0.218
-436.734	52.713	-0.218	-0.209
-435.719	181.810	-0.197	-0.292
-434.705	-200.000	-0.001	-0.298
-433.690	6.236	-0.152	-0.113
-432.676	14.083	0.109	0.085
-431.661	18.844	0.129	0.104
-430.646	-94.042	0.190	-0.052
-429.632	-60.081	0.159	0.068
-428.617	-102.488	-0.258	0.062
-427.603	775.636	0.031	0.086
-426.588	-175.958	0.331	-0.009
-425.573	216.045	0.073	0.116
-424.559	-73.981	0.234	0.085
-423.544	230.182	-0.073	-0.120
-422.530	-138.982	0.137	-0.015
-421.515	800.000	0.050	-0.150
-420.500	-89.856	-0.109	-0.032
-419.486	-200.000	-0.022	0.226
-418.471	-185.652	0.142	0.002
-417.457	79.738	-0.016	-0.017
-416.442	-75.437	-0.298	0.107
-415.428	-200.000	-0.032	-0.255
-414.413	-153.370	0.199	-0.014
-413.398	32.644	-0.146	0.127
-412.384	-2.828	0.158	0.111
-411.369	-65.871	0.404	0.162
-410.355	800.000	-0.158	0.450
-409.340	-121.434	0.260	-0.044
-408.325	59.769	-0.162	-0.160
-407.311	-183.325	-0.125	0.002
-406.296	800.000	-0.160	-0.503
-405.282	3.002	0.185	-0.135
-404.267	-0.409	-0.129	0.092
-403.252	120.725	-0.153	0.191
-402.238	-200.000	0.023	0.499
-401.223	-74.339	0.393	-0.143
-400.209	-200.000	-0.005	0.081
-399.194	0.183	-0.068	-0.049
-398.179	-126.505	0.337	-0.050
-397.165	-200.000	0.035	0.372
-396.150	134.865	-0.086	-0.112
-395.136	-168.998	0.361	-0.014
-394.121	-200.000	-0.003	0.199
-393.106	-139.037	-0.090	-0.010
-392.092	1.546	-0.240	-0.173
-391.077	-64.108	0.310	-0.127
-390.063	-1.328	0.274	-0.194
-389.048	16.147	0.087	-0.069
-388.033	88.644	-0.103	-0.115
-387.019	-6.618	0.328	-0.224
-386.004	-53.991	-0.065	-0.030
-384.990	-110.229	0.394	-0.082
-383.975	-97.740	-0.195	-0.051
-382.960	543.040	-0.138	-0.329
-381.946	121.545	-0.067	-0.083
-380.931	-142.713	-0.226	0.022
-379.917	474.849	-0.085	-0.193
-378.902	-8.611	-0.071	0.048
-377.888	-109.894	-0.199	-0.042
-376.873	-200.000	0.034	0.280
-375.858	-14.943	-0.218	0.140
-374.844	-200.000	0.086	-0.421
-373.829	800.000	0.044	-0.180
-372.815	-188.234	0.165	-0.002
-371.800	360.975	0.171	0.344
-370.785	-29.534	-0.107	0.062
-369.771	8.327	-0.167	-0.126
-368.756	339.415	-0.165	0.323
-367.742	444.195	0.121	0.266
-366.727	363.870	-0.155	-0.312
-365.712	-200.000	0.023	0.301
-364.698	31.228	0.282	0.243
-363.683	175.247	0.144	0.208
-362.669	-18.230	0.091	0.057
-361.654	225.693	-0.179	-0.291
-360.639	648.475	-0.170	-0.435
-359.625	800.000	0.062	-0.265
-358.610	166.491	0.140	-0.200
-357.596	-62.993	0.108	0.045
-356.581	800.000	-0.065	-0.270
-355.566	178.966	0.053	0.078
-354.552	3.388	0.173	0.126
-353.537	-36.123	0.124	0.067
-352.523	-106.087	-0.186	0.042
-351.508	-48.865	-0.072	-0.035
-350.493	-49.380	-0.217	-0.104
-349.479	-68.785	-0.323	-0.125
-348.464	-99.616	0.061	-0.015
-347.450	-102.798	-0.382	-0.091
-346.435	11.161	0.216	0.166
-345.420	-200.000	-0.003	0.208
-344.406	-119.059	0.145	0.025
-343.391	42.472	-0.188	-0.171
-342.377	18.757	-0.142	0.114
-341.362	29.275	0.197	0.168
-340.348	-44.815	0.270	-0.135
-339.333	-64.020	0.181	0.074
-338.318	-64.725	-0.150	-0.061
-337.304	319.844	-0.047	0.090
-336.289	-7.274	0.189	-0.128
-335.275	-131.930	-0.219	-0.029
-334.260	-59.009	-0.245	-0.106
-333.245	278.214	-0.175	-0.312
-332.231	-143.181	-0.234	-0.023
-331.216	43.624	0.089	-0.082
-330.202	-48.531	-0.304	0.146
-329.187	800.000	-0.029	0.101
-328.172	91.992	0.141	-0.159
-327.158	-195.883	0.135	-0.001
-326.143	-126.361	0.080	-0.012
-325.129	800.000	-0.057	-0.200
-324.114	143.822	0.092	-0.123
-323.099	167.862	0.170	0.242
-322.085	466.327	-0.110	-0.246
-321.070	138.573	0.203	0.266
-320.056	235.062	-0.111	-0.183
-319.041	-200.000	-0.003	0.167
-318.026	-167.180	-0.230	0.009
-317.012	-101.649	0.291	-0.071
-315.997	-52.315	-0.381	-0.177
-314.983	225.805	0.221	0.358
-313.968	-165.586	0.096	-0.004
-312.953	116.388	-0.133	-0.163
-311.939	143.253	-0.095	0.126
-310.924	-85.845	0.162	-0.050
-309.910	519.441	-0.091	-0.212
-308.895	88.958	0.187	-0.208
-307.880	-110.983	-0.619	0.127
-306.866	-200.000	-0.404	-0.002
-305.851	-200.000	0.011	0.110
-304.837	800.000	-0.117	0.363
-303.822	144.516	0.030	0.040
-302.807	-86.154	0.184	-0.057
-301.793	-165.066	0.170	0.008
-300.778	123.826	0.023	-0.029
-299.764	214.585	0.065	0.103
-298.749	800.000	0.118	-0.339
-297.735	-23.265	0.110	0.066
-296.720	800.000	-0.076	0.273
-295.705	6.440	0.098	0.073
-294.691	-11.937	0.046	0.030
-293.676	-99.561	0.151	0.038
-292.662	344.811	0.037	-0.073
-291.647	170.588	-0.065	-0.093
-290.632	-200.000	0.079	-0.371
-289.618	-134.909	0.190	-0.023
-288.603	-13.938	-0.338	-0.218
-287.589	-82.298	-0.199	0.065
-286.574	-49.119	0.308	-0.147
-285.559	800.000	0.062	-0.206
-284.545	75.330	0.362	0.382
-283.530	-200.000	-0.027	-0.177
-282.516	-98.693	0.307	-0.078
-281.501	-200.000	0.018	0.212
-280.486	-200.000	0.000	-0.098
-279.472	-103.828	-0.601	-0.140
-278.457	132.232	-0.051	0.066
-277.443	-200.000	0.015	-0.167
-276.428	-200.000	0.006	0.127
-275.413	-46.481	0.304	0.149
-274.399	800.000	0.042	-0.143
-273.384	-9.323	-0.135	0.090
-272.370	-101.206	0.264	-0.064
-271.355	-128.796	0.107	-0.015
-270.340	-200.000	-0.013	-0.352
-269.326	-55.879	0.121	-0.054
-268.311	1.680	0.190	-0.137
-267.297	-200.000	-0.004	0.517
-266.282	301.050	-0.130	0.240
-265.267	-136.898	-0.214	-0.025
-264.253	317.577	0.109	-0.205
-263.238	38.475	0.224	0.199
-262.224	146.631	0.094	-0.126
-261.209	50.878	0.318	0.300
-260.195	52.939	0.217	0.207
-259.180	-145.966	0.504	-0.045
-258.165	-25.006	-0.140	0.083
-257.151	-200.000	0.030	-0.591
-256.136	-200.000	-0.014	-0.280
-255.122	37.577	0.166	-0.147
-254.107	165.140	-0.171	0.242
-253.092	432.410	-0.201	0.435
-252.078	-37.854	0.342	-0.182
-251.063	1.787	-0.146	-0.105
-250.049	-200.000	0.051	0.274
-249.034	-50.040	0.334	0.158
-248.019	544.041	-0.043	-0.103
-247.005	-168.254	-0.269	0.010
-245.990	201.995	-0.070	0.108
-244.976	62.476	0.160	0.159
-243.961	-38.481	-0.483	0.255
-242.946	104.096	-0.161	0.189
-241.932	645.382	-0.062	-0.159
-240.917	539.181	-0.146	0.347
-239.903	-96.612	0.338	0.089
-238.888	800.000	0.079	-0.312
-237.873	-50.491	0.296	-0.139
-236.859	18.469	0.299	0.238
-235.844	248.890	0.197	0.333
-234.830	-200.000	0.050	0.232
-233.815	-129.335	0.267	0.037
-232.800	-200.000	-0.007	-0.034
-231.786	35.650	-0.098	0.086
-230.771	137.854	-0.099	0.130
-229.757	-41.284	0.206	0.106
-228.742	800.000	-0.102	0.405
-227.727	-123.485	0.179	-0.028
-226.713	-23.162	-0.192	0.115
-225.698	-126.321	0.226	0.034
-224.684	-91.800	-0.309	-0.087
-223.669	296.992	-0.126	-0.231
-222.655	103.136	0.140	0.163
-221.640	-112.726	-0.072	-0.014
-220.625	79.709	-0.182	-0.195
-219.611	127.120	-0.069	-0.087
-218.596	800.000	-0.059	0.197
-217.582	17.741	0.142	0.112
-216.567	332.228	-0.083	-0.160
-215.552	-144.135	0.327	-0.031
-214.538	-200.000	0.013	-0.115
-213.523	-82.698	0.145	0.047
-212.509	41.336	0.195	0.176
-211.494	52.677	-0.123	-0.117
-210.479	56.109	0.178	-0.172
-209.465	95.113	-0.129	0.147
-208.450	22.194	-0.198	0.161
-207.436	84.878	-0.096	0.105
-206.421	150.285	0.164	0.222
-205.406	-151.065	0.142	-0.011
-204.392	190.657	0.275	0.413
-203.377	-90.276	-0.405	-0.117
-202.363	-62.660	-0.338	-0.140
-201.348	36.488	-0.332	0.292
-200.333	180.657	-0.112	-0.164
-199.319	-143.642	-0.165	0.016
-198.304	-200.000	-0.002	-0.100
-197.290	-11.178	-0.136	0.089
-196.275	16.463	0.231	-0.182
-195.260	800.000	-0.111	-0.415
-194.246	-88.591	-0.351	0.104
-193.231	92.316	0.199	0.224
-192.217	40.014	-0.198	-0.177
-191.202	-86.271	0.271	-0.083
-190.187	-88.493	0.107	-0.032
-189.173	-173.313	-0.066	-0.002
-188.158	392.406	-0.097	-0.201
-187.144	-152.121	-0.403	-0.029
-186.129	26.102	-0.142	-0.118
-185.114	198.953	0.177	0.270
-184.100	191.324	-0.151	0.226
-183.085	-107.815	-0.363	-0.079
-182.071	59.759	0.147	0.145
-181.056	-125.756	0.165	0.025
-180.042	-77.989	0.159	0.054
-179.027	502.940	-0.064	0.148
-178.012	328.107	-0.109	0.208
-176.998	800.000	-0.065	-0.207
-175.983	-200.000	-0.020	-0.331
-174.969	-200.000	-0.020	-0.123
-173.954	84.360	-0.017	0.018
-172.939	800.000	-0.049	-0.147
-171.925	135.069	0.108	0.140
-170.910	-200.000	0.043	0.293
-169.896	-164.131	-0.181	-0.008
-168.881	31.251	0.183	0.157
-167.866	-200.000	-0.012	-0.074
-166.852	135.249	-0.097	-0.126
-165.837	-47.764	0.352	0.170
-164.823	411.669	0.082	0.173
-163.808	425.692	0.109	0.233
-162.793	227.051	-0.235	0.380
-161.779	15.440	-0.178	0.139
-160.764	-200.000	0.001	-0.016
-159.750	-8.287	-0.358	-0.239
-158.735	45.742	0.244	-0.224
-157.720	-14.454	-0.150	-0.096
-156.706	-200.000	-0.042	0.591
-155.691	-155.765	0.109	0.007
-154.677	37.267	0.149	-0.131
-153.662	4.130	0.071	-0.052
-152.647	-83.027	0.063	0.020
-151.633	-69.132	0.239	-0.091
-150.618	-6.332	-0.133	0.090
-149.604	-115.079	0.134	0.025
-148.589	57.733	0.024	0.023
-147.574	-50.017	-0.354	0.167
-146.560	-35.601	0.444	-0.239
-145.545	800.000	-0.098	-0.280
-144.531	-200.000	0.020	0.089
-143.516	-119.424	-0.134	-0.023
-142.502	-29.162	0.055	0.032
-141.487	-31.149	-0.150	0.084
-140.472	197.848	-0.172	-0.262
-139.458	-72.790	0.061	-0.022
-138.443	-77.528	0.166	-0.057
-137.429	-109.923	0.064	0.013
-136.414	199.515	0.200	0.305
-135.399	114.387	-0.150	-0.182
-134.385	102.322	-0.096	0.112
-133.370	-151.674	0.374	0.027
-132.356	31.217	0.094	-0.080
-131.341	4.142	-0.117	0.085
-130.326	96.016	-0.141	0.160
-129.312	-45.898	0.075	-0.037
-128.297	800.000	0.056	0.179
-127.283	-131.180	-0.036	-0.005
-126.268	352.307	0.096	-0.189
-125.253	-75.210	0.105	-0.037
-124.239	-39.729	0.296	0.154
-123.224	407.507	0.111	0.234
-122.210	42.177	-0.122	0.110
-121.195	-19.281	0.037	0.023
-120.180	-54.675	-0.221	-0.099
-119.166	-74.072	0.038	-0.014
-118.151	764.129	-0.033	-0.089
-117.137	800.000	0.062	0.204
-116.122	-69.971	-0.189	0.071
-115.107	368.679	0.025	0.051
-114.093	-97.931	0.252	0.064
-113.078	-200.000	-0.202	0.001
-112.064	-100.498	-0.153	-0.037
-111.049	-140.314	-0.283	-0.029
-110.034	-89.227	-0.249	0.073
-109.020	527.682	0.054	0.127
-108.005	-200.000	-0.025	0.125
-106.991	-165.273	0.251	0.011
-105.976	-200.000	-0.012	-0.242
-104.962	23.508	0.084	0.068
-103.947	783.071	0.074	0.201
-102.932	-96.689	0.088	-0.023
-101.918	-104.067	0.139	0.032
-100.903	108.076	-0.104	0.123
-99.889	142.896	0.268	-0.353
-98.874	-45.500	0.157	-0.077
-97.859	800.000	-0.032	0.103
-96.845	-31.521	0.236	0.132
-95.830	220.742	0.230	-0.366
-94.816	18.881	0.185	-0.147
-93.801	-132.478	-0.131	-0.017
-92.786	19.893	0.127	0.101
-91.772	49.231	-0.267	-0.249
-90.757	278.091	0.110	-0.194
-89.743	800.000	0.079	-0.223
-88.728	-200.000	0.052	-0.358
-87.713	-57.524	0.174	0.076
-86.699	26.285	-0.175	-0.145
-85.684	-44.347	0.067	0.033
-84.670	24.522	0.157	0.129
-83.655	169.368	-0.200	0.283
-82.640	-184.908	-0.367	0.006
-81.626	-56.504	0.060	-0.026
-80.611	14.126	-0.097	-0.075
-79.597	-132.140	0.540	0.070
-78.582	800.000	-0.052	0.209
-77.567	-42.612	0.095	0.048
-76.553	-0.850	0.342	0.240
-75.538	-39.225	-0.201	0.104
-74.524	-200.000	-0.022	0.179
-73.509	-200.000	0.001	-0.053
-72.494	553.188	-0.158	0.376
-71.480	495.792	0.110	0.251
-70.465	-34.749	-0.119	0.064
-69.451	-124.716	-0.067	-0.010
-68.436	-0.214	0.113	-0.079
-67.422	-37.102	0.117	-0.062
-66.407	733.315	0.112	0.297
-65.392	-200.000	0.051	0.390
-64.378	319.419	0.156	0.292
-63.363	90.611	0.159	0.177
-62.349	497.452	-0.177	0.403
-61.334	51.611	-0.789	-0.743
-60.319	-80.479	0.115	0.038
-59.305	-200.000	0.012	-1.001
-58.290	119.006	0.532	0.652
-57.276	-200.000	0.352	1.866
-56.261	-200.000	92.431	538.374
-55.246	490.411	1412.728	3201.211
-54.232	145.187	2627.875	3482.836
-53.217	110.075	2250.538	2675.457
-52.203	45.328	1773.535	1620.349
-51.188	38.263	1580.413	1393.702
-50.173	35.788	1552.240	1351.440
-49.159	52.618	1600.627	1514.085
-48.144	55.744	1619.824	1554.526
-47.130	38.701	1576.365	1393.026
-46.115	35.418	1560.907	1356.161
-45.100	35.288	1557.336	1352.086
-44.086	35.240	1555.356	1349.971
-43.071	35.248	1553.468	1348.338
-42.057	35.137	1552.082	1346.303
-41.042	35.170	1550.630	1345.223
-40.027	35.111	1549.428	1343.710
-39.013	35.221	1547.807	1343.023
-37.998	35.189	1546.535	1341.640
-36.984	35.163	1545.183	1340.232
-35.969	35.091	1544.113	1338.749
-34.954	35.060	1542.618	1337.182
-33.940	35.160	1540.866	1336.309
-32.925	35.131	1539.239	1334.645
-31.911	35.204	1538.234	1334.225
-30.896	35.383	1536.193	1333.645
-29.881	35.245	1535.013	1331.614
-28.867	35.293	1533.805	1330.841
-27.852	35.149	1532.629	1328.769
-26.838	35.220	1530.760	1327.592
-25.823	35.181	1529.317	1326.016
-24.809	35.201	1527.474	1324.503
-23.794	35.169	1526.543	1323.423
-22.779	35.224	1525.030	1322.436
-21.765	35.228	1523.866	1321.402
-20.750	35.317	1522.308	1320.616
-19.736	35.330	1521.353	1319.824
-18.721	35.210	1520.752	1318.421
-17.706	35.267	1519.432	1317.619
-16.692	35.154	1518.186	1315.711
-15.677	35.182	1517.391	1315.160
-14.663	35.126	1516.636	1314.071
-13.648	35.029	1515.904	1312.719
-12.633	35.111	1514.402	1311.928
-11.619	35.170	1512.959	1311.030
-10.604	35.146	1512.930	1310.786
-9.590	35.088	1512.082	1309.602
-8.575	35.096	1510.774	1308.475
-7.560	35.139	1509.835	1307.900
-6.546	35.074	1508.838	1306.545
-5.531	35.128	1507.703	1305.880
-4.517	35.140	1507.195	1305.468
-3.502	35.070	1506.665	1304.475
-2.487	35.127	1505.006	1303.376
-1.473	34.971	1504.528	1301.849
-0.458	35.188	1502.201	1301.262
0.556	33.806	1493.617	1293.275
1.571	31.660	1468.604	1257.116
2.586	28.725	1405.399	1184.019
3.600	26.941	1320.836	1101.859
4.615	25.173	1272.670	1051.226
5.629	22.907	1216.816	992.289
6.644	17.728	1134.280	897.708
7.659	13.342	1094.226	843.610
8.673	12.739	1088.145	835.789
9.688	12.556	1085.493	832.752
10.702	12.433	1083.839	830.787
11.717	12.502	1082.438	829.985
12.731	14.460	1084.282	841.218
13.746	19.211	1089.735	869.410
14.761	20.409	1090.497	875.987
15.775	18.363	1086.967	862.776
16.790	17.108	1083.592	853.716
17.804	15.843	1081.591	845.711
18.819	15.037	1079.402	839.882
19.834	14.471	1078.405	836.192
20.848	13.968	1077.112	832.599
21.863	13.815	1075.961	830.869
22.877	13.577	1075.614	829.337
23.892	13.537	1074.048	827.853
24.907	13.312	1073.354	826.124
25.921	13.368	1073.121	826.150
26.936	13.408	1071.795	825.258
27.950	13.437	1071.011	824.721
28.965	13.352	1069.976	823.432
29.980	13.464	1069.090	823.233
30.994	13.441	1067.998	822.206
32.009	13.611	1066.422	821.763
33.023	13.584	1066.098	821.307
34.038	13.637	1065.192	820.796
35.053	13.472	1064.439	819.330
36.067	13.498	1062.959	818.243
37.082	13.442	1062.598	817.617
38.096	13.516	1061.749	817.260
39.111	13.519	1060.871	816.522
40.126	13.564	1059.627	815.718
41.140	13.484	1058.783	814.600
42.155	13.349	1057.399	812.800
43.169	13.305	1056.900	812.129
44.184	13.303	1055.613	811.058
45.199	13.404	1054.253	810.437
46.213	13.396	1053.204	809.521
47.228	13.297	1052.883	808.714
48.242	13.352	1051.610	807.934
49.257	13.353	1051.055	807.445
50.271	13.272	1050.233	806.347
51.286	13.339	1048.591	805.340
52.301	13.467	1048.103	805.518
53.315	13.460	1046.953	804.526
54.330	13.419	1046.529	803.929
55.344	13.380	1045.834	803.135
56.359	13.349	1044.574	801.950
57.374	13.315	1043.817	801.128
58.388	13.309	1042.722	800.191
59.403	13.315	1041.912	799.525
60.417	13.254	1040.939	798.414
61.432	13.140	1040.674	797.592
62.447	13.198	1040.139	797.390
63.461	13.175	1039.047	796.370
64.476	13.182	1037.975	795.514
65.490	13.196	1037.179	794.900
66.505	13.170	1036.117	793.892
67.520	13.096	1035.556	793.036
68.534	13.225	1034.552	792.817
69.549	13.250	1034.006	792.448
70.563	13.274	1033.330	791.974
71.578	13.147	1032.644	790.770
72.593	13.339	1031.408	790.671
73.607	13.176	1030.277	788.954
74.622	13.259	1029.429	788.634
75.636	13.141	1028.575	787.344
76.651	13.050	1028.206	786.560
77.666	13.074	1027.435	786.017
78.680	13.049	1026.340	784.991
79.695	13.106	1025.783	784.763
80.709	13.197	1025.354	784.797
81.724	13.147	1024.892	784.138
82.739	13.223	1024.130	783.846
83.753	13.227	1023.203	783.089
84.768	13.303	1021.945	782.414
85.782	13.448	1021.556	782.731
86.797	13.477	1020.684	782.134
87.812	13.551	1019.295	781.350
88.826	13.428	1018.606	780.172
89.841	13.492	1018.108	780.022
90.855	13.515	1016.917	779.151
91.870	13.422	1016.374	778.225
92.884	13.403	1016.306	778.018
93.899	13.458	1014.922	777.145
94.914	13.469	1014.376	776.710
95.928	13.522	1013.752	776.414
96.943	13.542	1012.836	775.734
97.957	13.605	1011.438	774.890
98.972	13.507	1010.895	773.949
99.987	13.454	1010.108	773.032
101.001	13.535	1009.135	772.597
102.016	13.445	1008.519	771.633
103.030	13.408	1007.882	770.906
104.045	13.525	1006.395	770.245
105.060	13.524	1005.422	769.427
106.074	13.557	1004.578	768.867
107.089	13.348	1003.750	767.197
108.103	13.337	1003.119	766.596
109.118	13.301	1001.755	765.319
110.133	13.297	1001.473	765.017
111.147	13.259	1000.513	764.040
112.162	13.229	999.434	763.009
113.176	13.314	998.579	762.684
114.191	13.332	997.319	761.734
115.206	13.355	996.490	761.141
116.220	13.392	995.668	760.615
117.235	13.331	995.018	759.774
118.249	13.334	993.811	758.796
119.264	13.291	993.242	758.099
120.279	13.212	992.650	757.219
121.293	13.409	991.050	756.831
122.308	13.200	991.130	755.867
123.322	13.234	990.205	755.252
124.337	13.282	988.965	754.459
125.352	13.281	987.785	753.486
126.366	13.228	986.754	752.394
127.381	13.270	985.585	751.623
128.395	13.270	984.448	750.692
129.410	13.253	983.776	750.038
130.424	13.186	982.964	749.049
131.439	13.346	981.978	748.952
132.454	13.432	981.221	748.700
133.468	13.319	980.709	747.730
134.483	13.423	979.248	747.023
135.497	13.387	979.227	746.778
136.512	13.447	977.971	746.025
137.527	13.393	977.713	745.515
138.541	13.348	976.690	744.466
139.556	13.326	975.949	743.738
140.570	13.439	974.780	743.290
141.585	13.482	974.363	743.100
142.600	13.547	973.412	742.599
143.614	13.573	972.656	742.074
144.629	13.402	972.210	740.902
145.643	13.636	971.232	741.135
146.658	13.611	970.496	740.400
147.673	13.449	969.541	738.880
148.687	13.496	968.777	738.443
149.702	13.583	967.388	737.705
150.716	13.375	966.735	736.216
151.731	13.421	966.067	735.850
152.746	13.525	965.143	735.542
153.760	13.440	964.174	734.362
154.775	13.441	963.958	734.138
155.789	13.523	963.012	733.715
156.804	13.540	962.055	732.993
157.819	13.636	961.010	732.558
158.833	13.588	960.659	732.015
159.848	13.569	960.059	731.409
160.862	13.556	959.352	730.746
161.877	13.595	958.445	730.162
162.892	13.525	957.617	729.158
163.906	13.509	956.611	728.258
164.921	13.432	956.251	727.581
165.935	13.446	955.082	726.692
166.950	13.599	953.963	726.447
167.964	13.650	952.660	725.610
168.979	13.664	951.822	724.968
169.994	13.561	951.245	724.015
171.008	13.581	950.327	723.339
172.023	13.647	949.601	723.013
173.037	13.639	948.869	722.356
174.052	13.685	948.047	721.868
175.067	13.688	947.717	721.563
176.081	13.636	946.722	720.519
177.096	13.657	945.760	719.813
178.110	13.527	945.276	718.817
179.125	13.637	944.181	718.397
180.140	13.592	943.663	717.745
181.154	13.648	942.471	717.017
182.169	13.636	942.127	716.639
183.183	13.778	941.433	716.660
184.198	13.784	940.776	716.125
185.213	13.845	939.919	715.672
186.227	13.812	939.360	715.039
187.242	13.682	939.355	714.412
188.256	13.870	938.198	714.277
189.271	13.864	937.596	713.730
190.286	14.013	936.549	713.509
191.300	13.777	936.001	712.016
192.315	13.725	935.291	711.194
193.329	13.579	934.810	710.136
194.344	13.713	933.619	709.745
195.359	13.662	933.414	709.305
196.373	13.699	933.059	709.132
197.388	13.833	932.485	709.208
198.402	13.926	931.773	708.997
199.417	14.024	931.386	709.060
200.432	14.039	930.897	708.688
201.446	14.168	930.468	708.848
202.461	14.086	930.091	708.151
203.475	14.088	929.549	707.683
204.490	14.268	928.553	707.627
205.504	14.047	927.857	706.097
206.519	14.039	926.917	705.283
207.534	14.121	926.056	704.914
208.548	14.123	925.254	704.249
209.563	14.080	924.809	703.667
210.577	14.171	923.763	703.193
211.592	13.977	923.352	701.998
212.607	14.106	922.766	702.034
213.621	14.149	922.500	701.950
214.636	14.218	921.953	701.765
215.650	14.168	920.917	700.703
216.665	14.200	919.986	700.069
217.680	14.260	919.628	699.985
218.694	14.332	919.251	699.940
219.709	14.314	918.765	699.430
220.723	14.325	918.249	699.024
221.738	14.300	917.538	698.317
222.753	14.328	916.479	697.565
223.767	14.283	915.839	696.828
224.782	14.359	915.398	696.747
225.796	14.367	914.442	695.994
226.811	14.315	913.710	695.155
227.826	14.601	913.007	695.751
228.840	14.302	912.705	694.214
229.855	14.399	911.837	693.895
230.869	14.400	911.081	693.265
231.884	14.341	910.654	692.634
232.899	14.352	909.656	691.857
233.913	14.309	909.300	691.347
234.928	14.255	908.288	690.295
235.942	14.167	907.999	689.647
236.957	14.372	906.884	689.587
237.972	14.359	906.060	688.848
238.986	14.373	905.912	688.730
240.001	14.474	904.796	688.240
241.015	14.378	904.040	687.207
242.030	14.357	904.010	687.036
243.045	14.455	902.790	686.451
244.059	14.526	902.379	686.372
245.074	14.649	901.249	685.958
246.088	14.576	900.910	685.338
247.103	14.501	900.769	684.864
248.117	14.516	899.950	684.240
249.132	14.655	899.264	684.228
250.147	14.832	898.624	684.407
251.161	14.872	897.908	683.965
252.176	14.897	897.179	683.451
253.190	14.894	896.525	682.880
254.205	14.941	896.334	682.866
255.220	14.922	895.498	682.091
256.234	14.928	894.658	681.414
257.249	15.031	894.495	681.650
258.263	14.899	893.331	680.164
259.278	14.961	892.828	679.973
260.293	14.983	892.810	679.989
261.307	14.990	892.189	679.486
262.322	15.080	891.466	679.239
263.336	14.972	890.442	677.960
264.351	15.032	889.904	677.733
265.366	15.104	889.447	677.617
266.380	15.250	888.612	677.514
267.395	14.988	888.509	676.316
268.409	15.148	887.329	676.004
269.424	15.188	886.564	675.523
270.439	15.130	886.162	674.920
271.453	15.054	885.297	673.897
272.468	15.308	884.257	674.069
273.482	14.994	884.172	672.679
274.497	15.102	883.190	672.307
275.512	15.140	882.655	671.994
276.526	15.162	881.778	671.355
277.541	15.101	881.073	670.515
278.555	15.099	880.514	670.020
279.570	15.121	880.095	669.732
280.585	15.236	879.763	669.879
281.599	15.226	879.402	669.503
282.614	15.240	878.639	668.921
283.628	15.182	877.794	667.989
284.643	15.335	876.681	667.689
285.657	15.258	876.192	666.951
286.672	15.274	876.377	667.096
287.687	15.363	875.602	666.800
288.701	15.415	874.660	666.234
289.716	15.446	874.217	665.961
290.730	15.372	873.821	665.305
291.745	15.372	873.164	664.747
292.760	15.331	872.405	663.947
293.774	15.432	871.971	663.957
294.789	15.515	871.272	663.693
295.803	15.524	870.761	663.280
296.818	15.480	870.017	662.484
297.833	15.440	869.278	661.704
298.847	15.414	868.482	660.937
299.862	15.416	867.629	660.237
300.876	15.628	867.082	660.596
301.891	15.549	866.922	660.107
302.906	15.577	865.860	659.350
303.920	15.688	865.071	659.124
304.935	15.717	864.480	658.731
305.949	15.724	863.870	658.235
306.964	15.904	863.252	658.410
307.979	15.618	863.088	657.109
308.993	15.704	862.385	656.848
310.008	15.921	861.570	657.019
311.022	15.764	861.470	656.271
312.037	15.797	860.684	655.743
313.052	15.735	860.517	655.314
314.066	15.849	859.566	654.975
315.081	15.646	859.178	653.836
316.095	15.688	858.768	653.628
317.110	15.708	858.239	653.245
318.125	15.681	857.262	652.339
319.139	15.761	856.463	651.982
320.154	15.769	856.333	651.856
321.168	15.719	855.707	651.128
322.183	15.687	855.270	650.615
323.197	15.737	854.694	650.311
324.212	15.677	854.054	649.536
325.227	15.870	853.135	649.523
326.241	15.777	853.288	649.224
327.256	15.874	852.376	648.847
328.270	15.706	852.039	647.884
329.285	15.811	851.149	647.557
330.300	15.818	850.682	647.169
331.314	15.884	850.174	646.979
332.329	15.827	849.813	646.431
333.343	15.880	848.946	645.914
334.358	16.038	847.914	645.677
335.373	16.022	847.953	645.591
336.387	16.014	847.096	644.851
337.402	16.185	846.538	645.022
338.416	16.014	846.141	644.008
339.431	16.008	845.884	643.732
340.446	16.075	845.111	643.343
341.460	16.084	844.687	643.000
342.475	16.242	844.128	643.119
343.489	16.178	843.315	642.197
344.504	16.260	842.626	641.930
345.519	16.354	842.371	642.036
346.533	16.318	841.935	641.509
347.548	16.286	841.590	641.068
348.562	16.295	840.650	640.329
349.577	16.313	839.988	639.837
350.592	16.167	839.825	639.101
351.606	16.119	839.704	638.774
352.621	16.162	838.863	638.240
353.635	16.233	838.555	638.218
354.650	16.194	838.037	637.620
355.665	16.325	837.220	637.436
356.679	16.270	837.087	637.071
357.694	16.405	836.373	636.979
358.708	16.323	835.827	636.198
359.723	16.356	835.758	636.215
360.738	16.423	834.875	635.737
361.752	16.453	834.043	635.161
362.767	16.457	833.439	634.659
363.781	16.395	833.291	634.259
364.796	16.564	832.846	634.497
365.810	16.553	832.654	634.251
366.825	16.609	832.360	634.183
367.840	16.545	831.619	633.322
368.854	16.711	831.208	633.573
369.869	16.620	830.673	632.769
370.883	16.610	829.975	632.143
371.898	16.692	829.519	632.048
372.913	16.602	828.990	631.252
373.927	16.655	828.432	630.969
374.942	16.694	827.696	630.498
375.956	16.740	827.126	630.180
376.971	16.653	826.820	629.567
377.986	16.716	826.123	629.216
379.000	16.778	825.497	628.913
380.015	16.911	824.458	628.559
381.029	16.768	824.588	628.074
382.044	16.862	823.694	627.685
383.059	16.819	823.293	627.165
384.073	16.807	822.867	626.739
385.088	16.877	822.395	626.582
386.102	16.872	821.579	625.886
387.117	16.729	821.255	625.057
388.132	16.756	820.819	624.768
389.146	16.727	820.285	624.202
390.161	16.788	820.204	624.308
391.175	16.994	819.659	624.598
392.190	16.833	819.152	623.564
393.205	16.862	818.696	623.269
394.219	16.881	818.305	622.985
395.234	16.898	817.975	622.741
396.248	16.795	817.119	621.658
397.263	16.817	816.674	621.344
398.278	16.744	816.405	620.817
399.292	16.856	815.810	620.717
400.307	16.755	815.403	619.985
401.321	16.911	814.856	620.085
402.336	16.958	814.209	619.709
403.350	16.931	814.144	619.506
404.365	17.057	813.668	619.549
405.380	17.055	813.356	619.250
406.394	17.113	812.887	619.048
407.409	17.141	812.403	618.728
408.423	17.202	811.833	618.461
409.438	17.339	810.741	618.072
410.453	17.281	810.833	617.878
411.467	17.383	810.369	617.838
412.482	17.176	809.843	616.632
413.496	17.333	809.452	616.850
414.511	17.328	809.021	616.446
415.526	17.382	808.972	616.551
416.540	17.459	808.163	616.157
417.555	17.433	808.020	615.903
418.569	17.299	807.516	614.978
419.584	17.312	807.212	614.739
420.599	17.470	806.477	614.697
421.613	101.678	1282.841	1434.810
422.628	87.371	1352.258	1434.915
