DTS Sentinel unit serial number:	SN413079Multiplexer serial number:	ORYXHardware model number:	OX4-SRSoftware version number:	ORYX F/W v4.00 Oryx Data Collector v3.7.2.0data status	okinstallation	princeton_trtdifferential loss correction	single-endedforward channel	channel 3reverse channel	N/Adate	2019/09/14time	23:40:35forward acquisition time	60.00reverse acquisition time	0.00gamma	496.2192k internal	0.2319k external	0.2319temperature offset calibration	0.9983default loss term (dB/km)	0.3790temperature slope calibration	1.0000multiplexer offset coefficient	1.0000multiplexer slope coefficient	1.0000fibre end	0.00T internal ref (°C)	32.31T ext. ref 1 (°C)	4.65T ext. ref 2 (°C)	27.30length (m)	temperature (°C)	Stokes	anti-Stokes-747.200	-151.508	0.174	-0.013
-746.185	276.184	-0.121	0.217
-745.171	-38.416	-0.164	-0.088
-744.156	-200.000	0.051	-0.224
-743.142	-4.205	-0.229	-0.161
-742.127	-132.006	0.229	-0.030
-741.112	-143.761	0.403	0.039
-740.098	-39.844	-0.197	0.104
-739.083	-55.614	0.292	-0.132
-738.069	14.946	0.250	0.198
-737.054	800.000	0.044	-0.186
-736.039	-160.903	-0.192	-0.010
-735.025	-33.894	0.044	-0.024
-734.010	149.061	-0.163	-0.223
-732.996	800.000	-0.102	-0.323
-731.981	-200.000	0.008	-0.091
-730.966	433.456	-0.130	-0.286
-729.952	-85.374	0.190	-0.060
-728.937	9.900	0.020	0.016
-727.923	12.870	-0.241	0.188
-726.908	628.766	0.115	-0.294
-725.894	35.522	0.065	0.058
-724.879	-200.000	0.064	-0.434
-723.864	545.338	-0.054	0.132
-722.850	-200.000	0.012	-0.084
-721.835	-157.788	0.066	-0.004
-720.821	-32.475	0.170	-0.096
-719.806	-41.139	0.204	0.106
-718.791	-48.638	-0.210	0.102
-717.777	-30.408	0.069	0.040
-716.762	125.161	0.209	-0.266
-715.748	-40.087	-0.112	0.059
-714.733	27.958	0.185	-0.158
-713.718	-180.333	-0.259	-0.005
-712.704	141.831	-0.282	0.378
-711.689	-200.000	-0.010	-0.475
-710.675	-168.449	0.080	0.003
-709.660	57.896	-0.192	-0.190
-708.645	37.103	-0.228	-0.204
-707.631	-2.975	-0.192	-0.135
-706.616	291.091	0.060	0.111
-705.602	70.702	-0.150	0.157
-704.587	-69.710	-0.205	-0.079
-703.572	-200.000	0.044	-0.242
-702.558	800.000	-0.025	0.094
-701.543	602.709	-0.092	0.231
-700.529	797.743	0.062	0.173
-699.514	6.357	0.275	-0.206
-698.499	-77.515	-0.323	0.113
-697.485	655.361	0.036	0.095
-696.470	-99.618	-0.265	-0.067
-695.456	800.000	0.095	-0.311
-694.441	46.475	0.198	-0.186
-693.426	90.447	-0.204	0.231
-692.412	200.998	-0.052	-0.080
-691.397	-24.175	-0.219	0.132
-690.383	261.914	0.074	-0.129
-689.368	544.116	0.055	-0.134
-688.354	549.118	-0.040	-0.096
-687.339	-90.778	-0.275	0.080
-686.324	16.003	-0.300	0.239
-685.310	20.785	-0.115	-0.094
-684.295	389.779	0.075	-0.158
-683.281	-55.239	0.143	-0.065
-682.266	800.000	-0.070	-0.198
-681.251	-197.622	0.364	0.002
-680.237	-8.825	0.205	-0.139
-679.222	-69.745	-0.244	0.094
-678.208	-13.057	0.183	-0.120
-677.193	-23.659	-0.161	-0.098
-676.178	-61.921	-0.096	0.040
-675.164	-83.276	-0.237	-0.077
-674.149	-200.000	0.062	0.288
-673.135	-35.111	-0.178	-0.098
-672.120	-139.373	-0.182	0.020
-671.105	3.004	-0.196	0.143
-670.091	-79.860	-0.101	-0.034
-669.076	313.315	-0.163	-0.309
-668.062	50.361	-0.338	-0.322
-667.047	195.399	0.040	-0.061
-666.032	132.579	0.142	-0.184
-665.018	800.000	-0.005	-0.017
-664.003	737.166	0.120	-0.325
-662.989	27.224	-0.303	-0.257
-661.974	-7.448	-0.305	-0.208
-660.959	-183.661	-0.334	-0.006
-659.945	85.872	-0.206	-0.229
-658.930	-96.919	-0.184	-0.049
-657.916	-55.217	-0.164	-0.074
-656.901	425.918	0.141	-0.305
-655.886	-200.000	-0.010	0.219
-654.872	-112.898	0.176	0.035
-653.857	-163.018	0.046	-0.002
-652.843	538.407	0.067	-0.162
-651.828	-31.013	-0.235	0.134
-650.814	-200.000	-0.014	0.263
-649.799	-120.065	-0.258	0.044
-648.784	425.456	-0.080	0.173
-647.770	-189.954	-0.211	-0.002
-646.755	-200.000	-0.008	-0.211
-645.741	-200.000	0.000	0.012
-644.726	114.030	0.118	-0.145
-643.711	211.567	-0.164	-0.261
-642.697	-121.702	0.051	-0.009
-641.682	-200.000	0.010	0.132
-640.668	98.882	0.108	0.125
-639.653	-53.879	-0.129	0.059
-638.638	37.922	0.046	0.041
-637.624	86.798	-0.139	-0.154
-636.609	-64.453	0.193	-0.079
-635.595	146.868	-0.108	-0.146
-634.580	99.797	-0.097	0.113
-633.565	800.000	0.109	-0.396
-632.551	-200.000	0.061	-0.301
-631.536	-200.000	-0.030	-0.171
-630.522	291.215	0.056	-0.103
-629.507	-94.279	-0.311	-0.086
-628.492	-200.000	-0.005	-0.179
-627.478	83.960	-0.026	0.029
-626.463	-200.000	-0.046	0.242
-625.449	331.209	-0.030	0.058
-624.434	42.052	0.109	-0.099
-623.419	81.122	-0.073	-0.079
-622.405	-71.772	-0.134	-0.050
-621.390	190.818	0.084	0.127
-620.376	244.353	-0.081	-0.138
-619.361	-200.000	-0.020	-0.279
-618.346	-28.621	-0.350	0.203
-617.332	-200.000	0.013	0.059
-616.317	-75.773	-0.120	0.043
-615.303	84.772	0.080	-0.088
-614.288	-73.477	-0.298	-0.109
-613.273	144.542	-0.221	0.297
-612.259	800.000	0.107	-0.311
-611.244	359.598	0.169	-0.340
-610.230	800.000	0.064	-0.273
-609.215	-200.000	-0.033	-0.171
-608.201	54.857	0.181	-0.176
-607.186	-200.000	0.014	0.220
-606.171	-57.899	0.147	0.065
-605.157	-149.855	-0.100	0.008
-604.142	349.052	-0.070	-0.140
-603.128	-35.807	0.089	-0.048
-602.113	-200.000	0.058	0.290
-601.098	-200.000	-0.023	0.102
-600.084	-200.000	-0.051	0.325
-599.069	-153.151	-0.115	0.008
-598.055	-120.977	-0.445	0.075
-597.040	23.655	0.132	-0.109
-596.025	-57.749	-0.163	-0.072
-595.011	-109.638	-0.262	-0.056
-593.996	-153.378	-0.206	0.014
-592.982	-105.845	0.192	-0.044
-591.967	-88.683	0.052	-0.016
-590.952	-94.460	-0.450	0.123
-589.938	-59.770	0.149	-0.064
-588.923	-71.883	0.114	0.043
-587.909	-14.326	0.156	0.101
-586.894	800.000	-0.058	-0.230
-585.879	-173.188	-0.120	-0.004
-584.865	-115.746	0.297	-0.056
-583.850	-200.000	-0.004	-0.098
-582.836	-200.000	0.044	-0.305
-581.821	228.816	-0.052	0.084
-580.806	-83.334	0.029	-0.009
-579.792	-178.077	0.045	0.001
-578.777	20.390	0.113	0.092
-577.763	-200.000	0.016	-0.225
-576.748	10.135	-0.348	-0.266
-575.733	-200.000	0.019	-0.132
-574.719	71.195	-0.199	0.207
-573.704	18.882	0.099	0.080
-572.690	-69.136	0.367	-0.142
-571.675	-200.000	0.011	0.250
-570.661	-200.000	-0.011	-0.104
-569.646	529.974	0.153	-0.363
-568.631	315.096	0.108	-0.204
-567.617	-138.824	0.166	-0.018
-566.602	-200.000	-0.010	0.218
-565.588	800.000	-0.040	-0.122
-564.573	-95.248	0.045	0.012
-563.558	92.913	0.258	0.293
-562.544	140.026	-0.122	-0.161
-561.529	-71.215	0.486	-0.183
-560.515	-200.000	0.007	0.099
-559.500	-200.000	0.082	0.422
-558.485	-44.784	0.302	0.151
-557.471	-200.000	0.063	-0.364
-556.456	327.896	-0.142	-0.273
-555.442	-62.683	0.124	0.052
-554.427	6.142	-0.051	-0.038
-553.412	800.000	-0.058	-0.212
-552.398	159.384	-0.184	0.258
-551.383	-81.720	0.448	0.148
-550.369	-200.000	0.004	0.085
-549.354	41.708	-0.092	0.084
-548.339	2.901	-0.164	0.120
-547.325	-200.000	0.055	-0.248
-546.310	-111.959	-0.147	-0.030
-545.296	-91.109	-0.098	0.028
-544.281	753.545	-0.044	-0.119
-543.266	-153.557	0.328	0.023
-542.252	122.658	0.206	-0.259
-541.237	-67.631	0.274	0.108
-540.223	-64.570	-0.276	0.112
-539.208	122.131	0.147	-0.184
-538.193	-15.119	0.208	0.133
-537.179	749.232	0.014	-0.039
-536.164	800.000	0.047	-0.203
-535.150	608.796	0.133	0.333
-534.135	-78.271	-0.119	-0.041
-533.121	459.833	-0.151	-0.338
-532.106	182.160	0.093	0.138
-531.091	268.290	-0.151	0.266
-530.077	-116.865	0.161	0.030
-529.062	-116.337	0.407	-0.076
-528.048	800.000	-0.040	-0.166
-527.033	-75.248	0.171	0.061
-526.018	-119.072	0.238	-0.042
-525.004	-60.508	-0.530	-0.226
-523.989	428.688	0.142	0.307
-522.975	-111.077	0.116	0.024
-521.960	800.000	0.092	0.332
-520.945	20.232	-0.021	0.017
-519.931	-80.218	-0.179	0.060
-518.916	-200.000	-0.025	-0.295
-517.902	325.177	0.072	-0.138
-516.887	-200.000	0.008	0.286
-515.872	-177.852	0.640	0.015
-514.858	-133.416	-0.111	0.014
-513.843	-200.000	0.016	0.163
-512.829	-200.000	0.042	0.269
-511.814	134.338	0.127	0.165
-510.799	-65.731	-0.182	0.073
-509.785	56.212	-0.205	0.200
-508.770	533.442	0.097	-0.231
-507.756	-122.067	0.093	-0.015
-506.741	3.074	-0.312	-0.228
-505.726	387.861	0.099	-0.205
-504.712	-200.000	-0.048	0.298
-503.697	-200.000	-0.003	0.124
-502.683	800.000	-0.136	-0.438
-501.668	-95.086	-0.460	0.124
-500.653	-38.597	-0.192	0.102
-499.639	41.074	-0.085	-0.077
-498.624	-61.808	-0.076	0.032
-497.610	570.625	-0.103	-0.250
-496.595	800.000	-0.106	0.352
-495.581	-200.000	0.028	0.190
-494.566	24.365	0.132	-0.109
-493.551	46.166	-0.135	0.125
-492.537	-200.000	-0.013	0.093
-491.522	-141.231	0.228	-0.023
-490.508	142.690	0.131	-0.174
-489.493	157.374	0.058	0.081
-488.478	-28.857	-0.292	-0.168
-487.464	-144.548	0.386	0.036
-486.449	-115.791	0.339	-0.063
-485.435	-2.200	0.078	-0.055
-484.420	106.862	0.329	0.392
-483.405	800.000	-0.026	0.077
-482.391	-200.000	-0.035	-0.350
-481.376	-59.415	-0.267	-0.115
-480.362	800.000	-0.032	-0.094
-479.347	142.328	-0.223	-0.296
-478.332	-79.477	-0.216	-0.073
-477.318	224.250	-0.114	0.184
-476.303	-1.050	0.202	0.143
-475.289	175.762	-0.105	0.152
-474.274	20.074	0.234	-0.189
-473.259	-187.422	-0.134	-0.002
-472.245	-200.000	-0.028	-0.174
-471.230	-23.804	-0.303	-0.181
-470.216	228.497	0.134	0.219
-469.201	70.453	0.262	0.271
-468.186	376.677	-0.101	0.207
-467.172	-200.000	-0.001	0.068
-466.157	51.705	0.212	-0.202
-465.143	-103.269	0.532	0.126
-464.128	-200.000	-0.016	0.164
-463.113	111.044	0.146	0.176
-462.099	-19.222	0.078	0.049
-461.084	-146.673	0.166	0.014
-460.070	-200.000	0.011	0.052
-459.055	-200.000	-0.006	0.150
-458.040	-200.000	-0.035	0.159
-457.026	208.913	-0.125	-0.196
-456.011	204.295	-0.044	0.068
-454.997	272.454	0.115	0.202
-453.982	-102.432	-0.265	0.063
-452.968	-102.809	-0.080	0.019
-451.953	322.241	0.094	-0.179
-450.938	-200.000	0.020	0.127
-449.924	-122.955	-0.529	0.085
-448.909	326.439	-0.169	-0.324
-447.895	-48.123	-0.157	0.076
-446.880	-200.000	-0.105	0.000
-445.865	78.955	-0.050	-0.053
-444.851	-200.000	0.041	0.230
-443.836	-145.225	0.064	0.006
-442.822	19.087	0.029	-0.023
-441.807	204.678	0.101	0.157
-440.792	26.068	-0.081	-0.067
-439.778	204.381	-0.054	-0.083
-438.763	342.699	0.043	0.084
-437.749	184.616	-0.161	-0.239
-436.734	-125.254	-0.259	-0.040
-435.719	-50.871	0.180	-0.084
-434.705	-84.257	0.074	0.023
-433.690	800.000	0.029	-0.107
-432.676	128.559	-0.065	-0.083
-431.661	-72.672	-0.200	-0.074
-430.646	-66.804	0.508	-0.201
-429.632	-83.134	0.328	-0.105
-428.617	145.873	-0.235	0.315
-427.603	48.786	0.069	-0.064
-426.588	142.664	-0.067	-0.089
-425.573	-133.521	0.257	0.032
-424.559	-122.948	0.215	0.035
-423.544	41.786	-0.171	-0.154
-422.530	320.625	-0.067	0.126
-421.515	-200.000	0.073	-0.374
-420.500	-117.052	-0.352	-0.064
-419.486	-130.958	0.221	0.030
-418.471	179.409	-0.241	0.352
-417.457	-46.681	0.194	-0.095
-416.442	148.147	-0.248	-0.335
-415.428	-149.243	0.304	0.024
-414.413	-31.391	0.212	-0.119
-413.398	-50.010	-0.167	-0.079
-412.384	-200.000	-0.044	-0.262
-411.369	-109.686	-0.142	-0.030
-410.355	-73.572	0.165	-0.060
-409.340	43.297	0.077	-0.071
-408.325	-56.027	-0.123	-0.055
-407.311	800.000	0.041	-0.164
-406.296	515.902	-0.058	-0.136
-405.282	22.265	0.264	0.215
-404.267	-200.000	0.061	0.293
-403.252	-99.597	-0.419	-0.105
-402.238	26.639	0.218	-0.182
-401.223	-17.117	0.270	-0.170
-400.209	247.213	-0.092	-0.155
-399.194	-107.430	-0.286	-0.063
-398.179	-200.000	0.015	0.194
-397.165	-82.446	-0.247	-0.080
-396.150	-36.724	0.171	0.092
-395.136	800.000	-0.060	-0.174
-394.121	-89.746	-0.237	0.069
-393.106	189.178	0.037	-0.056
-392.092	-100.866	0.034	-0.008
-391.077	41.007	0.221	0.199
-390.063	54.579	-0.114	-0.109
-389.048	-200.000	0.003	0.158
-388.033	-74.894	0.018	0.007
-387.019	-200.000	-0.012	0.055
-386.004	103.557	0.156	0.182
-384.990	266.901	0.076	0.133
-383.975	-104.171	-0.069	0.016
-382.960	-200.000	-0.052	-0.245
-381.946	-124.665	0.220	0.034
-380.931	-156.326	-0.289	-0.018
-379.917	-37.299	0.057	-0.031
-378.902	105.515	-0.152	-0.179
-377.888	-73.688	-0.265	0.096
-376.873	-111.230	0.130	0.026
-375.858	424.072	-0.029	0.062
-374.844	-200.000	-0.024	0.298
-373.829	174.288	0.129	-0.185
-372.815	-50.218	0.252	-0.119
-371.800	-128.374	0.082	-0.012
-370.785	63.825	-0.233	0.234
-369.771	-128.739	0.159	-0.022
-368.756	-200.000	-0.029	0.218
-367.742	-92.706	-0.137	-0.038
-366.727	-200.000	-0.053	-0.353
-365.712	-200.000	-0.012	0.077
-364.698	-56.858	0.329	0.145
-363.683	-200.000	-0.026	-0.121
-362.669	-200.000	-0.007	-0.250
-361.654	-100.124	-0.117	-0.029
-360.639	162.902	-0.044	0.061
-359.625	-3.332	-0.135	0.094
-358.610	-200.000	0.006	-0.032
-357.596	-200.000	-0.015	-0.339
-356.581	-200.000	0.003	0.021
-355.566	-200.000	-0.034	0.164
-354.552	72.804	-0.177	0.184
-353.537	101.073	0.257	0.298
-352.523	47.430	-0.219	-0.203
-351.508	-114.499	-0.258	-0.049
-350.493	-103.501	0.217	0.051
-349.479	-200.000	0.018	-0.339
-348.464	800.000	-0.063	0.241
-347.450	-39.722	0.166	-0.086
-346.435	-37.319	-0.091	-0.048
-345.420	800.000	-0.063	-0.182
-344.406	-72.279	0.482	-0.178
-343.391	748.326	-0.033	0.089
-342.377	800.000	0.015	-0.059
-341.362	-72.718	0.134	0.049
-340.348	258.004	-0.159	0.273
-339.333	-200.000	0.044	0.260
-338.318	409.993	-0.168	0.354
-337.304	474.105	-0.074	0.167
-336.289	-200.000	0.057	0.355
-335.275	-135.225	-0.092	-0.011
-334.260	194.515	0.094	-0.142
-333.245	-200.000	-0.020	0.087
-332.231	-200.000	0.023	-0.183
-331.216	-200.000	0.015	0.156
-330.202	272.715	0.155	0.272
-329.187	-86.668	-0.546	-0.166
-328.172	-200.000	0.022	-0.122
-327.158	113.010	0.221	0.267
-326.143	-106.028	0.174	-0.039
-325.129	-112.139	-0.093	0.019
-324.114	-53.097	0.162	-0.074
-323.099	29.369	0.016	0.014
-322.085	-111.198	0.419	0.085
-321.070	77.197	-0.048	-0.051
-320.056	-74.096	0.151	0.054
-319.041	-200.000	0.032	0.234
-318.026	800.000	0.032	-0.140
-317.012	-76.264	-0.298	0.105
-315.997	93.276	0.106	0.119
-314.983	32.205	-0.226	0.194
-313.968	-200.000	0.042	0.221
-312.953	222.546	-0.132	-0.212
-311.939	-200.000	0.012	0.102
-310.924	-25.066	0.148	-0.088
-309.910	501.497	-0.081	0.187
-308.895	-121.658	-0.203	0.033
-307.880	137.972	-0.037	0.048
-306.866	-125.016	0.245	-0.037
-305.851	-200.000	0.014	-0.210
-304.837	381.867	0.051	-0.105
-303.822	800.000	-0.032	0.108
-302.807	-97.982	-0.129	0.033
-301.793	-200.000	-0.020	-0.182
-300.778	-113.513	-0.302	-0.059
-299.764	66.957	-0.146	-0.148
-298.749	-54.731	-0.168	-0.076
-297.735	-200.000	-0.026	-0.133
-296.720	-120.498	0.408	-0.069
-295.705	5.126	0.044	-0.032
-294.691	-63.006	0.131	-0.054
-293.676	320.059	-0.046	0.087
-292.662	18.022	0.278	0.220
-291.647	115.421	0.128	0.156
-290.632	-41.830	-0.197	-0.101
-289.618	104.046	-0.150	-0.176
-288.603	-56.344	-0.109	0.048
-287.589	800.000	-0.045	0.175
-286.574	45.946	-0.297	-0.273
-285.559	-23.592	-0.144	0.086
-284.545	387.863	0.061	0.125
-283.530	-29.340	-0.222	0.126
-282.516	-33.460	-0.233	0.128
-281.501	-118.458	-0.497	0.087
-280.486	63.944	-0.057	0.057
-279.472	575.580	-0.101	-0.244
-278.457	541.836	-0.129	-0.306
-277.443	98.194	0.199	0.228
-276.428	-92.945	0.081	-0.023
-275.413	800.000	0.015	-0.054
-274.399	414.171	-0.056	-0.119
-273.384	-200.000	0.024	-0.158
-272.370	-200.000	-0.017	0.124
-271.355	222.512	-0.067	0.107
-270.340	29.980	-0.070	0.059
-269.326	-123.796	-0.252	0.039
-268.311	172.856	-0.063	0.090
-267.297	-65.434	0.149	0.059
-266.282	108.225	0.198	-0.235
-265.267	-151.642	-0.525	0.038
-264.253	-131.182	0.147	0.019
-263.238	-152.240	-0.396	-0.028
-262.224	800.000	0.009	0.038
-261.209	117.437	-0.085	0.104
-260.195	-200.000	0.008	0.047
-259.180	-200.000	-0.009	0.089
-258.165	29.316	0.123	0.104
-257.151	42.123	-0.079	-0.071
-256.136	-7.353	0.296	-0.199
-255.122	246.857	0.084	-0.141
-254.107	-63.064	0.304	-0.125
-253.092	99.351	0.043	-0.050
-252.078	-200.000	0.006	0.155
-251.063	5.647	-0.090	-0.066
-250.049	-200.000	-0.003	-0.045
-249.034	-100.772	0.198	0.048
-248.019	170.991	-0.169	0.241
-247.005	-200.000	0.046	0.329
-245.990	-19.219	0.148	0.091
-244.976	-149.635	-0.262	0.021
-243.961	800.000	0.044	0.185
-242.946	-162.607	-0.291	-0.014
-241.932	800.000	0.087	0.252
-240.917	-126.642	-0.497	0.073
-239.903	-130.614	0.337	0.045
-238.888	466.718	0.189	0.421
-237.873	-200.000	-0.047	0.236
-236.859	-200.000	0.016	-0.494
-235.844	40.714	-0.332	0.296
-234.830	-200.000	-0.007	0.066
-233.815	-74.660	0.296	-0.106
-232.800	-36.789	0.116	0.062
-231.786	-141.289	-0.084	-0.008
-230.771	79.547	0.159	0.169
-229.757	-100.597	-0.115	0.028
-228.742	-23.544	-0.077	0.046
-227.727	776.615	0.038	0.102
-226.713	268.045	-0.077	0.134
-225.698	-52.321	0.090	-0.041
-224.684	-159.374	0.150	0.008
-223.669	-45.209	0.236	0.116
-222.655	581.290	-0.019	-0.046
-221.640	159.829	-0.070	-0.097
-220.625	-73.565	-0.085	0.031
-219.611	-60.061	-0.128	-0.054
-218.596	14.353	-0.164	-0.127
-217.582	-125.328	0.237	0.036
-216.567	108.951	0.215	0.254
-215.552	-106.460	0.255	0.057
-214.538	-59.128	0.161	-0.069
-213.523	333.132	0.084	-0.162
-212.509	113.053	0.203	-0.244
-211.494	-100.503	0.404	0.099
-210.479	25.422	-0.035	-0.029
-209.465	90.865	-0.045	-0.050
-208.450	-129.717	-0.109	-0.015
-207.436	57.418	-0.180	0.174
-206.421	176.701	0.163	0.235
-205.406	-161.945	-0.086	-0.004
-204.392	-29.633	-0.265	-0.150
-203.377	80.468	0.307	0.328
-202.363	-16.713	0.115	0.072
-201.348	159.779	0.190	-0.262
-200.333	-200.000	0.024	0.186
-199.319	154.899	0.151	-0.206
-198.304	29.745	-0.236	0.199
-197.290	800.000	-0.034	-0.145
-196.275	800.000	0.011	-0.045
-195.260	11.504	0.202	-0.154
-194.246	377.107	0.109	0.221
-193.231	-45.341	-0.214	-0.105
-192.217	429.713	-0.008	0.017
-191.202	-81.865	0.360	-0.117
-190.187	800.000	-0.091	-0.255
-189.173	-141.813	-0.151	0.015
-188.158	539.777	0.086	-0.204
-187.144	-156.665	-0.235	-0.014
-186.129	79.568	0.220	-0.233
-185.114	-3.419	0.064	-0.044
-184.100	-109.494	0.275	0.057
-183.085	364.501	0.025	0.050
-182.071	800.000	-0.076	-0.248
-181.056	193.485	0.246	0.368
-180.042	-200.000	0.021	-0.131
-179.027	-21.859	0.152	0.091
-178.012	378.587	-0.129	0.262
-176.998	-116.201	0.348	-0.064
-175.983	264.082	-0.099	0.170
-174.969	287.243	-0.151	-0.270
-173.954	-48.658	-0.201	0.096
-172.939	-45.940	-0.196	0.096
-171.925	-27.982	-0.223	-0.128
-170.910	-200.000	0.005	0.098
-169.896	-174.876	0.231	0.006
-168.881	-146.206	-0.169	0.015
-167.866	128.527	-0.039	0.049
-166.852	545.656	-0.135	0.320
-165.837	137.583	0.164	0.213
-164.823	-200.000	0.004	-0.108
-163.808	136.511	0.034	0.044
-162.793	-46.579	0.434	-0.211
-161.779	151.630	0.109	0.146
-160.764	789.328	-0.164	-0.445
-159.750	-132.135	0.037	0.005
-158.735	64.772	0.100	-0.100
-157.720	-200.000	-0.222	-0.001
-156.706	-45.623	-0.232	0.113
-155.691	-14.370	-0.333	0.212
-154.677	629.347	-0.086	-0.216
-153.662	176.164	0.128	0.183
-152.647	-64.837	0.079	0.031
-151.633	88.648	-0.146	-0.161
-150.618	800.000	0.082	-0.324
-149.604	-200.000	-0.018	0.181
-148.589	-29.260	-0.157	0.089
-147.574	-200.000	0.007	0.353
-146.560	79.152	0.205	-0.218
-145.545	-112.805	0.349	-0.068
-144.531	-200.000	0.015	0.097
-143.516	193.518	-0.140	-0.209
-142.502	-140.253	0.129	0.013
-141.487	800.000	0.035	0.110
-140.472	-200.000	-0.035	0.179
-139.458	-19.739	-0.058	-0.035
-138.443	-119.100	-0.139	-0.024
-137.429	16.496	0.065	0.051
-136.414	-75.362	0.068	0.024
-135.399	262.129	-0.058	0.099
-134.385	800.000	-0.059	0.192
-133.370	-115.721	-0.253	0.047
-132.356	-125.493	0.271	0.041
-131.341	-88.790	0.092	0.027
-130.326	-108.371	-0.187	0.040
-129.312	-130.888	-0.415	0.055
-128.297	800.000	0.036	-0.156
-127.283	-20.260	-0.063	-0.038
-126.268	800.000	-0.041	-0.161
-125.253	63.702	-0.181	0.180
-124.239	70.511	0.081	-0.082
-123.224	10.132	0.134	-0.101
-122.210	-14.955	-0.178	0.113
-121.195	-77.825	0.102	0.035
-120.180	-200.000	-0.027	-0.169
-119.166	75.977	0.138	-0.144
-118.151	42.024	0.205	0.184
-117.137	-61.188	-0.151	-0.063
-116.122	-200.000	-0.008	0.042
-115.107	-59.995	0.198	-0.084
-114.093	127.173	-0.259	-0.324
-113.078	800.000	0.061	-0.176
-112.064	-112.669	0.099	-0.019
-111.049	117.838	-0.083	0.101
-110.034	33.969	-0.151	0.130
-109.020	283.359	-0.073	0.130
-108.005	800.000	-0.018	0.052
-106.991	-98.326	0.283	0.072
-105.976	10.141	0.166	-0.125
-104.962	433.081	0.210	0.449
-103.947	35.762	0.163	0.141
-102.932	292.415	0.102	-0.184
-101.918	-80.966	0.103	-0.034
-100.903	-78.546	-0.470	-0.159
-99.889	-107.472	-0.196	-0.042
-98.874	179.257	-0.148	-0.214
-97.859	-74.577	0.358	0.127
-96.845	-200.000	0.014	-0.125
-95.830	15.438	-0.176	0.137
-94.816	372.146	0.134	0.268
-93.801	-82.932	0.519	0.165
-92.786	-116.565	-0.362	0.066
-91.772	800.000	0.037	0.115
-90.757	534.789	-0.093	0.217
-89.743	800.000	0.033	0.142
-88.728	507.485	0.025	-0.057
-87.713	-116.668	-0.185	-0.034
-86.699	419.758	0.062	0.132
-85.684	239.857	-0.279	-0.458
-84.670	207.758	0.142	0.218
-83.655	-200.000	-0.036	0.233
-82.640	-108.562	0.253	0.054
-81.626	-64.149	-0.142	-0.057
-80.611	-133.495	0.144	-0.018
-79.597	-176.328	0.202	0.005
-78.582	800.000	0.068	-0.221
-77.567	800.000	0.062	0.259
-76.553	254.871	0.100	0.169
-75.538	422.333	-0.013	-0.028
-74.524	-42.600	-0.329	0.165
-73.509	-102.819	0.406	-0.095
-72.494	-15.038	-0.222	-0.140
-71.480	-153.171	0.368	-0.025
-70.465	302.467	0.094	-0.171
-69.451	-159.291	-0.153	-0.008
-68.436	-101.580	-0.053	-0.013
-67.422	-2.869	0.256	0.176
-66.407	109.341	0.047	-0.056
-65.392	15.875	0.170	-0.132
-64.378	28.728	-0.137	-0.115
-63.363	-200.000	0.031	0.357
-62.349	-108.539	-0.168	-0.036
-61.334	107.882	-0.916	-1.075
-60.319	526.678	0.292	0.678
-59.305	-200.000	0.104	-0.868
-58.290	600.559	0.424	1.037
-57.276	434.703	0.741	1.586
-56.261	-200.000	95.027	590.344
-55.246	661.589	1369.533	3475.323
-54.232	199.697	2542.392	3840.941
-53.217	119.907	2159.498	2636.405
-52.203	43.068	1706.739	1533.132
-51.188	35.504	1519.935	1313.769
-50.173	33.023	1493.645	1274.287
-49.159	51.863	1541.884	1444.957
-48.144	53.916	1558.696	1474.724
-47.130	35.613	1519.098	1313.588
-46.115	32.582	1504.831	1280.631
-45.100	32.331	1501.389	1275.948
-44.086	32.398	1499.110	1274.413
-43.071	32.344	1497.223	1272.391
-42.057	32.241	1496.050	1270.646
-41.042	32.369	1494.406	1270.064
-40.027	32.266	1493.342	1268.417
-39.013	32.341	1491.096	1266.962
-37.998	32.305	1490.358	1266.044
-36.984	32.265	1489.097	1264.655
-35.969	32.360	1487.474	1263.861
-34.954	32.289	1486.770	1262.742
-33.940	32.349	1484.717	1261.347
-32.925	32.366	1483.368	1260.264
-31.911	32.240	1481.923	1258.144
-30.896	32.344	1480.944	1257.959
-29.881	32.359	1479.548	1256.824
-28.867	32.446	1477.601	1255.698
-27.852	32.351	1476.902	1254.420
-26.838	32.415	1475.188	1253.341
-25.823	32.374	1473.998	1252.012
-24.809	32.340	1471.778	1249.847
-23.794	32.296	1470.734	1248.617
-22.779	32.385	1469.027	1247.714
-21.765	32.326	1468.640	1246.939
-20.750	32.382	1466.943	1245.823
-19.736	32.300	1465.933	1244.371
-18.721	32.287	1465.249	1243.655
-17.706	32.248	1463.868	1242.177
-16.692	32.167	1463.377	1241.177
-15.677	32.259	1461.802	1240.398
-14.663	32.304	1460.507	1239.546
-13.648	32.276	1460.034	1238.911
-12.633	32.289	1458.605	1237.736
-11.619	32.364	1457.763	1237.469
-10.604	32.314	1456.936	1236.385
-9.590	32.291	1456.078	1235.458
-8.575	32.281	1455.700	1235.024
-7.560	32.337	1454.709	1234.500
-6.546	32.315	1453.768	1233.511
-5.531	32.289	1452.605	1232.300
-4.517	32.172	1451.748	1230.756
-3.502	32.238	1450.902	1230.423
-2.487	32.264	1449.351	1229.232
-1.473	32.300	1448.459	1228.661
-0.458	32.312	1447.083	1227.525
0.556	31.289	1437.194	1216.441
1.571	28.280	1412.132	1175.837
2.586	24.952	1351.764	1104.974
3.600	23.142	1270.507	1027.954
4.615	21.912	1224.691	983.906
5.629	18.879	1168.623	922.523
6.644	11.390	1085.505	819.357
7.659	5.474	1046.061	760.810
8.673	4.731	1040.719	753.262
9.688	4.662	1037.627	750.625
10.702	4.659	1036.092	749.436
11.717	4.549	1034.113	747.408
12.731	6.812	1035.789	759.447
13.746	13.761	1045.830	800.369
14.761	18.656	1051.876	828.623
15.775	18.518	1050.680	826.941
16.790	17.526	1048.553	820.418
17.804	16.555	1046.059	813.723
18.819	15.715	1044.340	808.279
19.834	15.098	1043.081	804.267
20.848	14.930	1042.536	802.971
21.863	14.644	1041.044	800.379
22.877	14.440	1040.484	798.902
23.892	14.285	1039.826	797.581
24.907	14.126	1038.981	796.104
25.921	14.194	1038.140	795.711
26.936	14.405	1036.953	795.742
27.950	14.361	1036.618	795.205
28.965	14.479	1035.178	794.592
29.980	14.284	1034.438	793.025
30.994	14.486	1033.164	792.935
32.009	14.531	1032.322	792.433
33.023	14.551	1031.595	791.903
34.038	14.432	1031.141	790.917
35.053	14.527	1029.789	790.262
36.067	14.359	1028.773	788.615
37.082	14.319	1028.352	788.033
38.096	14.491	1026.799	787.585
39.111	14.545	1025.948	787.122
40.126	14.486	1025.418	786.366
41.140	14.394	1024.424	785.100
42.155	14.327	1022.838	783.500
43.169	14.094	1022.737	782.255
44.184	14.137	1021.405	781.373
45.199	14.136	1020.095	780.294
46.213	14.136	1019.515	779.782
47.228	14.133	1018.095	778.615
48.242	14.368	1016.641	778.533
49.257	14.400	1016.232	778.301
50.271	14.348	1015.006	777.049
51.286	14.361	1014.204	776.425
52.301	14.399	1013.669	776.123
53.315	14.368	1012.910	775.331
54.330	14.354	1011.942	774.457
55.344	14.346	1011.180	773.768
56.359	14.279	1010.290	772.708
57.374	14.301	1009.066	771.805
58.388	14.295	1008.481	771.261
59.403	14.325	1007.667	770.710
60.417	14.152	1007.084	769.394
61.432	14.111	1006.543	768.723
62.447	14.113	1005.333	767.739
63.461	14.033	1004.778	766.880
64.476	14.070	1003.646	766.117
65.490	14.036	1002.530	765.041
66.505	14.073	1001.760	764.559
67.520	14.005	1001.181	763.734
68.534	14.147	1000.512	763.809
69.549	14.136	999.859	763.193
70.563	14.046	999.227	762.230
71.578	14.082	998.351	761.658
72.593	14.065	997.063	760.530
73.607	13.989	996.353	759.574
74.622	13.844	995.527	758.218
75.636	13.948	994.234	757.640
76.651	13.957	994.044	757.470
77.666	13.919	993.304	756.662
78.680	13.855	992.912	756.009
79.695	13.969	992.181	755.901
80.709	14.047	991.217	755.456
81.724	14.118	990.468	755.140
82.739	14.276	989.320	754.913
83.753	14.188	989.312	754.442
84.768	14.283	988.415	754.124
85.782	14.347	987.778	753.857
86.797	14.444	987.128	753.736
87.812	14.490	986.212	753.175
88.826	14.355	985.273	751.785
89.841	14.437	984.416	751.432
90.855	14.442	983.350	750.576
91.870	14.458	982.766	750.134
92.884	14.445	982.561	749.852
93.899	14.361	981.846	748.866
94.914	14.230	981.254	747.760
95.928	14.620	979.693	748.252
96.943	14.614	979.233	747.807
97.957	14.616	978.237	746.990
98.972	14.368	977.616	745.340
99.987	14.540	976.749	745.379
101.001	14.554	976.273	745.013
102.016	14.516	975.373	744.092
103.030	14.526	974.507	743.409
104.045	14.507	973.729	742.668
105.060	14.438	972.976	741.720
106.074	14.424	971.610	740.552
107.089	14.142	971.358	739.040
108.103	14.183	970.436	738.453
109.118	14.255	968.993	737.609
110.133	14.000	968.424	735.983
111.147	14.059	967.964	735.829
112.162	14.040	966.795	734.794
113.176	14.147	965.898	734.518
114.191	14.282	965.106	734.444
115.206	14.221	964.191	733.415
116.220	14.313	963.448	733.191
117.235	14.313	962.787	732.621
118.249	14.078	962.450	731.269
119.264	14.157	961.027	730.468
120.279	14.216	960.091	729.953
121.293	13.953	959.833	728.538
122.308	13.988	958.911	727.929
123.322	13.933	958.261	727.128
124.337	13.984	956.753	726.142
125.352	14.213	955.646	726.237
126.366	14.078	954.842	724.973
127.381	13.918	953.863	723.470
128.395	13.993	953.064	723.126
129.410	14.015	952.039	722.380
130.424	14.165	951.229	722.353
131.439	14.166	950.244	721.545
132.454	14.095	949.849	720.872
133.468	14.152	949.032	720.434
134.483	14.221	948.271	720.095
135.497	14.337	947.446	719.905
136.512	14.362	946.549	719.265
137.527	14.316	945.931	718.535
138.541	14.180	945.692	717.706
139.556	14.347	944.541	717.486
140.570	14.174	943.758	716.082
141.585	14.400	943.085	716.481
142.600	14.339	942.410	715.643
143.614	14.367	941.531	715.033
144.629	14.510	940.949	715.140
145.643	14.656	940.369	715.264
146.658	14.664	939.289	714.413
147.673	14.467	938.527	712.928
148.687	14.462	937.595	712.132
149.702	14.414	936.275	710.863
150.716	14.364	935.764	710.201
151.731	14.328	934.933	709.354
152.746	14.331	934.243	708.781
153.760	14.303	933.571	708.088
154.775	14.358	932.890	707.741
155.789	14.348	932.038	706.990
156.804	14.500	931.307	707.017
157.819	14.518	930.663	706.543
158.833	14.615	929.981	706.375
159.848	14.586	929.535	705.850
160.862	14.632	928.757	705.389
161.877	14.714	927.911	705.031
162.892	14.405	927.311	703.209
163.906	14.384	926.273	702.273
164.921	14.424	925.209	701.573
165.935	14.359	924.282	700.534
166.950	14.397	923.376	699.943
167.964	14.486	922.817	699.831
168.979	14.555	921.760	699.257
169.994	14.478	920.699	698.070
171.008	14.441	919.867	697.222
172.023	14.515	918.972	696.791
173.037	14.579	918.673	696.770
174.052	14.710	917.997	696.741
175.067	14.447	917.935	695.537
176.081	14.555	916.434	694.786
177.096	14.498	915.583	693.842
178.110	14.458	914.932	693.121
179.125	14.585	913.949	692.845
180.140	14.577	913.062	692.077
181.154	14.605	912.455	691.670
182.169	14.517	912.305	691.132
183.183	14.759	911.780	691.677
184.198	14.808	910.689	690.991
185.213	14.693	910.402	690.233
186.227	14.786	909.570	689.925
187.242	14.869	908.986	689.767
188.256	14.841	908.620	689.312
189.271	14.908	907.961	689.027
190.286	14.876	907.413	688.420
191.300	14.669	906.328	686.683
192.315	14.573	905.524	685.618
193.329	14.492	904.659	684.571
194.344	14.450	904.207	683.995
195.359	14.560	903.519	683.866
196.373	14.718	903.051	684.098
197.388	14.719	902.490	683.615
198.402	14.877	902.246	684.018
199.417	14.852	902.096	683.742
200.432	14.892	901.697	683.541
201.446	15.120	900.655	683.623
202.461	15.004	900.682	683.110
203.475	15.205	899.615	683.058
204.490	15.251	899.149	682.832
205.504	14.882	898.575	680.833
206.519	14.886	897.666	680.099
207.534	15.002	896.490	679.621
208.548	14.972	895.895	678.986
209.563	14.957	895.363	678.462
210.577	14.917	895.037	677.994
211.592	14.989	894.243	677.622
212.607	15.046	893.623	677.323
213.621	15.097	893.231	677.174
214.636	15.123	892.726	676.837
215.650	14.977	891.977	675.620
216.665	15.182	890.758	675.461
217.680	15.192	890.618	675.335
218.694	15.232	890.306	675.202
219.709	15.187	889.816	674.587
220.723	15.278	889.362	674.552
221.738	15.343	888.267	673.920
222.753	15.297	887.230	672.891
223.767	15.350	886.960	672.837
224.782	15.303	885.926	671.807
225.796	15.236	885.628	671.254
226.811	15.404	884.336	670.887
227.826	15.441	884.153	670.835
228.840	15.392	883.246	669.892
229.855	15.252	882.570	668.763
230.869	15.305	882.021	668.497
231.884	15.357	881.421	668.193
232.899	15.205	881.094	667.282
233.913	15.247	880.036	666.588
234.928	15.177	879.608	665.927
235.942	15.217	878.572	665.240
236.957	15.105	878.321	664.547
237.972	15.039	877.718	663.768
238.986	15.289	876.838	664.038
240.001	15.137	876.415	663.057
241.015	15.236	875.592	662.768
242.030	15.293	874.845	662.365
243.045	15.437	874.158	662.355
244.059	15.370	873.973	661.895
245.074	15.375	873.054	661.158
246.088	15.339	872.487	660.528
247.103	15.513	871.790	660.626
248.117	15.392	871.551	659.913
249.132	15.537	871.321	660.249
250.147	15.587	870.553	659.804
251.161	15.942	869.454	660.308
252.176	15.842	869.251	659.702
253.190	15.766	868.745	658.960
254.205	15.814	867.943	658.484
255.220	16.005	867.720	659.000
256.234	15.984	866.758	658.129
257.249	15.955	866.303	657.612
258.263	15.814	865.770	656.603
259.278	15.982	864.787	656.452
260.293	15.923	864.799	656.173
261.307	15.927	863.997	655.524
262.322	16.096	863.386	655.659
263.336	15.997	862.932	654.869
264.351	16.121	862.165	654.712
265.366	16.049	861.830	654.120
266.380	16.084	861.249	653.758
267.395	16.086	860.645	653.248
268.409	16.221	859.410	652.774
269.424	16.068	858.875	651.722
270.439	16.078	858.164	651.161
271.453	16.040	857.450	650.415
272.468	15.913	856.420	649.089
273.482	15.903	856.034	648.700
274.497	16.110	855.313	648.891
275.512	16.139	854.842	648.590
276.526	16.195	854.138	648.213
277.541	16.028	853.492	647.025
278.555	16.140	852.925	646.967
279.570	16.197	852.460	646.775
280.585	16.253	851.899	646.507
281.599	16.341	851.635	646.588
282.614	16.251	851.052	645.741
283.628	16.156	850.313	644.760
284.643	16.099	849.698	644.020
285.657	16.120	849.382	643.801
286.672	16.142	848.746	643.347
287.687	16.214	848.445	643.338
288.701	16.286	847.648	642.949
289.716	16.308	847.173	642.618
290.730	16.290	846.616	642.070
291.745	16.318	846.055	641.694
292.760	16.418	845.212	641.375
293.774	16.531	844.316	641.069
294.789	16.487	843.924	640.549
295.803	16.510	843.680	640.393
296.818	16.453	842.832	639.475
297.833	16.349	841.924	638.339
298.847	16.402	841.502	638.161
299.862	16.334	841.098	637.544
300.876	16.312	840.488	636.940
301.891	16.488	839.700	636.951
302.906	16.492	838.964	636.353
303.920	16.564	838.195	635.982
304.935	16.598	838.169	636.035
305.949	16.672	837.269	635.572
306.964	16.656	836.802	635.102
307.979	16.562	836.152	634.198
308.993	16.679	835.324	633.953
310.008	16.735	834.948	633.823
311.022	16.707	834.594	633.391
312.037	16.723	834.218	633.111
313.052	16.684	833.498	632.362
314.066	16.600	832.746	631.422
315.081	16.552	832.525	631.020
316.095	16.674	831.591	630.710
317.110	16.559	831.201	629.933
318.125	16.547	830.674	629.432
319.139	16.644	830.026	629.247
320.154	16.682	829.328	628.801
321.168	16.588	829.014	628.160
322.183	16.556	828.447	627.554
323.197	16.624	828.497	627.788
324.212	16.546	827.700	626.839
325.227	16.636	827.141	626.696
326.241	16.768	826.383	626.555
327.256	16.540	826.180	625.502
328.270	16.587	825.423	625.046
329.285	16.627	824.563	624.489
330.300	16.847	823.940	624.771
331.314	16.670	823.589	623.796
332.329	16.643	823.174	623.329
333.343	16.792	822.268	623.136
334.358	16.761	822.026	622.783
335.373	16.918	821.156	622.646
336.387	16.988	820.622	622.441
337.402	16.891	820.365	621.837
338.416	16.866	820.021	621.428
339.431	16.969	819.063	621.027
340.446	17.077	818.872	621.220
341.460	16.996	818.317	620.451
342.475	17.047	817.772	620.165
343.489	17.234	817.036	620.238
344.504	17.286	816.655	620.082
345.519	17.232	816.005	619.336
346.533	17.360	815.580	619.425
347.548	17.304	815.316	618.967
348.562	17.135	814.843	617.939
349.577	17.240	813.891	617.543
350.592	17.152	813.203	616.646
351.606	16.974	813.226	615.963
352.621	16.925	812.919	615.498
353.635	17.119	811.983	615.438
354.650	17.124	811.679	615.170
355.665	17.021	811.668	614.737
356.679	17.118	811.138	614.632
357.694	17.327	810.337	614.724
358.708	17.233	809.602	613.775
359.723	17.188	809.172	613.229
360.738	17.223	808.723	612.962
361.752	17.151	808.278	612.313
362.767	17.214	807.921	612.216
363.781	17.406	807.418	612.471
364.796	17.468	807.014	612.332
365.810	17.394	806.536	611.648
366.825	17.640	805.977	612.055
367.840	17.593	805.874	611.753
368.854	17.689	805.637	611.866
369.869	17.388	805.158	610.365
370.883	17.361	804.729	609.891
371.898	17.403	803.912	609.370
372.913	17.487	803.533	609.327
373.927	17.743	802.429	609.351
374.942	17.766	801.945	609.013
375.956	17.650	801.294	608.050
376.971	17.694	800.862	607.826
377.986	17.841	800.631	608.119
379.000	17.733	800.325	607.450
380.015	17.845	799.670	607.295
381.029	17.857	798.709	606.557
382.044	17.724	798.369	605.771
383.059	17.875	797.632	605.694
384.073	17.797	797.532	605.287
385.088	17.842	796.597	604.686
386.102	17.726	796.293	603.991
387.117	17.708	795.745	603.458
388.132	17.674	795.338	602.975
389.146	17.694	794.604	602.434
390.161	17.694	794.484	602.292
391.175	17.921	794.010	602.681
392.190	17.961	793.878	602.667
393.205	17.820	793.421	601.771
394.219	17.942	792.611	601.532
395.234	17.772	792.383	600.706
396.248	17.578	792.020	599.696
397.263	17.653	791.429	599.458
398.278	17.663	790.832	598.988
399.292	17.647	790.541	598.659
400.307	17.635	790.282	598.368
401.321	17.691	789.638	598.023
402.336	17.747	789.323	597.931
403.350	17.733	789.254	597.774
404.365	17.947	787.962	597.493
405.380	17.957	787.665	597.250
406.394	17.973	787.595	597.199
407.409	18.063	787.092	597.079
408.423	18.043	786.639	596.611
409.438	18.058	786.248	596.314
410.453	18.084	785.762	595.986
411.467	18.124	785.516	595.887
412.482	18.220	785.098	595.851
413.496	18.377	784.344	595.771
414.511	18.323	784.057	595.314
415.526	18.375	783.547	595.054
416.540	18.257	783.398	594.476
417.555	18.166	783.260	594.002
418.569	18.181	782.653	593.545
419.584	18.215	782.284	593.328
420.599	18.158	781.792	592.705
421.613	156.047	1368.832	1793.627
422.628	134.721	1454.365	1793.755
