DTS Sentinel unit serial number:	SN413079Multiplexer serial number:	ORYXHardware model number:	OX4-SRSoftware version number:	ORYX F/W v4.00 Oryx Data Collector v3.7.2.0data status	okinstallation	princeton_trtdifferential loss correction	single-endedforward channel	channel 3reverse channel	N/Adate	2019/09/15time	09:20:34forward acquisition time	60.00reverse acquisition time	0.00gamma	496.2192k internal	0.2311k external	0.2311temperature offset calibration	0.9967default loss term (dB/km)	0.3790temperature slope calibration	1.0000multiplexer offset coefficient	1.0000multiplexer slope coefficient	1.0000fibre end	0.00T internal ref (°C)	33.47T ext. ref 1 (°C)	4.96T ext. ref 2 (°C)	30.55length (m)	temperature (°C)	Stokes	anti-Stokes-747.200	167.461	0.095	0.137
-746.185	-200.000	-0.004	0.292
-745.171	-49.862	-0.093	-0.045
-744.156	-96.483	-0.127	-0.034
-743.142	8.072	0.229	-0.174
-742.127	-104.279	-0.248	0.058
-741.112	-200.000	0.015	0.169
-740.098	-200.000	-0.051	0.380
-739.083	-200.000	0.054	-0.275
-738.069	-200.000	-0.026	-0.172
-737.054	800.000	0.040	-0.166
-736.039	-64.320	-0.427	0.176
-735.025	281.008	-0.196	-0.355
-734.010	613.912	0.103	0.263
-732.996	0.699	-0.211	-0.153
-731.981	-200.000	0.012	-0.432
-730.966	-12.889	-0.430	0.284
-729.952	800.000	-0.043	-0.172
-728.937	-68.332	-0.256	-0.101
-727.923	55.735	-0.223	0.220
-726.908	118.875	-0.116	0.145
-725.894	-200.000	0.065	-0.436
-724.879	-185.771	-0.141	-0.002
-723.864	-173.369	-0.174	0.005
-722.850	-64.029	0.301	-0.125
-721.835	11.148	-0.237	-0.184
-720.821	56.670	-0.208	-0.205
-719.806	-81.578	0.079	0.026
-718.791	-94.436	-0.272	0.075
-717.777	-200.000	-0.004	0.100
-716.762	11.681	0.053	0.042
-715.748	-142.671	-0.296	-0.029
-714.733	87.798	0.140	0.158
-713.718	243.439	0.200	0.341
-712.704	-94.611	-0.243	0.067
-711.689	122.479	0.259	-0.328
-710.675	-67.334	0.237	-0.094
-709.660	-2.922	-0.302	0.214
-708.645	-200.000	0.359	-0.000
-707.631	-149.534	-0.204	0.016
-706.616	-200.000	0.028	-0.172
-705.602	-167.401	0.214	-0.009
-704.587	528.476	0.045	0.107
-703.572	-200.000	0.008	-0.185
-702.558	111.931	0.095	-0.116
-701.543	66.239	0.139	-0.143
-700.529	-200.000	0.024	-0.210
-699.514	-30.329	0.216	-0.124
-698.499	-74.297	-0.019	-0.007
-697.485	95.334	0.073	-0.084
-696.470	-97.499	0.125	-0.033
-695.456	-75.718	-0.147	0.053
-694.441	178.850	-0.189	-0.280
-693.426	-94.584	-0.419	-0.116
-692.412	-3.618	0.214	-0.151
-691.397	-200.000	-0.072	-0.489
-690.383	165.788	0.196	0.281
-689.368	-200.000	-0.032	0.148
-688.354	-90.697	0.283	0.083
-687.339	75.560	-0.089	0.095
-686.324	673.243	-0.053	-0.139
-685.310	-26.686	0.080	0.047
-684.295	215.109	-0.022	0.036
-683.281	365.082	-0.128	-0.261
-682.266	-115.857	0.341	-0.065
-681.251	-63.212	0.292	0.122
-680.237	-107.458	-0.423	-0.094
-679.222	800.000	-0.070	-0.259
-678.208	-200.000	-0.067	-0.382
-677.193	29.329	-0.297	0.256
-676.178	-109.182	-0.326	0.070
-675.164	-45.359	0.188	0.095
-674.149	-49.037	0.163	-0.079
-673.135	-74.395	-0.284	0.104
-672.120	578.385	0.079	0.195
-671.105	-200.000	0.010	0.253
-670.091	160.545	0.167	-0.236
-669.076	222.492	0.165	-0.268
-668.062	145.654	0.179	-0.243
-667.047	59.764	-0.182	0.182
-666.032	-200.000	-0.006	0.156
-665.018	20.893	0.154	-0.126
-664.003	416.822	-0.076	-0.165
-662.989	-135.097	-0.416	0.051
-661.974	55.224	0.233	0.228
-660.959	70.282	-0.130	0.136
-659.945	-90.090	0.062	-0.018
-658.930	-50.217	0.331	0.159
-657.916	-74.206	-0.120	0.044
-656.901	139.379	-0.109	-0.145
-655.886	-97.748	-0.063	0.016
-654.872	-116.599	0.273	0.051
-653.857	-200.000	-0.002	-0.121
-652.843	334.814	-0.184	-0.360
-651.828	372.129	-0.089	-0.183
-650.814	-39.389	-0.396	0.210
-649.799	90.811	-0.170	0.193
-648.784	81.681	-0.172	-0.188
-647.770	7.936	-0.295	-0.224
-646.755	625.632	0.088	0.224
-645.741	242.851	0.116	0.197
-644.726	-78.804	0.438	-0.151
-643.711	-25.908	-0.190	0.113
-642.697	19.609	0.303	0.247
-641.682	-103.540	0.072	0.017
-640.668	-43.188	-0.341	-0.174
-639.653	-166.901	0.267	0.011
-638.638	-200.000	-0.024	0.199
-637.624	161.033	0.190	0.269
-636.609	97.581	0.087	0.101
-635.595	264.435	0.138	0.243
-634.580	264.285	-0.122	0.214
-633.565	26.291	0.078	-0.066
-632.551	-81.505	0.296	-0.098
-631.536	-17.520	-0.169	-0.107
-630.522	-6.145	-0.259	-0.179
-629.507	-109.306	-0.249	0.053
-628.492	800.000	-0.066	0.216
-627.478	14.055	-0.392	-0.308
-626.463	-200.000	-0.005	0.112
-625.449	21.029	0.139	0.114
-624.434	623.984	-0.096	0.244
-623.419	-93.948	-0.430	-0.119
-622.405	-94.445	0.286	-0.079
-621.390	135.203	0.178	0.234
-620.376	32.825	0.162	0.142
-619.361	-45.797	0.226	-0.113
-618.346	156.312	0.086	-0.120
-617.332	-200.000	-0.001	0.176
-616.317	-200.000	0.036	0.322
-615.303	21.581	0.033	-0.027
-614.288	-80.110	0.152	-0.051
-613.273	-200.000	-0.020	0.111
-612.259	800.000	0.037	0.157
-611.244	-200.000	-0.012	-0.145
-610.230	-49.557	0.222	0.107
-609.215	800.000	-0.089	-0.249
-608.201	146.395	0.146	0.198
-607.186	16.759	-0.211	-0.169
-606.171	-79.747	-0.052	-0.018
-605.157	-200.000	0.054	-0.286
-604.142	-200.000	0.029	-0.238
-603.128	-200.000	0.022	-0.289
-602.113	224.232	0.205	-0.334
-601.098	800.000	-0.015	0.049
-600.084	562.514	-0.163	-0.399
-599.069	-200.000	-0.024	-0.174
-598.055	58.241	0.146	0.144
-597.040	-23.077	0.019	-0.012
-596.025	28.929	-0.174	-0.149
-595.011	-33.694	0.269	0.150
-593.996	800.000	0.119	-0.334
-592.982	8.907	0.131	-0.099
-591.967	-44.671	-0.286	-0.144
-590.952	-25.878	-0.064	0.038
-589.938	-101.118	-0.176	0.043
-588.923	27.039	0.173	-0.147
-587.909	800.000	-0.036	-0.140
-586.894	-55.091	-0.247	-0.112
-585.879	800.000	-0.070	0.269
-584.865	-200.000	-0.024	-0.242
-583.850	96.000	-0.162	-0.186
-582.836	-200.000	0.045	-0.276
-581.821	800.000	-0.109	-0.450
-580.806	-200.000	0.002	-0.069
-579.792	800.000	-0.067	-0.282
-578.777	-200.000	0.010	-0.091
-577.763	-98.202	0.151	0.039
-576.748	-200.000	-0.092	0.578
-575.733	-130.179	-0.255	-0.035
-574.719	2.122	-0.132	-0.096
-573.704	-122.280	-0.279	0.046
-572.690	-127.226	-0.301	-0.044
-571.675	-200.000	-0.013	0.076
-570.661	-12.474	-0.238	-0.157
-569.646	800.000	-0.074	0.246
-568.631	-200.000	-0.017	-0.247
-567.617	281.937	0.065	-0.118
-566.602	-200.000	-0.003	-0.426
-565.588	699.188	-0.043	-0.115
-564.573	-176.740	-0.171	0.004
-563.558	-200.000	0.003	-0.122
-562.544	118.073	-0.023	0.028
-561.529	-117.994	-0.117	-0.021
-560.515	800.000	-0.043	-0.170
-559.500	240.431	-0.148	-0.248
-558.485	-111.451	-0.325	-0.067
-557.471	-200.000	-0.184	-0.000
-556.456	-200.000	0.039	-0.265
-555.442	398.462	0.121	0.255
-554.427	599.476	-0.020	0.050
-553.412	800.000	-0.111	0.347
-552.398	98.603	0.103	0.120
-551.383	44.484	-0.092	0.085
-550.369	-200.000	0.006	-0.277
-549.354	232.146	-0.070	0.116
-548.339	800.000	-0.021	-0.077
-547.325	-34.535	0.039	-0.021
-546.310	103.972	0.140	0.166
-545.296	18.068	-0.259	-0.208
-544.281	202.329	0.197	-0.306
-543.266	-200.000	0.003	0.044
-542.252	-200.000	0.009	0.185
-541.237	-6.769	0.103	0.071
-540.223	-156.583	0.165	0.010
-539.208	297.026	-0.097	-0.179
-538.193	315.012	0.027	0.051
-537.179	-93.499	-0.090	-0.025
-536.164	155.653	-0.055	-0.076
-535.150	98.841	-0.057	-0.066
-534.135	-67.702	-0.121	0.048
-533.121	-92.213	-0.244	-0.069
-532.106	-162.127	0.122	0.006
-531.091	121.746	-0.127	-0.160
-530.077	-102.427	-0.242	0.058
-529.062	-1.040	-0.257	-0.183
-528.048	800.000	0.011	-0.031
-527.033	94.173	0.133	0.152
-526.018	-140.629	0.305	-0.032
-525.004	-127.114	-0.278	0.041
-523.989	-161.747	0.175	-0.009
-522.975	101.586	-0.057	-0.067
-521.960	-90.247	0.198	-0.058
-520.945	-79.145	-0.482	0.165
-519.931	92.378	-0.162	0.184
-518.916	-121.864	-0.276	0.046
-517.902	-140.329	0.191	-0.020
-516.887	-117.160	-0.166	-0.030
-515.872	331.779	0.084	0.164
-514.858	-140.027	-0.286	0.030
-513.843	-200.000	-0.024	-0.318
-512.829	-46.612	0.035	0.017
-511.814	-126.349	0.076	0.011
-510.799	-10.616	-0.255	0.170
-509.785	-72.795	0.146	0.054
-508.770	-200.000	0.019	-0.223
-507.756	109.765	0.106	-0.127
-506.741	-200.000	-0.206	-0.000
-505.726	-79.247	0.228	0.078
-504.712	-0.335	0.185	0.132
-503.697	-173.345	-0.143	-0.004
-502.683	647.496	0.098	-0.252
-501.668	138.411	-0.128	-0.168
-500.653	79.436	-0.046	-0.050
-499.639	-147.666	0.372	0.031
-498.624	154.341	0.124	-0.171
-497.610	-71.919	-0.422	-0.158
-496.595	-200.000	0.009	0.182
-495.581	-65.242	0.244	0.099
-494.566	800.000	-0.092	0.286
-493.551	345.075	-0.042	-0.084
-492.537	-35.449	-0.071	-0.039
-491.522	272.357	0.122	0.217
-490.508	270.812	0.078	-0.138
-489.493	-200.000	0.009	-0.257
-488.478	800.000	-0.058	0.199
-487.464	-200.000	-0.015	-0.409
-486.449	-99.179	0.205	-0.052
-485.435	-43.534	-0.120	0.061
-484.420	178.745	0.078	0.115
-483.405	41.515	-0.272	0.248
-482.391	658.285	-0.088	0.227
-481.376	-103.338	0.165	0.039
-480.362	800.000	0.027	-0.101
-479.347	-200.000	-0.002	-0.170
-478.332	104.925	0.104	-0.123
-477.318	-159.806	0.095	-0.005
-476.303	169.149	0.101	-0.145
-475.289	-145.071	-0.289	-0.026
-474.274	800.000	-0.088	0.261
-473.259	-200.000	0.024	0.110
-472.245	-116.390	-0.246	0.046
-471.230	178.427	0.131	-0.192
-470.216	800.000	0.030	0.127
-469.201	800.000	-0.075	-0.281
-468.186	171.053	0.031	0.045
-467.172	-111.561	0.250	-0.051
-466.157	4.160	-0.213	0.156
-465.143	-41.887	0.325	0.168
-464.128	387.640	0.154	0.319
-463.113	154.238	-0.164	0.226
-462.099	48.152	-0.122	0.115
-461.084	-96.214	-0.189	-0.050
-460.070	-200.000	0.008	0.078
-459.055	-200.000	-0.020	-0.314
-458.040	800.000	-0.032	-0.127
-457.026	800.000	-0.049	0.170
-456.011	-97.263	-0.226	0.059
-454.997	-64.584	0.313	0.128
-453.982	800.000	-0.004	0.013
-452.968	23.100	-0.230	0.190
-451.953	5.303	-0.163	0.121
-450.938	-74.150	-0.235	0.085
-449.924	-37.248	-0.142	-0.076
-448.909	-200.000	-0.007	-0.145
-447.895	-108.608	0.368	0.079
-446.880	-16.761	-0.324	0.205
-445.865	109.965	0.019	0.023
-444.851	129.539	0.176	0.226
-443.836	-200.000	0.004	0.303
-442.822	-79.247	0.634	0.216
-441.807	248.644	-0.056	0.096
-440.792	-124.406	0.125	0.020
-439.778	-80.138	0.107	-0.036
-438.763	188.159	-0.169	0.254
-437.749	-200.000	-0.005	-0.218
-436.734	800.000	0.030	0.129
-435.719	551.411	-0.017	0.041
-434.705	509.541	-0.097	0.226
-433.690	-166.518	-0.227	0.010
-432.676	-97.063	-0.215	-0.056
-431.661	281.495	0.068	0.123
-430.646	-10.772	-0.277	-0.184
-429.632	147.616	0.157	0.213
-428.617	-41.340	0.079	0.041
-427.603	-55.218	-0.229	0.103
-426.588	800.000	-0.064	-0.249
-425.573	-200.000	0.028	-0.253
-424.559	55.479	-0.332	-0.322
-423.544	-200.000	0.006	-0.211
-422.530	378.445	-0.051	-0.104
-421.515	800.000	0.136	-0.413
-420.500	-56.018	0.158	0.071
-419.486	190.320	-0.085	-0.128
-418.471	61.853	-0.203	-0.202
-417.457	44.765	0.083	0.076
-416.442	145.523	0.167	0.224
-415.428	230.758	0.113	0.185
-414.413	-113.398	-0.117	0.023
-413.398	68.977	0.117	-0.120
-412.384	-142.536	0.259	0.025
-411.369	157.197	0.018	-0.025
-410.355	74.142	0.322	-0.339
-409.340	-6.831	0.368	0.251
-408.325	-153.875	0.268	0.018
-407.311	-200.000	0.033	-0.195
-406.296	-16.378	-0.128	-0.081
-405.282	31.212	-0.393	-0.338
-404.267	226.519	-0.065	0.105
-403.252	-200.000	0.034	0.378
-402.238	120.412	0.137	0.170
-401.223	-83.958	-0.252	0.080
-400.209	800.000	-0.064	-0.237
-399.194	107.953	-0.156	0.186
-398.179	-200.000	0.014	0.118
-397.165	-200.000	-0.021	0.290
-396.150	-116.155	0.337	-0.063
-395.136	800.000	0.025	0.081
-394.121	800.000	0.039	0.157
-393.106	-54.090	0.120	0.055
-392.092	-133.509	0.106	0.013
-391.077	249.216	0.151	-0.256
-390.063	800.000	-0.059	-0.193
-389.048	36.639	0.318	-0.281
-388.033	-95.899	-0.116	0.031
-387.019	572.616	-0.039	-0.095
-386.004	779.031	-0.066	0.182
-384.990	255.774	-0.013	-0.023
-383.975	75.367	0.090	0.095
-382.960	603.860	-0.053	-0.131
-381.946	-43.720	0.346	-0.174
-380.931	-124.542	-0.445	0.069
-379.917	-46.564	-0.271	-0.133
-378.902	-200.000	0.050	-0.300
-377.888	411.349	0.104	-0.222
-376.873	-126.012	-0.265	0.040
-375.858	-30.672	0.234	0.133
-374.844	142.795	0.080	0.106
-373.829	158.729	0.203	0.281
-372.815	-143.874	-0.256	-0.024
-371.800	-30.171	0.147	-0.084
-370.785	-16.004	0.358	-0.228
-369.771	-79.716	-0.085	0.029
-368.756	341.532	-0.112	0.219
-367.742	35.133	0.163	0.143
-366.727	-144.670	0.388	0.036
-365.712	36.817	0.141	-0.125
-364.698	16.565	-0.254	-0.201
-363.683	-200.000	0.025	-0.123
-362.669	800.000	0.052	-0.191
-361.654	203.950	-0.127	-0.197
-360.639	138.661	0.159	-0.209
-359.625	-73.405	-0.170	0.062
-358.610	-16.954	0.084	-0.053
-357.596	149.199	-0.173	-0.234
-356.581	42.835	0.071	-0.065
-355.566	-146.548	-0.115	0.010
-354.552	-29.939	0.144	-0.082
-353.537	122.628	-0.046	-0.057
-352.523	-200.000	-0.006	-0.427
-351.508	-109.303	0.408	-0.087
-350.493	-200.000	-0.081	0.429
-349.479	36.914	-0.147	-0.130
-348.464	-200.000	0.018	-0.165
-347.450	228.803	-0.168	-0.274
-346.435	393.405	0.105	-0.218
-345.420	800.000	-0.018	-0.061
-344.406	-36.301	-0.156	0.084
-343.391	-97.177	-0.195	-0.051
-342.377	-22.471	-0.276	0.167
-341.362	-200.000	-0.000	0.093
-340.348	280.614	-0.051	0.092
-339.333	-188.372	0.205	-0.003
-338.318	-106.961	0.352	0.078
-337.304	92.425	0.136	0.153
-336.289	800.000	-0.026	-0.081
-335.275	-200.000	-0.014	0.223
-334.260	149.228	0.159	-0.215
-333.245	-200.000	-0.015	-0.263
-332.231	-200.000	0.030	0.288
-331.216	89.861	-0.226	-0.252
-330.202	800.000	-0.049	0.162
-329.187	222.618	-0.085	0.137
-328.172	-200.000	0.244	0.001
-327.158	-36.555	0.071	0.038
-326.143	800.000	0.141	-0.498
-325.129	-42.031	0.262	0.134
-324.114	-200.000	-0.024	0.203
-323.099	0.039	-0.110	-0.078
-322.085	-54.634	0.129	0.058
-321.070	-200.000	-0.015	0.137
-320.056	42.007	0.182	0.165
-319.041	800.000	-0.107	-0.356
-318.026	160.575	0.139	0.193
-317.012	-200.000	-0.054	0.395
-315.997	800.000	0.052	-0.185
-314.983	-200.000	0.004	0.044
-313.968	13.034	0.218	-0.168
-312.953	-61.205	-0.109	0.046
-311.939	-64.018	0.350	-0.143
-310.924	-32.173	-0.311	0.174
-309.910	69.100	-0.076	-0.078
-308.895	317.224	-0.073	-0.137
-307.880	-146.839	-0.264	0.023
-306.866	-74.437	-0.428	0.154
-305.851	-200.000	0.002	-0.215
-304.837	-200.000	-0.041	-0.214
-303.822	33.062	0.285	0.246
-302.807	56.530	-0.125	0.121
-301.793	-200.000	0.016	0.186
-300.778	-107.115	0.068	-0.015
-299.764	-116.737	0.182	-0.033
-298.749	-200.000	0.032	-0.149
-297.735	-42.212	-0.052	0.026
-296.720	249.360	-0.207	0.350
-295.705	515.862	-0.112	0.262
-294.691	255.052	-0.153	0.262
-293.676	275.981	-0.118	-0.209
-292.662	264.077	-0.047	0.081
-291.647	-66.690	0.252	-0.100
-290.632	149.677	0.038	-0.051
-289.618	-4.745	0.101	0.069
-288.603	230.458	-0.130	-0.212
-287.589	368.131	-0.204	0.412
-286.574	-76.432	-0.035	0.012
-285.559	-88.660	0.152	-0.045
-284.545	800.000	0.061	0.249
-283.530	237.327	-0.165	-0.273
-282.516	2.015	-0.096	-0.069
-281.501	-85.156	0.194	0.060
-280.486	-200.000	-0.057	0.590
-279.472	-19.525	-0.176	0.109
-278.457	-66.713	0.397	0.157
-277.443	79.015	-0.091	-0.097
-276.428	680.945	0.116	0.301
-275.413	-112.859	-0.052	-0.010
-274.399	-94.014	-0.066	0.018
-273.384	399.902	0.062	0.129
-272.370	-200.000	0.035	0.487
-271.355	478.318	0.198	0.447
-270.340	-34.358	0.221	0.121
-269.326	-72.888	0.227	-0.083
-268.311	800.000	0.041	0.178
-267.297	800.000	-0.026	-0.084
-266.282	180.573	-0.071	0.104
-265.267	36.400	-0.187	-0.164
-264.253	3.408	0.273	0.198
-263.238	-200.000	-0.004	-0.080
-262.224	625.164	-0.088	-0.220
-261.209	-24.750	-0.053	-0.032
-260.195	20.404	-0.330	0.266
-259.180	-72.219	-0.190	0.070
-258.165	431.980	-0.017	-0.037
-257.151	452.758	-0.147	-0.323
-256.136	161.181	-0.073	-0.101
-255.122	-78.876	-0.199	-0.068
-254.107	0.880	-0.082	0.059
-253.092	-55.038	-0.338	-0.152
-252.078	-99.690	-0.109	-0.027
-251.063	-200.000	0.049	-0.249
-250.049	-131.104	0.322	0.043
-249.034	-200.000	-0.019	0.202
-248.019	641.677	-0.090	0.229
-247.005	-190.011	0.348	0.004
-245.990	-128.417	-0.244	-0.034
-244.976	-97.945	0.037	-0.009
-243.961	800.000	0.049	0.203
-242.946	102.884	-0.053	0.062
-241.932	-200.000	-0.037	0.166
-240.917	719.496	0.061	-0.160
-239.903	-91.155	0.102	-0.029
-238.888	4.925	-0.013	-0.009
-237.873	-200.000	-0.005	-0.209
-236.859	-200.000	0.021	0.198
-235.844	-116.740	0.188	-0.034
-234.830	-48.863	0.209	0.100
-233.815	22.672	-0.114	0.092
-232.800	-70.811	-0.073	-0.027
-231.786	-38.513	-0.186	-0.098
-230.771	334.365	-0.038	0.073
-229.757	348.679	-0.093	0.182
-228.742	-86.234	0.120	-0.037
-227.727	-200.000	0.039	0.233
-226.713	4.111	0.245	-0.178
-225.698	59.855	-0.126	-0.123
-224.684	-200.000	-0.024	0.228
-223.669	-32.431	0.265	0.147
-222.655	-91.927	-0.174	-0.049
-221.640	800.000	0.029	0.121
-220.625	36.556	0.330	0.289
-219.611	30.684	-0.162	0.138
-218.596	-132.204	-0.500	-0.064
-217.582	-150.849	-0.200	-0.015
-216.567	51.315	0.079	-0.074
-215.552	-93.444	0.209	-0.057
-214.538	102.032	-0.137	-0.159
-213.523	-145.048	0.307	-0.028
-212.509	84.591	0.165	-0.180
-211.494	232.052	-0.103	0.168
-210.479	-141.028	-0.374	-0.038
-209.465	-93.552	0.199	0.055
-208.450	-75.894	0.376	-0.132
-207.436	-200.000	0.053	0.353
-206.421	-139.735	-0.246	0.026
-205.406	-91.506	-0.137	-0.039
-204.392	800.000	0.046	0.171
-203.377	20.272	0.142	0.114
-202.363	33.469	0.379	0.327
-201.348	-146.683	0.237	0.020
-200.333	-200.000	-0.031	-0.179
-199.319	2.079	0.414	-0.297
-198.304	-116.784	-0.131	-0.024
-197.290	-200.000	-0.025	-0.145
-196.275	-182.331	-0.066	0.001
-195.260	-87.254	-0.199	0.060
-194.246	219.710	0.042	-0.066
-193.231	-164.790	-0.300	-0.013
-192.217	92.640	0.298	0.334
-191.202	-125.761	-0.021	-0.003
-190.187	-197.516	0.116	-0.001
-189.173	799.008	0.199	-0.544
-188.158	-200.000	-0.032	0.141
-187.144	-32.030	0.096	0.054
-186.129	588.637	0.030	0.073
-185.114	8.907	-0.285	-0.214
-184.100	-200.000	0.053	-0.312
-183.085	193.989	0.096	0.145
-182.071	211.823	0.087	-0.136
-181.056	-73.196	0.290	-0.105
-180.042	-200.000	-0.044	-0.238
-179.027	37.588	-0.085	-0.075
-178.012	-172.635	0.156	-0.005
-176.998	507.096	-0.102	0.235
-175.983	-81.722	-0.032	-0.010
-174.969	800.000	0.150	0.493
-173.954	-105.914	-0.027	0.006
-172.939	103.314	-0.263	0.306
-171.925	-165.643	0.483	0.021
-170.910	-200.000	-0.003	-0.060
-169.896	108.865	0.056	0.067
-168.881	-92.952	0.229	-0.064
-167.866	800.000	0.070	0.241
-166.852	-200.000	0.032	-0.162
-165.837	13.777	-0.198	-0.152
-164.823	-38.916	0.200	-0.104
-163.808	800.000	0.093	0.316
-162.793	250.796	0.021	-0.035
-161.779	53.782	0.039	0.037
-160.764	-200.000	0.022	-0.397
-159.750	19.664	-0.052	-0.041
-158.735	720.282	0.080	-0.212
-157.720	-148.630	0.332	0.027
-156.706	-84.757	-0.236	0.074
-155.691	-6.647	0.287	0.194
-154.677	-200.000	0.054	0.328
-153.662	800.000	0.063	0.225
-152.647	800.000	-0.089	-0.275
-151.633	47.595	-0.100	-0.093
-150.618	-45.082	0.054	-0.026
-149.604	26.073	-0.102	0.084
-148.589	74.595	0.086	0.090
-147.574	-73.563	0.318	-0.115
-146.560	-21.838	0.230	-0.139
-145.545	-87.299	0.259	0.078
-144.531	-125.872	0.231	0.034
-143.516	-146.556	-0.173	-0.015
-142.502	-97.252	0.238	0.062
-141.487	-200.000	-0.057	-0.259
-140.472	800.000	-0.023	0.083
-139.458	-123.975	-0.048	0.007
-138.443	-156.608	-0.115	0.007
-137.429	-65.936	-0.239	0.095
-136.414	-176.891	0.282	0.007
-135.399	567.114	-0.081	0.194
-134.385	81.576	0.078	0.084
-133.370	800.000	0.134	0.386
-132.356	-200.000	-0.025	-0.183
-131.341	180.642	-0.188	0.273
-130.326	-200.000	-0.029	-0.262
-129.312	-29.005	-0.176	-0.100
-128.297	-74.978	0.231	0.082
-127.283	-92.288	-0.177	-0.049
-126.268	-11.360	0.383	-0.250
-125.253	-64.284	-0.100	0.040
-124.239	117.923	0.060	-0.073
-123.224	-10.426	-0.081	0.053
-122.210	107.893	0.251	0.296
-121.195	-122.814	0.235	-0.038
-120.180	5.629	-0.212	0.156
-119.166	-29.648	0.121	0.068
-118.151	-3.501	0.234	0.161
-117.137	48.905	-0.196	-0.182
-116.122	95.592	-0.115	0.130
-115.107	-61.446	0.233	-0.097
-114.093	183.569	0.067	0.099
-113.078	-58.315	-0.276	0.119
-112.064	-200.000	0.018	0.326
-111.049	12.006	0.196	-0.149
-110.034	-173.618	-0.388	0.012
-109.020	24.870	-0.246	0.202
-108.005	385.457	-0.045	0.091
-106.991	115.285	0.323	0.390
-105.976	-145.970	0.342	-0.030
-104.962	800.000	0.012	-0.037
-103.947	106.551	0.088	0.103
-102.932	-200.000	0.022	0.269
-101.918	-200.000	0.009	-0.077
-100.903	411.410	-0.136	-0.286
-99.889	-24.260	0.254	0.150
-98.874	1.178	0.188	0.134
-97.859	-84.954	-0.252	-0.078
-96.845	-143.247	0.188	-0.018
-95.830	63.200	0.127	0.126
-94.816	189.465	-0.149	0.221
-93.801	-70.489	-0.256	0.096
-92.786	114.840	0.192	0.232
-91.772	-200.000	-0.013	0.248
-90.757	-200.000	-0.001	-0.007
-89.743	283.792	-0.062	0.111
-88.728	-200.000	0.003	0.102
-87.713	-153.261	-0.145	0.010
-86.699	205.328	-0.196	0.300
-85.684	433.093	-0.123	-0.263
-84.670	-140.241	0.216	0.022
-83.655	57.125	0.055	0.053
-82.640	-63.267	-0.067	0.027
-81.626	466.715	-0.011	-0.025
-80.611	800.000	0.167	0.633
-79.597	296.760	0.084	-0.152
-78.582	199.692	0.186	0.283
-77.567	-104.286	0.243	-0.056
-76.553	-74.313	0.202	0.072
-75.538	14.075	-0.150	0.116
-74.524	6.845	0.265	0.195
-73.509	360.454	0.080	-0.158
-72.494	74.523	0.147	-0.153
-71.480	95.278	-0.111	-0.125
-70.465	-36.053	-0.221	-0.118
-69.451	67.517	0.156	0.158
-68.436	162.047	0.125	-0.173
-67.422	174.759	0.191	-0.274
-66.407	-166.392	-0.196	-0.008
-65.392	262.009	0.166	-0.285
-64.378	89.916	0.189	0.208
-63.363	800.000	-0.040	-0.114
-62.349	-87.371	0.040	0.012
-61.334	128.656	-0.824	-1.038
-60.319	69.800	0.395	0.403
-59.305	-200.000	-0.014	-0.924
-58.290	525.602	0.486	1.130
-57.276	360.908	0.716	1.418
-56.261	-200.000	97.980	584.676
-55.246	615.818	1420.492	3519.555
-54.232	183.822	2626.368	3838.973
-53.217	118.227	2207.346	2689.512
-52.203	43.874	1736.181	1571.226
-51.188	36.489	1547.417	1349.027
-50.173	34.224	1520.514	1309.960
-49.159	53.848	1571.949	1491.986
-48.144	56.635	1590.058	1528.585
-47.130	37.019	1545.887	1351.169
-46.115	33.727	1530.163	1314.617
-45.100	33.625	1526.477	1310.699
-44.086	33.538	1525.204	1308.948
-43.071	33.483	1523.193	1306.796
-42.057	33.493	1521.384	1305.255
-41.042	33.480	1519.943	1303.884
-40.027	33.494	1518.768	1302.920
-39.013	33.399	1517.293	1300.945
-37.998	33.401	1516.399	1300.144
-36.984	33.429	1515.077	1299.151
-35.969	33.521	1513.482	1298.362
-34.954	33.508	1512.026	1296.973
-33.940	33.492	1510.447	1295.458
-32.925	33.503	1509.686	1294.828
-31.911	33.477	1508.311	1293.421
-30.896	33.565	1506.597	1292.500
-29.881	33.568	1505.368	1291.411
-28.867	33.518	1504.386	1290.176
-27.852	33.607	1502.528	1289.143
-26.838	33.558	1501.265	1287.674
-25.823	33.616	1500.004	1286.932
-24.809	33.452	1498.695	1284.648
-23.794	33.552	1496.334	1283.248
-22.779	33.470	1495.571	1281.985
-21.765	33.514	1494.659	1281.451
-20.750	33.567	1492.973	1280.314
-19.736	33.426	1492.436	1278.850
-18.721	33.446	1491.543	1278.173
-17.706	33.449	1490.107	1276.913
-16.692	33.435	1489.252	1276.032
-15.677	33.325	1488.572	1274.660
-14.663	33.465	1487.239	1274.407
-13.648	33.378	1486.294	1272.959
-12.633	33.470	1484.936	1272.368
-11.619	33.524	1483.773	1271.681
-10.604	33.487	1483.365	1271.033
-9.590	33.288	1482.922	1269.271
-8.575	33.464	1481.376	1269.072
-7.560	33.510	1480.508	1268.590
-6.546	33.386	1480.348	1267.574
-5.531	33.402	1478.797	1266.303
-4.517	33.481	1477.592	1265.748
-3.502	33.568	1476.691	1265.502
-2.487	33.418	1476.198	1264.029
-1.473	33.370	1475.010	1262.642
-0.458	33.474	1473.629	1262.102
0.556	32.293	1464.763	1252.625
1.571	29.805	1438.965	1214.146
2.586	26.584	1377.285	1141.726
3.600	24.930	1295.465	1063.986
4.615	23.476	1249.012	1017.410
5.629	20.315	1192.044	953.577
6.644	12.224	1106.646	843.753
7.659	6.050	1065.231	781.469
8.673	5.108	1059.786	772.741
9.688	4.965	1056.863	769.836
10.702	4.841	1055.430	768.113
11.717	4.937	1053.168	766.869
12.731	7.520	1056.044	781.628
13.746	14.993	1066.771	826.540
14.761	19.606	1071.809	853.212
15.775	18.601	1069.817	846.592
16.790	17.359	1067.483	838.552
17.804	16.266	1065.103	831.228
18.819	15.592	1062.789	826.038
19.834	14.919	1061.704	821.816
20.848	14.673	1060.774	819.817
21.863	14.477	1059.933	818.132
22.877	14.235	1059.410	816.469
23.892	14.083	1058.208	814.723
24.907	14.105	1056.885	813.738
25.921	13.873	1056.552	812.276
26.936	13.992	1055.904	812.289
27.950	13.882	1054.796	810.827
28.965	14.114	1053.501	810.891
29.980	14.129	1052.712	810.288
30.994	14.281	1051.380	809.928
32.009	14.307	1050.431	809.252
33.023	14.203	1050.057	808.385
34.038	14.299	1048.633	807.686
35.053	14.234	1047.876	806.715
36.067	14.169	1047.332	805.908
37.082	14.112	1046.186	804.683
38.096	14.184	1045.415	804.367
39.111	14.269	1044.666	804.130
40.126	14.253	1043.807	803.319
41.140	14.081	1042.869	801.698
42.155	13.969	1041.815	800.278
43.169	13.856	1040.692	798.798
44.184	13.883	1039.835	798.198
45.199	13.857	1038.043	796.629
46.213	13.888	1037.684	796.433
47.228	13.980	1036.322	795.757
48.242	14.048	1035.331	795.252
49.257	13.992	1034.597	794.350
50.271	13.933	1033.368	793.055
51.286	14.107	1032.346	793.031
52.301	14.138	1031.850	792.728
53.315	14.045	1031.386	791.855
54.330	14.104	1030.284	791.220
55.344	13.989	1029.010	789.625
56.359	13.977	1028.298	788.954
57.374	13.953	1027.482	788.142
58.388	13.970	1026.531	787.422
59.403	13.906	1025.806	786.497
60.417	13.895	1024.721	785.544
61.432	13.893	1024.271	785.118
62.447	13.805	1023.901	784.347
63.461	13.881	1022.671	783.696
64.476	13.844	1021.637	782.659
65.490	13.777	1020.901	781.711
66.505	13.675	1020.212	780.636
67.520	13.825	1019.537	780.755
68.534	13.903	1018.642	780.365
69.549	13.812	1017.791	779.217
70.563	13.883	1017.043	778.911
71.578	13.923	1016.449	778.572
72.593	13.754	1015.186	776.745
73.607	13.753	1014.682	776.287
74.622	13.666	1013.539	774.934
75.636	13.631	1012.581	773.974
76.651	13.670	1012.006	773.646
77.666	13.732	1011.203	773.254
78.680	13.667	1010.460	772.313
79.695	13.716	1009.846	772.002
80.709	13.767	1009.369	771.809
81.724	13.750	1008.701	771.153
82.739	13.996	1007.351	771.192
83.753	13.878	1007.373	770.593
84.768	13.924	1006.641	770.177
85.782	14.169	1005.924	770.699
86.797	14.172	1005.254	770.127
87.812	14.235	1004.408	769.704
88.826	14.079	1003.316	768.077
89.841	14.144	1002.312	767.543
90.855	14.129	1001.868	767.065
91.870	14.163	1001.056	766.533
92.884	14.203	1000.157	765.961
93.899	14.229	999.521	765.525
94.914	14.034	999.175	764.297
95.928	14.209	998.160	764.253
96.943	14.329	997.418	764.171
97.957	14.210	996.830	763.105
98.972	14.111	995.830	761.819
99.987	14.154	994.888	761.229
101.001	14.276	994.537	761.450
102.016	14.226	993.244	760.165
103.030	14.114	992.852	759.287
104.045	14.237	991.173	758.494
105.060	14.221	990.406	757.770
106.074	14.209	989.215	756.736
107.089	14.023	988.789	755.498
108.103	14.121	987.810	755.129
109.118	14.010	986.807	753.792
110.133	13.785	986.245	752.275
111.147	13.944	985.294	752.204
112.162	13.917	984.622	751.501
113.176	13.990	983.417	750.843
114.191	14.068	982.338	750.308
115.206	13.998	982.281	749.881
116.220	13.994	980.955	748.784
117.235	13.844	980.356	747.586
118.249	13.945	979.322	747.186
119.264	13.916	978.594	746.433
120.279	14.033	977.475	746.038
121.293	13.952	977.000	745.248
122.308	13.897	976.062	744.218
123.322	13.888	975.319	743.546
124.337	13.770	974.368	742.227
125.352	13.745	973.607	741.470
126.366	13.801	972.123	740.525
127.381	13.713	971.555	739.634
128.395	13.804	969.934	738.740
129.410	13.916	968.901	738.387
130.424	13.873	968.213	737.606
131.439	13.932	967.329	737.128
132.454	13.999	966.701	736.882
133.468	14.004	966.114	736.390
134.483	13.993	965.555	735.852
135.497	14.160	964.339	735.599
136.512	14.037	963.842	734.609
137.527	14.115	963.122	734.340
138.541	14.127	962.004	733.474
139.556	13.936	961.966	732.540
140.570	14.006	961.236	732.229
141.585	14.129	960.018	731.775
142.600	14.246	959.273	731.656
143.614	14.156	958.483	730.593
144.629	14.148	958.034	730.152
145.643	14.306	957.206	730.150
146.658	14.301	956.134	729.247
147.673	14.084	955.320	727.611
148.687	14.143	954.136	726.901
149.702	14.173	953.207	726.261
150.716	14.109	952.814	725.620
151.731	14.014	951.908	724.450
152.746	14.047	951.242	724.024
153.760	14.146	950.409	723.758
154.775	14.108	949.495	722.833
155.789	14.206	949.204	722.972
156.804	14.269	947.986	722.251
157.819	14.324	947.244	721.861
158.833	14.238	946.576	720.919
159.848	14.257	946.205	720.652
160.862	14.293	945.344	720.088
161.877	14.380	944.266	719.581
162.892	14.261	943.811	718.656
163.906	14.125	942.518	717.019
164.921	14.128	941.642	716.306
165.935	14.157	940.847	715.761
166.950	14.129	940.121	715.026
167.964	14.212	939.193	714.613
168.979	14.350	937.985	714.223
169.994	14.224	936.911	712.802
171.008	14.193	936.554	712.332
172.023	14.079	936.066	711.414
173.037	14.318	935.098	711.633
174.052	14.386	934.358	711.297
175.067	14.364	933.261	710.306
176.081	14.276	932.415	709.225
177.096	14.393	931.166	708.711
178.110	14.192	930.695	707.435
179.125	14.273	930.306	707.419
180.140	14.292	929.221	706.614
181.154	14.259	928.620	705.955
182.169	14.294	928.288	705.790
183.183	14.459	927.458	705.793
184.198	14.408	927.237	705.345
185.213	14.454	926.018	704.552
186.227	14.521	925.765	704.581
187.242	14.464	925.387	703.988
188.256	14.567	924.379	703.596
189.271	14.566	923.910	703.169
190.286	14.615	922.701	702.395
191.300	14.582	921.883	701.571
192.315	14.224	921.295	699.557
193.329	14.286	920.791	699.373
194.344	14.239	919.838	698.388
195.359	14.233	919.416	697.983
196.373	14.344	918.871	697.971
197.388	14.494	918.392	698.174
198.402	14.542	918.119	698.104
199.417	14.592	917.585	697.847
200.432	14.627	917.185	697.629
201.446	14.777	916.635	697.773
202.461	14.692	916.357	697.147
203.475	14.750	915.512	696.684
204.490	14.841	915.397	696.913
205.504	14.768	914.386	695.777
206.519	14.619	913.348	694.309
207.534	14.648	912.711	693.880
208.548	14.654	911.573	692.980
209.563	14.707	911.143	692.810
210.577	14.752	910.574	692.505
211.592	14.668	909.856	691.550
212.607	14.883	909.468	692.085
213.621	14.937	908.749	691.697
214.636	14.764	907.906	690.282
215.650	14.878	907.110	690.085
216.665	14.887	906.874	689.882
217.680	15.013	906.143	689.782
218.694	14.948	905.927	689.293
219.709	15.096	905.246	689.320
220.723	14.909	904.610	688.006
221.738	14.906	904.007	687.472
222.753	14.944	903.204	686.957
223.767	14.913	902.562	686.284
224.782	15.088	901.435	686.081
225.796	15.135	900.425	685.445
226.811	15.047	899.974	684.682
227.826	15.016	899.419	684.073
228.840	14.903	899.081	683.291
229.855	14.921	898.226	682.654
230.869	15.002	897.415	682.310
231.884	14.935	896.891	681.576
232.899	14.926	895.993	680.796
233.913	14.988	895.412	680.546
234.928	14.950	894.734	679.818
235.942	14.973	893.664	679.041
236.957	14.846	893.587	678.403
237.972	14.850	893.121	678.006
238.986	15.113	891.774	677.988
240.001	15.004	891.637	677.385
241.015	15.076	890.715	676.915
242.030	14.979	890.032	675.946
243.045	15.031	889.869	675.972
244.059	14.976	889.352	675.295
245.074	15.182	888.169	675.169
246.088	15.097	887.560	674.303
247.103	15.134	887.394	674.267
248.117	15.123	886.612	673.569
249.132	15.230	886.239	673.657
250.147	15.369	886.040	674.002
251.161	15.501	885.430	674.010
252.176	15.397	884.493	672.820
253.190	15.588	883.539	672.797
254.205	15.645	883.299	672.784
255.220	15.785	882.372	672.578
256.234	15.631	881.930	671.566
257.249	15.711	881.217	671.286
258.263	15.750	880.733	671.010
259.278	15.696	879.888	670.095
260.293	15.576	879.424	669.204
261.307	15.741	879.036	669.505
262.322	15.759	878.441	669.066
263.336	15.794	877.772	668.634
264.351	15.741	877.456	668.124
265.366	15.834	876.506	667.713
266.380	15.923	875.854	667.509
267.395	15.923	875.031	666.820
268.409	15.866	874.693	666.279
269.424	15.756	873.881	665.167
270.439	15.774	873.337	664.765
271.453	15.733	872.526	663.926
272.468	15.755	871.446	663.134
273.482	15.823	871.107	663.084
274.497	15.727	870.429	662.133
275.512	15.755	870.145	661.969
276.526	15.840	868.925	661.314
277.541	15.787	868.486	660.715
278.555	15.943	867.812	660.756
279.570	15.879	867.199	659.979
280.585	15.906	866.988	659.865
281.599	15.958	866.324	659.507
282.614	16.044	865.808	659.391
283.628	15.839	865.602	658.372
284.643	16.019	864.298	658.026
285.657	16.018	863.823	657.604
286.672	16.022	863.586	657.379
287.687	16.024	862.806	656.736
288.701	15.830	862.889	655.985
289.716	15.975	862.206	655.971
290.730	16.085	861.328	655.674
291.745	16.148	860.665	655.357
292.760	16.022	860.055	654.344
293.774	16.046	859.650	654.072
294.789	16.017	859.265	653.607
295.803	16.228	857.879	653.311
296.818	16.072	857.564	652.412
297.833	16.084	856.665	651.717
298.847	16.174	855.945	651.457
299.862	15.988	855.960	650.693
300.876	16.315	854.793	651.012
301.891	16.204	854.331	650.174
302.906	16.429	853.371	650.252
303.920	16.213	853.117	649.170
304.935	16.303	852.436	648.938
305.949	16.499	851.812	649.158
306.964	16.451	851.177	648.434
307.979	16.395	850.563	647.695
308.993	16.287	850.279	647.008
310.008	16.426	849.529	646.912
311.022	16.309	849.320	646.246
312.037	16.637	848.385	646.731
313.052	16.521	848.003	645.941
314.066	16.334	847.389	644.700
315.081	16.428	846.423	644.268
316.095	16.328	845.936	643.460
317.110	16.367	845.482	643.205
318.125	16.475	845.080	643.253
319.139	16.405	844.676	642.625
320.154	16.461	844.063	642.312
321.168	16.242	843.751	641.187
322.183	16.279	843.547	641.114
323.197	16.422	842.560	640.852
324.212	16.231	842.109	639.727
325.227	16.429	841.234	639.756
326.241	16.373	840.985	639.296
327.256	16.486	840.347	639.183
328.270	16.410	839.785	638.414
329.285	16.311	839.386	637.676
330.300	16.391	838.765	637.453
331.314	16.436	837.942	636.938
332.329	16.399	837.442	636.363
333.343	16.488	836.855	636.198
334.358	16.567	836.339	636.045
335.373	16.566	835.693	635.493
336.387	16.498	835.123	634.750
337.402	16.526	834.688	634.467
338.416	16.582	834.483	634.466
339.431	16.625	833.772	634.028
340.446	16.758	833.387	634.179
341.460	16.826	832.510	633.708
342.475	16.999	831.902	633.838
343.489	16.788	831.848	632.950
344.504	16.901	830.815	632.529
345.519	16.955	830.229	632.231
346.533	16.944	829.664	631.703
347.548	17.056	829.446	631.898
348.562	17.021	828.641	631.101
349.577	16.854	827.964	629.905
350.592	16.940	827.605	629.896
351.606	16.732	827.068	628.659
352.621	16.923	826.549	628.921
353.635	16.716	826.464	628.033
354.650	16.766	826.161	627.930
355.665	16.762	825.648	627.471
356.679	16.892	824.943	627.360
357.694	17.056	824.169	627.320
358.708	16.940	824.150	626.823
359.723	16.897	823.414	626.048
360.738	16.959	822.551	625.568
361.752	17.047	822.294	625.639
362.767	16.967	821.949	625.029
363.781	17.077	821.290	624.877
364.796	17.227	821.017	625.165
365.810	17.138	820.758	624.585
366.825	17.159	820.461	624.381
367.840	17.376	819.837	624.647
368.854	17.371	819.413	624.252
369.869	17.306	819.033	623.670
370.883	17.229	818.427	622.869
371.898	17.329	817.583	622.539
372.913	17.239	817.263	621.909
373.927	17.367	816.846	622.007
374.942	17.320	815.803	620.984
375.956	17.202	815.487	620.258
376.971	17.388	814.781	620.346
377.986	17.516	814.178	620.297
379.000	17.411	813.787	619.561
380.015	17.495	813.576	619.654
381.029	17.527	812.828	619.143
382.044	17.580	811.869	618.553
383.059	17.605	811.369	618.206
384.073	17.480	811.025	617.438
385.088	17.597	810.589	617.474
386.102	17.372	809.957	616.121
387.117	17.401	809.667	615.953
388.132	17.169	809.106	614.634
389.146	17.411	808.318	614.855
390.161	17.428	807.873	614.522
391.175	17.578	808.021	615.124
392.190	17.512	807.562	614.482
393.205	17.637	807.091	614.519
394.219	17.576	806.309	613.647
395.234	17.577	805.639	613.089
396.248	17.637	804.904	612.692
397.263	17.458	804.993	612.062
398.278	17.598	804.027	611.776
399.292	17.463	803.672	610.964
400.307	17.511	803.564	611.002
401.321	17.473	803.195	610.529
402.336	17.628	802.759	610.702
403.350	17.383	802.677	609.705
404.365	17.516	802.316	609.855
405.380	17.537	801.748	609.444
406.394	17.607	800.922	609.013
407.409	17.836	800.672	609.586
408.423	17.755	800.304	608.963
409.438	17.715	799.580	608.216
410.453	17.800	799.162	608.148
411.467	18.123	798.332	608.610
412.482	17.985	797.954	607.777
413.496	18.014	797.731	607.659
414.511	17.994	797.686	607.499
415.526	18.041	797.318	607.332
416.540	18.072	796.747	606.952
417.555	17.887	796.444	606.013
418.569	17.940	795.934	605.758
419.584	17.901	795.572	605.292
420.599	17.942	795.014	604.958
421.613	153.621	1369.590	1791.717
422.628	132.954	1453.299	1791.834
