DTS Sentinel unit serial number:	SN413079Multiplexer serial number:	ORYXHardware model number:	OX4-SRSoftware version number:	ORYX F/W v4.00 Oryx Data Collector v3.7.2.0data status	okinstallation	princeton_trtdifferential loss correction	single-endedforward channel	channel 3reverse channel	N/Adate	2019/09/14time	10:24:35forward acquisition time	60.00reverse acquisition time	0.00gamma	496.2192k internal	0.2305k external	0.2305temperature offset calibration	1.0054default loss term (dB/km)	0.3790temperature slope calibration	1.0000multiplexer offset coefficient	1.0000multiplexer slope coefficient	1.0000fibre end	0.00T internal ref (°C)	34.47T ext. ref 1 (°C)	4.16T ext. ref 2 (°C)	32.79length (m)	temperature (°C)	Stokes	anti-Stokes-747.200	-80.191	0.380	0.130
-746.185	-140.280	0.055	-0.006
-745.171	97.032	0.130	-0.152
-744.156	-200.000	-0.494	0.002
-743.142	298.593	-0.120	0.225
-742.127	-125.184	0.598	0.093
-741.112	-200.000	-0.019	0.100
-740.098	-85.119	-0.216	-0.069
-739.083	-67.103	0.059	0.024
-738.069	67.770	-0.151	0.157
-737.054	5.809	-0.124	0.094
-736.039	-200.000	-0.023	0.104
-735.025	-97.575	0.314	0.083
-734.010	3.044	-0.269	-0.199
-732.996	-5.611	0.149	0.104
-731.981	-11.112	-0.066	0.044
-730.966	56.533	0.194	-0.192
-729.952	467.827	-0.114	-0.259
-728.937	-200.000	0.030	-0.203
-727.923	-200.000	0.001	0.051
-726.908	77.524	-0.096	-0.104
-725.894	-200.000	-0.022	-0.576
-724.879	-200.000	0.001	0.194
-723.864	-200.000	0.012	-0.120
-722.850	-183.029	-0.236	0.004
-721.835	99.718	0.107	0.126
-720.821	201.693	0.120	-0.188
-719.806	715.470	-0.072	-0.195
-718.791	-52.759	-0.112	-0.053
-717.777	83.853	0.050	-0.055
-716.762	-115.063	0.214	0.041
-715.748	-200.000	0.057	-0.261
-714.733	-95.706	-0.103	0.028
-713.718	-28.945	-0.368	0.215
-712.704	419.784	0.144	0.314
-711.689	-9.471	0.075	-0.051
-710.675	-200.000	0.010	0.096
-709.660	146.823	0.117	-0.160
-708.645	-117.360	-0.059	-0.011
-707.631	200.559	0.214	-0.334
-706.616	-200.000	0.056	-0.279
-705.602	-18.254	0.154	0.098
-704.587	154.404	-0.084	-0.118
-703.572	-200.000	0.016	-0.220
-702.558	0.282	-0.157	0.114
-701.543	-200.000	0.027	-0.262
-700.529	-200.000	0.003	0.286
-699.514	235.290	0.084	-0.141
-698.499	-115.904	-0.210	0.040
-697.485	33.448	0.237	-0.209
-696.470	-200.000	-0.031	-0.337
-695.456	-80.591	-0.151	-0.051
-694.441	800.000	-0.127	-0.421
-693.426	800.000	-0.080	0.336
-692.412	49.658	0.197	0.188
-691.397	131.371	0.066	-0.087
-690.383	-150.020	-0.221	0.017
-689.368	11.294	-0.119	-0.093
-688.354	49.498	0.223	0.213
-687.339	-159.554	-0.188	-0.011
-686.324	231.499	0.207	-0.345
-685.310	82.007	-0.214	0.236
-684.295	-117.054	0.230	-0.043
-683.281	-91.876	0.091	0.026
-682.266	42.922	0.157	-0.146
-681.251	-141.919	0.172	-0.017
-680.237	-134.400	0.277	0.034
-679.222	-116.572	0.250	-0.047
-678.208	85.942	-0.143	-0.160
-677.193	-74.564	-0.280	-0.102
-676.178	15.307	-0.241	-0.192
-675.164	-105.899	-0.240	-0.055
-674.149	37.162	0.224	-0.201
-673.135	-55.299	-0.133	-0.061
-672.120	126.414	0.103	0.132
-671.105	501.444	0.048	-0.112
-670.091	483.450	-0.075	0.172
-669.076	211.764	0.037	-0.060
-668.062	-80.630	-0.413	0.140
-667.047	800.000	-0.158	-0.511
-666.032	800.000	-0.008	0.031
-665.018	-200.000	-0.013	-0.092
-664.003	139.794	0.188	0.252
-662.989	-200.000	0.028	-0.336
-661.974	-200.000	-0.051	-0.379
-660.959	-56.177	-0.101	-0.046
-659.945	-56.053	0.106	0.048
-658.930	78.585	-0.071	-0.077
-657.916	220.257	-0.056	-0.092
-656.901	24.779	0.185	0.156
-655.886	-153.341	0.344	0.024
-654.872	289.969	-0.159	0.293
-653.857	-30.494	-0.235	0.135
-652.843	21.574	-0.174	-0.143
-651.828	71.592	0.089	-0.094
-650.814	-112.705	-0.223	0.045
-649.799	562.246	0.073	-0.180
-648.784	33.819	0.246	-0.217
-647.770	-114.639	-0.208	-0.040
-646.755	175.940	0.083	0.123
-645.741	1.216	-0.340	0.247
-644.726	-200.000	0.001	-0.116
-643.711	-17.157	0.043	-0.027
-642.697	800.000	0.029	0.098
-641.682	-200.000	-0.059	0.337
-640.668	-61.117	-0.210	0.090
-639.653	-200.000	-0.031	-0.213
-638.638	-109.411	0.295	-0.063
-637.624	-9.028	-0.417	0.283
-636.609	331.742	0.010	0.020
-635.595	-143.906	-0.110	0.011
-634.580	8.403	0.267	0.203
-633.565	-200.000	-0.012	-0.091
-632.551	-78.017	-0.220	-0.077
-631.536	229.485	0.128	-0.211
-630.522	-12.932	-0.069	-0.045
-629.507	-200.000	-0.018	-0.109
-628.492	257.578	0.042	-0.073
-627.478	-200.000	0.047	-0.460
-626.463	-10.890	-0.098	-0.066
-625.449	84.624	0.121	0.134
-624.434	-134.069	-0.144	0.018
-623.419	-59.593	0.039	-0.017
-622.405	145.327	-0.103	-0.139
-621.390	38.456	0.140	-0.127
-620.376	652.813	-0.052	-0.134
-619.361	-57.286	-0.181	0.081
-618.346	-56.291	0.248	0.112
-617.332	-83.552	-0.115	-0.037
-616.317	168.500	-0.257	0.371
-615.303	69.765	0.116	-0.121
-614.288	-200.000	-0.013	0.146
-613.273	155.181	0.141	-0.196
-612.259	402.666	0.205	-0.437
-611.244	-200.000	-0.006	-0.221
-610.230	-200.000	0.051	-0.275
-609.215	-68.862	0.136	0.053
-608.201	103.904	-0.099	-0.118
-607.186	-99.196	-0.298	0.076
-606.171	-99.323	0.213	0.054
-605.157	-113.130	0.325	0.065
-604.142	-108.544	0.235	0.051
-603.128	11.905	-0.122	0.095
-602.113	-200.000	-0.000	0.136
-601.098	114.669	0.132	-0.163
-600.084	-200.000	-0.018	-0.156
-599.069	-130.066	0.258	0.036
-598.055	0.237	-0.346	0.250
-597.040	288.024	0.120	-0.219
-596.025	346.198	-0.123	0.245
-595.011	137.325	0.120	-0.159
-593.996	-8.527	0.143	-0.097
-592.982	-200.000	0.022	-0.120
-591.967	-51.470	0.099	0.047
-590.952	317.368	-0.070	-0.134
-589.938	-128.627	0.102	-0.015
-588.923	-200.000	0.029	0.201
-587.909	-200.000	-0.040	-0.213
-586.894	322.756	0.205	0.396
-585.879	-125.849	0.042	0.006
-584.865	62.491	0.050	0.051
-583.850	-78.890	0.166	-0.057
-582.836	-4.018	0.195	0.137
-581.821	800.000	0.025	-0.070
-580.806	118.956	0.201	-0.251
-579.792	374.503	-0.060	-0.124
-578.777	-200.000	0.003	-0.260
-577.763	-200.000	0.084	0.404
-576.748	-146.590	-0.148	-0.013
-575.733	800.000	-0.072	0.207
-574.719	204.267	-0.071	-0.111
-573.704	-200.000	-0.037	0.514
-572.690	53.060	-0.286	-0.277
-571.675	-200.000	-0.037	-0.243
-570.661	-158.566	-0.438	0.026
-569.646	-20.760	-0.229	-0.142
-568.631	270.608	-0.065	-0.116
-567.617	101.673	-0.133	0.156
-566.602	233.219	0.053	0.088
-565.588	-200.000	0.015	-0.454
-564.573	-64.910	0.283	-0.116
-563.558	331.898	-0.129	0.252
-562.544	800.000	-0.057	-0.215
-561.529	476.590	-0.022	-0.050
-560.515	-93.251	-0.291	0.082
-559.500	-111.951	0.267	-0.054
-558.485	-74.825	0.380	0.138
-557.471	-74.712	-0.367	-0.133
-556.456	543.508	-0.040	-0.097
-555.442	-143.743	-0.254	-0.024
-554.427	-107.604	-0.390	-0.086
-553.412	-200.000	0.017	-0.157
-552.398	-126.257	0.115	0.017
-551.383	-200.000	0.023	0.137
-550.369	141.392	0.103	0.138
-549.354	-200.000	-0.010	0.189
-548.339	-52.692	-0.116	0.054
-547.325	800.000	0.070	0.307
-546.310	800.000	-0.066	0.215
-545.296	166.322	-0.134	0.191
-544.281	800.000	0.088	0.268
-543.266	227.428	0.244	-0.400
-542.252	-97.034	0.160	-0.042
-541.237	12.117	-0.269	-0.209
-540.223	432.265	-0.150	0.329
-539.208	-200.000	-0.004	0.039
-538.193	-121.315	-0.292	0.049
-537.179	179.568	-0.090	-0.133
-536.164	760.813	-0.077	-0.210
-535.150	56.197	0.191	-0.187
-534.135	-57.678	0.206	-0.091
-533.121	-81.272	-0.221	0.073
-532.106	-135.936	0.086	0.010
-531.091	113.553	-0.302	-0.370
-530.077	139.381	0.168	-0.222
-529.062	-77.301	-0.131	0.046
-528.048	-70.559	-0.246	0.094
-527.033	-143.977	0.487	-0.046
-526.018	-200.000	0.086	-0.443
-525.004	281.181	-0.071	-0.129
-523.989	203.579	-0.150	0.234
-522.975	78.668	-0.106	-0.114
-521.960	-200.000	0.017	0.111
-520.945	-200.000	0.004	-0.017
-519.931	-130.756	0.202	0.027
-518.916	2.134	-0.333	-0.242
-517.902	-166.143	-0.294	0.013
-516.887	-116.218	0.371	-0.069
-515.872	-71.424	-0.490	0.185
-514.858	29.200	0.209	0.179
-513.843	-30.512	0.180	-0.103
-512.829	-161.958	0.179	-0.009
-511.814	-84.649	0.190	0.060
-510.799	-103.400	-0.085	0.020
-509.785	800.000	-0.059	0.211
-508.770	8.278	0.097	0.073
-507.756	109.342	-0.125	0.151
-506.741	800.000	-0.052	-0.164
-505.726	-86.887	-0.153	-0.047
-504.712	57.069	-0.129	-0.127
-503.697	-131.669	0.155	-0.021
-502.683	-7.362	0.246	0.168
-501.668	415.898	0.125	0.269
-500.653	-200.000	-0.025	0.151
-499.639	800.000	-0.132	-0.370
-498.624	297.422	-0.058	-0.107
-497.610	75.028	0.100	0.106
-496.595	-109.697	0.229	0.048
-495.581	-106.544	-0.294	0.066
-494.566	93.880	-0.183	0.209
-493.551	2.205	-0.054	0.039
-492.537	102.611	0.034	-0.040
-491.522	-163.854	0.177	-0.008
-490.508	-200.000	-0.020	-0.098
-489.493	311.186	0.030	-0.056
-488.478	-200.000	-0.020	-0.257
-487.464	-80.240	-0.085	0.029
-486.449	301.663	-0.033	0.061
-485.435	-82.596	-0.279	0.091
-484.420	39.403	0.124	-0.112
-483.405	800.000	0.044	-0.159
-482.391	6.087	0.272	-0.203
-481.376	-116.520	-0.026	-0.005
-480.362	434.866	0.043	0.094
-479.347	88.876	-0.087	0.098
-478.332	-200.000	0.035	0.415
-477.318	73.430	0.122	0.129
-476.303	-180.357	0.271	-0.006
-475.289	-78.030	-0.082	0.028
-474.274	-4.085	-0.092	0.064
-473.259	32.663	-0.164	-0.143
-472.245	800.000	-0.023	-0.091
-471.230	119.859	0.175	-0.219
-470.216	800.000	-0.075	-0.318
-469.201	-109.088	0.029	-0.006
-468.186	-29.048	0.126	0.073
-467.172	-200.000	0.024	0.269
-466.157	-73.368	0.241	-0.089
-465.143	-115.718	0.388	0.073
-464.128	64.919	-0.141	0.144
-463.113	-16.477	-0.063	-0.040
-462.099	-155.729	0.208	-0.013
-461.084	-94.913	0.147	-0.040
-460.070	57.436	0.160	-0.157
-459.055	-200.000	0.020	-0.226
-458.040	-129.113	-0.366	0.051
-457.026	-200.000	-0.012	-0.156
-456.011	-74.237	0.197	-0.072
-454.997	-84.149	-0.072	0.023
-453.982	-16.859	-0.029	-0.019
-452.968	-18.264	0.377	-0.237
-451.953	284.326	-0.115	0.208
-450.938	70.226	-0.232	0.241
-449.924	800.000	-0.056	0.186
-448.909	-23.054	0.126	-0.076
-447.895	-114.540	-0.211	0.041
-446.880	5.506	0.131	0.097
-445.865	-28.595	-0.157	0.091
-444.851	-117.547	0.167	0.030
-443.836	800.000	0.067	0.212
-442.822	301.156	-0.163	-0.304
-441.807	800.000	-0.106	-0.410
-440.792	-200.000	-0.027	-0.161
-439.778	-81.461	-0.105	-0.035
-438.763	800.000	0.077	0.289
-437.749	-44.335	0.059	-0.030
-436.734	-70.810	0.053	0.020
-435.719	348.385	-0.092	0.182
-434.705	800.000	-0.062	-0.172
-433.690	-130.034	-0.125	0.017
-432.676	55.872	-0.174	-0.170
-431.661	800.000	0.083	-0.304
-430.646	-200.000	-0.012	0.274
-429.632	-87.241	0.143	0.044
-428.617	800.000	-0.062	-0.261
-427.603	-146.227	0.181	0.016
-426.588	468.288	0.114	0.258
-425.573	-81.509	-0.144	-0.048
-424.559	-200.000	0.050	-0.340
-423.544	89.788	0.065	0.073
-422.530	-135.425	-0.179	-0.021
-421.515	-94.258	0.014	0.004
-420.500	-43.163	0.193	-0.098
-419.486	232.787	-0.062	-0.103
-418.471	13.003	0.168	0.130
-417.457	-200.000	-0.014	0.148
-416.442	-12.636	0.353	0.231
-415.428	-89.180	-0.249	-0.074
-414.413	495.849	0.031	0.072
-413.398	-85.910	-0.228	0.071
-412.384	117.168	0.191	-0.235
-411.369	-110.395	-0.342	-0.071
-410.355	-64.929	-0.365	0.148
-409.340	-57.766	-0.281	0.123
-408.325	4.166	-0.186	-0.137
-407.311	-25.891	-0.193	-0.114
-406.296	-185.116	0.480	0.008
-405.282	800.000	-0.062	0.186
-404.267	-62.887	0.182	-0.076
-403.252	395.172	0.075	-0.158
-402.238	747.550	-0.066	0.179
-401.223	-200.000	0.020	-0.246
-400.209	400.672	0.145	0.306
-399.194	-200.000	0.046	-0.266
-398.179	-112.443	0.117	0.023
-397.165	38.131	-0.176	0.157
-396.150	15.157	0.042	-0.033
-395.136	451.014	0.039	0.087
-394.121	-200.000	-0.042	0.285
-393.106	-20.860	-0.281	-0.173
-392.092	800.000	0.040	0.124
-391.077	-66.147	0.151	0.061
-390.063	-47.112	-0.364	-0.178
-389.048	92.923	0.222	-0.251
-388.033	124.122	0.125	-0.157
-387.019	192.431	-0.127	0.192
-386.004	-200.000	-0.023	-0.264
-384.990	-52.808	0.150	-0.070
-383.975	131.263	0.254	0.327
-382.960	-148.007	-0.071	0.006
-381.946	270.897	-0.206	-0.364
-380.931	-14.925	-0.409	-0.263
-379.917	164.220	-0.189	-0.268
-378.902	-68.962	0.230	-0.089
-377.888	428.826	-0.048	-0.103
-376.873	85.684	-0.199	0.219
-375.858	800.000	0.026	0.090
-374.844	-8.719	-0.123	0.083
-373.829	-200.000	0.013	0.171
-372.815	-200.000	0.020	-0.330
-371.800	7.319	-0.203	-0.152
-370.785	800.000	-0.076	-0.287
-369.771	800.000	-0.074	0.211
-368.756	-0.350	-0.160	0.114
-367.742	486.839	0.065	-0.149
-366.727	27.878	-0.170	0.144
-365.712	657.447	0.098	-0.252
-364.698	550.458	0.029	-0.070
-363.683	-56.269	-0.348	0.155
-362.669	-200.000	0.050	0.407
-361.654	105.088	-0.040	-0.048
-360.639	-200.000	0.061	0.340
-359.625	-200.000	0.044	0.258
-358.610	-26.277	0.303	-0.178
-357.596	-143.571	-0.263	0.025
-356.581	800.000	-0.102	0.285
-355.566	-14.441	0.244	0.157
-354.552	-200.000	-0.040	-0.259
-353.537	38.202	-0.100	0.090
-352.523	-112.418	-0.163	0.033
-351.508	-12.075	-0.116	0.076
-350.493	-19.895	-0.187	0.116
-349.479	233.603	0.049	-0.081
-348.464	-200.000	0.037	0.175
-347.450	345.704	-0.190	0.375
-346.435	770.727	-0.094	-0.257
-345.420	-200.000	-0.001	-0.141
-344.406	-22.889	-0.167	0.101
-343.391	-72.612	0.155	0.057
-342.377	-155.527	0.080	0.005
-341.362	-200.000	-0.050	-0.277
-340.348	-110.219	0.170	-0.035
-339.333	50.938	0.189	0.179
-338.318	532.110	0.102	0.242
-337.304	-200.000	0.040	0.265
-336.289	171.260	-0.097	-0.139
-335.275	-5.649	-0.294	0.202
-334.260	800.000	0.078	0.217
-333.245	-131.827	0.105	-0.014
-332.231	184.909	-0.172	-0.256
-331.216	89.686	0.085	-0.095
-330.202	80.884	0.112	-0.121
-329.187	57.227	-0.135	0.132
-328.172	3.486	-0.115	0.084
-327.158	-14.802	0.121	-0.078
-326.143	73.139	-0.045	-0.047
-325.129	-53.105	0.109	0.050
-324.114	-107.329	-0.178	0.039
-323.099	278.067	0.087	0.156
-322.085	800.000	0.045	-0.196
-321.070	-64.138	0.078	-0.032
-320.056	-35.710	0.074	0.040
-319.041	-200.000	0.002	0.053
-318.026	-115.591	-0.132	0.025
-317.012	198.011	0.055	-0.084
-315.997	576.600	0.159	0.388
-314.983	-200.000	-0.015	0.325
-313.968	137.285	0.145	-0.190
-312.953	302.696	-0.190	-0.352
-311.939	-200.000	-0.007	-0.447
-310.924	91.232	-0.163	-0.184
-309.910	47.416	-0.173	-0.161
-308.895	-95.923	0.241	-0.064
-307.880	-200.000	-0.036	0.164
-306.866	-174.806	-0.217	-0.006
-305.851	-97.890	0.164	-0.042
-304.837	-83.976	0.148	-0.047
-303.822	-126.823	-0.384	0.057
-302.807	-53.911	-0.180	0.082
-301.793	129.476	0.102	0.130
-300.778	-200.000	0.019	-0.130
-299.764	800.000	-0.053	0.155
-298.749	70.423	0.172	-0.178
-297.735	17.230	0.186	-0.147
-296.720	108.024	0.139	0.166
-295.705	800.000	-0.158	-0.477
-294.691	-104.174	-0.291	0.068
-293.676	-7.689	-0.266	0.180
-292.662	6.822	-0.174	0.130
-291.647	44.273	0.225	0.207
-290.632	43.377	0.061	0.056
-289.618	-200.000	-0.002	0.088
-288.603	389.468	0.208	-0.430
-287.589	800.000	0.103	0.289
-286.574	10.060	0.028	0.021
-285.559	-200.000	0.012	-0.179
-284.545	-168.791	0.273	-0.010
-283.530	-200.000	0.009	-0.227
-282.516	49.565	-0.152	-0.143
-281.501	585.896	-0.085	0.208
-280.486	-9.547	-0.203	-0.135
-279.472	-100.382	0.329	-0.082
-278.457	800.000	0.129	0.444
-277.443	-125.029	-0.102	-0.016
-276.428	-17.404	0.122	-0.077
-275.413	-161.515	-0.299	-0.015
-274.399	800.000	-0.109	0.318
-273.384	800.000	-0.047	-0.163
-272.370	-200.000	0.011	0.162
-271.355	32.547	-0.136	0.118
-270.340	175.219	0.139	-0.202
-269.326	-200.000	0.408	0.001
-268.311	168.463	0.173	0.247
-267.297	246.158	0.158	0.266
-266.282	-174.633	0.406	0.012
-265.267	204.691	-0.089	0.138
-264.253	53.852	-0.057	-0.054
-263.238	261.088	0.137	0.236
-262.224	134.267	0.114	0.148
-261.209	426.831	0.158	-0.341
-260.195	-96.521	-0.370	-0.098
-259.180	-200.000	0.056	0.341
-258.165	-103.880	-0.287	-0.067
-257.151	-15.497	-0.322	0.205
-256.136	-73.173	0.104	-0.038
-255.122	31.259	0.309	0.264
-254.107	-142.152	-0.329	0.033
-253.092	-42.863	-0.206	-0.105
-252.078	800.000	0.093	-0.312
-251.063	7.425	0.215	0.161
-250.049	-39.834	0.386	0.201
-249.034	800.000	-0.091	0.318
-248.019	-35.466	0.180	0.098
-247.005	-66.228	-0.110	-0.044
-245.990	-22.777	-0.155	0.093
-244.976	-59.284	0.324	0.139
-243.961	-32.784	-0.206	-0.114
-242.946	-44.940	0.250	-0.124
-241.932	-67.294	0.403	-0.158
-240.917	-181.700	0.119	-0.002
-239.903	93.254	0.127	0.143
-238.888	288.956	-0.147	-0.266
-237.873	-123.434	0.191	0.030
-236.859	-182.925	0.477	-0.009
-235.844	-121.708	0.267	-0.044
-234.830	-200.000	0.027	0.345
-233.815	800.000	-0.031	-0.105
-232.800	25.187	0.136	-0.113
-231.786	-140.107	0.155	0.016
-230.771	746.542	-0.166	0.445
-229.757	-16.108	-0.278	-0.176
-228.742	695.245	-0.042	0.110
-227.727	-162.684	0.281	0.014
-226.713	57.450	0.094	-0.092
-225.698	49.250	-0.299	0.281
-224.684	-46.948	0.299	0.145
-223.669	1.420	-0.241	-0.172
-222.655	-72.731	-0.128	0.047
-221.640	338.172	-0.086	0.167
-220.625	-180.081	-0.110	0.002
-219.611	283.184	0.156	0.279
-218.596	-9.144	-0.193	0.129
-217.582	800.000	0.015	0.064
-216.567	-200.000	0.024	0.242
-215.552	693.126	-0.039	-0.102
-214.538	593.930	0.087	0.214
-213.523	-90.421	-0.075	-0.022
-212.509	121.278	0.128	-0.159
-211.494	22.567	-0.188	0.153
-210.479	-70.490	-0.129	0.049
-209.465	-146.508	-0.464	-0.040
-208.450	48.281	0.289	-0.270
-207.436	-116.483	-0.482	-0.089
-206.421	621.667	-0.039	-0.098
-205.406	800.000	-0.071	-0.260
-204.392	77.584	0.173	-0.183
-203.377	74.114	0.024	0.025
-202.363	179.119	-0.194	-0.282
-201.348	26.598	-0.277	0.231
-200.333	800.000	-0.031	0.095
-199.319	2.421	0.103	-0.074
-198.304	-200.000	0.011	-0.127
-197.290	-95.751	-0.171	0.045
-196.275	60.126	0.215	0.212
-195.260	800.000	0.021	-0.088
-194.246	143.634	0.145	-0.193
-193.231	-200.000	0.015	-0.337
-192.217	-123.654	-0.334	-0.053
-191.202	473.220	-0.069	-0.155
-190.187	-115.393	0.368	-0.069
-189.173	-107.672	0.318	0.069
-188.158	-200.000	0.024	0.200
-187.144	55.403	0.223	-0.215
-186.129	115.132	0.052	0.063
-185.114	-200.000	0.010	-0.175
-184.100	-200.000	0.058	0.319
-183.085	354.240	-0.075	-0.149
-182.071	-12.300	0.118	-0.077
-181.056	-200.000	-0.022	0.287
-180.042	800.000	-0.069	-0.277
-179.027	-38.640	0.189	-0.100
-178.012	-81.487	0.040	-0.013
-176.998	-98.170	0.183	-0.047
-175.983	45.441	-0.087	0.080
-174.969	800.000	-0.026	-0.082
-173.954	-67.823	-0.201	-0.078
-172.939	83.036	-0.221	0.239
-171.925	-200.000	-0.055	0.291
-170.910	196.889	0.147	-0.224
-169.896	-200.000	-0.018	-0.200
-168.881	192.488	0.109	0.164
-167.866	-58.319	0.141	-0.061
-166.852	800.000	-0.024	0.069
-165.837	-118.709	0.371	0.065
-164.823	151.824	0.101	0.137
-163.808	-66.783	0.273	0.107
-162.793	157.598	-0.086	0.118
-161.779	-136.301	-0.192	-0.022
-160.764	-99.706	0.067	-0.017
-159.750	-200.000	-0.013	-0.109
-158.735	275.127	0.108	0.190
-157.720	-78.496	-0.241	-0.082
-156.706	-64.547	-0.203	-0.082
-155.691	41.052	-0.091	-0.082
-154.677	287.740	0.210	0.378
-153.662	-44.489	0.161	0.080
-152.647	-200.000	0.033	0.237
-151.633	609.950	0.080	-0.198
-150.618	-200.000	-0.005	-0.170
-149.604	-47.807	-0.117	0.057
-148.589	-96.458	0.104	0.027
-147.574	64.581	-0.146	-0.146
-146.560	-200.000	-0.007	-0.240
-145.545	-200.000	-0.045	-0.428
-144.531	-200.000	-0.005	-0.048
-143.516	25.168	-0.170	0.140
-142.502	-90.604	-0.008	0.002
-141.487	-67.707	0.167	-0.065
-140.472	115.134	0.164	-0.199
-139.458	37.945	-0.214	-0.189
-138.443	153.033	0.182	-0.247
-137.429	-45.699	0.285	-0.140
-136.414	99.684	-0.251	-0.289
-135.399	800.000	0.112	0.383
-134.385	102.027	0.259	-0.300
-133.370	263.956	0.083	0.143
-132.356	800.000	0.090	-0.277
-131.341	800.000	-0.082	0.270
-130.326	-31.141	0.235	0.132
-129.312	-83.194	-0.042	-0.014
-128.297	-156.266	0.217	-0.014
-127.283	-125.676	-0.045	0.007
-126.268	184.321	-0.161	-0.237
-125.253	800.000	-0.056	0.176
-124.239	-82.704	0.088	0.028
-123.224	-200.000	0.049	-0.242
-122.210	-200.000	-0.012	0.054
-121.195	209.102	-0.027	0.041
-120.180	119.496	0.112	0.137
-119.166	-18.117	0.434	-0.270
-118.151	-17.387	-0.056	-0.035
-117.137	-29.927	0.097	-0.055
-116.122	211.548	0.156	0.243
-115.107	-180.770	0.253	-0.005
-114.093	-200.000	0.004	0.075
-113.078	-200.000	0.012	0.152
-112.064	-130.520	0.414	0.055
-111.049	494.625	0.034	-0.078
-110.034	2.882	-0.378	-0.273
-109.020	110.065	-0.152	-0.181
-108.005	-200.000	-0.021	-0.177
-106.991	-137.672	-0.279	0.031
-105.976	-200.000	0.006	0.220
-104.962	163.570	-0.097	0.136
-103.947	175.812	-0.106	-0.152
-102.932	34.325	0.190	-0.164
-101.918	-19.189	0.104	0.064
-100.903	800.000	-0.055	-0.193
-99.889	29.072	0.071	-0.060
-98.874	169.099	-0.062	-0.088
-97.859	111.031	-0.169	0.202
-96.845	227.571	-0.071	-0.114
-95.830	-11.374	0.170	-0.111
-94.816	327.707	0.068	0.129
-93.801	-105.184	-0.115	0.026
-92.786	28.949	-0.238	-0.200
-91.772	-146.979	0.075	-0.006
-90.757	5.424	0.289	0.211
-89.743	9.770	0.346	0.260
-88.728	-166.311	-0.499	-0.021
-87.713	800.000	-0.031	0.094
-86.699	-7.210	-0.072	0.049
-85.684	-129.135	0.204	-0.028
-84.670	4.353	0.130	-0.094
-83.655	49.023	-0.045	0.042
-82.640	800.000	-0.057	-0.195
-81.626	16.969	0.190	-0.149
-80.611	-43.107	0.130	0.066
-79.597	54.884	-0.185	-0.177
-78.582	-79.099	0.517	0.174
-77.567	-63.549	0.151	0.061
-76.553	-200.000	0.001	-0.068
-75.538	57.488	-0.052	0.050
-74.524	800.000	0.085	-0.279
-73.509	-52.174	-0.132	0.061
-72.494	300.363	-0.066	-0.120
-71.480	580.991	0.144	0.349
-70.465	11.718	-0.135	-0.102
-69.451	71.939	-0.129	0.133
-68.436	404.742	0.124	0.259
-67.422	-200.000	0.056	-0.259
-66.407	98.158	0.292	-0.333
-65.392	70.149	-0.145	-0.148
-64.378	-38.463	-0.088	-0.046
-63.363	787.515	0.047	0.128
-62.349	74.573	0.126	0.132
-61.334	45.337	-0.899	-0.822
-60.319	800.000	0.240	0.696
-59.305	800.000	-0.265	-0.813
-58.290	255.556	0.761	1.293
-57.276	391.304	0.625	1.285
-56.261	-200.000	93.632	538.456
-55.246	595.687	1388.549	3404.314
-54.232	182.417	2625.810	3834.463
-53.217	117.702	2238.614	2729.471
-52.203	44.837	1765.689	1609.356
-51.188	37.625	1573.137	1382.799
-50.173	35.190	1544.893	1340.906
-49.159	52.553	1595.029	1508.376
-48.144	56.100	1613.953	1551.473
-47.130	37.932	1570.285	1382.253
-46.115	34.717	1554.340	1345.558
-45.100	34.519	1551.231	1341.427
-44.086	34.453	1549.227	1339.177
-43.071	34.500	1547.607	1338.048
-42.057	34.526	1545.510	1336.369
-41.042	34.393	1544.686	1334.669
-40.027	34.450	1543.163	1333.702
-39.013	34.500	1540.848	1331.992
-37.998	34.484	1539.856	1330.975
-36.984	34.492	1539.033	1330.266
-35.969	34.494	1537.093	1328.550
-34.954	34.424	1535.995	1327.059
-33.940	34.451	1534.587	1325.980
-32.925	34.475	1532.965	1324.694
-31.911	34.507	1531.825	1323.875
-30.896	34.518	1530.620	1322.857
-29.881	34.495	1528.919	1321.174
-28.867	34.482	1527.592	1319.885
-27.852	34.544	1525.987	1318.876
-26.838	34.536	1524.473	1317.458
-25.823	34.503	1522.779	1315.719
-24.809	34.562	1521.166	1314.679
-23.794	34.542	1520.041	1313.514
-22.779	34.538	1518.729	1312.303
-21.765	34.517	1517.540	1311.081
-20.750	34.452	1516.654	1309.816
-19.736	34.509	1515.037	1308.755
-18.721	34.480	1514.283	1307.857
-17.706	34.512	1512.985	1306.900
-16.692	34.478	1512.401	1306.111
-15.677	34.432	1510.909	1304.454
-14.663	34.488	1510.108	1304.095
-13.648	34.414	1509.615	1303.114
-12.633	34.527	1507.997	1302.435
-11.619	34.492	1507.320	1301.561
-10.604	34.371	1506.463	1299.945
-9.590	34.323	1506.001	1299.163
-8.575	34.441	1504.784	1298.866
-7.560	34.365	1503.823	1297.473
-6.546	34.471	1503.092	1297.506
-5.531	34.357	1502.449	1296.126
-4.517	34.335	1501.748	1295.318
-3.502	34.377	1500.340	1294.340
-2.487	34.345	1499.671	1293.498
-1.473	34.461	1497.609	1292.453
-0.458	34.429	1496.790	1291.477
0.556	35.182	1488.034	1284.003
1.571	32.931	1462.576	1247.078
2.586	29.896	1399.125	1173.659
3.600	28.004	1314.836	1091.567
4.615	25.724	1266.313	1038.060
5.629	21.418	1207.118	965.724
6.644	12.302	1118.195	847.654
7.659	5.156	1074.958	779.233
8.673	4.285	1069.208	770.670
9.688	4.147	1066.751	768.149
10.702	4.041	1065.353	766.547
11.717	4.158	1063.503	765.726
12.731	6.697	1066.252	780.204
13.746	15.127	1078.528	831.114
14.761	20.613	1084.581	863.006
15.775	20.120	1083.097	859.304
16.790	19.162	1080.943	852.777
17.804	18.035	1078.994	845.592
18.819	17.238	1076.710	839.790
19.834	16.806	1075.833	836.895
20.848	16.446	1074.675	834.146
21.863	16.352	1073.643	832.809
22.877	16.057	1073.290	831.008
23.892	15.903	1072.237	829.357
24.907	15.804	1071.325	828.092
25.921	15.835	1070.735	827.713
26.936	15.897	1070.029	827.401
27.950	16.025	1068.014	826.396
28.965	15.865	1067.719	825.310
29.980	15.962	1066.604	824.850
30.994	15.958	1065.676	824.042
32.009	16.188	1064.506	824.187
33.023	16.208	1063.446	823.390
34.038	16.224	1062.935	823.003
35.053	16.161	1061.930	821.846
36.067	16.041	1060.733	820.259
37.082	15.888	1060.034	818.901
38.096	15.848	1059.430	818.170
39.111	16.032	1058.533	818.298
40.126	16.153	1057.679	818.153
41.140	15.990	1057.071	816.821
42.155	15.831	1055.546	814.798
43.169	15.627	1054.603	813.011
44.184	15.587	1053.763	812.099
45.199	15.781	1052.306	811.842
46.213	15.722	1051.251	810.671
47.228	15.669	1050.699	809.919
48.242	15.781	1049.822	809.710
49.257	15.926	1048.687	809.458
50.271	15.927	1047.365	808.372
51.286	15.900	1046.781	807.722
52.301	16.118	1045.606	807.788
53.315	15.975	1045.304	806.798
54.330	15.937	1044.138	805.643
55.344	15.825	1043.669	804.674
56.359	15.747	1042.647	803.441
57.374	15.859	1041.169	802.770
58.388	15.791	1040.823	802.108
59.403	15.719	1039.854	800.947
60.417	15.647	1039.065	799.924
61.432	15.799	1037.788	799.592
62.447	15.749	1037.121	798.770
63.461	15.585	1036.355	797.330
64.476	15.660	1035.547	796.996
65.490	15.483	1034.579	795.343
66.505	15.489	1033.889	794.767
67.520	15.482	1033.165	794.109
68.534	15.611	1032.400	794.061
69.549	15.659	1031.425	793.465
70.563	15.591	1030.736	792.544
71.578	15.592	1030.221	792.086
72.593	15.496	1028.760	790.440
73.607	15.405	1027.845	789.237
74.622	15.446	1026.559	788.373
75.636	15.351	1025.931	787.376
76.651	15.463	1024.989	787.108
77.666	15.384	1024.746	786.481
78.680	15.389	1023.903	785.790
79.695	15.383	1023.811	785.621
80.709	15.497	1022.925	785.406
81.724	15.628	1021.754	785.048
82.739	15.772	1021.032	785.095
83.753	15.773	1020.284	784.453
84.768	15.999	1019.612	784.922
85.782	16.029	1018.598	784.214
86.797	16.218	1018.426	784.890
87.812	16.164	1017.371	783.755
88.826	15.943	1016.612	782.076
89.841	15.946	1015.963	781.522
90.855	15.968	1015.278	781.027
91.870	15.959	1014.979	780.689
92.884	16.131	1013.787	780.497
93.899	15.974	1013.178	779.232
94.914	16.075	1012.265	778.929
95.928	16.126	1011.476	778.485
96.943	16.139	1010.646	777.839
97.957	15.935	1009.929	776.277
98.972	15.909	1009.155	775.495
99.987	16.080	1007.607	775.024
101.001	16.113	1007.791	775.250
102.016	16.118	1006.534	774.235
103.030	15.966	1006.023	773.079
104.045	16.087	1004.762	772.592
105.060	16.173	1003.798	772.178
106.074	16.102	1002.773	770.995
107.089	15.822	1001.888	768.968
108.103	15.745	1000.925	767.809
109.118	15.658	1000.249	766.828
110.133	15.648	999.300	765.985
111.147	15.572	998.459	764.927
112.162	15.613	997.526	764.328
113.176	15.676	996.204	763.538
114.191	15.728	995.592	763.233
115.206	15.863	995.052	763.368
116.220	15.812	993.972	762.240
117.235	15.714	992.973	760.963
118.249	15.684	992.783	760.611
119.264	15.754	991.453	759.845
120.279	15.732	990.555	758.991
121.293	15.665	989.643	757.923
122.308	15.652	988.818	757.164
123.322	15.649	988.081	756.520
124.337	15.481	987.089	754.939
125.352	15.615	986.042	754.672
126.366	15.407	984.986	752.866
127.381	15.527	983.845	752.460
128.395	15.516	982.609	751.402
129.410	15.581	981.907	751.089
130.424	15.478	981.412	750.185
131.439	15.630	980.301	749.947
132.454	15.729	979.630	749.808
133.468	15.704	978.945	749.107
134.483	15.725	978.277	748.622
135.497	15.847	977.455	748.471
136.512	15.729	976.918	747.468
137.527	15.706	976.007	746.601
138.541	15.858	975.065	746.490
139.556	15.797	974.562	745.766
140.570	15.817	973.570	745.030
141.585	15.863	973.294	744.959
142.600	16.071	972.491	745.197
143.614	16.118	971.708	744.736
144.629	16.054	970.913	743.783
145.643	16.149	970.199	743.585
146.658	15.978	969.306	742.082
147.673	15.958	968.207	741.086
148.687	15.866	967.167	739.822
149.702	15.893	965.911	738.916
150.716	15.815	965.296	738.036
151.731	15.800	964.815	737.538
152.746	15.875	963.876	737.083
153.760	15.962	963.241	736.915
154.775	15.858	962.922	736.148
155.789	15.919	962.115	735.733
156.804	16.084	961.233	735.716
157.819	16.045	960.099	734.612
158.833	15.864	959.966	733.654
159.848	16.115	959.440	734.280
160.862	16.115	958.889	733.797
161.877	16.101	958.256	733.185
162.892	16.011	956.713	731.549
163.906	15.794	956.009	730.003
164.921	15.715	954.714	728.608
165.935	15.860	954.198	728.779
166.950	15.851	953.039	727.790
167.964	15.914	952.217	727.369
168.979	16.016	951.020	726.832
169.994	15.926	949.826	725.468
171.008	15.946	949.150	724.974
172.023	15.992	948.241	724.410
173.037	16.128	947.729	724.543
174.052	16.260	947.172	724.615
175.067	16.166	946.408	723.566
176.081	16.072	945.063	722.069
177.096	15.920	944.676	721.062
178.110	15.904	943.781	720.245
179.125	15.973	942.903	719.806
180.140	15.878	942.294	718.872
181.154	15.980	941.527	718.659
182.169	16.101	940.971	718.689
183.183	16.092	940.396	718.145
184.198	16.277	939.888	718.479
185.213	16.316	939.080	717.963
186.227	16.202	938.670	717.105
187.242	16.200	938.011	716.530
188.256	16.351	937.337	716.592
189.271	16.396	936.531	716.101
190.286	16.447	935.610	715.550
191.300	16.310	934.751	714.251
192.315	16.005	933.922	712.267
193.329	15.793	933.193	710.752
194.344	15.871	932.338	710.367
195.359	16.013	931.748	710.452
196.373	16.120	931.442	710.608
197.388	16.074	931.159	710.136
198.402	16.262	930.734	710.539
199.417	16.400	930.214	710.658
200.432	16.538	929.827	710.883
201.446	16.465	929.633	710.362
202.461	16.721	929.202	711.047
203.475	16.732	928.748	710.680
204.490	16.636	927.828	709.513
205.504	16.543	926.692	708.193
206.519	16.577	925.740	707.543
207.534	16.358	925.286	706.217
208.548	16.418	924.665	705.932
209.563	16.513	923.622	705.471
210.577	16.457	922.962	704.670
211.592	16.417	922.871	704.371
212.607	16.572	922.065	704.339
213.621	16.659	921.817	704.451
214.636	16.687	920.844	703.761
215.650	16.696	919.692	702.853
216.665	16.713	919.676	702.850
217.680	16.719	919.223	702.468
218.694	16.841	918.549	702.396
219.709	16.874	917.964	702.022
220.723	16.776	917.016	700.832
221.738	16.722	916.544	700.184
222.753	16.710	915.779	699.487
223.767	16.750	914.614	698.704
224.782	16.772	914.042	698.293
225.796	16.868	913.449	698.173
226.811	16.842	913.331	697.917
227.826	16.995	912.268	697.671
228.840	16.813	911.682	696.413
229.855	16.718	911.300	695.671
230.869	16.853	910.252	695.363
231.884	16.842	909.441	694.635
232.899	16.681	908.861	693.472
233.913	16.631	908.392	692.849
234.928	16.700	907.283	692.224
235.942	16.493	907.010	691.105
236.957	16.545	905.968	690.464
237.972	16.740	905.214	690.625
238.986	16.657	904.682	689.820
240.001	16.689	904.032	689.394
241.015	16.729	903.818	689.330
242.030	16.725	902.589	688.315
243.045	16.834	902.121	688.341
244.059	16.790	901.827	687.879
245.074	16.877	900.678	687.294
246.088	16.906	900.213	686.993
247.103	16.987	900.161	687.222
248.117	17.068	898.956	686.568
249.132	16.972	898.953	686.118
250.147	17.266	898.292	686.741
251.161	17.388	897.524	686.584
252.176	17.455	896.813	686.249
253.190	17.431	895.827	685.338
254.205	17.451	895.465	685.084
255.220	17.511	895.171	685.037
256.234	17.445	894.400	684.122
257.249	17.504	893.865	683.888
258.263	17.413	893.282	683.016
259.278	17.555	892.448	682.890
260.293	17.392	892.232	682.009
261.307	17.539	891.556	682.021
262.322	17.628	891.034	681.919
263.336	17.714	890.059	681.454
264.351	17.592	889.835	680.735
265.366	17.708	889.105	680.581
266.380	17.755	888.333	680.116
267.395	17.591	887.825	679.012
268.409	17.776	886.595	678.748
269.424	17.589	885.789	677.329
270.439	17.635	885.350	677.115
271.453	17.599	884.449	676.225
272.468	17.542	883.887	675.507
273.482	17.490	883.109	674.648
274.497	17.427	882.653	673.990
275.512	17.450	881.938	673.476
276.526	17.564	881.111	673.235
277.541	17.668	880.776	673.331
278.555	17.585	879.926	672.293
279.570	17.535	879.571	671.767
280.585	17.822	879.256	672.598
281.599	17.752	878.490	671.675
282.614	17.750	878.098	671.311
283.628	17.740	877.186	670.513
284.643	17.510	876.839	669.283
285.657	17.583	876.325	669.119
286.672	17.661	875.716	668.903
287.687	17.658	875.313	668.525
288.701	17.696	874.543	668.024
289.716	17.798	873.823	667.816
290.730	17.781	873.381	667.349
291.745	17.753	872.876	666.798
292.760	17.796	871.972	666.216
293.774	17.810	871.412	665.784
294.789	17.928	870.835	665.744
295.803	18.017	870.309	665.631
296.818	17.925	869.030	664.233
297.833	17.879	868.427	663.537
298.847	17.975	867.833	663.395
299.862	17.852	867.195	662.371
300.876	17.869	866.427	661.794
301.891	17.880	866.013	661.462
302.906	18.069	865.257	661.558
303.920	18.091	864.647	661.117
304.935	18.176	864.063	660.941
305.949	18.285	863.631	660.974
306.964	18.270	862.653	660.108
307.979	18.154	862.261	659.303
308.993	18.116	862.033	658.921
310.008	18.245	861.279	658.786
311.022	18.247	860.713	658.303
312.037	18.289	860.386	658.155
313.052	18.149	860.041	657.294
314.066	17.987	858.898	655.740
315.081	17.931	858.669	655.294
316.095	17.954	857.777	654.641
317.110	18.050	857.461	654.713
318.125	18.102	856.363	654.012
319.139	18.012	855.991	653.328
320.154	17.934	855.780	652.813
321.168	17.964	855.407	652.582
322.183	18.139	854.583	652.564
323.197	17.995	854.245	651.698
324.212	17.962	854.129	651.426
325.227	18.006	853.069	650.728
326.241	18.026	852.773	650.522
327.256	18.186	851.739	650.284
328.270	18.167	851.191	649.735
329.285	18.114	850.504	648.951
330.300	18.130	849.861	648.466
331.314	18.102	849.402	647.951
332.329	18.040	848.907	647.281
333.343	18.132	848.217	647.044
334.358	18.284	847.752	647.209
335.373	18.318	847.268	646.909
336.387	18.405	846.295	646.439
337.402	18.444	846.411	646.619
338.416	18.368	845.933	645.910
339.431	18.526	844.859	645.627
340.446	18.609	844.596	645.680
341.460	18.786	843.980	645.816
342.475	18.658	843.619	645.002
343.489	18.832	842.964	645.098
344.504	18.773	842.705	644.621
345.519	18.700	842.210	643.914
346.533	18.839	841.366	643.731
347.548	18.925	840.787	643.554
348.562	18.768	840.100	642.382
349.577	18.787	839.158	641.677
350.592	18.710	838.804	641.062
351.606	18.645	838.309	640.385
352.621	18.589	838.167	640.012
353.635	18.615	837.341	639.420
354.650	18.648	837.165	639.351
355.665	18.596	836.687	638.736
356.679	18.722	836.621	639.100
357.694	18.745	836.027	638.673
358.708	18.675	835.326	637.822
359.723	18.645	834.799	637.252
360.738	18.737	833.954	636.893
361.752	18.675	833.654	636.378
362.767	18.718	833.205	636.139
363.781	18.835	832.960	636.327
364.796	18.912	832.557	636.249
365.810	19.038	831.811	636.086
366.825	19.090	831.487	635.973
367.840	19.211	831.182	636.132
368.854	19.191	831.002	635.867
369.869	19.044	830.401	634.807
370.883	19.011	830.004	634.327
371.898	19.011	829.333	633.755
372.913	19.093	828.601	633.443
373.927	19.179	827.758	633.058
374.942	18.997	827.217	631.918
375.956	19.085	827.149	632.137
376.971	19.197	826.165	631.737
377.986	19.233	825.774	631.514
379.000	19.367	825.114	631.447
380.015	19.448	824.373	631.120
381.029	19.262	823.908	630.026
382.044	19.149	823.686	629.389
383.059	19.356	822.718	629.349
384.073	19.298	822.386	628.828
385.088	19.305	822.090	628.569
386.102	19.153	821.183	627.267
387.117	19.225	820.441	626.907
388.132	19.104	820.088	626.144
389.146	19.185	819.704	626.088
390.161	19.204	819.024	625.582
391.175	19.277	818.856	625.665
392.190	19.365	818.696	625.806
393.205	19.210	818.308	624.893
394.219	19.260	817.512	624.409
395.234	19.308	816.851	624.022
396.248	19.248	816.252	623.294
397.263	19.140	816.131	622.756
398.278	18.993	815.749	621.877
399.292	19.091	815.172	621.735
400.307	19.073	814.547	621.140
401.321	19.197	814.353	621.385
402.336	19.128	813.877	620.717
403.350	19.248	813.546	620.844
404.365	19.330	813.364	620.943
405.380	19.355	812.631	620.419
406.394	19.350	812.266	620.068
407.409	19.556	811.699	620.320
408.423	19.570	811.399	620.086
409.438	19.525	811.096	619.638
410.453	19.615	810.470	619.426
411.467	19.733	809.859	619.328
412.482	19.681	809.488	618.803
413.496	19.832	809.173	619.048
414.511	19.844	808.842	618.785
415.526	19.822	808.586	618.456
416.540	19.897	807.845	618.100
417.555	19.792	807.302	617.256
418.569	19.775	806.675	616.662
419.584	19.780	806.360	616.382
420.599	19.687	806.141	615.831
421.613	154.697	1370.503	1786.970
422.628	134.277	1452.734	1787.061
