DTS Sentinel unit serial number:	SN413079Multiplexer serial number:	ORYXHardware model number:	OX4-SRSoftware version number:	ORYX F/W v4.00 Oryx Data Collector v3.7.2.0data status	okinstallation	princeton_trtdifferential loss correction	single-endedforward channel	channel 3reverse channel	N/Adate	2019/09/15time	05:12:35forward acquisition time	60.00reverse acquisition time	0.00gamma	496.2192k internal	0.2325k external	0.2325temperature offset calibration	0.9976default loss term (dB/km)	0.3790temperature slope calibration	1.0000multiplexer offset coefficient	1.0000multiplexer slope coefficient	1.0000fibre end	0.00T internal ref (°C)	30.62T ext. ref 1 (°C)	4.78T ext. ref 2 (°C)	25.33length (m)	temperature (°C)	Stokes	anti-Stokes-747.200	-159.901	-0.205	-0.011
-746.185	103.016	0.111	0.131
-745.171	-137.434	0.276	-0.032
-744.156	7.069	-0.309	0.233
-743.142	-73.230	0.116	0.043
-742.127	800.000	0.095	0.351
-741.112	-99.080	0.064	0.016
-740.098	-104.380	-0.245	0.057
-739.083	490.116	0.049	0.113
-738.069	800.000	0.054	0.155
-737.054	800.000	0.044	-0.164
-736.039	-200.000	0.006	-0.162
-735.025	-11.361	0.248	0.165
-734.010	-200.000	0.018	0.128
-732.996	120.358	-0.159	-0.199
-731.981	343.108	0.080	-0.159
-730.966	-148.207	0.184	-0.015
-729.952	236.177	-0.161	-0.268
-728.937	377.162	-0.110	-0.226
-727.923	156.784	-0.136	-0.189
-726.908	-137.625	-0.083	-0.009
-725.894	-17.749	-0.146	0.092
-724.879	-200.000	0.003	0.136
-723.864	616.029	0.151	0.381
-722.850	100.441	0.187	0.219
-721.835	150.461	-0.039	-0.053
-720.821	-200.000	-0.032	0.294
-719.806	-200.000	0.051	-0.311
-718.791	56.140	0.053	-0.052
-717.777	-70.609	0.170	0.065
-716.762	-71.456	-0.229	0.086
-715.748	-200.000	-0.022	-0.260
-714.733	297.021	0.056	0.104
-713.718	308.705	-0.040	0.075
-712.704	23.050	0.134	-0.111
-711.689	-148.589	-0.155	-0.013
-710.675	231.188	0.082	-0.135
-709.660	-146.945	0.142	-0.012
-708.645	-200.000	0.031	-0.153
-707.631	413.872	-0.064	0.137
-706.616	-200.000	0.011	0.264
-705.602	329.556	0.097	0.188
-704.587	800.000	0.103	0.291
-703.572	-2.837	-0.228	-0.160
-702.558	-133.510	-0.363	0.046
-701.543	149.097	-0.057	-0.078
-700.529	-200.000	-0.028	-0.228
-699.514	129.338	-0.112	0.144
-698.499	800.000	0.027	0.076
-697.485	-11.770	0.174	0.115
-696.470	-96.762	0.205	-0.054
-695.456	127.968	-0.133	-0.170
-694.441	126.309	-0.161	-0.206
-693.426	9.809	-0.154	0.117
-692.412	23.365	0.265	-0.220
-691.397	-157.032	0.052	-0.003
-690.383	-143.862	-0.125	0.012
-689.368	112.522	0.126	0.153
-688.354	6.275	-0.161	0.120
-687.339	-78.953	-0.174	0.059
-686.324	-49.202	0.179	-0.086
-685.310	-77.065	0.175	-0.062
-684.295	4.599	0.174	-0.129
-683.281	-176.660	-0.049	-0.001
-682.266	-74.412	-0.123	0.045
-681.251	-48.253	0.209	0.101
-680.237	-65.767	0.072	-0.029
-679.222	-54.801	-0.159	0.072
-678.208	800.000	0.020	-0.071
-677.193	-200.000	0.010	-0.391
-676.178	148.985	0.094	-0.127
-675.164	16.262	-0.101	-0.080
-674.149	-148.865	-0.303	0.025
-673.135	340.065	-0.099	-0.195
-672.120	-15.338	-0.162	-0.104
-671.105	52.150	0.170	-0.163
-670.091	50.124	-0.049	0.046
-669.076	13.065	-0.087	-0.068
-668.062	73.837	-0.091	0.096
-667.047	-200.000	-0.040	-0.261
-666.032	-48.195	0.054	-0.026
-665.018	-49.614	0.212	0.102
-664.003	800.000	-0.060	0.179
-662.989	270.868	-0.092	0.163
-661.974	329.595	0.069	-0.134
-660.959	-66.334	-0.191	-0.076
-659.945	-36.613	-0.130	0.070
-658.930	800.000	-0.042	0.140
-657.916	131.393	0.201	-0.260
-656.901	-200.000	-0.078	-0.423
-655.886	393.634	0.068	-0.142
-654.872	-15.922	0.194	-0.124
-653.857	673.280	-0.114	0.298
-652.843	-70.515	0.242	0.092
-651.828	-67.260	0.086	-0.034
-650.814	800.000	0.045	-0.141
-649.799	-200.000	0.011	-0.462
-648.784	-38.968	0.308	-0.163
-647.770	-90.137	-0.133	-0.039
-646.755	-200.000	-0.012	-0.125
-645.741	414.464	-0.070	-0.151
-644.726	-200.000	-0.007	-0.046
-643.711	800.000	0.086	-0.264
-642.697	101.717	0.297	-0.348
-641.682	-200.000	0.015	0.258
-640.668	314.658	-0.249	0.471
-639.653	8.054	0.272	0.205
-638.638	-200.000	0.028	-0.250
-637.624	-200.000	-0.028	-0.170
-636.609	615.489	-0.058	0.147
-635.595	-200.000	-0.033	-0.269
-634.580	-200.000	-0.029	0.275
-633.565	-200.000	0.008	0.189
-632.551	-93.257	-0.256	0.071
-631.536	-189.784	-0.469	-0.005
-630.522	-168.828	0.296	0.011
-629.507	-153.930	0.393	-0.027
-628.492	-37.890	-0.084	0.045
-627.478	-200.000	0.050	0.223
-626.463	308.363	-0.079	0.149
-625.449	-5.970	-0.304	-0.209
-624.434	50.661	0.255	-0.243
-623.419	59.965	-0.230	-0.228
-622.405	363.450	0.086	0.174
-621.390	-200.000	-0.047	0.287
-620.376	800.000	-0.094	-0.285
-619.361	-138.467	0.140	0.015
-618.346	296.030	-0.123	0.227
-617.332	800.000	-0.024	-0.082
-616.317	-130.993	-0.226	0.030
-615.303	58.276	-0.267	-0.263
-614.288	104.549	0.173	0.205
-613.273	-145.571	-0.271	-0.024
-612.259	-51.447	0.165	0.077
-611.244	16.784	0.032	-0.026
-610.230	-3.889	0.328	-0.228
-609.215	-200.000	0.025	0.242
-608.201	-7.686	0.168	-0.114
-607.186	800.000	0.048	-0.153
-606.171	-25.023	0.420	0.250
-605.157	-110.465	-0.310	0.065
-604.142	-62.878	-0.381	-0.158
-603.128	242.615	0.069	-0.116
-602.113	397.972	-0.150	-0.315
-601.098	-129.374	-0.173	-0.024
-600.084	181.749	-0.245	-0.361
-599.069	-200.000	-0.012	0.118
-598.055	-13.989	0.216	0.140
-597.040	800.000	-0.085	-0.329
-596.025	-200.000	-0.080	-0.456
-595.011	-99.678	0.061	0.015
-593.996	-16.447	0.091	-0.058
-592.982	264.476	-0.109	-0.191
-591.967	32.266	-0.196	-0.170
-590.952	242.637	0.166	-0.280
-589.938	-155.166	-0.151	-0.010
-588.923	-49.613	-0.345	-0.165
-587.909	418.253	-0.113	0.242
-586.894	521.843	0.058	-0.137
-585.879	17.143	0.043	-0.035
-584.865	-157.795	-0.168	-0.010
-583.850	-41.186	0.113	0.059
-582.836	-63.298	-0.218	-0.090
-581.821	68.530	0.116	0.119
-580.806	-62.491	0.401	-0.167
-579.792	139.367	0.192	-0.253
-578.777	800.000	-0.058	-0.190
-577.763	-200.000	0.014	0.157
-576.748	190.813	-0.018	0.028
-575.733	315.453	-0.127	-0.240
-574.719	157.931	0.086	-0.120
-573.704	-47.672	0.094	-0.046
-572.690	380.154	0.129	-0.265
-571.675	-200.000	-0.028	0.316
-570.661	-104.163	0.348	-0.081
-569.646	132.768	0.249	-0.322
-568.631	-188.805	0.342	-0.004
-567.617	163.871	-0.115	-0.162
-566.602	-200.000	-0.000	0.106
-565.588	800.000	-0.105	-0.292
-564.573	47.195	0.092	-0.086
-563.558	207.232	0.051	-0.079
-562.544	-157.341	0.116	-0.007
-561.529	-38.524	-0.117	-0.062
-560.515	-200.000	-0.052	-0.246
-559.500	220.480	-0.163	0.262
-558.485	800.000	-0.030	0.119
-557.471	47.485	0.240	0.224
-556.456	-99.571	-0.295	-0.074
-555.442	566.649	-0.128	-0.310
-554.427	-3.904	0.084	0.058
-553.412	-18.838	0.114	0.071
-552.398	-144.699	0.203	-0.019
-551.383	800.000	-0.068	0.291
-550.369	-112.603	-0.308	0.061
-549.354	326.565	-0.096	-0.184
-548.339	-133.001	-0.146	0.019
-547.325	340.068	0.145	0.283
-546.310	-39.236	-0.036	0.019
-545.296	19.528	0.064	-0.051
-544.281	178.884	0.126	-0.185
-543.266	-21.801	-0.300	-0.182
-542.252	453.317	-0.141	0.312
-541.237	-31.485	-0.109	0.061
-540.223	-26.549	-0.109	0.064
-539.208	-200.000	-0.025	0.112
-538.193	67.977	0.210	0.215
-537.179	33.010	-0.245	-0.213
-536.164	273.375	0.079	0.139
-535.150	-200.000	0.006	0.163
-534.135	177.552	-0.101	-0.147
-533.121	-36.855	0.172	0.092
-532.106	-1.287	0.075	0.053
-531.091	-35.211	0.323	-0.176
-530.077	800.000	-0.019	-0.057
-529.062	52.148	-0.064	-0.061
-528.048	434.542	0.120	-0.260
-527.033	-124.886	0.335	-0.052
-526.018	2.938	-0.258	-0.187
-525.004	50.545	-0.042	0.040
-523.989	97.450	0.145	0.166
-522.975	3.483	0.167	-0.122
-521.960	149.052	0.171	0.231
-520.945	49.605	-0.223	-0.210
-519.931	-21.910	-0.297	0.181
-518.916	-59.062	-0.207	-0.089
-517.902	800.000	0.098	0.307
-516.887	26.776	0.039	-0.033
-515.872	-81.023	-0.494	-0.164
-514.858	-12.561	0.267	0.174
-513.843	-200.000	0.035	-0.161
-512.829	6.976	0.285	-0.212
-511.814	25.014	-0.081	0.068
-510.799	-200.000	0.023	0.573
-509.785	102.789	0.255	0.299
-508.770	-2.794	-0.416	0.290
-507.756	-85.229	0.024	0.008
-506.741	264.613	-0.016	-0.029
-505.726	474.151	0.103	0.232
-504.712	-200.000	-0.015	0.280
-503.697	343.171	0.146	-0.286
-502.683	-101.472	0.268	-0.065
-501.668	233.210	-0.104	-0.171
-500.653	151.845	0.066	0.089
-499.639	198.379	0.111	-0.169
-498.624	-27.606	0.328	-0.191
-497.610	55.994	0.166	0.161
-496.595	-1.275	0.294	0.207
-495.581	651.797	0.105	-0.268
-494.566	-96.840	-0.247	-0.065
-493.551	-200.000	0.037	0.442
-492.537	-9.087	-0.061	-0.041
-491.522	-20.018	0.178	-0.109
-490.508	159.919	-0.095	-0.132
-489.493	-146.796	0.142	-0.012
-488.478	-200.000	-0.020	0.108
-487.464	380.672	-0.080	-0.164
-486.449	-44.662	0.441	0.220
-485.435	65.529	-0.126	0.127
-484.420	-120.782	-0.268	-0.045
-483.405	443.873	-0.062	-0.136
-482.391	-96.368	0.298	-0.079
-481.376	218.292	-0.162	-0.258
-480.362	-38.039	-0.273	0.145
-479.347	-26.279	-0.075	0.044
-478.332	191.076	-0.181	-0.273
-477.318	-175.679	0.144	-0.004
-476.303	106.103	-0.129	0.153
-475.289	-116.307	0.395	0.073
-474.274	343.806	0.092	0.180
-473.259	-109.609	0.191	0.040
-472.245	304.893	0.029	0.054
-471.230	718.817	-0.074	0.195
-470.216	76.689	0.078	-0.083
-469.201	23.464	0.170	0.140
-468.186	-111.416	-0.114	-0.023
-467.172	-200.000	-0.029	-0.187
-466.157	269.882	-0.115	-0.202
-465.143	625.152	-0.090	-0.226
-464.128	-6.754	0.176	-0.120
-463.113	800.000	0.050	-0.193
-462.099	99.041	-0.225	-0.260
-461.084	-108.290	0.205	0.044
-460.070	2.748	-0.287	0.208
-459.055	-107.126	-0.301	0.066
-458.040	-200.000	0.038	0.273
-457.026	-20.862	0.439	0.269
-456.011	189.532	-0.140	-0.210
-454.997	-165.578	-0.374	-0.016
-453.982	-0.136	0.126	-0.090
-452.968	452.422	-0.082	-0.181
-451.953	345.826	0.100	-0.196
-450.938	492.286	-0.085	-0.194
-449.924	-200.000	-0.033	-0.204
-448.909	271.858	-0.093	0.164
-447.895	103.013	-0.087	0.102
-446.880	566.673	0.035	-0.084
-445.865	-12.007	0.163	-0.106
-444.851	78.217	0.047	-0.050
-443.836	-200.000	0.052	-0.308
-442.822	-200.000	0.006	0.131
-441.807	-50.432	0.281	0.132
-440.792	189.213	-0.129	-0.192
-439.778	271.024	-0.066	0.116
-438.763	-93.048	-0.155	-0.043
-437.749	-200.000	0.066	-0.346
-436.734	285.233	0.135	0.243
-435.719	-44.463	0.228	0.114
-434.705	241.933	0.143	0.239
-433.690	14.879	-0.363	0.283
-432.676	52.056	0.046	-0.044
-431.661	119.250	0.078	0.097
-430.646	-12.212	-0.482	0.314
-429.632	-126.879	0.230	-0.034
-428.617	171.076	0.024	0.034
-427.603	-104.327	0.326	0.075
-426.588	234.646	0.062	0.102
-425.573	800.000	-0.039	-0.152
-424.559	683.984	-0.039	-0.102
-423.544	-55.250	0.288	-0.129
-422.530	306.677	-0.142	-0.264
-421.515	-200.000	-0.019	-0.232
-420.500	162.051	-0.076	-0.106
-419.486	-12.699	-0.120	-0.078
-418.471	-190.199	0.281	0.003
-417.457	260.214	-0.087	-0.150
-416.442	-2.373	-0.187	0.131
-415.428	11.957	0.361	0.276
-414.413	393.186	0.115	0.239
-413.398	-6.393	-0.321	0.218
-412.384	-20.849	0.158	-0.097
-411.369	-136.605	-0.284	-0.033
-410.355	-30.612	-0.224	0.126
-409.340	98.592	-0.308	0.353
-408.325	383.863	0.089	0.183
-407.311	-55.510	-0.067	0.030
-406.296	-96.402	0.205	-0.054
-405.282	-200.000	-0.027	0.175
-404.267	-108.680	-0.333	0.071
-403.252	55.919	-0.183	0.177
-402.238	365.158	0.127	0.254
-401.223	302.605	-0.173	0.318
-400.209	-200.000	-0.001	-0.100
-399.194	-79.750	0.436	-0.146
-398.179	412.985	-0.096	0.203
-397.165	800.000	0.039	-0.122
-396.150	-124.257	0.331	-0.052
-395.136	697.260	-0.091	0.237
-394.121	800.000	-0.025	0.074
-393.106	-149.065	-0.081	-0.006
-392.092	43.188	-0.101	-0.092
-391.077	-200.000	-0.005	-0.166
-390.063	146.268	0.133	0.178
-389.048	-69.604	0.166	0.063
-388.033	-200.000	0.001	-0.210
-387.019	-148.809	-0.322	-0.026
-386.004	800.000	-0.091	-0.262
-384.990	-28.929	0.269	0.154
-383.975	-105.170	0.173	-0.039
-382.960	-200.000	0.001	-0.159
-381.946	97.779	0.170	-0.194
-380.931	800.000	-0.140	-0.571
-379.917	-63.529	0.158	0.064
-378.902	-126.423	-0.244	0.036
-377.888	775.950	0.090	-0.244
-376.873	107.790	-0.201	0.238
-375.858	-131.601	-0.378	0.049
-374.844	298.899	-0.069	0.126
-373.829	69.543	-0.305	-0.312
-372.815	134.366	0.122	-0.158
-371.800	-44.261	-0.102	-0.051
-370.785	-118.864	0.312	-0.054
-369.771	800.000	-0.071	-0.200
-368.756	437.039	0.069	0.150
-367.742	-200.000	-0.066	0.299
-366.727	-128.154	-0.238	0.034
-365.712	335.895	-0.208	0.402
-364.698	-200.000	0.016	0.189
-363.683	57.377	0.150	-0.146
-362.669	-100.986	-0.128	0.031
-361.654	6.336	0.124	-0.092
-360.639	-3.228	-0.168	0.117
-359.625	-200.000	0.016	0.107
-358.610	-83.114	-0.398	-0.127
-357.596	-81.245	0.316	-0.104
-356.581	-33.565	-0.037	0.020
-355.566	-62.888	0.132	0.054
-354.552	28.952	-0.132	-0.111
-353.537	23.023	-0.136	0.111
-352.523	-134.081	-0.102	0.013
-351.508	38.091	0.218	0.192
-350.493	-45.459	-0.304	0.150
-349.479	555.865	0.099	-0.238
-348.464	400.872	-0.118	-0.245
-347.450	-200.000	0.001	0.143
-346.435	683.066	0.047	-0.123
-345.420	400.499	0.017	-0.036
-344.406	-118.705	-0.177	-0.031
-343.391	-11.771	-0.186	0.121
-342.377	-29.905	-0.273	0.154
-341.362	174.255	-0.239	0.343
-340.348	-97.337	-0.100	-0.026
-339.333	-71.128	0.561	-0.209
-338.318	-200.000	0.044	-0.260
-337.304	-167.258	0.588	0.024
-336.289	-92.788	0.021	0.006
-335.275	-115.201	-0.292	-0.055
-334.260	-112.114	-0.380	-0.076
-333.245	466.872	0.120	0.268
-332.231	-200.000	-0.091	0.459
-331.216	-200.000	0.036	0.340
-330.202	800.000	0.110	0.339
-329.187	527.500	0.129	0.302
-328.172	-10.290	-0.152	-0.100
-327.158	-123.759	-0.424	-0.067
-326.143	457.453	0.034	-0.074
-325.129	159.375	-0.039	0.054
-324.114	-84.507	0.061	-0.019
-323.099	93.489	-0.290	0.326
-322.085	129.709	0.148	0.188
-321.070	-35.278	0.167	0.090
-320.056	-200.000	0.001	-0.098
-319.041	-17.936	-0.125	0.078
-318.026	165.397	0.200	0.281
-317.012	105.232	0.130	-0.153
-315.997	28.170	0.128	0.107
-314.983	-200.000	0.051	0.235
-313.968	87.737	-0.170	-0.187
-312.953	-200.000	-0.000	-0.398
-311.939	-200.000	-0.030	-0.191
-310.924	684.951	0.045	0.116
-309.910	313.956	-0.084	-0.158
-308.895	-200.000	-0.020	-0.138
-307.880	252.405	0.167	-0.282
-306.866	-200.000	0.021	-0.398
-305.851	264.689	-0.153	0.264
-304.837	80.779	-0.193	0.207
-303.822	51.329	-0.049	0.046
-302.807	324.087	-0.094	-0.178
-301.793	-200.000	0.008	-0.185
-300.778	-90.092	0.315	-0.091
-299.764	-1.176	-0.172	0.121
-298.749	32.865	-0.021	-0.018
-297.735	215.213	0.131	-0.206
-296.720	428.714	-0.021	0.045
-295.705	-125.291	0.180	-0.027
-294.691	-200.000	-0.052	0.356
-293.676	800.000	0.053	-0.175
-292.662	295.488	0.199	0.361
-291.647	-156.446	-0.174	0.011
-290.632	733.758	0.054	0.144
-289.618	-81.349	0.197	0.064
-288.603	-98.705	0.254	-0.064
-287.589	43.266	0.377	-0.342
-286.574	276.529	0.083	-0.147
-285.559	97.187	-0.185	0.210
-284.545	-24.763	-0.279	-0.165
-283.530	-200.000	-0.025	-0.224
-282.516	175.381	-0.147	0.211
-281.501	-174.368	-0.180	-0.005
-280.486	22.307	-0.099	0.080
-279.472	-200.000	-0.017	-0.281
-278.457	800.000	0.036	-0.143
-277.443	210.070	0.099	0.153
-276.428	-49.023	0.288	-0.137
-275.413	-200.000	-0.034	0.325
-274.399	106.149	-0.241	-0.282
-273.384	-200.000	0.016	-0.070
-272.370	-200.000	0.049	0.539
-271.355	-200.000	0.045	-0.211
-270.340	-40.598	0.091	0.047
-269.326	-89.593	0.089	-0.026
-268.311	519.025	-0.038	-0.089
-267.297	800.000	-0.045	-0.185
-266.282	137.358	0.142	-0.185
-265.267	19.197	-0.260	0.207
-264.253	-137.560	-0.230	-0.026
-263.238	-131.417	0.259	0.034
-262.224	76.727	0.238	0.250
-261.209	-101.562	0.355	-0.085
-260.195	172.782	0.127	-0.181
-259.180	411.001	0.048	-0.102
-258.165	-200.000	-0.023	-0.227
-257.151	-200.000	-0.035	-0.397
-256.136	487.150	0.096	-0.216
-255.122	800.000	-0.061	-0.244
-254.107	800.000	0.148	0.406
-253.092	-38.812	-0.198	0.103
-252.078	681.315	0.026	-0.067
-251.063	-137.542	0.247	0.028
-250.049	19.774	-0.270	0.215
-249.034	-200.000	0.010	0.116
-248.019	241.738	-0.159	-0.263
-247.005	-22.934	-0.089	0.053
-245.990	-86.653	-0.219	0.066
-244.976	649.226	0.023	-0.059
-243.961	800.000	0.020	-0.086
-242.946	-132.984	-0.140	-0.018
-241.932	800.000	-0.014	0.059
-240.917	-112.774	-0.083	-0.016
-239.903	102.769	0.276	0.320
-238.888	-200.000	0.009	-0.128
-237.873	-141.555	0.305	-0.030
-236.859	395.231	0.042	0.086
-235.844	272.251	0.063	-0.110
-234.830	370.488	0.140	0.280
-233.815	49.149	0.212	-0.197
-232.800	582.910	-0.061	-0.149
-231.786	-54.535	-0.188	-0.084
-230.771	78.937	0.152	-0.161
-229.757	-70.170	-0.243	-0.091
-228.742	31.802	0.086	0.073
-227.727	-200.000	-0.014	0.120
-226.713	47.390	-0.148	0.136
-225.698	56.214	-0.047	0.045
-224.684	-173.645	0.264	-0.008
-223.669	-93.119	-0.383	-0.105
-222.655	13.449	-0.116	0.089
-221.640	421.155	-0.223	-0.472
-220.625	-14.207	-0.049	0.031
-219.611	-200.000	0.026	0.134
-218.596	-200.000	0.015	0.139
-217.582	76.718	0.135	-0.142
-216.567	-148.963	-0.193	0.015
-215.552	-95.851	-0.212	-0.056
-214.538	76.637	-0.070	0.074
-213.523	-50.053	-0.148	-0.069
-212.509	-64.158	0.144	-0.058
-211.494	-200.000	0.006	0.223
-210.479	30.927	-0.110	0.093
-209.465	275.599	-0.084	-0.147
-208.450	-55.507	-0.165	-0.073
-207.436	269.131	-0.150	0.260
-206.421	707.756	0.095	0.249
-205.406	-26.765	-0.173	0.100
-204.392	91.569	-0.219	0.243
-203.377	9.074	-0.107	-0.079
-202.363	-97.011	0.551	-0.143
-201.348	252.723	0.079	-0.133
-200.333	-200.000	0.008	-0.118
-199.319	-109.536	0.179	0.037
-198.304	13.053	-0.346	0.264
-197.290	-200.000	-0.008	0.316
-196.275	-96.559	0.082	0.021
-195.260	24.536	0.211	-0.172
-194.246	575.940	-0.154	-0.371
-193.231	-58.761	0.129	-0.055
-192.217	153.285	-0.296	0.400
-191.202	-58.938	0.152	0.065
-190.187	-200.000	0.043	-0.388
-189.173	-10.228	-0.026	0.017
-188.158	135.744	-0.064	-0.082
-187.144	-25.792	-0.161	-0.094
-186.129	-97.613	0.258	0.066
-185.114	-200.000	-0.039	0.347
-184.100	-124.903	0.391	0.059
-183.085	326.044	-0.208	0.394
-182.071	90.225	0.243	0.268
-181.056	800.000	-0.074	0.237
-180.042	32.233	0.279	0.238
-179.027	-100.179	0.177	0.043
-178.012	800.000	0.035	0.102
-176.998	65.052	0.096	0.095
-175.983	191.134	0.126	0.187
-174.969	781.722	-0.097	-0.262
-173.954	35.204	0.073	0.063
-172.939	-97.780	0.161	-0.041
-171.925	7.990	-0.093	-0.069
-170.910	-78.548	0.182	-0.062
-169.896	433.665	-0.067	-0.144
-168.881	-111.327	0.095	0.019
-167.866	-117.369	-0.216	0.039
-166.852	-198.176	0.125	0.001
-165.837	355.047	-0.108	0.213
-164.823	-200.000	0.024	0.368
-163.808	149.956	0.067	-0.090
-162.793	-161.390	0.079	-0.004
-161.779	-200.000	-0.004	0.126
-160.764	-200.000	-0.030	0.232
-159.750	99.523	0.268	-0.306
-158.735	-156.803	-0.177	-0.011
-157.720	-200.000	-0.043	0.433
-156.706	-75.540	-0.097	-0.034
-155.691	21.872	0.248	-0.199
-154.677	-123.732	-0.169	-0.026
-153.662	214.391	-0.219	0.342
-152.647	36.652	0.109	-0.095
-151.633	104.814	-0.094	0.109
-150.618	-125.125	0.206	-0.031
-149.604	800.000	0.063	0.190
-148.589	-200.000	0.047	0.309
-147.574	-200.000	-0.013	-0.147
-146.560	141.275	-0.222	0.289
-145.545	373.477	-0.303	-0.608
-144.531	81.693	-0.248	0.265
-143.516	44.153	0.252	-0.228
-142.502	1.924	-0.134	-0.095
-141.487	-133.368	-0.274	0.034
-140.472	-200.000	-0.019	-0.153
-139.458	-167.884	0.412	0.016
-138.443	-40.085	-0.159	-0.081
-137.429	800.000	-0.052	0.193
-136.414	104.004	-0.158	-0.183
-135.399	0.567	0.401	-0.283
-134.385	-127.111	-0.257	0.037
-133.370	800.000	-0.124	0.360
-132.356	-42.213	0.275	0.138
-131.341	-13.013	-0.524	-0.336
-130.326	-133.443	0.315	0.039
-129.312	716.894	-0.124	-0.323
-128.297	-189.813	-0.197	0.002
-127.283	111.549	-0.232	-0.276
-126.268	90.062	0.108	0.119
-125.253	26.484	0.077	-0.064
-124.239	131.626	0.140	0.178
-123.224	50.865	0.189	0.176
-122.210	187.694	0.061	0.090
-121.195	84.891	0.133	0.144
-120.180	124.602	0.076	-0.094
-119.166	192.297	-0.103	-0.153
-118.151	-138.245	-0.353	-0.038
-117.137	94.835	0.270	0.302
-116.122	191.034	-0.165	-0.244
-115.107	73.302	-0.138	0.142
-114.093	-73.591	-0.190	0.068
-113.078	131.462	-0.111	-0.141
-112.064	-148.272	-0.114	-0.009
-111.049	9.981	0.207	0.155
-110.034	-39.748	0.046	0.023
-109.020	144.684	0.134	-0.177
-108.005	136.777	0.045	0.058
-106.991	3.856	-0.128	-0.092
-105.976	-11.635	-0.136	-0.088
-104.962	73.865	-0.125	-0.129
-103.947	800.000	-0.062	-0.216
-102.932	-108.014	-0.342	-0.073
-101.918	5.156	0.059	-0.043
-100.903	800.000	-0.066	-0.228
-99.889	124.447	-0.217	0.269
-98.874	-81.659	0.149	0.048
-97.859	-200.000	-0.074	-0.354
-96.845	-200.000	-0.005	0.129
-95.830	-190.664	-0.228	-0.002
-94.816	790.369	0.024	0.066
-93.801	-133.097	-0.116	-0.014
-92.786	800.000	-0.110	0.349
-91.772	92.409	0.193	0.215
-90.757	2.508	-0.227	0.162
-89.743	-66.640	0.241	0.094
-88.728	82.242	-0.225	0.240
-87.713	-17.214	-0.220	-0.136
-86.699	-148.809	0.199	0.016
-85.684	259.900	0.063	0.108
-84.670	-25.863	-0.112	-0.065
-83.655	-58.222	0.378	0.162
-82.640	-13.604	-0.259	0.165
-81.626	-200.000	-0.007	-0.238
-80.611	-52.473	0.080	0.036
-79.597	54.570	0.144	-0.136
-78.582	-64.228	-0.143	0.057
-77.567	39.747	-0.220	0.194
-76.553	81.589	-0.091	-0.097
-75.538	66.935	0.135	0.135
-74.524	-99.901	-0.321	0.079
-73.509	-157.060	0.198	0.012
-72.494	-60.909	-0.276	0.115
-71.480	1.372	-0.209	-0.147
-70.465	-70.187	0.414	0.155
-69.451	800.000	0.106	0.449
-68.436	800.000	-0.084	0.280
-67.422	-63.579	0.380	0.153
-66.407	-86.129	-0.169	-0.051
-65.392	-93.382	0.242	-0.066
-64.378	-2.078	-0.219	-0.151
-63.363	-200.000	-0.003	0.234
-62.349	71.133	-0.190	0.193
-61.334	69.548	-1.100	-1.113
-60.319	129.086	0.330	0.414
-59.305	738.573	-0.433	-1.141
-58.290	588.152	0.468	1.133
-57.276	599.242	0.627	1.528
-56.261	-200.000	103.083	588.186
-55.246	549.762	1436.050	3381.885
-54.232	187.249	2623.108	3842.253
-53.217	114.595	2166.351	2592.824
-52.203	41.239	1695.651	1505.504
-51.188	33.711	1505.663	1285.996
-50.173	31.361	1478.878	1247.406
-49.159	51.819	1532.172	1431.920
-48.144	52.756	1549.408	1454.342
-47.130	33.819	1507.545	1288.135
-46.115	30.925	1492.096	1255.414
-45.100	30.735	1488.708	1251.236
-44.086	30.700	1486.379	1248.999
-43.071	30.599	1484.781	1246.930
-42.057	30.629	1482.588	1245.239
-41.042	30.659	1481.338	1244.342
-40.027	30.631	1479.526	1242.580
-39.013	30.541	1478.488	1241.056
-37.998	30.634	1476.899	1240.294
-36.984	30.679	1475.598	1239.455
-35.969	30.653	1474.362	1238.194
-34.954	30.568	1472.945	1236.387
-33.940	30.634	1471.772	1235.794
-32.925	30.647	1470.791	1235.009
-31.911	30.713	1468.796	1233.723
-30.896	30.713	1467.802	1232.837
-29.881	30.708	1466.306	1231.496
-28.867	30.783	1465.073	1230.907
-27.852	30.677	1464.056	1229.302
-26.838	30.729	1462.552	1228.334
-25.823	30.670	1460.750	1226.384
-24.809	30.621	1459.558	1225.016
-23.794	30.616	1458.113	1223.722
-22.779	30.582	1457.487	1222.924
-21.765	30.641	1456.116	1222.113
-20.750	30.744	1454.373	1221.273
-19.736	30.569	1453.911	1219.690
-18.721	30.485	1453.011	1218.337
-17.706	30.691	1451.738	1218.571
-16.692	30.654	1450.472	1217.218
-15.677	30.621	1449.529	1216.163
-14.663	30.630	1448.761	1215.530
-13.648	30.623	1447.241	1214.159
-12.633	30.682	1445.947	1213.407
-11.619	30.526	1445.962	1212.358
-10.604	30.577	1444.875	1211.732
-9.590	30.634	1443.811	1211.160
-8.575	30.654	1443.234	1210.761
-7.560	30.548	1442.202	1209.157
-6.546	30.575	1441.805	1208.952
-5.531	30.468	1440.873	1207.424
-4.517	30.612	1439.745	1207.364
-3.502	30.567	1438.829	1206.261
-2.487	30.613	1437.561	1205.445
-1.473	30.576	1436.542	1204.304
-0.458	30.570	1435.101	1203.009
0.556	29.374	1425.571	1191.974
1.571	26.527	1400.720	1152.981
2.586	23.087	1342.640	1084.029
3.600	21.456	1262.868	1010.122
4.615	20.225	1217.479	966.870
5.629	17.680	1161.969	909.149
6.644	10.802	1080.688	811.249
7.659	5.520	1043.049	757.417
8.673	4.959	1037.736	750.792
9.688	4.844	1034.382	747.743
10.702	4.706	1032.617	745.740
11.717	4.612	1031.359	744.317
12.731	6.741	1031.943	754.863
13.746	13.263	1041.223	792.959
14.761	18.191	1047.476	821.371
15.775	18.353	1046.670	821.443
16.790	17.558	1044.507	815.867
17.804	16.332	1042.529	808.382
18.819	15.496	1040.410	802.671
19.834	15.099	1038.628	799.334
20.848	14.739	1038.486	797.436
21.863	14.495	1037.502	795.447
22.877	14.266	1036.800	793.746
23.892	14.154	1036.152	792.642
24.907	14.073	1035.005	791.311
25.921	13.979	1034.911	790.723
26.936	14.073	1033.616	790.111
27.950	14.145	1032.497	789.526
28.965	14.116	1031.962	788.911
29.980	14.136	1030.566	787.869
30.994	14.293	1029.486	787.716
32.009	14.386	1028.321	787.192
33.023	14.482	1027.582	787.009
34.038	14.205	1027.358	785.464
35.053	14.433	1025.792	785.272
36.067	14.249	1024.990	783.722
37.082	14.177	1024.214	782.718
38.096	14.198	1023.525	782.223
39.111	14.271	1022.553	781.753
40.126	14.279	1021.995	781.296
41.140	14.256	1020.402	779.898
42.155	14.145	1019.039	778.269
43.169	13.997	1018.555	777.140
44.184	13.979	1017.142	775.906
45.199	14.027	1016.438	775.526
46.213	14.025	1015.451	774.696
47.228	13.927	1014.646	773.556
48.242	14.124	1013.792	773.752
49.257	14.086	1013.337	773.160
50.271	14.120	1011.856	772.122
51.286	14.373	1010.383	772.101
52.301	14.242	1009.988	771.122
53.315	14.061	1009.832	770.099
54.330	14.114	1008.404	769.185
55.344	14.200	1007.587	768.894
56.359	14.137	1006.289	767.543
57.374	14.111	1005.581	766.817
58.388	14.127	1004.738	766.178
59.403	14.036	1003.887	765.041
60.417	13.999	1003.721	764.679
61.432	13.803	1003.099	763.233
62.447	13.936	1002.226	763.113
63.461	13.899	1001.547	762.361
64.476	13.771	1000.519	760.923
65.490	13.880	999.504	760.584
66.505	13.896	998.621	759.918
67.520	13.863	997.693	758.992
68.534	13.929	997.184	758.838
69.549	13.807	996.527	757.716
70.563	13.927	995.547	757.453
71.578	14.019	994.362	756.901
72.593	13.919	993.788	755.943
73.607	13.843	992.704	754.707
74.622	13.740	992.315	753.876
75.636	13.707	991.047	752.696
76.651	13.751	990.554	752.455
77.666	13.753	989.786	751.814
78.680	13.803	989.239	751.558
79.695	13.887	988.220	751.096
80.709	13.853	987.719	750.497
81.724	13.986	987.150	750.596
82.739	13.929	986.464	749.753
83.753	13.980	985.847	749.449
84.768	14.114	984.704	749.117
85.782	14.249	984.509	749.511
86.797	14.259	983.916	749.038
87.812	14.235	983.091	748.235
88.826	14.340	981.661	747.553
89.841	14.038	981.469	745.984
90.855	14.244	980.645	746.214
91.870	14.239	979.908	745.565
92.884	14.344	978.882	745.189
93.899	14.232	977.971	743.928
94.914	14.387	977.626	744.292
95.928	14.342	976.851	743.436
96.943	14.453	975.690	742.981
97.957	14.317	975.314	742.024
98.972	14.348	974.357	741.367
99.987	14.256	973.790	740.461
101.001	14.292	972.957	739.921
102.016	14.380	972.159	739.643
103.030	14.314	971.229	738.575
104.045	14.199	970.823	737.693
105.060	14.382	969.411	737.362
106.074	14.284	968.430	736.121
107.089	14.182	967.617	734.983
108.103	14.140	966.843	734.148
109.118	13.905	966.191	732.550
110.133	14.054	965.109	732.319
111.147	14.017	964.118	731.341
112.162	14.001	963.441	730.695
113.176	13.952	963.118	730.169
114.191	14.014	961.903	729.454
115.206	14.013	961.238	728.879
116.220	14.235	959.824	728.716
117.235	14.020	959.487	727.456
118.249	14.163	958.113	726.973
119.264	14.115	957.807	726.466
120.279	14.003	957.108	725.384
121.293	14.067	956.523	725.157
122.308	13.945	955.641	723.893
123.322	13.909	954.835	723.062
124.337	13.889	953.857	722.170
125.352	13.965	952.669	721.537
126.366	13.927	951.836	720.676
127.381	13.902	950.598	719.565
128.395	13.963	949.180	718.692
129.410	14.088	948.391	718.572
130.424	13.941	948.123	717.672
131.439	13.976	947.187	717.050
132.454	14.025	946.306	716.532
133.468	14.196	945.344	716.477
134.483	14.104	944.954	715.720
135.497	14.221	944.195	715.587
136.512	14.075	943.627	714.463
137.527	14.117	942.791	713.950
138.541	14.225	941.712	713.530
139.556	14.139	940.946	712.519
140.570	14.048	940.681	711.864
141.585	13.991	940.146	711.154
142.600	14.289	939.300	711.726
143.614	14.217	938.854	711.017
144.629	14.305	937.680	710.439
145.643	14.420	936.720	710.139
146.658	14.335	936.118	709.260
147.673	14.303	935.347	708.476
148.687	14.313	934.552	707.852
149.702	14.192	933.902	706.786
150.716	14.175	932.727	705.762
151.731	14.109	932.111	704.954
152.746	14.121	931.353	704.369
153.760	14.117	930.492	703.639
154.775	14.230	929.817	703.543
155.789	14.302	929.388	703.461
156.804	14.282	928.584	702.705
157.819	14.275	927.460	701.763
158.833	14.325	926.967	701.538
159.848	14.488	926.505	701.810
160.862	14.453	925.776	701.050
161.877	14.371	925.125	700.150
162.892	14.312	923.940	698.946
163.906	14.387	923.096	698.560
164.921	14.199	922.399	697.184
165.935	14.183	921.309	696.230
166.950	14.292	920.134	695.737
167.964	14.289	919.501	695.182
168.979	14.305	918.537	694.461
169.994	14.258	917.660	693.541
171.008	14.250	916.823	692.810
172.023	14.427	915.779	692.697
173.037	14.344	915.292	691.922
174.052	14.475	914.501	691.807
175.067	14.539	913.941	691.589
176.081	14.388	912.911	690.122
177.096	14.324	912.402	689.413
178.110	14.250	911.479	688.345
179.125	14.280	910.671	687.801
180.140	14.388	909.767	687.500
181.154	14.380	909.240	687.009
182.169	14.391	908.788	686.651
183.183	14.465	908.416	686.617
184.198	14.525	907.201	685.883
185.213	14.539	906.422	685.290
186.227	14.619	905.972	685.217
187.242	14.591	905.794	684.907
188.256	14.697	904.913	684.615
189.271	14.592	904.613	683.900
190.286	14.605	903.780	683.260
191.300	14.592	902.635	682.284
192.315	14.351	901.750	680.568
193.329	14.212	901.228	679.546
194.344	14.189	900.630	678.941
195.359	14.378	899.664	678.923
196.373	14.451	899.532	679.063
197.388	14.618	899.060	679.323
198.402	14.728	898.569	679.343
199.417	14.701	898.026	678.759
200.432	14.833	897.841	679.099
201.446	14.909	897.312	678.947
202.461	14.855	896.757	678.247
203.475	14.904	896.589	678.257
204.490	14.952	895.576	677.628
205.504	14.958	894.661	676.899
206.519	14.784	894.083	675.697
207.534	14.667	893.104	674.424
208.548	14.779	892.332	674.236
209.563	14.830	891.621	673.844
210.577	14.766	891.469	673.411
211.592	14.926	890.548	673.298
212.607	14.920	890.156	672.920
213.621	14.994	889.404	672.591
214.636	14.913	889.010	671.906
215.650	14.866	888.801	671.502
216.665	15.105	887.679	671.551
217.680	15.055	887.370	671.060
218.694	14.991	887.078	670.520
219.709	15.157	886.620	670.780
220.723	14.993	885.918	669.536
221.738	14.952	885.205	668.774
222.753	15.131	884.270	668.723
223.767	14.849	884.214	667.495
224.782	15.000	883.011	667.127
225.796	15.186	882.241	667.228
226.811	15.291	881.400	666.953
227.826	15.290	880.900	666.508
228.840	15.116	880.390	665.374
229.855	14.988	879.977	664.495
230.869	15.110	879.036	664.209
231.884	15.041	878.365	663.369
232.899	14.983	877.796	662.650
233.913	15.075	876.748	662.165
234.928	15.099	876.279	661.848
235.942	14.917	875.742	660.665
236.957	15.026	874.795	660.322
237.972	15.120	874.297	660.258
238.986	15.050	873.823	659.567
240.001	15.041	873.199	659.000
241.015	15.116	872.263	658.531
242.030	15.075	871.832	657.986
243.045	15.048	871.234	657.371
244.059	15.143	870.969	657.487
245.074	15.296	869.937	657.248
246.088	15.323	868.635	656.313
247.103	15.183	868.868	655.881
248.117	15.362	868.080	655.930
249.132	15.379	867.752	655.689
250.147	15.536	867.180	655.812
251.161	15.672	866.618	655.861
252.176	15.698	865.851	655.322
253.190	15.543	865.598	654.471
254.205	15.762	864.459	654.401
255.220	15.764	864.220	654.172
256.234	15.763	863.487	653.554
257.249	15.883	862.242	653.022
258.263	15.949	862.008	653.041
259.278	15.934	861.780	652.753
260.293	15.719	861.605	651.731
261.307	15.816	861.026	651.611
262.322	15.901	860.331	651.354
263.336	15.861	859.982	650.877
264.351	15.831	859.549	650.376
265.366	15.932	858.528	649.938
266.380	15.960	857.687	649.349
267.395	16.045	857.230	649.275
268.409	15.859	856.747	648.135
269.424	15.908	855.581	647.385
270.439	15.848	855.111	646.742
271.453	15.901	854.386	646.339
272.468	15.830	853.784	645.554
273.482	15.847	852.891	644.885
274.497	15.782	852.768	644.489
275.512	15.808	851.937	643.901
276.526	15.977	851.034	643.809
277.541	15.995	850.281	643.252
278.555	15.966	849.896	642.791
279.570	15.899	849.543	642.212
280.585	16.131	848.821	642.493
281.599	16.105	848.046	641.753
282.614	16.093	847.705	641.392
283.628	16.106	847.048	640.886
284.643	15.969	847.037	640.302
285.657	16.101	845.862	639.856
286.672	16.029	845.504	639.257
287.687	16.041	845.048	638.901
288.701	16.030	844.712	638.546
289.716	16.124	843.698	638.080
290.730	16.180	843.456	638.052
291.745	16.342	842.360	637.777
292.760	16.301	841.599	636.991
293.774	16.291	841.375	636.728
294.789	16.307	840.845	636.331
295.803	16.261	840.574	635.896
296.818	16.096	839.800	634.634
297.833	16.130	839.134	634.201
298.847	16.352	838.043	634.156
299.862	16.109	837.823	633.020
300.876	16.186	836.831	632.503
301.891	16.311	836.139	632.393
302.906	16.206	836.273	632.044
303.920	16.436	835.152	632.001
304.935	16.236	834.657	630.825
305.949	16.455	833.986	631.079
306.964	16.425	833.555	630.586
307.979	16.487	833.103	630.419
308.993	16.513	832.461	629.972
310.008	16.553	831.890	629.635
311.022	16.578	831.302	629.228
312.037	16.529	831.047	628.796
313.052	16.425	830.560	627.985
314.066	16.402	829.693	627.191
315.081	16.363	829.030	626.487
316.095	16.277	828.700	625.865
317.110	16.452	827.708	625.706
318.125	16.349	827.776	625.320
319.139	16.373	827.429	625.092
320.154	16.379	826.620	624.448
321.168	16.506	825.377	623.924
322.183	16.567	825.435	624.137
323.197	16.551	825.036	623.720
324.212	16.534	824.394	623.118
325.227	16.431	824.156	622.505
326.241	16.632	822.990	622.308
327.256	16.455	822.763	621.428
328.270	16.462	822.337	621.078
329.285	16.627	821.440	620.953
330.300	16.611	820.959	620.473
331.314	16.568	820.453	619.881
332.329	16.628	819.989	619.694
333.343	16.653	819.214	619.146
334.358	16.791	818.282	618.889
335.373	16.754	818.353	618.755
336.387	16.788	817.560	618.222
337.402	16.854	817.080	618.046
338.416	16.690	817.100	617.410
339.431	16.726	816.444	616.988
340.446	16.921	815.398	616.855
341.460	16.973	814.890	616.604
342.475	16.804	814.938	615.971
343.489	16.948	814.316	615.970
344.504	16.921	813.846	615.463
345.519	16.985	813.566	615.429
346.533	17.052	812.527	614.831
347.548	17.036	812.328	614.567
348.562	17.057	811.526	613.981
349.577	16.932	810.719	612.867
350.592	16.912	810.185	612.334
351.606	16.824	810.025	611.842
352.621	16.820	809.456	611.346
353.635	16.904	809.060	611.294
354.650	16.988	808.611	611.204
355.665	16.921	808.773	611.030
356.679	17.086	807.618	610.698
357.694	16.854	807.638	609.823
358.708	17.005	806.721	609.620
359.723	17.037	806.200	609.286
360.738	17.024	805.944	608.993
361.752	17.246	804.783	608.856
362.767	17.116	804.610	608.206
363.781	17.082	804.466	607.923
364.796	17.267	804.282	608.390
365.810	17.296	803.857	608.120
366.825	17.486	803.228	608.271
367.840	17.374	802.954	607.609
368.854	17.319	802.393	606.932
369.869	17.296	801.820	606.363
370.883	17.162	801.627	605.688
371.898	17.366	800.795	605.731
372.913	17.314	800.362	605.166
373.927	17.377	799.884	604.974
374.942	17.329	799.340	604.340
375.956	17.386	798.205	603.631
376.971	17.463	797.928	603.639
377.986	17.518	797.030	603.103
379.000	17.640	796.712	603.239
380.015	17.592	796.259	602.674
381.029	17.767	795.853	602.930
382.044	17.658	795.322	602.089
383.059	17.652	794.861	601.668
384.073	17.735	794.105	601.335
385.088	17.690	794.039	601.071
386.102	17.481	793.484	599.863
387.117	17.647	792.638	599.755
388.132	17.605	792.168	599.199
389.146	17.473	791.923	598.494
390.161	17.484	791.374	598.067
391.175	17.583	791.156	598.196
392.190	17.717	790.877	598.403
393.205	17.726	790.257	597.914
394.219	17.694	789.615	597.260
395.234	17.643	789.525	596.963
396.248	17.580	789.051	596.331
397.263	17.594	788.461	595.881
398.278	17.454	787.904	594.917
399.292	17.484	787.329	594.536
400.307	17.569	786.995	594.526
401.321	17.561	786.551	594.113
402.336	17.572	786.155	593.798
403.350	17.682	785.679	593.770
404.365	17.711	785.518	593.697
405.380	17.902	784.802	593.766
406.394	17.751	784.394	592.881
407.409	17.942	784.027	593.216
408.423	17.907	783.577	592.699
409.438	17.806	783.615	592.324
410.453	18.002	783.053	592.529
411.467	18.006	782.688	592.213
412.482	18.090	781.779	591.762
413.496	18.089	781.508	591.505
414.511	17.972	781.517	591.054
415.526	18.241	780.876	591.447
416.540	18.049	780.149	590.180
417.555	18.155	779.812	590.236
418.569	18.074	779.104	589.371
419.584	18.166	778.761	589.377
420.599	18.108	778.451	588.889
421.613	157.075	1368.981	1795.399
422.628	135.528	1455.013	1795.483
