DTS Sentinel unit serial number:	SN413079Multiplexer serial number:	ORYXHardware model number:	OX4-SRSoftware version number:	ORYX F/W v4.00 Oryx Data Collector v3.7.2.0data status	okinstallation	princeton_trtdifferential loss correction	single-endedforward channel	channel 3reverse channel	N/Adate	2019/09/12time	18:52:04forward acquisition time	15.00reverse acquisition time	0.00gamma	496.2192k internal	0.2318k external	0.2318temperature offset calibration	1.0097default loss term (dB/km)	0.3790temperature slope calibration	1.0000multiplexer offset coefficient	1.0000multiplexer slope coefficient	1.0000fibre end	0.00T internal ref (°C)	32.87T ext. ref 1 (°C)	3.00T ext. ref 2 (°C)	27.44length (m)	temperature (°C)	Stokes	anti-Stokes-747.200	-200.000	-0.207	-0.957
-746.185	414.981	-0.368	0.794
-745.171	11.273	0.150	-0.116
-744.156	800.000	0.278	0.848
-743.142	-98.253	0.307	0.080
-742.127	-200.000	-0.002	1.168
-741.112	61.439	0.329	0.331
-740.098	18.028	-0.467	-0.376
-739.083	24.475	-0.407	-0.340
-738.069	800.000	-0.038	0.138
-737.054	2.520	0.436	-0.319
-736.039	48.121	-0.457	0.433
-735.025	255.149	0.212	0.367
-734.010	72.160	0.296	0.312
-732.996	-37.920	0.191	-0.103
-731.981	-200.000	-0.082	-0.712
-730.966	-94.646	0.214	0.059
-729.952	225.807	-0.227	0.372
-728.937	-35.371	-0.449	-0.247
-727.923	53.335	-0.464	0.450
-726.908	-175.327	0.496	0.014
-725.894	-80.229	-0.599	0.203
-724.879	24.147	-0.619	0.517
-723.864	-80.442	-0.036	0.012
-722.850	-32.250	-0.102	-0.058
-721.835	222.345	-0.555	-0.902
-720.821	-8.752	-0.386	-0.262
-719.806	-172.485	-0.242	-0.008
-718.791	-200.000	0.075	-0.553
-717.777	162.230	-0.368	-0.522
-716.762	-14.728	0.519	-0.337
-715.748	-80.378	1.240	0.419
-714.733	-200.000	-0.019	0.456
-713.718	-106.536	-0.187	0.042
-712.704	-200.000	0.096	0.605
-711.689	187.587	0.264	0.398
-710.675	-92.076	-0.354	-0.101
-709.660	800.000	-0.189	-0.541
-708.645	158.051	-0.214	-0.299
-707.631	-41.386	-0.102	0.053
-706.616	800.000	-0.185	0.797
-705.602	206.304	0.478	0.752
-704.587	48.564	-0.919	0.870
-703.572	73.678	-0.099	-0.105
-702.558	88.546	-0.504	-0.566
-701.543	800.000	0.034	0.143
-700.529	800.000	0.115	-0.338
-699.514	769.674	0.451	-1.241
-698.499	-90.955	0.644	0.187
-697.485	9.290	0.506	0.386
-696.470	146.427	-0.184	-0.250
-695.456	565.307	-0.174	0.426
-694.441	-106.712	0.345	0.078
-693.426	-75.140	1.252	-0.452
-692.412	-96.588	-0.816	0.217
-691.397	-56.566	-0.506	-0.226
-690.383	-200.000	0.003	0.167
-689.368	-81.245	-0.481	-0.160
-688.354	-15.735	-0.542	0.349
-687.339	236.330	0.469	0.783
-686.324	800.000	-0.214	0.776
-685.310	-181.020	-1.123	0.023
-684.295	178.393	-0.660	0.972
-683.281	176.619	0.171	0.250
-682.266	51.099	0.361	-0.346
-681.251	97.561	-0.406	-0.471
-680.237	-38.530	0.661	0.353
-679.222	800.000	-0.012	-0.040
-678.208	267.878	0.561	-0.992
-677.193	-134.919	-0.419	0.051
-676.178	800.000	-0.112	0.345
-675.164	2.173	-0.593	0.433
-674.149	-112.507	-0.571	0.115
-673.135	800.000	0.145	-0.489
-672.120	-103.736	0.464	-0.110
-671.105	223.214	0.370	-0.602
-670.091	800.000	0.246	-0.713
-669.076	-69.477	-0.319	0.123
-668.062	-200.000	-0.063	-0.493
-667.047	-56.502	0.079	-0.035
-666.032	-89.406	-0.670	0.199
-665.018	252.533	0.150	0.258
-664.003	-116.709	-0.836	-0.155
-662.989	-80.879	0.188	0.063
-661.974	61.514	-0.131	0.131
-660.959	-106.342	-0.708	-0.160
-659.945	112.750	0.113	0.138
-658.930	71.761	-0.310	-0.326
-657.916	-35.730	0.364	0.199
-656.901	-200.000	0.043	-0.656
-655.886	-187.147	0.390	-0.005
-654.872	545.265	0.162	-0.390
-653.857	45.531	-0.501	0.467
-652.843	130.763	-0.247	0.319
-651.828	-156.876	-0.415	0.026
-650.814	-120.819	-0.631	0.107
-649.799	-81.068	0.553	0.185
-648.784	800.000	0.263	0.855
-647.770	-6.111	0.197	0.136
-646.755	800.000	-0.108	0.302
-645.741	-200.000	0.080	0.431
-644.726	400.044	0.252	-0.533
-643.711	151.049	0.213	-0.292
-642.697	20.645	0.343	-0.280
-641.682	-134.580	0.182	-0.022
-640.668	329.921	-0.192	0.373
-639.653	-200.000	-0.106	-0.653
-638.638	-200.000	-0.025	-0.278
-637.624	-145.899	-0.781	-0.070
-636.609	151.953	-0.043	-0.059
-635.595	80.850	-0.561	0.610
-634.580	9.320	0.233	-0.177
-633.565	18.646	-0.093	-0.075
-632.551	137.929	0.353	-0.466
-631.536	307.983	-0.573	-1.077
-630.522	800.000	0.193	0.634
-629.507	213.406	-0.017	0.026
-628.492	535.017	-0.151	-0.361
-627.478	-200.000	0.001	0.086
-626.463	800.000	0.060	-0.191
-625.449	-106.686	-0.759	0.170
-624.434	-161.046	0.857	-0.045
-623.419	204.613	0.203	0.317
-622.405	26.099	0.587	-0.493
-621.390	49.985	-0.396	-0.376
-620.376	800.000	-0.047	0.183
-619.361	125.748	-0.257	-0.327
-618.346	196.358	0.296	-0.454
-617.332	-200.000	-0.154	-0.850
-616.317	800.000	0.044	-0.158
-615.303	517.278	-0.069	0.163
-614.288	-58.988	0.671	-0.292
-613.273	-200.000	0.049	0.398
-612.259	-200.000	-0.102	-0.643
-611.244	103.819	-0.381	0.450
-610.230	800.000	0.159	-0.448
-609.215	31.751	0.507	-0.440
-608.201	-169.141	0.612	0.023
-607.186	-200.000	0.103	0.478
-606.171	576.720	0.216	-0.531
-605.157	205.189	-0.151	-0.236
-604.142	-145.278	-0.525	0.048
-603.128	-26.867	0.448	0.263
-602.113	-96.080	-0.915	-0.245
-601.098	-22.786	-0.683	0.415
-600.084	94.359	0.718	-0.820
-599.069	-200.000	0.159	0.768
-598.055	-139.055	0.318	0.035
-597.040	-5.651	-0.416	-0.287
-596.025	183.292	0.342	0.508
-595.011	98.060	0.023	0.027
-593.996	-131.106	-0.112	0.015
-592.982	-200.000	-0.030	-0.502
-591.967	613.294	-0.252	-0.636
-590.952	-84.983	-0.649	0.205
-589.938	31.271	-0.320	-0.277
-588.923	45.111	-0.480	0.445
-587.909	54.180	-0.459	0.445
-586.894	357.996	-0.103	-0.207
-585.879	-77.202	0.595	0.209
-584.865	23.522	-0.409	0.338
-583.850	800.000	-0.116	-0.388
-582.836	16.916	-0.181	0.144
-581.821	-200.000	-0.050	0.506
-580.806	800.000	0.272	-0.904
-579.792	118.182	-0.267	-0.331
-578.777	23.820	0.240	-0.198
-577.763	-63.414	-0.621	0.257
-576.748	-132.165	0.449	0.059
-575.733	-200.000	0.002	1.051
-574.719	-200.000	-0.150	-0.785
-573.704	800.000	0.142	-0.553
-572.690	-192.161	-0.771	0.007
-571.675	447.258	0.411	0.908
-570.661	-200.000	0.081	0.453
-569.646	-193.699	0.476	-0.004
-568.631	-200.000	0.082	-0.402
-567.617	19.473	0.990	-0.800
-566.602	82.293	0.212	-0.231
-565.588	152.197	-0.144	-0.197
-564.573	419.014	0.344	0.739
-563.558	-200.000	-0.072	0.683
-562.544	-200.000	0.020	-1.421
-561.529	-95.632	-1.193	-0.321
-560.515	228.256	-0.291	0.476
-559.500	-19.136	-0.405	0.253
-558.485	800.000	-0.130	-0.508
-557.471	-200.000	-0.091	0.867
-556.456	-12.761	0.363	-0.237
-555.442	-14.601	0.467	-0.301
-554.427	286.989	-0.221	-0.402
-553.412	362.797	-0.163	-0.328
-552.398	-104.038	-0.426	-0.100
-551.383	-130.407	-0.559	0.076
-550.369	80.306	0.346	-0.374
-549.354	-31.676	0.703	0.396
-548.339	-45.232	-0.350	0.175
-547.325	-2.132	0.122	0.086
-546.310	-131.610	-0.536	-0.071
-545.296	333.186	0.077	-0.149
-544.281	608.172	0.313	-0.784
-543.266	800.000	-0.202	0.848
-542.252	330.744	-0.278	-0.537
-541.237	308.416	0.169	-0.316
-540.223	105.555	0.365	-0.433
-539.208	-190.382	0.300	-0.003
-538.193	800.000	-0.118	-0.452
-537.179	-140.804	-1.109	0.115
-536.164	-65.431	0.729	-0.294
-535.150	-41.313	-0.305	-0.158
-534.135	800.000	0.212	0.813
-533.121	407.370	-0.218	-0.462
-532.106	-7.431	-0.213	0.145
-531.091	-157.593	0.235	-0.014
-530.077	-190.544	-0.654	0.007
-529.062	-2.892	0.137	-0.096
-528.048	-74.472	0.593	0.214
-527.033	800.000	0.030	-0.092
-526.018	130.309	0.440	-0.566
-525.004	-176.761	-0.412	-0.011
-523.989	-7.955	-0.707	0.478
-522.975	29.771	0.237	0.203
-521.960	800.000	-0.173	0.571
-520.945	59.839	0.387	0.384
-519.931	192.441	-0.292	-0.443
-518.916	-68.683	0.958	0.372
-517.902	51.093	0.182	0.173
-516.887	-64.139	0.305	-0.125
-515.872	-126.323	-0.670	0.100
-514.858	-131.551	-0.141	0.019
-513.843	-158.233	-0.499	-0.029
-512.829	-69.741	-0.138	0.053
-511.814	198.660	0.183	0.281
-510.799	-200.000	0.049	0.404
-509.785	-200.000	0.012	0.378
-508.770	47.592	0.248	-0.232
-507.756	-135.818	0.603	-0.071
-506.741	259.208	0.179	0.310
-505.726	98.209	0.435	0.502
-504.712	-12.617	0.491	-0.321
-503.697	-31.575	-0.065	-0.037
-502.683	-200.000	0.120	-1.202
-501.668	96.652	0.511	-0.586
-500.653	-104.987	-0.454	-0.104
-499.639	800.000	-0.149	0.502
-498.624	-98.401	-0.576	0.148
-497.610	114.773	0.563	-0.688
-496.595	-200.000	-0.003	0.694
-495.581	12.939	0.967	0.749
-494.566	-200.000	0.055	0.323
-493.551	157.214	0.503	0.698
-492.537	-156.226	-0.801	0.050
-491.522	-117.706	0.582	0.105
-490.508	616.155	-0.398	-1.001
-489.493	314.413	-0.099	-0.187
-488.478	-94.121	0.311	0.085
-487.464	-133.518	0.662	0.083
-486.449	128.400	0.220	0.281
-485.435	-89.654	-0.723	-0.212
-484.420	691.239	0.312	0.818
-483.405	-107.052	0.822	0.182
-482.391	-33.439	-0.391	0.216
-481.376	538.061	-0.121	0.288
-480.362	-42.940	0.758	-0.385
-479.347	-200.000	0.012	-0.774
-478.332	177.184	0.438	-0.639
-477.318	159.797	0.213	-0.298
-476.303	-200.000	-0.059	-0.465
-475.289	-15.959	-0.382	0.243
-474.274	-158.395	-0.874	-0.051
-473.259	-34.372	-0.502	-0.276
-472.245	41.472	-0.192	0.174
-471.230	-123.809	0.309	0.049
-470.216	8.601	0.451	-0.340
-469.201	-1.650	0.708	0.500
-468.186	156.414	0.202	0.279
-467.172	-40.918	0.648	0.336
-466.157	-200.000	0.015	-0.482
-465.143	128.768	-0.129	0.165
-464.128	188.244	0.553	0.828
-463.113	-140.788	-0.464	0.048
-462.099	555.608	0.182	0.439
-461.084	-200.000	-0.016	0.216
-460.070	-146.549	-0.357	0.031
-459.055	-140.685	0.444	0.046
-458.040	143.264	0.690	0.919
-457.026	800.000	0.062	-0.240
-456.011	800.000	-0.080	0.334
-454.997	-5.048	-0.461	-0.318
-453.982	-140.474	0.708	-0.074
-452.968	-47.288	-0.320	0.156
-451.953	353.838	0.417	0.829
-450.938	-28.798	-0.564	0.324
-449.924	-47.983	-0.184	-0.089
-448.909	68.316	0.604	-0.619
-447.895	-17.379	0.620	-0.390
-446.880	-157.926	-0.713	0.042
-445.865	150.360	-0.262	0.356
-444.851	60.762	0.701	-0.696
-443.836	-129.810	-0.451	-0.062
-442.822	26.032	0.462	0.386
-441.807	313.793	0.407	-0.765
-440.792	-140.996	-0.513	0.053
-439.778	193.153	-0.439	0.664
-438.763	-29.129	0.716	-0.410
-437.749	6.775	0.283	0.211
-436.734	-45.445	0.142	0.070
-435.719	-54.471	0.241	-0.109
-434.705	-51.288	0.877	0.411
-433.690	-107.025	-0.803	0.177
-432.676	-200.000	0.010	-0.138
-431.661	-137.521	0.572	0.065
-430.646	-200.000	0.055	-0.441
-429.632	251.806	-0.155	0.264
-428.617	148.900	-0.400	-0.541
-427.603	-101.194	-0.907	-0.222
-426.588	-117.088	0.556	-0.101
-425.573	-7.160	-0.388	-0.263
-424.559	-200.000	-0.142	0.856
-423.544	100.705	0.105	0.122
-422.530	-200.000	-0.059	-0.269
-421.515	331.248	-0.477	-0.920
-420.500	532.362	0.251	-0.594
-419.486	800.000	0.198	-0.763
-418.471	24.070	-0.841	-0.694
-417.457	0.387	-0.781	0.557
-416.442	-83.657	0.743	-0.237
-415.428	55.902	0.237	0.230
-414.413	-200.000	0.084	0.429
-413.398	-200.000	-0.049	0.464
-412.384	-118.470	-0.348	-0.062
-411.369	394.629	-0.211	0.438
-410.355	-200.000	-0.025	0.868
-409.340	-85.475	-0.393	0.122
-408.325	-89.379	-0.479	-0.141
-407.311	-102.495	-0.941	-0.225
-406.296	-49.237	-0.332	0.158
-405.282	800.000	0.260	0.756
-404.267	-81.264	0.170	-0.056
-403.252	-200.000	-0.005	-0.556
-402.238	-118.510	-0.366	0.065
-401.223	139.548	-0.430	-0.565
-400.209	-145.725	-0.669	-0.060
-399.194	-6.012	0.100	-0.069
-398.179	235.742	0.307	0.507
-397.165	-35.204	-0.350	0.190
-396.150	-200.000	0.069	0.688
-395.136	-195.522	0.267	-0.002
-394.121	-97.026	0.526	0.138
-393.106	-120.800	-0.564	0.095
-392.092	-60.734	-0.651	-0.276
-391.077	387.733	0.443	0.915
-390.063	43.488	-0.224	0.204
-389.048	386.566	-0.422	0.869
-388.033	-200.000	-0.004	0.177
-387.019	168.080	-0.141	-0.200
-386.004	98.312	-0.272	-0.313
-384.990	104.909	0.359	0.423
-383.975	246.801	0.300	-0.505
-382.960	131.768	-0.199	-0.255
-381.946	411.389	-0.349	0.738
-380.931	-200.000	0.173	0.779
-379.917	-200.000	0.017	0.226
-378.902	300.422	-0.459	0.844
-377.888	707.610	0.085	-0.225
-376.873	800.000	-0.315	-1.054
-375.858	313.083	0.319	-0.599
-374.844	159.411	-0.253	-0.352
-373.829	397.300	-0.245	-0.511
-372.815	95.781	0.687	-0.783
-371.800	-100.777	0.628	-0.154
-370.785	-72.178	-0.708	-0.262
-369.771	-168.619	-0.325	0.012
-368.756	225.586	0.686	-1.109
-367.742	-85.064	0.807	-0.252
-366.727	442.388	0.064	-0.139
-365.712	-200.000	-0.035	-0.447
-364.698	117.817	0.564	0.693
-363.683	-200.000	-0.051	0.642
-362.669	192.579	0.119	-0.179
-361.654	-55.659	-0.245	0.109
-360.639	116.213	-0.171	-0.209
-359.625	-72.708	-0.206	-0.076
-358.610	205.636	0.184	0.285
-357.596	800.000	0.140	0.387
-356.581	414.727	-0.274	0.582
-355.566	609.581	-0.179	-0.445
-354.552	800.000	0.226	-0.779
-353.537	239.471	-0.117	-0.194
-352.523	-30.338	-0.171	0.097
-351.508	22.742	-0.279	-0.228
-350.493	547.604	-0.250	-0.597
-349.479	-154.685	-0.989	0.066
-348.464	-200.000	-0.109	-1.050
-347.450	386.467	0.274	0.564
-346.435	-91.924	-0.728	0.206
-345.420	-200.000	0.021	0.574
-344.406	60.144	-0.667	0.657
-343.391	-86.857	0.671	-0.204
-342.377	-49.056	-0.389	0.186
-341.362	-10.771	0.408	0.269
-340.348	43.844	0.409	0.373
-339.333	-162.223	0.267	0.013
-338.318	-105.342	0.314	-0.071
-337.304	800.000	-0.047	-0.180
-336.289	-200.000	0.115	-0.564
-335.275	-160.421	-0.559	-0.030
-334.260	49.965	0.539	-0.506
-333.245	-200.000	0.089	0.428
-332.231	-92.380	-0.772	-0.217
-331.216	177.269	-0.177	-0.256
-330.202	41.890	0.825	-0.745
-329.187	-28.908	0.815	0.466
-328.172	220.862	-0.562	0.898
-327.158	-200.000	0.029	0.666
-326.143	646.749	-0.076	0.192
-325.129	-124.498	-0.778	0.120
-324.114	99.967	-0.225	0.259
-323.099	24.371	0.182	-0.149
-322.085	81.283	0.376	0.404
-321.070	-129.128	-0.786	0.109
-320.056	107.677	0.259	0.307
-319.041	-180.413	0.525	0.011
-318.026	266.736	-0.319	-0.555
-317.012	3.780	0.519	-0.377
-315.997	-113.701	-1.045	0.203
-314.983	-179.237	0.807	-0.018
-313.968	-70.035	-0.610	-0.231
-312.953	212.800	0.446	-0.701
-311.939	-86.920	0.823	-0.250
-310.924	72.382	0.184	0.191
-309.910	35.850	0.221	-0.193
-308.895	-200.000	0.006	0.324
-307.880	-200.000	0.087	-0.514
-306.866	-200.000	-0.050	-0.677
-305.851	122.538	-0.245	0.304
-304.837	70.670	-0.500	-0.515
-303.822	800.000	0.044	-0.136
-302.807	-64.385	0.118	0.048
-301.793	-128.850	0.439	0.061
-300.778	-65.741	0.305	-0.122
-299.764	-13.355	-0.356	0.230
-298.749	73.458	-0.428	0.445
-297.735	800.000	-0.146	-0.566
-296.720	-200.000	-0.102	-0.672
-295.705	-16.930	0.749	-0.471
-294.691	-82.322	-1.107	0.358
-293.676	-200.000	-0.060	0.425
-292.662	113.426	-0.275	-0.332
-291.647	112.092	-0.172	-0.207
-290.632	-108.630	0.292	0.062
-289.618	800.000	-0.026	-0.100
-288.603	393.690	-0.189	-0.391
-287.589	-134.416	0.603	-0.073
-286.574	-113.389	0.862	0.168
-285.559	-200.000	0.010	0.088
-284.545	222.398	-0.384	0.615
-283.530	367.872	0.303	0.608
-282.516	82.864	-0.185	0.200
-281.501	122.009	0.298	-0.370
-280.486	800.000	-0.194	0.604
-279.472	21.394	-0.413	-0.334
-278.457	397.178	0.156	-0.324
-277.443	31.154	0.595	-0.508
-276.428	375.472	0.128	0.260
-275.413	53.930	-0.425	0.405
-274.399	800.000	-0.176	0.521
-273.384	800.000	0.174	-0.634
-272.370	800.000	-0.216	0.592
-271.355	-153.638	-0.979	0.067
-270.340	-127.436	0.719	-0.104
-269.326	292.902	-0.219	-0.396
-268.311	333.690	-0.424	-0.815
-267.297	-200.000	-0.061	0.396
-266.282	-159.897	0.533	0.029
-265.267	-6.609	-0.237	0.160
-264.253	186.762	-0.299	0.442
-263.238	49.369	0.213	-0.199
-262.224	140.203	0.107	-0.140
-261.209	21.508	0.620	0.501
-260.195	56.749	0.730	0.706
-259.180	-58.079	-0.141	-0.061
-258.165	-200.000	0.076	-0.448
-257.151	-200.000	0.086	0.523
-256.136	-140.550	-0.971	-0.100
-255.122	33.035	-0.398	-0.343
-254.107	265.516	-0.285	-0.494
-253.092	-200.000	0.013	-0.308
-252.078	-200.000	0.032	0.301
-251.063	-152.775	-0.307	0.022
-250.049	-200.000	-0.084	-0.373
-249.034	59.941	0.422	0.414
-248.019	782.851	0.205	0.556
-247.005	469.570	0.472	1.053
-245.990	-200.000	0.115	-1.097
-244.976	206.885	-0.243	-0.376
-243.961	38.662	0.284	0.251
-242.946	97.178	0.514	0.585
-241.932	-123.628	0.073	0.012
-240.917	193.570	-0.106	0.159
-239.903	-48.165	-0.263	-0.126
-238.888	154.589	0.616	-0.840
-237.873	302.996	0.110	-0.203
-236.859	-81.924	-0.903	-0.293
-235.844	15.804	0.306	0.239
-234.830	-53.264	-0.236	-0.107
-233.815	800.000	0.200	0.563
-232.800	-93.074	0.414	0.114
-231.786	136.739	0.354	-0.458
-230.771	560.913	0.100	0.239
-229.757	-16.609	-0.264	0.166
-228.742	-60.412	-0.438	0.185
-227.727	149.384	0.394	0.529
-226.713	-200.000	-0.018	0.250
-225.698	-200.000	0.155	-0.882
-224.684	116.922	-0.110	0.134
-223.669	-37.493	-0.587	-0.310
-222.655	180.655	0.248	-0.362
-221.640	195.150	-0.130	0.195
-220.625	74.091	0.788	0.820
-219.611	185.746	-0.395	0.582
-218.596	-122.605	-0.834	-0.134
-217.582	9.402	0.754	0.566
-216.567	-10.996	-0.689	0.451
-215.552	-200.000	0.033	-0.267
-214.538	113.628	0.268	0.323
-213.523	-5.695	0.118	0.080
-212.509	-200.000	-0.203	-1.124
-211.494	-27.272	1.008	0.582
-210.479	-82.120	-1.313	-0.425
-209.465	204.408	0.471	-0.723
-208.450	-68.973	-0.371	0.142
-207.436	126.857	0.151	-0.189
-206.421	800.000	0.146	0.443
-205.406	-31.860	0.856	0.476
-204.392	-159.165	0.390	-0.022
-203.377	800.000	-0.031	0.126
-202.363	127.566	0.529	-0.666
-201.348	-200.000	0.012	-0.102
-200.333	140.736	0.082	0.107
-199.319	131.855	-0.422	-0.538
-198.304	-200.000	-0.108	1.067
-197.290	423.495	-0.312	-0.663
-196.275	-82.529	0.439	-0.141
-195.260	-79.157	0.347	-0.117
-194.246	-36.187	-0.212	0.113
-193.231	79.584	0.354	0.377
-192.217	-35.873	0.248	-0.133
-191.202	-200.000	-0.068	0.357
-190.187	-144.311	1.100	0.101
-189.173	-138.708	-0.053	-0.006
-188.158	-67.258	-0.662	-0.258
-187.144	-200.000	0.029	0.198
-186.129	-107.177	-1.003	0.219
-185.114	32.403	-0.362	0.309
-184.100	-85.860	0.562	-0.172
-183.085	-148.605	-0.527	-0.043
-182.071	90.108	-0.737	-0.816
-181.056	-109.391	-0.725	0.152
-180.042	2.229	0.421	0.301
-179.027	44.964	-0.283	-0.258
-178.012	430.379	0.252	0.540
-176.998	-70.645	0.063	0.024
-175.983	268.477	0.447	0.776
-174.969	167.614	-0.283	-0.399
-173.954	-200.000	-0.191	-0.984
-172.939	-43.383	0.203	0.102
-171.925	-64.201	0.847	-0.342
-170.910	-85.012	-0.222	-0.069
-169.896	-134.754	-0.382	-0.046
-168.881	-35.693	-0.353	-0.190
-167.866	12.137	-0.492	0.374
-166.852	800.000	-0.059	-0.179
-165.837	-33.808	-0.537	-0.293
-164.823	800.000	0.236	0.725
-163.808	323.021	0.084	-0.159
-162.793	-118.846	-0.727	-0.126
-161.779	18.379	-0.155	-0.122
-160.764	-200.000	-0.133	0.697
-159.750	293.494	-0.257	0.465
-158.735	-200.000	-0.029	0.161
-157.720	800.000	-0.348	1.080
-156.706	22.484	-0.409	0.331
-155.691	206.532	0.381	-0.586
-154.677	-118.129	0.926	0.163
-153.662	207.571	0.382	0.590
-152.647	800.000	-0.199	0.766
-151.633	84.659	0.309	-0.334
-150.618	-24.402	-0.144	0.085
-149.604	-200.000	-0.075	0.379
-148.589	800.000	-0.056	-0.168
-147.574	199.269	0.251	0.380
-146.560	-200.000	0.045	-1.005
-145.545	505.275	0.082	0.187
-144.531	-200.000	0.076	0.401
-143.516	-132.956	-0.583	0.073
-142.502	-126.403	-0.772	-0.114
-141.487	-200.000	0.015	-0.498
-140.472	22.498	0.603	0.487
-139.458	-48.930	-0.420	-0.199
-138.443	116.237	-0.308	0.373
-137.429	426.464	0.056	0.118
-136.414	-145.352	0.989	0.088
-135.399	-36.888	-0.731	-0.387
-134.385	-135.877	0.717	-0.084
-133.370	-143.817	-0.415	0.039
-132.356	50.455	0.758	0.708
-131.341	800.000	-0.356	1.063
-130.326	-200.000	-0.022	-0.228
-129.312	-200.000	0.182	0.952
-128.297	54.372	-0.185	0.176
-127.283	309.804	0.245	-0.454
-126.268	800.000	0.124	-0.345
-125.253	-88.834	-0.555	-0.163
-124.239	-96.271	0.457	0.120
-123.224	-50.024	0.527	-0.247
-122.210	-200.000	-0.100	-0.570
-121.195	-39.168	-0.119	-0.062
-120.180	800.000	-0.053	0.212
-119.166	800.000	0.284	0.792
-118.151	-6.572	0.390	-0.262
-117.137	-107.562	0.599	0.129
-116.122	18.364	-0.404	0.319
-115.107	800.000	0.058	0.242
-114.093	-97.675	-0.247	-0.063
-113.078	-200.000	-0.080	0.417
-112.064	-40.571	-0.764	-0.391
-111.049	158.322	-0.096	0.132
-110.034	657.531	0.181	0.459
-109.020	276.009	0.191	0.334
-108.005	30.501	-0.239	-0.202
-106.991	-116.137	-0.299	-0.055
-105.976	800.000	0.260	0.836
-104.962	-53.829	0.485	0.218
-103.947	-124.306	0.690	-0.106
-102.932	1.036	-0.224	-0.159
-101.918	-36.446	-0.654	0.348
-100.903	70.543	0.269	0.275
-99.889	-200.000	-0.112	0.536
-98.874	-200.000	0.049	0.694
-97.859	-58.477	0.570	-0.244
-96.845	-200.000	0.000	-0.340
-95.830	370.062	0.097	0.193
-94.816	166.528	-0.229	0.320
-93.801	-200.000	0.075	1.018
-92.786	77.867	0.093	0.097
-91.772	66.913	-0.066	-0.066
-90.757	56.198	-0.424	0.406
-89.743	-99.713	0.262	-0.065
-88.728	2.459	-0.295	0.210
-87.713	800.000	0.174	-0.548
-86.699	-200.000	0.010	0.051
-85.684	-50.905	0.335	-0.155
-84.670	192.150	-0.303	0.451
-83.655	-78.207	-0.817	0.277
-82.640	142.264	0.397	0.520
-81.626	-131.030	-0.358	-0.047
-80.611	-6.237	-0.699	-0.471
-79.597	-200.000	0.071	-0.647
-78.582	255.653	0.294	0.496
-77.567	-103.101	0.307	-0.072
-76.553	-83.215	-0.224	-0.071
-75.538	-200.000	0.034	-1.000
-74.524	-74.814	0.413	0.146
-73.509	-200.000	-0.076	-0.412
-72.494	-200.000	-0.260	1.200
-71.480	-17.490	0.491	-0.304
-70.465	-9.737	-0.424	-0.278
-69.451	-76.874	-1.155	0.398
-68.436	56.041	0.100	0.096
-67.422	90.760	0.190	-0.210
-66.407	41.355	0.437	-0.389
-65.392	-81.671	-1.304	-0.422
-64.378	172.794	-0.353	-0.501
-63.363	4.701	1.016	-0.735
-62.349	800.000	0.018	-0.064
-61.334	289.393	-0.464	-0.830
-60.319	-72.177	0.356	0.130
-59.305	-200.000	-0.152	-1.137
-58.290	-200.000	0.343	0.001
-57.276	-200.000	0.047	1.383
-56.261	-200.000	96.452	581.245
-55.246	661.524	1360.959	3454.486
-54.232	202.628	2524.383	3839.636
-53.217	117.510	2144.594	2598.795
-52.203	43.250	1696.894	1526.131
-51.188	36.073	1510.207	1309.629
-50.173	33.753	1485.573	1272.681
-49.159	54.085	1536.740	1455.587
-48.144	54.649	1554.160	1475.875
-47.130	36.319	1512.117	1312.748
-46.115	33.319	1497.366	1279.651
-45.100	32.747	1495.294	1273.967
-44.086	32.825	1492.904	1272.401
-43.071	32.843	1491.140	1270.973
-42.057	32.699	1489.330	1268.412
-41.042	32.847	1488.528	1268.668
-40.027	32.803	1485.991	1266.161
-39.013	32.698	1485.494	1264.985
-37.998	32.795	1483.925	1264.248
-36.984	33.052	1481.703	1264.027
-35.969	32.771	1481.901	1262.261
-34.954	32.716	1480.979	1261.058
-33.940	32.851	1478.761	1260.022
-32.925	32.927	1477.165	1259.119
-31.911	32.877	1475.814	1257.583
-30.896	32.905	1474.331	1256.459
-29.881	33.074	1472.956	1256.361
-28.867	33.042	1471.691	1255.020
-27.852	33.066	1469.292	1253.082
-26.838	33.141	1468.577	1252.917
-25.823	32.925	1466.976	1250.071
-24.809	32.879	1466.976	1249.718
-23.794	32.902	1464.216	1247.470
-22.779	33.101	1462.023	1246.862
-21.765	32.925	1461.414	1245.136
-20.750	32.813	1461.202	1244.169
-19.736	32.929	1459.444	1243.382
-18.721	32.887	1459.266	1242.904
-17.706	32.936	1456.999	1241.250
-16.692	32.927	1455.862	1240.172
-15.677	32.963	1454.131	1238.885
-14.663	32.832	1454.875	1238.607
-13.648	32.811	1453.356	1237.130
-12.633	32.726	1452.824	1236.070
-11.619	32.636	1453.133	1235.695
-10.604	32.705	1451.947	1235.087
-9.590	32.699	1450.760	1233.987
-8.575	32.881	1449.932	1234.430
-7.560	32.907	1447.414	1232.403
-6.546	32.791	1447.563	1231.727
-5.531	32.908	1446.754	1231.749
-4.517	32.715	1446.366	1230.110
-3.502	32.934	1444.923	1230.266
-2.487	32.809	1443.823	1228.462
-1.473	32.740	1442.910	1227.188
-0.458	32.744	1441.525	1225.989
0.556	33.566	1432.358	1213.573
1.571	30.701	1406.334	1173.382
2.586	27.051	1349.081	1103.387
3.600	25.223	1268.643	1027.052
4.615	23.640	1223.081	981.339
5.629	20.390	1165.581	917.969
6.644	11.296	1080.406	806.049
7.659	4.421	1039.578	742.724
8.673	3.240	1034.697	733.547
9.688	3.012	1029.842	728.960
10.702	2.707	1029.071	726.905
11.717	3.041	1026.885	726.877
12.731	6.067	1030.980	744.054
13.746	15.187	1044.108	797.028
14.761	23.026	1052.708	840.972
15.775	24.591	1054.591	849.852
16.790	24.684	1054.144	849.860
17.804	24.650	1051.583	847.559
18.819	24.186	1051.758	845.422
19.834	24.148	1051.093	844.634
20.848	24.160	1051.376	844.841
21.863	24.480	1050.349	845.460
22.877	24.131	1050.639	843.964
23.892	23.996	1049.869	842.629
24.907	24.179	1048.382	842.229
25.921	24.228	1048.036	842.105
26.936	24.071	1046.273	839.876
27.950	24.266	1045.274	839.920
28.965	24.091	1045.031	838.825
29.980	24.003	1043.484	837.093
30.994	23.977	1042.772	836.327
32.009	24.448	1041.163	837.171
33.023	24.336	1041.733	837.030
34.038	24.211	1040.668	835.514
35.053	24.355	1038.868	834.668
36.067	24.267	1038.305	833.731
37.082	23.866	1037.451	831.100
38.096	23.863	1036.699	830.410
39.111	24.199	1036.947	832.101
40.126	24.196	1035.447	830.811
41.140	24.161	1034.215	829.588
42.155	23.995	1033.188	827.914
43.169	23.860	1031.734	826.049
44.184	23.571	1031.878	824.749
45.199	23.604	1030.583	823.795
46.213	23.786	1029.042	823.332
47.228	23.977	1027.749	823.112
48.242	23.810	1029.077	823.325
49.257	24.115	1027.974	823.782
50.271	24.119	1026.657	822.674
51.286	24.194	1026.302	822.663
52.301	24.335	1025.923	822.936
53.315	24.395	1025.052	822.442
54.330	24.303	1024.172	821.240
55.344	24.099	1022.701	819.050
56.359	24.302	1021.505	818.952
57.374	24.479	1021.441	819.641
58.388	23.844	1020.503	815.901
59.403	23.965	1019.542	815.616
60.417	24.011	1018.055	814.566
61.432	23.561	1018.987	813.177
62.447	23.836	1017.705	813.337
63.461	23.972	1017.389	813.635
64.476	24.119	1015.703	812.888
65.490	24.168	1015.436	812.826
66.505	24.045	1013.631	810.749
67.520	23.903	1014.047	810.364
68.534	23.762	1013.078	808.875
69.549	23.864	1012.289	808.637
70.563	23.478	1011.746	806.375
71.578	23.529	1010.863	805.836
72.593	23.361	1009.012	803.526
73.607	22.927	1008.307	800.927
74.622	23.247	1007.030	801.290
75.636	23.591	1006.155	802.078
76.651	23.457	1005.324	800.738
77.666	23.277	1005.474	799.974
78.680	23.501	1005.353	800.821
79.695	23.525	1003.749	799.580
80.709	23.586	1003.271	799.402
81.724	23.929	1002.375	800.160
82.739	23.652	1002.137	798.653
83.753	23.722	1001.702	798.551
84.768	23.844	1000.767	798.281
85.782	24.514	999.358	800.090
86.797	24.455	999.551	799.912
87.812	24.712	997.842	799.620
88.826	24.616	997.482	798.834
89.841	24.471	996.495	797.325
90.855	24.582	995.602	797.037
91.870	24.277	995.554	795.565
92.884	24.744	994.287	796.563
93.899	24.515	993.627	794.944
94.914	24.401	992.702	793.625
95.928	24.544	991.379	793.134
96.943	24.504	991.608	793.069
97.957	24.309	989.999	790.848
98.972	24.101	989.389	789.366
99.987	24.185	988.945	789.315
101.001	24.110	989.052	789.000
102.016	24.487	986.800	788.801
103.030	24.463	985.969	787.961
104.045	24.660	984.921	787.920
105.060	24.552	984.434	786.986
106.074	24.066	983.916	784.361
107.089	24.119	983.755	784.397
108.103	24.194	981.843	783.132
109.118	24.366	980.546	782.786
110.133	23.775	979.912	779.616
111.147	24.007	978.145	779.159
112.162	23.534	977.583	776.569
113.176	23.681	976.718	776.458
114.191	23.975	975.130	776.409
115.206	23.968	975.721	776.782
116.220	23.655	974.284	774.205
117.235	23.698	972.785	773.132
118.249	23.517	972.874	772.344
119.264	23.308	972.172	770.810
120.279	23.516	970.449	770.281
121.293	23.718	968.519	769.556
122.308	23.683	967.794	768.761
123.322	23.403	967.964	767.612
124.337	23.535	967.081	767.417
125.352	23.496	966.082	766.386
126.366	23.359	964.691	764.627
127.381	23.178	965.183	764.167
128.395	23.612	963.898	764.953
129.410	24.174	962.623	766.292
130.424	23.999	963.200	765.929
131.439	23.973	961.928	764.736
132.454	24.066	961.049	764.370
133.468	24.097	960.399	763.917
134.483	24.036	959.012	762.487
135.497	23.957	958.260	761.482
136.512	24.129	958.672	762.481
137.527	24.468	957.105	762.614
138.541	24.049	956.157	760.002
139.556	24.202	955.635	760.172
140.570	23.862	955.929	758.887
141.585	24.395	953.762	759.370
142.600	24.709	953.508	760.436
143.614	24.420	952.912	758.665
144.629	24.592	952.101	758.685
145.643	24.607	951.453	758.164
146.658	24.626	950.815	757.669
147.673	24.388	949.907	755.868
148.687	24.279	948.276	754.046
149.702	24.135	947.160	752.481
150.716	24.081	945.743	751.061
151.731	24.001	945.868	750.757
152.746	24.160	944.359	750.164
153.760	24.363	943.764	750.477
154.775	24.332	943.068	749.728
155.789	24.471	942.740	749.987
156.804	24.335	942.506	749.162
157.819	24.402	940.517	747.793
158.833	24.451	940.067	747.576
159.848	24.534	940.065	747.856
160.862	24.726	938.370	747.245
161.877	24.671	938.526	747.074
162.892	24.410	937.294	744.937
163.906	24.274	936.405	743.596
164.921	24.259	935.764	742.958
165.935	24.355	933.660	741.621
166.950	24.413	933.082	741.336
167.964	24.342	932.056	740.162
168.979	24.305	932.259	740.105
169.994	24.250	930.503	738.419
171.008	24.230	930.194	738.023
172.023	24.404	928.620	737.430
173.037	24.495	928.836	737.912
174.052	24.488	927.799	736.994
175.067	24.665	927.026	737.046
176.081	24.451	925.628	734.987
177.096	24.141	924.671	732.887
178.110	24.300	922.954	732.115
179.125	24.187	922.837	731.490
180.140	23.786	922.385	729.424
181.154	24.115	920.860	729.502
182.169	24.042	920.291	728.687
183.183	24.170	921.158	729.835
184.198	24.294	920.794	729.988
185.213	24.572	919.031	729.662
186.227	24.071	918.986	727.514
187.242	24.032	919.123	727.400
188.256	24.465	917.366	727.711
189.271	24.908	916.825	729.020
190.286	24.721	916.344	727.814
191.300	24.427	914.970	725.463
192.315	24.296	913.863	723.987
193.329	23.396	913.442	719.936
194.344	23.163	913.269	718.788
195.359	23.744	911.700	719.846
196.373	24.270	911.843	722.026
197.388	24.401	913.229	723.590
198.402	24.618	912.185	723.577
199.417	24.865	910.887	723.484
200.432	25.096	910.763	724.255
201.446	25.049	910.563	723.842
202.461	24.606	910.630	722.042
203.475	25.087	909.333	722.889
204.490	24.552	908.777	720.226
205.504	23.998	906.483	716.117
206.519	23.615	906.534	714.553
207.534	24.383	905.889	717.068
208.548	24.426	906.414	717.591
209.563	24.510	905.467	717.115
210.577	24.519	904.145	716.042
211.592	24.542	903.541	715.593
212.607	24.881	903.446	716.813
213.621	25.528	902.395	718.503
214.636	24.916	901.767	715.495
215.650	24.707	901.115	714.077
216.665	24.716	901.139	714.069
217.680	24.834	900.346	713.849
218.694	24.604	900.693	713.142
219.709	24.786	899.555	712.906
220.723	24.502	898.874	711.173
221.738	24.734	897.769	711.157
222.753	24.742	896.716	710.291
223.767	24.181	896.151	707.552
224.782	24.416	895.568	707.963
225.796	24.752	895.197	708.938
226.811	24.921	895.064	709.442
227.826	24.636	893.710	707.176
228.840	24.140	892.669	704.329
229.855	24.218	892.072	704.104
230.869	24.312	892.270	704.570
231.884	24.212	891.470	703.482
232.899	24.309	889.851	702.522
233.913	24.197	890.933	702.872
234.928	24.387	889.919	702.759
235.942	24.406	888.540	701.683
236.957	24.028	888.364	699.998
237.972	23.882	886.924	698.226
238.986	24.180	886.026	698.627
240.001	23.817	885.681	696.872
241.015	24.036	885.505	697.526
242.030	24.456	884.050	697.962
243.045	24.332	883.865	697.270
244.059	24.293	883.805	697.007
245.074	24.455	883.685	697.486
246.088	24.289	882.339	695.714
247.103	24.295	882.493	695.797
248.117	24.751	881.257	696.537
249.132	25.006	882.556	698.497
250.147	25.221	881.565	698.489
251.161	25.295	881.411	698.592
252.176	25.366	880.083	697.753
253.190	25.357	880.091	697.662
254.205	25.526	879.662	697.916
255.220	25.667	879.572	698.332
256.234	25.373	878.073	695.942
257.249	25.693	876.758	696.074
258.263	25.337	877.180	694.968
259.278	25.167	876.473	693.693
260.293	25.293	875.664	693.475
261.307	25.279	876.122	693.722
262.322	25.336	874.945	692.951
263.336	25.343	873.863	692.058
264.351	25.181	873.297	690.926
265.366	24.572	873.645	688.792
266.380	24.798	871.569	687.963
267.395	25.003	872.334	689.296
268.409	25.348	871.259	689.709
269.424	25.617	869.990	689.675
270.439	25.302	869.004	687.627
271.453	25.123	868.786	686.709
272.468	25.071	868.259	686.033
273.482	25.404	867.379	686.548
274.497	25.210	867.245	685.640
275.512	25.376	865.912	685.161
276.526	25.282	866.155	684.933
277.541	25.352	865.545	684.658
278.555	25.178	864.920	683.439
279.570	25.501	863.630	683.588
280.585	25.542	862.793	683.020
281.599	25.624	862.824	683.298
282.614	25.360	862.462	681.948
283.628	25.263	861.952	681.116
284.643	24.600	860.919	677.722
285.657	25.034	860.607	679.065
286.672	25.266	859.713	679.178
287.687	24.893	859.491	677.529
288.701	25.329	859.290	678.960
289.716	25.144	859.510	678.375
290.730	25.069	859.061	677.677
291.745	25.010	858.263	676.763
292.760	25.119	856.573	675.782
293.774	25.223	856.094	675.735
294.789	25.542	856.287	677.030
295.803	25.558	856.047	676.842
296.818	25.481	856.083	676.519
297.833	25.477	854.906	675.513
298.847	25.189	853.599	673.341
299.862	25.261	852.716	672.855
300.876	24.963	853.082	671.966
301.891	25.535	851.848	673.075
302.906	25.614	851.641	673.148
303.920	25.824	850.446	672.931
304.935	25.922	850.092	672.958
305.949	25.744	850.270	672.375
306.964	25.973	848.794	672.001
307.979	25.754	848.202	670.655
308.993	25.367	848.250	669.194
310.008	25.570	847.415	669.230
311.022	25.504	847.429	668.938
312.037	25.727	846.409	668.902
313.052	25.603	845.646	667.780
314.066	25.330	845.884	666.894
315.081	25.106	843.749	664.320
316.095	25.226	842.870	664.015
317.110	25.312	842.929	664.322
318.125	25.092	842.874	663.405
319.139	24.913	841.837	661.867
320.154	24.843	840.533	660.527
321.168	24.246	839.980	657.831
322.183	24.611	839.762	658.949
323.197	25.020	839.059	659.846
324.212	25.083	838.698	659.735
325.227	25.107	838.635	659.715
326.241	24.736	838.831	658.445
327.256	24.985	837.708	658.422
328.270	24.938	837.492	658.021
329.285	24.514	837.260	656.221
330.300	25.014	835.119	656.318
331.314	24.968	835.155	656.119
332.329	24.899	835.225	655.863
333.343	24.817	835.095	655.403
334.358	25.199	834.264	656.091
335.373	25.564	833.634	656.869
336.387	25.879	832.209	656.837
337.402	25.219	832.142	654.321
338.416	25.946	831.743	656.596
339.431	25.949	832.003	656.757
340.446	26.372	830.861	657.335
341.460	25.797	830.968	655.269
342.475	26.158	830.214	655.930
343.489	26.299	829.260	655.627
344.504	26.119	829.166	654.844
345.519	26.264	828.874	655.078
346.533	26.097	828.545	654.156
347.548	26.174	827.672	653.688
348.562	25.979	827.265	652.603
349.577	26.290	825.820	652.528
350.592	25.854	826.254	651.237
351.606	26.060	825.124	651.034
352.621	25.808	824.545	649.611
353.635	25.684	824.892	649.381
354.650	25.865	823.343	648.756
355.665	25.791	823.142	648.273
356.679	25.533	822.446	646.738
357.694	25.262	823.256	646.341
358.708	25.685	822.445	647.169
359.723	25.367	821.322	645.085
360.738	25.787	819.621	645.200
361.752	25.918	819.952	645.871
362.767	25.236	820.070	643.462
363.781	26.035	819.948	646.175
364.796	25.903	820.043	645.718
365.810	26.223	819.345	646.257
366.825	26.146	818.775	645.476
367.840	26.070	818.712	645.097
368.854	26.256	818.260	645.348
369.869	26.196	817.398	644.395
370.883	25.775	817.632	643.021
371.898	25.764	816.345	641.914
372.913	25.535	816.224	640.944
373.927	26.200	814.950	642.252
374.942	26.255	814.280	641.863
375.956	25.927	813.062	639.684
376.971	26.066	812.836	639.943
377.986	25.999	813.032	639.804
379.000	26.145	811.988	639.442
380.015	26.063	811.932	639.050
381.029	26.189	811.449	639.058
382.044	26.409	810.484	639.020
383.059	26.439	809.995	638.682
384.073	26.450	809.497	638.272
385.088	26.572	808.936	638.203
386.102	26.045	808.061	635.603
387.117	25.967	806.852	634.321
388.132	25.634	807.245	633.402
389.146	25.461	806.174	631.896
390.161	25.270	806.362	631.316
391.175	25.756	806.747	633.270
392.190	26.507	805.787	635.097
393.205	26.301	804.768	633.517
394.219	25.481	803.707	629.754
395.234	25.120	802.847	627.760
396.248	24.610	802.906	625.964
397.263	25.084	801.637	626.578
398.278	26.055	801.921	630.136
399.292	25.753	801.102	628.384
400.307	25.379	800.740	626.739
401.321	25.393	799.936	626.104
402.336	25.268	799.392	625.188
403.350	25.672	799.997	627.012
404.365	25.823	800.356	627.767
405.380	26.320	799.773	628.981
406.394	26.602	799.019	629.312
407.409	26.708	799.080	629.674
408.423	26.445	799.049	628.679
409.438	26.612	797.710	628.151
410.453	26.185	798.146	626.955
411.467	26.110	798.062	626.576
412.482	26.232	796.760	625.920
413.496	26.681	795.791	626.658
414.511	26.391	795.927	625.705
415.526	26.696	794.542	625.613
416.540	26.186	795.859	624.831
417.555	26.485	794.597	624.819
418.569	26.475	793.507	623.872
419.584	26.634	793.771	624.572
420.599	26.228	794.059	623.341
421.613	159.725	1370.471	1793.503
422.628	138.413	1454.442	1793.536
