DTS Sentinel unit serial number:	SN413079Multiplexer serial number:	ORYXHardware model number:	OX4-SRSoftware version number:	ORYX F/W v4.00 Oryx Data Collector v3.7.2.0data status	okinstallation	princeton_trtdifferential loss correction	single-endedforward channel	channel 3reverse channel	N/Adate	2019/09/13time	08:04:35forward acquisition time	60.00reverse acquisition time	0.00gamma	496.2192k internal	0.2334k external	0.2334temperature offset calibration	1.0139default loss term (dB/km)	0.3790temperature slope calibration	1.0000multiplexer offset coefficient	1.0000multiplexer slope coefficient	1.0000fibre end	0.00T internal ref (°C)	26.94T ext. ref 1 (°C)	4.25T ext. ref 2 (°C)	23.21length (m)	temperature (°C)	Stokes	anti-Stokes-747.200	-41.063	0.281	-0.146
-746.185	-83.442	-0.207	-0.067
-745.171	-27.488	0.127	0.074
-744.156	800.000	-0.040	-0.113
-743.142	0.141	0.380	0.272
-742.127	-190.438	-0.269	-0.003
-741.112	79.497	0.214	0.231
-740.098	-79.232	0.062	-0.021
-739.083	-78.989	-0.221	0.076
-738.069	120.037	-0.192	0.240
-737.054	58.963	0.112	-0.111
-736.039	167.281	-0.109	-0.156
-735.025	-128.109	-0.037	0.005
-734.010	800.000	0.042	0.152
-732.996	-73.379	-0.158	0.058
-731.981	-141.488	0.282	0.029
-730.966	345.228	0.091	-0.179
-729.952	63.591	0.226	-0.228
-728.937	104.623	0.178	0.211
-727.923	365.009	-0.203	0.411
-726.908	-200.000	-0.007	-0.094
-725.894	229.600	0.030	0.049
-724.879	7.540	-0.299	-0.225
-723.864	25.616	0.186	-0.155
-722.850	124.125	-0.037	0.046
-721.835	197.579	-0.102	0.157
-720.821	72.674	0.134	-0.140
-719.806	-128.767	-0.273	-0.039
-718.791	-137.507	0.392	0.044
-717.777	238.129	-0.042	-0.070
-716.762	-200.000	-0.063	-0.282
-715.748	-200.000	0.022	0.287
-714.733	-74.532	-0.138	-0.050
-713.718	483.547	0.080	-0.183
-712.704	522.057	0.150	0.353
-711.689	-98.511	-0.187	-0.048
-710.675	700.774	0.061	-0.160
-709.660	221.697	0.094	0.151
-708.645	-68.830	0.256	-0.099
-707.631	-76.948	-0.165	0.058
-706.616	-77.879	-0.228	-0.079
-705.602	-200.000	-0.008	0.130
-704.587	-23.093	-0.268	-0.162
-703.572	84.593	0.134	-0.147
-702.558	800.000	-0.036	0.156
-701.543	206.910	0.218	-0.340
-700.529	-82.678	0.239	0.078
-699.514	800.000	-0.042	0.159
-698.499	210.468	0.054	-0.086
-697.485	-200.000	-0.000	-0.034
-696.470	410.959	-0.113	-0.241
-695.456	-45.633	0.216	0.107
-694.441	800.000	0.052	0.167
-693.426	643.309	0.063	0.161
-692.412	24.891	-0.129	-0.107
-691.397	57.377	-0.212	0.208
-690.383	-22.884	0.226	0.137
-689.368	-50.269	-0.168	-0.079
-688.354	-91.189	0.122	-0.035
-687.339	233.253	-0.113	-0.187
-686.324	800.000	0.088	0.306
-685.310	800.000	0.111	0.315
-684.295	6.674	0.076	-0.057
-683.281	-108.462	-0.056	-0.012
-682.266	-200.000	-0.043	-0.240
-681.251	-200.000	0.036	-0.262
-680.237	44.190	-0.140	0.129
-679.222	-2.405	0.209	0.147
-678.208	-108.004	-0.330	-0.072
-677.193	728.698	-0.063	-0.168
-676.178	-118.641	0.298	0.053
-675.164	586.086	0.064	0.158
-674.149	-200.000	0.016	-0.089
-673.135	-4.567	0.260	-0.180
-672.120	213.101	-0.152	0.241
-671.105	800.000	0.018	-0.075
-670.091	-8.567	0.257	0.173
-669.076	314.805	-0.066	-0.125
-668.062	-200.000	-0.044	0.293
-667.047	-120.627	-0.314	-0.053
-666.032	-123.101	0.383	-0.062
-665.018	-121.634	-0.268	-0.044
-664.003	-65.064	0.400	0.162
-662.989	74.320	0.081	-0.085
-661.974	-7.984	-0.163	0.110
-660.959	54.534	0.126	-0.122
-659.945	16.688	-0.135	0.107
-658.930	608.684	-0.090	-0.225
-657.916	-58.461	0.201	0.087
-656.901	-41.894	0.101	0.052
-655.886	416.813	0.104	-0.222
-654.872	-200.000	-0.017	-0.190
-653.857	-200.000	0.008	0.258
-652.843	-200.000	0.022	-0.187
-651.828	800.000	0.075	-0.230
-650.814	-78.608	-0.370	-0.127
-649.799	757.463	0.038	-0.103
-648.784	-200.000	-0.041	-0.474
-647.770	-147.396	0.227	-0.019
-646.755	-200.000	0.021	0.121
-645.741	-91.577	-0.279	-0.080
-644.726	-170.200	0.418	-0.015
-643.711	-49.321	-0.071	-0.034
-642.697	205.542	-0.177	-0.276
-641.682	36.317	0.163	-0.144
-640.668	44.491	0.280	0.258
-639.653	507.339	-0.171	-0.396
-638.638	-200.000	0.014	-0.206
-637.624	557.966	-0.003	0.007
-636.609	390.836	0.090	-0.186
-635.595	422.664	0.062	-0.133
-634.580	193.030	0.030	0.046
-633.565	465.797	0.091	-0.204
-632.551	-46.616	-0.081	0.040
-631.536	114.393	-0.173	-0.210
-630.522	127.284	0.169	-0.214
-629.507	-78.793	-0.181	0.062
-628.492	800.000	-0.100	0.320
-627.478	-101.677	-0.163	-0.040
-626.463	324.773	0.042	0.080
-625.449	-136.273	0.266	-0.031
-624.434	-128.334	-0.275	0.039
-623.419	-200.000	-0.014	-0.170
-622.405	-200.000	0.086	0.432
-621.390	-24.044	-0.209	0.125
-620.376	-200.000	-0.047	0.215
-619.361	800.000	0.036	0.149
-618.346	-156.968	-0.439	0.027
-617.332	-200.000	0.012	0.263
-616.317	-200.000	0.024	-0.125
-615.303	222.760	-0.023	-0.038
-614.288	800.000	0.111	0.353
-613.273	-200.000	-0.004	-0.035
-612.259	-71.557	-0.129	0.048
-611.244	-126.664	-0.276	-0.041
-610.230	-8.567	0.156	-0.105
-609.215	-107.043	-0.143	-0.032
-608.201	800.000	-0.077	-0.258
-607.186	83.604	0.110	-0.120
-606.171	-200.000	0.076	-0.520
-605.157	426.463	0.069	-0.149
-604.142	-200.000	0.034	-0.223
-603.128	39.465	0.192	-0.172
-602.113	279.381	0.171	-0.305
-601.098	-200.000	0.084	0.398
-600.084	-12.564	0.296	-0.193
-599.069	220.905	-0.067	-0.108
-598.055	51.172	0.107	-0.101
-597.040	-176.975	0.073	0.002
-596.025	-174.041	0.090	-0.003
-595.011	-156.093	-0.539	0.034
-593.996	119.963	-0.343	-0.424
-592.982	91.806	-0.159	-0.179
-591.967	800.000	0.121	-0.466
-590.952	-57.899	-0.172	-0.075
-589.938	800.000	-0.061	-0.249
-588.923	-59.591	0.113	-0.048
-587.909	-15.862	-0.044	0.028
-586.894	800.000	-0.027	0.084
-585.879	-90.290	0.063	0.018
-584.865	83.611	-0.127	-0.138
-583.850	-200.000	0.033	0.196
-582.836	800.000	0.089	0.270
-581.821	109.310	0.032	-0.039
-580.806	35.172	-0.103	0.090
-579.792	-168.520	-0.425	0.016
-578.777	-200.000	0.002	0.140
-577.763	447.992	0.112	-0.247
-576.748	41.093	0.047	0.042
-575.733	-37.516	-0.124	0.066
-574.719	-124.638	0.194	0.030
-573.704	-94.097	-0.108	-0.030
-572.690	118.464	-0.182	-0.225
-571.675	47.018	0.073	-0.068
-570.661	-200.000	-0.035	0.194
-569.646	-200.000	-0.141	0.000
-568.631	-200.000	0.019	-0.338
-567.617	357.194	-0.198	-0.394
-566.602	-200.000	-0.001	-0.090
-565.588	212.924	0.137	-0.215
-564.573	-147.320	0.015	0.001
-563.558	21.123	0.315	-0.255
-562.544	800.000	0.040	0.137
-561.529	198.504	-0.091	0.139
-560.515	291.138	0.017	-0.031
-559.500	-119.049	-0.425	0.074
-558.485	222.296	-0.160	0.256
-557.471	-200.000	0.007	0.057
-556.456	-161.478	0.382	0.020
-555.442	-137.336	-0.222	0.025
-554.427	-46.440	0.143	0.070
-553.412	-200.000	-0.017	0.255
-552.398	42.187	0.117	-0.106
-551.383	-65.474	-0.218	-0.087
-550.369	564.993	-0.076	-0.183
-549.354	408.322	-0.046	-0.097
-548.339	800.000	-0.064	-0.253
-547.325	800.000	-0.058	0.207
-546.310	320.843	0.172	0.326
-545.296	-116.630	-0.037	0.007
-544.281	-83.160	-0.216	0.069
-543.266	-127.017	0.102	0.015
-542.252	-13.211	-0.384	-0.249
-541.237	107.973	0.325	-0.386
-540.223	230.494	-0.069	0.112
-539.208	678.003	-0.095	-0.245
-538.193	156.665	0.231	-0.317
-537.179	8.902	0.027	0.020
-536.164	-122.388	0.266	0.043
-535.150	346.265	-0.062	0.121
-534.135	21.883	-0.199	0.162
-533.121	-96.434	0.215	-0.057
-532.106	-36.302	-0.235	-0.126
-531.091	800.000	0.058	0.220
-530.077	-200.000	-0.016	-0.089
-529.062	-200.000	0.012	-0.196
-528.048	-200.000	-0.018	-0.160
-527.033	5.111	0.093	-0.068
-526.018	-143.839	-0.423	-0.040
-525.004	26.401	0.147	-0.122
-523.989	-16.917	-0.092	-0.058
-522.975	20.256	0.082	0.066
-521.960	800.000	-0.056	-0.156
-520.945	-200.000	0.042	0.312
-519.931	497.605	0.114	0.260
-518.916	371.773	0.093	0.189
-517.902	-200.000	0.016	0.130
-516.887	-18.942	-0.107	0.067
-515.872	307.676	-0.064	-0.118
-514.858	136.293	0.368	-0.477
-513.843	-63.791	-0.167	0.068
-512.829	-120.352	-0.112	0.019
-511.814	-141.147	0.211	-0.021
-510.799	155.731	0.252	0.346
-509.785	-156.376	-0.268	-0.017
-508.770	217.989	0.045	-0.071
-507.756	64.408	-0.096	0.096
-506.741	-22.431	0.296	-0.178
-505.726	-200.000	-0.009	-0.114
-504.712	-173.392	-0.345	0.010
-503.697	348.020	0.125	0.245
-502.683	674.516	-0.194	-0.500
-501.668	-49.914	0.004	-0.002
-500.653	336.736	0.171	0.331
-499.639	-95.253	-0.120	0.032
-498.624	-200.000	-0.010	-0.061
-497.610	-134.911	-0.182	0.022
-496.595	165.426	-0.109	-0.153
-495.581	-200.000	0.050	0.262
-494.566	142.779	-0.125	-0.165
-493.551	51.682	0.203	0.192
-492.537	172.012	-0.134	-0.192
-491.522	-50.022	0.240	-0.113
-490.508	-89.651	-0.498	-0.145
-489.493	-41.487	0.034	-0.018
-488.478	-200.000	0.023	-0.127
-487.464	22.121	0.181	-0.147
-486.449	-133.000	-0.289	0.037
-485.435	64.281	0.074	0.074
-484.420	72.881	0.046	0.048
-483.405	-82.705	0.230	-0.074
-482.391	16.356	0.241	-0.189
-481.376	800.000	0.063	-0.230
-480.362	62.292	0.308	0.306
-479.347	11.881	-0.072	0.055
-478.332	134.245	0.076	-0.098
-477.318	-139.926	0.386	-0.041
-476.303	212.775	0.141	0.221
-475.289	-31.870	-0.203	-0.113
-474.274	-51.594	0.245	0.113
-473.259	800.000	0.011	-0.034
-472.245	356.000	0.089	0.176
-471.230	-72.039	-0.261	0.096
-470.216	-135.198	-0.169	0.020
-469.201	27.809	0.328	-0.275
-468.186	-82.600	-0.081	0.026
-467.172	-5.017	0.239	0.163
-466.157	349.889	-0.103	-0.203
-465.143	228.154	-0.103	0.166
-464.128	38.286	0.322	-0.285
-463.113	-182.130	0.131	-0.002
-462.099	-140.053	0.203	0.021
-461.084	-200.000	0.018	0.165
-460.070	-200.000	0.019	-0.213
-459.055	-74.538	0.132	-0.047
-458.040	800.000	0.062	0.178
-457.026	48.963	-0.097	0.091
-456.011	141.727	-0.180	0.237
-454.997	-200.000	-0.064	-0.358
-453.982	44.437	-0.264	0.241
-452.968	-66.154	0.127	0.050
-451.953	-61.543	-0.375	0.156
-450.938	182.976	-0.201	-0.295
-449.924	140.436	0.054	0.071
-448.909	305.254	-0.061	-0.112
-447.895	-200.000	-0.009	-0.179
-446.880	98.621	-0.095	0.108
-445.865	-48.869	0.171	0.081
-444.851	73.148	-0.058	0.060
-443.836	2.519	-0.055	-0.040
-442.822	-200.000	0.014	-0.098
-441.807	29.620	0.293	-0.248
-440.792	-103.042	0.118	-0.028
-439.778	800.000	0.033	-0.105
-438.763	81.828	-0.079	-0.085
-437.749	-200.000	-0.015	-0.098
-436.734	800.000	-0.015	0.052
-435.719	800.000	0.086	0.309
-434.705	-200.000	0.046	-0.470
-433.690	-46.774	0.487	-0.237
-432.676	677.862	-0.063	0.164
-431.661	11.006	-0.137	0.104
-430.646	800.000	0.010	-0.029
-429.632	-5.381	0.229	-0.156
-428.617	-200.000	-0.014	-0.173
-427.603	-200.000	0.014	0.206
-426.588	-69.915	-0.157	0.059
-425.573	39.664	-0.172	-0.153
-424.559	47.863	0.221	0.205
-423.544	569.863	-0.172	0.416
-422.530	55.868	0.115	0.111
-421.515	-12.203	0.147	0.096
-420.500	-22.527	-0.234	0.140
-419.486	-1.271	0.243	0.171
-418.471	-57.874	-0.218	0.094
-417.457	48.766	-0.039	-0.036
-416.442	-9.766	-0.229	0.151
-415.428	-21.178	0.297	0.180
-414.413	-16.697	0.088	0.055
-413.398	-58.060	-0.197	-0.085
-412.384	2.644	-0.248	-0.178
-411.369	183.526	-0.115	-0.168
-410.355	-110.567	0.453	0.093
-409.340	-129.916	0.126	0.017
-408.325	-200.000	0.017	0.114
-407.311	800.000	0.116	0.401
-406.296	86.518	0.082	0.090
-405.282	-142.016	-0.033	0.003
-404.267	800.000	-0.074	0.299
-403.252	-4.949	0.076	-0.052
-402.238	128.545	-0.048	-0.061
-401.223	22.655	0.183	0.148
-400.209	-200.000	-0.025	-0.130
-399.194	126.180	-0.024	0.030
-398.179	184.149	-0.215	0.315
-397.165	116.669	-0.072	-0.087
-396.150	-158.128	-0.307	0.018
-395.136	73.868	-0.140	0.146
-394.121	800.000	0.108	-0.317
-393.106	490.909	-0.055	0.126
-392.092	-200.000	0.064	0.439
-391.077	-79.924	-0.256	-0.085
-390.063	739.911	-0.017	0.046
-389.048	-101.327	-0.194	-0.047
-388.033	-146.945	-0.057	-0.005
-387.019	22.566	0.072	0.058
-386.004	128.153	-0.155	0.195
-384.990	-120.519	0.215	0.036
-383.975	219.857	-0.084	0.134
-382.960	-69.248	-0.475	0.181
-381.946	-109.905	-0.099	0.021
-380.931	800.000	0.062	0.209
-379.917	-200.000	-0.049	-0.277
-378.902	108.114	-0.118	-0.139
-377.888	800.000	-0.090	0.286
-376.873	-200.000	0.026	0.226
-375.858	-188.876	0.118	-0.001
-374.844	-200.000	-0.015	-0.096
-373.829	-33.423	0.319	0.175
-372.815	-68.996	-0.202	-0.077
-371.800	-200.000	-0.002	0.192
-370.785	62.272	-0.207	-0.205
-369.771	21.130	0.322	0.259
-368.756	227.764	0.013	-0.021
-367.742	362.982	0.158	0.314
-366.727	57.053	0.206	0.199
-365.712	-200.000	-0.049	-0.219
-364.698	55.205	0.123	-0.117
-363.683	-137.781	0.101	0.011
-362.669	418.796	-0.028	0.060
-361.654	-119.261	-0.046	-0.008
-360.639	-43.033	0.264	-0.133
-359.625	-87.006	0.345	-0.104
-358.610	-77.490	0.031	-0.010
-357.596	133.435	-0.164	0.210
-356.581	-200.000	0.066	0.316
-355.566	-155.903	-0.032	0.002
-354.552	-76.073	-0.299	0.104
-353.537	-43.399	-0.231	-0.115
-352.523	-200.000	0.012	0.121
-351.508	800.000	-0.058	-0.168
-350.493	685.962	-0.082	-0.213
-349.479	20.918	0.130	-0.105
-348.464	336.189	0.184	-0.353
-347.450	-161.307	0.094	-0.005
-346.435	800.000	-0.034	-0.134
-345.420	42.163	0.323	-0.290
-344.406	800.000	0.047	0.134
-343.391	171.097	-0.069	0.097
-342.377	725.163	-0.114	0.300
-341.362	253.765	0.047	0.079
-340.348	-200.000	-0.036	0.160
-339.333	11.994	0.273	0.208
-338.318	-200.000	0.008	0.095
-337.304	-31.915	-0.448	-0.248
-336.289	-54.596	0.265	-0.119
-335.275	18.996	0.268	-0.212
-334.260	-124.005	-0.376	-0.059
-333.245	305.203	-0.072	-0.133
-332.231	-200.000	0.002	-0.050
-331.216	-32.837	-0.215	0.118
-330.202	145.158	-0.125	0.165
-329.187	440.470	-0.042	0.091
-328.172	800.000	0.159	0.502
-327.158	54.502	-0.172	-0.164
-326.143	147.016	-0.114	-0.152
-325.129	205.624	-0.024	-0.037
-324.114	-200.000	-0.022	-0.238
-323.099	-200.000	-0.008	-0.323
-322.085	-29.938	0.154	0.087
-321.070	800.000	-0.090	0.273
-320.056	490.628	-0.089	0.201
-319.041	1.882	0.270	-0.193
-318.026	-138.196	0.248	0.027
-317.012	-11.245	0.051	0.033
-315.997	-98.841	0.258	-0.065
-314.983	-200.000	-0.021	0.260
-313.968	95.815	-0.298	-0.336
-312.953	800.000	0.054	-0.162
-311.939	-200.000	-0.004	0.230
-310.924	-55.364	-0.137	0.061
-309.910	-64.718	-0.090	-0.036
-308.895	109.385	0.223	0.263
-307.880	800.000	-0.082	-0.251
-306.866	800.000	0.015	-0.053
-305.851	66.047	0.232	-0.233
-304.837	-114.487	-0.260	0.049
-303.822	58.663	0.235	-0.228
-302.807	-32.990	0.133	0.073
-301.793	-200.000	-0.302	0.000
-300.778	-200.000	-0.021	0.373
-299.764	-56.817	-0.150	0.066
-298.749	160.819	0.219	0.301
-297.735	-200.000	0.038	-0.262
-296.720	-134.047	-0.405	-0.049
-295.705	800.000	-0.150	0.415
-294.691	38.346	0.219	-0.193
-293.676	174.701	-0.114	-0.164
-292.662	800.000	-0.062	0.213
-291.647	-178.279	0.268	-0.006
-290.632	296.232	0.142	-0.258
-289.618	-27.663	-0.232	0.133
-288.603	15.394	-0.226	-0.175
-287.589	107.923	0.160	0.188
-286.574	-91.551	-0.234	0.066
-285.559	110.691	0.151	0.180
-284.545	-119.728	0.086	-0.015
-283.530	152.700	0.141	-0.190
-282.516	21.368	0.292	0.235
-281.501	-1.035	-0.172	0.120
-280.486	-93.510	0.357	0.097
-279.472	-200.000	-0.035	0.171
-278.457	-72.031	-0.448	0.164
-277.443	-40.310	-0.345	0.177
-276.428	50.232	0.230	0.214
-275.413	732.625	-0.128	-0.338
-274.399	800.000	-0.063	0.183
-273.384	-200.000	-0.203	-0.001
-272.370	-9.837	0.073	0.048
-271.355	190.280	0.137	-0.202
-270.340	556.036	0.133	-0.315
-269.326	-26.823	0.074	0.043
-268.311	-200.000	0.034	-0.181
-267.297	-62.356	0.258	-0.106
-266.282	-154.234	-0.248	0.017
-265.267	-200.000	-0.014	-0.071
-264.253	308.802	-0.030	-0.056
-263.238	401.776	0.206	-0.426
-262.224	-161.227	-0.198	-0.010
-261.209	-200.000	-0.000	-0.074
-260.195	-103.359	0.322	-0.075
-259.180	300.922	0.029	0.053
-258.165	-24.610	0.109	0.064
-257.151	347.745	0.117	0.227
-256.136	265.426	-0.101	0.173
-255.122	800.000	-0.101	0.343
-254.107	-161.645	0.078	-0.004
-253.092	-14.605	0.148	0.094
-252.078	-200.000	0.081	0.374
-251.063	-200.000	0.050	0.241
-250.049	-41.456	0.066	-0.034
-249.034	-200.000	-0.020	0.304
-248.019	-98.595	0.423	-0.106
-247.005	-27.793	0.284	-0.162
-245.990	-43.445	-0.294	-0.146
-244.976	94.962	-0.131	0.147
-243.961	0.472	-0.132	0.093
-242.946	-173.870	-0.077	0.002
-241.932	800.000	0.020	-0.085
-240.917	40.669	-0.124	-0.110
-239.903	64.346	0.276	0.274
-238.888	146.539	0.217	-0.287
-237.873	179.773	0.057	-0.083
-236.859	-200.000	-0.019	0.312
-235.844	-43.734	-0.317	0.157
-234.830	-160.870	0.228	-0.012
-233.815	621.711	-0.206	-0.511
-232.800	-200.000	-0.023	-0.230
-231.786	-200.000	0.006	0.173
-230.771	-141.936	0.071	0.007
-229.757	286.889	-0.047	0.083
-228.742	50.863	-0.044	0.041
-227.727	-200.000	0.023	-0.130
-226.713	800.000	-0.024	0.076
-225.698	800.000	-0.058	0.217
-224.684	-58.169	0.089	-0.038
-223.669	-200.000	0.017	-0.260
-222.655	280.144	0.095	0.167
-221.640	105.169	0.086	0.100
-220.625	-92.791	-0.133	0.037
-219.611	-154.139	-0.061	0.004
-218.596	41.763	0.056	0.050
-217.582	-200.000	-0.021	0.103
-216.567	-200.000	0.057	-0.265
-215.552	-185.381	0.102	0.002
-214.538	-133.833	-0.258	-0.032
-213.523	800.000	0.049	0.147
-212.509	-23.400	0.260	0.154
-211.494	-86.501	0.103	0.031
-210.479	322.069	-0.070	0.131
-209.465	-51.068	0.191	0.088
-208.450	-50.027	-0.231	-0.108
-207.436	-135.486	-0.199	-0.023
-206.421	-200.000	-0.011	-0.102
-205.406	37.970	0.152	-0.133
-204.392	17.053	-0.226	0.176
-203.377	108.119	-0.075	0.087
-202.363	66.482	-0.323	0.323
-201.348	-57.642	-0.107	0.046
-200.333	43.859	-0.200	0.181
-199.319	-200.000	0.013	0.140
-198.304	250.626	0.133	-0.222
-197.290	45.648	0.257	-0.234
-196.275	355.449	-0.064	0.126
-195.260	226.975	-0.075	0.119
-194.246	-77.902	0.092	-0.031
-193.231	-54.017	0.180	0.080
-192.217	-94.361	-0.543	0.146
-191.202	24.486	0.135	-0.110
-190.187	57.419	-0.191	-0.184
-189.173	264.781	0.067	-0.115
-188.158	-200.000	-0.070	0.322
-187.144	-200.000	-0.028	-0.207
-186.129	-65.208	0.246	-0.098
-185.114	-162.310	-0.222	0.011
-184.100	-69.415	-0.242	0.091
-183.085	-14.838	-0.329	-0.208
-182.071	-200.000	-0.207	-0.000
-181.056	39.675	0.241	0.212
-180.042	-200.000	-0.006	0.175
-179.027	-137.719	0.127	-0.014
-178.012	225.065	0.110	-0.176
-176.998	-120.427	-0.050	-0.008
-175.983	-200.000	0.027	-0.171
-174.969	233.879	0.060	-0.097
-173.954	111.935	0.158	0.187
-172.939	-39.451	0.148	0.076
-171.925	111.234	-0.081	-0.096
-170.910	-74.116	0.252	-0.090
-169.896	-154.314	0.277	-0.018
-168.881	600.356	0.162	-0.395
-167.866	800.000	0.074	0.213
-166.852	-200.000	0.054	-0.279
-165.837	118.737	0.047	0.057
-164.823	800.000	-0.017	-0.048
-163.808	-116.161	0.269	0.049
-162.793	-140.794	-0.070	-0.007
-161.779	800.000	0.093	0.313
-160.764	-200.000	-0.047	0.344
-159.750	67.178	-0.034	0.034
-158.735	212.629	0.117	-0.181
-157.720	-200.000	-0.041	0.252
-156.706	260.977	-0.050	-0.086
-155.691	201.087	-0.136	0.205
-154.677	612.418	-0.113	0.277
-153.662	170.827	-0.209	0.294
-152.647	58.998	-0.108	-0.104
-151.633	-200.000	0.045	-0.371
-150.618	-200.000	0.031	-0.137
-149.604	-97.361	-0.499	0.128
-148.589	175.100	-0.052	-0.075
-147.574	-68.367	0.045	0.017
-146.560	189.486	-0.171	0.252
-145.545	225.596	-0.200	-0.318
-144.531	-200.000	-0.021	0.294
-143.516	-200.000	0.013	0.232
-142.502	614.789	0.158	0.389
-141.487	-23.920	0.064	0.038
-140.472	76.691	0.320	-0.333
-139.458	-175.634	-0.365	0.010
-138.443	-113.478	-0.117	-0.022
-137.429	612.765	-0.017	0.041
-136.414	-200.000	0.001	0.152
-135.399	501.878	0.111	-0.251
-134.385	-44.888	0.147	0.072
-133.370	106.418	0.105	0.122
-132.356	262.103	0.098	-0.167
-131.341	-45.580	-0.350	-0.170
-130.326	72.252	0.073	0.075
-129.312	69.156	-0.168	-0.170
-128.297	-200.000	-0.030	-0.186
-127.283	-200.000	-0.021	-0.144
-126.268	-40.501	-0.020	0.010
-125.253	595.966	-0.038	-0.093
-124.239	368.795	-0.049	-0.097
-123.224	-30.101	-0.366	0.204
-122.210	800.000	0.050	0.194
-121.195	-34.347	0.174	0.094
-120.180	-177.652	0.352	0.008
-119.166	61.251	-0.206	0.201
-118.151	-200.000	-0.028	0.256
-117.137	131.923	-0.024	-0.030
-116.122	-152.324	0.051	0.004
-115.107	800.000	-0.037	0.127
-114.093	-92.399	-0.225	0.062
-113.078	20.334	0.152	-0.121
-112.064	-200.000	0.040	-0.371
-111.049	-17.864	0.067	0.041
-110.034	-200.000	0.045	-0.238
-109.020	-15.785	0.076	-0.048
-108.005	487.476	-0.144	-0.322
-106.991	800.000	-0.045	-0.165
-105.976	19.025	-0.093	0.073
-104.962	-37.666	-0.307	-0.160
-103.947	-200.000	0.006	-0.102
-102.932	159.923	-0.129	-0.176
-101.918	-200.000	0.014	-0.078
-100.903	-63.151	0.285	0.115
-99.889	-42.785	-0.181	0.090
-98.874	118.063	-0.176	0.212
-97.859	92.431	0.274	0.303
-96.845	800.000	0.036	-0.124
-95.830	274.709	0.092	-0.159
-94.816	-89.894	-0.065	0.019
-93.801	800.000	0.112	0.359
-92.786	201.330	-0.227	-0.343
-91.772	203.302	-0.118	-0.179
-90.757	-58.095	-0.107	-0.046
-89.743	-192.930	0.192	0.002
-88.728	-56.653	-0.237	0.103
-87.713	-82.917	0.156	0.049
-86.699	-189.448	0.197	0.002
-85.684	9.544	0.136	0.101
-84.670	-32.094	0.181	-0.099
-83.655	-200.000	-0.037	0.346
-82.640	-83.597	-0.308	0.096
-81.626	-98.757	0.132	-0.033
-80.611	5.068	0.097	-0.070
-79.597	69.985	-0.317	0.320
-78.582	365.029	0.063	0.124
-77.567	70.854	0.181	-0.183
-76.553	-62.352	0.477	-0.195
-75.538	-200.000	-0.022	-0.176
-74.524	61.757	-0.039	0.038
-73.509	73.429	0.131	0.134
-72.494	-178.433	-0.047	0.001
-71.480	44.063	-0.106	0.095
-70.465	800.000	-0.060	0.249
-69.451	800.000	-0.059	-0.208
-68.436	-105.348	0.223	0.050
-67.422	-154.415	0.139	-0.009
-66.407	38.376	-0.202	-0.176
-65.392	-41.038	0.202	0.102
-64.378	-76.795	0.287	0.098
-63.363	-28.400	0.227	-0.128
-62.349	471.843	0.141	-0.310
-61.334	98.881	-0.815	-0.920
-60.319	92.969	0.471	0.521
-59.305	-200.000	-0.008	-0.763
-58.290	141.032	0.915	1.184
-57.276	298.847	0.741	1.335
-56.261	-200.000	114.638	660.537
-55.246	540.923	1530.514	3566.200
-54.232	176.516	2702.799	3842.676
-53.217	109.200	2183.348	2555.923
-52.203	37.765	1704.174	1480.546
-51.188	30.131	1520.107	1268.584
-50.173	27.722	1495.586	1231.823
-49.159	52.888	1554.711	1454.310
-48.144	51.140	1569.670	1456.249
-47.130	30.256	1525.789	1273.979
-46.115	27.268	1510.259	1240.617
-45.100	27.052	1506.995	1236.420
-44.086	26.961	1505.195	1234.274
-43.071	26.938	1503.295	1232.512
-42.057	26.848	1501.351	1230.257
-41.042	26.903	1499.750	1229.266
-40.027	26.889	1498.493	1228.095
-39.013	26.864	1497.093	1226.729
-37.998	26.838	1496.094	1225.687
-36.984	26.784	1494.880	1224.275
-35.969	26.922	1493.324	1223.887
-34.954	26.972	1492.015	1223.100
-33.940	26.946	1490.487	1221.627
-32.925	26.949	1489.320	1220.637
-31.911	26.942	1487.971	1219.441
-30.896	26.919	1487.009	1218.448
-29.881	26.939	1485.289	1217.126
-28.867	27.000	1484.297	1216.673
-27.852	26.988	1482.903	1215.402
-26.838	27.003	1481.264	1214.112
-25.823	27.054	1479.597	1213.032
-24.809	27.024	1478.522	1211.906
-23.794	27.053	1476.558	1210.441
-22.779	27.057	1475.520	1209.566
-21.765	26.966	1474.731	1208.271
-20.750	27.020	1473.521	1207.589
-19.736	26.973	1472.908	1206.728
-18.721	26.913	1471.485	1205.111
-17.706	27.008	1470.327	1204.746
-16.692	26.908	1469.054	1202.991
-15.677	26.954	1468.821	1203.059
-14.663	26.885	1467.263	1201.281
-13.648	26.886	1466.294	1200.444
-12.633	26.968	1465.258	1200.088
-11.619	26.890	1464.918	1199.247
-10.604	26.849	1464.291	1198.418
-9.590	26.927	1462.597	1197.498
-8.575	26.951	1461.887	1197.027
-7.560	26.954	1461.193	1196.433
-6.546	26.909	1460.557	1195.566
-5.531	26.884	1459.539	1194.523
-4.517	26.867	1458.226	1193.291
-3.502	26.829	1457.662	1192.531
-2.487	26.952	1456.185	1192.082
-1.473	26.901	1455.372	1191.037
-0.458	26.976	1453.813	1190.204
0.556	28.800	1444.636	1179.914
1.571	26.058	1420.047	1142.395
2.586	22.763	1359.556	1073.623
3.600	21.128	1276.985	998.974
4.615	19.546	1231.453	954.531
5.629	17.123	1174.844	897.779
6.644	10.329	1092.779	801.476
7.659	5.195	1055.480	749.455
8.673	4.491	1050.206	742.282
9.688	4.268	1046.895	738.816
10.702	4.055	1045.321	736.626
11.717	4.186	1043.257	735.729
12.731	6.600	1045.738	748.884
13.746	13.859	1055.049	790.150
14.761	20.104	1063.351	826.162
15.775	22.090	1065.311	837.087
16.790	21.790	1063.323	834.023
17.804	20.795	1061.966	828.157
18.819	19.904	1060.209	822.480
19.834	19.557	1058.797	819.667
20.848	19.441	1058.211	818.587
21.863	19.494	1057.540	818.248
22.877	19.310	1056.699	816.654
23.892	19.078	1056.208	815.104
24.907	19.085	1054.895	814.050
25.921	19.140	1053.920	813.487
26.936	19.120	1053.486	812.984
27.950	19.000	1052.590	811.653
28.965	19.119	1050.877	810.823
29.980	19.121	1050.349	810.356
30.994	19.237	1049.656	810.293
32.009	19.378	1048.723	810.165
33.023	19.383	1048.391	809.861
34.038	19.401	1047.309	809.035
35.053	19.259	1046.271	807.498
36.067	19.182	1045.152	806.200
37.082	19.110	1044.339	805.166
38.096	19.167	1043.427	804.660
39.111	19.270	1042.853	804.625
40.126	19.363	1042.116	804.419
41.140	19.282	1040.492	802.715
42.155	18.835	1039.610	799.887
43.169	18.660	1038.487	798.135
44.184	18.639	1037.671	797.339
45.199	18.641	1036.427	796.323
46.213	18.617	1035.465	795.404
47.228	18.780	1034.437	795.298
48.242	18.987	1033.895	795.768
49.257	19.185	1032.760	795.739
50.271	19.099	1032.318	794.933
51.286	19.068	1031.979	794.460
52.301	19.304	1030.881	794.632
53.315	19.342	1029.872	793.957
54.330	19.154	1029.012	792.358
55.344	18.987	1028.008	790.750
56.359	18.912	1026.678	789.310
57.374	18.940	1026.146	788.960
58.388	18.906	1025.509	788.244
59.403	18.752	1024.465	786.669
60.417	18.626	1024.120	785.756
61.432	18.601	1023.414	785.028
62.447	18.660	1022.405	784.455
63.461	18.598	1021.075	783.082
64.476	18.500	1020.530	782.150
65.490	18.504	1019.690	781.453
66.505	18.462	1018.758	780.477
67.520	18.518	1017.865	779.980
68.534	18.481	1017.406	779.392
69.549	18.437	1016.782	778.645
70.563	18.482	1016.020	778.197
71.578	18.558	1014.804	777.542
72.593	18.317	1014.180	775.902
73.607	18.207	1013.164	774.560
74.622	18.232	1011.970	773.689
75.636	18.194	1011.371	772.991
76.651	18.320	1010.880	773.116
77.666	18.314	1009.945	772.307
78.680	18.482	1009.183	772.415
79.695	18.368	1009.017	771.703
80.709	18.322	1008.652	771.151
81.724	18.544	1007.541	771.232
82.739	18.740	1006.445	771.204
83.753	18.696	1006.510	770.988
84.768	19.092	1005.222	771.708
85.782	19.272	1005.477	772.643
86.797	19.478	1004.641	772.852
87.812	19.632	1003.220	772.382
88.826	19.321	1002.699	770.523
89.841	19.158	1001.820	769.050
90.855	19.269	1001.018	768.864
91.870	19.381	1000.387	768.808
92.884	19.461	999.822	768.663
93.899	19.523	998.808	768.094
94.914	19.402	998.227	767.038
95.928	19.338	997.297	765.973
96.943	19.524	996.638	766.223
97.957	19.426	995.494	764.841
98.972	19.256	994.345	763.141
99.987	19.265	993.820	762.708
101.001	19.375	992.818	762.360
102.016	19.321	992.156	761.545
103.030	19.315	991.252	760.758
104.045	19.291	990.572	760.060
105.060	19.310	989.577	759.312
106.074	19.413	987.917	758.425
107.089	19.094	987.568	756.687
108.103	18.683	986.351	753.884
109.118	18.650	985.273	752.850
110.133	18.502	984.776	751.755
111.147	18.465	983.988	750.925
112.162	18.502	982.309	749.736
113.176	18.547	981.833	749.503
114.191	18.725	980.984	749.568
115.206	18.913	980.254	749.764
116.220	18.703	979.699	748.358
117.235	18.709	978.696	747.551
118.249	18.661	977.922	746.687
119.264	18.647	976.936	745.806
120.279	18.542	976.185	744.708
121.293	18.388	975.318	743.316
122.308	18.443	974.671	742.995
123.322	18.473	973.565	742.213
124.337	18.201	972.824	740.406
125.352	18.256	971.257	739.388
126.366	18.298	970.322	738.790
127.381	18.191	969.641	737.746
128.395	18.256	968.683	737.232
129.410	18.228	968.012	736.533
130.424	18.288	966.788	735.796
131.439	18.548	965.663	735.991
132.454	18.672	965.193	736.100
133.468	18.620	964.799	735.510
134.483	18.719	963.471	734.857
135.497	18.667	963.388	734.507
136.512	18.773	962.318	734.081
137.527	18.854	961.734	733.914
138.541	18.679	961.222	732.711
139.556	18.648	960.570	732.019
140.570	18.876	959.739	732.292
141.585	18.821	959.361	731.702
142.600	19.067	959.041	732.442
143.614	19.176	957.880	731.953
144.629	19.212	957.656	731.873
145.643	19.469	956.467	731.986
146.658	19.350	955.600	730.755
147.673	19.098	954.761	728.983
148.687	19.006	953.114	727.270
149.702	18.868	952.438	726.109
150.716	18.819	951.273	724.948
151.731	18.633	951.035	723.917
152.746	18.679	950.148	723.375
153.760	18.910	949.202	723.561
154.775	18.960	948.794	723.396
155.789	19.022	947.538	722.636
156.804	19.068	947.518	722.750
157.819	19.055	946.659	721.974
158.833	19.143	946.155	721.896
159.848	19.253	945.546	721.830
160.862	19.384	944.908	721.827
161.877	19.536	943.661	721.447
162.892	19.028	942.966	718.727
163.906	18.838	941.820	716.998
164.921	18.717	941.000	715.808
165.935	18.787	940.110	715.359
166.950	18.908	938.895	714.875
167.964	19.048	937.999	714.710
168.979	18.948	937.400	713.774
169.994	18.866	935.990	712.299
171.008	18.955	935.256	712.044
172.023	18.849	934.506	710.974
173.037	19.133	934.226	711.870
174.052	19.308	933.486	711.966
175.067	19.349	932.528	711.342
176.081	18.976	931.503	708.962
177.096	18.778	930.203	707.094
178.110	18.681	929.505	706.100
179.125	18.701	929.186	705.877
180.140	18.814	928.796	705.986
181.154	18.932	927.877	705.708
182.169	18.960	927.536	705.502
183.183	19.187	926.822	705.826
184.198	19.195	926.117	705.259
185.213	19.202	925.913	705.069
186.227	19.284	925.083	704.709
187.242	19.342	924.753	704.635
188.256	19.354	923.543	703.696
189.271	19.543	923.019	704.007
190.286	19.495	922.568	703.405
191.300	19.436	921.133	702.008
192.315	18.883	919.966	698.810
193.329	18.502	919.518	696.860
194.344	18.486	919.133	696.439
195.359	18.953	918.120	697.507
196.373	19.009	917.883	697.490
197.388	18.998	917.660	697.218
198.402	19.317	917.153	698.060
199.417	19.440	917.018	698.393
200.432	19.589	916.816	698.780
201.446	19.764	916.525	699.205
202.461	19.784	916.031	698.848
203.475	19.833	915.380	698.490
204.490	19.826	914.640	697.835
205.504	19.629	913.188	695.870
206.519	19.330	912.262	693.900
207.534	19.396	911.636	693.629
208.548	19.356	910.972	692.901
209.563	19.359	910.340	692.372
210.577	19.487	909.180	691.939
211.592	19.356	908.837	691.094
212.607	19.593	908.700	691.878
213.621	19.723	908.433	692.134
214.636	19.780	907.075	691.265
215.650	19.678	906.773	690.567
216.665	19.560	906.207	689.602
217.680	19.767	905.459	689.800
218.694	19.793	905.324	689.739
219.709	19.949	904.783	689.887
220.723	19.837	904.450	689.123
221.738	19.721	903.782	688.092
222.753	19.714	902.869	687.311
223.767	19.720	902.062	686.660
224.782	19.847	901.083	686.358
225.796	20.007	900.281	686.318
226.811	20.049	900.182	686.351
227.826	19.942	899.376	685.251
228.840	19.750	898.538	683.790
229.855	19.644	897.621	682.614
230.869	19.693	896.954	682.239
231.884	19.740	896.824	682.268
232.899	19.680	895.763	681.162
233.913	19.485	895.126	679.848
234.928	19.416	894.091	678.733
235.942	19.418	893.425	678.175
236.957	19.301	892.770	677.158
237.972	19.228	892.553	676.645
238.986	19.416	891.362	676.422
240.001	19.453	890.834	676.104
241.015	19.455	890.393	675.719
242.030	19.541	889.564	675.366
243.045	19.647	888.781	675.126
244.059	19.542	888.583	674.507
245.074	19.746	887.783	674.634
246.088	19.889	887.183	674.678
247.103	19.843	887.030	674.324
248.117	20.095	886.555	674.881
249.132	20.040	886.600	674.645
250.147	20.364	885.862	675.281
251.161	20.525	885.573	675.630
252.176	20.601	884.720	675.212
253.190	20.534	884.096	674.418
254.205	20.703	883.777	674.768
255.220	20.827	882.977	674.578
256.234	20.810	882.100	673.784
257.249	20.745	881.467	672.987
258.263	20.623	881.455	672.448
259.278	20.611	880.811	671.851
260.293	20.648	879.938	671.270
261.307	20.821	879.311	671.397
262.322	20.678	878.964	670.524
263.336	20.754	878.272	670.226
264.351	20.897	877.769	670.335
265.366	20.905	876.599	669.413
266.380	20.796	876.490	668.851
267.395	20.703	875.753	667.875
268.409	20.680	875.182	667.290
269.424	20.522	874.218	665.892
270.439	20.495	873.387	665.096
271.453	20.723	872.816	665.476
272.468	20.506	871.857	663.854
273.482	20.448	871.307	663.156
274.497	20.482	870.526	662.631
275.512	20.507	870.121	662.363
276.526	20.444	869.376	661.496
277.541	20.283	869.188	660.680
278.555	20.650	867.809	660.970
279.570	20.812	867.583	661.353
280.585	20.876	867.696	661.625
281.599	20.886	867.008	661.079
282.614	20.770	866.322	660.059
283.628	20.568	865.740	658.790
284.643	20.607	864.935	658.269
285.657	20.645	864.214	657.807
286.672	20.623	863.627	657.218
287.687	20.615	863.232	656.829
288.701	20.644	863.162	656.824
289.716	20.705	862.275	656.323
290.730	20.572	861.834	655.426
291.745	20.788	860.801	655.398
292.760	20.776	860.194	654.830
293.774	20.834	860.106	654.924
294.789	20.962	859.526	654.907
295.803	20.973	858.803	654.338
296.818	20.688	858.343	652.860
297.833	20.738	856.950	651.931
298.847	20.670	856.513	651.286
299.862	20.714	856.160	651.126
300.876	20.802	855.246	650.703
301.891	20.976	854.586	650.790
302.906	21.066	854.370	650.906
303.920	21.060	854.191	650.689
304.935	21.427	853.380	651.381
305.949	21.420	852.696	650.773
306.964	21.471	852.069	650.430
307.979	21.190	851.303	648.743
308.993	21.063	850.704	647.755
310.008	21.194	850.760	648.229
311.022	21.310	850.029	648.044
312.037	21.146	849.764	647.177
313.052	21.029	849.082	646.165
314.066	20.890	848.084	644.836
315.081	20.610	847.527	643.321
316.095	20.772	846.588	643.147
317.110	20.699	846.411	642.686
318.125	20.849	845.791	642.713
319.139	20.766	845.429	642.074
320.154	20.660	844.809	641.158
321.168	20.726	844.066	640.778
322.183	20.880	843.745	641.046
323.197	20.973	843.034	640.790
324.212	20.954	842.600	640.333
325.227	20.987	841.642	639.671
326.241	20.948	841.598	639.439
327.256	20.850	840.880	638.476
328.270	20.849	840.430	638.073
329.285	20.856	839.825	637.585
330.300	20.888	839.182	637.157
331.314	20.893	838.503	636.602
332.329	21.028	838.049	636.696
333.343	21.031	837.417	636.169
334.358	21.203	837.095	636.496
335.373	21.209	836.604	636.087
336.387	21.271	836.081	635.859
337.402	21.196	835.587	635.152
338.416	21.427	834.851	635.379
339.431	21.561	834.646	635.654
340.446	21.656	834.211	635.610
341.460	21.705	833.854	635.458
342.475	21.788	833.259	635.252
343.489	21.804	832.614	634.761
344.504	21.693	832.455	634.182
345.519	21.846	832.112	634.419
346.533	22.015	831.311	634.360
347.548	21.869	830.950	633.501
348.562	21.774	830.058	632.422
349.577	21.560	829.215	630.956
350.592	21.372	828.472	629.656
351.606	21.241	827.792	628.612
352.621	21.238	827.721	628.490
353.635	21.239	827.539	628.301
354.650	21.164	827.026	627.586
355.665	21.415	826.679	628.170
356.679	21.429	826.074	627.703
357.694	21.507	825.621	627.586
358.708	21.605	824.763	627.228
359.723	21.533	824.451	626.676
360.738	21.512	823.745	626.009
361.752	21.600	823.347	625.966
362.767	21.582	822.949	625.545
363.781	21.759	822.884	626.073
364.796	21.974	822.428	626.437
365.810	21.914	822.549	626.260
366.825	22.114	822.006	626.505
367.840	22.294	821.448	626.664
368.854	22.158	820.969	625.760
369.869	21.986	820.567	624.784
370.883	22.038	819.520	624.117
371.898	21.851	819.352	623.271
372.913	21.904	818.580	622.817
373.927	22.150	818.038	623.219
374.942	22.140	816.890	622.257
375.956	21.956	816.538	621.281
376.971	21.972	816.495	621.251
377.986	22.290	816.113	622.031
379.000	22.421	815.278	621.799
380.015	22.474	814.705	621.495
381.029	22.307	814.240	620.499
382.044	22.284	813.567	619.847
383.059	22.295	812.800	619.248
384.073	22.353	812.420	619.108
385.088	22.264	811.810	618.275
386.102	22.060	811.358	617.159
387.117	21.771	810.771	615.642
388.132	21.892	809.999	615.428
389.146	21.744	809.885	614.767
390.161	21.857	809.610	614.899
391.175	22.006	809.595	615.355
392.190	22.366	808.575	615.787
393.205	22.134	808.149	614.596
394.219	21.986	807.781	613.745
395.234	22.012	806.861	613.081
396.248	22.011	806.440	612.703
397.263	21.868	805.852	611.704
398.278	21.626	805.311	610.398
399.292	21.598	804.840	609.888
400.307	21.707	804.705	610.112
401.321	21.849	804.150	610.130
402.336	21.810	804.113	609.912
403.350	21.917	803.603	609.843
404.365	21.897	803.259	609.461
405.380	22.139	802.855	609.937
406.394	22.275	802.696	610.236
407.409	22.383	802.074	610.084
408.423	22.527	801.478	610.074
409.438	22.640	801.075	610.106
410.453	22.564	800.628	609.449
411.467	22.657	800.256	609.434
412.482	22.608	800.123	609.107
413.496	22.674	799.354	608.698
414.511	22.768	799.552	609.119
415.526	22.844	798.839	608.784
416.540	22.802	798.174	608.079
417.555	22.563	797.846	606.951
418.569	22.645	797.449	606.877
419.584	22.651	796.946	606.462
420.599	22.770	796.521	606.493
421.613	164.819	1369.502	1796.191
422.628	143.132	1452.964	1796.270
