DTS Sentinel unit serial number:	SN413079Multiplexer serial number:	ORYXHardware model number:	OX4-SRSoftware version number:	ORYX F/W v4.00 Oryx Data Collector v3.7.2.0data status	okinstallation	princeton_trtdifferential loss correction	single-endedforward channel	channel 3reverse channel	N/Adate	2019/09/17time	06:12:34forward acquisition time	60.00reverse acquisition time	0.00gamma	496.2192k internal	0.2329k external	0.2329temperature offset calibration	0.9945default loss term (dB/km)	0.3790temperature slope calibration	1.0000multiplexer offset coefficient	1.0000multiplexer slope coefficient	1.0000fibre end	0.00T internal ref (°C)	28.56T ext. ref 1 (°C)	0.13T ext. ref 2 (°C)	21.93length (m)	temperature (°C)	Stokes	anti-Stokes-747.200	-20.978	-0.386	0.238
-746.185	800.000	-0.056	0.160
-745.171	-200.000	0.006	-0.044
-744.156	-82.675	-0.153	-0.050
-743.142	-111.785	-0.048	0.010
-742.127	-46.739	0.104	0.051
-741.112	231.341	-0.122	0.201
-740.098	-144.163	0.217	-0.020
-739.083	800.000	-0.038	-0.158
-738.069	-81.718	0.146	0.048
-737.054	-200.000	0.001	-0.194
-736.039	-170.766	-0.347	-0.012
-735.025	125.919	0.198	0.252
-734.010	62.518	0.109	0.109
-732.996	800.000	0.014	-0.057
-731.981	36.278	-0.048	0.043
-730.966	70.748	0.134	-0.140
-729.952	-120.598	-0.051	-0.009
-728.937	30.706	-0.188	0.162
-727.923	-96.765	0.124	0.033
-726.908	800.000	-0.074	0.266
-725.894	-33.529	0.113	0.063
-724.879	-200.000	-0.053	0.433
-723.864	-139.287	-0.279	0.030
-722.850	12.216	-0.197	-0.153
-721.835	6.379	-0.115	0.086
-720.821	463.698	0.127	0.286
-719.806	-200.000	0.035	-0.250
-718.791	-164.224	0.352	-0.016
-717.777	-48.922	-0.244	-0.118
-716.762	53.042	-0.239	-0.230
-715.748	137.533	0.119	-0.157
-714.733	292.005	-0.108	-0.199
-713.718	182.070	0.160	0.238
-712.704	-95.464	0.063	-0.017
-711.689	83.140	-0.066	0.072
-710.675	-59.613	0.150	0.065
-709.660	509.783	0.122	-0.286
-708.645	-142.511	0.249	-0.025
-707.631	-114.564	0.292	0.056
-706.616	-30.183	-0.086	-0.049
-705.602	283.422	0.095	0.172
-704.587	53.254	-0.152	0.146
-703.572	-200.000	-0.001	0.245
-702.558	34.144	0.148	0.129
-701.543	-200.000	-0.043	-0.189
-700.529	-163.326	-0.203	-0.010
-699.514	0.672	0.291	0.209
-698.499	-1.686	-0.065	0.046
-697.485	-110.179	0.062	-0.013
-696.470	21.262	0.187	0.153
-695.456	-96.059	-0.049	-0.013
-694.441	800.000	-0.042	-0.158
-693.426	144.044	0.212	-0.284
-692.412	-77.385	0.425	-0.149
-691.397	508.729	0.097	-0.228
-690.383	171.477	-0.160	-0.230
-689.368	-67.469	-0.268	0.106
-688.354	800.000	0.114	0.363
-687.339	-25.089	-0.293	-0.175
-686.324	-33.333	0.099	0.055
-685.310	-160.345	0.266	-0.014
-684.295	617.527	-0.077	-0.195
-683.281	-127.022	-0.302	-0.045
-682.266	800.000	-0.049	-0.177
-681.251	-4.477	0.245	0.170
-680.237	38.020	0.212	-0.189
-679.222	440.803	0.043	0.094
-678.208	391.040	-0.063	-0.132
-677.193	-32.618	0.247	-0.138
-676.178	29.748	-0.242	-0.207
-675.164	-94.927	-0.301	-0.082
-674.149	-200.000	0.005	0.199
-673.135	424.449	0.121	-0.261
-672.120	499.759	-0.059	0.136
-671.105	-109.060	0.395	-0.084
-670.091	-34.514	0.203	0.112
-669.076	-200.000	0.047	0.242
-668.062	-2.296	-0.254	-0.179
-667.047	800.000	0.026	-0.078
-666.032	-104.345	0.524	-0.122
-665.018	-13.888	0.244	0.159
-664.003	-76.900	-0.179	0.063
-662.989	156.473	0.121	-0.168
-661.974	53.214	-0.078	0.075
-660.959	-104.609	-0.289	0.067
-659.945	800.000	0.024	-0.087
-658.930	-120.822	0.262	0.044
-657.916	-94.886	0.091	0.025
-656.901	-58.326	-0.412	-0.180
-655.886	-11.776	-0.167	0.110
-654.872	231.619	0.136	0.224
-653.857	-92.755	-0.587	-0.165
-652.843	18.748	0.219	-0.176
-651.828	-7.497	0.246	0.167
-650.814	233.039	0.043	0.071
-649.799	290.379	-0.075	0.137
-648.784	-162.319	-0.356	-0.018
-647.770	229.197	0.152	-0.248
-646.755	-200.000	0.051	-0.240
-645.741	-53.119	-0.324	0.149
-644.726	-175.961	-0.283	0.008
-643.711	-127.840	0.268	-0.039
-642.697	-157.854	0.152	0.009
-641.682	39.622	-0.043	-0.039
-640.668	102.542	-0.162	-0.190
-639.653	-109.857	0.109	-0.023
-638.638	800.000	0.058	0.163
-637.624	196.764	-0.057	0.088
-636.609	-2.080	-0.305	0.215
-635.595	28.707	0.371	0.315
-634.580	-200.000	0.001	-0.197
-633.565	-73.115	0.239	0.088
-632.551	-200.000	-0.018	-0.329
-631.536	-200.000	0.033	-0.203
-630.522	-11.303	0.122	0.081
-629.507	-200.000	0.007	0.351
-628.492	-120.525	0.295	0.050
-627.478	317.768	0.085	-0.161
-626.463	-200.000	0.009	-0.143
-625.449	-200.000	0.004	0.146
-624.434	132.748	0.040	-0.052
-623.419	90.699	0.052	-0.058
-622.405	-200.000	0.061	0.318
-621.390	800.000	0.097	0.299
-620.376	525.478	-0.095	0.225
-619.361	66.954	0.122	0.124
-618.346	-110.821	-0.210	0.043
-617.332	72.558	-0.238	0.248
-616.317	197.562	0.123	0.188
-615.303	-200.000	-0.077	-0.421
-614.288	-121.578	-0.087	0.015
-613.273	-200.000	-0.029	0.224
-612.259	-96.596	-0.062	0.016
-611.244	-200.000	0.040	0.325
-610.230	550.028	-0.012	-0.029
-609.215	94.188	0.229	-0.261
-608.201	583.215	0.118	0.290
-607.186	44.190	-0.147	-0.136
-606.171	-87.572	-0.257	-0.078
-605.157	-88.014	-0.134	0.040
-604.142	800.000	-0.117	0.352
-603.128	-136.669	-0.113	0.013
-602.113	-200.000	-0.012	-0.247
-601.098	500.770	0.112	-0.259
-600.084	-184.509	0.519	0.008
-599.069	-200.000	0.008	-0.282
-598.055	-200.000	0.047	-0.395
-597.040	-2.170	-0.132	0.093
-596.025	-87.365	0.406	0.123
-595.011	800.000	0.042	0.125
-593.996	281.549	0.115	-0.206
-592.982	-200.000	-0.043	-0.339
-591.967	-200.000	0.012	-0.198
-590.952	-65.763	0.215	0.086
-589.938	70.007	0.238	0.246
-588.923	-158.171	0.165	0.010
-587.909	-200.000	0.004	-0.280
-586.894	48.625	0.036	-0.034
-585.879	713.676	-0.127	-0.337
-584.865	224.861	-0.006	-0.009
-583.850	-62.929	0.108	-0.045
-582.836	-178.767	0.124	0.003
-581.821	-115.119	-0.202	0.038
-580.806	38.828	-0.149	-0.133
-579.792	-84.429	0.226	0.071
-578.777	-72.459	0.203	0.075
-577.763	83.216	-0.040	0.044
-576.748	298.936	-0.182	-0.335
-575.733	-200.000	0.002	0.237
-574.719	219.631	-0.134	0.215
-573.704	-93.512	0.466	0.129
-572.690	-200.000	-0.077	-0.439
-571.675	-98.547	0.302	-0.077
-570.661	-77.678	0.183	-0.063
-569.646	-200.000	-0.013	0.091
-568.631	-118.925	-0.101	0.018
-567.617	-200.000	-0.002	-0.385
-566.602	-200.000	-0.037	0.171
-565.588	-127.508	-0.171	-0.025
-564.573	-200.000	-0.024	-0.121
-563.558	-179.915	0.223	-0.005
-562.544	599.523	0.044	0.110
-561.529	34.978	-0.131	0.115
-560.515	-124.501	0.201	0.031
-559.500	-84.917	-0.071	0.022
-558.485	-82.835	-0.342	0.111
-557.471	-65.811	-0.347	-0.139
-556.456	-200.000	-0.065	-0.312
-555.442	800.000	0.112	0.338
-554.427	31.723	-0.166	0.143
-553.412	-200.000	-0.023	-0.239
-552.398	-200.000	-0.022	0.200
-551.383	-34.208	-0.266	0.146
-550.369	191.136	-0.085	-0.128
-549.354	800.000	0.029	-0.086
-548.339	-200.000	-0.069	0.332
-547.325	-0.627	-0.012	0.009
-546.310	59.830	-0.035	0.035
-545.296	496.180	0.041	-0.094
-544.281	109.296	0.212	0.254
-543.266	-200.000	-0.010	-0.297
-542.252	-138.162	-0.241	-0.027
-541.237	677.458	0.095	-0.248
-540.223	89.120	0.072	-0.081
-539.208	-114.228	-0.260	0.050
-538.193	-129.144	-0.310	-0.043
-537.179	-118.190	-0.082	0.015
-536.164	800.000	-0.020	-0.073
-535.150	800.000	0.062	0.257
-534.135	579.825	-0.021	-0.052
-533.121	-51.444	0.341	-0.159
-532.106	-200.000	-0.003	-0.187
-531.091	5.122	0.085	-0.063
-530.077	317.364	-0.144	0.271
-529.062	-90.285	0.369	-0.107
-528.048	235.324	-0.146	0.241
-527.033	-200.000	-0.006	-0.102
-526.018	-200.000	-0.077	0.401
-525.004	-75.766	-0.276	-0.098
-523.989	-200.000	0.038	-0.180
-522.975	18.790	0.335	-0.268
-521.960	-81.491	-0.182	-0.060
-520.945	-174.490	0.098	0.003
-519.931	-47.900	-0.183	0.089
-518.916	800.000	0.117	0.329
-517.902	-35.753	-0.083	0.045
-516.887	800.000	0.103	-0.330
-515.872	-98.389	-0.202	-0.052
-514.858	705.777	-0.035	0.092
-513.843	-25.010	-0.145	0.086
-512.829	174.487	0.186	0.269
-511.814	1.206	-0.338	-0.243
-510.799	-132.268	-0.184	0.024
-509.785	319.792	0.138	-0.262
-508.770	-87.991	0.366	-0.110
-507.756	248.295	-0.188	-0.317
-506.741	-4.957	0.127	-0.088
-505.726	520.579	-0.054	0.127
-504.712	-29.892	0.205	-0.117
-503.697	45.633	0.059	-0.054
-502.683	295.309	0.049	-0.090
-501.668	-74.849	-0.339	-0.121
-500.653	-200.000	-0.009	0.234
-499.639	-200.000	-0.006	-0.149
-498.624	-191.509	0.131	0.001
-497.610	-9.735	-0.415	-0.276
-496.595	226.679	-0.119	-0.193
-495.581	-200.000	0.023	-0.120
-494.566	43.463	-0.078	-0.071
-493.551	-122.570	-0.198	0.032
-492.537	226.162	0.118	-0.191
-491.522	800.000	0.041	-0.121
-490.508	-87.195	-0.313	0.095
-489.493	-200.000	0.014	-0.101
-488.478	-143.621	0.147	0.014
-487.464	31.837	-0.169	-0.145
-486.449	185.771	-0.127	-0.188
-485.435	240.379	-0.029	-0.049
-484.420	321.998	0.040	-0.076
-483.405	733.087	-0.161	0.430
-482.391	-93.430	-0.226	0.062
-481.376	-200.000	-0.016	-0.283
-480.362	210.667	-0.129	-0.202
-479.347	-143.325	-0.380	0.036
-478.332	-40.447	0.325	0.168
-477.318	743.201	0.054	-0.145
-476.303	21.433	0.255	0.206
-475.289	-200.000	0.052	0.409
-474.274	68.912	-0.256	0.263
-473.259	-200.000	-0.015	0.098
-472.245	235.064	0.033	-0.055
-471.230	19.293	0.109	0.087
-470.216	-124.661	0.264	0.041
-469.201	-150.376	0.085	0.007
-468.186	800.000	-0.054	-0.155
-467.172	-98.829	-0.174	0.044
-466.157	-200.000	0.001	0.062
-465.143	-200.000	-0.004	0.312
-464.128	-200.000	0.005	0.083
-463.113	-200.000	-0.028	0.136
-462.099	-74.150	-0.227	-0.082
-461.084	25.704	0.207	0.172
-460.070	719.244	-0.154	0.408
-459.055	-58.941	0.137	0.059
-458.040	223.219	-0.079	-0.127
-457.026	-169.986	0.225	-0.008
-456.011	71.276	0.141	-0.146
-454.997	-147.420	0.228	-0.019
-453.982	-200.000	0.015	0.126
-452.968	-118.020	-0.227	0.040
-451.953	-66.848	0.222	0.087
-450.938	24.279	-0.213	0.175
-449.924	-65.226	-0.320	0.128
-448.909	-65.997	0.368	0.146
-447.895	-81.214	0.207	0.068
-446.880	19.544	-0.214	0.171
-445.865	-29.889	-0.159	0.090
-444.851	21.555	-0.215	-0.174
-443.836	800.000	-0.030	-0.122
-442.822	-166.543	0.397	0.016
-441.807	-183.565	-0.129	0.002
-440.792	-89.680	0.039	0.011
-439.778	800.000	-0.025	0.105
-438.763	107.421	0.077	0.091
-437.749	244.518	-0.020	-0.033
-436.734	382.805	0.040	0.081
-435.719	800.000	0.052	0.194
-434.705	-47.619	0.235	0.114
-433.690	-59.141	0.222	-0.095
-432.676	-200.000	-0.025	0.355
-431.661	53.482	0.204	0.194
-430.646	-195.645	0.429	-0.003
-429.632	234.432	0.179	-0.294
-428.617	-200.000	-0.014	0.075
-427.603	-124.315	-0.263	-0.041
-426.588	90.200	0.189	0.210
-425.573	-64.043	0.141	-0.057
-424.559	164.970	-0.032	0.045
-423.544	68.687	0.204	-0.209
-422.530	342.364	0.185	-0.360
-421.515	-57.335	-0.415	0.181
-420.500	555.472	-0.092	-0.220
-419.486	528.932	0.093	0.217
-418.471	-175.299	0.097	-0.003
-417.457	-200.000	-0.002	-0.488
-416.442	91.961	-0.193	0.217
-415.428	-79.350	0.146	-0.049
-414.413	-18.467	-0.298	-0.185
-413.398	-101.065	-0.184	-0.045
-412.384	488.896	-0.176	-0.401
-411.369	800.000	0.098	-0.291
-410.355	-45.181	0.189	-0.093
-409.340	-82.357	-0.238	-0.077
-408.325	273.975	-0.120	0.210
-407.311	-200.000	0.049	0.304
-406.296	99.374	0.167	-0.191
-405.282	65.762	0.230	0.231
-404.267	-200.000	0.052	-0.511
-403.252	800.000	0.052	-0.153
-402.238	-200.000	-0.019	0.114
-401.223	-43.387	-0.402	0.202
-400.209	80.880	-0.223	-0.239
-399.194	-200.000	-0.013	-0.059
-398.179	-131.379	-0.347	0.046
-397.165	40.804	-0.110	-0.098
-396.150	-2.003	-0.112	0.078
-395.136	-191.462	-0.254	-0.003
-394.121	-200.000	0.027	-0.157
-393.106	-122.727	-0.195	0.031
-392.092	-200.000	0.003	0.228
-391.077	-120.453	-0.058	-0.010
-390.063	-46.781	0.091	-0.044
-389.048	210.457	-0.058	-0.091
-388.033	152.838	-0.151	0.205
-387.019	-112.753	-0.200	-0.039
-386.004	425.036	-0.153	-0.326
-384.990	800.000	-0.166	-0.495
-383.975	588.341	0.104	0.254
-382.960	-117.702	0.323	-0.058
-381.946	-115.749	0.117	0.022
-380.931	800.000	0.077	0.238
-379.917	-1.348	0.171	-0.120
-378.902	69.183	-0.316	0.323
-377.888	101.860	-0.065	-0.075
-376.873	-54.146	0.257	-0.116
-375.858	111.667	0.056	0.067
-374.844	4.085	-0.113	-0.082
-373.829	57.057	-0.076	-0.073
-372.815	150.441	0.102	-0.138
-371.800	800.000	0.078	-0.224
-370.785	-172.364	-0.206	0.007
-369.771	-157.343	0.062	0.004
-368.756	-35.848	-0.193	-0.104
-367.742	800.000	0.072	-0.304
-366.727	-12.040	-0.246	0.160
-365.712	-65.385	-0.320	0.128
-364.698	117.155	0.093	0.114
-363.683	800.000	-0.012	-0.032
-362.669	-29.503	-0.189	0.107
-361.654	-200.000	-0.000	-0.120
-360.639	13.048	0.271	0.208
-359.625	411.765	-0.090	0.189
-358.610	-200.000	-0.012	0.162
-357.596	800.000	-0.085	-0.238
-356.581	132.397	-0.125	-0.159
-355.566	-31.902	0.489	-0.272
-354.552	800.000	0.011	0.035
-353.537	800.000	-0.101	0.330
-352.523	-70.537	-0.088	0.033
-351.508	-200.000	0.046	-0.250
-350.493	-45.147	-0.242	-0.119
-349.479	48.462	-0.057	-0.053
-348.464	2.633	0.210	-0.151
-347.450	-136.954	-0.194	0.022
-346.435	72.737	-0.078	-0.081
-345.420	425.086	-0.123	0.262
-344.406	533.874	-0.058	0.137
-343.391	-107.831	0.292	-0.063
-342.377	-99.133	0.159	0.040
-341.362	-76.860	-0.365	-0.126
-340.348	17.537	-0.082	-0.065
-339.333	-13.829	0.195	-0.125
-338.318	-133.294	0.312	-0.039
-337.304	95.001	0.126	0.142
-336.289	-7.861	0.225	-0.150
-335.275	182.695	-0.162	-0.238
-334.260	550.003	0.022	-0.053
-333.245	31.572	-0.034	0.029
-332.231	-200.000	0.000	-0.063
-331.216	-19.526	0.047	0.029
-330.202	-65.157	0.122	0.049
-329.187	-117.186	-0.263	0.047
-328.172	-26.269	0.237	0.138
-327.158	-14.196	0.323	0.206
-326.143	-98.850	0.078	0.020
-325.129	-107.801	0.172	-0.037
-324.114	-200.000	0.049	0.257
-323.099	-63.639	0.468	0.190
-322.085	-60.040	0.213	0.090
-321.070	-200.000	-0.017	0.143
-320.056	-138.985	-0.102	-0.011
-319.041	-88.969	-0.389	0.114
-318.026	73.742	0.142	-0.147
-317.012	-17.376	0.378	0.236
-315.997	-200.000	-0.043	-0.205
-314.983	-200.000	-0.023	-0.420
-313.968	-49.403	-0.122	-0.058
-312.953	-152.952	-0.259	0.018
-311.939	-0.697	0.026	0.018
-310.924	800.000	0.009	-0.031
-309.910	354.829	0.130	0.255
-308.895	-143.068	0.205	0.020
-307.880	-200.000	-0.025	-0.175
-306.866	-137.685	0.085	0.010
-305.851	-52.832	0.354	0.161
-304.837	-171.741	0.341	-0.011
-303.822	27.471	-0.171	-0.142
-302.807	111.397	-0.133	-0.159
-301.793	176.445	-0.137	0.197
-300.778	236.930	0.080	0.132
-299.764	383.519	-0.090	-0.184
-298.749	-28.229	-0.212	-0.121
-297.735	-88.150	-0.121	-0.036
-296.720	759.261	0.051	0.137
-295.705	398.734	-0.223	0.461
-294.691	-200.000	-0.026	0.199
-293.676	8.194	0.238	0.177
-292.662	221.942	0.143	-0.228
-291.647	53.390	-0.121	0.115
-290.632	-200.000	-0.011	-0.258
-289.618	-200.000	-0.051	-0.328
-288.603	113.817	0.083	0.100
-287.589	292.064	0.299	-0.539
-286.574	-200.000	-0.015	0.186
-285.559	-200.000	0.000	0.062
-284.545	-200.000	0.008	0.210
-283.530	-89.988	-0.127	0.037
-282.516	148.721	0.152	-0.204
-281.501	1.997	0.106	-0.076
-280.486	111.476	0.078	0.093
-279.472	571.684	0.058	-0.141
-278.457	386.311	0.079	0.161
-277.443	182.358	0.118	0.172
-276.428	-145.974	-0.134	0.012
-275.413	800.000	0.090	-0.271
-274.399	8.931	0.177	0.132
-273.384	-9.704	-0.056	-0.037
-272.370	-80.882	0.141	-0.046
-271.355	800.000	-0.084	0.323
-270.340	-44.206	-0.230	-0.114
-269.326	-141.003	-0.033	0.003
-268.311	-36.052	0.363	-0.194
-267.297	-121.973	-0.177	-0.029
-266.282	-200.000	0.011	0.130
-265.267	800.000	-0.064	0.220
-264.253	-135.251	-0.165	0.020
-263.238	44.933	-0.097	-0.088
-262.224	800.000	-0.039	0.113
-261.209	-43.063	0.115	-0.058
-260.195	-157.179	0.222	-0.013
-259.180	151.684	0.076	-0.102
-258.165	155.804	0.055	0.075
-257.151	-200.000	0.079	-0.404
-256.136	27.444	0.026	-0.022
-255.122	34.909	-0.135	0.117
-254.107	24.895	0.143	0.117
-253.092	-200.000	0.015	0.085
-252.078	71.415	0.059	0.061
-251.063	192.668	0.179	-0.268
-250.049	12.384	-0.292	-0.222
-249.034	351.209	0.049	-0.096
-248.019	144.454	0.136	-0.179
-247.005	-11.092	-0.201	-0.131
-245.990	279.638	-0.060	0.106
-244.976	-200.000	-0.010	0.173
-243.961	-44.127	0.322	-0.160
-242.946	104.135	-0.117	0.136
-241.932	186.530	0.125	-0.184
-240.917	277.734	0.156	-0.274
-239.903	459.230	-0.218	0.479
-238.888	3.873	-0.259	0.187
-237.873	-200.000	0.022	0.147
-236.859	-34.187	-0.205	-0.111
-235.844	-26.083	0.279	-0.162
-234.830	37.908	-0.086	-0.075
-233.815	-171.589	-0.181	-0.006
-232.800	-200.000	-0.022	0.419
-231.786	800.000	0.127	0.458
-230.771	-200.000	-0.063	-0.312
-229.757	-154.808	0.091	0.006
-228.742	179.435	0.156	0.226
-227.727	9.925	0.196	-0.147
-226.713	800.000	-0.065	0.187
-225.698	-74.491	0.178	-0.063
-224.684	-155.254	0.034	0.002
-223.669	-91.537	0.174	-0.049
-222.655	-148.773	-0.094	0.008
-221.640	22.517	0.298	0.241
-220.625	-92.864	0.278	-0.077
-219.611	-130.887	-0.118	0.016
-218.596	44.717	-0.332	0.301
-217.582	-31.062	0.202	-0.113
-216.567	-82.976	0.215	-0.069
-215.552	-200.000	0.009	0.070
-214.538	-143.247	0.274	0.026
-213.523	-22.221	-0.171	0.102
-212.509	3.736	-0.162	-0.117
-211.494	-200.000	-0.003	-0.122
-210.479	-44.585	0.371	0.183
-209.465	105.596	-0.202	-0.236
-208.450	130.881	-0.095	-0.120
-207.436	-116.900	-0.066	-0.012
-206.421	-200.000	-0.046	0.218
-205.406	-113.896	-0.276	0.053
-204.392	-200.000	-0.059	0.291
-203.377	-139.720	-0.235	0.025
-202.363	800.000	-0.034	-0.144
-201.348	800.000	-0.085	-0.363
-200.333	688.982	0.082	0.212
-199.319	84.033	0.120	0.129
-198.304	56.233	0.139	0.133
-197.290	133.360	-0.230	0.293
-196.275	-70.034	-0.304	0.114
-195.260	146.796	0.210	0.279
-194.246	-200.000	-0.025	-0.135
-193.231	-17.270	0.134	0.083
-192.217	-200.000	-0.016	-0.154
-191.202	-20.526	-0.312	0.189
-190.187	12.708	-0.302	-0.230
-189.173	228.053	-0.096	-0.155
-188.158	-82.543	-0.127	0.041
-187.144	306.182	-0.160	-0.294
-186.129	800.000	-0.032	0.105
-185.114	-114.230	0.350	0.067
-184.100	269.918	0.033	-0.057
-183.085	61.019	0.223	-0.218
-182.071	-111.156	-0.534	0.108
-181.056	-200.000	-0.034	0.400
-180.042	-8.617	0.167	0.111
-179.027	451.872	-0.136	-0.295
-178.012	81.436	0.022	0.023
-176.998	152.172	-0.154	0.207
-175.983	50.697	-0.189	0.176
-174.969	-5.780	0.227	-0.153
-173.954	1.064	0.317	-0.224
-172.939	-185.543	0.346	-0.005
-171.925	800.000	-0.083	0.340
-170.910	149.631	-0.127	0.170
-169.896	-200.000	0.019	-0.301
-168.881	-103.623	-0.177	0.041
-167.866	800.000	-0.052	0.223
-166.852	221.320	0.108	-0.171
-165.837	-200.000	0.007	-0.129
-164.823	185.420	-0.094	-0.138
-163.808	800.000	-0.060	0.202
-162.793	-44.635	-0.206	-0.101
-161.779	800.000	-0.102	0.306
-160.764	451.587	-0.085	-0.185
-159.750	-200.000	-0.008	0.357
-158.735	-200.000	-0.002	-0.109
-157.720	-45.627	-0.170	-0.083
-156.706	792.023	0.089	-0.242
-155.691	-200.000	0.000	0.358
-154.677	-200.000	0.006	-0.033
-153.662	210.470	-0.212	-0.328
-152.647	87.900	0.218	0.238
-151.633	-40.833	0.136	0.069
-150.618	800.000	-0.068	0.245
-149.604	-79.305	-0.004	0.001
-148.589	789.676	0.037	-0.099
-147.574	-102.481	0.097	0.023
-146.560	-15.899	0.117	0.074
-145.545	-78.983	0.144	0.048
-144.531	298.496	0.097	-0.176
-143.516	-106.033	0.093	0.021
-142.502	-12.437	-0.171	-0.110
-141.487	-88.758	0.181	0.053
-140.472	-65.234	0.016	-0.007
-139.458	600.829	0.141	-0.344
-138.443	-25.568	0.039	-0.022
-137.429	407.500	-0.073	-0.151
-136.414	344.126	-0.041	-0.079
-135.399	8.616	-0.293	0.217
-134.385	-153.223	-0.062	-0.004
-133.370	22.351	-0.184	0.148
-132.356	377.582	0.062	-0.125
-131.341	361.914	-0.050	-0.098
-130.326	281.896	-0.213	-0.375
-129.312	276.844	0.081	0.142
-128.297	-200.000	0.016	0.274
-127.283	-83.229	-0.211	0.067
-126.268	388.113	-0.042	0.085
-125.253	78.051	-0.147	0.154
-124.239	800.000	0.075	-0.235
-123.224	253.408	0.095	-0.159
-122.210	169.816	0.067	0.095
-121.195	800.000	-0.032	-0.126
-120.180	185.128	-0.062	0.090
-119.166	14.208	0.178	0.137
-118.151	800.000	-0.203	0.570
-117.137	800.000	-0.020	-0.066
-116.122	74.337	-0.230	0.238
-115.107	-102.767	-0.061	0.014
-114.093	-200.000	0.004	0.095
-113.078	-200.000	0.035	0.370
-112.064	800.000	0.077	-0.215
-111.049	800.000	0.080	-0.248
-110.034	-114.734	0.193	-0.036
-109.020	-99.621	-0.270	-0.067
-108.005	-200.000	0.000	-0.215
-106.991	-1.613	-0.095	0.066
-105.976	-151.036	-0.555	-0.041
-104.962	114.615	-0.257	-0.307
-103.947	-89.152	-0.142	0.041
-102.932	-200.000	-0.021	-0.190
-101.918	-107.704	0.258	-0.055
-100.903	-79.314	0.255	-0.085
-99.889	54.802	0.262	-0.248
-98.874	-166.080	0.079	-0.003
-97.859	-23.504	-0.141	0.083
-96.845	-200.000	0.046	0.221
-95.830	-117.790	0.438	0.077
-94.816	-190.027	0.295	0.003
-93.801	800.000	0.018	0.061
-92.786	-200.000	0.051	-0.437
-91.772	19.728	0.162	-0.128
-90.757	71.833	0.067	0.068
-89.743	319.581	0.077	-0.144
-88.728	-38.034	0.059	-0.031
-87.713	-57.196	0.339	0.147
-86.699	435.719	-0.075	-0.160
-85.684	141.274	0.164	-0.213
-84.670	22.022	-0.332	-0.266
-83.655	203.885	-0.148	-0.226
-82.640	800.000	-0.098	-0.339
-81.626	30.698	-0.304	-0.256
-80.611	-200.000	-0.079	0.375
-79.597	-156.708	0.041	-0.003
-78.582	85.431	-0.128	0.138
-77.567	40.636	-0.243	0.215
-76.553	-85.983	0.056	-0.017
-75.538	800.000	0.058	0.168
-74.524	702.185	-0.048	0.123
-73.509	800.000	0.010	-0.038
-72.494	334.520	-0.116	0.221
-71.480	-200.000	0.006	0.104
-70.465	130.467	-0.295	0.370
-69.451	3.562	-0.171	-0.122
-68.436	-46.851	-0.392	0.188
-67.422	-148.762	0.131	0.010
-66.407	-75.946	-0.364	-0.126
-65.392	56.249	0.082	-0.078
-64.378	-200.000	0.015	0.102
-63.363	218.299	-0.106	0.167
-62.349	-200.000	-0.035	0.484
-61.334	135.157	-0.854	-1.088
-60.319	111.540	0.626	0.740
-59.305	800.000	-0.404	-1.437
-58.290	69.378	0.980	0.989
-57.276	800.000	0.453	1.465
-56.261	-200.000	112.265	639.420
-55.246	460.763	1510.405	3300.566
-54.232	146.230	2675.790	3521.290
-53.217	104.536	2175.595	2512.371
-52.203	38.951	1707.133	1495.723
-51.188	31.706	1526.527	1287.836
-50.173	29.445	1501.234	1251.135
-49.159	52.557	1558.327	1458.933
-48.144	52.145	1573.882	1470.596
-47.130	31.835	1531.304	1292.550
-46.115	28.923	1515.921	1259.600
-45.100	28.667	1512.825	1255.232
-44.086	28.637	1511.131	1253.572
-43.071	28.642	1508.839	1251.654
-42.057	28.555	1507.580	1249.970
-41.042	28.564	1506.067	1248.725
-40.027	28.520	1504.515	1247.087
-39.013	28.515	1502.913	1245.674
-37.998	28.445	1501.830	1244.256
-36.984	28.631	1500.202	1244.119
-35.969	28.507	1499.476	1242.626
-34.954	28.566	1497.484	1241.324
-33.940	28.466	1496.689	1239.937
-32.925	28.553	1495.118	1239.179
-31.911	28.589	1493.841	1238.313
-30.896	28.577	1492.528	1237.093
-29.881	28.652	1491.171	1236.424
-28.867	28.533	1490.146	1234.729
-27.852	28.651	1488.771	1234.332
-26.838	28.569	1487.312	1232.522
-25.823	28.695	1485.220	1231.585
-24.809	28.640	1483.803	1229.993
-23.794	28.631	1482.745	1229.004
-22.779	28.577	1482.063	1228.032
-21.765	28.582	1480.719	1226.901
-20.750	28.626	1479.865	1226.438
-19.736	28.646	1478.444	1225.347
-18.721	28.566	1477.498	1223.983
-17.706	28.504	1476.547	1222.733
-16.692	28.627	1475.242	1222.420
-15.677	28.568	1474.329	1221.220
-14.663	28.522	1472.962	1219.736
-13.648	28.510	1471.916	1218.741
-12.633	28.624	1470.733	1218.467
-11.619	28.484	1470.674	1217.442
-10.604	28.592	1469.667	1217.277
-9.590	28.593	1468.655	1216.401
-8.575	28.523	1467.962	1215.313
-7.560	28.505	1467.120	1214.445
-6.546	28.536	1466.064	1213.731
-5.531	28.545	1465.366	1213.162
-4.517	28.529	1463.978	1211.859
-3.502	28.557	1462.701	1210.940
-2.487	28.493	1462.025	1209.909
-1.473	28.543	1460.679	1209.076
-0.458	28.473	1459.508	1207.599
0.556	26.648	1449.427	1195.669
1.571	23.270	1424.188	1152.795
2.586	19.499	1360.869	1077.942
3.600	17.571	1277.351	1000.381
4.615	16.326	1232.642	958.223
5.629	14.334	1176.756	903.897
6.644	7.309	1092.523	803.613
7.659	1.229	1053.296	744.909
8.673	0.307	1048.057	736.632
9.688	0.131	1044.645	733.310
10.702	-0.017	1043.435	731.676
11.717	0.099	1041.107	730.545
12.731	2.500	1043.361	743.730
13.746	10.007	1053.362	787.492
14.761	16.159	1061.410	823.564
15.775	17.148	1061.806	828.629
16.790	16.578	1059.356	823.869
17.804	15.406	1057.746	816.843
18.819	14.663	1055.554	811.467
19.834	14.152	1054.061	807.766
20.848	13.896	1053.480	806.005
21.863	13.611	1052.941	804.139
22.877	13.452	1051.740	802.379
23.892	13.229	1051.201	800.818
24.907	13.198	1050.257	799.879
25.921	13.090	1049.389	798.626
26.936	13.196	1048.713	798.553
27.950	13.252	1048.047	798.243
28.965	13.209	1047.888	797.847
29.980	13.321	1046.384	797.167
30.994	13.320	1045.752	796.613
32.009	13.264	1045.260	795.898
33.023	13.357	1044.482	795.683
34.038	13.470	1043.113	795.109
35.053	13.426	1042.164	794.105
36.067	13.222	1041.618	792.643
37.082	13.250	1040.323	791.722
38.096	13.240	1040.263	791.556
39.111	13.297	1039.586	791.246
40.126	13.484	1038.165	790.987
41.140	13.369	1037.392	789.779
42.155	13.270	1036.237	788.357
43.169	13.207	1035.584	787.493
44.184	13.121	1034.438	786.141
45.199	13.115	1033.572	785.384
46.213	13.171	1032.276	784.592
47.228	13.118	1031.015	783.317
48.242	13.301	1029.922	783.283
49.257	13.344	1029.380	783.006
50.271	13.307	1028.534	782.117
51.286	13.298	1027.685	781.362
52.301	13.282	1026.963	780.667
53.315	13.210	1026.264	779.724
54.330	13.208	1025.506	779.070
55.344	13.256	1024.032	778.107
56.359	13.271	1023.151	777.444
57.374	13.260	1022.336	776.703
58.388	13.274	1021.433	776.013
59.403	13.117	1021.490	775.249
60.417	13.092	1020.429	774.261
61.432	13.107	1019.832	773.808
62.447	13.192	1018.808	773.361
63.461	13.191	1017.927	772.616
64.476	13.219	1016.644	771.705
65.490	13.060	1016.551	770.827
66.505	13.232	1015.056	770.426
67.520	13.119	1014.851	769.675
68.534	13.099	1013.983	768.856
69.549	13.144	1013.225	768.423
70.563	13.089	1012.683	767.686
71.578	13.111	1012.021	767.220
72.593	13.151	1010.855	766.453
73.607	13.103	1009.677	765.271
74.622	12.941	1009.140	764.044
75.636	13.066	1007.498	763.314
76.651	13.002	1007.571	763.005
77.666	13.083	1006.287	762.339
78.680	13.023	1005.944	761.735
79.695	13.052	1005.286	761.301
80.709	12.993	1004.559	760.411
81.724	13.191	1003.905	760.763
82.739	13.210	1002.718	759.881
83.753	13.164	1002.523	759.455
84.768	13.218	1001.864	759.137
85.782	13.172	1001.159	758.326
86.797	13.408	999.955	758.429
87.812	13.468	998.976	757.895
88.826	13.393	998.403	757.050
89.841	13.257	997.958	756.022
90.855	13.321	996.793	755.366
91.870	13.423	996.126	755.259
92.884	13.275	995.410	753.976
93.899	13.405	994.844	754.071
94.914	13.385	993.760	753.089
95.928	13.483	993.434	753.222
96.943	13.430	992.535	752.235
97.957	13.383	991.933	751.499
98.972	13.369	990.649	750.395
99.987	13.413	990.012	750.046
101.001	13.498	989.220	749.766
102.016	13.482	988.136	748.804
103.030	13.369	987.821	747.987
104.045	13.532	986.624	747.752
105.060	13.318	986.026	746.266
106.074	13.417	984.559	745.537
107.089	13.347	983.681	744.488
108.103	13.283	983.215	743.785
109.118	13.151	982.048	742.240
110.133	13.142	981.466	741.697
111.147	13.290	980.510	741.572
112.162	13.212	979.409	740.326
113.176	13.266	978.459	739.781
114.191	13.302	977.799	739.377
115.206	13.389	976.954	739.064
116.220	13.352	976.272	738.315
117.235	13.303	975.685	737.587
118.249	13.201	974.551	736.211
119.264	13.291	973.703	735.906
120.279	13.154	973.056	734.744
121.293	13.201	972.142	734.195
122.308	13.197	971.558	733.675
123.322	13.217	970.363	732.794
124.337	13.116	969.979	731.992
125.352	13.174	968.817	731.307
126.366	13.243	967.406	730.482
127.381	13.090	966.487	729.048
128.395	13.138	965.670	728.579
129.410	13.301	964.210	728.130
130.424	13.113	963.978	727.065
131.439	13.375	962.669	727.164
132.454	13.306	961.585	725.979
133.468	13.233	961.092	725.222
134.483	13.280	960.438	724.872
135.497	13.338	959.552	724.391
136.512	13.383	958.566	723.782
137.527	13.369	958.043	723.259
138.541	13.286	957.233	722.220
139.556	13.146	957.192	721.517
140.570	13.314	955.925	721.227
141.585	13.278	954.983	720.298
142.600	13.319	954.364	719.945
143.614	13.584	953.234	720.180
144.629	13.420	953.049	719.264
145.643	13.367	952.271	718.385
146.658	13.479	951.168	717.974
147.673	13.403	950.755	717.270
148.687	13.340	949.699	716.138
149.702	13.324	948.944	715.433
150.716	13.516	947.790	715.333
151.731	13.382	947.265	714.292
152.746	13.519	946.127	713.962
153.760	13.409	945.750	713.141
154.775	13.415	945.080	712.596
155.789	13.440	944.017	711.843
156.804	13.527	943.365	711.659
157.819	13.439	942.536	710.595
158.833	13.514	941.957	710.415
159.848	13.400	941.604	709.598
160.862	13.657	940.630	709.903
161.877	13.590	939.873	708.982
162.892	13.583	938.713	708.014
163.906	13.507	938.111	707.172
164.921	13.595	937.043	706.681
165.935	13.550	935.851	705.529
166.950	13.545	935.241	704.983
167.964	13.516	934.102	703.941
168.979	13.565	933.187	703.397
169.994	13.579	932.661	702.998
171.008	13.614	931.579	702.265
172.023	13.559	930.908	701.468
173.037	13.742	929.741	701.297
174.052	13.699	929.337	700.753
175.067	13.840	928.183	700.415
176.081	13.696	927.685	699.367
177.096	13.657	927.194	698.772
178.110	13.709	926.318	698.268
179.125	13.629	925.798	697.479
180.140	13.691	924.903	697.003
181.154	13.553	924.054	695.722
182.169	13.620	923.778	695.732
183.183	13.781	922.808	695.616
184.198	13.781	922.256	695.137
185.213	13.769	921.551	694.496
186.227	13.888	921.096	694.589
187.242	13.813	920.569	693.816
188.256	13.861	919.797	693.374
189.271	13.802	919.339	692.720
190.286	13.922	918.338	692.408
191.300	13.720	917.497	690.870
192.315	13.612	917.194	690.130
193.329	13.730	915.865	689.560
194.344	13.634	915.491	688.820
195.359	13.569	915.171	688.246
196.373	13.787	914.247	688.394
197.388	13.974	913.758	688.744
198.402	13.963	912.953	688.027
199.417	14.007	912.920	688.126
200.432	13.970	912.418	687.531
201.446	14.129	912.409	688.125
202.461	14.224	911.469	687.747
203.475	14.121	911.293	687.125
204.490	13.977	910.503	685.876
205.504	14.079	909.782	685.692
206.519	14.097	908.637	684.843
207.534	13.984	908.132	683.936
208.548	14.025	907.549	683.604
209.563	14.103	906.719	683.241
210.577	14.149	905.738	682.630
211.592	14.118	905.379	682.172
212.607	14.142	904.917	681.861
213.621	14.133	904.385	681.362
214.636	14.188	903.504	680.866
215.650	14.144	903.129	680.343
216.665	14.208	902.512	680.079
217.680	14.220	901.694	679.450
218.694	14.219	901.274	679.070
219.709	14.302	901.069	679.194
220.723	14.352	899.822	678.397
221.738	14.305	899.461	677.872
222.753	14.167	898.781	676.741
223.767	14.356	897.860	676.757
224.782	14.334	897.094	676.029
225.796	14.342	896.440	675.507
226.811	14.471	895.666	675.386
227.826	14.375	895.416	674.752
228.840	14.343	894.623	673.963
229.855	14.317	893.981	673.317
230.869	14.477	893.217	673.326
231.884	14.462	892.330	672.539
232.899	14.404	891.856	671.887
233.913	14.521	890.896	671.576
234.928	14.436	890.066	670.548
235.942	14.467	889.766	670.388
236.957	14.398	889.070	669.528
237.972	14.293	888.469	668.595
238.986	14.321	888.003	668.297
240.001	14.222	887.655	667.579
241.015	14.352	886.262	666.994
242.030	14.454	885.767	666.968
243.045	14.456	884.897	666.261
244.059	14.504	884.559	666.143
245.074	14.563	883.693	665.666
246.088	14.564	883.143	665.197
247.103	14.536	882.705	664.697
248.117	14.606	882.092	664.452
249.132	14.760	881.153	664.299
250.147	14.652	880.649	663.432
251.161	14.833	880.114	663.688
252.176	14.863	879.598	663.360
253.190	14.961	878.450	662.826
254.205	14.993	877.777	662.384
255.220	14.822	878.003	661.819
256.234	14.781	877.197	660.991
257.249	14.885	876.452	660.782
258.263	14.939	876.008	660.604
259.278	14.998	875.267	660.218
260.293	15.033	875.047	660.132
261.307	14.982	874.389	659.375
262.322	15.040	873.454	658.841
263.336	14.995	873.185	658.403
264.351	15.033	872.768	658.179
265.366	15.187	871.598	657.845
266.380	15.172	870.987	657.267
267.395	15.074	870.752	656.647
268.409	15.107	870.186	656.291
269.424	15.091	869.018	655.290
270.439	15.130	868.466	654.967
271.453	15.243	867.607	654.703
272.468	15.238	866.758	653.984
273.482	15.094	866.119	652.883
274.497	15.126	865.949	652.821
275.512	15.166	865.086	652.270
276.526	15.116	864.509	651.581
277.541	15.014	863.960	650.712
278.555	15.064	863.468	650.477
279.570	15.077	863.385	650.408
280.585	15.218	862.421	650.172
281.599	15.341	861.916	650.211
282.614	15.301	861.110	649.392
283.628	15.165	860.670	648.474
284.643	15.260	859.787	648.119
285.657	15.210	859.486	647.643
286.672	15.262	858.972	647.400
287.687	15.411	858.106	647.262
288.701	15.334	858.087	646.894
289.716	15.452	856.987	646.464
290.730	15.449	856.745	646.210
291.745	15.287	856.005	644.974
292.760	15.445	855.309	645.001
293.774	15.457	854.788	644.594
294.789	15.432	854.175	643.980
295.803	15.578	853.479	643.957
296.818	15.629	852.776	643.565
297.833	15.455	852.332	642.510
298.847	15.606	851.247	642.210
299.862	15.561	850.705	641.573
300.876	15.442	850.378	640.814
301.891	15.619	849.439	640.724
302.906	15.557	848.800	639.950
303.920	15.628	848.113	639.646
304.935	15.752	847.763	639.797
305.949	15.625	847.052	638.722
306.964	15.648	847.056	638.755
307.979	15.740	846.144	638.363
308.993	15.684	845.585	637.671
310.008	15.730	844.686	637.110
311.022	15.692	844.556	636.810
312.037	15.688	844.118	636.409
313.052	15.703	843.628	636.041
314.066	15.595	843.029	635.123
315.081	15.715	842.309	634.979
316.095	15.675	841.533	634.187
317.110	15.772	841.183	634.234
318.125	15.725	840.731	633.660
319.139	15.721	840.116	633.125
320.154	15.826	839.271	632.828
321.168	15.885	838.901	632.712
322.183	15.714	838.154	631.450
323.197	15.734	838.027	631.376
324.212	15.904	837.177	631.316
325.227	15.998	836.672	631.233
326.241	15.828	836.484	630.397
327.256	15.915	835.326	629.793
328.270	15.794	835.216	629.204
329.285	15.747	835.106	628.888
330.300	15.810	834.083	628.298
331.314	15.937	833.339	628.156
332.329	16.008	832.688	627.874
333.343	15.889	831.962	626.829
334.358	16.103	831.422	627.164
335.373	15.872	831.376	626.214
336.387	16.127	830.583	626.507
337.402	16.001	830.198	625.695
338.416	16.072	829.443	625.333
339.431	15.962	829.092	624.604
340.446	16.245	828.156	624.894
341.460	16.254	827.772	624.579
342.475	16.278	826.917	623.968
343.489	16.151	826.724	623.298
344.504	16.240	826.055	623.069
345.519	16.205	825.652	622.578
346.533	16.422	825.431	623.159
347.548	16.352	824.494	622.137
348.562	16.286	824.106	621.546
349.577	16.331	823.796	621.424
350.592	16.214	823.022	620.356
351.606	16.257	822.403	619.992
352.621	16.277	821.838	619.584
353.635	16.158	821.931	619.161
354.650	16.260	821.448	619.119
355.665	16.207	820.852	618.419
356.679	16.251	820.662	618.383
357.694	16.385	819.992	618.313
358.708	16.352	819.450	617.728
359.723	16.333	818.588	616.956
360.738	16.374	818.000	616.608
361.752	16.374	817.743	616.360
362.767	16.444	817.279	616.211
363.781	16.321	817.281	615.709
364.796	16.479	816.355	615.533
365.810	16.483	816.207	615.380
366.825	16.724	815.244	615.477
367.840	16.696	815.227	615.306
368.854	16.581	814.834	614.539
369.869	16.567	814.318	614.045
370.883	16.645	813.755	613.849
371.898	16.711	813.138	613.567
372.913	16.677	812.511	612.917
373.927	16.703	812.185	612.710
374.942	16.740	811.314	612.133
375.956	16.698	810.546	611.348
376.971	16.743	810.225	611.216
377.986	16.836	809.808	611.181
379.000	16.810	809.341	610.683
380.015	16.829	809.101	610.513
381.029	16.912	808.104	610.005
382.044	16.923	807.656	609.655
383.059	16.966	806.983	609.247
384.073	16.965	806.453	608.790
385.088	16.977	806.081	608.496
386.102	16.889	805.404	607.617
387.117	16.798	804.927	606.879
388.132	16.930	804.580	607.034
389.146	16.784	804.320	606.261
390.161	16.863	803.822	606.118
391.175	16.989	803.238	606.074
392.190	17.009	802.928	605.858
393.205	16.909	802.602	605.199
394.219	16.916	802.183	604.856
395.234	16.999	801.514	604.593
396.248	16.964	800.982	604.015
397.263	16.995	800.420	603.648
398.278	16.942	799.770	602.915
399.292	16.896	799.404	602.423
400.307	16.984	799.251	602.564
401.321	16.827	799.103	601.843
402.336	16.992	798.486	601.913
403.350	16.911	798.180	601.341
404.365	16.978	797.658	601.132
405.380	17.117	797.098	601.150
406.394	17.148	796.757	600.948
407.409	17.356	796.033	601.083
408.423	17.212	795.839	600.373
409.438	17.238	795.278	599.990
410.453	17.292	794.866	599.818
411.467	17.298	794.864	599.782
412.482	17.331	793.965	599.168
413.496	17.241	793.760	598.643
414.511	17.303	793.274	598.442
415.526	17.444	793.023	598.695
416.540	17.376	792.655	598.125
417.555	17.340	792.154	597.569
418.569	17.388	791.594	597.260
419.584	17.317	790.887	596.426
420.599	17.508	789.928	596.317
421.613	109.975	1292.827	1473.461
422.628	94.376	1366.098	1473.559
