DTS Sentinel unit serial number:	SN413079Multiplexer serial number:	ORYXHardware model number:	OX4-SRSoftware version number:	ORYX F/W v4.00 Oryx Data Collector v3.7.2.0data status	okinstallation	princeton_trtdifferential loss correction	single-endedforward channel	channel 3reverse channel	N/Adate	2019/09/17time	06:40:34forward acquisition time	60.00reverse acquisition time	0.00gamma	496.2192k internal	0.2332k external	0.2332temperature offset calibration	0.9947default loss term (dB/km)	0.3790temperature slope calibration	1.0000multiplexer offset coefficient	1.0000multiplexer slope coefficient	1.0000fibre end	0.00T internal ref (°C)	27.94T ext. ref 1 (°C)	0.13T ext. ref 2 (°C)	21.33length (m)	temperature (°C)	Stokes	anti-Stokes-747.200	82.161	-0.079	0.086
-746.185	727.939	0.169	0.455
-745.171	800.000	0.085	-0.246
-744.156	-77.436	-0.486	-0.170
-743.142	787.192	0.053	-0.147
-742.127	800.000	-0.145	0.410
-741.112	800.000	-0.055	-0.188
-740.098	-62.919	-0.246	0.102
-739.083	-121.300	0.131	0.022
-738.069	800.000	0.048	0.140
-737.054	58.256	-0.314	0.310
-736.039	-83.172	-0.100	-0.032
-735.025	177.149	-0.223	0.326
-734.010	-157.699	-0.189	0.011
-732.996	-113.771	-0.283	0.055
-731.981	-115.806	0.480	0.090
-730.966	-131.761	0.362	-0.048
-729.952	-21.317	-0.369	-0.227
-728.937	-129.470	0.226	0.031
-727.923	800.000	0.088	-0.251
-726.908	14.044	0.209	-0.163
-725.894	-200.000	0.025	-0.176
-724.879	-44.457	0.390	-0.196
-723.864	-200.000	-0.011	-0.519
-722.850	800.000	0.060	-0.191
-721.835	-200.000	-0.016	0.237
-720.821	-53.223	0.143	0.066
-719.806	-71.632	-0.398	-0.150
-718.791	67.826	-0.214	-0.220
-717.777	42.756	-0.293	0.269
-716.762	-142.715	0.319	-0.031
-715.748	134.340	-0.230	-0.300
-714.733	800.000	-0.066	-0.192
-713.718	-200.000	-0.054	0.277
-712.704	796.851	-0.111	0.306
-711.689	-177.847	-0.059	-0.001
-710.675	-200.000	0.062	-0.489
-709.660	-55.739	-0.460	0.206
-708.645	-200.000	0.075	0.426
-707.631	386.718	0.001	0.003
-706.616	800.000	-0.020	0.082
-705.602	-22.729	0.245	-0.149
-704.587	-9.511	-0.311	0.209
-703.572	62.042	-0.086	-0.086
-702.558	-200.000	0.029	-0.000
-701.543	-87.621	-0.273	-0.083
-700.529	-200.000	-0.137	-0.000
-699.514	-98.985	-0.064	0.016
-698.499	55.093	-0.216	-0.210
-697.485	-200.000	0.020	-0.171
-696.470	17.424	-0.098	-0.078
-695.456	246.255	-0.092	0.156
-694.441	-141.799	0.407	0.041
-693.426	175.125	0.189	-0.275
-692.412	-99.842	-0.428	0.107
-691.397	-4.878	-0.045	0.031
-690.383	-158.232	0.464	0.027
-689.368	-29.923	0.160	0.092
-688.354	-171.857	0.218	0.007
-687.339	-41.697	-0.116	0.060
-686.324	554.504	-0.083	-0.199
-685.310	-66.747	-0.505	-0.201
-684.295	-148.255	0.275	0.023
-683.281	-175.208	0.473	-0.013
-682.266	-200.000	0.008	-0.141
-681.251	-200.000	-0.025	0.264
-680.237	48.997	0.277	-0.261
-679.222	411.710	0.089	-0.190
-678.208	-46.267	0.306	0.151
-677.193	-33.675	-0.121	0.067
-676.178	-200.000	0.001	-0.056
-675.164	-59.473	0.063	-0.027
-674.149	-200.000	-0.012	-0.397
-673.135	-153.429	0.299	0.021
-672.120	-83.206	0.132	-0.043
-671.105	-23.396	-0.237	0.143
-670.091	-100.667	0.304	-0.075
-669.076	-37.684	-0.063	0.034
-668.062	-29.169	-0.051	0.029
-667.047	800.000	0.040	0.112
-666.032	104.922	-0.310	0.367
-665.018	-1.127	-0.195	-0.138
-664.003	-99.091	0.398	0.101
-662.989	202.752	0.080	0.123
-661.974	-43.563	-0.240	0.121
-660.959	571.962	-0.012	0.029
-659.945	800.000	0.077	0.245
-658.930	113.193	-0.109	-0.133
-657.916	800.000	-0.110	0.341
-656.901	-116.210	-0.194	0.036
-655.886	370.499	0.052	-0.106
-654.872	73.619	0.154	0.161
-653.857	-200.000	-0.009	0.256
-652.843	-200.000	0.019	0.173
-651.828	-18.109	-0.071	0.044
-650.814	-123.182	0.197	0.032
-649.799	87.116	0.096	0.107
-648.784	-43.961	-0.063	0.032
-647.770	-175.038	0.076	0.002
-646.755	800.000	0.092	-0.337
-645.741	111.044	-0.250	-0.302
-644.726	-58.699	0.132	0.057
-643.711	800.000	0.047	0.149
-642.697	-49.847	0.158	-0.075
-641.682	314.148	-0.096	-0.182
-640.668	776.179	-0.061	-0.168
-639.653	279.697	-0.123	0.220
-638.638	-7.044	0.185	-0.126
-637.624	-178.048	0.301	0.007
-636.609	199.299	-0.085	0.131
-635.595	-101.006	0.045	0.011
-634.580	-200.000	0.022	-0.101
-633.565	6.702	0.139	0.104
-632.551	-88.593	0.362	0.108
-631.536	117.474	-0.075	-0.093
-630.522	-60.790	0.181	-0.077
-629.507	-59.049	-0.066	-0.029
-628.492	-33.535	-0.297	0.164
-627.478	24.419	-0.017	-0.014
-626.463	-200.000	0.031	0.167
-625.449	800.000	-0.038	-0.124
-624.434	800.000	-0.116	-0.336
-623.419	-58.740	0.214	-0.093
-622.405	11.968	0.144	0.111
-621.390	-1.294	0.047	-0.033
-620.376	156.776	0.061	0.085
-619.361	800.000	-0.068	-0.195
-618.346	800.000	0.057	-0.177
-617.332	-200.000	0.005	-0.025
-616.317	-144.084	0.025	-0.002
-615.303	264.789	0.032	0.056
-614.288	-100.392	0.459	-0.114
-613.273	775.328	-0.077	-0.211
-612.259	-0.722	0.330	-0.234
-611.244	127.354	0.058	0.074
-610.230	293.121	-0.114	-0.208
-609.215	-200.000	0.029	0.171
-608.201	-200.000	0.011	0.254
-607.186	9.069	0.146	0.110
-606.171	25.120	0.187	0.156
-605.157	800.000	0.055	0.162
-604.142	800.000	0.018	0.069
-603.128	-98.060	-0.473	-0.122
-602.113	100.326	-0.111	-0.129
-601.098	-86.006	0.353	-0.109
-600.084	748.872	-0.054	-0.145
-599.069	377.360	-0.116	0.237
-598.055	549.456	0.105	0.251
-597.040	-44.425	-0.066	-0.033
-596.025	-200.000	-0.040	-0.210
-595.011	601.842	0.165	0.410
-593.996	438.000	-0.176	-0.384
-592.982	-200.000	-0.016	-0.420
-591.967	-200.000	0.013	0.288
-590.952	-200.000	0.003	-0.087
-589.938	800.000	0.093	-0.386
-588.923	643.835	-0.116	-0.297
-587.909	-184.853	-0.257	-0.004
-586.894	-113.092	-0.216	0.043
-585.879	-121.837	-0.572	-0.094
-584.865	184.635	0.140	0.208
-583.850	142.443	-0.059	0.079
-582.836	345.351	-0.053	-0.104
-581.821	-83.140	0.050	0.016
-580.806	800.000	0.016	0.054
-579.792	-125.359	-0.379	0.058
-578.777	-62.649	-0.283	-0.117
-577.763	800.000	-0.046	-0.180
-576.748	-141.682	-0.259	0.026
-575.733	-200.000	-0.010	-0.168
-574.719	-106.908	-0.343	0.076
-573.704	-53.078	0.139	-0.064
-572.690	459.788	-0.032	-0.071
-571.675	281.353	0.034	0.061
-570.661	106.687	0.155	-0.184
-569.646	449.967	-0.071	-0.157
-568.631	141.131	-0.246	-0.325
-567.617	800.000	-0.057	-0.237
-566.602	-200.000	0.010	0.174
-565.588	-200.000	-0.015	-0.295
-564.573	-14.647	-0.379	-0.243
-563.558	-123.526	0.159	0.025
-562.544	-1.114	0.107	-0.075
-561.529	-156.277	0.290	0.018
-560.515	-59.115	0.275	-0.119
-559.500	-117.294	-0.107	0.019
-558.485	33.512	0.113	0.098
-557.471	40.436	0.131	-0.118
-556.456	39.867	-0.182	-0.164
-555.442	-200.000	0.004	-0.072
-554.427	-68.670	0.299	0.116
-553.412	-61.766	0.068	-0.028
-552.398	194.467	-0.094	-0.143
-551.383	800.000	0.056	-0.238
-550.369	405.572	-0.075	0.158
-549.354	-200.000	-0.055	0.250
-548.339	2.757	-0.149	0.108
-547.325	-46.768	-0.155	0.076
-546.310	46.456	-0.288	0.267
-545.296	-66.509	0.316	0.125
-544.281	428.385	-0.085	0.183
-543.266	149.700	-0.066	0.089
-542.252	-26.087	-0.222	-0.130
-541.237	-81.717	-0.193	-0.063
-540.223	81.212	0.273	0.295
-539.208	-117.806	-0.122	0.022
-538.193	6.856	0.064	0.047
-537.179	800.000	0.028	0.080
-536.164	20.236	-0.069	-0.055
-535.150	-189.385	-0.298	0.003
-534.135	-56.770	-0.200	-0.088
-533.121	-200.000	-0.051	0.235
-532.106	-127.302	0.060	0.009
-531.091	-200.000	0.033	0.347
-530.077	-200.000	-0.059	0.277
-529.062	88.811	0.163	0.181
-528.048	376.916	-0.119	-0.242
-527.033	800.000	0.107	-0.337
-526.018	27.523	-0.298	-0.250
-525.004	34.737	-0.154	-0.135
-523.989	-32.080	-0.140	-0.078
-522.975	-127.756	-0.113	-0.016
-521.960	122.067	-0.194	-0.242
-520.945	517.153	0.134	0.312
-519.931	-52.692	0.188	-0.086
-518.916	-200.000	-0.033	0.197
-517.902	215.998	0.125	0.197
-516.887	-22.110	-0.259	0.157
-515.872	-49.226	-0.329	-0.157
-514.858	-149.695	-0.216	0.017
-513.843	52.827	0.203	0.194
-512.829	800.000	-0.119	-0.372
-511.814	800.000	0.044	-0.148
-510.799	-200.000	-0.016	-0.504
-509.785	8.279	-0.325	-0.243
-508.770	34.937	0.375	0.327
-507.756	99.091	0.125	0.144
-506.741	-60.277	-0.243	0.103
-505.726	-200.000	0.016	-0.157
-504.712	-20.800	0.416	0.254
-503.697	4.228	-0.130	-0.095
-502.683	18.547	0.362	-0.289
-501.668	-89.352	0.186	0.054
-500.653	112.484	-0.343	0.413
-499.639	35.734	-0.066	-0.058
-498.624	-200.000	-0.001	0.070
-497.610	-87.685	-0.375	-0.113
-496.595	227.462	-0.179	-0.290
-495.581	-56.619	0.351	0.155
-494.566	-200.000	0.050	-0.268
-493.551	26.050	0.226	0.188
-492.537	599.364	0.053	0.130
-491.522	56.397	0.369	-0.357
-490.508	-16.320	-0.355	0.224
-489.493	-200.000	-0.005	0.171
-488.478	-98.555	-0.443	-0.113
-487.464	130.666	0.085	0.108
-486.449	-200.000	-0.003	0.310
-485.435	-70.083	0.257	0.097
-484.420	-14.937	0.091	0.058
-483.405	-200.000	-0.027	-0.129
-482.391	-200.000	0.021	0.192
-481.376	-1.390	-0.114	-0.080
-480.362	-107.797	-0.214	-0.046
-479.347	-89.785	-0.120	0.035
-478.332	-200.000	0.018	0.258
-477.318	-185.804	-0.182	0.003
-476.303	602.256	0.071	-0.175
-475.289	134.627	-0.203	0.263
-474.274	-24.683	-0.177	0.105
-473.259	-200.000	-0.010	0.167
-472.245	-17.447	-0.125	0.078
-471.230	339.180	-0.047	0.092
-470.216	-8.348	-0.073	-0.049
-469.201	-152.882	-0.315	-0.022
-468.186	-64.121	0.189	-0.077
-467.172	800.000	-0.037	-0.136
-466.157	-144.033	-0.345	0.032
-465.143	41.465	-0.143	0.128
-464.128	68.595	0.243	0.248
-463.113	800.000	-0.068	-0.217
-462.099	104.146	0.321	0.376
-461.084	800.000	-0.068	0.205
-460.070	460.657	-0.008	-0.019
-459.055	-86.740	0.251	-0.076
-458.040	-200.000	-0.030	-0.169
-457.026	-96.057	-0.311	-0.082
-456.011	-200.000	0.007	0.082
-454.997	366.950	0.055	0.110
-453.982	779.417	0.078	-0.212
-452.968	-78.443	0.145	-0.049
-451.953	110.845	-0.172	-0.206
-450.938	34.540	0.140	-0.121
-449.924	50.991	0.210	-0.198
-448.909	-112.387	-0.349	-0.069
-447.895	-124.639	-0.361	0.056
-446.880	-200.000	0.005	0.079
-445.865	-200.000	-0.028	-0.178
-444.851	190.638	-0.095	0.142
-443.836	20.981	0.145	0.117
-442.822	268.404	0.023	-0.041
-441.807	-27.012	-0.229	-0.133
-440.792	42.171	0.222	-0.201
-439.778	-200.000	-0.139	0.000
-438.763	73.387	0.211	-0.219
-437.749	-15.451	0.256	0.162
-436.734	-66.473	0.125	0.049
-435.719	30.604	-0.209	0.178
-434.705	93.771	0.134	0.151
-433.690	-69.656	0.388	0.148
-432.676	328.859	-0.037	0.070
-431.661	800.000	0.061	0.207
-430.646	138.326	0.092	0.120
-429.632	-58.394	0.239	-0.103
-428.617	644.349	-0.028	0.072
-427.603	-65.291	-0.164	-0.066
-426.588	800.000	0.031	0.089
-425.573	-200.000	-0.214	0.000
-424.559	132.969	0.100	-0.128
-423.544	340.844	0.028	-0.054
-422.530	-43.645	0.315	-0.158
-421.515	-25.886	-0.150	-0.088
-420.500	-200.000	-0.286	0.000
-419.486	14.925	-0.115	0.089
-418.471	494.083	-0.105	0.239
-417.457	-15.176	0.055	-0.035
-416.442	159.032	-0.069	-0.095
-415.428	89.257	-0.215	-0.238
-414.413	-80.018	0.109	-0.036
-413.398	387.578	-0.026	0.053
-412.384	17.775	0.161	0.127
-411.369	-46.792	-0.267	-0.130
-410.355	-197.865	0.131	0.001
-409.340	800.000	0.117	0.390
-408.325	800.000	0.054	-0.189
-407.311	-91.823	0.317	-0.089
-406.296	79.696	-0.119	-0.127
-405.282	-99.534	0.221	-0.055
-404.267	422.999	0.087	0.185
-403.252	-125.291	-0.168	-0.025
-402.238	-157.800	0.343	0.020
-401.223	687.658	-0.052	-0.135
-400.209	-140.889	-0.284	-0.029
-399.194	-22.823	0.232	-0.139
-398.179	-105.970	-0.124	0.028
-397.165	358.105	0.099	0.196
-396.150	439.197	-0.076	-0.166
-395.136	800.000	0.040	-0.159
-394.121	148.643	-0.039	-0.052
-393.106	-84.639	-0.101	-0.032
-392.092	-200.000	0.033	0.270
-391.077	38.754	-0.148	-0.131
-390.063	24.253	0.239	-0.196
-389.048	-150.866	-0.182	0.014
-388.033	-149.372	0.288	0.023
-387.019	767.709	-0.125	-0.338
-386.004	598.879	0.037	-0.091
-384.990	459.859	0.140	-0.308
-383.975	241.503	-0.154	-0.256
-382.960	-98.623	0.231	0.058
-381.946	187.960	-0.109	0.162
-380.931	55.158	-0.062	0.059
-379.917	-135.453	-0.237	0.028
-378.902	-26.060	0.154	0.090
-377.888	-33.666	0.302	-0.165
-376.873	9.140	0.208	-0.155
-375.858	10.463	0.015	-0.012
-374.844	-135.294	0.230	-0.027
-373.829	61.175	0.202	-0.199
-372.815	-139.140	-0.268	-0.029
-371.800	-1.674	-0.220	0.153
-370.785	-86.324	0.301	0.092
-369.771	784.521	-0.064	0.173
-368.756	800.000	-0.032	-0.092
-367.742	174.833	-0.205	0.294
-366.727	-25.456	-0.117	0.068
-365.712	189.272	-0.308	0.458
-364.698	261.150	0.135	0.231
-363.683	78.949	0.137	-0.145
-362.669	-194.509	0.348	-0.003
-361.654	10.068	-0.159	-0.119
-360.639	231.142	0.070	-0.114
-359.625	-200.000	0.004	0.103
-358.610	119.767	-0.101	0.124
-357.596	-200.000	-0.036	0.305
-356.581	-200.000	-0.014	0.245
-355.566	-96.728	0.197	0.051
-354.552	-54.181	0.129	0.058
-353.537	154.537	-0.176	0.240
-352.523	-97.215	-0.232	0.060
-351.508	-12.740	0.147	-0.095
-350.493	-52.949	0.268	0.122
-349.479	-200.000	0.008	0.042
-348.464	25.193	-0.225	-0.185
-347.450	-111.650	0.217	0.044
-346.435	-165.878	-0.152	0.006
-345.420	-127.603	-0.008	-0.001
-344.406	-51.922	-0.340	0.157
-343.391	-7.599	-0.130	0.087
-342.377	236.236	-0.022	0.036
-341.362	116.869	0.093	0.114
-340.348	144.144	0.115	-0.152
-339.333	119.136	-0.037	-0.045
-338.318	-3.898	0.106	0.073
-337.304	273.667	-0.128	-0.224
-336.289	800.000	-0.106	-0.379
-335.275	800.000	0.079	0.323
-334.260	128.114	-0.225	0.283
-333.245	-120.860	0.191	-0.032
-332.231	800.000	-0.012	-0.043
-331.216	210.618	0.087	-0.135
-330.202	-200.000	0.016	0.141
-329.187	-112.055	0.278	-0.055
-328.172	550.035	0.142	0.336
-327.158	-132.908	-0.388	-0.049
-326.143	73.610	0.194	0.201
-325.129	-200.000	-0.010	0.060
-324.114	96.923	0.165	0.188
-323.099	14.655	-0.089	0.069
-322.085	-200.000	-0.002	0.157
-321.070	-44.772	-0.134	-0.066
-320.056	11.584	0.239	-0.182
-319.041	473.125	-0.048	0.107
-318.026	258.014	0.088	-0.150
-317.012	-146.770	-0.161	-0.014
-315.997	58.707	0.100	0.097
-314.983	521.157	0.070	-0.162
-313.968	-200.000	-0.067	-0.358
-312.953	-5.146	-0.179	0.122
-311.939	-200.000	0.003	-0.089
-310.924	10.900	0.324	-0.244
-309.910	-200.000	-0.048	-0.250
-308.895	-94.291	0.138	-0.037
-307.880	80.212	0.137	-0.145
-306.866	-101.064	0.191	0.046
-305.851	316.374	-0.082	0.152
-304.837	-200.000	0.004	-0.323
-303.822	347.552	-0.105	0.205
-302.807	114.700	-0.151	-0.182
-301.793	67.440	-0.172	0.174
-300.778	-23.383	0.051	-0.031
-299.764	118.305	0.012	0.015
-298.749	243.677	-0.159	-0.264
-297.735	-149.323	-0.251	0.020
-296.720	-103.257	-0.259	0.061
-295.705	17.300	0.185	0.145
-294.691	-154.391	-0.205	-0.014
-293.676	800.000	-0.063	0.268
-292.662	-122.236	0.346	-0.056
-291.647	16.859	0.104	-0.081
-290.632	800.000	0.068	0.212
-289.618	-20.911	0.192	-0.116
-288.603	57.055	-0.151	-0.146
-287.589	-200.000	-0.029	0.259
-286.574	73.345	0.083	0.086
-285.559	-68.949	0.197	-0.075
-284.545	-41.079	-0.142	0.072
-283.530	-6.014	0.031	0.021
-282.516	-200.000	-0.037	-0.212
-281.501	-88.871	0.275	0.081
-280.486	-2.702	-0.103	0.072
-279.472	-38.264	0.163	0.085
-278.457	14.355	-0.082	0.064
-277.443	-75.844	0.133	0.047
-276.428	92.429	0.125	0.139
-275.413	395.022	0.146	0.300
-274.399	57.378	0.123	-0.119
-273.384	-200.000	0.029	0.145
-272.370	-106.343	-0.199	0.044
-271.355	-123.553	0.211	-0.033
-270.340	-117.761	0.049	0.009
-269.326	520.477	-0.120	-0.278
-268.311	754.436	0.084	-0.225
-267.297	107.865	0.059	-0.069
-266.282	136.702	-0.099	-0.127
-265.267	-200.000	-0.019	-0.384
-264.253	69.780	-0.087	0.088
-263.238	-96.984	-0.304	-0.079
-262.224	-21.931	0.142	0.085
-261.209	-200.000	0.005	-0.079
-260.195	800.000	0.024	0.091
-259.180	19.884	-0.204	0.162
-258.165	219.256	-0.079	0.125
-257.151	-52.152	-0.197	-0.090
-256.136	53.525	0.244	-0.231
-255.122	122.522	0.063	0.077
-254.107	25.041	-0.363	0.298
-253.092	800.000	0.046	0.127
-252.078	70.247	-0.133	0.136
-251.063	341.808	0.081	0.156
-250.049	800.000	0.108	0.385
-249.034	-131.953	-0.171	0.022
-248.019	213.253	-0.151	-0.236
-247.005	800.000	0.129	-0.359
-245.990	-124.865	0.397	-0.060
-244.976	-88.258	0.136	0.040
-243.961	-200.000	-0.020	0.123
-242.946	45.279	-0.171	-0.156
-241.932	-200.000	0.043	-0.222
-240.917	-200.000	-0.005	0.313
-239.903	-200.000	-0.008	0.283
-238.888	-200.000	-0.002	0.081
-237.873	800.000	-0.057	-0.192
-236.859	-104.892	-0.313	-0.071
-235.844	15.430	-0.103	-0.080
-234.830	59.418	0.158	-0.153
-233.815	229.267	0.168	0.270
-232.800	-98.596	-0.174	0.044
-231.786	18.562	0.125	0.099
-230.771	-112.420	-0.449	0.088
-229.757	-69.067	0.331	-0.126
-228.742	35.347	-0.225	0.195
-227.727	-59.315	-0.242	0.103
-226.713	742.917	0.188	0.499
-225.698	-13.037	0.114	0.073
-224.684	-92.737	-0.065	-0.018
-223.669	-3.153	0.262	0.180
-222.655	-105.718	-0.052	-0.011
-221.640	729.202	-0.095	-0.251
-220.625	-200.000	-0.016	0.084
-219.611	-68.082	-0.110	-0.042
-218.596	-10.574	0.099	0.065
-217.582	-200.000	-0.048	0.251
-216.567	-139.600	0.088	0.009
-215.552	190.108	0.120	-0.178
-214.538	145.015	-0.084	-0.111
-213.523	28.698	0.058	-0.048
-212.509	-41.322	-0.252	-0.128
-211.494	-70.080	-0.134	0.050
-210.479	-86.673	-0.117	-0.035
-209.465	396.474	0.086	-0.176
-208.450	314.908	-0.138	-0.257
-207.436	259.441	-0.191	-0.325
-206.421	-23.446	0.070	-0.041
-205.406	800.000	0.066	0.214
-204.392	-87.602	0.152	0.045
-203.377	82.350	-0.097	-0.103
-202.363	323.017	-0.141	-0.266
-201.348	-200.000	0.028	0.135
-200.333	78.026	0.050	-0.053
-199.319	15.323	0.302	0.233
-198.304	-142.701	-0.335	0.032
-197.290	-200.000	-0.022	-0.140
-196.275	-200.000	0.022	-0.196
-195.260	-32.573	0.029	-0.016
-194.246	-57.034	-0.080	0.035
-193.231	-200.000	0.056	0.250
-192.217	110.148	-0.089	0.105
-191.202	529.222	0.029	-0.068
-190.187	-169.119	0.667	0.024
-189.173	148.834	-0.196	0.261
-188.158	-60.973	0.415	0.173
-187.144	3.447	0.063	-0.045
-186.129	-142.603	-0.170	-0.016
-185.114	-143.965	-0.090	0.008
-184.100	-200.000	0.060	0.290
-183.085	659.062	0.092	0.233
-182.071	38.320	0.234	-0.205
-181.056	-37.436	0.039	0.021
-180.042	-90.751	-0.093	0.026
-179.027	355.334	0.069	-0.136
-178.012	-74.290	-0.282	-0.100
-176.998	-110.248	0.133	-0.027
-175.983	-39.655	-0.157	-0.081
-174.969	-200.000	0.029	0.254
-173.954	-200.000	-0.053	-0.281
-172.939	800.000	0.164	-0.460
-171.925	197.662	0.139	-0.209
-170.910	101.539	0.076	-0.088
-169.896	193.635	-0.179	0.267
-168.881	113.615	0.114	-0.136
-167.866	-130.336	-0.109	0.015
-166.852	-62.572	0.282	0.115
-165.837	171.210	-0.006	0.008
-164.823	-145.726	0.320	0.028
-163.808	220.964	-0.037	0.058
-162.793	11.272	0.081	-0.061
-161.779	-96.218	0.112	-0.029
-160.764	-200.000	0.022	0.352
-159.750	800.000	0.049	0.205
-158.735	-56.512	0.105	0.046
-157.720	59.090	-0.069	-0.067
-156.706	800.000	0.121	-0.330
-155.691	-200.000	0.008	0.203
-154.677	-200.000	-0.040	0.243
-153.662	-128.680	0.334	0.046
-152.647	683.232	0.019	-0.049
-151.633	7.206	0.110	-0.080
-150.618	-75.563	0.185	0.065
-149.604	99.779	-0.167	0.190
-148.589	-200.000	-0.048	0.263
-147.574	100.709	-0.107	0.123
-146.560	486.199	0.054	-0.122
-145.545	26.741	-0.208	0.171
-144.531	-2.958	-0.308	0.211
-143.516	287.899	-0.098	0.174
-142.502	-112.824	-0.118	-0.023
-141.487	-106.905	0.282	0.061
-140.472	-95.665	-0.248	0.065
-139.458	-120.472	-0.121	0.020
-138.443	38.376	0.198	0.173
-137.429	196.029	-0.148	-0.221
-136.414	-111.077	-0.625	-0.126
-135.399	-200.000	0.023	-0.137
-134.385	1.500	0.277	0.195
-133.370	-200.000	-0.011	-0.120
-132.356	-200.000	-0.010	0.251
-131.341	281.644	-0.083	-0.146
-130.326	37.119	-0.117	0.101
-129.312	184.461	-0.084	-0.122
-128.297	250.838	0.124	0.208
-127.283	-162.235	0.110	0.005
-126.268	-200.000	0.048	-0.210
-125.253	-200.000	0.065	0.414
-124.239	-44.639	-0.355	0.174
-123.224	-175.798	-0.172	0.005
-122.210	-200.000	0.003	-0.300
-121.195	-200.000	-0.010	-0.180
-120.180	-113.436	0.043	0.008
-119.166	10.735	-0.206	0.155
-118.151	-164.710	-0.021	0.001
-117.137	75.610	0.029	0.030
-116.122	-84.938	-0.242	0.075
-115.107	725.586	-0.137	0.359
-114.093	76.830	0.227	0.236
-113.078	-137.080	-0.091	0.010
-112.064	-66.590	-0.224	-0.087
-111.049	-78.742	0.185	-0.062
-110.034	52.752	-0.039	-0.036
-109.020	-100.143	-0.076	0.018
-108.005	800.000	0.065	0.186
-106.991	159.217	0.107	0.146
-105.976	800.000	0.056	0.181
-104.962	-8.449	0.206	0.136
-103.947	101.401	0.193	-0.221
-102.932	-200.000	-0.066	-0.312
-101.918	-31.588	-0.288	0.159
-100.903	462.082	0.043	0.094
-99.889	174.385	-0.069	0.098
-98.874	383.512	-0.057	-0.115
-97.859	211.966	-0.095	0.146
-96.845	-69.583	0.069	-0.026
-95.830	-14.459	0.210	0.133
-94.816	-106.503	-0.140	0.031
-93.801	800.000	-0.097	0.279
-92.786	201.300	0.065	0.098
-91.772	800.000	0.038	0.131
-90.757	706.736	-0.021	-0.056
-89.743	-5.605	0.105	0.071
-88.728	-56.010	0.349	0.153
-87.713	28.664	-0.209	-0.173
-86.699	-200.000	-0.067	-0.366
-85.684	441.268	0.026	0.057
-84.670	800.000	0.076	-0.215
-83.655	-200.000	0.000	0.058
-82.640	66.092	-0.033	0.033
-81.626	800.000	-0.058	0.185
-80.611	316.130	0.137	-0.254
-79.597	44.133	0.167	-0.150
-78.582	118.113	0.093	0.112
-77.567	-200.000	-0.035	0.162
-76.553	800.000	0.124	-0.372
-75.538	98.072	0.224	0.253
-74.524	-200.000	0.054	-0.355
-73.509	181.609	-0.092	0.133
-72.494	140.059	-0.188	0.243
-71.480	800.000	0.096	-0.300
-70.465	800.000	0.025	-0.075
-69.451	797.438	-0.080	-0.217
-68.436	309.582	-0.117	0.213
-67.422	24.209	-0.271	0.219
-66.407	-200.000	0.056	0.359
-65.392	222.082	-0.082	-0.129
-64.378	324.214	0.100	-0.187
-63.363	128.647	0.094	0.118
-62.349	458.928	-0.064	0.139
-61.334	57.423	-1.004	-0.960
-60.319	38.013	0.617	0.537
-59.305	800.000	-0.322	-1.017
-58.290	575.535	0.618	1.479
-57.276	800.000	0.451	1.647
-56.261	-200.000	112.317	642.846
-55.246	478.230	1498.565	3322.414
-54.232	148.534	2663.345	3523.244
-53.217	104.065	2171.746	2500.685
-52.203	38.302	1704.095	1486.262
-51.188	31.055	1523.457	1279.178
-50.173	28.693	1499.349	1242.915
-49.159	53.048	1556.113	1458.382
-48.144	51.754	1572.001	1464.315
-47.130	31.316	1528.095	1284.660
-46.115	28.197	1513.960	1251.438
-45.100	27.988	1510.455	1247.069
-44.086	27.984	1508.361	1245.264
-43.071	27.927	1506.253	1243.084
-42.057	27.925	1504.903	1241.909
-41.042	27.943	1503.355	1240.701
-40.027	27.927	1502.150	1239.552
-39.013	27.860	1500.709	1237.855
-37.998	27.866	1499.531	1236.878
-36.984	27.888	1497.909	1235.638
-35.969	27.899	1496.761	1234.715
-34.954	27.845	1495.680	1233.415
-33.940	27.931	1494.162	1232.692
-32.925	27.963	1492.302	1231.326
-31.911	27.971	1490.903	1230.173
-30.896	27.910	1489.929	1228.912
-29.881	27.921	1488.771	1227.980
-28.867	28.011	1487.206	1227.247
-27.852	27.922	1486.795	1226.263
-26.838	27.935	1485.277	1225.050
-25.823	28.071	1483.041	1224.064
-24.809	27.956	1482.060	1222.437
-23.794	27.920	1480.364	1220.752
-22.779	27.890	1479.257	1219.587
-21.765	27.997	1478.456	1219.594
-20.750	27.996	1477.390	1218.658
-19.736	28.039	1475.364	1217.227
-18.721	28.036	1474.443	1216.398
-17.706	27.905	1473.788	1214.940
-16.692	27.894	1472.668	1213.891
-15.677	27.906	1471.562	1213.014
-14.663	27.891	1470.766	1212.209
-13.648	27.873	1469.643	1211.117
-12.633	27.930	1468.901	1210.833
-11.619	27.963	1468.221	1210.446
-10.604	27.998	1466.888	1209.526
-9.590	27.971	1466.036	1208.598
-8.575	28.043	1465.106	1208.259
-7.560	28.076	1464.051	1207.563
-6.546	27.920	1463.203	1205.782
-5.531	27.906	1462.880	1205.377
-4.517	27.855	1461.697	1204.021
-3.502	27.902	1460.793	1203.533
-2.487	27.915	1459.806	1202.759
-1.473	27.858	1459.058	1201.724
-0.458	27.937	1457.246	1200.700
0.556	26.066	1447.052	1188.203
1.571	22.644	1421.857	1145.227
2.586	18.764	1358.941	1070.322
3.600	16.952	1274.944	993.469
4.615	15.743	1230.559	951.959
5.629	13.688	1174.735	897.578
6.644	6.930	1091.437	799.772
7.659	1.226	1052.932	743.591
8.673	0.278	1047.398	734.990
9.688	0.146	1044.088	731.961
10.702	0.015	1042.760	730.330
11.717	0.072	1040.775	729.152
12.731	2.316	1042.824	741.410
13.746	9.679	1052.262	783.969
14.761	15.859	1060.271	820.063
15.775	17.246	1060.823	827.177
16.790	16.592	1058.856	822.388
17.804	15.524	1056.898	815.612
18.819	14.678	1055.276	810.183
19.834	14.285	1053.683	806.988
20.848	13.846	1052.816	804.126
21.863	13.726	1052.353	803.116
22.877	13.453	1051.563	801.121
23.892	13.246	1050.494	799.237
24.907	13.207	1049.804	798.454
25.921	13.103	1048.932	797.218
26.936	13.177	1048.493	797.169
27.950	13.288	1047.988	797.248
28.965	13.273	1046.803	796.205
29.980	13.334	1045.990	795.812
30.994	13.464	1044.518	795.245
32.009	13.400	1044.374	794.757
33.023	13.431	1043.605	794.253
34.038	13.355	1042.690	793.119
35.053	13.321	1041.769	792.188
36.067	13.312	1041.128	791.584
37.082	13.361	1039.783	790.729
38.096	13.436	1039.398	790.722
39.111	13.319	1038.837	789.669
40.126	13.485	1037.265	789.193
41.140	13.353	1036.737	788.095
42.155	13.249	1036.061	787.016
43.169	13.307	1034.921	786.355
44.184	13.120	1034.121	784.791
45.199	13.116	1033.009	783.857
46.213	13.179	1031.737	783.119
47.228	13.160	1030.876	782.308
48.242	13.390	1029.130	781.999
49.257	13.398	1028.504	781.492
50.271	13.249	1027.776	780.169
51.286	13.307	1027.101	779.860
52.301	13.277	1026.201	778.968
53.315	13.379	1025.357	778.739
54.330	13.223	1024.867	777.561
55.344	13.282	1024.119	777.205
56.359	13.116	1023.089	775.572
57.374	13.362	1021.539	775.483
58.388	13.300	1021.078	774.772
59.403	13.162	1020.408	773.552
60.417	13.118	1019.874	772.874
61.432	13.112	1019.080	772.176
62.447	13.203	1018.127	771.807
63.461	13.223	1017.587	771.425
64.476	13.021	1016.644	769.698
65.490	13.178	1015.685	769.636
66.505	13.290	1014.476	769.172
67.520	13.206	1014.064	768.403
68.534	13.122	1013.333	767.389
69.549	13.175	1012.536	766.964
70.563	13.232	1011.330	766.246
71.578	13.085	1011.387	765.543
72.593	13.026	1010.286	764.365
73.607	13.122	1009.163	763.892
74.622	13.037	1008.659	763.050
75.636	13.066	1007.353	762.132
76.651	13.080	1006.643	761.590
77.666	13.098	1005.814	760.978
78.680	13.058	1005.396	760.410
79.695	13.116	1004.927	760.258
80.709	13.080	1004.824	759.945
81.724	13.102	1003.375	758.883
82.739	13.087	1002.436	758.035
83.753	13.183	1001.810	757.938
84.768	13.243	1000.975	757.514
85.782	13.297	1000.246	757.142
86.797	13.481	999.493	757.346
87.812	13.353	998.711	756.100
88.826	13.314	997.492	754.934
89.841	13.376	996.684	754.539
90.855	13.383	996.316	754.223
91.870	13.256	995.709	753.120
92.884	13.330	995.028	752.877
93.899	13.453	993.852	752.477
94.914	13.406	993.460	751.899
95.928	13.443	992.854	751.544
96.943	13.434	992.284	751.006
97.957	13.502	990.807	750.127
98.972	13.357	990.520	749.189
99.987	13.431	989.717	748.850
101.001	13.316	988.947	747.682
102.016	13.322	988.477	747.288
103.030	13.394	987.148	746.542
104.045	13.397	986.385	745.909
105.060	13.365	985.257	744.850
106.074	13.428	984.229	744.288
107.089	13.427	983.285	743.503
108.103	13.418	982.636	742.906
109.118	13.196	981.630	741.088
110.133	13.254	980.885	740.718
111.147	13.203	979.891	739.673
112.162	13.249	979.196	739.291
113.176	13.274	978.212	738.594
114.191	13.381	977.069	738.139
115.206	13.373	976.547	737.644
116.220	13.313	975.584	736.587
117.235	13.245	974.810	735.634
118.249	13.359	973.887	735.381
119.264	13.221	973.525	734.429
120.279	13.250	972.487	733.710
121.293	13.286	971.528	733.079
122.308	13.246	970.808	732.296
123.322	13.210	969.646	731.193
124.337	13.201	968.745	730.409
125.352	13.174	967.782	729.497
126.366	13.235	966.440	728.691
127.381	13.268	965.557	728.109
128.395	13.225	964.380	726.969
129.410	13.151	963.703	726.065
130.424	13.153	963.138	725.587
131.439	13.113	962.153	724.601
132.454	13.290	961.019	724.462
133.468	13.297	960.484	724.025
134.483	13.248	960.129	723.479
135.497	13.344	958.742	722.790
136.512	13.345	958.191	722.313
137.527	13.264	957.496	721.374
138.541	13.222	956.711	720.536
139.556	13.242	956.091	720.091
140.570	13.367	955.155	719.867
141.585	13.334	954.607	719.244
142.600	13.339	954.216	718.907
143.614	13.518	953.060	718.750
144.629	13.441	952.622	718.023
145.643	13.589	951.771	717.960
146.658	13.526	951.092	717.110
147.673	13.453	949.805	715.764
148.687	13.315	949.257	714.689
149.702	13.461	947.910	714.242
150.716	13.374	947.514	713.506
151.731	13.294	946.704	712.488
152.746	13.454	945.435	712.160
153.760	13.437	944.796	711.538
154.775	13.504	944.427	711.487
155.789	13.430	943.879	710.693
156.804	13.404	943.189	709.998
157.819	13.526	942.016	709.575
158.833	13.655	941.212	709.459
159.848	13.591	940.579	708.647
160.862	13.589	940.186	708.279
161.877	13.597	939.312	707.594
162.892	13.479	938.542	706.447
163.906	13.509	938.165	706.229
164.921	13.552	937.111	705.555
165.935	13.529	936.207	704.712
166.950	13.475	934.794	703.359
167.964	13.428	934.150	702.612
168.979	13.489	933.374	702.228
169.994	13.485	932.344	701.370
171.008	13.605	931.485	701.169
172.023	13.650	930.621	700.648
173.037	13.641	929.919	700.022
174.052	13.709	929.191	699.699
175.067	13.759	928.696	699.472
176.081	13.795	927.614	698.748
177.096	13.704	926.976	697.822
178.110	13.639	926.256	696.946
179.125	13.590	925.878	696.394
180.140	13.691	924.492	695.713
181.154	13.762	923.985	695.570
182.169	13.642	923.753	694.828
183.183	13.649	923.220	694.395
184.198	13.737	922.171	693.915
185.213	13.739	921.753	693.547
186.227	13.749	921.103	693.037
187.242	13.829	920.275	692.686
188.256	13.819	919.750	692.188
189.271	13.996	918.652	692.037
190.286	14.029	918.481	691.987
191.300	13.714	917.317	689.739
192.315	13.716	916.778	689.280
193.329	13.649	915.768	688.181
194.344	13.632	915.351	687.735
195.359	13.688	914.689	687.412
196.373	13.855	914.369	687.801
197.388	13.857	913.794	687.316
198.402	13.884	913.182	686.906
199.417	13.976	912.848	686.977
200.432	14.177	911.650	686.841
201.446	14.148	911.664	686.674
202.461	14.285	911.293	686.898
203.475	14.155	910.937	686.035
204.490	14.157	910.301	685.500
205.504	14.062	909.288	684.285
206.519	14.050	908.989	683.953
207.534	14.113	907.832	683.279
208.548	14.075	907.194	682.581
209.563	14.054	906.370	681.815
210.577	14.037	905.679	681.168
211.592	14.027	905.266	680.756
212.607	14.233	904.802	681.187
213.621	14.287	904.059	680.791
214.636	14.184	903.925	680.209
215.650	14.133	902.800	679.093
216.665	14.264	902.103	679.044
217.680	14.241	901.715	678.595
218.694	14.352	901.218	678.616
219.709	14.292	900.724	677.936
220.723	14.323	900.306	677.692
221.738	14.363	899.269	677.014
222.753	14.197	898.693	675.845
223.767	14.333	897.526	675.460
224.782	14.397	896.726	675.054
225.796	14.503	896.196	675.024
226.811	14.529	895.514	674.560
227.826	14.391	894.943	673.510
228.840	14.392	894.000	672.747
229.855	14.321	893.813	672.260
230.869	14.445	892.850	671.976
231.884	14.258	892.790	671.115
232.899	14.483	890.965	670.589
233.913	14.521	890.922	670.651
234.928	14.283	890.489	669.309
235.942	14.297	889.464	668.537
236.957	14.469	888.415	668.379
237.972	14.419	888.346	668.066
238.986	14.493	887.390	667.587
240.001	14.386	886.831	666.676
241.015	14.478	886.274	666.568
242.030	14.460	885.560	665.901
243.045	14.562	884.875	665.733
244.059	14.593	884.307	665.371
245.074	14.572	883.550	664.657
246.088	14.748	882.759	664.706
247.103	14.644	882.545	664.069
248.117	14.707	881.907	663.783
249.132	14.663	881.179	663.001
250.147	14.661	881.178	662.932
251.161	14.834	879.983	662.660
252.176	14.860	879.704	662.498
253.190	14.886	879.077	662.069
254.205	14.866	878.401	661.422
255.220	14.801	877.802	660.656
256.234	14.941	877.155	660.661
257.249	14.999	876.394	660.258
258.263	14.932	875.952	659.604
259.278	14.970	875.478	659.337
260.293	15.048	874.625	658.945
261.307	15.003	874.156	658.355
262.322	15.188	873.339	658.410
263.336	15.116	873.109	657.896
264.351	14.989	872.596	656.951
265.366	15.038	871.843	656.520
266.380	15.076	871.176	656.109
267.395	15.080	870.561	655.603
268.409	15.140	869.702	655.133
269.424	15.121	868.866	654.371
270.439	15.181	868.115	653.981
271.453	15.160	867.536	653.406
272.468	15.018	866.886	652.305
273.482	15.094	866.310	652.108
274.497	15.060	865.992	651.681
275.512	15.153	864.946	651.198
276.526	15.120	864.175	650.431
277.541	15.313	863.261	650.433
278.555	15.361	862.617	650.075
279.570	15.300	862.544	649.727
280.585	15.203	862.094	648.955
281.599	15.323	861.180	648.674
282.614	15.314	861.069	648.500
283.628	15.243	860.302	647.587
284.643	15.388	859.263	647.311
285.657	15.251	859.053	646.565
286.672	15.324	858.809	646.606
287.687	15.264	858.269	645.910
288.701	15.378	857.538	645.741
289.716	15.380	856.926	645.232
290.730	15.488	856.311	645.128
291.745	15.494	855.639	644.588
292.760	15.465	854.959	643.906
293.774	15.514	854.509	643.697
294.789	15.483	853.791	642.980
295.803	15.677	852.881	642.980
296.818	15.568	852.640	642.327
297.833	15.446	852.218	641.485
298.847	15.664	851.154	641.458
299.862	15.462	851.234	640.692
300.876	15.436	850.220	639.773
301.891	15.540	849.482	639.557
302.906	15.583	849.054	639.341
303.920	15.809	847.914	639.284
304.935	15.619	847.556	638.237
305.949	15.669	846.811	637.809
306.964	15.811	846.228	637.852
307.979	15.824	845.857	637.564
308.993	15.672	845.680	636.802
310.008	15.633	845.029	636.104
311.022	15.840	844.445	636.393
312.037	15.787	843.875	635.706
313.052	15.826	843.157	635.257
314.066	15.620	842.711	634.089
315.081	15.789	841.666	633.880
316.095	15.776	841.441	633.607
317.110	15.903	840.750	633.507
318.125	15.880	840.115	632.889
319.139	15.760	839.992	632.290
320.154	15.741	839.241	631.596
321.168	15.859	838.662	631.547
322.183	15.872	838.168	631.166
323.197	15.775	837.774	630.449
324.212	15.927	837.124	630.476
325.227	15.875	836.512	629.763
326.241	15.849	835.780	629.061
327.256	15.916	835.556	629.087
328.270	15.785	835.206	628.277
329.285	15.885	834.556	628.108
330.300	15.831	833.939	627.384
331.314	15.789	833.240	626.649
332.329	15.926	832.676	626.676
333.343	15.977	832.053	626.343
334.358	15.868	831.472	625.446
335.373	15.894	831.023	625.151
336.387	16.115	830.294	625.363
337.402	16.219	829.808	625.329
338.416	16.215	829.084	624.712
339.431	15.981	829.269	623.930
340.446	16.139	828.156	623.623
341.460	16.235	827.516	623.441
342.475	16.209	827.003	622.902
343.489	16.157	826.938	622.606
344.504	16.367	825.938	622.571
345.519	16.359	825.484	622.147
346.533	16.310	825.177	621.678
347.548	16.354	824.660	621.395
348.562	16.363	824.271	621.081
349.577	16.318	823.406	620.207
350.592	16.324	822.852	619.758
351.606	16.090	822.720	618.746
352.621	16.303	821.891	618.850
353.635	16.274	821.510	618.400
354.650	16.394	821.233	618.575
355.665	16.355	820.277	617.660
356.679	16.214	820.417	617.195
357.694	16.414	819.431	617.129
358.708	16.382	819.033	616.657
359.723	16.406	818.568	616.341
360.738	16.313	818.375	615.801
361.752	16.387	817.569	615.409
362.767	16.483	816.954	615.242
363.781	16.433	816.925	614.983
364.796	16.506	816.204	614.652
365.810	16.539	815.681	614.323
366.825	16.560	815.701	614.361
367.840	16.649	815.189	614.244
368.854	16.670	814.721	613.911
369.869	16.689	813.897	613.308
370.883	16.650	813.137	612.540
371.898	16.758	813.073	612.827
372.913	16.642	812.741	612.104
373.927	16.749	812.021	611.894
374.942	16.741	811.306	611.272
375.956	16.833	810.383	610.854
376.971	16.793	809.723	610.156
377.986	16.715	809.584	609.720
379.000	16.919	808.842	609.838
380.015	16.872	808.658	609.476
381.029	16.878	807.892	608.867
382.044	16.977	807.294	608.718
383.059	16.970	806.542	608.072
384.073	17.070	806.297	608.193
385.088	16.944	805.738	607.266
386.102	17.049	805.050	607.067
387.117	16.907	804.540	606.124
388.132	16.855	804.048	605.513
389.146	16.926	804.099	605.751
390.161	16.991	803.378	605.386
391.175	16.970	803.218	605.137
392.190	17.042	802.728	604.973
393.205	17.086	802.222	604.693
394.219	16.855	802.032	603.674
395.234	17.044	801.142	603.624
396.248	16.995	800.536	602.940
397.263	16.919	800.516	602.599
398.278	16.809	800.234	601.945
399.292	16.917	799.868	601.997
400.307	16.986	799.092	601.605
401.321	16.879	798.884	601.017
402.336	17.083	798.507	601.402
403.350	17.032	797.959	600.756
404.365	17.001	797.566	600.298
405.380	17.038	797.014	599.961
406.394	17.130	796.675	599.977
407.409	17.241	796.048	599.844
408.423	17.243	795.701	599.534
409.438	17.419	795.034	599.602
410.453	17.341	794.668	598.996
411.467	17.284	794.624	598.711
412.482	17.358	793.615	598.156
413.496	17.463	793.342	598.269
414.511	17.530	792.886	598.106
415.526	17.442	792.488	597.443
416.540	17.564	791.873	597.355
417.555	17.503	791.569	596.860
418.569	17.431	791.217	596.290
419.584	17.474	790.498	595.845
420.599	17.425	790.442	595.577
421.613	110.605	1293.630	1475.442
422.628	94.964	1366.907	1475.540
