DTS Sentinel unit serial number:	SN413079Multiplexer serial number:	ORYXHardware model number:	OX4-SRSoftware version number:	ORYX F/W v4.00 Oryx Data Collector v3.7.2.0data status	okinstallation	princeton_trtdifferential loss correction	single-endedforward channel	channel 3reverse channel	N/Adate	2019/09/18time	13:24:35forward acquisition time	60.00reverse acquisition time	0.00gamma	496.2192k internal	0.2312k external	0.2312temperature offset calibration	0.9975default loss term (dB/km)	0.3790temperature slope calibration	1.0000multiplexer offset coefficient	1.0000multiplexer slope coefficient	1.0000fibre end	0.00T internal ref (°C)	34.12T ext. ref 1 (°C)	0.61T ext. ref 2 (°C)	29.42length (m)	temperature (°C)	Stokes	anti-Stokes-747.200	800.000	-0.030	0.089
-746.185	800.000	0.103	0.397
-745.171	68.593	-0.114	0.119
-744.156	-200.000	-0.025	0.249
-743.142	39.990	-0.081	-0.074
-742.127	-200.000	0.040	0.299
-741.112	-112.831	-0.202	-0.041
-740.098	-139.460	0.210	0.023
-739.083	146.021	-0.114	0.155
-738.069	-181.974	-0.274	0.005
-737.054	-31.092	0.258	0.148
-736.039	324.672	-0.168	0.326
-735.025	141.483	-0.164	-0.221
-734.010	-200.000	0.012	0.223
-732.996	-142.493	-0.251	-0.025
-731.981	-200.000	-0.048	-0.271
-730.966	82.231	-0.217	-0.238
-729.952	-41.988	-0.248	-0.129
-728.937	-200.000	0.004	0.147
-727.923	-30.749	-0.145	-0.083
-726.908	-60.957	-0.132	0.057
-725.894	541.106	-0.059	-0.143
-724.879	-200.000	0.022	0.337
-723.864	-31.536	0.426	-0.243
-722.850	-124.200	0.177	-0.028
-721.835	132.564	-0.122	0.159
-720.821	91.893	-0.182	-0.208
-719.806	185.290	-0.125	-0.189
-718.791	-148.224	-0.126	-0.011
-717.777	-200.000	-0.030	0.210
-716.762	97.210	-0.280	0.325
-715.748	-95.937	-0.275	0.074
-714.733	800.000	-0.082	-0.305
-713.718	161.414	0.045	-0.063
-712.704	-200.000	-0.005	-0.091
-711.689	7.052	-0.113	-0.085
-710.675	182.207	0.262	0.391
-709.660	176.424	-0.162	-0.238
-708.645	622.445	0.070	-0.178
-707.631	30.346	0.119	-0.103
-706.616	53.758	-0.108	0.105
-705.602	-200.000	0.061	-0.273
-704.587	222.311	0.151	0.245
-703.572	106.013	0.135	0.161
-702.558	-200.000	0.005	-0.132
-701.543	-6.412	-0.244	-0.169
-700.529	-200.000	0.046	0.327
-699.514	549.347	0.069	-0.168
-698.499	57.775	0.024	-0.024
-697.485	742.616	-0.114	0.310
-696.470	226.034	-0.255	-0.418
-695.456	31.345	-0.354	-0.308
-694.441	117.026	-0.056	0.070
-693.426	59.129	-0.265	0.264
-692.412	33.587	-0.077	-0.068
-691.397	-200.000	0.057	-0.287
-690.383	-120.961	0.538	-0.092
-689.368	378.110	-0.138	-0.286
-688.354	-124.563	-0.335	-0.053
-687.339	-88.842	0.144	-0.043
-686.324	-113.485	-0.165	-0.033
-685.310	78.980	0.187	-0.203
-684.295	38.999	0.282	-0.255
-683.281	800.000	-0.103	0.299
-682.266	48.141	-0.168	-0.159
-681.251	527.559	0.051	-0.121
-680.237	-195.690	-0.115	-0.001
-679.222	-200.000	-0.003	-0.202
-678.208	-200.000	-0.041	0.209
-677.193	41.864	0.071	-0.065
-676.178	214.536	-0.219	-0.352
-675.164	-137.494	-0.398	0.046
-674.149	800.000	-0.075	0.285
-673.135	800.000	-0.014	-0.042
-672.120	-82.386	0.374	-0.123
-671.105	-200.000	0.005	-0.101
-670.091	-187.757	0.261	0.003
-669.076	-134.828	0.055	0.007
-668.062	-92.147	-0.415	0.119
-667.047	56.737	-0.086	0.085
-666.032	8.948	-0.314	0.240
-665.018	349.666	-0.171	0.342
-664.003	-99.846	-0.146	-0.037
-662.989	-200.000	0.015	-0.223
-661.974	51.149	-0.174	-0.167
-660.959	800.000	-0.056	0.172
-659.945	-67.841	0.144	0.057
-658.930	62.797	-0.180	0.182
-657.916	-200.000	-0.007	0.206
-656.901	256.509	-0.139	0.241
-655.886	754.840	0.046	-0.127
-654.872	-67.173	-0.214	0.085
-653.857	-200.000	0.033	-0.169
-652.843	109.815	0.225	0.273
-651.828	-123.999	0.215	-0.034
-650.814	112.740	-0.247	0.302
-649.799	-153.531	0.358	-0.025
-648.784	-200.000	0.010	0.135
-647.770	-117.860	-0.167	-0.030
-646.755	-107.904	-0.177	-0.039
-645.741	-139.279	-0.338	-0.037
-644.726	-200.000	0.011	-0.148
-643.711	47.162	-0.438	-0.412
-642.697	800.000	0.099	0.318
-641.682	278.608	0.174	-0.313
-640.668	375.756	0.019	-0.039
-639.653	800.000	-0.032	0.141
-638.638	267.660	0.179	-0.317
-637.624	-27.907	0.249	0.146
-636.609	-158.396	-0.485	0.028
-635.595	-50.456	-0.269	-0.128
-634.580	87.962	-0.134	0.150
-633.565	-72.059	0.282	-0.106
-632.551	99.461	-0.130	0.151
-631.536	-112.858	-0.259	-0.052
-630.522	-94.546	-0.130	0.036
-629.507	800.000	0.014	-0.044
-628.492	-116.930	0.036	0.007
-627.478	-96.086	-0.435	-0.117
-626.463	800.000	0.092	-0.320
-625.449	-46.749	-0.218	0.108
-624.434	-26.767	0.067	-0.039
-623.419	120.669	0.200	-0.251
-622.405	-89.187	-0.393	-0.117
-621.390	800.000	0.008	-0.023
-620.376	-141.609	-0.166	0.017
-619.361	181.409	0.067	-0.099
-618.346	-34.498	-0.192	-0.106
-617.332	252.783	0.107	-0.184
-616.317	-200.000	0.000	0.050
-615.303	40.350	0.305	-0.277
-614.288	-128.546	-0.339	0.049
-613.273	68.742	-0.073	-0.076
-612.259	-200.000	-0.049	-0.280
-611.244	-65.873	0.192	-0.077
-610.230	-7.067	-0.046	0.031
-609.215	42.063	-0.078	-0.072
-608.201	54.599	0.135	0.131
-607.186	425.085	-0.028	-0.062
-606.171	82.311	-0.024	0.026
-605.157	119.410	0.134	-0.167
-604.142	-200.000	-0.074	-0.409
-603.128	-65.616	0.186	-0.075
-602.113	578.220	-0.121	-0.300
-601.098	-113.183	-0.379	0.075
-600.084	-158.884	-0.169	0.010
-599.069	208.125	-0.026	-0.041
-598.055	-105.984	-0.412	0.094
-597.040	-49.620	-0.053	0.026
-596.025	-107.370	-0.234	-0.052
-595.011	800.000	-0.014	-0.038
-593.996	159.699	-0.355	0.498
-592.982	221.294	0.031	0.050
-591.967	7.190	0.174	0.131
-590.952	800.000	0.057	0.246
-589.938	800.000	0.070	-0.198
-588.923	-118.902	-0.271	-0.048
-587.909	-185.582	0.092	0.001
-586.894	209.459	-0.085	-0.134
-585.879	37.818	0.273	0.245
-584.865	-200.000	-0.005	0.268
-583.850	-138.991	0.117	-0.013
-582.836	-11.981	0.141	0.093
-581.821	660.483	-0.055	-0.144
-580.806	-92.843	0.174	-0.049
-579.792	800.000	-0.101	-0.286
-578.777	340.825	-0.091	-0.179
-577.763	-17.601	0.110	0.070
-576.748	449.786	-0.117	0.259
-575.733	394.118	0.116	-0.243
-574.719	-22.417	-0.139	-0.085
-573.704	-81.655	0.381	0.126
-572.690	-200.000	-0.034	-0.277
-571.675	800.000	0.105	0.346
-570.661	-200.000	0.027	0.286
-569.646	-200.000	0.005	0.113
-568.631	-3.417	0.189	-0.133
-567.617	800.000	-0.024	0.084
-566.602	-82.863	-0.150	-0.049
-565.588	62.806	0.284	0.287
-564.573	-138.539	0.076	-0.008
-563.558	-119.367	0.154	-0.027
-562.544	-139.444	0.151	-0.016
-561.529	223.947	-0.131	0.213
-560.515	800.000	0.051	0.142
-559.500	-150.935	0.321	-0.024
-558.485	-18.528	-0.295	0.186
-557.471	-171.851	0.246	-0.008
-556.456	-165.932	-0.212	-0.009
-555.442	-200.000	0.035	-0.259
-554.427	-200.000	-0.035	0.357
-553.412	800.000	0.071	0.212
-552.398	-82.916	0.043	0.014
-551.383	-123.605	0.224	0.036
-550.369	-200.000	-0.025	-0.247
-549.354	-200.000	-0.073	-0.352
-548.339	-200.000	-0.028	-0.221
-547.325	800.000	0.030	-0.120
-546.310	-7.926	0.092	0.062
-545.296	272.418	0.136	-0.241
-544.281	459.084	0.034	-0.077
-543.266	800.000	-0.047	0.146
-542.252	132.277	-0.065	0.085
-541.237	-108.130	0.193	0.042
-540.223	364.523	0.031	-0.062
-539.208	-200.000	-0.033	-0.416
-538.193	-116.352	0.222	-0.041
-537.179	-38.167	-0.136	0.072
-536.164	-30.488	0.250	0.143
-535.150	102.229	0.070	0.082
-534.135	-77.846	-0.108	0.038
-533.121	-124.583	-0.151	0.024
-532.106	-43.003	0.233	-0.119
-531.091	101.745	-0.058	0.069
-530.077	134.786	0.188	-0.245
-529.062	-64.703	-0.099	0.040
-528.048	245.775	-0.042	-0.072
-527.033	-153.336	-0.183	-0.013
-526.018	306.792	-0.048	-0.090
-525.004	139.610	-0.102	0.135
-523.989	731.297	-0.024	0.065
-522.975	16.051	-0.327	0.259
-521.960	60.063	-0.274	0.272
-520.945	28.428	-0.126	0.107
-519.931	-52.065	-0.138	0.065
-518.916	-32.464	0.108	-0.060
-517.902	81.774	-0.058	-0.063
-516.887	-54.078	-0.266	-0.122
-515.872	-129.076	0.208	0.029
-514.858	51.055	0.242	-0.231
-513.843	-16.697	-0.170	-0.108
-512.829	-20.240	-0.270	-0.167
-511.814	-143.032	-0.300	0.029
-510.799	776.126	0.120	0.329
-509.785	-61.064	0.260	0.111
-508.770	193.934	0.037	0.057
-507.756	800.000	0.063	0.209
-506.741	-127.506	0.336	-0.049
-505.726	24.400	-0.156	0.130
-504.712	-200.000	0.010	0.233
-503.697	293.572	-0.105	-0.192
-502.683	-177.320	0.416	0.010
-501.668	505.420	0.034	-0.079
-500.653	146.459	0.299	-0.403
-499.639	127.651	0.051	-0.065
-498.624	-200.000	0.023	0.138
-497.610	-200.000	0.034	-0.156
-496.595	554.508	0.179	-0.434
-495.581	-130.342	-0.194	-0.026
-494.566	292.933	0.048	0.088
-493.551	-200.000	-0.175	-0.001
-492.537	-77.101	0.130	-0.046
-491.522	800.000	-0.120	-0.377
-490.508	-76.254	0.111	-0.039
-489.493	122.345	0.094	-0.118
-488.478	800.000	0.040	0.147
-487.464	-67.494	0.129	-0.051
-486.449	-125.369	0.195	0.030
-485.435	167.754	-0.012	0.018
-484.420	-200.000	0.036	-0.384
-483.405	88.815	0.138	0.154
-482.391	548.094	0.020	0.047
-481.376	319.621	0.149	-0.284
-480.362	81.019	0.164	-0.177
-479.347	-79.402	0.175	-0.059
-478.332	115.817	-0.072	0.088
-477.318	-171.515	-0.181	-0.006
-476.303	-163.658	-0.064	-0.003
-475.289	-115.342	-0.130	-0.025
-474.274	-101.111	0.189	-0.047
-473.259	-164.179	-0.405	0.019
-472.245	501.440	0.158	0.365
-471.230	40.521	-0.158	0.143
-470.216	-109.701	0.104	-0.022
-469.201	-50.851	0.320	-0.151
-468.186	-150.031	0.239	-0.019
-467.172	70.348	-0.109	0.113
-466.157	-200.000	0.033	-0.189
-465.143	-36.266	0.294	-0.159
-464.128	627.413	0.106	0.268
-463.113	270.317	-0.147	-0.259
-462.099	800.000	0.046	-0.140
-461.084	-16.534	-0.146	0.093
-460.070	-53.068	-0.196	0.091
-459.055	-200.000	0.014	0.171
-458.040	-105.422	0.214	0.049
-457.026	65.002	-0.213	0.216
-456.011	730.239	-0.037	-0.100
-454.997	-34.041	-0.386	-0.213
-453.982	-127.831	-0.226	-0.033
-452.968	-166.845	0.474	-0.020
-451.953	-64.867	0.207	-0.084
-450.938	202.522	-0.218	0.337
-449.924	-155.816	-0.358	-0.023
-448.909	-39.942	0.030	0.016
-447.895	105.313	-0.078	-0.093
-446.880	-171.226	0.104	-0.004
-445.865	-9.305	-0.045	-0.030
-444.851	-4.823	0.083	-0.057
-443.836	-124.178	0.104	-0.016
-442.822	10.364	0.182	-0.139
-441.807	-200.000	-0.032	0.213
-440.792	-176.933	0.243	0.006
-439.778	-160.366	-0.183	0.010
-438.763	-200.000	-0.031	0.167
-437.749	68.529	-0.306	-0.315
-436.734	-14.653	-0.177	-0.114
-435.719	800.000	-0.063	-0.265
-434.705	-51.013	-0.049	-0.023
-433.690	-200.000	0.023	0.158
-432.676	85.334	-0.170	-0.187
-431.661	-6.213	-0.078	-0.053
-430.646	196.198	0.220	0.336
-429.632	60.458	-0.230	0.228
-428.617	-35.401	-0.236	-0.129
-427.603	676.262	0.155	-0.403
-426.588	-200.000	0.010	0.127
-425.573	-200.000	-0.054	-0.237
-424.559	-70.177	-0.465	-0.177
-423.544	-144.984	0.218	0.020
-422.530	150.123	-0.075	-0.102
-421.515	503.060	-0.117	0.272
-420.500	-200.000	0.010	-0.076
-419.486	-148.414	0.355	-0.029
-418.471	95.956	0.330	0.378
-417.457	-27.560	0.106	-0.062
-416.442	245.649	-0.137	-0.231
-415.428	-200.000	0.071	-0.453
-414.413	-189.989	0.260	-0.003
-413.398	92.242	-0.056	-0.063
-412.384	35.246	0.318	0.279
-411.369	-200.000	-0.003	0.094
-410.355	30.506	0.244	0.209
-409.340	74.409	-0.133	0.140
-408.325	104.128	0.107	0.126
-407.311	-200.000	0.018	-0.104
-406.296	-41.931	0.210	-0.108
-405.282	13.975	0.083	-0.065
-404.267	296.881	-0.085	-0.156
-403.252	-139.900	-0.462	-0.049
-402.238	800.000	0.022	-0.062
-401.223	541.915	-0.075	-0.180
-400.209	-88.769	0.291	0.087
-399.194	-32.917	-0.153	0.085
-398.179	-59.089	-0.125	0.054
-397.165	163.976	-0.077	0.109
-396.150	377.662	0.192	0.393
-395.136	800.000	0.107	0.310
-394.121	485.246	-0.109	-0.249
-393.106	67.010	0.275	0.280
-392.092	800.000	0.046	0.182
-391.077	249.810	-0.091	-0.154
-390.063	464.338	0.104	0.232
-389.048	329.424	-0.065	-0.125
-388.033	-129.367	-0.059	0.008
-387.019	-200.000	-0.034	-0.242
-386.004	309.862	-0.062	0.116
-384.990	189.820	-0.087	0.131
-383.975	-200.000	-0.010	0.144
-382.960	-197.468	-0.346	-0.002
-381.946	14.027	0.117	0.091
-380.931	165.424	-0.039	-0.054
-379.917	800.000	0.014	-0.058
-378.902	22.733	0.146	0.120
-377.888	81.951	-0.188	-0.203
-376.873	-87.001	-0.234	-0.071
-375.858	-7.064	-0.066	-0.045
-374.844	-39.969	0.160	0.084
-373.829	-200.000	0.011	0.084
-372.815	139.583	-0.122	0.161
-371.800	-200.000	-0.052	-0.255
-370.785	-132.411	0.362	-0.047
-369.771	41.513	0.090	-0.082
-368.756	800.000	-0.073	0.212
-367.742	112.803	0.020	0.024
-366.727	-182.597	0.191	0.003
-365.712	-168.356	-0.233	0.009
-364.698	37.317	0.204	-0.181
-363.683	-200.000	0.004	0.166
-362.669	800.000	-0.001	-0.005
-361.654	800.000	-0.123	0.412
-360.639	-200.000	-0.055	-0.320
-359.625	-122.554	0.265	-0.043
-358.610	171.930	-0.198	0.285
-357.596	71.072	0.282	-0.292
-356.581	-50.321	0.344	0.163
-355.566	103.694	0.136	-0.160
-354.552	-43.872	-0.251	0.126
-353.537	80.390	-0.250	-0.269
-352.523	58.489	-0.330	0.323
-351.508	-15.438	-0.242	-0.154
-350.493	800.000	0.065	-0.242
-349.479	-200.000	0.112	-0.000
-348.464	-97.530	0.195	-0.051
-347.450	-139.334	0.286	-0.031
-346.435	-200.000	-0.006	-0.030
-345.420	53.203	0.228	0.218
-344.406	-95.850	0.149	0.040
-343.391	800.000	0.069	0.236
-342.377	79.402	-0.138	0.148
-341.362	61.747	-0.032	-0.032
-340.348	-100.821	-0.215	-0.053
-339.333	-27.064	0.038	-0.022
-338.318	800.000	0.076	0.220
-337.304	-200.000	-0.035	0.189
-336.289	-84.396	0.241	-0.076
-335.275	130.413	0.106	0.135
-334.260	-200.000	-0.001	0.011
-333.245	-104.839	0.294	0.067
-332.231	2.624	0.111	-0.080
-331.216	8.312	0.160	-0.120
-330.202	53.781	0.070	0.067
-329.187	800.000	0.036	0.156
-328.172	-190.000	0.232	0.003
-327.158	-200.000	0.004	0.128
-326.143	-200.000	0.008	0.078
-325.129	377.572	0.108	-0.220
-324.114	153.425	-0.043	-0.058
-323.099	271.435	0.098	-0.172
-322.085	-200.000	0.038	0.193
-321.070	227.612	-0.074	-0.120
-320.056	347.231	-0.128	-0.252
-319.041	-168.492	-0.505	-0.019
-318.026	-87.438	-0.116	-0.035
-317.012	-18.326	0.263	0.164
-315.997	636.803	-0.028	-0.071
-314.983	-119.935	0.107	0.018
-313.968	790.579	0.069	0.190
-312.953	-87.829	-0.440	0.132
-311.939	-116.059	0.236	-0.044
-310.924	800.000	-0.064	0.195
-309.910	395.971	-0.052	0.109
-308.895	-200.000	0.114	0.511
-307.880	-15.519	0.120	0.077
-306.866	-74.091	-0.283	-0.102
-305.851	-200.000	0.044	0.205
-304.837	-124.830	0.223	-0.034
-303.822	33.173	0.257	0.222
-302.807	800.000	0.211	0.651
-301.793	258.322	-0.082	-0.140
-300.778	-200.000	0.029	-0.198
-299.764	65.451	-0.212	-0.214
-298.749	-200.000	0.001	-0.027
-297.735	42.772	0.039	0.036
-296.720	-157.843	-0.261	-0.015
-295.705	486.110	-0.088	-0.201
-294.691	42.249	0.110	-0.099
-293.676	-149.808	0.149	0.012
-292.662	-31.201	0.180	-0.101
-291.647	-200.000	-0.008	0.181
-290.632	-26.140	0.220	-0.129
-289.618	-95.593	0.262	0.070
-288.603	60.338	0.093	-0.092
-287.589	-200.000	-0.032	0.329
-286.574	614.411	-0.147	0.368
-285.559	-21.943	-0.157	0.095
-284.545	40.085	0.185	-0.165
-283.530	125.258	-0.254	0.319
-282.516	548.614	-0.163	0.389
-281.501	21.414	0.170	0.138
-280.486	-170.496	-0.147	0.005
-279.472	-200.000	-0.024	0.124
-278.457	-21.025	-0.124	-0.076
-277.443	-155.112	-0.224	0.015
-276.428	-61.630	0.232	-0.097
-275.413	-35.856	-0.117	-0.063
-274.399	591.932	0.096	-0.235
-273.384	270.584	0.060	-0.104
-272.370	-7.081	0.191	-0.129
-271.355	287.451	-0.182	-0.327
-270.340	535.167	0.061	0.143
-269.326	800.000	-0.040	-0.170
-268.311	-43.299	0.274	0.138
-267.297	125.841	-0.191	0.240
-266.282	-76.096	-0.435	-0.153
-265.267	-3.970	0.208	-0.143
-264.253	-197.832	0.230	0.001
-263.238	-57.021	-0.123	0.054
-262.224	9.633	0.077	0.058
-261.209	-145.261	-0.197	0.018
-260.195	-158.772	0.155	0.009
-259.180	-55.321	0.014	-0.006
-258.165	-68.866	0.053	0.020
-257.151	800.000	0.069	-0.250
-256.136	800.000	-0.099	-0.392
-255.122	64.668	-0.191	0.191
-254.107	-101.845	-0.255	-0.061
-253.092	-173.244	0.110	-0.003
-252.078	-144.962	-0.207	-0.019
-251.063	306.252	0.142	0.263
-250.049	-43.877	-0.138	-0.069
-249.034	-160.211	0.211	-0.011
-248.019	-200.000	0.011	-0.144
-247.005	800.000	-0.087	0.261
-245.990	196.727	0.076	0.115
-244.976	-142.743	-0.445	0.043
-243.961	-9.556	-0.162	0.108
-242.946	-60.378	0.130	0.055
-241.932	800.000	0.063	-0.250
-240.917	429.554	-0.184	0.396
-239.903	-152.265	-0.059	0.004
-238.888	346.319	-0.103	-0.201
-237.873	-108.628	0.091	0.019
-236.859	-200.000	0.053	0.329
-235.844	-200.000	0.026	0.275
-234.830	-121.049	0.106	0.018
-233.815	800.000	0.025	0.093
-232.800	800.000	-0.023	-0.084
-231.786	523.458	-0.035	0.082
-230.771	-12.631	-0.088	0.057
-229.757	474.794	0.066	0.147
-228.742	130.641	-0.143	-0.183
-227.727	290.565	0.051	0.092
-226.713	-157.591	-0.393	-0.023
-225.698	-200.000	-0.068	-0.464
-224.684	800.000	-0.100	-0.298
-223.669	-5.779	0.102	0.069
-222.655	8.606	0.043	0.032
-221.640	-92.318	-0.113	0.032
-220.625	-103.471	0.355	0.083
-219.611	125.749	-0.145	0.182
-218.596	-200.000	0.002	-0.207
-217.582	18.849	-0.230	-0.183
-216.567	-114.573	-0.201	-0.038
-215.552	800.000	0.040	0.139
-214.538	-22.275	-0.332	-0.200
-213.523	-85.185	0.159	0.049
-212.509	718.929	0.122	0.322
-211.494	-200.000	0.020	0.324
-210.479	-200.000	-0.030	-0.383
-209.465	334.624	0.219	0.422
-208.450	88.087	0.181	0.199
-207.436	183.896	-0.175	-0.258
-206.421	-68.224	-0.073	-0.028
-205.406	39.096	-0.273	0.242
-204.392	800.000	0.082	0.260
-203.377	247.783	0.125	0.209
-202.363	-8.073	-0.169	-0.113
-201.348	-200.000	0.026	0.196
-200.333	313.597	-0.103	-0.192
-199.319	25.403	-0.091	-0.075
-198.304	311.349	-0.123	0.229
-197.290	330.619	-0.047	0.090
-196.275	34.576	0.061	-0.053
-195.260	283.445	0.043	-0.076
-194.246	3.361	0.154	0.111
-193.231	-9.064	-0.041	-0.027
-192.217	-84.595	0.292	-0.092
-191.202	-200.000	0.039	-0.324
-190.187	-100.489	0.129	-0.032
-189.173	-92.778	-0.218	-0.061
-188.158	-110.565	0.125	0.026
-187.144	-41.616	-0.121	0.062
-186.129	-126.269	0.322	0.048
-185.114	133.668	-0.078	-0.100
-184.100	-200.000	-0.078	-0.378
-183.085	800.000	-0.037	0.147
-182.071	-129.068	0.196	0.027
-181.056	-7.834	-0.047	-0.032
-180.042	-56.796	-0.347	0.152
-179.027	-39.129	0.296	-0.155
-178.012	676.170	-0.085	0.219
-176.998	-97.987	0.346	0.089
-175.983	85.284	0.103	-0.112
-174.969	23.140	-0.051	0.041
-173.954	-9.512	-0.150	-0.099
-172.939	162.963	0.075	-0.104
-171.925	800.000	-0.066	0.226
-170.910	196.636	-0.315	0.477
-169.896	800.000	0.075	0.227
-168.881	51.083	-0.225	0.212
-167.866	-42.836	-0.231	-0.116
-166.852	233.706	0.093	-0.152
-165.837	-193.916	0.153	-0.001
-164.823	64.217	0.093	0.093
-163.808	110.451	-0.056	-0.067
-162.793	-146.757	-0.147	-0.013
-161.779	357.066	0.101	-0.201
-160.764	157.031	0.136	-0.186
-159.750	800.000	0.144	-0.528
-158.735	79.814	0.142	-0.151
-157.720	177.024	0.077	0.111
-156.706	167.985	-0.064	0.091
-155.691	-196.083	0.289	-0.002
-154.677	-139.937	-0.236	-0.025
-153.662	-200.000	0.031	-0.201
-152.647	800.000	0.052	-0.210
-151.633	-200.000	0.037	0.242
-150.618	271.440	0.085	-0.149
-149.604	796.041	-0.034	0.092
-148.589	-200.000	0.071	-0.380
-147.574	-86.115	0.230	-0.070
-146.560	-77.532	-0.239	0.082
-145.545	714.720	0.098	0.256
-144.531	158.292	0.083	0.114
-143.516	277.708	0.152	-0.268
-142.502	800.000	0.064	-0.219
-141.487	-67.010	0.323	-0.126
-140.472	-80.464	0.223	-0.074
-139.458	0.918	-0.215	-0.152
-138.443	9.889	-0.171	-0.129
-137.429	-200.000	0.009	0.159
-136.414	800.000	-0.084	0.303
-135.399	-153.530	0.166	-0.011
-134.385	155.190	-0.245	-0.334
-133.370	-36.779	-0.076	0.040
-132.356	158.404	0.065	0.089
-131.341	-178.045	0.155	0.004
-130.326	800.000	-0.089	-0.257
-129.312	189.522	0.179	0.266
-128.297	289.495	0.079	0.142
-127.283	-137.625	0.303	-0.034
-126.268	-200.000	-0.003	-0.074
-125.253	-77.052	-0.118	0.041
-124.239	359.718	0.088	0.175
-123.224	-85.526	0.360	0.111
-122.210	-70.527	0.164	-0.062
-121.195	-92.210	0.320	0.089
-120.180	-200.000	-0.076	0.446
-119.166	-134.869	-0.180	-0.022
-118.151	-7.903	-0.261	0.175
-117.137	551.595	-0.094	0.223
-116.122	596.118	0.079	0.193
-115.107	96.652	0.267	0.303
-114.093	376.987	-0.131	0.264
-113.078	73.813	0.190	0.198
-112.064	164.248	0.240	-0.335
-111.049	362.340	-0.055	0.109
-110.034	800.000	0.111	0.329
-109.020	514.645	0.070	0.161
-108.005	-97.558	-0.270	-0.069
-106.991	-200.000	0.027	-0.200
-105.976	800.000	-0.077	-0.250
-104.962	-200.000	-0.028	-0.182
-103.947	8.220	-0.061	-0.045
-102.932	-74.981	-0.106	0.038
-101.918	-76.819	0.438	0.152
-100.903	-105.829	0.202	0.045
-99.889	-137.108	-0.384	-0.043
-98.874	168.307	0.085	-0.120
-97.859	-200.000	-0.022	-0.117
-96.845	-200.000	0.024	-0.151
-95.830	-74.081	-0.219	-0.079
-94.816	-178.716	-0.102	0.002
-93.801	-19.489	-0.106	-0.065
-92.786	-200.000	0.019	0.321
-91.772	-200.000	-0.008	0.085
-90.757	-59.468	-0.107	-0.046
-89.743	-163.948	0.118	-0.005
-88.728	-80.121	-0.286	0.095
-87.713	-38.339	-0.278	0.146
-86.699	-80.456	0.300	-0.099
-85.684	85.443	-0.179	0.194
-84.670	-11.921	-0.149	0.097
-83.655	-170.040	0.172	-0.006
-82.640	-103.603	0.245	-0.057
-81.626	800.000	0.110	-0.341
-80.611	800.000	-0.069	-0.282
-79.597	468.621	0.115	-0.255
-78.582	-66.530	0.250	-0.098
-77.567	800.000	0.080	0.255
-76.553	99.370	0.035	0.040
-75.538	-55.085	-0.176	0.078
-74.524	-29.019	-0.044	0.025
-73.509	-162.962	0.199	0.010
-72.494	-55.051	-0.132	0.059
-71.480	-9.969	0.234	0.154
-70.465	18.200	-0.053	0.042
-69.451	90.432	-0.021	-0.023
-68.436	117.163	0.146	0.177
-67.422	63.934	-0.198	0.197
-66.407	-74.656	0.373	0.132
-65.392	-103.972	-0.153	-0.035
-64.378	-5.682	-0.094	-0.064
-63.363	286.990	0.061	0.109
-62.349	800.000	0.116	0.369
-61.334	-17.170	-0.911	-0.568
-60.319	182.515	0.392	0.571
-59.305	-200.000	-0.035	-0.702
-58.290	800.000	0.431	1.301
-57.276	800.000	0.547	1.508
-56.261	-200.000	95.392	541.658
-55.246	489.720	1429.392	3228.418
-54.232	144.049	2652.989	3495.400
-53.217	108.069	2245.307	2644.033
-52.203	44.174	1767.282	1601.226
-51.188	37.063	1575.777	1377.388
-50.173	34.731	1548.819	1337.466
-49.159	52.254	1598.018	1505.011
-48.144	54.823	1616.572	1540.715
-47.130	37.523	1572.991	1377.991
-46.115	34.284	1558.176	1342.186
-45.100	34.214	1554.473	1338.449
-44.086	34.156	1552.337	1336.152
-43.071	34.114	1550.660	1334.356
-42.057	34.120	1549.293	1333.169
-41.042	34.140	1547.861	1332.023
-40.027	34.161	1545.914	1330.443
-39.013	34.172	1544.396	1329.161
-37.998	34.165	1543.247	1328.073
-36.984	34.115	1542.119	1326.699
-35.969	34.168	1540.672	1325.768
-34.954	34.123	1539.322	1324.245
-33.940	34.221	1537.509	1323.314
-32.925	34.194	1536.077	1321.840
-31.911	34.093	1535.217	1320.343
-30.896	34.198	1533.330	1319.398
-29.881	34.203	1532.193	1318.402
-28.867	34.172	1530.842	1316.971
-27.852	34.113	1530.001	1315.790
-26.838	34.173	1528.259	1314.652
-25.823	34.193	1526.596	1313.309
-24.809	34.170	1524.793	1311.547
-23.794	34.167	1523.523	1310.379
-22.779	34.137	1522.353	1309.119
-21.765	34.273	1521.088	1308.914
-20.750	34.190	1520.235	1307.553
-19.736	34.096	1518.942	1305.745
-18.721	34.126	1517.876	1304.985
-17.706	34.113	1517.258	1304.309
-16.692	34.027	1515.780	1302.403
-15.677	34.131	1514.935	1302.337
-14.663	34.101	1513.987	1301.261
-13.648	34.122	1513.154	1300.640
-12.633	34.024	1512.044	1298.966
-11.619	34.060	1511.108	1298.355
-10.604	34.016	1510.074	1297.117
-9.590	33.989	1509.482	1296.369
-8.575	34.099	1508.399	1296.139
-7.560	34.114	1507.481	1295.402
-6.546	34.146	1506.389	1294.629
-5.531	34.091	1505.556	1293.484
-4.517	34.094	1503.859	1291.995
-3.502	33.958	1503.196	1290.452
-2.487	33.999	1502.266	1289.883
-1.473	34.029	1501.769	1289.610
-0.458	34.090	1499.990	1288.442
0.556	33.032	1490.576	1278.306
1.571	29.857	1463.370	1233.733
2.586	25.809	1398.334	1152.947
3.600	23.542	1311.315	1067.480
4.615	21.564	1263.271	1016.800
5.629	18.356	1206.066	952.849
6.644	9.552	1116.644	836.578
7.659	2.143	1072.956	766.687
8.673	0.770	1067.110	755.589
9.688	0.596	1064.536	752.830
10.702	0.510	1063.152	751.359
11.717	0.543	1060.887	749.855
12.731	3.238	1064.028	765.422
13.746	11.735	1075.402	816.083
14.761	17.358	1082.494	849.557
15.775	17.534	1081.732	849.766
16.790	16.890	1079.630	844.830
17.804	15.899	1077.546	838.194
18.819	15.098	1076.139	833.041
19.834	14.501	1074.209	828.508
20.848	14.087	1073.459	825.797
21.863	13.986	1072.255	824.299
22.877	13.729	1071.896	822.674
23.892	13.533	1070.942	820.900
24.907	13.471	1070.004	819.801
25.921	13.479	1069.146	819.108
26.936	13.481	1068.579	818.615
27.950	13.500	1068.124	818.288
28.965	13.589	1067.052	817.834
29.980	13.710	1065.824	817.413
30.994	13.641	1065.336	816.630
32.009	13.741	1064.130	816.121
33.023	13.767	1063.469	815.673
34.038	13.683	1062.878	814.733
35.053	13.677	1061.958	813.930
36.067	13.626	1061.264	813.073
37.082	13.680	1059.936	812.249
38.096	13.642	1059.524	811.677
39.111	13.649	1058.850	811.122
40.126	13.793	1057.804	810.953
41.140	13.597	1057.003	809.311
42.155	13.591	1056.174	808.572
43.169	13.535	1055.337	807.585
44.184	13.497	1054.254	806.504
45.199	13.421	1053.215	805.265
46.213	13.404	1052.009	804.193
47.228	13.501	1050.713	803.602
48.242	13.423	1050.044	802.638
49.257	13.477	1049.438	802.366
50.271	13.524	1048.086	801.487
51.286	13.651	1046.935	801.153
52.301	13.612	1046.469	800.536
53.315	13.606	1045.688	799.838
54.330	13.547	1044.768	798.778
55.344	13.457	1043.987	797.676
56.359	13.524	1042.794	797.020
57.374	13.546	1042.108	796.530
58.388	13.488	1041.300	795.562
59.403	13.542	1040.210	794.920
60.417	13.437	1039.759	793.999
61.432	13.426	1038.923	793.238
62.447	13.442	1038.590	792.992
63.461	13.373	1038.071	792.196
64.476	13.438	1036.748	791.425
65.490	13.350	1035.996	790.359
66.505	13.411	1035.048	789.861
67.520	13.436	1034.084	789.170
68.534	13.419	1033.311	788.430
69.549	13.504	1032.540	788.178
70.563	13.484	1031.610	787.305
71.578	13.481	1030.992	786.746
72.593	13.356	1030.293	785.552
73.607	13.220	1029.437	784.186
74.622	13.356	1028.288	783.882
75.636	13.455	1027.509	783.688
76.651	13.234	1027.083	782.251
77.666	13.361	1026.395	782.258
78.680	13.429	1025.363	781.724
79.695	13.366	1024.824	780.946
80.709	13.513	1023.882	780.852
81.724	13.563	1023.126	780.442
82.739	13.441	1022.775	779.531
83.753	13.322	1022.102	778.388
84.768	13.501	1021.160	778.442
85.782	13.534	1020.097	777.720
86.797	13.653	1019.441	777.706
87.812	13.632	1018.858	777.095
88.826	13.657	1017.762	776.310
89.841	13.626	1016.918	775.452
90.855	13.684	1015.863	774.847
91.870	13.632	1015.283	774.093
92.884	13.600	1014.736	773.458
93.899	13.548	1014.066	772.636
94.914	13.694	1013.160	772.561
95.928	13.744	1011.926	771.783
96.943	13.603	1011.615	770.820
97.957	13.715	1010.432	770.374
98.972	13.620	1009.821	769.397
99.987	13.575	1009.572	768.930
101.001	13.702	1008.186	768.396
102.016	13.647	1007.700	767.705
103.030	13.605	1006.782	766.740
104.045	13.686	1006.017	766.467
105.060	13.653	1004.921	765.411
106.074	13.649	1004.099	764.699
107.089	13.539	1003.362	763.560
108.103	13.527	1002.578	762.844
109.118	13.394	1001.490	761.335
110.133	13.449	1000.735	760.948
111.147	13.476	999.971	760.422
112.162	13.445	999.209	759.635
113.176	13.507	998.221	759.100
114.191	13.548	997.244	758.479
115.206	13.560	996.436	757.849
116.220	13.645	995.707	757.618
117.235	13.624	994.789	756.755
118.249	13.564	994.070	755.868
119.264	13.528	993.516	755.217
120.279	13.599	992.007	754.326
121.293	13.618	991.427	753.903
122.308	13.598	990.637	753.146
123.322	13.539	989.623	752.039
124.337	13.572	988.699	751.423
125.352	13.515	987.692	750.329
126.366	13.677	986.239	749.892
127.381	13.582	985.208	748.614
128.395	13.660	984.472	748.340
129.410	13.596	983.611	747.333
130.424	13.543	982.688	746.323
131.439	13.547	981.764	745.576
132.454	13.722	980.614	745.424
133.468	13.583	980.090	744.333
134.483	13.651	979.224	743.918
135.497	13.544	979.083	743.265
136.512	13.642	977.485	742.424
137.527	13.680	976.697	741.928
138.541	13.596	976.081	741.019
139.556	13.703	975.152	740.727
140.570	13.613	974.595	739.838
141.585	13.655	974.022	739.522
142.600	13.684	973.074	738.868
143.614	13.667	972.591	738.360
144.629	13.692	971.478	737.561
145.643	13.643	971.139	737.020
146.658	13.901	969.855	737.126
147.673	13.723	968.882	735.532
148.687	13.822	967.900	735.161
149.702	13.865	967.020	734.619
150.716	13.643	966.621	733.268
151.731	13.603	965.296	732.018
152.746	13.753	964.757	732.209
153.760	13.810	963.781	731.653
154.775	13.702	963.016	730.533
155.789	13.766	962.525	730.377
156.804	13.756	961.848	729.754
157.819	13.854	960.574	729.153
158.833	13.816	960.256	728.682
159.848	13.779	959.691	728.026
160.862	13.897	958.271	727.404
161.877	13.768	957.999	726.566
162.892	13.861	956.732	725.948
163.906	13.795	956.403	725.347
164.921	13.707	955.476	724.192
165.935	13.824	954.072	723.575
166.950	13.830	953.027	722.745
167.964	13.789	952.509	722.110
168.979	13.936	951.496	721.918
169.994	13.872	950.340	720.697
171.008	13.779	949.736	719.773
172.023	13.885	948.823	719.476
173.037	13.864	948.192	718.842
174.052	13.969	947.005	718.333
175.067	13.854	946.917	717.709
176.081	13.913	946.147	717.315
177.096	13.968	945.155	716.734
178.110	13.871	944.465	715.730
179.125	13.921	943.785	715.368
180.140	13.894	942.908	714.524
181.154	13.977	942.270	714.332
182.169	14.033	941.517	713.940
183.183	14.133	940.511	713.544
184.198	14.069	939.952	712.782
185.213	14.080	939.571	712.478
186.227	14.046	938.878	711.745
187.242	14.231	938.057	711.848
188.256	14.175	937.676	711.259
189.271	14.117	936.983	710.421
190.286	14.258	935.986	710.203
191.300	14.097	935.518	709.098
192.315	14.015	934.857	708.187
193.329	13.947	934.291	707.407
194.344	13.963	933.214	706.595
195.359	13.943	932.960	706.255
196.373	14.089	932.036	706.112
197.388	14.260	931.412	706.303
198.402	14.193	930.970	705.621
199.417	14.290	930.593	705.686
200.432	14.317	930.200	705.439
201.446	14.217	930.312	705.040
202.461	14.374	929.350	704.909
203.475	14.374	928.769	704.408
204.490	14.478	928.156	704.320
205.504	14.317	927.589	703.146
206.519	14.359	926.462	702.410
207.534	14.312	925.934	701.750
208.548	14.160	925.141	700.444
209.563	14.284	924.515	700.431
210.577	14.373	923.817	700.213
211.592	14.425	922.915	699.687
212.607	14.522	922.145	699.450
213.621	14.474	921.614	698.784
214.636	14.460	921.135	698.300
215.650	14.447	920.414	697.636
216.665	14.536	919.362	697.147
217.680	14.491	919.464	696.977
218.694	14.555	919.395	697.129
219.709	14.562	918.384	696.330
220.723	14.555	917.655	695.688
221.738	14.508	916.946	694.890
222.753	14.458	916.050	693.943
223.767	14.630	915.402	694.107
224.782	14.549	914.632	693.126
225.796	14.698	913.896	693.126
226.811	14.753	913.130	692.710
227.826	14.768	912.585	692.296
228.840	14.788	911.633	691.595
229.855	14.717	911.497	691.138
230.869	14.725	910.474	690.335
231.884	14.590	909.985	689.346
232.899	14.701	908.993	688.990
233.913	14.720	908.406	688.563
234.928	14.743	907.668	688.037
235.942	14.680	907.155	687.330
236.957	14.685	906.118	686.501
237.972	14.647	905.786	686.035
238.986	14.685	905.055	685.577
240.001	14.771	904.041	685.098
241.015	14.816	903.117	684.523
242.030	14.813	902.688	684.127
243.045	14.804	902.252	683.696
244.059	14.824	901.682	683.286
245.074	14.768	901.010	682.489
246.088	14.837	900.427	682.268
247.103	14.957	899.665	682.119
248.117	14.918	899.050	681.436
249.132	14.914	898.738	681.119
250.147	15.097	898.205	681.403
251.161	15.061	897.249	680.469
252.176	15.117	896.732	680.246
253.190	15.139	896.032	679.744
254.205	15.108	895.319	679.017
255.220	15.110	894.973	678.700
256.234	15.142	894.062	678.081
257.249	15.141	893.803	677.820
258.263	15.071	893.072	676.923
259.278	15.281	892.130	676.997
260.293	15.047	892.111	675.979
261.307	15.204	891.292	675.932
262.322	15.280	890.739	675.759
263.336	15.168	890.516	675.076
264.351	15.351	889.387	674.897
265.366	15.384	889.043	674.712
266.380	15.215	888.180	673.315
267.395	15.475	887.223	673.577
268.409	15.363	886.973	672.878
269.424	15.393	886.014	672.210
270.439	15.380	885.303	671.557
271.453	15.404	884.226	670.776
272.468	15.410	883.390	670.110
273.482	15.409	883.031	669.774
274.497	15.404	882.563	669.339
275.512	15.394	881.884	668.724
276.526	15.405	881.322	668.285
277.541	15.416	880.624	667.737
278.555	15.580	879.561	667.524
279.570	15.453	879.434	666.866
280.585	15.554	878.965	666.852
281.599	15.681	878.162	666.686
282.614	15.534	877.632	665.645
283.628	15.583	876.834	665.172
284.643	15.500	876.677	664.668
285.657	15.696	876.216	665.032
286.672	15.721	875.550	664.569
287.687	15.523	875.023	663.327
288.701	15.645	874.319	663.214
289.716	15.680	873.979	663.036
290.730	15.573	873.741	662.375
291.745	15.549	872.835	661.537
292.760	15.645	871.461	660.813
293.774	15.691	871.278	660.797
294.789	15.770	870.631	660.558
295.803	15.924	869.731	660.420
296.818	15.899	869.014	659.719
297.833	15.752	868.619	658.786
298.847	15.821	868.187	658.670
299.862	15.681	867.752	657.734
300.876	15.747	866.555	657.027
301.891	15.838	866.140	657.010
302.906	15.866	865.577	656.633
303.920	15.912	864.637	656.043
304.935	15.962	863.979	655.677
305.949	15.960	863.636	655.351
306.964	16.029	862.883	654.992
307.979	15.992	862.036	654.147
308.993	16.106	861.480	654.111
310.008	16.181	861.023	653.996
311.022	16.102	860.532	653.259
312.037	16.212	859.988	653.214
313.052	16.180	859.733	652.837
314.066	16.073	859.054	651.849
315.081	16.068	858.116	651.061
316.095	15.888	858.194	650.368
317.110	16.007	857.441	650.201
318.125	15.957	857.002	649.618
319.139	15.994	856.591	649.390
320.154	15.993	855.907	648.812
321.168	16.104	854.730	648.287
322.183	16.188	854.279	648.209
323.197	16.127	854.045	647.741
324.212	16.068	853.372	646.948
325.227	16.219	852.541	646.840
326.241	16.088	852.530	646.271
327.256	16.123	851.919	645.883
328.270	16.123	850.918	645.069
329.285	16.287	850.792	645.544
330.300	16.275	849.948	644.799
331.314	16.265	849.461	644.336
332.329	16.427	848.562	644.213
333.343	16.330	847.934	643.310
334.358	16.282	847.440	642.695
335.373	16.249	847.171	642.310
336.387	16.360	846.594	642.238
337.402	16.396	846.014	641.878
338.416	16.225	845.741	640.963
339.431	16.608	844.469	641.395
340.446	16.528	843.697	640.451
341.460	16.388	843.673	639.845
342.475	16.359	843.276	639.376
343.489	16.586	842.735	639.769
344.504	16.710	841.719	639.409
345.519	16.700	841.248	638.956
346.533	16.676	840.578	638.302
347.548	16.530	840.797	637.860
348.562	16.536	840.268	637.425
349.577	16.634	839.245	636.962
350.592	16.492	839.014	636.194
351.606	16.680	838.535	636.484
352.621	16.580	838.162	635.769
353.635	16.567	837.494	635.156
354.650	16.712	837.213	635.431
355.665	16.744	836.331	634.826
356.679	16.631	836.298	634.321
357.694	16.699	835.403	633.841
358.708	16.724	834.672	633.324
359.723	16.673	834.210	632.725
360.738	16.696	833.790	632.436
361.752	16.674	833.622	632.170
362.767	16.769	833.004	632.003
363.781	16.720	832.605	631.459
364.796	16.917	832.051	631.719
365.810	16.789	831.701	630.919
366.825	16.742	831.404	630.465
367.840	17.021	830.739	630.942
368.854	16.954	830.595	630.528
369.869	16.838	830.119	629.680
370.883	16.964	828.994	629.236
371.898	17.058	828.623	629.250
372.913	16.934	828.257	628.457
373.927	17.078	827.504	628.361
374.942	17.097	827.056	628.035
375.956	17.069	826.245	627.260
376.971	17.122	825.498	626.834
377.986	17.155	825.121	626.614
379.000	17.137	824.724	626.192
380.015	17.052	824.265	625.472
381.029	17.184	823.742	625.508
382.044	17.119	823.123	624.743
383.059	17.302	822.566	624.938
384.073	17.088	822.112	623.753
385.088	17.167	821.594	623.592
386.102	17.273	820.699	623.247
387.117	17.232	820.407	622.821
388.132	17.178	819.704	622.035
389.146	17.173	819.515	621.818
390.161	17.209	819.415	621.816
391.175	17.261	818.928	621.584
392.190	17.291	818.180	621.069
393.205	17.395	817.567	620.928
394.219	17.263	817.516	620.352
395.234	17.158	817.104	619.603
396.248	17.175	816.605	619.231
397.263	17.289	816.023	619.151
398.278	17.138	815.661	618.272
399.292	17.312	815.375	618.635
400.307	17.263	814.602	617.815
401.321	17.193	814.429	617.373
402.336	17.300	814.115	617.471
403.350	17.403	813.348	617.207
404.365	17.303	813.284	616.741
405.380	17.354	812.520	616.294
406.394	17.572	811.906	616.561
407.409	17.568	811.361	616.079
408.423	17.573	810.774	615.598
409.438	17.500	810.577	615.128
410.453	17.499	810.270	614.837
411.467	17.629	809.782	614.883
412.482	17.560	809.248	614.173
413.496	17.545	808.591	613.565
414.511	17.605	808.366	613.557
415.526	17.563	808.274	613.282
416.540	17.548	807.678	612.723
417.555	17.638	807.417	612.793
418.569	17.668	806.607	612.232
419.584	17.606	806.330	611.746
420.599	17.732	805.732	611.689
421.613	105.199	1285.305	1447.379
422.628	90.569	1355.167	1447.504
