DTS Sentinel unit serial number:	SN413079Multiplexer serial number:	ORYXHardware model number:	OX4-SRSoftware version number:	ORYX F/W v4.00 Oryx Data Collector v3.7.2.0data status	okinstallation	princeton_trtdifferential loss correction	single-endedforward channel	channel 3reverse channel	N/Adate	2019/09/18time	06:56:34forward acquisition time	60.00reverse acquisition time	0.00gamma	496.2192k internal	0.2342k external	0.2342temperature offset calibration	0.9954default loss term (dB/km)	0.3790temperature slope calibration	1.0000multiplexer offset coefficient	1.0000multiplexer slope coefficient	1.0000fibre end	0.00T internal ref (°C)	23.19T ext. ref 1 (°C)	0.19T ext. ref 2 (°C)	17.04length (m)	temperature (°C)	Stokes	anti-Stokes-747.200	27.076	0.129	-0.109
-746.185	39.560	-0.268	0.240
-745.171	-60.970	0.266	-0.113
-744.156	143.319	-0.175	0.234
-743.142	387.206	-0.043	0.089
-742.127	415.779	-0.253	0.541
-741.112	46.296	0.110	-0.102
-740.098	319.979	-0.113	0.215
-739.083	275.147	-0.182	0.324
-738.069	53.060	-0.288	0.276
-737.054	-134.946	0.189	0.023
-736.039	800.000	-0.071	-0.273
-735.025	-0.084	0.153	0.109
-734.010	138.130	-0.162	0.213
-732.996	-183.007	0.100	-0.002
-731.981	540.702	-0.150	0.356
-730.966	-83.076	0.342	0.110
-729.952	-152.924	-0.291	0.021
-728.937	-200.000	0.006	-0.161
-727.923	-96.208	-0.305	0.081
-726.908	800.000	0.089	0.287
-725.894	430.762	0.055	0.120
-724.879	-87.805	-0.329	-0.099
-723.864	800.000	-0.101	0.304
-722.850	-40.249	0.228	0.119
-721.835	198.362	0.262	-0.401
-720.821	-79.923	-0.325	0.109
-719.806	-200.000	-0.021	0.178
-718.791	-200.000	0.009	-0.146
-717.777	65.585	0.074	-0.075
-716.762	-96.577	0.115	-0.030
-715.748	559.131	-0.090	-0.218
-714.733	-200.000	-0.023	-0.298
-713.718	-195.561	0.087	-0.001
-712.704	496.396	-0.094	0.216
-711.689	-200.000	0.038	0.248
-710.675	124.563	-0.213	0.269
-709.660	-200.000	0.004	0.167
-708.645	112.425	0.039	0.047
-707.631	20.647	-0.152	-0.123
-706.616	-30.010	0.067	0.038
-705.602	-200.000	-0.050	0.379
-704.587	-51.261	-0.435	-0.204
-703.572	-88.662	0.204	-0.061
-702.558	347.058	-0.126	-0.248
-701.543	-200.000	0.018	0.118
-700.529	-8.015	0.341	0.230
-699.514	-81.851	0.088	0.029
-698.499	615.956	0.069	-0.173
-697.485	-137.627	0.068	-0.008
-696.470	682.537	0.013	-0.034
-695.456	-74.733	-0.167	-0.060
-694.441	-107.557	0.139	-0.030
-693.426	209.506	0.084	0.131
-692.412	71.241	-0.223	-0.231
-691.397	800.000	0.109	0.306
-690.383	-97.356	-0.097	0.025
-689.368	41.602	-0.081	0.073
-688.354	800.000	0.047	0.162
-687.339	-47.885	0.166	0.080
-686.324	469.100	-0.139	0.311
-685.310	-200.000	-0.037	-0.178
-684.295	-200.000	-0.021	-0.204
-683.281	-200.000	-0.082	-0.376
-682.266	800.000	0.080	-0.254
-681.251	800.000	-0.057	-0.229
-680.237	-50.851	0.247	-0.116
-679.222	161.107	0.115	-0.160
-678.208	32.462	0.172	0.149
-677.193	188.260	0.292	0.436
-676.178	7.513	-0.043	-0.032
-675.164	248.825	-0.093	0.158
-674.149	173.037	-0.104	-0.150
-673.135	-68.007	0.205	-0.080
-672.120	800.000	-0.164	-0.537
-671.105	-200.000	-0.029	-0.168
-670.091	-185.127	0.304	0.005
-669.076	231.586	0.205	-0.336
-668.062	372.338	0.250	-0.506
-667.047	-101.621	0.073	0.018
-666.032	-200.000	0.062	-0.316
-665.018	-25.727	-0.300	0.177
-664.003	479.409	0.131	-0.296
-662.989	98.259	-0.181	-0.208
-661.974	-200.000	-0.035	-0.167
-660.959	216.457	-0.028	-0.044
-659.945	-200.000	0.019	0.214
-658.930	-147.819	0.089	-0.007
-657.916	102.358	0.214	0.250
-656.901	267.398	-0.173	-0.302
-655.886	800.000	0.026	-0.074
-654.872	-200.000	-0.008	0.066
-653.857	202.306	-0.149	-0.230
-652.843	-200.000	0.040	-0.356
-651.828	-47.983	0.539	-0.260
-650.814	182.022	-0.121	-0.178
-649.799	74.484	-0.128	-0.134
-648.784	800.000	0.072	0.277
-647.770	128.403	-0.086	-0.109
-646.755	-3.512	-0.163	-0.113
-645.741	145.032	0.106	0.142
-644.726	800.000	-0.048	0.163
-643.711	-115.827	0.126	0.024
-642.697	39.335	0.386	0.345
-641.682	293.286	-0.148	0.270
-640.668	-200.000	-0.018	0.175
-639.653	800.000	-0.078	-0.238
-638.638	368.917	-0.110	0.222
-637.624	-182.128	0.284	0.005
-636.609	422.613	0.105	-0.224
-635.595	800.000	0.048	-0.149
-634.580	-200.000	-0.009	-0.227
-633.565	800.000	0.129	-0.513
-632.551	164.682	0.063	0.089
-631.536	-97.521	-0.477	-0.124
-630.522	800.000	0.049	-0.165
-629.507	-96.443	-0.148	0.039
-628.492	-200.000	-0.023	-0.251
-627.478	800.000	0.067	-0.212
-626.463	-147.063	-0.341	-0.029
-625.449	20.778	-0.202	-0.163
-624.434	800.000	-0.019	0.057
-623.419	-117.924	-0.254	0.045
-622.405	249.387	0.125	0.211
-621.390	-123.988	0.268	0.042
-620.376	-200.000	-0.028	0.240
-619.361	658.265	-0.057	-0.146
-618.346	-131.502	-0.095	-0.013
-617.332	800.000	0.043	-0.186
-616.317	-104.660	-0.161	0.037
-615.303	-200.000	0.004	-0.081
-614.288	-14.172	-0.021	0.014
-613.273	-28.274	0.172	-0.099
-612.259	-200.000	0.000	-0.326
-611.244	800.000	0.139	-0.514
-610.230	-101.467	0.487	0.118
-609.215	-103.272	-0.113	0.027
-608.201	800.000	0.031	0.129
-607.186	-80.946	-0.357	-0.118
-606.171	-64.436	0.226	-0.092
-605.157	-125.717	-0.162	-0.024
-604.142	271.818	0.076	-0.134
-603.128	-200.000	-0.015	0.098
-602.113	737.475	-0.210	0.562
-601.098	148.714	-0.124	-0.166
-600.084	-200.000	0.059	-0.258
-599.069	68.629	0.020	-0.020
-598.055	370.584	-0.049	0.099
-597.040	-157.463	-0.248	-0.015
-596.025	-31.432	0.186	-0.104
-595.011	-102.975	0.057	-0.013
-593.996	-150.159	0.218	-0.017
-592.982	-84.926	0.239	-0.075
-591.967	-72.685	0.317	0.117
-590.952	800.000	0.039	0.128
-589.938	-200.000	-0.017	-0.077
-588.923	2.831	-0.175	0.126
-587.909	-200.000	0.038	0.258
-586.894	-119.704	0.141	0.024
-585.879	84.584	0.194	0.211
-584.865	486.867	0.075	0.170
-583.850	-86.010	-0.354	-0.109
-582.836	-43.642	0.431	0.216
-581.821	-76.333	0.376	-0.132
-580.806	326.201	-0.058	-0.110
-579.792	-200.000	-0.113	0.001
-578.777	-75.518	0.127	-0.045
-577.763	-81.389	-0.120	-0.039
-576.748	-9.520	-0.079	-0.052
-575.733	56.726	-0.173	0.167
-574.719	58.984	0.209	0.204
-573.704	-133.055	0.434	-0.055
-572.690	-46.078	0.167	0.082
-571.675	-17.524	0.075	-0.047
-570.661	-200.000	0.019	0.097
-569.646	-23.828	0.419	0.250
-568.631	-87.082	0.385	0.117
-567.617	245.291	-0.055	-0.091
-566.602	41.921	-0.151	-0.137
-565.588	77.089	-0.246	-0.260
-564.573	-200.000	0.028	-0.157
-563.558	-88.875	-0.090	0.027
-562.544	713.712	0.143	0.376
-561.529	-5.378	-0.150	0.103
-560.515	25.628	0.134	-0.111
-559.500	-14.131	-0.176	-0.113
-558.485	317.828	-0.010	0.018
-557.471	54.948	-0.106	0.102
-556.456	-60.469	0.279	0.118
-555.442	-54.832	0.110	-0.049
-554.427	800.000	0.085	0.354
-553.412	336.905	-0.045	0.087
-552.398	16.485	-0.266	0.209
-551.383	234.226	-0.109	-0.179
-550.369	-200.000	-0.002	-0.104
-549.354	-154.138	0.325	0.022
-548.339	-28.076	-0.209	-0.120
-547.325	-200.000	-0.014	-0.162
-546.310	-200.000	-0.037	-0.534
-545.296	34.417	0.194	-0.168
-544.281	5.754	-0.262	0.193
-543.266	-99.379	-0.373	0.093
-542.252	32.880	0.221	-0.190
-541.237	-74.196	-0.121	0.043
-540.223	-129.208	-0.285	-0.039
-539.208	-200.000	0.011	0.048
-538.193	-68.298	-0.137	0.053
-537.179	-13.822	0.123	0.079
-536.164	-179.949	0.280	-0.006
-535.150	-59.905	-0.110	-0.047
-534.135	-148.317	-0.111	-0.009
-533.121	112.453	0.066	0.079
-532.106	-61.293	-0.440	-0.184
-531.091	-16.789	-0.226	0.142
-530.077	66.357	-0.068	-0.069
-529.062	-23.754	0.178	0.106
-528.048	64.604	-0.229	0.229
-527.033	63.960	0.242	-0.242
-526.018	258.050	0.150	0.256
-525.004	9.393	0.107	-0.080
-523.989	-123.155	-0.201	0.032
-522.975	-200.000	-0.031	0.161
-521.960	-109.183	0.184	-0.039
-520.945	800.000	-0.116	-0.387
-519.931	800.000	-0.026	-0.074
-518.916	119.584	-0.104	0.128
-517.902	-54.118	0.121	-0.054
-516.887	-94.085	-0.329	0.090
-515.872	749.651	-0.064	-0.172
-514.858	13.414	-0.201	-0.155
-513.843	-10.504	-0.166	0.109
-512.829	-200.000	-0.005	-0.172
-511.814	800.000	0.101	-0.322
-510.799	20.937	-0.159	-0.128
-509.785	108.059	0.043	-0.051
-508.770	153.722	0.121	-0.165
-507.756	30.849	0.133	0.113
-506.741	122.670	-0.151	-0.188
-505.726	-96.792	0.127	-0.033
-504.712	-200.000	-0.055	0.254
-503.697	115.130	0.126	-0.153
-502.683	-200.000	0.006	-0.066
-501.668	84.633	0.158	0.172
-500.653	602.750	0.090	0.222
-499.639	467.138	-0.009	-0.021
-498.624	-181.589	-0.280	-0.005
-497.610	-0.746	-0.103	0.073
-496.595	-91.322	0.101	0.029
-495.581	-200.000	0.012	-0.223
-494.566	-120.089	0.101	-0.017
-493.551	502.647	-0.107	-0.246
-492.537	-7.879	-0.160	0.107
-491.522	-200.000	-0.040	0.219
-490.508	800.000	-0.122	0.411
-489.493	409.326	-0.040	-0.085
-488.478	-153.084	0.137	-0.010
-487.464	113.927	0.123	0.148
-486.449	-200.000	0.015	-0.086
-485.435	-132.963	0.163	0.021
-484.420	-124.516	0.332	-0.051
-483.405	23.341	-0.242	0.197
-482.391	72.010	0.144	-0.148
-481.376	-26.586	0.273	0.159
-480.362	60.742	-0.171	-0.168
-479.347	-19.661	0.196	-0.120
-478.332	-48.739	0.176	-0.084
-477.318	209.115	0.119	0.185
-476.303	17.258	-0.043	0.034
-475.289	105.827	-0.122	0.143
-474.274	-138.638	-0.416	0.045
-473.259	-116.287	0.305	-0.056
-472.245	-144.202	0.175	-0.016
-471.230	800.000	0.084	-0.239
-470.216	800.000	-0.103	0.327
-469.201	297.489	-0.120	-0.218
-468.186	-76.573	0.311	-0.108
-467.172	-200.000	0.043	-0.274
-466.157	-110.196	0.328	-0.068
-465.143	128.873	0.151	0.191
-464.128	-200.000	0.056	0.332
-463.113	-10.288	-0.266	0.175
-462.099	-38.560	0.136	-0.071
-461.084	33.635	-0.089	0.076
-460.070	800.000	-0.097	0.406
-459.055	210.895	-0.054	0.084
-458.040	-106.381	0.304	-0.067
-457.026	-200.000	0.057	0.337
-456.011	800.000	-0.072	-0.255
-454.997	13.712	-0.335	0.258
-453.982	-11.045	-0.047	-0.031
-452.968	-200.000	0.021	0.370
-451.953	171.314	-0.212	0.302
-450.938	756.440	0.079	-0.212
-449.924	-62.740	0.078	0.032
-448.909	-128.733	-0.136	-0.019
-447.895	282.309	0.177	0.315
-446.880	387.641	-0.231	0.472
-445.865	-46.791	0.073	0.035
-444.851	-169.787	-0.245	0.009
-443.836	441.119	0.056	0.121
-442.822	-13.570	-0.465	0.298
-441.807	-174.351	-0.105	-0.003
-440.792	-63.311	0.215	0.088
-439.778	800.000	0.043	-0.128
-438.763	459.621	0.087	-0.191
-437.749	437.423	0.095	-0.206
-436.734	337.831	0.095	-0.183
-435.719	43.303	0.122	-0.111
-434.705	189.267	-0.066	-0.098
-433.690	114.934	-0.138	-0.167
-432.676	242.068	0.178	0.294
-431.661	-132.253	0.190	-0.024
-430.646	800.000	-0.035	0.120
-429.632	800.000	0.043	-0.180
-428.617	194.870	0.085	0.127
-427.603	117.071	-0.282	-0.342
-426.588	-59.915	-0.071	0.030
-425.573	800.000	-0.051	-0.192
-424.559	359.553	-0.059	-0.117
-423.544	-200.000	-0.000	-0.075
-422.530	800.000	-0.112	-0.365
-421.515	-121.262	-0.168	0.028
-420.500	-46.470	0.301	0.146
-419.486	-200.000	0.040	-0.181
-418.471	-200.000	-0.015	0.097
-417.457	-39.173	-0.144	0.075
-416.442	-76.864	-0.115	0.040
-415.428	-200.000	0.015	-0.126
-414.413	53.306	0.139	0.132
-413.398	-137.027	-0.157	0.018
-412.384	800.000	-0.077	-0.261
-411.369	-200.000	0.018	-0.200
-410.355	-78.660	-0.137	-0.046
-409.340	-60.553	0.101	0.042
-408.325	800.000	-0.077	-0.328
-407.311	-172.032	-0.105	0.003
-406.296	-71.203	0.247	0.092
-405.282	-200.000	-0.040	-0.198
-404.267	-102.557	-0.357	0.084
-403.252	-51.843	0.447	0.206
-402.238	506.981	-0.038	0.086
-401.223	-127.944	0.397	-0.056
-400.209	16.844	0.084	-0.066
-399.194	83.278	-0.100	-0.107
-398.179	800.000	0.113	-0.423
-397.165	289.951	0.192	0.345
-396.150	470.870	0.138	0.307
-395.136	20.050	-0.276	0.220
-394.121	82.449	0.172	0.184
-393.106	556.096	-0.041	0.098
-392.092	800.000	-0.027	-0.093
-391.077	264.171	-0.064	0.110
-390.063	-200.000	0.031	-0.190
-389.048	-112.408	-0.389	0.077
-388.033	-13.013	0.341	0.219
-387.019	-200.000	-0.001	0.345
-386.004	-40.481	-0.232	-0.119
-384.990	-200.000	-0.001	0.025
-383.975	466.182	-0.082	0.182
-382.960	22.085	-0.084	-0.068
-381.946	-200.000	-0.066	0.333
-380.931	178.845	-0.142	0.204
-379.917	58.601	-0.330	0.320
-378.902	224.691	0.111	0.178
-377.888	81.170	0.062	0.066
-376.873	436.611	-0.095	0.204
-375.858	-88.186	-0.074	0.022
-374.844	-56.998	-0.125	0.055
-373.829	-200.000	-0.019	-0.107
-372.815	75.889	0.087	-0.091
-371.800	55.060	0.032	0.031
-370.785	-46.854	0.168	-0.081
-369.771	-89.650	-0.108	0.031
-368.756	-200.000	-0.006	0.051
-367.742	580.423	0.041	-0.099
-366.727	-17.263	0.293	-0.182
-365.712	-116.420	0.111	0.020
-364.698	-36.448	0.196	-0.104
-363.683	45.502	0.044	0.040
-362.669	-23.817	-0.186	0.110
-361.654	-98.909	0.310	-0.078
-360.639	-136.898	0.172	0.020
-359.625	182.509	-0.058	-0.085
-358.610	102.963	0.127	-0.147
-357.596	800.000	0.077	-0.259
-356.581	-200.000	-0.001	-0.290
-355.566	-102.159	-0.014	-0.003
-354.552	-55.724	-0.046	-0.020
-353.537	-13.046	0.223	-0.143
-352.523	-200.000	-0.009	-0.134
-351.508	126.629	0.146	0.182
-350.493	-4.148	-0.169	-0.116
-349.479	202.352	-0.123	0.187
-348.464	48.107	-0.102	0.094
-347.450	-200.000	0.047	0.301
-346.435	-200.000	0.010	-0.098
-345.420	-47.514	-0.184	0.088
-344.406	-200.000	-0.064	-0.363
-343.391	-55.127	-0.087	-0.038
-342.377	-127.076	-0.107	-0.015
-341.362	-200.000	0.036	0.449
-340.348	476.819	-0.101	0.226
-339.333	36.492	0.167	0.145
-338.318	800.000	-0.070	-0.252
-337.304	724.760	0.058	-0.153
-336.289	800.000	-0.016	-0.052
-335.275	-7.564	-0.160	0.106
-334.260	-200.000	0.010	-0.105
-333.245	-200.000	0.014	-0.166
-332.231	-200.000	-0.039	-0.188
-331.216	131.054	0.172	0.218
-330.202	-27.787	-0.153	-0.087
-329.187	800.000	0.032	0.092
-328.172	650.329	-0.073	-0.183
-327.158	0.102	-0.236	0.165
-326.143	-151.254	-0.089	-0.007
-325.129	-200.000	-0.067	0.330
-324.114	106.388	0.145	-0.170
-323.099	8.969	-0.105	-0.078
-322.085	-162.224	0.254	-0.013
-321.070	179.558	0.192	0.277
-320.056	192.250	-0.214	-0.319
-319.041	-104.956	-0.514	-0.116
-318.026	47.557	0.035	-0.033
-317.012	-200.000	0.074	0.451
-315.997	77.405	0.136	0.143
-314.983	-200.000	-0.008	-0.273
-313.968	383.593	-0.100	0.202
-312.953	-117.039	0.093	-0.017
-311.939	-196.664	-0.310	0.002
-310.924	369.510	-0.062	-0.124
-309.910	18.557	0.221	0.174
-308.895	94.347	-0.095	0.107
-307.880	-109.242	0.214	-0.045
-306.866	-200.000	0.036	-0.193
-305.851	800.000	-0.103	-0.330
-304.837	5.926	0.142	-0.104
-303.822	-200.000	-0.032	-0.177
-302.807	-200.000	-0.011	0.150
-301.793	-157.659	0.234	0.014
-300.778	527.206	0.090	0.208
-299.764	-122.752	0.247	-0.039
-298.749	20.913	-0.071	-0.057
-297.735	139.795	-0.238	-0.308
-296.720	317.083	-0.086	-0.159
-295.705	263.309	-0.131	0.224
-294.691	-200.000	-0.031	-0.326
-293.676	800.000	0.112	-0.360
-292.662	185.911	0.218	-0.319
-291.647	-113.046	0.122	0.024
-290.632	-23.883	-0.123	0.072
-289.618	190.851	0.065	0.096
-288.603	521.881	0.053	-0.123
-287.589	418.377	0.095	0.200
-286.574	-41.560	0.076	-0.039
-285.559	-200.000	0.055	-0.278
-284.545	-200.000	-0.199	-0.000
-283.530	244.434	-0.098	0.161
-282.516	-11.759	-0.216	0.140
-281.501	83.101	-0.117	0.125
-280.486	103.303	-0.087	-0.101
-279.472	119.737	-0.044	0.054
-278.457	276.153	-0.165	0.288
-277.443	-58.832	0.069	-0.029
-276.428	178.933	-0.188	0.270
-275.413	-200.000	-0.017	-0.390
-274.399	-73.067	0.402	-0.145
-273.384	-200.000	0.072	0.348
-272.370	-11.064	0.187	-0.121
-271.355	-121.115	-0.109	-0.018
-270.340	189.798	-0.102	0.151
-269.326	-83.726	0.075	-0.024
-268.311	-131.713	-0.114	-0.015
-267.297	-200.000	0.035	0.224
-266.282	89.795	-0.134	-0.147
-265.267	140.853	0.119	0.155
-264.253	-73.530	-0.133	0.048
-263.238	-126.626	0.205	0.030
-262.224	800.000	0.100	0.310
-261.209	-84.859	-0.340	-0.105
-260.195	21.614	0.175	-0.140
-259.180	800.000	-0.079	0.240
-258.165	-113.042	-0.283	0.055
-257.151	-200.000	0.048	-0.270
-256.136	582.086	-0.049	-0.118
-255.122	-69.706	0.171	0.064
-254.107	-84.697	-0.125	-0.039
-253.092	105.310	-0.060	0.069
-252.078	120.163	0.270	-0.329
-251.063	4.497	-0.234	0.169
-250.049	-25.119	0.322	0.187
-249.034	-1.204	0.079	0.055
-248.019	-159.410	-0.454	-0.025
-247.005	-84.837	-0.253	0.078
-245.990	-200.000	0.038	-0.205
-244.976	105.032	-0.204	0.236
-243.961	-184.886	-0.352	0.005
-242.946	-54.198	0.388	0.173
-241.932	800.000	0.016	-0.067
-240.917	-200.000	-0.014	0.151
-239.903	800.000	-0.038	0.135
-238.888	-200.000	0.005	0.087
-237.873	800.000	-0.053	0.187
-236.859	-1.965	0.219	0.151
-235.844	255.163	-0.058	-0.098
-234.830	445.497	0.111	-0.239
-233.815	325.421	0.113	0.212
-232.800	-19.042	-0.146	-0.089
-231.786	589.912	-0.136	-0.328
-230.771	-43.604	-0.258	0.128
-229.757	-130.459	0.212	0.028
-228.742	68.121	0.141	-0.142
-227.727	-54.525	0.073	-0.033
-226.713	198.610	0.257	-0.387
-225.698	141.635	-0.026	-0.034
-224.684	34.124	-0.170	-0.146
-223.669	774.485	-0.041	-0.109
-222.655	-200.000	-0.034	-0.153
-221.640	167.379	0.117	0.163
-220.625	-74.972	0.327	0.115
-219.611	320.648	0.076	-0.141
-218.596	800.000	-0.058	0.164
-217.582	11.127	-0.053	-0.040
-216.567	40.658	-0.175	0.155
-215.552	47.409	0.130	-0.119
-214.538	-200.000	-0.045	-0.285
-213.523	-35.073	-0.238	-0.127
-212.509	-126.756	-0.334	-0.048
-211.494	176.329	0.169	-0.241
-210.479	-76.913	-0.291	0.100
-209.465	-30.142	-0.040	0.022
-208.450	-200.000	-0.061	0.285
-207.436	-200.000	0.056	-0.268
-206.421	800.000	0.032	0.113
-205.406	800.000	0.033	0.116
-204.392	-200.000	-0.010	0.075
-203.377	-184.784	0.256	0.004
-202.363	72.978	0.155	-0.159
-201.348	-146.912	0.267	-0.023
-200.333	-181.707	-0.225	0.004
-199.319	-200.000	0.017	0.185
-198.304	-38.973	0.096	-0.049
-197.290	-200.000	0.030	-0.291
-196.275	-95.604	0.205	-0.054
-195.260	-73.869	0.434	-0.155
-194.246	-19.730	0.209	-0.127
-193.231	607.103	0.053	0.129
-192.217	800.000	0.040	-0.158
-191.202	-200.000	0.003	-0.103
-190.187	-33.222	-0.345	-0.187
-189.173	290.430	-0.048	-0.085
-188.158	-5.949	-0.260	0.174
-187.144	-35.571	0.088	0.047
-186.129	-53.417	-0.352	0.158
-185.114	536.545	0.097	0.226
-184.100	-37.398	-0.282	0.147
-183.085	-200.000	-0.003	0.218
-182.071	146.125	-0.103	-0.135
-181.056	-61.042	-0.080	0.033
-180.042	66.829	0.169	0.169
-179.027	57.906	0.238	0.229
-178.012	-109.607	-0.015	-0.003
-176.998	-32.541	-0.271	-0.148
-175.983	-44.367	0.238	0.117
-174.969	800.000	0.139	-0.502
-173.954	-146.747	-0.178	0.015
-172.939	-70.421	-0.102	0.038
-171.925	21.499	0.071	0.057
-170.910	-73.178	-0.177	-0.063
-169.896	-200.000	0.010	-0.096
-168.881	221.204	0.065	0.102
-167.866	-200.000	0.018	-0.143
-166.852	-0.045	0.187	0.130
-165.837	122.700	0.149	-0.183
-164.823	800.000	0.108	-0.351
-163.808	-200.000	-0.045	0.234
-162.793	-36.794	-0.140	-0.073
-161.779	-135.037	-0.250	0.029
-160.764	8.647	-0.214	-0.158
-159.750	214.754	-0.131	0.203
-158.735	-142.576	0.442	0.042
-157.720	-200.000	-0.022	-0.192
-156.706	-93.557	-0.270	0.073
-155.691	-200.000	-0.002	-0.033
-154.677	581.041	-0.122	0.293
-153.662	-147.235	0.291	0.024
-152.647	172.124	0.096	-0.135
-151.633	-200.000	-0.031	0.166
-150.618	-93.830	-0.258	0.069
-149.604	-112.363	-0.126	0.025
-148.589	-200.000	0.029	0.243
-147.574	58.037	0.165	-0.158
-146.560	-200.000	-0.002	-0.081
-145.545	-200.000	-0.009	0.302
-144.531	800.000	0.025	0.093
-143.516	800.000	-0.106	0.317
-142.502	-104.738	0.419	-0.094
-141.487	-100.763	-0.137	0.033
-140.472	223.117	0.118	0.186
-139.458	-178.652	-0.143	0.003
-138.443	408.244	0.161	0.333
-137.429	-58.001	-0.126	0.054
-136.414	-9.500	-0.223	0.146
-135.399	800.000	0.073	-0.254
-134.385	-94.758	0.248	-0.066
-133.370	2.810	0.057	-0.040
-132.356	-99.967	0.219	-0.053
-131.341	-55.971	-0.144	0.063
-130.326	-200.000	-0.038	0.414
-129.312	-200.000	-0.065	0.311
-128.297	685.406	0.163	0.417
-127.283	275.103	-0.078	0.134
-126.268	-136.314	0.191	0.022
-125.253	-146.837	0.023	-0.002
-124.239	-108.638	-0.255	-0.054
-123.224	119.521	-0.119	0.145
-122.210	-42.833	0.244	-0.121
-121.195	48.829	0.070	0.064
-120.180	-200.000	-0.052	0.240
-119.166	39.700	0.200	-0.175
-118.151	-200.000	0.054	-0.474
-117.137	392.917	0.060	0.121
-116.122	-0.582	0.275	-0.191
-115.107	119.202	-0.192	0.232
-114.093	102.150	-0.137	0.156
-113.078	37.791	0.074	-0.064
-112.064	206.226	-0.196	-0.298
-111.049	-133.039	-0.329	0.041
-110.034	-200.000	-0.001	-0.407
-109.020	-167.908	0.272	-0.010
-108.005	-101.665	0.341	0.081
-106.991	9.362	-0.174	-0.129
-105.976	-158.950	-0.200	-0.011
-104.962	-117.005	-0.182	0.032
-103.947	19.600	0.325	-0.256
-102.932	-43.853	-0.435	-0.214
-101.918	-49.773	0.122	0.057
-100.903	-29.343	-0.183	0.103
-99.889	-58.335	-0.200	0.085
-98.874	47.590	-0.071	0.064
-97.859	144.713	0.027	-0.035
-96.845	800.000	0.050	0.162
-95.830	-28.529	-0.103	-0.058
-94.816	-62.739	0.064	-0.026
-93.801	121.066	0.192	-0.234
-92.786	-135.688	-0.236	-0.027
-91.772	26.694	0.153	0.125
-90.757	3.458	-0.054	0.038
-89.743	-4.827	-0.242	0.163
-88.728	42.635	0.373	0.331
-87.713	800.000	0.109	-0.346
-86.699	460.288	0.134	-0.292
-85.684	-125.474	0.098	-0.015
-84.670	-200.000	-0.016	0.347
-83.655	-88.025	0.295	0.086
-82.640	-148.438	-0.162	-0.013
-81.626	330.934	-0.149	-0.280
-80.611	-2.400	-0.252	-0.172
-79.597	113.658	-0.146	0.173
-78.582	-97.451	-0.127	-0.032
-77.567	-139.381	0.168	0.018
-76.553	-81.711	-0.131	0.042
-75.538	129.624	0.031	-0.038
-74.524	-42.493	0.059	-0.029
-73.509	-187.790	-0.210	-0.003
-72.494	98.493	0.221	0.249
-71.480	800.000	-0.086	0.318
-70.465	-93.315	-0.211	-0.057
-69.451	218.221	0.036	0.056
-68.436	9.635	0.185	-0.137
-67.422	-200.000	0.014	0.244
-66.407	786.136	-0.012	0.032
-65.392	78.769	-0.072	0.075
-64.378	25.424	-0.354	-0.287
-63.363	-88.907	-0.462	0.133
-62.349	-109.158	-0.050	0.010
-61.334	3.973	-1.151	-0.821
-60.319	92.081	0.735	0.807
-59.305	765.297	-0.497	-1.317
-58.290	91.542	1.132	1.240
-57.276	222.873	0.774	1.215
-56.261	-200.000	125.092	649.918
-55.246	403.264	1582.195	3245.350
-54.232	140.822	2743.749	3534.665
-53.217	93.883	2191.106	2421.449
-52.203	33.667	1705.959	1445.866
-51.188	26.242	1523.027	1240.026
-50.173	24.322	1499.755	1208.035
-49.159	48.906	1571.180	1437.370
-48.144	45.701	1584.342	1427.083
-47.130	26.332	1532.944	1248.524
-46.115	23.416	1517.029	1215.547
-45.100	23.232	1513.439	1211.363
-44.086	23.179	1511.579	1209.461
-43.071	23.176	1509.455	1207.693
-42.057	23.077	1508.089	1205.877
-41.042	23.178	1506.075	1204.909
-40.027	23.292	1504.839	1204.646
-39.013	23.127	1503.565	1202.456
-37.998	23.131	1502.326	1201.449
-36.984	23.209	1500.889	1200.776
-35.969	23.134	1499.748	1199.311
-34.954	23.223	1497.644	1198.182
-33.940	23.183	1496.694	1197.101
-32.925	23.097	1495.564	1195.572
-31.911	23.148	1494.100	1194.694
-30.896	23.288	1492.810	1194.562
-29.881	23.283	1491.598	1193.514
-28.867	23.255	1489.859	1191.887
-27.852	23.233	1488.277	1190.424
-26.838	23.228	1486.933	1189.267
-25.823	23.268	1485.466	1188.318
-24.809	23.226	1483.845	1186.693
-23.794	23.183	1482.621	1185.379
-22.779	23.284	1481.074	1184.768
-21.765	23.287	1480.278	1184.102
-20.750	23.129	1479.568	1182.431
-19.736	23.151	1478.281	1181.506
-18.721	23.170	1477.055	1180.604
-17.706	23.188	1475.811	1179.687
-16.692	23.135	1475.185	1178.783
-15.677	23.288	1473.883	1178.718
-14.663	23.206	1473.393	1177.729
-13.648	23.228	1472.223	1176.894
-12.633	23.158	1471.590	1175.875
-11.619	23.164	1470.478	1174.979
-10.604	23.137	1469.697	1174.132
-9.590	23.184	1468.679	1173.582
-8.575	23.190	1467.518	1172.648
-7.560	23.143	1466.953	1171.842
-6.546	23.144	1466.350	1171.321
-5.531	23.188	1465.519	1170.899
-4.517	23.193	1464.430	1170.015
-3.502	23.173	1463.325	1168.956
-2.487	23.159	1462.633	1168.261
-1.473	23.117	1461.649	1167.153
-0.458	23.181	1459.857	1166.100
0.556	21.550	1450.046	1154.661
1.571	18.347	1426.344	1114.868
2.586	14.984	1364.268	1045.275
3.600	13.528	1280.337	972.337
4.615	12.399	1236.607	932.641
5.629	10.857	1180.289	881.730
6.644	5.376	1098.583	792.881
7.659	1.030	1062.690	745.558
8.673	0.221	1057.869	738.145
9.688	0.108	1054.475	735.159
10.702	0.104	1052.717	733.849
11.717	0.347	1050.299	733.279
12.731	1.920	1051.604	741.783
13.746	8.066	1059.432	777.289
14.761	14.205	1067.194	812.988
15.775	16.498	1070.120	826.369
16.790	16.426	1069.059	825.123
17.804	15.654	1066.316	819.173
18.819	14.661	1064.944	813.210
19.834	14.201	1064.046	810.214
20.848	13.939	1063.229	808.244
21.863	13.752	1061.826	806.199
22.877	13.495	1061.363	804.528
23.892	13.281	1060.032	802.410
24.907	13.252	1059.223	801.587
25.921	13.179	1058.949	800.953
26.936	13.146	1058.376	800.290
27.950	13.131	1057.820	799.722
28.965	13.314	1056.871	799.820
29.980	13.403	1055.782	799.354
30.994	13.439	1054.451	798.450
32.009	13.390	1054.114	797.890
33.023	13.545	1053.316	797.959
34.038	13.424	1052.620	796.781
35.053	13.390	1051.936	796.031
36.067	13.404	1050.714	795.099
37.082	13.344	1049.796	794.050
38.096	13.407	1048.968	793.654
39.111	13.476	1048.191	793.328
40.126	13.447	1047.402	792.520
41.140	13.386	1046.824	791.721
42.155	13.198	1045.837	790.004
43.169	13.228	1044.747	789.256
44.184	13.224	1043.725	788.393
45.199	13.210	1042.735	787.511
46.213	13.239	1041.678	786.780
47.228	13.234	1040.770	786.001
48.242	13.361	1039.318	785.440
49.257	13.421	1038.416	784.971
50.271	13.274	1037.610	783.595
51.286	13.301	1036.622	782.911
52.301	13.314	1036.135	782.532
53.315	13.434	1035.391	782.468
54.330	13.338	1034.634	781.376
55.344	13.309	1033.487	780.304
56.359	13.207	1032.553	779.046
57.374	13.363	1031.486	778.908
58.388	13.277	1030.721	777.858
59.403	13.160	1030.526	777.090
60.417	13.199	1029.315	776.294
61.432	13.211	1028.561	775.711
62.447	13.318	1027.672	775.472
63.461	13.149	1027.009	774.112
64.476	13.086	1026.052	773.029
65.490	13.233	1024.954	772.818
66.505	13.171	1024.134	771.845
67.520	13.187	1023.731	771.544
68.534	13.233	1022.892	771.061
69.549	13.179	1022.332	770.318
70.563	13.228	1021.365	769.749
71.578	13.199	1020.507	768.899
72.593	13.222	1019.609	768.263
73.607	13.075	1018.681	766.811
74.622	13.105	1017.923	766.313
75.636	13.141	1016.801	765.568
76.651	13.092	1016.326	764.916
77.666	13.158	1015.700	764.680
78.680	13.214	1014.445	763.930
79.695	13.155	1013.993	763.248
80.709	13.164	1013.574	762.907
81.724	13.228	1012.715	762.488
82.739	13.248	1012.344	762.234
83.753	13.366	1010.997	761.694
84.768	13.268	1010.311	760.659
85.782	13.404	1009.617	760.695
86.797	13.523	1008.708	760.487
87.812	13.384	1007.868	759.150
88.826	13.467	1007.219	758.975
89.841	13.447	1006.604	758.351
90.855	13.402	1005.475	757.228
91.870	13.398	1004.923	756.729
92.884	13.379	1004.450	756.220
93.899	13.471	1003.271	755.685
94.914	13.434	1002.911	755.176
95.928	13.488	1001.880	754.579
96.943	13.410	1001.782	754.082
97.957	13.637	999.994	753.705
98.972	13.473	999.607	752.599
99.987	13.426	998.905	751.793
101.001	13.442	998.149	751.230
102.016	13.577	997.007	750.914
103.030	13.488	996.133	749.787
104.045	13.401	995.620	748.942
105.060	13.409	994.377	747.977
106.074	13.506	993.017	747.323
107.089	13.473	992.415	746.656
108.103	13.434	991.965	746.076
109.118	13.358	991.162	745.065
110.133	13.378	990.110	744.296
111.147	13.223	989.579	743.136
112.162	13.288	988.492	742.543
113.176	13.323	987.615	741.977
114.191	13.450	986.612	741.727
115.206	13.497	985.654	741.153
116.220	13.429	984.887	740.205
117.235	13.553	984.152	740.141
118.249	13.444	983.287	738.940
119.264	13.363	982.565	737.971
120.279	13.336	981.586	737.049
121.293	13.329	980.697	736.284
122.308	13.352	980.169	735.926
123.322	13.405	979.364	735.494
124.337	13.238	978.137	733.765
125.352	13.210	977.075	732.777
126.366	13.314	975.633	732.092
127.381	13.250	974.958	731.236
128.395	13.387	973.938	731.013
129.410	13.419	972.449	729.970
130.424	13.408	972.119	729.612
131.439	13.419	970.871	728.659
132.454	13.363	970.406	728.000
133.468	13.296	969.646	727.072
134.483	13.351	968.805	726.618
135.497	13.413	968.197	726.368
136.512	13.323	967.246	725.197
137.527	13.234	966.789	724.397
138.541	13.459	965.852	724.619
139.556	13.363	965.470	723.848
140.570	13.399	964.403	723.142
141.585	13.366	963.848	722.514
142.600	13.522	962.928	722.441
143.614	13.599	962.230	722.189
144.629	13.468	961.503	721.012
145.643	13.558	960.696	720.735
146.658	13.675	959.535	720.307
147.673	13.653	958.878	719.657
148.687	13.484	958.247	718.383
149.702	13.512	957.266	717.709
150.716	13.460	956.664	716.968
151.731	13.591	955.261	716.420
152.746	13.564	954.644	715.774
153.760	13.454	954.334	715.006
154.775	13.515	953.291	714.424
155.789	13.566	952.663	714.108
156.804	13.645	951.808	713.744
157.819	13.604	951.001	712.899
158.833	13.647	950.385	712.562
159.848	13.710	949.975	712.463
160.862	13.712	949.082	711.739
161.877	13.628	948.685	711.018
162.892	13.794	947.350	710.663
163.906	13.501	946.890	709.001
164.921	13.689	945.724	708.870
165.935	13.700	944.678	708.071
166.950	13.653	944.127	707.391
167.964	13.734	943.193	706.975
168.979	13.680	942.500	706.163
169.994	13.637	941.397	705.091
171.008	13.782	940.293	704.818
172.023	13.674	939.983	704.064
173.037	13.824	938.913	703.840
174.052	13.787	938.116	703.022
175.067	13.820	937.460	702.608
176.081	13.838	936.454	701.866
177.096	13.837	935.455	701.051
178.110	13.752	935.048	700.328
179.125	13.616	934.483	699.270
180.140	13.805	933.564	699.315
181.154	13.814	932.608	698.574
182.169	13.883	932.299	698.573
183.183	13.803	931.705	697.729
184.198	13.823	930.813	697.082
185.213	13.965	930.259	697.202
186.227	13.995	929.277	696.529
187.242	14.063	929.045	696.578
188.256	14.003	928.434	695.809
189.271	14.003	927.894	695.344
190.286	13.971	926.758	694.295
191.300	13.908	926.023	693.420
192.315	13.873	925.503	692.825
193.329	13.779	925.058	692.037
194.344	13.825	924.130	691.475
195.359	13.893	923.920	691.541
196.373	13.891	923.126	690.876
197.388	13.966	922.480	690.640
198.402	14.079	921.701	690.469
199.417	14.108	921.355	690.268
200.432	14.052	921.420	690.020
201.446	14.261	920.377	690.047
202.461	14.146	920.065	689.277
203.475	14.260	919.183	689.024
204.490	14.157	919.129	688.497
205.504	14.263	918.224	688.195
206.519	14.194	917.559	687.351
207.534	14.259	916.571	686.821
208.548	14.260	915.744	686.146
209.563	14.275	915.159	685.706
210.577	14.137	914.448	684.545
211.592	14.234	913.968	684.523
212.607	14.211	913.234	683.821
213.621	14.411	912.333	683.903
214.636	14.280	911.783	682.893
215.650	14.300	911.318	682.567
216.665	14.337	911.286	682.636
217.680	14.432	910.425	682.321
218.694	14.384	909.933	681.695
219.709	14.328	909.526	681.098
220.723	14.374	908.784	680.670
221.738	14.405	908.039	680.179
222.753	14.488	907.107	679.761
223.767	14.566	906.492	679.556
224.782	14.422	905.482	678.155
225.796	14.451	905.173	677.979
226.811	14.632	904.397	678.074
227.826	14.548	903.537	677.028
228.840	14.586	902.913	676.656
229.855	14.500	902.158	675.682
230.869	14.515	901.766	675.388
231.884	14.447	901.232	674.653
232.899	14.465	900.271	673.949
233.913	14.555	899.832	673.923
234.928	14.544	899.047	673.229
235.942	14.498	898.585	672.640
236.957	14.496	897.618	671.847
237.972	14.589	897.083	671.763
238.986	14.580	896.112	670.938
240.001	14.634	895.865	670.914
241.015	14.526	895.415	670.082
242.030	14.774	893.783	669.794
243.045	14.544	893.598	668.676
244.059	14.607	893.218	668.584
245.074	14.747	892.080	668.235
246.088	14.852	891.652	668.275
247.103	14.802	891.054	667.568
248.117	14.766	890.549	666.987
249.132	14.848	890.064	666.891
250.147	14.941	889.521	666.798
251.161	14.864	888.847	665.926
252.176	15.076	887.933	666.026
253.190	15.153	887.167	665.696
254.205	15.076	886.738	665.010
255.220	15.117	885.927	664.508
256.234	15.084	885.422	663.936
257.249	14.952	885.127	663.135
258.263	15.095	884.752	663.363
259.278	15.090	884.003	662.721
260.293	15.031	883.665	662.178
261.307	15.122	882.902	661.907
262.322	15.169	881.937	661.308
263.336	15.183	881.410	660.910
264.351	15.174	880.979	660.493
265.366	15.178	880.698	660.242
266.380	15.267	879.682	659.769
267.395	15.303	878.820	659.208
268.409	15.194	878.147	658.214
269.424	15.255	877.665	658.034
270.439	15.129	877.009	656.990
271.453	15.296	876.098	656.906
272.468	15.334	875.272	656.375
273.482	15.215	874.709	655.431
274.497	15.286	874.262	655.314
275.512	15.365	873.460	654.963
276.526	15.320	873.015	654.397
277.541	15.334	872.238	653.810
278.555	15.452	871.421	653.602
279.570	15.425	871.197	653.270
280.585	15.294	870.783	652.392
281.599	15.397	870.228	652.318
282.614	15.538	869.281	652.099
283.628	15.411	868.765	651.160
284.643	15.367	868.535	650.761
285.657	15.465	867.525	650.326
286.672	15.507	867.246	650.220
287.687	15.540	866.633	649.831
288.701	15.654	865.759	649.559
289.716	15.553	865.576	648.975
290.730	15.528	864.881	648.300
291.745	15.515	864.107	647.611
292.760	15.689	863.261	647.591
293.774	15.642	862.557	646.825
294.789	15.651	862.351	646.650
295.803	15.600	861.809	645.990
296.818	15.783	861.151	646.142
297.833	15.583	860.494	644.823
298.847	15.569	859.816	644.204
299.862	15.755	858.980	644.231
300.876	15.562	858.986	643.443
301.891	15.638	857.988	642.930
302.906	15.815	856.938	642.759
303.920	15.762	856.173	641.927
304.935	15.896	855.689	642.018
305.949	15.823	855.508	641.547
306.964	15.951	854.775	641.430
307.979	15.759	854.417	640.371
308.993	15.857	853.800	640.225
310.008	16.060	852.866	640.241
311.022	16.015	852.541	639.768
312.037	16.005	852.091	639.336
313.052	15.806	852.025	638.474
314.066	15.931	851.093	638.194
315.081	15.970	850.137	637.568
316.095	15.870	849.485	636.643
317.110	15.978	849.112	636.718
318.125	15.944	848.218	635.863
319.139	15.919	847.998	635.548
320.154	15.777	847.741	634.760
321.168	15.928	847.129	634.815
322.183	16.046	846.526	634.753
323.197	15.936	846.291	634.106
324.212	15.976	845.727	633.777
325.227	16.057	844.854	633.372
326.241	16.101	844.016	632.853
327.256	16.064	843.570	632.323
328.270	16.117	843.135	632.141
329.285	16.080	842.825	631.715
330.300	16.172	841.844	631.267
331.314	16.051	841.267	630.328
332.329	16.088	840.838	630.089
333.343	16.053	840.389	629.563
334.358	16.194	839.632	629.467
335.373	16.140	839.520	629.126
336.387	16.230	838.736	628.818
337.402	16.241	838.310	628.483
338.416	16.231	837.729	627.955
339.431	16.310	837.056	627.691
340.446	16.303	836.329	627.065
341.460	16.389	836.042	627.113
342.475	16.329	835.330	626.300
343.489	16.351	834.792	625.923
344.504	16.485	834.213	625.928
345.519	16.348	833.972	625.184
346.533	16.615	833.182	625.525
347.548	16.541	833.065	625.110
348.562	16.539	832.062	624.293
349.577	16.484	831.530	623.637
350.592	16.475	831.172	623.280
351.606	16.565	830.568	623.101
352.621	16.406	830.143	622.143
353.635	16.344	829.837	621.631
354.650	16.473	829.534	621.823
355.665	16.482	829.081	621.463
356.679	16.369	828.692	620.699
357.694	16.763	827.856	621.465
358.708	16.620	827.539	620.648
359.723	16.585	826.989	620.050
360.738	16.699	826.417	619.985
361.752	16.740	825.856	619.660
362.767	16.656	825.043	618.688
363.781	16.609	824.971	618.408
364.796	16.635	824.916	618.405
365.810	16.771	824.218	618.324
366.825	16.686	823.940	617.753
367.840	16.758	823.560	617.676
368.854	16.673	823.279	617.100
369.869	16.755	822.631	616.857
370.883	16.702	821.753	615.953
371.898	16.873	821.102	616.031
372.913	16.865	820.630	615.591
373.927	17.049	819.558	615.401
374.942	16.879	819.174	614.442
375.956	16.764	819.042	613.871
376.971	16.896	818.242	613.696
377.986	16.976	817.702	613.528
379.000	16.951	817.300	613.079
380.015	17.066	816.910	613.149
381.029	17.078	816.013	612.465
382.044	17.008	815.323	611.639
383.059	17.147	814.663	611.594
384.073	17.129	814.369	611.253
385.088	17.207	813.713	610.988
386.102	17.142	813.214	610.323
387.117	16.994	813.254	609.769
388.132	17.098	812.571	609.575
389.146	16.909	812.100	608.490
390.161	17.102	811.690	608.820
391.175	16.994	811.201	608.014
392.190	17.186	810.819	608.361
393.205	17.306	810.192	608.266
394.219	17.146	809.692	607.264
395.234	17.239	809.251	607.213
396.248	17.133	809.090	606.659
397.263	17.150	808.347	606.110
398.278	17.127	808.280	605.922
399.292	17.170	807.608	605.521
400.307	17.269	807.061	605.408
401.321	17.177	806.558	604.649
402.336	17.252	806.336	604.698
403.350	17.210	806.020	604.256
404.365	17.346	805.082	603.983
405.380	17.274	805.116	603.698
406.394	17.349	804.862	603.723
407.409	17.369	804.148	603.202
408.423	17.391	803.585	602.805
409.438	17.596	803.219	603.203
410.453	17.463	802.882	602.428
411.467	17.493	802.175	601.951
412.482	17.487	801.749	601.556
413.496	17.583	801.358	601.548
414.511	17.581	800.874	601.123
415.526	17.516	800.652	600.676
416.540	17.489	800.046	600.071
417.555	17.470	800.285	600.131
418.569	17.677	799.330	600.091
419.584	17.539	798.657	599.046
420.599	17.687	798.404	599.324
421.613	113.474	1298.728	1487.644
422.628	97.753	1371.562	1487.760
