DTS Sentinel unit serial number:	SN413079Multiplexer serial number:	ORYXHardware model number:	OX4-SRSoftware version number:	ORYX F/W v4.00 Oryx Data Collector v3.7.2.0data status	okinstallation	princeton_trtdifferential loss correction	single-endedforward channel	channel 3reverse channel	N/Adate	2019/09/19time	01:24:35forward acquisition time	60.00reverse acquisition time	0.00gamma	496.2192k internal	0.2348k external	0.2348temperature offset calibration	0.9990default loss term (dB/km)	0.3790temperature slope calibration	1.0000multiplexer offset coefficient	1.0000multiplexer slope coefficient	1.0000fibre end	0.00T internal ref (°C)	21.64T ext. ref 1 (°C)	0.70T ext. ref 2 (°C)	15.02length (m)	temperature (°C)	Stokes	anti-Stokes-747.200	-119.053	0.265	-0.046
-746.185	63.185	-0.190	0.190
-745.171	-200.000	0.016	-0.159
-744.156	-99.579	-0.265	0.067
-743.142	764.304	-0.046	0.124
-742.127	-200.000	-0.050	-0.318
-741.112	54.340	-0.279	-0.268
-740.098	139.852	-0.100	0.132
-739.083	282.414	0.112	0.200
-738.069	-36.989	-0.218	0.117
-737.054	-72.654	0.218	-0.080
-736.039	-28.479	-0.368	0.212
-735.025	-54.684	0.357	0.161
-734.010	-37.961	0.103	0.055
-732.996	102.907	-0.185	-0.217
-731.981	800.000	-0.076	-0.264
-730.966	800.000	-0.127	-0.409
-729.952	25.214	0.143	-0.119
-728.937	-200.000	0.067	0.468
-727.923	256.528	-0.144	0.247
-726.908	-64.791	-0.344	-0.139
-725.894	-44.948	-0.216	-0.108
-724.879	800.000	-0.052	-0.196
-723.864	-142.748	-0.321	-0.031
-722.850	-200.000	-0.034	0.197
-721.835	-95.998	-0.184	-0.049
-720.821	-200.000	0.037	-0.325
-719.806	42.143	0.284	-0.258
-718.791	-200.000	-0.011	0.124
-717.777	525.915	0.080	0.188
-716.762	189.772	-0.103	-0.154
-715.748	500.559	-0.105	-0.241
-714.733	800.000	0.102	0.414
-713.718	279.834	0.065	-0.116
-712.704	-0.603	0.400	-0.284
-711.689	-200.000	0.004	-0.286
-710.675	800.000	-0.038	-0.124
-709.660	-200.000	0.020	0.104
-708.645	167.452	-0.094	-0.134
-707.631	30.769	0.190	-0.163
-706.616	-78.899	0.060	-0.021
-705.602	10.564	0.012	-0.009
-704.587	-72.720	0.088	0.032
-703.572	-82.299	-0.165	-0.054
-702.558	195.417	0.193	0.292
-701.543	-200.000	0.014	0.323
-700.529	800.000	-0.023	0.095
-699.514	484.476	-0.159	-0.361
-698.499	-200.000	0.004	-0.381
-697.485	133.259	0.125	-0.162
-696.470	-132.445	0.275	-0.035
-695.456	238.589	-0.233	-0.385
-694.441	-97.880	-0.105	-0.027
-693.426	-200.000	0.019	0.153
-692.412	40.885	-0.016	0.014
-691.397	-131.029	0.246	0.033
-690.383	106.614	0.089	0.105
-689.368	103.466	-0.227	0.265
-688.354	65.500	-0.135	0.136
-687.339	4.704	-0.247	-0.181
-686.324	-138.497	0.050	0.005
-685.310	800.000	0.105	0.413
-684.295	153.022	-0.063	-0.086
-683.281	-58.288	-0.175	0.076
-682.266	-73.584	0.312	0.113
-681.251	81.914	-0.270	0.291
-680.237	-131.397	0.073	-0.010
-679.222	-200.000	-0.025	-0.286
-678.208	-55.636	0.212	0.095
-677.193	585.211	-0.110	-0.269
-676.178	170.378	0.013	-0.018
-675.164	800.000	0.044	-0.186
-674.149	54.134	-0.092	0.088
-673.135	66.111	-0.128	0.130
-672.120	800.000	-0.035	-0.132
-671.105	321.450	-0.147	-0.279
-670.091	-87.511	-0.238	-0.072
-669.076	-74.248	-0.331	-0.119
-668.062	108.318	-0.024	0.028
-667.047	26.147	-0.262	-0.218
-666.032	800.000	0.113	-0.399
-665.018	8.558	-0.098	0.074
-664.003	20.594	0.141	0.113
-662.989	-40.913	0.174	0.090
-661.974	-200.000	-0.018	0.100
-660.959	-7.411	0.331	-0.223
-659.945	175.193	0.281	0.406
-658.930	19.471	-0.178	-0.143
-657.916	180.311	-0.051	-0.074
-656.901	-20.009	-0.133	-0.082
-655.886	-54.941	-0.421	0.189
-654.872	-169.974	-0.170	-0.006
-653.857	513.963	-0.080	0.185
-652.843	78.456	-0.057	-0.061
-651.828	283.977	-0.062	-0.111
-650.814	206.982	0.069	-0.108
-649.799	14.143	-0.248	-0.192
-648.784	-106.266	0.212	0.047
-647.770	-80.945	-0.278	0.092
-646.755	-200.000	-0.003	-0.058
-645.741	-200.000	-0.024	-0.201
-644.726	229.267	0.033	-0.053
-643.711	637.418	-0.073	-0.186
-642.697	-68.851	-0.250	-0.096
-641.682	-200.000	-0.123	0.000
-640.668	122.921	-0.058	-0.073
-639.653	800.000	0.062	-0.199
-638.638	-200.000	0.018	0.083
-637.624	-90.575	-0.197	-0.057
-636.609	440.594	0.085	0.186
-635.595	47.707	0.141	0.131
-634.580	427.390	-0.053	-0.113
-633.565	-97.776	0.268	0.069
-632.551	-26.466	0.085	-0.049
-631.536	210.548	-0.193	-0.302
-630.522	-131.814	0.288	-0.038
-629.507	-35.373	0.245	0.133
-628.492	-83.138	-0.230	-0.074
-627.478	-108.359	-0.040	0.009
-626.463	268.353	-0.034	-0.059
-625.449	324.434	-0.128	-0.243
-624.434	-38.578	-0.495	0.260
-623.419	512.006	-0.040	-0.093
-622.405	634.613	-0.003	-0.007
-621.390	-87.208	-0.219	-0.066
-620.376	-105.521	-0.290	0.065
-619.361	-200.000	-0.018	0.169
-618.346	-55.797	-0.097	0.043
-617.332	135.870	0.198	0.257
-616.317	800.000	-0.074	0.210
-615.303	-44.334	0.323	-0.161
-614.288	9.670	0.261	-0.197
-613.273	-2.633	0.216	-0.151
-612.259	-112.777	-0.151	-0.030
-611.244	-200.000	0.022	0.123
-610.230	11.295	0.174	0.132
-609.215	-128.536	0.195	-0.027
-608.201	-33.956	0.206	-0.113
-607.186	100.116	-0.196	-0.226
-606.171	-28.970	0.297	-0.169
-605.157	-28.507	-0.307	0.176
-604.142	-10.885	-0.201	0.132
-603.128	-15.606	-0.130	0.082
-602.113	-123.174	-0.559	0.089
-601.098	-120.438	-0.092	0.016
-600.084	-200.000	-0.026	0.361
-599.069	-143.981	-0.123	-0.011
-598.055	352.295	0.073	0.143
-597.040	99.986	-0.178	0.205
-596.025	48.516	-0.123	-0.115
-595.011	-11.508	-0.213	0.139
-593.996	-134.645	-0.120	0.015
-592.982	-14.328	0.188	-0.120
-591.967	135.111	0.203	0.262
-590.952	-164.438	-0.098	0.004
-589.938	-200.000	0.082	-0.368
-588.923	-123.232	0.287	0.046
-587.909	-200.000	0.020	0.123
-586.894	-42.262	0.129	-0.065
-585.879	-128.552	-0.447	-0.063
-584.865	-11.197	-0.037	-0.024
-583.850	-35.981	-0.191	-0.103
-582.836	-200.000	0.052	0.422
-581.821	-160.218	-0.149	-0.008
-580.806	489.938	0.108	0.246
-579.792	257.863	0.106	-0.181
-578.777	-200.000	0.045	0.207
-577.763	-40.583	0.279	0.144
-576.748	50.934	0.139	-0.131
-575.733	0.300	-0.346	0.245
-574.719	-200.000	-0.030	0.325
-573.704	0.649	-0.098	-0.069
-572.690	-41.798	-0.089	-0.045
-571.675	-32.064	-0.240	0.133
-570.661	603.354	0.023	0.057
-569.646	22.291	0.081	-0.065
-568.631	78.719	0.310	0.329
-567.617	-31.605	-0.091	0.050
-566.602	-81.755	-0.080	0.026
-565.588	-122.844	-0.414	0.066
-564.573	87.540	-0.067	0.074
-563.558	8.157	0.275	-0.205
-562.544	149.308	0.125	0.167
-561.529	-113.210	0.080	-0.016
-560.515	-144.786	-0.383	0.035
-559.500	-170.703	0.244	0.008
-558.485	-66.092	-0.136	0.054
-557.471	594.179	-0.013	-0.031
-556.456	326.048	0.251	-0.477
-555.442	68.278	0.171	0.174
-554.427	800.000	-0.083	0.359
-553.412	-200.000	-0.040	0.252
-552.398	-56.739	-0.185	-0.081
-551.383	148.457	-0.213	-0.285
-550.369	800.000	0.047	-0.158
-549.354	-87.167	-0.107	0.032
-548.339	399.819	0.032	-0.066
-547.325	-32.442	0.257	0.142
-546.310	-171.451	-0.368	0.012
-545.296	75.297	0.237	-0.248
-544.281	-200.000	0.015	-0.243
-543.266	-165.539	-0.066	0.003
-542.252	-200.000	-0.050	-0.284
-541.237	-200.000	-0.012	0.194
-540.223	800.000	-0.054	0.150
-539.208	25.571	-0.067	-0.056
-538.193	-106.011	-0.369	-0.082
-537.179	32.630	0.252	-0.216
-536.164	800.000	0.070	-0.201
-535.150	208.214	0.088	0.137
-534.135	4.645	0.066	0.048
-533.121	-200.000	-0.022	0.178
-532.106	800.000	-0.058	-0.216
-531.091	800.000	0.027	-0.115
-530.077	-200.000	0.039	-0.425
-529.062	-80.499	0.594	0.196
-528.048	-126.527	-0.148	0.022
-527.033	260.582	0.209	-0.357
-526.018	100.154	0.111	0.127
-525.004	-42.754	0.367	0.185
-523.989	71.850	0.140	-0.144
-522.975	-200.000	0.032	0.301
-521.960	-2.285	-0.033	-0.023
-520.945	800.000	0.085	0.236
-519.931	23.752	0.378	-0.308
-518.916	-79.249	0.078	0.026
-517.902	357.287	-0.132	0.261
-516.887	800.000	-0.038	-0.134
-515.872	536.314	0.088	-0.206
-514.858	175.674	0.086	0.123
-513.843	-59.408	0.140	-0.060
-512.829	-200.000	0.028	0.163
-511.814	148.070	-0.098	0.131
-510.799	-200.000	-0.026	-0.192
-509.785	-16.705	0.243	0.152
-508.770	210.146	0.279	-0.434
-507.756	-41.108	0.197	-0.101
-506.741	-66.176	0.170	-0.067
-505.726	204.976	0.131	-0.201
-504.712	-55.458	-0.161	-0.072
-503.697	-21.284	0.136	0.082
-502.683	434.617	-0.021	-0.045
-501.668	-73.553	-0.237	-0.085
-500.653	-200.000	0.023	-0.552
-499.639	-200.000	-0.027	0.127
-498.624	-115.126	0.317	-0.059
-497.610	198.289	0.013	-0.020
-496.595	82.219	0.185	0.199
-495.581	417.232	-0.097	0.205
-494.566	800.000	-0.113	0.331
-493.551	-61.401	-0.118	0.049
-492.537	800.000	0.037	-0.120
-491.522	-200.000	0.002	-0.024
-490.508	-79.356	-0.124	-0.042
-489.493	9.023	-0.275	0.205
-488.478	-200.000	0.107	-0.525
-487.464	-200.000	-0.051	0.239
-486.449	43.080	0.145	0.131
-485.435	-106.840	-0.148	-0.033
-484.420	272.138	0.099	-0.173
-483.405	-200.000	0.000	0.071
-482.391	800.000	0.071	0.250
-481.376	-11.385	-0.063	-0.041
-480.362	76.536	-0.035	-0.037
-479.347	697.586	0.056	-0.146
-478.332	-37.853	-0.104	-0.055
-477.318	-129.967	0.377	-0.051
-476.303	-69.648	0.043	0.016
-475.289	-200.000	0.003	-0.236
-474.274	-145.709	0.435	-0.038
-473.259	19.371	0.245	0.195
-472.245	716.138	-0.022	-0.058
-471.230	-177.054	0.397	-0.010
-470.216	-134.178	-0.321	-0.039
-469.201	586.530	-0.022	-0.054
-468.186	174.218	-0.051	-0.073
-467.172	-79.493	0.259	0.087
-466.157	-163.656	-0.239	0.011
-465.143	95.618	-0.241	0.272
-464.128	-51.060	-0.210	-0.097
-463.113	-200.000	0.034	-0.357
-462.099	800.000	-0.007	-0.023
-461.084	800.000	0.055	0.211
-460.070	-49.860	0.123	-0.058
-459.055	328.131	-0.108	0.205
-458.040	342.272	-0.079	0.153
-457.026	-200.000	0.077	0.528
-456.011	-48.262	0.194	0.093
-454.997	-200.000	0.022	0.206
-453.982	-200.000	0.030	0.178
-452.968	-127.082	0.293	0.042
-451.953	162.394	-0.164	0.227
-450.938	363.941	-0.148	-0.294
-449.924	800.000	0.037	0.110
-448.909	800.000	0.046	-0.189
-447.895	-200.000	-0.070	-0.305
-446.880	-39.487	-0.055	-0.029
-445.865	800.000	-0.075	-0.237
-444.851	-200.000	0.090	0.438
-443.836	182.250	-0.193	0.281
-442.822	45.717	0.079	-0.072
-441.807	252.510	0.133	0.224
-440.792	-200.000	-0.005	-0.326
-439.778	152.332	-0.058	-0.078
-438.763	-200.000	-0.012	0.083
-437.749	-200.000	-0.017	-0.221
-436.734	35.472	-0.068	-0.059
-435.719	45.169	0.062	0.056
-434.705	-200.000	-0.011	-0.116
-433.690	520.841	0.100	-0.232
-432.676	207.200	0.252	-0.388
-431.661	-124.518	-0.237	0.036
-430.646	206.989	-0.064	0.099
-429.632	136.404	-0.013	0.017
-428.617	685.412	-0.053	-0.136
-427.603	-200.000	-0.014	0.215
-426.588	-147.153	-0.219	-0.018
-425.573	60.490	-0.151	0.148
-424.559	-79.603	-0.143	0.048
-423.544	699.962	-0.033	0.085
-422.530	210.713	0.046	0.072
-421.515	-12.989	-0.180	0.116
-420.500	-137.913	-0.346	-0.038
-419.486	16.610	0.194	-0.151
-418.471	-67.075	0.159	0.062
-417.457	54.510	-0.074	-0.070
-416.442	294.037	0.094	-0.169
-415.428	-56.427	-0.226	0.099
-414.413	800.000	0.038	0.114
-413.398	20.270	-0.118	0.094
-412.384	800.000	-0.067	-0.283
-411.369	-113.686	-0.021	-0.004
-410.355	-49.153	0.131	-0.062
-409.340	-200.000	0.001	0.014
-408.325	800.000	-0.022	-0.071
-407.311	76.283	0.045	0.047
-406.296	401.659	-0.059	-0.123
-405.282	400.313	0.108	-0.223
-404.267	-200.000	0.002	-0.128
-403.252	86.457	-0.103	-0.112
-402.238	129.463	0.080	0.101
-401.223	800.000	0.018	-0.059
-400.209	800.000	0.056	0.219
-399.194	-187.087	-0.342	0.005
-398.179	-200.000	0.004	0.137
-397.165	-200.000	-0.011	0.118
-396.150	800.000	-0.037	0.154
-395.136	88.885	0.133	0.146
-394.121	272.950	-0.087	-0.152
-393.106	-10.035	0.316	0.207
-392.092	-200.000	-0.007	0.063
-391.077	140.083	-0.100	-0.130
-390.063	282.548	0.238	-0.421
-389.048	144.454	-0.242	-0.319
-388.033	-91.172	0.317	-0.090
-387.019	629.425	0.059	-0.148
-386.004	7.842	0.196	-0.145
-384.990	-132.783	0.231	-0.029
-383.975	-48.286	-0.403	-0.192
-382.960	-200.000	0.052	-0.316
-381.946	646.291	0.023	-0.058
-380.931	-200.000	0.010	0.063
-379.917	-15.688	-0.206	0.130
-378.902	-200.000	-0.008	-0.138
-377.888	-78.170	0.493	0.167
-376.873	219.521	0.219	-0.346
-375.858	99.890	0.192	0.220
-374.844	-143.469	-0.284	0.027
-373.829	-114.702	-0.329	0.062
-372.815	-46.230	-0.321	0.156
-371.800	-76.413	-0.204	0.071
-370.785	-122.330	0.291	-0.047
-369.771	325.845	-0.126	0.237
-368.756	-85.697	0.070	0.021
-367.742	157.469	-0.264	0.360
-366.727	-200.000	-0.095	0.767
-365.712	123.370	-0.244	0.301
-364.698	385.474	0.075	-0.152
-363.683	585.289	-0.075	-0.183
-362.669	99.827	0.004	-0.005
-361.654	-200.000	-0.001	0.009
-360.639	-180.456	-0.333	-0.007
-359.625	-48.856	0.223	0.105
-358.610	27.918	-0.083	-0.069
-357.596	-200.000	0.001	-0.048
-356.581	-200.000	-0.012	0.099
-355.566	202.177	-0.136	-0.206
-354.552	489.122	0.062	-0.140
-353.537	-200.000	0.020	-0.345
-352.523	-53.862	0.288	-0.129
-351.508	117.701	0.024	-0.029
-350.493	-200.000	0.016	-0.456
-349.479	-200.000	-0.000	0.136
-348.464	-6.035	0.305	-0.205
-347.450	345.296	0.077	-0.149
-346.435	-43.913	-0.505	0.250
-345.420	213.463	-0.068	-0.106
-344.406	800.000	-0.086	0.264
-343.391	800.000	0.017	0.071
-342.377	-200.000	-0.045	-0.276
-341.362	-200.000	0.014	-0.216
-340.348	-27.959	-0.138	0.078
-339.333	-80.298	0.466	0.153
-338.318	328.565	-0.229	0.432
-337.304	-40.126	-0.210	-0.108
-336.289	-200.000	0.001	0.040
-335.275	-80.922	0.177	-0.058
-334.260	208.999	-0.066	0.102
-333.245	-80.824	-0.279	-0.091
-332.231	-129.376	-0.271	0.037
-331.216	-107.287	-0.233	-0.050
-330.202	-38.534	0.222	-0.115
-329.187	-47.751	0.321	-0.153
-328.172	800.000	0.059	0.221
-327.158	73.887	-0.050	0.052
-326.143	171.786	-0.180	0.254
-325.129	-200.000	-0.004	-0.068
-324.114	800.000	-0.062	0.168
-323.099	70.975	-0.132	0.135
-322.085	387.425	0.111	0.225
-321.070	-200.000	0.068	0.420
-320.056	-170.758	0.271	-0.009
-319.041	-115.633	0.219	0.040
-318.026	-200.000	0.035	-0.300
-317.012	-200.000	0.021	-0.108
-315.997	-127.129	-0.252	0.036
-314.983	800.000	0.045	0.160
-313.968	-85.676	-0.156	-0.048
-312.953	-19.505	0.329	0.200
-311.939	-200.000	0.038	-0.187
-310.924	800.000	0.065	-0.258
-309.910	800.000	-0.037	0.120
-308.895	107.540	-0.168	0.197
-307.880	-200.000	-0.003	0.175
-306.866	199.798	-0.136	0.204
-305.851	75.336	-0.080	-0.083
-304.837	-122.679	0.162	-0.026
-303.822	800.000	0.036	-0.136
-302.807	166.241	0.263	0.366
-301.793	-123.274	-0.234	0.037
-300.778	-31.945	-0.283	0.155
-299.764	-166.757	0.142	-0.006
-298.749	303.014	-0.157	-0.285
-297.735	-200.000	0.023	-0.146
-296.720	-159.298	0.219	-0.012
-295.705	800.000	0.098	-0.338
-294.691	88.055	0.150	0.164
-293.676	207.669	-0.049	-0.075
-292.662	-172.719	0.187	0.006
-291.647	44.013	-0.119	0.107
-290.632	-200.000	-0.034	-0.290
-289.618	-177.129	-0.126	-0.003
-288.603	-118.690	-0.289	0.050
-287.589	56.749	0.441	0.421
-286.574	119.797	0.059	-0.072
-285.559	-71.740	0.119	0.044
-284.545	800.000	-0.031	0.087
-283.530	-110.119	0.230	0.047
-282.516	-176.478	0.259	-0.007
-281.501	-3.956	-0.063	0.043
-280.486	-133.976	-0.426	-0.052
-279.472	800.000	-0.026	-0.097
-278.457	-2.028	0.294	0.203
-277.443	-173.781	0.218	-0.006
-276.428	-94.482	-0.333	-0.089
-275.413	-153.926	-0.151	0.010
-274.399	182.762	0.158	0.229
-273.384	-105.138	-0.163	-0.036
-272.370	-97.097	0.142	-0.036
-271.355	-87.836	0.505	0.149
-270.340	559.723	0.085	0.201
-269.326	-87.031	0.149	0.045
-268.311	-200.000	-0.041	-0.205
-267.297	-90.099	0.312	0.089
-266.282	-1.598	0.220	-0.152
-265.267	40.381	-0.394	-0.348
-264.253	-200.000	-0.005	0.020
-263.238	-200.000	0.001	-0.149
-262.224	-174.574	-0.118	-0.003
-261.209	800.000	-0.153	0.425
-260.195	165.991	0.053	0.074
-259.180	69.841	-0.226	0.228
-258.165	800.000	0.049	-0.161
-257.151	453.790	-0.071	0.154
-256.136	26.368	-0.112	0.092
-255.122	571.555	-0.042	-0.101
-254.107	90.432	-0.109	0.120
-253.092	-96.968	-0.069	-0.018
-252.078	-117.644	0.443	0.078
-251.063	165.028	-0.195	-0.270
-250.049	-16.333	0.167	0.104
-249.034	-119.488	-0.273	0.046
-248.019	-34.330	-0.260	-0.140
-247.005	-143.301	0.361	-0.034
-245.990	60.495	0.335	0.326
-244.976	77.642	-0.233	-0.244
-243.961	-200.000	-0.034	-0.274
-242.946	-200.000	0.034	0.211
-241.932	-112.353	-0.372	-0.073
-240.917	-200.000	-0.021	-0.199
-239.903	90.055	-0.065	0.071
-238.888	-139.751	-0.402	-0.042
-237.873	-104.045	-0.256	-0.059
-236.859	105.423	0.190	-0.220
-235.844	-5.094	-0.204	0.137
-234.830	-130.964	0.335	0.044
-233.815	31.629	0.147	0.124
-232.800	-200.000	0.001	-0.225
-231.786	174.693	-0.096	0.136
-230.771	-64.060	0.330	0.132
-229.757	40.090	0.130	0.114
-228.742	-200.000	0.004	0.278
-227.727	248.041	0.101	-0.167
-226.713	740.272	0.020	0.051
-225.698	800.000	-0.025	-0.082
-224.684	-121.900	0.285	0.046
-223.669	687.286	0.108	0.277
-222.655	-94.115	0.392	0.105
-221.640	195.465	-0.107	0.159
-220.625	800.000	-0.018	0.067
-219.611	6.142	-0.249	-0.180
-218.596	1.067	0.217	0.152
-217.582	-61.420	-0.186	-0.077
-216.567	612.485	0.144	-0.353
-215.552	8.480	0.266	-0.196
-214.538	136.028	0.180	-0.229
-213.523	82.162	0.032	0.034
-212.509	168.178	-0.196	0.273
-211.494	291.620	0.104	-0.185
-210.479	13.557	-0.114	0.087
-209.465	-200.000	-0.646	-0.001
-208.450	-200.000	0.081	0.381
-207.436	-141.218	-0.222	-0.022
-206.421	64.868	-0.220	0.217
-205.406	-44.508	0.301	0.147
-204.392	800.000	-0.071	-0.266
-203.377	800.000	0.042	0.175
-202.363	34.371	-0.169	0.144
-201.348	21.744	-0.076	0.061
-200.333	77.692	0.122	0.127
-199.319	13.955	-0.193	-0.147
-198.304	102.552	0.150	-0.171
-197.290	67.132	0.145	0.145
-196.275	800.000	-0.047	-0.142
-195.260	224.479	-0.064	0.101
-194.246	85.650	-0.197	-0.212
-193.231	-200.000	0.013	0.195
-192.217	14.201	-0.124	-0.094
-191.202	-200.000	0.059	0.305
-190.187	-78.681	0.290	0.097
-189.173	-200.000	0.034	0.214
-188.158	171.232	0.224	-0.315
-187.144	-200.000	-0.001	0.089
-186.129	487.267	-0.136	-0.304
-185.114	800.000	-0.070	-0.215
-184.100	430.958	-0.091	0.192
-183.085	39.861	-0.285	-0.250
-182.071	100.101	-0.253	-0.287
-181.056	33.482	0.043	0.037
-180.042	-200.000	0.005	-0.050
-179.027	217.652	-0.116	-0.181
-178.012	-200.000	-0.015	0.146
-176.998	-70.233	0.352	-0.131
-175.983	-200.000	-0.002	-0.167
-174.969	2.483	0.188	-0.133
-173.954	-26.702	0.144	-0.082
-172.939	-145.187	0.126	-0.011
-171.925	472.450	0.114	-0.251
-170.910	-121.309	-0.325	0.053
-169.896	144.787	-0.123	0.160
-168.881	-3.763	-0.100	-0.068
-167.866	-127.557	-0.249	-0.035
-166.852	-200.000	-0.010	-0.159
-165.837	207.025	0.147	0.223
-164.823	-200.000	-0.038	-0.194
-163.808	-200.000	0.193	-0.001
-162.793	-7.784	0.176	-0.116
-161.779	148.948	-0.271	0.357
-160.764	114.367	-0.081	-0.096
-159.750	-80.622	0.116	-0.038
-158.735	800.000	-0.133	-0.373
-157.720	800.000	-0.030	0.091
-156.706	-163.563	0.166	0.008
-155.691	106.864	0.141	0.164
-154.677	-200.000	-0.143	0.000
-153.662	-200.000	0.033	-0.146
-152.647	-130.350	0.270	0.036
-151.633	248.876	-0.104	-0.171
-150.618	-82.769	-0.081	0.026
-149.604	-200.000	-0.012	-0.278
-148.589	-113.040	0.298	0.057
-147.574	-98.583	-0.108	-0.027
-146.560	16.126	-0.245	-0.189
-145.545	156.945	-0.152	-0.206
-144.531	383.368	0.025	0.051
-143.516	-200.000	-0.003	-0.074
-142.502	-200.000	0.031	-0.242
-141.487	225.560	-0.047	0.074
-140.472	34.002	0.100	-0.085
-139.458	-95.589	-0.155	-0.041
-138.443	32.244	0.232	0.195
-137.429	246.336	-0.085	0.140
-136.414	90.008	-0.139	0.151
-135.399	-200.000	0.028	-0.157
-134.385	-88.877	0.094	0.027
-133.370	21.618	-0.057	-0.045
-132.356	-137.255	-0.353	-0.039
-131.341	17.592	0.272	-0.211
-130.326	572.001	0.110	-0.262
-129.312	-97.481	-0.242	0.061
-128.297	-121.374	0.069	-0.011
-127.283	-170.378	0.425	-0.015
-126.268	-103.898	0.298	0.068
-125.253	-73.908	0.209	-0.074
-124.239	93.453	-0.151	-0.167
-123.224	175.426	0.074	0.105
-122.210	71.131	0.162	0.164
-121.195	-61.489	-0.140	0.057
-120.180	-147.035	0.341	0.028
-119.166	-94.297	-0.135	0.036
-118.151	800.000	0.019	0.074
-117.137	176.106	0.144	0.204
-116.122	-98.809	0.238	0.059
-115.107	-100.812	-0.095	0.023
-114.093	276.045	0.099	0.171
-113.078	223.332	0.192	0.302
-112.064	-143.163	0.340	-0.032
-111.049	-42.408	0.090	0.045
-110.034	103.994	-0.153	0.175
-109.020	292.790	0.158	-0.280
-108.005	-53.690	0.271	-0.121
-106.991	358.852	0.035	-0.069
-105.976	-54.664	0.232	-0.102
-104.962	601.951	-0.120	-0.291
-103.947	-200.000	0.051	0.428
-102.932	-104.097	0.437	0.099
-101.918	-12.079	-0.232	0.148
-100.903	-200.000	-0.005	-0.224
-99.889	800.000	0.105	-0.425
-98.874	182.737	0.272	-0.391
-97.859	-200.000	-0.036	-0.165
-96.845	-86.801	0.231	-0.069
-95.830	-120.759	0.233	-0.038
-94.816	73.069	0.018	-0.018
-93.801	-200.000	-0.052	-0.345
-92.786	492.118	-0.171	-0.382
-91.772	172.546	-0.134	-0.188
-90.757	-50.731	-0.207	0.095
-89.743	800.000	0.029	-0.112
-88.728	-200.000	-0.056	-0.251
-87.713	-15.130	0.235	0.146
-86.699	-74.530	0.130	0.045
-85.684	166.000	0.208	-0.287
-84.670	-99.586	-0.311	-0.076
-83.655	-200.000	0.029	-0.131
-82.640	-178.523	0.357	0.008
-81.626	-26.365	-0.222	-0.127
-80.611	-183.974	0.220	0.004
-79.597	45.463	0.169	-0.152
-78.582	457.941	-0.043	-0.092
-77.567	-20.813	-0.325	0.194
-76.553	323.842	-0.120	0.222
-75.538	274.624	0.058	0.100
-74.524	-200.000	-0.039	-0.308
-73.509	230.468	0.251	0.400
-72.494	800.000	0.041	0.171
-71.480	-200.000	0.001	0.021
-70.465	314.895	0.097	-0.178
-69.451	-200.000	0.016	-0.204
-68.436	35.047	0.340	-0.289
-67.422	265.183	0.074	-0.125
-66.407	-126.669	0.244	-0.035
-65.392	100.980	0.113	-0.128
-64.378	-155.027	0.372	0.024
-63.363	275.680	0.154	0.265
-62.349	-129.487	0.108	-0.015
-61.334	156.548	-1.094	-1.470
-60.319	-11.534	0.702	0.449
-59.305	800.000	-0.346	-1.349
-58.290	307.484	0.795	1.442
-57.276	800.000	0.524	1.511
-56.261	-200.000	134.896	690.443
-55.246	350.318	1670.996	3213.250
-54.232	134.619	2802.858	3537.611
-53.217	89.698	2191.722	2379.300
-52.203	31.813	1706.522	1428.972
-51.188	24.686	1528.641	1231.096
-50.173	22.918	1506.474	1201.181
-49.159	47.798	1581.430	1435.843
-48.144	44.171	1592.285	1420.319
-47.130	24.754	1540.308	1240.764
-46.115	21.961	1524.333	1208.641
-45.100	21.718	1520.991	1204.275
-44.086	21.654	1519.269	1202.423
-43.071	21.678	1516.873	1200.641
-42.057	21.588	1515.532	1198.918
-41.042	21.565	1514.693	1198.053
-40.027	21.603	1513.173	1197.059
-39.013	21.610	1511.189	1195.489
-37.998	21.563	1510.501	1194.580
-36.984	21.597	1509.149	1193.695
-35.969	21.570	1507.813	1192.406
-34.954	21.537	1506.206	1190.865
-33.940	21.517	1505.235	1189.912
-32.925	21.596	1503.587	1189.100
-31.911	21.632	1502.039	1188.069
-30.896	21.752	1501.016	1188.026
-29.881	21.701	1500.143	1186.944
-28.867	21.775	1497.715	1185.478
-27.852	21.710	1496.928	1184.367
-26.838	21.667	1495.223	1182.679
-25.823	21.639	1493.834	1181.350
-24.809	21.652	1492.283	1180.161
-23.794	21.713	1490.905	1179.438
-22.779	21.782	1489.537	1178.769
-21.765	21.720	1488.889	1177.793
-20.750	21.688	1487.810	1176.678
-19.736	21.732	1486.706	1176.053
-18.721	21.687	1485.656	1174.875
-17.706	21.679	1484.461	1173.830
-16.692	21.526	1483.835	1172.266
-15.677	21.553	1482.748	1171.536
-14.663	21.711	1481.247	1171.362
-13.648	21.578	1480.474	1169.815
-12.633	21.660	1479.466	1169.522
-11.619	21.641	1478.848	1168.857
-10.604	21.572	1478.099	1167.760
-9.590	21.644	1477.305	1167.564
-8.575	21.672	1476.220	1166.853
-7.560	21.627	1475.556	1165.978
-6.546	21.646	1474.927	1165.562
-5.531	21.662	1473.767	1164.705
-4.517	21.529	1472.708	1162.937
-3.502	21.643	1471.840	1162.966
-2.487	21.612	1470.767	1161.862
-1.473	21.666	1469.640	1161.285
-0.458	21.678	1468.112	1160.108
0.556	20.561	1458.362	1147.907
1.571	17.298	1433.925	1107.350
2.586	13.704	1371.634	1036.724
3.600	11.989	1286.999	962.602
4.615	11.280	1243.125	925.676
5.629	10.071	1186.056	876.555
6.644	5.111	1105.718	791.980
7.659	1.250	1071.504	748.393
8.673	0.763	1066.163	742.207
9.688	0.621	1063.077	739.297
10.702	0.714	1061.696	738.723
11.717	0.722	1059.182	736.949
12.731	2.262	1059.168	744.379
13.746	7.764	1066.805	776.607
14.761	14.068	1074.916	813.375
15.775	17.034	1078.458	830.518
16.790	17.009	1077.294	829.424
17.804	15.961	1075.473	822.835
18.819	15.247	1073.070	817.444
19.834	14.744	1072.282	814.316
20.848	14.544	1070.873	812.200
21.863	14.157	1070.631	810.062
22.877	14.070	1069.684	808.849
23.892	13.777	1068.726	806.631
24.907	13.696	1067.771	805.446
25.921	13.666	1067.240	804.826
26.936	13.709	1066.172	804.160
27.950	13.813	1065.611	804.171
28.965	13.831	1065.154	803.838
29.980	13.792	1063.977	802.694
30.994	13.880	1063.188	802.454
32.009	13.967	1061.994	801.900
33.023	13.977	1061.705	801.660
34.038	13.980	1060.894	800.987
35.053	13.943	1059.874	799.971
36.067	13.977	1059.040	799.432
37.082	13.878	1058.007	798.106
38.096	13.842	1057.103	797.183
39.111	13.945	1056.797	797.377
40.126	14.040	1055.231	796.580
41.140	13.849	1054.634	795.144
42.155	13.786	1053.558	793.960
43.169	13.721	1053.108	793.238
44.184	13.774	1051.833	792.461
45.199	13.729	1050.873	791.455
46.213	13.737	1049.902	790.690
47.228	13.696	1049.200	789.897
48.242	13.839	1047.907	789.534
49.257	13.869	1046.531	788.571
50.271	13.771	1046.139	787.738
51.286	13.814	1045.190	787.160
52.301	13.936	1043.914	786.703
53.315	13.848	1043.250	785.718
54.330	13.847	1042.344	784.963
55.344	13.782	1041.870	784.230
56.359	13.709	1040.709	782.943
57.374	13.751	1039.732	782.335
58.388	13.726	1038.990	781.591
59.403	13.837	1038.008	781.302
60.417	13.728	1037.441	780.298
61.432	13.758	1036.309	779.517
62.447	13.693	1035.659	778.652
63.461	13.729	1035.114	778.344
64.476	13.684	1034.343	777.486
65.490	13.678	1033.268	776.579
66.505	13.702	1033.002	776.423
67.520	13.830	1031.398	775.744
68.534	13.728	1030.714	774.686
69.549	13.734	1030.052	774.150
70.563	13.781	1029.426	773.831
71.578	13.784	1028.411	773.013
72.593	13.769	1027.624	772.281
73.607	13.840	1026.306	771.553
74.622	13.782	1025.207	770.390
75.636	13.715	1024.870	769.757
76.651	13.676	1024.431	769.177
77.666	13.790	1023.388	768.854
78.680	13.743	1022.470	767.878
79.695	13.738	1021.989	767.428
80.709	13.638	1021.912	766.837
81.724	13.805	1020.470	766.462
82.739	13.658	1019.940	765.315
83.753	13.882	1018.558	765.245
84.768	13.896	1018.099	764.898
85.782	13.866	1017.310	764.096
86.797	13.923	1016.444	763.642
87.812	13.850	1015.773	762.733
88.826	13.774	1015.272	761.943
89.841	13.824	1013.826	761.017
90.855	13.929	1012.906	760.741
91.870	13.901	1012.595	760.313
92.884	13.887	1011.825	759.602
93.899	13.975	1011.357	759.589
94.914	14.055	1010.088	758.933
95.928	13.984	1009.812	758.331
96.943	14.030	1008.662	757.614
97.957	14.030	1007.621	756.763
98.972	13.997	1007.268	756.281
99.987	14.054	1006.422	755.839
101.001	14.072	1005.562	755.208
102.016	14.014	1004.707	754.234
103.030	13.966	1004.104	753.499
104.045	13.937	1003.246	752.656
105.060	13.890	1002.697	751.967
106.074	13.888	1001.481	750.978
107.089	13.794	1000.661	749.872
108.103	13.855	999.727	749.379
109.118	13.859	998.760	748.606
110.133	13.769	997.949	747.526
111.147	13.925	996.893	747.372
112.162	13.869	995.757	746.205
113.176	13.850	995.076	745.542
114.191	13.736	994.514	744.544
115.206	14.045	993.058	744.770
116.220	14.006	992.456	744.079
117.235	13.864	991.799	742.885
118.249	13.868	990.761	742.062
119.264	13.799	990.310	741.351
120.279	13.846	989.355	740.778
121.293	13.880	988.744	740.407
122.308	13.885	987.855	739.697
123.322	13.817	987.052	738.729
124.337	13.777	986.086	737.761
125.352	13.725	985.135	736.755
126.366	13.778	983.680	735.834
127.381	13.930	982.492	735.554
128.395	14.067	981.437	735.308
129.410	13.913	980.378	733.765
130.424	13.804	979.632	732.664
131.439	13.827	978.788	732.067
132.454	13.840	977.905	731.401
133.468	13.833	977.287	730.844
134.483	13.909	976.471	730.501
135.497	13.889	975.812	729.856
136.512	13.855	975.169	729.162
137.527	13.914	974.417	728.792
138.541	13.809	973.714	727.743
139.556	13.986	972.412	727.482
140.570	13.974	972.255	727.248
141.585	14.000	971.225	726.525
142.600	13.947	970.713	725.847
143.614	13.986	970.058	725.463
144.629	14.138	969.020	725.287
145.643	14.228	968.043	724.882
146.658	14.093	967.672	723.954
147.673	14.007	966.987	723.001
148.687	13.974	965.777	721.888
149.702	14.039	964.838	721.406
150.716	14.012	964.008	720.605
151.731	13.883	963.310	719.462
152.746	13.867	963.038	719.123
153.760	13.987	962.012	718.815
154.775	14.018	961.134	718.227
155.789	14.273	959.785	718.254
156.804	14.256	958.990	717.526
157.819	14.151	958.415	716.580
158.833	14.123	957.913	716.021
159.848	14.233	957.234	715.920
160.862	14.222	956.754	715.454
161.877	14.266	955.983	715.001
162.892	14.248	954.784	713.962
163.906	14.051	954.437	712.795
164.921	14.134	953.726	712.559
165.935	13.987	952.858	711.216
166.950	14.189	951.631	711.103
167.964	14.238	950.480	710.388
168.979	14.267	949.357	709.611
169.994	14.122	948.749	708.475
171.008	14.137	948.015	707.928
172.023	14.149	947.468	707.507
173.037	14.135	946.610	706.747
174.052	14.269	945.866	706.696
175.067	14.370	945.016	706.429
176.081	14.207	944.401	705.213
177.096	14.183	943.389	704.295
178.110	14.239	942.740	703.984
179.125	14.245	941.712	703.178
180.140	14.211	941.089	702.510
181.154	14.392	939.549	702.059
182.169	14.420	939.264	701.901
183.183	14.415	938.693	701.394
184.198	14.457	937.631	700.713
185.213	14.515	937.288	700.639
186.227	14.407	936.999	699.906
187.242	14.570	936.392	700.075
188.256	14.551	935.517	699.281
189.271	14.557	934.688	698.625
190.286	14.529	933.776	697.765
191.300	14.562	932.804	697.115
192.315	14.380	932.722	696.231
193.329	14.352	931.831	695.385
194.344	14.382	931.002	694.831
195.359	14.483	930.383	694.728
196.373	14.417	929.991	694.100
197.388	14.483	929.610	694.027
198.402	14.581	928.796	693.765
199.417	14.623	928.530	693.682
200.432	14.669	928.092	693.484
201.446	14.688	927.381	692.969
202.461	14.822	926.919	693.121
203.475	14.878	926.157	692.718
204.490	14.799	925.405	691.769
205.504	14.745	924.919	691.123
206.519	14.851	923.826	690.681
207.534	14.752	923.470	689.947
208.548	14.480	922.931	688.360
209.563	14.698	921.924	688.444
210.577	14.729	921.153	687.938
211.592	14.603	920.783	687.082
212.607	14.749	919.940	686.991
213.621	14.920	919.072	686.987
214.636	14.865	918.298	686.118
215.650	14.785	918.078	685.567
216.665	14.897	917.196	685.304
217.680	14.792	916.939	684.625
218.694	14.915	916.367	684.639
219.709	14.919	915.635	684.050
220.723	14.930	915.312	683.792
221.738	14.999	914.104	683.109
222.753	15.042	913.376	682.679
223.767	14.940	913.064	681.970
224.782	15.031	911.840	681.367
225.796	15.117	911.061	681.076
226.811	15.140	910.654	680.803
227.826	15.076	909.880	679.904
228.840	14.901	909.549	678.888
229.855	15.117	908.712	679.077
230.869	15.153	907.785	678.472
231.884	15.084	907.451	677.881
232.899	15.118	906.843	677.508
233.913	15.033	906.056	676.513
234.928	15.044	905.181	675.844
235.942	15.101	904.452	675.470
236.957	14.985	903.968	674.581
237.972	15.064	903.240	674.298
238.986	15.059	902.613	673.750
240.001	15.138	901.820	673.417
241.015	14.921	901.895	672.541
242.030	15.222	900.628	672.744
243.045	15.144	899.830	671.774
244.059	15.258	899.597	671.998
245.074	15.074	898.978	670.742
246.088	15.274	898.032	670.777
247.103	15.255	897.645	670.349
248.117	15.251	896.847	669.679
249.132	15.308	896.197	669.364
250.147	15.314	895.591	668.874
251.161	15.343	895.140	668.593
252.176	15.485	894.269	668.450
253.190	15.477	893.628	667.881
254.205	15.570	893.116	667.810
255.220	15.614	891.952	667.055
256.234	15.485	891.579	666.205
257.249	15.670	890.869	666.346
258.263	15.579	890.733	665.824
259.278	15.687	889.596	665.344
260.293	15.670	889.192	664.915
261.307	15.628	889.032	664.573
262.322	15.535	888.655	663.865
263.336	15.711	887.460	663.606
264.351	15.660	887.086	663.068
265.366	15.770	886.375	662.909
266.380	15.710	885.746	662.146
267.395	15.790	885.171	661.970
268.409	15.710	884.723	661.265
269.424	15.727	883.418	660.295
270.439	15.878	882.876	660.424
271.453	15.865	882.137	659.763
272.468	15.724	881.659	658.795
273.482	15.787	880.440	658.073
274.497	15.797	880.123	657.817
275.512	15.949	878.949	657.474
276.526	15.852	878.793	656.919
277.541	15.795	878.241	656.226
278.555	15.907	877.525	656.070
279.570	15.809	877.302	655.463
280.585	15.883	876.579	655.154
281.599	15.917	876.147	654.905
282.614	15.966	874.769	654.008
283.628	16.032	874.443	653.962
284.643	15.957	874.106	653.360
285.657	15.953	873.643	652.944
286.672	15.970	872.941	652.427
287.687	16.081	872.297	652.316
288.701	15.977	872.056	651.674
289.716	16.113	870.863	651.250
290.730	16.070	870.341	650.638
291.745	16.077	870.280	650.560
292.760	16.144	869.366	650.078
293.774	16.205	868.460	649.579
294.789	16.125	868.167	648.996
295.803	16.199	867.137	648.450
296.818	16.173	866.530	647.839
297.833	16.157	866.170	647.455
298.847	16.223	865.410	647.079
299.862	16.154	864.513	646.088
300.876	16.285	863.969	646.125
301.891	16.200	863.348	645.277
302.906	16.402	862.724	645.526
303.920	16.239	862.283	644.516
304.935	16.343	861.658	644.389
305.949	16.400	861.146	644.170
306.964	16.414	860.316	643.543
307.979	16.348	859.544	642.657
308.993	16.408	859.200	642.571
310.008	16.499	858.624	642.432
311.022	16.440	858.050	641.719
312.037	16.386	857.558	641.091
313.052	16.532	856.969	641.148
314.066	16.449	856.831	640.672
315.081	16.401	855.963	639.785
316.095	16.550	855.489	639.938
317.110	16.467	854.925	639.147
318.125	16.522	854.238	638.784
319.139	16.436	853.830	638.095
320.154	16.513	853.398	638.008
321.168	16.545	852.540	637.431
322.183	16.428	851.934	636.479
323.197	16.498	851.897	636.659
324.212	16.418	850.967	635.610
325.227	16.632	850.359	635.901
326.241	16.664	849.837	635.574
327.256	16.542	849.425	634.751
328.270	16.594	849.023	634.591
329.285	16.716	847.912	634.162
330.300	16.667	847.634	633.714
331.314	16.680	847.175	633.364
332.329	16.616	846.323	632.431
333.343	16.661	845.602	632.005
334.358	16.776	845.326	632.170
335.373	16.682	845.088	631.586
336.387	16.745	844.185	631.092
337.402	16.814	843.826	631.023
338.416	16.967	842.807	630.773
339.431	16.987	842.334	630.441
340.446	16.840	841.912	629.522
341.460	16.852	841.315	629.064
342.475	16.915	840.878	628.917
343.489	17.022	840.170	628.729
344.504	17.027	839.802	628.416
345.519	17.015	839.131	627.813
346.533	17.044	838.855	627.657
347.548	17.028	838.326	627.147
348.562	16.958	838.012	626.599
349.577	17.018	837.472	626.362
350.592	16.844	836.921	625.251
351.606	16.951	836.313	625.136
352.621	17.005	835.702	624.824
353.635	16.980	835.297	624.371
354.650	17.020	834.703	624.020
355.665	17.123	834.269	624.021
356.679	17.172	833.902	623.869
357.694	17.082	833.470	623.160
358.708	17.191	832.656	622.898
359.723	17.165	832.159	622.375
360.738	17.127	831.839	621.943
361.752	17.171	831.293	621.638
362.767	17.120	830.825	621.047
363.781	17.130	830.705	620.938
364.796	17.202	830.305	620.849
365.810	17.264	829.494	620.412
366.825	17.391	828.843	620.333
367.840	17.402	828.703	620.214
368.854	17.403	828.242	619.819
369.869	17.494	827.594	619.611
370.883	17.431	826.891	618.799
371.898	17.595	826.366	618.948
372.913	17.431	826.051	618.061
373.927	17.467	825.490	617.720
374.942	17.385	824.967	616.973
375.956	17.530	823.967	616.698
376.971	17.410	823.801	616.086
377.986	17.571	822.753	615.829
379.000	17.520	822.746	615.584
380.015	17.612	822.079	615.363
381.029	17.498	821.842	614.717
382.044	17.547	821.044	614.246
383.059	17.784	820.240	614.443
384.073	17.686	819.819	613.721
385.088	17.630	819.693	613.369
386.102	17.603	818.643	612.434
387.117	17.493	818.299	611.725
388.132	17.437	818.341	611.503
389.146	17.617	817.701	611.618
390.161	17.693	817.111	611.391
391.175	17.757	816.846	611.369
392.190	17.717	816.339	610.793
393.205	17.848	815.376	610.488
394.219	17.648	815.466	609.785
395.234	17.708	814.817	609.462
396.248	17.863	814.006	609.352
397.263	17.754	813.714	608.691
398.278	17.810	813.071	608.355
399.292	17.664	813.015	607.740
400.307	17.799	812.590	607.849
401.321	17.740	812.101	607.221
402.336	17.677	811.679	606.626
403.350	17.862	811.138	606.826
404.365	17.849	810.768	606.448
405.380	17.758	810.476	605.853
406.394	17.825	809.935	605.635
407.409	18.079	809.035	605.807
408.423	17.927	808.963	605.162
409.438	18.064	808.599	605.320
410.453	18.002	808.032	604.626
411.467	17.967	807.525	604.069
412.482	18.130	806.751	604.011
413.496	18.015	806.707	603.518
414.511	18.065	806.275	603.317
415.526	18.259	805.698	603.516
416.540	18.172	805.587	603.075
417.555	18.263	805.105	602.979
418.569	18.182	804.857	602.456
419.584	18.216	803.918	601.820
420.599	18.261	803.563	601.661
421.613	115.688	1299.813	1490.965
422.628	99.919	1372.040	1491.036
