DTS Sentinel unit serial number:	SN413079Multiplexer serial number:	ORYXHardware model number:	OX4-SRSoftware version number:	ORYX F/W v4.00 Oryx Data Collector v3.7.2.0data status	okinstallation	princeton_trtdifferential loss correction	single-endedforward channel	channel 3reverse channel	N/Adate	2019/09/16time	17:04:35forward acquisition time	60.00reverse acquisition time	0.00gamma	496.2192k internal	0.2296k external	0.2296temperature offset calibration	0.9948default loss term (dB/km)	0.3790temperature slope calibration	1.0000multiplexer offset coefficient	1.0000multiplexer slope coefficient	1.0000fibre end	0.00T internal ref (°C)	39.19T ext. ref 1 (°C)	15.31T ext. ref 2 (°C)	33.42length (m)	temperature (°C)	Stokes	anti-Stokes-747.200	252.587	0.280	0.488
-746.185	-128.432	-0.167	-0.024
-745.171	-200.000	-0.009	0.238
-744.156	-80.418	-0.235	-0.080
-743.142	77.531	0.237	0.257
-742.127	-200.000	-0.025	0.156
-741.112	-200.000	-0.001	-0.044
-740.098	-115.932	0.184	0.035
-739.083	-200.000	-0.031	-0.181
-738.069	-200.000	0.052	0.308
-737.054	-137.115	-0.291	-0.034
-736.039	-200.000	-0.006	0.389
-735.025	-57.180	0.382	-0.172
-734.010	561.492	-0.174	0.430
-732.996	395.204	-0.097	0.206
-731.981	114.774	-0.133	-0.165
-730.966	144.041	-0.302	-0.412
-729.952	-20.793	-0.135	-0.084
-728.937	-200.000	0.367	0.002
-727.923	369.253	0.066	-0.137
-726.908	-152.795	-0.096	-0.007
-725.894	-200.000	-0.047	-0.288
-724.879	88.703	-0.106	0.120
-723.864	800.000	-0.096	0.303
-722.850	-200.000	-0.027	-0.137
-721.835	-69.968	0.298	-0.116
-720.821	236.465	0.058	-0.099
-719.806	1.119	-0.197	-0.145
-718.791	-200.000	0.045	0.344
-717.777	-137.870	0.009	0.001
-716.762	-200.000	-0.059	-0.277
-715.748	-87.868	-0.224	-0.069
-714.733	-59.639	-0.241	-0.106
-713.718	-98.250	-0.286	-0.075
-712.704	123.324	0.186	-0.237
-711.689	-142.767	0.142	0.014
-710.675	-200.000	0.049	-0.464
-709.660	-123.943	-0.199	0.032
-708.645	15.879	-0.152	-0.122
-707.631	17.956	-0.177	-0.144
-706.616	-80.002	0.472	0.162
-705.602	-200.000	-0.037	-0.202
-704.587	-200.000	-0.023	-0.243
-703.572	800.000	-0.068	-0.297
-702.558	-21.765	0.101	-0.062
-701.543	-121.207	-0.355	-0.061
-700.529	-66.964	0.167	0.067
-699.514	68.139	-0.248	-0.259
-698.499	65.070	0.258	-0.266
-697.485	-173.755	0.196	0.006
-696.470	442.486	0.089	0.199
-695.456	94.340	0.237	-0.275
-694.441	8.955	-0.175	-0.134
-693.426	583.115	-0.079	0.198
-692.412	114.997	0.204	0.254
-691.397	204.357	0.060	0.096
-690.383	-113.103	-0.297	0.060
-689.368	-123.238	-0.355	-0.058
-688.354	-64.949	0.125	0.051
-687.339	-5.530	-0.196	0.137
-686.324	20.673	0.105	0.086
-685.310	348.123	-0.131	-0.262
-684.295	154.251	-0.056	0.078
-683.281	242.992	-0.097	-0.165
-682.266	78.138	-0.216	-0.235
-681.251	-200.000	-0.036	0.216
-680.237	-196.999	0.165	0.001
-679.222	-200.000	0.059	-0.271
-678.208	109.385	-0.183	-0.223
-677.193	-200.000	-0.070	0.337
-676.178	11.215	-0.153	-0.119
-675.164	-200.000	-0.042	-0.282
-674.149	200.668	-0.084	0.132
-673.135	-200.000	0.304	0.001
-672.120	202.751	-0.060	-0.095
-671.105	-59.993	0.083	-0.036
-670.091	-200.000	0.008	0.038
-669.076	-39.675	0.030	-0.016
-668.062	10.149	0.127	0.098
-667.047	-87.535	0.216	-0.066
-666.032	210.127	-0.052	-0.083
-665.018	66.844	0.030	0.032
-664.003	-200.000	0.026	-0.119
-662.989	-7.063	0.222	0.153
-661.974	-109.170	-0.263	0.057
-660.959	-200.000	0.001	0.115
-659.945	-200.000	0.025	0.147
-658.930	17.878	0.116	0.094
-657.916	-200.000	0.037	-0.257
-656.901	-53.902	0.385	-0.178
-655.886	-117.455	0.505	-0.093
-654.872	427.099	0.072	0.159
-653.857	168.658	0.222	0.322
-652.843	-16.841	0.361	-0.233
-651.828	-200.000	0.026	0.229
-650.814	-200.000	0.046	-0.408
-649.799	-52.476	0.065	0.031
-648.784	-98.944	-0.219	0.057
-647.770	-90.235	0.183	-0.054
-646.755	100.916	-0.063	0.075
-645.741	-200.000	-0.003	-0.204
-644.726	-97.891	0.109	-0.029
-643.711	7.348	-0.233	-0.177
-642.697	-93.153	-0.033	-0.009
-641.682	-200.000	-0.016	-0.097
-640.668	-200.000	0.024	0.282
-639.653	-200.000	0.015	0.119
-638.638	800.000	-0.044	-0.176
-637.624	497.920	-0.114	-0.268
-636.609	-68.117	-0.356	-0.141
-635.595	-200.000	-0.024	-0.115
-634.580	800.000	0.089	0.336
-633.565	-61.892	-0.129	0.055
-632.551	76.425	-0.247	-0.267
-631.536	-59.117	-0.324	0.142
-630.522	-1.109	0.364	-0.262
-629.507	-29.307	-0.165	0.096
-628.492	-200.000	0.014	0.114
-627.478	800.000	-0.037	0.122
-626.463	-22.861	-0.114	0.070
-625.449	-82.100	0.153	0.051
-624.434	-200.000	-0.047	-0.338
-623.419	-71.131	-0.032	-0.012
-622.405	183.157	-0.158	0.238
-621.390	-48.038	0.294	-0.145
-620.376	-200.000	0.003	-0.242
-619.361	-139.289	-0.063	0.007
-618.346	294.707	-0.028	-0.051
-617.332	168.719	0.233	-0.338
-616.317	284.344	0.105	-0.193
-615.303	-200.000	-0.019	-0.103
-614.288	-200.000	-0.009	-0.251
-613.273	6.283	-0.012	0.009
-612.259	-141.930	-0.155	0.016
-611.244	284.785	-0.078	0.142
-610.230	-200.000	-0.025	-0.111
-609.215	267.318	-0.091	0.162
-608.201	49.175	0.154	0.147
-607.186	88.797	0.018	0.021
-606.171	800.000	-0.084	-0.344
-605.157	-154.058	0.211	0.015
-604.142	514.983	0.144	0.342
-603.128	800.000	-0.036	0.136
-602.113	-200.000	-0.450	-0.002
-601.098	-84.474	-0.238	0.076
-600.084	-25.655	0.144	0.086
-599.069	-11.001	-0.179	-0.120
-598.055	-200.000	0.020	-0.304
-597.040	-169.866	0.165	-0.006
-596.025	-200.000	-0.015	0.356
-595.011	335.483	0.096	0.189
-593.996	795.087	0.154	-0.432
-592.982	800.000	-0.010	-0.037
-591.967	-70.762	0.298	-0.114
-590.952	353.754	0.130	-0.262
-589.938	-100.559	-0.273	-0.069
-588.923	-121.155	-0.426	0.072
-587.909	800.000	0.048	-0.164
-586.894	-31.885	0.189	-0.108
-585.879	379.905	0.088	0.182
-584.865	68.772	0.059	0.062
-583.850	318.917	-0.085	-0.164
-582.836	109.076	0.076	-0.093
-581.821	-200.000	0.032	-0.231
-580.806	-111.860	-0.086	0.018
-579.792	7.017	0.154	-0.117
-578.777	-172.751	-0.235	0.007
-577.763	-35.723	0.307	0.169
-576.748	-36.078	0.152	0.083
-575.733	59.966	-0.319	-0.320
-574.719	-200.000	-0.048	-0.308
-573.704	168.141	0.211	-0.305
-572.690	-200.000	0.017	-0.397
-571.675	800.000	-0.168	-0.484
-570.661	-68.586	0.261	-0.102
-569.646	800.000	-0.030	-0.090
-568.631	36.821	0.076	-0.068
-567.617	-126.470	-0.130	-0.020
-566.602	-19.650	-0.234	0.147
-565.588	-51.526	0.402	-0.191
-564.573	-200.000	0.007	-0.442
-563.558	-11.137	0.210	0.140
-562.544	-122.302	0.267	0.044
-561.529	-200.000	-0.021	0.367
-560.515	-10.532	-0.248	-0.167
-559.500	-200.000	0.011	0.092
-558.485	-200.000	0.009	-0.076
-557.471	-86.680	0.383	-0.119
-556.456	18.818	0.026	-0.021
-555.442	561.892	-0.157	0.385
-554.427	53.207	0.194	0.188
-553.412	-200.000	0.045	0.284
-552.398	800.000	0.037	-0.144
-551.383	16.287	0.083	0.067
-550.369	-200.000	0.037	-0.266
-549.354	-200.000	-0.062	0.443
-548.339	-200.000	0.006	0.128
-547.325	146.389	0.106	-0.144
-546.310	-111.600	0.209	-0.043
-545.296	-81.300	-0.088	-0.029
-544.281	-72.059	-0.173	0.065
-543.266	111.808	0.309	0.378
-542.252	47.319	0.313	0.295
-541.237	197.876	-0.125	0.193
-540.223	77.503	-0.122	-0.132
-539.208	501.239	-0.186	-0.436
-538.193	-105.791	0.320	-0.073
-537.179	106.771	0.154	-0.186
-536.164	-68.519	-0.110	-0.043
-535.150	800.000	0.113	-0.486
-534.135	27.328	0.167	-0.142
-533.121	21.379	0.117	-0.096
-532.106	-200.000	-0.029	0.146
-531.091	-126.854	0.399	0.060
-530.077	-200.000	0.035	0.215
-529.062	246.548	-0.159	0.271
-528.048	-42.019	0.288	-0.149
-527.033	511.769	0.036	-0.086
-526.018	-6.043	0.092	0.064
-525.004	-173.833	-0.228	0.007
-523.989	-42.489	-0.197	-0.102
-522.975	-40.976	-0.151	-0.079
-521.960	-53.309	-0.101	-0.047
-520.945	6.745	0.302	0.228
-519.931	-25.560	-0.127	-0.076
-518.916	-47.431	-0.209	-0.103
-517.902	-6.974	-0.405	0.279
-516.887	485.917	-0.068	0.157
-515.872	7.088	-0.078	0.059
-514.858	-11.488	0.134	-0.089
-513.843	647.281	-0.094	0.242
-512.829	-125.637	-0.310	0.048
-511.814	-200.000	-0.078	-0.417
-510.799	91.194	-0.120	-0.136
-509.785	-200.000	-0.001	-0.145
-508.770	-4.687	0.207	0.145
-507.756	85.502	0.114	0.126
-506.741	204.513	0.074	-0.115
-505.726	-119.180	-0.530	-0.094
-504.712	-67.786	0.187	-0.074
-503.697	161.004	-0.093	-0.132
-502.683	-4.349	0.201	-0.141
-501.668	226.722	-0.272	0.448
-500.653	144.831	0.121	0.164
-499.639	-38.433	0.058	-0.031
-498.624	781.040	0.119	-0.330
-497.610	-14.705	0.095	-0.062
-496.595	13.788	0.062	-0.048
-495.581	-128.221	0.155	0.022
-494.566	73.302	0.062	0.066
-493.551	305.399	-0.170	-0.320
-492.537	800.000	0.070	-0.294
-491.522	-65.079	0.083	-0.034
-490.508	-2.554	0.064	0.046
-489.493	-20.067	0.111	-0.069
-488.478	96.203	-0.255	-0.295
-487.464	253.935	0.048	0.084
-486.449	-163.157	-0.180	0.009
-485.435	339.439	-0.056	-0.111
-484.420	-200.000	0.010	0.137
-483.405	13.350	-0.109	0.085
-482.391	-200.000	0.006	-0.155
-481.376	-46.315	-0.143	-0.071
-480.362	77.737	0.078	0.084
-479.347	14.149	0.053	0.042
-478.332	-139.910	-0.282	0.030
-477.318	93.527	-0.062	-0.071
-476.303	-67.574	0.107	-0.042
-475.289	57.619	-0.116	-0.115
-474.274	138.332	0.158	-0.210
-473.259	-56.139	-0.150	0.068
-472.245	-166.990	0.111	-0.005
-471.230	800.000	-0.080	0.240
-470.216	-200.000	0.043	-0.250
-469.201	800.000	0.052	0.224
-468.186	-164.998	0.075	-0.003
-467.172	800.000	0.086	-0.303
-466.157	163.437	-0.135	-0.192
-465.143	570.440	-0.152	-0.375
-464.128	387.263	0.063	0.133
-463.113	25.539	-0.161	0.135
-462.099	-200.000	-0.005	-0.087
-461.084	-17.524	0.102	-0.065
-460.070	-173.797	0.088	-0.003
-459.055	-50.891	0.129	0.061
-458.040	13.611	-0.175	0.138
-457.026	-65.587	0.430	0.175
-456.011	-104.839	-0.335	-0.078
-454.997	-200.000	0.043	-0.289
-453.982	-63.714	0.266	0.110
-452.968	237.194	-0.139	-0.233
-451.953	-47.578	-0.188	-0.092
-450.938	118.754	-0.102	-0.128
-449.924	-41.239	0.158	0.083
-448.909	52.249	0.247	0.238
-447.895	-87.171	0.168	-0.051
-446.880	-144.964	-0.016	-0.001
-445.865	-17.221	0.259	0.165
-444.851	83.916	-0.130	-0.143
-443.836	378.358	0.080	-0.166
-442.822	-106.100	0.159	0.036
-441.807	800.000	-0.101	-0.307
-440.792	19.615	0.108	0.087
-439.778	146.942	-0.181	-0.246
-438.763	308.539	0.104	0.196
-437.749	-54.294	-0.242	-0.111
-436.734	42.154	-0.358	-0.328
-435.719	-200.000	-0.051	-0.291
-434.705	265.331	-0.142	0.251
-433.690	48.630	-0.175	0.166
-432.676	800.000	0.038	-0.145
-431.661	-93.747	0.203	-0.057
-430.646	208.609	-0.166	-0.263
-429.632	79.370	-0.253	0.274
-428.617	-69.012	-0.080	0.031
-427.603	-200.000	0.016	0.318
-426.588	800.000	-0.106	-0.298
-425.573	453.289	-0.021	-0.047
-424.559	-200.000	0.002	0.086
-423.544	-200.000	0.092	0.482
-422.530	-19.351	-0.293	-0.183
-421.515	-200.000	-0.033	-0.209
-420.500	-105.738	0.136	-0.031
-419.486	351.394	0.111	0.222
-418.471	537.921	-0.021	-0.050
-417.457	-200.000	0.256	0.000
-416.442	800.000	0.024	0.083
-415.428	-81.822	0.015	-0.005
-414.413	-34.107	-0.067	0.037
-413.398	-96.548	0.119	-0.032
-412.384	800.000	-0.029	-0.095
-411.369	-200.000	-0.046	0.244
-410.355	-115.900	0.050	0.009
-409.340	230.817	-0.225	-0.372
-408.325	644.065	-0.102	0.263
-407.311	90.014	-0.165	-0.186
-406.296	-176.654	0.318	0.008
-405.282	109.764	0.175	-0.211
-404.267	-200.000	-0.009	0.078
-403.252	163.679	-0.239	0.339
-402.238	-125.319	0.147	0.023
-401.223	488.327	0.073	0.167
-400.209	-3.590	-0.166	-0.117
-399.194	-154.360	-0.407	-0.028
-398.179	74.771	0.187	0.198
-397.165	290.742	0.062	0.113
-396.150	800.000	0.021	0.067
-395.136	99.455	-0.130	-0.151
-394.121	-44.527	-0.248	-0.125
-393.106	-103.869	0.103	-0.024
-392.092	-200.000	-0.027	-0.252
-391.077	-98.875	-0.205	0.053
-390.063	44.192	-0.087	0.081
-389.048	53.972	-0.111	0.108
-388.033	365.216	0.058	0.118
-387.019	-200.000	-0.029	0.196
-386.004	528.968	0.134	0.318
-384.990	30.408	-0.177	0.152
-383.975	73.887	-0.107	-0.113
-382.960	-68.491	-0.173	-0.068
-381.946	-90.915	0.263	0.076
-380.931	355.015	0.036	-0.073
-379.917	-54.999	0.252	0.115
-378.902	150.147	-0.205	0.280
-377.888	-117.694	0.391	0.071
-376.873	587.382	0.140	0.346
-375.858	-34.820	0.262	0.144
-374.844	-31.993	-0.269	0.152
-373.829	45.259	0.148	-0.137
-372.815	-200.000	-0.001	0.045
-371.800	455.875	-0.084	0.187
-370.785	800.000	0.051	0.212
-369.771	183.598	0.079	-0.118
-368.756	-69.160	0.093	0.036
-367.742	-200.000	0.084	-0.429
-366.727	114.781	0.134	-0.164
-365.712	107.276	0.194	0.232
-364.698	-29.612	0.261	0.150
-363.683	-3.176	0.174	0.122
-362.669	-72.567	0.222	0.082
-361.654	-113.832	-0.263	0.052
-360.639	-98.471	-0.054	0.014
-359.625	-200.000	0.002	-0.201
-358.610	-98.612	-0.283	-0.073
-357.596	-133.913	0.063	-0.008
-356.581	624.492	-0.055	0.139
-355.566	800.000	-0.076	0.320
-354.552	276.060	0.060	0.107
-353.537	-0.892	0.123	0.088
-352.523	516.700	-0.078	0.184
-351.508	-146.687	-0.312	0.027
-350.493	-67.811	-0.201	0.079
-349.479	-200.000	-0.059	0.399
-348.464	-101.992	-0.098	0.024
-347.450	18.095	0.294	-0.236
-346.435	1.771	0.143	0.104
-345.420	38.161	0.078	-0.070
-344.406	398.163	-0.090	-0.190
-343.391	-2.015	0.179	0.127
-342.377	-200.000	-0.007	0.175
-341.362	-36.223	-0.310	-0.168
-340.348	527.823	0.081	0.193
-339.333	-200.000	-0.052	-0.255
-338.318	563.519	-0.085	-0.207
-337.304	800.000	0.022	0.076
-336.289	527.369	-0.098	-0.233
-335.275	35.423	-0.110	-0.097
-334.260	201.819	-0.170	0.263
-333.245	800.000	-0.097	-0.285
-332.231	-200.000	0.056	0.294
-331.216	171.698	-0.238	0.344
-330.202	-28.938	0.021	0.012
-329.187	48.598	-0.221	-0.209
-328.172	-200.000	-0.013	-0.215
-327.158	-200.000	0.069	0.417
-326.143	-77.484	0.147	0.051
-325.129	-7.981	0.084	-0.057
-324.114	-164.219	0.044	-0.002
-323.099	394.523	-0.106	0.223
-322.085	85.589	0.165	-0.182
-321.070	-118.953	-0.049	-0.009
-320.056	147.393	-0.178	0.241
-319.041	-161.763	-0.291	0.015
-318.026	-120.821	-0.038	0.006
-317.012	-200.000	-0.011	0.060
-315.997	180.606	0.075	0.111
-314.983	-151.250	-0.103	0.008
-313.968	800.000	-0.094	-0.274
-312.953	-59.665	0.175	-0.075
-311.939	-200.000	-0.010	-0.195
-310.924	352.850	-0.116	-0.231
-309.910	765.691	-0.090	-0.246
-308.895	-84.788	0.262	0.083
-307.880	-107.748	-0.334	-0.073
-306.866	64.828	-0.188	0.191
-305.851	-200.000	0.012	0.122
-304.837	-200.000	-0.010	0.253
-303.822	94.967	-0.086	-0.099
-302.807	170.297	-0.064	0.092
-301.793	-3.853	-0.077	-0.054
-300.778	800.000	-0.078	-0.278
-299.764	-132.223	-0.114	-0.015
-298.749	-120.341	0.104	-0.018
-297.735	14.228	0.036	0.029
-296.720	800.000	0.074	0.326
-295.705	8.287	0.194	0.146
-294.691	69.399	-0.043	0.044
-293.676	-134.600	-0.369	-0.045
-292.662	-51.813	-0.255	0.119
-291.647	7.091	0.157	0.117
-290.632	-40.110	-0.098	-0.051
-289.618	-8.918	-0.020	0.013
-288.603	-200.000	-0.012	-0.098
-287.589	721.639	-0.081	0.217
-286.574	-92.184	0.234	0.066
-285.559	-60.603	-0.166	-0.071
-284.545	224.825	-0.022	0.036
-283.530	-64.948	-0.275	0.112
-282.516	-92.481	-0.170	0.048
-281.501	-185.648	0.442	0.007
-280.486	102.808	0.216	0.254
-279.472	-90.790	-0.181	-0.052
-278.457	665.634	0.147	-0.380
-277.443	720.008	0.196	0.522
-276.428	58.966	0.045	0.045
-275.413	800.000	0.055	-0.181
-274.399	97.811	0.040	-0.046
-273.384	-100.569	0.180	0.045
-272.370	-120.488	0.298	0.051
-271.355	37.852	0.290	0.259
-270.340	-200.000	0.063	0.306
-269.326	-42.448	0.207	-0.106
-268.311	-170.809	0.085	-0.003
-267.297	-34.018	0.257	-0.142
-266.282	-200.000	0.063	0.353
-265.267	-30.960	-0.199	0.112
-264.253	-123.990	-0.231	-0.036
-263.238	-87.387	0.116	0.035
-262.224	196.193	0.035	0.054
-261.209	205.175	0.202	0.315
-260.195	220.716	0.091	0.147
-259.180	-11.776	0.108	0.071
-258.165	-136.784	-0.078	0.009
-257.151	-200.000	0.036	-0.391
-256.136	270.600	0.016	-0.029
-255.122	800.000	0.061	-0.255
-254.107	-151.968	0.265	-0.019
-253.092	-132.413	0.172	0.022
-252.078	-87.748	0.301	-0.091
-251.063	410.302	-0.043	0.091
-250.049	468.013	0.097	-0.217
-249.034	-158.078	0.358	0.021
-248.019	52.486	-0.228	0.218
-247.005	-8.348	0.044	-0.029
-245.990	102.195	0.180	0.211
-244.976	132.052	0.021	-0.027
-243.961	201.378	0.084	-0.130
-242.946	20.476	-0.068	0.055
-241.932	162.567	0.107	0.151
-240.917	-139.045	-0.142	0.015
-239.903	266.419	0.121	0.213
-238.888	-2.862	-0.327	0.229
-237.873	266.586	-0.112	0.196
-236.859	489.510	0.104	-0.239
-235.844	-158.140	0.170	0.010
-234.830	800.000	0.055	0.175
-233.815	276.466	0.108	0.192
-232.800	-118.653	-0.225	0.040
-231.786	800.000	0.022	0.068
-230.771	274.073	-0.161	-0.285
-229.757	-40.802	0.185	0.096
-228.742	50.676	0.353	-0.335
-227.727	465.459	-0.079	-0.177
-226.713	-94.994	-0.105	0.029
-225.698	-33.584	0.113	0.062
-224.684	-200.000	0.041	0.347
-223.669	-123.278	0.207	0.033
-222.655	384.622	0.115	0.237
-221.640	-200.000	-0.004	-0.171
-220.625	-118.327	-0.449	0.080
-219.611	800.000	-0.012	0.041
-218.596	285.509	-0.062	-0.111
-217.582	216.703	0.090	-0.144
-216.567	-157.383	-0.473	0.029
-215.552	191.079	0.171	-0.258
-214.538	499.770	-0.085	0.196
-213.523	65.955	-0.049	-0.050
-212.509	-200.000	0.001	-0.199
-211.494	-35.416	-0.155	-0.084
-210.479	-119.880	0.111	-0.019
-209.465	236.948	-0.051	0.084
-208.450	180.701	0.100	0.147
-207.436	-84.294	-0.176	0.056
-206.421	-196.193	0.366	0.003
-205.406	73.882	-0.180	-0.189
-204.392	738.151	0.126	0.338
-203.377	720.896	-0.102	0.271
-202.363	32.663	-0.181	-0.157
-201.348	800.000	-0.032	0.134
-200.333	-200.000	0.057	-0.277
-199.319	261.305	-0.008	-0.014
-198.304	800.000	-0.048	-0.152
-197.290	-200.000	0.014	0.432
-196.275	-138.168	0.153	0.017
-195.260	94.712	0.224	0.254
-194.246	-19.098	-0.121	-0.075
-193.231	-109.027	-0.165	0.035
-192.217	800.000	0.067	0.240
-191.202	474.432	0.083	0.186
-190.187	-172.571	0.126	-0.004
-189.173	37.015	-0.106	-0.093
-188.158	-123.921	-0.124	0.020
-187.144	191.130	-0.149	-0.224
-186.129	-12.237	0.280	-0.183
-185.114	-200.000	0.017	0.113
-184.100	590.152	-0.128	0.316
-183.085	49.563	0.215	0.202
-182.071	-200.000	0.023	-0.106
-181.056	216.369	0.117	0.185
-180.042	800.000	0.090	0.266
-179.027	800.000	-0.035	0.138
-178.012	-81.623	0.158	0.052
-176.998	-200.000	-0.012	-0.088
-175.983	-200.000	-0.026	0.280
-174.969	235.997	-0.053	-0.088
-173.954	-200.000	-0.010	-0.152
-172.939	488.922	-0.117	0.268
-171.925	86.145	-0.169	0.186
-170.910	-13.531	-0.282	0.183
-169.896	-30.572	-0.092	-0.052
-168.881	-200.000	0.001	-0.221
-167.866	440.657	-0.077	0.169
-166.852	-72.354	0.176	-0.065
-165.837	125.375	-0.075	0.095
-164.823	-138.104	-0.101	0.011
-163.808	-74.335	0.173	-0.062
-162.793	-200.000	-0.003	0.076
-161.779	-16.636	0.135	-0.085
-160.764	-200.000	-0.022	-0.349
-159.750	-62.260	-0.054	-0.022
-158.735	653.530	-0.119	-0.304
-157.720	800.000	-0.093	0.336
-156.706	-200.000	-0.002	0.045
-155.691	-200.000	0.010	-0.373
-154.677	13.372	-0.312	-0.242
-153.662	800.000	0.045	-0.136
-152.647	-200.000	0.034	-0.258
-151.633	529.648	-0.076	-0.179
-150.618	800.000	0.023	-0.073
-149.604	-27.123	-0.375	0.219
-148.589	800.000	-0.044	0.162
-147.574	-200.000	0.043	-0.226
-146.560	84.138	0.169	-0.184
-145.545	800.000	0.054	0.194
-144.531	-179.190	-0.204	-0.005
-143.516	85.424	0.053	0.059
-142.502	157.265	0.089	-0.123
-141.487	-100.134	-0.240	0.060
-140.472	19.526	-0.312	0.251
-139.458	-72.630	0.162	0.060
-138.443	67.378	0.292	-0.298
-137.429	-118.876	-0.163	0.029
-136.414	-44.860	-0.231	0.115
-135.399	800.000	0.019	0.057
-134.385	87.449	0.095	0.105
-133.370	-24.013	0.357	0.213
-132.356	-20.603	0.056	-0.034
-131.341	-129.134	-0.279	-0.039
-130.326	118.444	0.166	0.205
-129.312	583.825	-0.107	0.263
-128.297	800.000	-0.086	-0.254
-127.283	-18.948	-0.282	-0.175
-126.268	-113.593	0.242	-0.047
-125.253	4.862	-0.146	0.107
-124.239	187.471	0.142	0.211
-123.224	124.239	-0.057	-0.072
-122.210	-149.709	-0.177	0.014
-121.195	-108.219	-0.296	-0.064
-120.180	800.000	0.050	-0.174
-119.166	-122.565	-0.300	-0.048
-118.151	800.000	0.071	0.298
-117.137	800.000	-0.035	0.104
-116.122	17.020	-0.238	0.188
-115.107	-145.104	-0.208	0.019
-114.093	-200.000	-0.013	0.129
-113.078	351.855	0.089	-0.176
-112.064	-130.703	0.370	-0.050
-111.049	627.213	0.137	-0.346
-110.034	800.000	0.078	0.282
-109.020	-120.875	0.227	0.038
-108.005	-162.465	0.038	-0.002
-106.991	-200.000	0.010	-0.183
-105.976	-200.000	0.012	0.178
-104.962	-65.012	-0.275	0.111
-103.947	-67.391	-0.051	0.020
-102.932	10.776	-0.202	-0.154
-101.918	-200.000	0.033	0.155
-100.903	800.000	0.136	-0.382
-99.889	-111.658	-0.140	0.028
-98.874	-60.565	0.235	-0.099
-97.859	599.535	0.066	-0.164
-96.845	779.140	-0.048	-0.132
-95.830	206.652	-0.095	-0.147
-94.816	156.919	0.133	-0.183
-93.801	13.802	0.043	-0.033
-92.786	296.302	0.172	-0.314
-91.772	-92.493	-0.102	0.029
-90.757	-200.000	0.006	-0.230
-89.743	458.751	-0.128	0.284
-88.728	-45.024	-0.214	0.106
-87.713	-55.688	0.274	0.122
-86.699	-31.631	-0.248	0.138
-85.684	426.346	0.161	-0.345
-84.670	602.407	0.053	0.131
-83.655	800.000	-0.089	0.382
-82.640	-131.451	-0.098	-0.013
-81.626	312.550	0.166	0.311
-80.611	41.998	-0.206	-0.186
-79.597	7.155	-0.275	-0.205
-78.582	800.000	-0.059	-0.214
-77.567	-200.000	-0.029	-0.147
-76.553	800.000	0.082	-0.245
-75.538	-94.856	-0.109	-0.029
-74.524	94.141	-0.148	0.168
-73.509	17.479	0.121	0.095
-72.494	-200.000	-0.022	0.170
-71.480	390.285	0.129	-0.266
-70.465	-97.087	0.300	-0.078
-69.451	-2.901	0.184	0.128
-68.436	281.294	-0.160	0.285
-67.422	-115.638	-0.235	-0.044
-66.407	299.591	-0.134	0.245
-65.392	-200.000	-0.021	0.232
-64.378	-18.625	-0.096	-0.060
-63.363	-7.182	-0.269	0.182
-62.349	-9.851	-0.219	0.145
-61.334	32.827	-0.519	-0.447
-60.319	-26.317	0.347	0.203
-59.305	601.890	-0.292	-0.723
-58.290	339.095	0.469	0.909
-57.276	800.000	0.438	1.316
-56.261	-200.000	82.172	515.379
-55.246	516.950	1336.023	3107.609
-54.232	150.890	2549.718	3448.459
-53.217	112.233	2234.297	2687.066
-52.203	48.943	1767.556	1650.489
-51.188	42.222	1573.194	1421.495
-50.173	39.730	1544.700	1378.312
-49.159	55.584	1587.565	1529.100
-48.144	60.463	1607.508	1582.803
-47.130	42.827	1567.517	1420.416
-46.115	39.478	1552.460	1383.247
-45.100	39.237	1549.492	1378.860
-44.086	39.194	1547.212	1376.471
-43.071	39.072	1545.270	1373.839
-42.057	39.139	1542.976	1372.211
-41.042	39.080	1542.086	1370.955
-40.027	39.193	1540.163	1369.980
-39.013	39.184	1538.595	1368.465
-37.998	39.124	1536.973	1366.554
-36.984	39.143	1535.728	1365.522
-35.969	39.178	1534.951	1365.020
-34.954	39.236	1533.251	1363.856
-33.940	39.110	1532.221	1362.011
-32.925	39.184	1530.231	1360.702
-31.911	39.232	1528.970	1359.858
-30.896	39.252	1527.921	1359.007
-29.881	39.276	1526.380	1357.755
-28.867	39.273	1525.052	1356.496
-27.852	39.264	1523.744	1355.219
-26.838	39.247	1522.539	1353.972
-25.823	39.284	1520.368	1352.245
-24.809	39.217	1519.035	1350.544
-23.794	39.179	1518.145	1349.441
-22.779	39.119	1516.570	1347.574
-21.765	39.293	1515.177	1347.474
-20.750	39.265	1513.705	1345.918
-19.736	39.229	1513.130	1345.112
-18.721	39.181	1512.177	1343.877
-17.706	39.128	1511.224	1342.620
-16.692	39.183	1509.691	1341.578
-15.677	39.176	1509.041	1340.903
-14.663	39.197	1507.629	1339.734
-13.648	39.168	1506.299	1338.301
-12.633	39.091	1505.434	1336.958
-11.619	39.177	1504.662	1336.800
-10.604	39.167	1503.635	1335.770
-9.590	39.222	1502.588	1335.160
-8.575	39.217	1501.806	1334.378
-7.560	39.125	1501.141	1333.113
-6.546	39.197	1500.283	1332.785
-5.531	39.097	1499.172	1331.065
-4.517	39.145	1498.295	1330.561
-3.502	39.115	1497.675	1329.750
-2.487	39.163	1496.468	1328.955
-1.473	39.191	1495.021	1327.805
-0.458	39.110	1493.730	1326.056
0.556	37.389	1484.096	1314.762
1.571	34.028	1456.115	1267.503
2.586	29.655	1391.085	1182.868
3.600	27.448	1305.027	1096.323
4.615	25.762	1255.928	1045.207
5.629	24.152	1203.059	992.156
6.644	20.027	1123.099	904.637
7.659	16.208	1082.929	852.938
8.673	15.491	1077.194	844.741
9.688	15.326	1074.552	841.764
10.702	15.206	1073.146	839.988
11.717	15.207	1071.443	838.583
12.731	16.982	1072.435	848.169
13.746	20.617	1076.821	869.776
14.761	20.961	1075.766	870.568
15.775	18.559	1071.541	855.108
16.790	17.103	1068.922	845.697
17.804	16.044	1066.389	838.349
18.819	15.022	1064.487	831.703
19.834	14.382	1062.973	827.270
20.848	13.931	1062.085	824.272
21.863	13.830	1061.010	822.862
22.877	13.586	1060.074	820.856
23.892	13.297	1059.300	818.752
24.907	13.200	1058.711	817.743
25.921	13.204	1057.712	816.922
26.936	13.250	1057.124	816.621
27.950	13.227	1056.134	815.668
28.965	13.330	1054.799	815.073
29.980	13.410	1053.212	814.167
30.994	13.455	1052.485	813.756
32.009	13.422	1051.850	813.031
33.023	13.498	1050.953	812.640
34.038	13.375	1050.002	811.229
35.053	13.450	1048.978	810.733
36.067	13.276	1048.479	809.424
37.082	13.348	1047.752	809.142
38.096	13.363	1046.603	808.258
39.111	13.425	1045.879	807.932
40.126	13.431	1044.891	807.124
41.140	13.325	1043.878	805.754
42.155	13.274	1042.565	804.421
43.169	13.229	1041.518	803.322
44.184	13.189	1040.254	802.084
45.199	13.109	1039.480	801.027
46.213	13.195	1038.794	800.848
47.228	13.319	1037.423	800.318
48.242	13.288	1036.434	799.335
49.257	13.434	1035.250	799.054
50.271	13.355	1034.253	797.835
51.286	13.350	1033.569	797.209
52.301	13.397	1032.596	796.619
53.315	13.405	1031.540	795.770
54.330	13.351	1031.351	795.296
55.344	13.330	1030.129	794.179
56.359	13.244	1029.132	792.928
57.374	13.275	1028.473	792.501
58.388	13.331	1027.622	792.041
59.403	13.166	1026.836	790.575
60.417	13.196	1025.846	789.890
61.432	13.115	1025.390	789.079
62.447	13.113	1024.450	788.279
63.461	13.181	1023.373	787.701
64.476	13.226	1022.719	787.342
65.490	13.057	1022.085	785.984
66.505	13.016	1021.064	784.934
67.520	13.131	1020.106	784.675
68.534	13.093	1019.570	784.009
69.549	13.222	1018.708	783.888
70.563	13.217	1017.775	783.080
71.578	13.212	1016.972	782.367
72.593	13.130	1016.516	781.561
73.607	13.148	1015.493	780.788
74.622	13.190	1014.326	780.021
75.636	13.067	1013.861	779.015
76.651	12.972	1013.476	778.204
77.666	13.128	1012.363	778.014
78.680	13.095	1011.557	777.170
79.695	13.205	1011.223	777.361
80.709	13.138	1010.673	776.554
81.724	13.271	1009.110	775.911
82.739	13.192	1008.722	775.173
83.753	13.311	1007.769	774.930
84.768	13.298	1007.279	774.424
85.782	13.339	1006.557	773.993
86.797	13.459	1005.788	773.892
87.812	13.437	1005.151	773.231
88.826	13.359	1003.925	771.854
89.841	13.192	1003.531	770.707
90.855	13.324	1002.536	770.489
91.870	13.362	1001.705	769.959
92.884	13.374	1001.394	769.707
93.899	13.445	1000.037	768.924
94.914	13.378	999.458	768.100
95.928	13.496	998.832	768.100
96.943	13.489	998.103	767.437
97.957	13.402	997.333	766.375
98.972	13.449	996.858	766.159
99.987	13.360	996.070	765.074
101.001	13.467	994.832	764.550
102.016	13.396	994.301	763.748
103.030	13.420	993.229	762.966
104.045	13.353	992.651	762.146
105.060	13.472	991.454	761.711
106.074	13.405	990.232	760.392
107.089	13.324	989.179	759.147
108.103	13.254	988.416	758.174
109.118	13.180	987.795	757.288
110.133	13.063	986.991	756.072
111.147	13.148	986.163	755.759
112.162	13.196	985.554	755.447
113.176	13.193	984.393	754.475
114.191	13.260	983.430	753.973
115.206	13.242	982.455	753.080
116.220	13.307	982.077	753.018
117.235	13.167	981.146	751.601
118.249	13.316	980.108	751.418
119.264	13.212	979.421	750.350
120.279	13.193	978.334	749.365
121.293	13.107	977.676	748.406
122.308	13.228	976.867	748.267
123.322	13.249	976.033	747.657
124.337	13.180	975.024	746.509
125.352	13.131	973.714	745.217
126.366	13.197	972.708	744.681
127.381	13.232	971.568	743.898
128.395	13.150	970.495	742.642
129.410	13.247	969.656	742.369
130.424	13.228	969.044	741.751
131.439	13.370	967.997	741.518
132.454	13.241	967.216	740.279
133.468	13.303	966.295	739.786
134.483	13.427	965.916	739.984
135.497	13.409	964.945	739.093
136.512	13.357	964.144	738.184
137.527	13.354	963.349	737.497
138.541	13.426	962.306	736.953
139.556	13.438	962.244	736.891
140.570	13.552	961.166	736.512
141.585	13.464	960.257	735.358
142.600	13.502	959.621	734.972
143.614	13.487	958.909	734.299
144.629	13.522	957.886	733.604
145.643	13.518	957.224	733.013
146.658	13.536	956.059	732.137
147.673	13.495	955.643	731.570
148.687	13.476	954.291	730.387
149.702	13.358	953.561	729.246
150.716	13.382	952.876	728.762
151.731	13.428	951.743	728.036
152.746	13.423	951.122	727.471
153.760	13.207	950.959	726.333
154.775	13.388	949.972	726.309
155.789	13.445	949.411	726.067
156.804	13.504	948.249	725.371
157.819	13.517	947.591	724.864
158.833	13.410	947.222	724.046
159.848	13.419	946.901	723.778
160.862	13.573	945.839	723.573
161.877	13.560	945.026	722.832
162.892	13.627	943.620	721.984
163.906	13.580	942.979	721.227
164.921	13.333	942.924	720.046
165.935	13.464	941.589	719.529
166.950	13.499	940.326	718.653
167.964	13.495	939.682	718.079
168.979	13.498	938.623	717.222
169.994	13.512	937.768	716.566
171.008	13.480	936.871	715.677
172.023	13.567	935.954	715.288
173.037	13.482	935.652	714.627
174.052	13.577	934.539	714.125
175.067	13.804	933.568	714.296
176.081	13.614	933.400	713.285
177.096	13.512	932.603	712.178
178.110	13.408	931.908	711.136
179.125	13.549	931.037	711.013
180.140	13.557	930.043	710.228
181.154	13.531	929.436	709.587
182.169	13.567	928.864	709.241
183.183	13.716	927.850	709.043
184.198	13.564	927.527	708.085
185.213	13.693	926.754	707.981
186.227	13.741	926.471	707.908
187.242	13.603	925.976	706.879
188.256	13.729	924.476	706.208
189.271	13.826	923.776	706.024
190.286	13.646	923.748	705.175
191.300	13.689	922.783	704.557
192.315	13.591	921.572	703.155
193.329	13.601	921.155	702.818
194.344	13.589	920.043	701.854
195.359	13.717	919.672	702.050
196.373	13.659	919.361	701.506
197.388	13.773	918.917	701.589
198.402	13.794	918.488	701.288
199.417	13.955	917.967	701.506
200.432	13.916	917.107	700.622
201.446	14.043	916.973	700.993
202.461	13.915	916.482	700.018
203.475	14.108	915.555	700.062
204.490	14.086	915.157	699.600
205.504	14.063	914.066	698.610
206.519	13.975	913.414	697.681
207.534	13.848	912.811	696.624
208.548	14.016	911.801	696.495
209.563	14.071	911.018	696.068
210.577	14.038	910.516	695.483
211.592	13.941	909.594	694.310
212.607	14.053	909.645	694.759
213.621	14.041	908.946	694.113
214.636	14.172	908.088	693.942
215.650	14.032	907.440	692.803
216.665	14.098	906.873	692.580
217.680	14.142	906.325	692.288
218.694	14.181	905.828	692.005
219.709	14.411	905.175	692.402
220.723	14.343	904.524	691.559
221.738	14.177	903.999	690.409
222.753	14.220	903.036	689.791
223.767	14.148	902.692	689.170
224.782	14.079	901.955	688.261
225.796	14.267	901.174	688.380
226.811	14.272	900.322	687.689
227.826	14.290	899.720	687.244
228.840	14.249	898.765	686.284
229.855	14.264	898.288	685.920
230.869	14.237	897.636	685.249
231.884	14.321	896.554	684.709
232.899	14.264	896.155	684.110
233.913	14.329	895.323	683.684
234.928	14.292	894.774	683.051
235.942	14.268	894.187	682.442
236.957	14.272	893.439	681.829
237.972	14.335	892.818	681.551
238.986	14.261	892.167	680.690
240.001	14.310	891.646	680.433
241.015	14.301	890.717	679.627
242.030	14.361	890.380	679.557
243.045	14.391	889.628	679.043
244.059	14.391	889.130	678.604
245.074	14.560	887.986	678.359
246.088	14.450	887.367	677.379
247.103	14.591	887.139	677.717
248.117	14.415	886.583	676.519
249.132	14.553	886.261	676.773
250.147	14.515	885.457	675.944
251.161	14.743	884.949	676.418
252.176	14.700	884.112	675.545
253.190	14.671	883.433	674.851
254.205	14.793	883.060	674.999
255.220	14.822	882.448	674.590
256.234	14.806	881.539	673.771
257.249	14.955	880.714	673.678
258.263	14.907	880.702	673.419
259.278	14.988	879.784	672.980
260.293	14.952	879.150	672.293
261.307	14.870	878.778	671.618
262.322	14.945	878.003	671.267
263.336	14.918	877.549	670.753
264.351	14.978	877.157	670.635
265.366	14.972	876.206	669.823
266.380	14.954	876.317	669.779
267.395	14.996	875.119	668.969
268.409	14.953	874.410	668.198
269.424	15.146	873.193	667.978
270.439	15.019	872.730	667.059
271.453	15.060	872.038	666.634
272.468	14.984	871.488	665.852
273.482	15.058	870.861	665.610
274.497	15.018	870.706	665.274
275.512	15.090	869.500	664.578
276.526	15.129	868.655	664.028
277.541	15.077	867.832	663.135
278.555	15.039	867.630	662.770
279.570	15.203	866.910	662.813
280.585	15.152	866.805	662.469
281.599	15.044	866.180	661.509
282.614	15.095	865.226	660.922
283.628	15.255	864.329	660.808
284.643	15.314	863.780	660.564
285.657	15.212	863.331	659.761
286.672	15.097	863.357	659.269
287.687	15.247	862.591	659.216
288.701	15.247	862.125	658.799
289.716	15.155	861.797	658.130
290.730	15.272	860.446	657.499
291.745	15.287	860.148	657.274
292.760	15.313	859.385	656.732
293.774	15.358	858.985	656.545
294.789	15.376	858.445	656.144
295.803	15.474	857.834	656.004
296.818	15.505	857.030	655.450
297.833	15.403	856.492	654.584
298.847	15.474	856.135	654.530
299.862	15.327	855.082	653.095
300.876	15.495	854.306	653.098
301.891	15.423	853.938	652.479
302.906	15.601	853.414	652.714
303.920	15.587	852.577	651.960
304.935	15.489	852.174	651.212
305.949	15.576	851.489	650.970
306.964	15.572	850.818	650.385
307.979	15.556	850.450	649.983
308.993	15.519	849.505	649.061
310.008	15.623	849.190	649.165
311.022	15.749	848.369	648.966
312.037	15.717	847.876	648.408
313.052	15.523	847.558	647.358
314.066	15.526	847.334	647.144
315.081	15.664	845.920	646.536
316.095	15.626	845.205	645.786
317.110	15.447	845.140	644.992
318.125	15.603	844.639	645.152
319.139	15.533	843.902	644.264
320.154	15.632	843.439	644.231
321.168	15.497	843.245	643.508
322.183	15.681	842.410	643.518
323.197	15.691	841.998	643.186
324.212	15.794	841.189	642.905
325.227	15.777	840.645	642.365
326.241	15.783	840.099	641.916
327.256	15.649	839.779	641.104
328.270	15.704	839.307	640.897
329.285	15.664	838.554	640.113
330.300	15.808	838.004	640.184
331.314	15.726	837.385	639.341
332.329	15.786	836.976	639.200
333.343	15.790	836.100	638.491
334.358	15.757	835.374	637.754
335.373	15.827	835.253	637.869
336.387	15.909	834.820	637.794
337.402	15.948	834.063	637.308
338.416	15.892	833.748	636.798
339.431	15.848	833.295	636.231
340.446	16.074	832.620	636.510
341.460	16.092	831.900	635.971
342.475	16.068	831.030	635.161
343.489	16.155	830.268	634.851
344.504	15.989	830.254	634.156
345.519	16.207	829.962	634.701
346.533	16.220	829.050	633.995
347.548	16.157	828.977	633.646
348.562	16.141	828.206	632.941
349.577	16.258	827.374	632.686
350.592	16.136	826.872	631.789
351.606	16.162	826.742	631.734
352.621	16.064	825.953	630.706
353.635	16.178	825.599	630.808
354.650	16.160	825.354	630.497
355.665	16.251	824.888	630.425
356.679	16.138	824.529	629.673
357.694	16.277	823.946	629.689
358.708	16.272	823.211	629.054
359.723	16.334	822.785	628.903
360.738	16.286	822.204	628.225
361.752	16.205	821.859	627.606
362.767	16.384	820.875	627.464
363.781	16.325	820.756	627.097
364.796	16.318	820.756	627.016
365.810	16.481	819.906	626.916
366.825	16.422	819.593	626.401
367.840	16.441	819.518	626.361
368.854	16.578	818.900	626.340
369.869	16.621	818.352	626.023
370.883	16.547	817.529	625.064
371.898	16.504	817.501	624.829
372.913	16.629	816.783	624.688
373.927	16.517	816.180	623.758
374.942	16.622	815.334	623.444
375.956	16.616	814.955	623.077
376.971	16.775	814.081	622.936
377.986	16.710	813.625	622.293
379.000	16.671	813.519	622.014
380.015	16.775	812.883	621.855
381.029	16.551	812.353	620.572
382.044	16.742	811.733	620.745
383.059	16.654	811.157	619.928
384.073	16.812	810.499	619.946
385.088	16.855	809.997	619.664
386.102	16.872	809.203	619.066
387.117	16.692	809.094	618.269
388.132	16.685	808.786	617.952
389.146	16.700	808.072	617.410
390.161	16.764	807.951	617.495
391.175	16.752	807.550	617.091
392.190	16.889	806.756	616.928
393.205	16.821	806.442	616.385
394.219	16.773	806.217	615.985
395.234	16.787	805.454	615.398
396.248	16.863	804.936	615.224
397.263	16.845	804.271	614.594
398.278	16.679	804.165	613.857
399.292	16.978	803.291	614.221
400.307	16.864	803.070	613.582
401.321	16.806	802.921	613.205
402.336	16.867	802.342	612.930
403.350	17.042	801.777	613.075
404.365	16.911	801.397	612.259
405.380	16.999	801.225	612.390
406.394	17.130	800.404	612.182
407.409	17.120	799.771	611.607
408.423	17.151	799.653	611.574
409.438	17.209	799.040	611.260
410.453	17.123	799.041	610.897
411.467	17.249	798.420	610.820
412.482	17.098	798.171	610.033
413.496	17.187	797.450	609.748
414.511	17.347	797.004	609.928
415.526	17.369	796.752	609.758
416.540	17.454	795.948	609.396
417.555	17.358	795.607	608.734
418.569	17.347	795.406	608.490
419.584	17.260	794.947	607.772
420.599	17.329	794.449	607.584
421.613	96.165	1271.720	1400.433
422.628	82.128	1341.275	1400.540
