DTS Sentinel unit serial number:	SN413079Multiplexer serial number:	ORYXHardware model number:	OX4-SRSoftware version number:	ORYX F/W v4.00 Oryx Data Collector v3.7.2.0data status	okinstallation	princeton_trtdifferential loss correction	single-endedforward channel	channel 3reverse channel	N/Adate	2019/09/12time	19:12:04forward acquisition time	15.00reverse acquisition time	0.00gamma	496.2192k internal	0.2319k external	0.2319temperature offset calibration	1.0117default loss term (dB/km)	0.3790temperature slope calibration	1.0000multiplexer offset coefficient	1.0000multiplexer slope coefficient	1.0000fibre end	0.00T internal ref (°C)	32.56T ext. ref 1 (°C)	3.21T ext. ref 2 (°C)	27.15length (m)	temperature (°C)	Stokes	anti-Stokes-747.200	41.144	0.293	-0.268
-746.185	-134.707	0.284	-0.035
-745.171	-200.000	-0.138	-1.133
-744.156	306.701	0.142	-0.267
-743.142	800.000	-0.173	-0.490
-742.127	800.000	-0.128	0.527
-741.112	-200.000	0.041	0.375
-740.098	-65.325	0.562	-0.229
-739.083	165.256	-0.535	-0.764
-738.069	-200.000	0.028	-0.399
-737.054	-83.158	0.484	-0.158
-736.039	-59.418	0.416	-0.181
-735.025	114.069	-0.585	0.720
-734.010	338.716	0.057	0.113
-732.996	800.000	0.176	-0.554
-731.981	800.000	-0.215	0.717
-730.966	-53.990	-0.342	-0.157
-729.952	-140.534	-0.270	-0.028
-728.937	-117.012	0.292	0.054
-727.923	71.043	-0.564	0.591
-726.908	611.852	0.133	0.335
-725.894	359.706	0.543	-1.098
-724.879	800.000	-0.286	-0.884
-723.864	202.522	0.137	-0.214
-722.850	-158.114	-0.616	0.037
-721.835	603.815	-0.264	-0.665
-720.821	800.000	0.270	-0.907
-719.806	-68.861	0.882	-0.344
-718.791	-200.000	0.127	0.638
-717.777	155.445	-0.455	0.633
-716.762	-76.951	0.156	0.055
-715.748	239.024	0.376	0.632
-714.733	-15.861	-0.695	0.447
-713.718	95.566	-0.376	-0.433
-712.704	800.000	-0.025	-0.090
-711.689	-91.060	0.244	0.071
-710.675	-200.000	0.023	0.145
-709.660	-109.992	0.324	0.069
-708.645	-20.711	0.519	0.322
-707.631	-168.491	-0.742	0.029
-706.616	-104.534	0.631	-0.147
-705.602	74.255	-0.433	0.460
-704.587	102.377	0.258	-0.305
-703.572	-126.831	-0.196	0.029
-702.558	84.949	0.300	-0.332
-701.543	-159.380	0.721	-0.041
-700.529	800.000	0.222	0.912
-699.514	-122.218	0.392	0.065
-698.499	-88.377	-0.629	0.190
-697.485	-93.870	0.286	-0.080
-696.470	410.086	0.061	0.131
-695.456	-117.039	-0.776	-0.143
-694.441	-189.460	-0.493	0.006
-693.426	180.909	-0.115	0.171
-692.412	705.312	-0.273	0.726
-691.397	-75.754	-0.669	-0.240
-690.383	70.228	-0.415	-0.432
-689.368	-200.000	0.072	0.634
-688.354	31.966	0.036	0.031
-687.339	169.247	0.177	0.255
-686.324	-23.205	-0.481	-0.292
-685.310	184.412	-0.046	0.069
-684.295	177.627	0.276	-0.407
-683.281	800.000	0.196	-0.657
-682.266	360.445	-0.102	-0.205
-681.251	-105.424	0.654	0.150
-680.237	207.454	0.225	-0.354
-679.222	0.019	-0.220	-0.158
-678.208	489.705	0.237	-0.546
-677.193	-200.000	0.037	-0.207
-676.178	537.308	0.338	0.810
-675.164	-56.424	-0.456	-0.204
-674.149	755.798	-0.272	-0.742
-673.135	-163.128	-0.459	-0.022
-672.120	-15.698	-0.357	0.230
-671.105	23.209	-0.495	0.410
-670.091	-16.500	-0.963	-0.616
-669.076	-200.000	0.073	-0.543
-668.062	800.000	0.277	-0.840
-667.047	800.000	-0.135	-0.476
-666.032	508.518	-0.213	0.499
-665.018	71.096	-0.375	0.392
-664.003	-200.000	-0.139	0.837
-662.989	-12.653	0.475	0.312
-661.974	-200.000	0.100	-0.970
-660.959	25.620	0.429	-0.360
-659.945	800.000	0.124	0.504
-658.930	-73.749	-0.312	0.114
-657.916	-91.166	0.473	-0.137
-656.901	-200.000	-0.146	-0.651
-655.886	-156.556	0.220	-0.014
-654.872	286.252	-0.155	-0.282
-653.857	-63.716	0.578	-0.239
-652.843	-93.031	-1.219	-0.342
-651.828	139.429	-0.408	0.541
-650.814	-116.485	0.291	-0.054
-649.799	-56.099	0.399	-0.179
-648.784	-0.726	0.842	-0.602
-647.770	37.338	-0.414	0.369
-646.755	9.881	-0.162	0.124
-645.741	50.523	-0.205	-0.195
-644.726	-200.000	-0.076	0.346
-643.711	-115.896	-0.264	-0.050
-642.697	3.946	-0.372	-0.274
-641.682	154.677	-0.167	-0.232
-640.668	-200.000	-0.045	0.389
-639.653	13.685	0.577	-0.451
-638.638	800.000	-0.105	0.443
-637.624	-14.327	-0.343	0.222
-636.609	-200.000	-0.040	-0.748
-635.595	471.870	0.330	0.749
-634.580	132.057	-0.205	0.265
-633.565	-106.629	0.253	-0.057
-632.551	253.555	-0.140	-0.241
-631.536	-144.235	-0.669	0.063
-630.522	800.000	-0.109	-0.458
-629.507	-200.000	0.035	0.680
-628.492	163.439	0.126	0.178
-627.478	-200.000	-0.015	-0.534
-626.463	-200.000	0.025	0.665
-625.449	-6.616	-0.743	-0.509
-624.434	-8.805	-0.204	0.137
-623.419	115.738	0.044	-0.054
-622.405	85.507	0.513	-0.568
-621.390	267.750	0.608	1.072
-620.376	-71.501	-0.491	-0.185
-619.361	-29.335	0.624	-0.359
-618.346	88.682	0.197	-0.221
-617.332	229.661	-0.148	-0.244
-616.317	-200.000	-0.011	0.386
-615.303	-111.012	-0.455	0.094
-614.288	121.019	0.138	-0.173
-613.273	-92.732	-0.811	0.228
-612.259	63.993	0.196	-0.198
-611.244	-165.312	-0.437	-0.019
-610.230	-41.350	-0.758	0.393
-609.215	-49.869	0.684	0.327
-608.201	-153.563	-0.643	-0.045
-607.186	800.000	0.136	-0.422
-606.171	-200.000	0.167	0.750
-605.157	-200.000	0.018	0.126
-604.142	800.000	-0.144	0.430
-603.128	-200.000	-0.011	-0.539
-602.113	-200.000	-0.039	0.392
-601.098	130.894	-0.537	-0.694
-600.084	-200.000	0.065	-0.711
-599.069	153.550	-0.170	0.234
-598.055	83.049	0.227	0.248
-597.040	800.000	0.036	0.119
-596.025	-96.595	0.389	0.103
-595.011	-200.000	0.046	-0.236
-593.996	47.215	-0.416	0.390
-592.982	-28.183	0.848	-0.493
-591.967	-142.497	0.084	-0.008
-590.952	-25.514	0.213	-0.127
-589.938	-54.460	0.145	-0.066
-588.923	152.562	0.289	-0.397
-587.909	-123.592	0.541	-0.086
-586.894	800.000	-0.140	-0.609
-585.879	-97.440	-0.517	-0.135
-584.865	-33.283	-0.295	0.164
-583.850	533.598	0.246	0.586
-582.836	239.887	0.280	-0.469
-581.821	-182.053	-0.526	0.010
-580.806	19.637	0.455	0.368
-579.792	-200.000	-0.007	-0.162
-578.777	-157.166	-0.500	0.031
-577.763	-200.000	0.045	0.418
-576.748	160.334	0.383	0.536
-575.733	626.053	-0.151	0.384
-574.719	136.521	0.467	0.612
-573.704	800.000	-0.201	0.705
-572.690	-3.321	-0.477	-0.334
-571.675	55.290	-0.518	-0.504
-570.661	19.723	-0.038	0.031
-569.646	-200.000	0.016	0.558
-568.631	227.229	0.314	0.513
-567.617	-100.345	0.579	-0.144
-566.602	-166.044	-0.169	0.007
-565.588	-112.189	-0.599	-0.121
-564.573	800.000	-0.063	-0.277
-563.558	22.827	0.208	0.171
-562.544	349.345	-0.239	0.473
-561.529	22.393	0.155	0.127
-560.515	-192.318	-0.306	0.003
-559.500	-121.193	-1.053	-0.177
-558.485	-10.279	0.260	0.173
-557.471	-67.127	-0.208	0.082
-556.456	-69.574	-0.447	0.172
-555.442	315.336	0.404	-0.765
-554.427	-1.792	0.882	-0.623
-553.412	800.000	-0.213	-0.841
-552.398	-102.068	-0.389	0.094
-551.383	800.000	-0.196	0.642
-550.369	126.900	-0.345	0.439
-549.354	211.605	0.074	0.117
-548.339	-62.910	-0.365	0.152
-547.325	46.251	-1.016	0.946
-546.310	95.595	-0.479	-0.549
-545.296	654.097	0.346	-0.892
-544.281	-200.000	0.157	-0.787
-543.266	9.877	0.588	0.448
-542.252	706.940	0.287	-0.760
-541.237	-120.501	-0.422	-0.072
-540.223	136.188	0.068	-0.089
-539.208	-200.000	0.044	-1.116
-538.193	14.946	0.256	-0.201
-537.179	-20.150	-0.342	0.211
-536.164	-200.000	-0.067	-0.385
-535.150	77.549	0.302	0.322
-534.135	-200.000	-0.018	0.087
-533.121	-200.000	0.034	-0.859
-532.106	157.168	0.676	-0.938
-531.091	-84.106	0.816	-0.260
-530.077	544.599	0.069	-0.165
-529.062	-69.467	-0.573	-0.220
-528.048	5.807	-0.531	-0.394
-527.033	84.391	0.122	-0.134
-526.018	292.008	0.398	0.726
-525.004	-117.947	0.157	0.028
-523.989	155.826	-0.034	-0.047
-522.975	567.509	0.196	-0.478
-521.960	71.225	0.336	-0.349
-520.945	-167.510	0.599	0.024
-519.931	800.000	-0.157	0.592
-518.916	39.727	-0.228	-0.205
-517.902	-20.087	0.251	0.155
-516.887	-200.000	0.009	-0.081
-515.872	-47.122	-0.187	0.091
-514.858	-112.718	-0.705	0.140
-513.843	-150.931	-0.861	0.065
-512.829	-35.358	-0.199	0.109
-511.814	-200.000	0.014	-0.234
-510.799	800.000	0.098	0.272
-509.785	353.473	-0.428	-0.851
-508.770	14.289	0.524	0.410
-507.756	800.000	-0.093	-0.376
-506.741	-200.000	0.013	-0.136
-505.726	-133.631	-0.499	0.063
-504.712	800.000	0.028	-0.109
-503.697	-90.363	-0.558	0.162
-502.683	-200.000	-0.063	-0.382
-501.668	519.390	-0.180	0.423
-500.653	407.287	0.125	-0.265
-499.639	109.995	-0.304	-0.366
-498.624	-163.373	-1.114	-0.053
-497.610	197.585	0.372	0.569
-496.595	800.000	0.136	-0.460
-495.581	-200.000	0.021	0.138
-494.566	706.634	-0.249	0.659
-493.551	15.761	0.598	-0.471
-492.537	-38.277	0.223	0.118
-491.522	800.000	-0.136	0.471
-490.508	23.779	-0.796	-0.657
-489.493	-200.000	-0.050	-0.486
-488.478	-81.916	-0.277	-0.091
-487.464	143.640	0.464	-0.620
-486.449	93.756	-0.129	-0.146
-485.435	-6.868	-0.602	0.410
-484.420	40.414	0.279	0.251
-483.405	-71.248	0.961	0.361
-482.391	800.000	-0.389	1.366
-481.376	800.000	0.102	0.321
-480.362	-34.489	-0.708	-0.388
-479.347	-139.216	-1.117	-0.121
-478.332	794.498	0.265	-0.730
-477.318	-12.841	0.773	-0.504
-476.303	800.000	0.027	0.086
-475.289	524.982	0.137	-0.322
-474.274	123.547	0.571	-0.717
-473.259	43.319	-0.670	-0.613
-472.245	-21.419	-0.636	0.388
-471.230	-135.187	0.483	0.058
-470.216	-157.129	-0.306	0.019
-469.201	481.673	-0.190	0.433
-468.186	-176.177	-0.388	0.010
-467.172	312.857	0.492	0.925
-466.157	-200.000	-0.089	-1.423
-465.143	-6.490	-0.200	0.136
-464.128	-200.000	0.035	0.429
-463.113	-102.284	-1.032	-0.248
-462.099	-200.000	-0.038	-0.189
-461.084	121.635	0.274	-0.342
-460.070	280.052	0.163	-0.291
-459.055	92.712	-0.034	-0.039
-458.040	-131.306	-0.603	0.080
-457.026	800.000	-0.131	0.461
-456.011	-144.364	0.774	0.072
-454.997	-161.815	0.322	-0.016
-453.982	-105.797	0.526	0.119
-452.968	-200.000	0.091	1.032
-451.953	95.704	0.369	0.421
-450.938	197.385	-0.320	-0.488
-449.924	-12.324	0.010	0.007
-448.909	-200.000	-0.024	-0.225
-447.895	-3.207	0.868	-0.605
-446.880	-15.743	0.558	-0.356
-445.865	132.889	-0.468	-0.604
-444.851	800.000	0.210	0.632
-443.836	129.864	-0.546	-0.699
-442.822	36.697	0.073	-0.065
-441.807	-17.410	0.499	-0.314
-440.792	800.000	-0.061	0.203
-439.778	121.870	-0.580	0.723
-438.763	-97.203	-0.842	0.220
-437.749	-31.756	-0.926	-0.519
-436.734	-63.394	-0.278	0.114
-435.719	-51.680	-0.561	-0.261
-434.705	290.544	0.422	-0.766
-433.690	-85.046	0.389	-0.122
-432.676	-200.000	0.063	-1.079
-431.661	-200.000	0.080	-0.626
-430.646	-31.550	0.331	-0.186
-429.632	-155.233	0.240	0.016
-428.617	800.000	0.151	0.582
-427.603	266.663	0.306	-0.535
-426.588	-100.745	0.717	-0.177
-425.573	800.000	-0.166	0.540
-424.559	-23.885	0.454	0.271
-423.544	-87.706	-0.838	0.253
-422.530	282.279	-0.279	0.499
-421.515	51.919	-0.537	0.511
-420.500	28.577	0.719	-0.607
-419.486	30.659	0.328	-0.281
-418.471	242.032	-0.337	-0.563
-417.457	-146.621	-0.712	0.062
-416.442	135.989	0.149	0.194
-415.428	660.502	-0.062	0.158
-414.413	-200.000	-0.060	0.371
-413.398	-200.000	0.094	0.962
-412.384	-182.384	-0.585	0.011
-411.369	-200.000	-0.086	0.595
-410.355	800.000	-0.057	0.164
-409.340	171.398	-0.059	0.084
-408.325	56.375	0.579	-0.562
-407.311	20.026	0.432	-0.348
-406.296	206.153	-0.561	-0.872
-405.282	276.738	-0.480	0.852
-404.267	-200.000	-0.050	0.410
-403.252	128.875	0.590	0.752
-402.238	-73.746	0.590	0.214
-401.223	737.634	-0.120	0.321
-400.209	27.627	-0.388	0.326
-399.194	-123.632	-0.361	0.057
-398.179	-27.644	-0.829	-0.480
-397.165	703.191	-0.281	0.738
-396.150	-200.000	0.027	0.121
-395.136	723.645	-0.308	-0.819
-394.121	93.003	-0.226	0.255
-393.106	-136.112	0.357	-0.042
-392.092	-200.000	0.014	-0.195
-391.077	321.973	0.463	0.879
-390.063	17.200	0.355	0.281
-389.048	-142.755	1.326	-0.129
-388.033	-200.000	-0.150	1.043
-387.019	1.545	-0.431	0.310
-386.004	-157.428	0.126	0.008
-384.990	17.978	-0.431	-0.342
-383.975	10.417	0.306	0.232
-382.960	800.000	0.098	0.349
-381.946	-188.215	-0.835	0.011
-380.931	36.427	0.316	0.278
-379.917	261.307	-0.214	-0.370
-378.902	-200.000	-0.151	0.765
-377.888	234.680	-0.191	-0.314
-376.873	135.883	-0.385	0.500
-375.858	120.911	-0.085	0.106
-374.844	-200.000	0.132	0.658
-373.829	-200.000	-0.124	0.780
-372.815	-41.456	-0.414	0.212
-371.800	-200.000	0.060	0.472
-370.785	662.075	0.417	-1.072
-369.771	-144.084	-0.691	0.065
-368.756	-200.000	0.007	0.180
-367.742	15.694	-0.738	0.578
-366.727	-200.000	-0.040	0.799
-365.712	-6.260	-0.797	0.542
-364.698	83.551	0.402	-0.436
-363.683	-200.000	0.071	-0.504
-362.669	-5.031	0.457	-0.314
-361.654	-200.000	-0.029	1.183
-360.639	-200.000	0.004	0.382
-359.625	-196.953	-1.062	-0.007
-358.610	800.000	-0.102	0.365
-357.596	-84.284	0.146	-0.046
-356.581	-43.198	-0.603	-0.304
-355.566	-200.000	0.029	0.898
-354.552	358.808	0.157	-0.313
-353.537	297.558	0.192	-0.351
-352.523	-200.000	-0.034	0.307
-351.508	25.134	-0.276	0.228
-350.493	277.228	-0.379	-0.672
-349.479	-21.543	-0.374	-0.227
-348.464	800.000	0.162	0.701
-347.450	34.435	-0.461	0.401
-346.435	324.333	0.358	-0.680
-345.420	-125.001	-0.203	0.031
-344.406	-87.625	0.516	0.155
-343.391	-99.327	0.449	0.113
-342.377	8.679	0.159	-0.120
-341.362	191.918	0.746	-1.120
-340.348	513.326	-0.584	-1.355
-339.333	-164.297	-0.312	0.014
-338.318	-93.701	0.554	-0.152
-337.304	-200.000	-0.057	-0.457
-336.289	-200.000	0.034	0.330
-335.275	-97.610	0.225	-0.058
-334.260	18.378	-0.538	0.428
-333.245	-59.060	-0.337	0.145
-332.231	-200.000	-0.004	0.076
-331.216	112.982	-0.720	0.869
-330.202	-4.659	0.156	-0.107
-329.187	-34.937	-0.499	-0.271
-328.172	-40.626	0.423	-0.218
-327.158	-43.677	0.954	-0.479
-326.143	800.000	0.206	-0.632
-325.129	800.000	0.155	-0.585
-324.114	800.000	0.027	0.107
-323.099	226.090	0.324	0.523
-322.085	-200.000	-0.144	1.180
-321.070	800.000	0.076	0.253
-320.056	-61.001	-0.569	0.239
-319.041	-12.732	-0.443	-0.288
-318.026	647.555	-0.076	0.192
-317.012	128.507	-0.170	0.215
-315.997	-200.000	-0.002	0.184
-314.983	-25.292	0.498	-0.293
-313.968	-200.000	-0.056	-0.609
-312.953	-96.034	0.738	-0.195
-311.939	-41.959	-0.809	-0.412
-310.924	-89.941	0.744	-0.216
-309.910	375.634	-0.147	0.298
-308.895	-60.636	-0.257	0.108
-307.880	280.667	0.532	-0.947
-306.866	-32.033	0.429	-0.239
-305.851	13.037	0.448	-0.345
-304.837	-42.800	0.468	0.237
-303.822	-13.181	0.475	-0.307
-302.807	235.281	0.656	1.077
-301.793	165.060	-0.294	0.412
-300.778	-46.827	-0.264	0.128
-299.764	608.110	0.144	-0.358
-298.749	134.044	0.140	-0.180
-297.735	800.000	-0.177	0.578
-296.720	128.795	0.222	0.281
-295.705	-79.586	-0.380	0.128
-294.691	292.391	-0.071	-0.129
-293.676	-19.440	0.766	-0.472
-292.662	448.425	-0.229	-0.500
-291.647	135.442	0.615	-0.794
-290.632	-49.017	0.661	-0.314
-289.618	509.657	-0.327	-0.755
-288.603	308.092	0.188	-0.348
-287.589	-20.187	-0.369	-0.226
-286.574	-110.452	0.139	0.029
-285.559	-1.293	-0.150	-0.105
-284.545	34.156	0.522	-0.452
-283.530	89.276	-0.504	-0.558
-282.516	-200.000	-0.131	-0.768
-281.501	27.489	0.478	0.400
-280.486	-48.839	-0.235	-0.112
-279.472	-159.009	0.772	-0.043
-278.457	87.528	-0.380	-0.418
-277.443	-144.131	-0.607	0.056
-276.428	297.798	-0.223	0.407
-275.413	-200.000	-0.084	-0.643
-274.399	451.558	0.240	0.526
-273.384	-115.668	-0.185	-0.034
-272.370	-115.332	0.408	-0.077
-271.355	13.167	0.547	0.421
-270.340	-10.269	0.546	0.360
-269.326	85.304	0.184	0.200
-268.311	144.262	-0.163	0.216
-267.297	258.470	0.482	0.825
-266.282	-200.000	-0.079	0.376
-265.267	-12.010	0.975	-0.634
-264.253	105.165	-0.450	-0.527
-263.238	149.709	0.032	-0.043
-262.224	173.283	0.566	0.810
-261.209	-98.652	0.849	0.215
-260.195	17.292	-0.448	0.353
-259.180	-21.833	-0.332	0.200
-258.165	-121.629	-0.439	-0.072
-257.151	-98.754	1.077	-0.272
-256.136	-107.304	-0.611	0.133
-255.122	-22.255	-0.856	-0.515
-254.107	71.370	-0.123	0.127
-253.092	407.397	-0.284	-0.596
-252.078	254.190	0.494	0.839
-251.063	800.000	-0.190	0.580
-250.049	-200.000	0.022	0.464
-249.034	21.928	-0.353	0.285
-248.019	-48.681	-0.682	0.325
-247.005	-97.737	0.637	0.164
-245.990	-122.113	-0.232	-0.038
-244.976	84.847	-0.379	0.412
-243.961	-58.340	0.069	-0.030
-242.946	-200.000	-0.039	0.366
-241.932	149.466	0.282	-0.379
-240.917	-7.176	-0.157	-0.106
-239.903	2.054	-0.229	-0.164
-238.888	800.000	0.258	0.765
-237.873	-200.000	0.028	0.127
-236.859	800.000	-0.197	-0.581
-235.844	-63.190	0.588	-0.241
-234.830	-200.000	-0.066	-0.342
-233.815	800.000	0.180	0.510
-232.800	-4.478	0.464	0.318
-231.786	23.799	0.025	0.020
-230.771	-77.061	-0.126	-0.043
-229.757	288.496	-0.482	0.865
-228.742	-69.590	-0.210	-0.080
-227.727	422.455	0.253	0.539
-226.713	800.000	0.144	-0.537
-225.698	-200.000	-0.055	0.252
-224.684	-200.000	0.099	-0.453
-223.669	2.629	0.437	-0.314
-222.655	-128.347	1.390	0.196
-221.640	-86.371	-0.315	0.096
-220.625	-113.717	-0.351	-0.068
-219.611	-35.745	0.246	0.132
-218.596	-11.415	0.091	0.059
-217.582	-200.000	-0.029	0.222
-216.567	-101.962	0.363	-0.087
-215.552	115.728	0.162	-0.196
-214.538	171.996	0.165	0.235
-213.523	-200.000	-0.004	-0.344
-212.509	-167.244	-0.504	-0.020
-211.494	-200.000	-0.092	0.618
-210.479	-200.000	0.036	0.423
-209.465	-121.202	-0.346	0.057
-208.450	-41.252	0.558	0.285
-207.436	25.388	0.270	-0.222
-206.421	680.340	-0.366	0.945
-205.406	-200.000	-0.066	0.993
-204.392	800.000	-0.076	-0.288
-203.377	-105.909	0.385	-0.086
-202.363	-144.964	-0.496	0.045
-201.348	10.976	0.620	0.469
-200.333	-68.384	0.426	-0.164
-199.319	63.785	0.088	-0.088
-198.304	177.107	-0.428	0.617
-197.290	-172.052	0.507	-0.016
-196.275	118.990	-0.198	0.243
-195.260	-200.000	-0.147	-0.746
-194.246	162.319	-0.279	-0.388
-193.231	60.965	0.499	-0.490
-192.217	-200.000	-0.113	-0.901
-191.202	504.799	0.250	0.573
-190.187	-8.700	0.177	0.117
-189.173	22.189	-0.225	-0.182
-188.158	120.813	-0.390	-0.480
-187.144	436.851	0.173	-0.374
-186.129	-15.233	0.932	-0.590
-185.114	269.751	-0.319	-0.555
-184.100	-200.000	-0.010	0.282
-183.085	-200.000	-0.017	-1.188
-182.071	675.524	-0.217	-0.558
-181.056	-67.272	0.291	-0.113
-180.042	390.983	-0.300	0.616
-179.027	94.575	0.242	0.273
-178.012	-83.789	0.931	-0.294
-176.998	203.132	0.546	-0.836
-175.983	285.056	-0.047	0.084
-174.969	800.000	0.077	-0.249
-173.954	-19.353	-1.014	-0.622
-172.939	215.550	0.393	-0.617
-171.925	102.258	0.245	0.283
-170.910	-144.357	-0.672	0.062
-169.896	21.073	0.820	-0.658
-168.881	15.520	0.290	0.225
-167.866	-137.880	0.373	0.041
-166.852	-200.000	-0.118	0.636
-165.837	-200.000	0.082	-0.403
-164.823	-200.000	0.027	-0.174
-163.808	-200.000	-0.199	1.003
-162.793	-90.262	-0.804	-0.231
-161.779	-104.084	0.878	-0.202
-160.764	-83.387	0.636	0.202
-159.750	363.171	0.145	0.288
-158.735	-97.693	-0.552	0.141
-157.720	73.959	-0.284	-0.294
-156.706	-50.943	0.141	0.066
-155.691	-134.706	0.372	0.045
-154.677	-56.242	-0.096	-0.042
-153.662	274.162	0.579	1.013
-152.647	-9.792	0.538	-0.354
-151.633	-200.000	0.085	1.216
-150.618	479.527	-0.427	0.957
-149.604	-60.656	0.032	-0.013
-148.589	-75.421	-0.615	0.216
-147.574	-108.361	0.202	-0.043
-146.560	190.146	0.499	0.740
-145.545	-126.249	0.916	-0.135
-144.531	763.646	-0.282	-0.757
-143.516	800.000	0.324	0.957
-142.502	398.655	0.287	-0.593
-141.487	9.201	0.787	-0.587
-140.472	-4.924	0.709	-0.483
-139.458	-116.223	-0.420	0.077
-138.443	-200.000	-0.056	0.280
-137.429	-200.000	0.006	0.115
-136.414	-10.619	-0.117	-0.076
-135.399	-200.000	0.689	0.003
-134.385	-87.413	-0.413	-0.124
-133.370	-64.953	0.444	0.177
-132.356	-11.982	0.863	-0.559
-131.341	221.695	-0.109	0.174
-130.326	157.075	0.225	-0.307
-129.312	-200.000	0.465	0.001
-128.297	-200.000	0.084	0.369
-127.283	-104.285	-0.681	0.156
-126.268	-22.230	0.561	0.336
-125.253	188.309	-0.245	0.361
-124.239	665.862	-0.189	0.481
-123.224	1.461	0.544	0.387
-122.210	228.495	0.113	-0.181
-121.195	-4.106	-0.202	0.138
-120.180	714.104	0.139	-0.365
-119.166	-200.000	0.023	0.221
-118.151	-200.000	0.223	1.200
-117.137	-22.968	0.749	-0.446
-116.122	21.850	-0.712	-0.573
-115.107	-200.000	-0.097	0.433
-114.093	-37.740	0.568	0.299
-113.078	-200.000	0.024	1.038
-112.064	-200.000	-0.033	0.163
-111.049	42.226	-0.226	-0.203
-110.034	281.595	-0.387	0.683
-109.020	41.393	-0.667	0.596
-108.005	800.000	-0.148	-0.457
-106.991	1.442	-0.388	-0.275
-105.976	-34.188	0.194	0.105
-104.962	571.679	-0.258	0.619
-103.947	-22.521	0.677	0.404
-102.932	-200.000	0.066	0.875
-101.918	800.000	-0.202	0.570
-100.903	-15.427	0.709	-0.447
-99.889	-145.398	0.292	0.026
-98.874	169.253	0.404	0.569
-97.859	216.297	0.258	-0.404
-96.845	-200.000	0.051	0.569
-95.830	-33.513	0.878	0.478
-94.816	800.000	0.167	-0.497
-93.801	-168.432	-0.884	0.033
-92.786	505.804	0.211	0.482
-91.772	-200.000	-0.057	-1.006
-90.757	-200.000	-0.147	0.801
-89.743	16.696	0.488	-0.381
-88.728	800.000	0.125	-0.424
-87.713	800.000	-0.159	-0.556
-86.699	-105.049	0.747	-0.168
-85.684	186.946	-0.409	0.601
-84.670	-190.363	-0.885	0.010
-83.655	-49.851	-0.378	0.177
-82.640	-200.000	-0.048	0.690
-81.626	-19.527	-0.236	0.144
-80.611	283.488	0.562	0.996
-79.597	-200.000	-0.101	0.449
-78.582	37.181	0.022	-0.019
-77.567	-27.089	-0.483	0.278
-76.553	110.320	0.693	0.820
-75.538	512.421	0.263	0.603
-74.524	-122.314	-0.411	0.066
-73.509	-12.708	-0.181	0.117
-72.494	37.856	0.314	0.275
-71.480	-43.699	-0.135	-0.067
-70.465	-200.000	0.012	0.141
-69.451	155.228	0.259	-0.351
-68.436	312.982	0.324	-0.600
-67.422	546.352	-0.260	0.613
-66.407	159.459	0.443	0.607
-65.392	771.932	-0.104	0.280
-64.378	-200.000	-0.029	-0.557
-63.363	-42.895	-0.206	-0.103
-62.349	186.167	0.683	-1.000
-61.334	-75.834	-0.928	-0.324
-60.319	36.983	-0.829	0.723
-59.305	63.749	-0.450	-0.445
-58.290	145.749	0.673	0.888
-57.276	-200.000	-0.088	1.864
-56.261	-200.000	94.190	588.534
-55.246	678.387	1351.353	3461.172
-54.232	204.402	2515.938	3840.144
-53.217	118.857	2142.326	2606.383
-52.203	43.225	1695.178	1523.803
-51.188	35.758	1509.470	1306.340
-50.173	33.364	1482.341	1266.815
-49.159	53.110	1534.422	1446.254
-48.144	54.174	1551.575	1469.612
-47.130	35.808	1510.802	1307.626
-46.115	32.762	1494.839	1273.226
-45.100	32.498	1492.214	1269.161
-44.086	32.711	1489.833	1268.520
-43.071	32.719	1488.507	1267.396
-42.057	32.598	1486.411	1264.750
-41.042	32.673	1484.374	1263.472
-40.027	32.408	1485.400	1262.513
-39.013	32.596	1482.545	1261.293
-37.998	32.326	1482.515	1259.416
-36.984	32.571	1480.202	1259.035
-35.969	32.511	1478.255	1256.928
-34.954	32.649	1476.099	1255.965
-33.940	32.518	1476.178	1255.109
-32.925	32.828	1474.280	1255.507
-31.911	32.528	1473.128	1252.481
-30.896	32.763	1471.917	1252.968
-29.881	32.805	1469.889	1251.465
-28.867	32.756	1469.739	1250.967
-27.852	32.765	1467.849	1249.370
-26.838	32.786	1466.422	1248.243
-25.823	32.518	1465.679	1245.785
-24.809	32.504	1463.104	1243.457
-23.794	32.324	1462.267	1241.505
-22.779	32.762	1459.775	1242.232
-21.765	32.535	1460.075	1240.938
-20.750	32.745	1459.415	1241.712
-19.736	32.637	1458.171	1239.891
-18.721	32.405	1456.492	1236.890
-17.706	32.598	1454.079	1236.061
-16.692	32.574	1453.356	1235.238
-15.677	32.693	1452.877	1235.561
-14.663	32.749	1451.338	1234.570
-13.648	32.686	1451.577	1234.317
-12.633	32.691	1449.689	1232.692
-11.619	32.353	1450.255	1230.913
-10.604	32.095	1449.985	1228.947
-9.590	32.338	1448.767	1229.454
-8.575	32.602	1445.825	1228.632
-7.560	32.398	1446.739	1228.029
-6.546	32.356	1445.644	1226.777
-5.531	32.384	1445.688	1226.948
-4.517	32.560	1443.616	1226.288
-3.502	32.544	1443.115	1225.707
-2.487	32.507	1440.904	1223.542
-1.473	32.329	1440.517	1222.007
-0.458	32.354	1439.479	1221.237
0.556	33.896	1429.718	1210.527
1.571	30.818	1403.425	1168.874
2.586	27.114	1345.488	1098.181
3.600	25.625	1263.815	1022.965
4.615	24.020	1218.864	977.685
5.629	20.681	1161.653	914.202
6.644	11.745	1077.426	804.100
7.659	4.394	1036.647	738.721
8.673	3.644	1030.307	730.589
9.688	3.215	1028.820	727.444
10.702	3.271	1025.224	725.097
11.717	2.713	1025.254	722.427
12.731	6.283	1027.990	741.128
13.746	15.402	1038.938	792.191
14.761	22.932	1049.308	835.789
15.775	24.656	1051.247	845.424
16.790	24.421	1049.616	842.927
17.804	24.416	1048.378	841.837
18.819	24.229	1046.920	839.709
19.834	24.171	1046.659	839.153
20.848	24.196	1046.787	839.299
21.863	23.980	1046.677	838.120
22.877	24.238	1046.207	838.884
23.892	23.970	1045.938	837.330
24.907	23.615	1045.393	835.151
25.921	24.060	1043.246	835.453
26.936	23.883	1041.780	833.372
27.950	23.833	1041.992	833.234
28.965	23.769	1041.269	832.283
29.980	23.634	1039.840	830.434
30.994	23.885	1038.231	830.251
32.009	24.174	1036.962	830.508
33.023	23.943	1037.462	829.757
34.038	23.964	1035.807	828.458
35.053	23.990	1034.627	827.562
36.067	23.774	1033.760	825.791
37.082	23.691	1032.976	824.706
38.096	23.613	1033.540	824.724
39.111	23.734	1032.999	824.778
40.126	23.752	1032.937	824.741
41.140	23.919	1030.663	823.626
42.155	23.535	1029.132	820.555
43.169	23.412	1027.924	818.950
44.184	23.605	1026.315	818.485
45.199	23.462	1025.610	817.190
46.213	23.278	1025.077	815.845
47.228	23.364	1023.958	815.282
48.242	23.565	1024.619	816.661
49.257	24.010	1023.272	817.557
50.271	23.709	1023.207	816.051
51.286	24.101	1021.682	816.563
52.301	23.890	1022.667	816.308
53.315	24.216	1020.470	815.976
54.330	24.078	1020.135	815.001
55.344	23.906	1018.818	813.093
56.359	23.945	1017.968	812.520
57.374	23.679	1016.662	810.190
58.388	23.614	1016.791	809.925
59.403	23.772	1015.572	809.606
60.417	23.423	1014.889	807.396
61.432	23.488	1014.166	807.049
62.447	23.555	1012.917	806.287
63.461	23.457	1012.762	805.646
64.476	23.442	1011.824	804.762
65.490	23.421	1010.938	803.892
66.505	23.233	1010.528	802.643
67.520	23.117	1009.770	801.441
68.534	23.559	1009.287	802.988
69.549	23.592	1007.599	801.723
70.563	23.043	1006.536	798.331
71.578	23.044	1006.325	798.097
72.593	23.103	1004.467	796.816
73.607	22.572	1003.562	793.637
74.622	22.644	1002.901	793.370
75.636	22.943	1002.058	793.976
76.651	22.921	1001.419	793.301
77.666	23.150	1000.198	793.290
78.680	22.996	1000.473	792.748
79.695	23.094	999.327	792.207
80.709	22.930	999.437	791.492
81.724	23.167	998.970	792.113
82.739	23.226	997.691	791.290
83.753	23.351	997.041	791.264
84.768	23.383	996.735	791.094
85.782	24.339	995.529	794.326
86.797	24.227	996.221	794.311
87.812	24.469	993.979	793.529
88.826	24.285	992.480	791.443
89.841	24.151	992.509	790.801
90.855	24.458	992.292	791.922
91.870	24.393	991.252	790.732
92.884	24.514	990.148	790.320
93.899	24.171	989.877	788.515
94.914	24.111	989.358	787.767
95.928	24.078	988.551	786.909
96.943	24.123	987.526	786.223
97.957	23.860	986.584	784.240
98.972	23.819	986.056	783.571
99.987	23.691	985.018	782.114
101.001	23.817	985.226	782.765
102.016	24.003	983.318	781.997
103.030	24.016	982.485	781.324
104.045	24.174	981.101	780.846
105.060	24.279	980.571	780.815
106.074	24.036	979.632	778.932
107.089	24.118	978.505	778.326
108.103	23.880	977.630	776.523
109.118	23.798	976.772	775.415
110.133	23.436	975.721	772.936
111.147	23.502	973.465	771.366
112.162	23.238	974.065	770.624
113.176	23.005	972.782	768.526
114.191	23.049	972.080	768.096
115.206	23.257	971.621	768.569
116.220	22.923	971.908	767.278
117.235	23.471	969.271	767.502
118.249	23.085	968.900	765.470
119.264	22.904	968.550	764.340
120.279	22.911	967.325	763.336
121.293	23.138	966.168	763.337
122.308	22.989	965.616	762.191
123.322	22.849	964.876	760.936
124.337	22.794	964.607	760.420
125.352	22.777	962.772	758.833
126.366	22.290	963.076	756.911
127.381	23.023	960.294	757.797
128.395	23.144	960.239	758.208
129.410	23.378	960.336	759.220
130.424	23.072	959.043	756.821
131.439	23.343	957.950	757.048
132.454	23.163	957.422	755.798
133.468	23.550	956.350	756.536
134.483	23.370	955.424	754.968
135.497	23.563	955.089	755.460
136.512	23.363	954.150	753.797
137.527	23.633	953.631	754.469
138.541	23.709	952.876	754.127
139.556	23.586	952.107	752.932
140.570	23.880	951.685	753.778
141.585	23.723	950.503	752.107
142.600	24.061	950.458	753.438
143.614	24.003	950.143	752.876
144.629	24.364	949.457	753.793
145.643	24.621	947.996	753.651
146.658	24.267	947.254	751.501
147.673	23.710	947.265	749.095
148.687	23.937	945.272	748.405
149.702	23.980	943.061	746.769
150.716	23.727	942.588	745.267
151.731	23.428	943.161	744.398
152.746	23.721	941.994	744.642
153.760	23.713	941.052	743.799
154.775	23.782	940.217	743.360
155.789	24.196	939.362	744.351
156.804	23.982	939.141	743.213
157.819	23.942	938.136	742.188
158.833	23.756	937.255	740.650
159.848	24.245	936.458	741.991
160.862	24.051	936.157	740.880
161.877	24.369	934.694	740.976
162.892	23.523	934.117	736.941
163.906	23.548	932.635	735.810
164.921	23.406	932.723	735.226
165.935	23.613	930.437	734.214
166.950	23.591	928.949	732.884
167.964	23.700	928.732	733.099
168.979	23.581	928.311	732.211
169.994	23.734	926.616	731.437
171.008	23.672	926.043	730.664
172.023	23.798	924.848	730.174
173.037	24.383	924.276	732.063
174.052	24.135	924.665	731.287
175.067	24.122	923.856	730.527
176.081	24.291	921.381	729.198
177.096	23.345	921.356	725.243
178.110	23.098	920.910	723.818
179.125	23.336	919.120	723.317
180.140	23.214	918.726	722.445
181.154	23.213	917.965	721.779
182.169	23.480	918.297	723.065
183.183	23.967	917.864	724.643
184.198	23.965	916.787	723.721
185.213	23.978	915.887	723.000
186.227	24.204	915.903	723.867
187.242	23.917	915.117	722.018
188.256	24.083	914.180	721.889
189.271	24.081	914.109	721.759
190.286	24.137	913.198	721.205
191.300	24.123	912.287	720.365
192.315	23.492	911.044	716.766
193.329	22.795	909.627	712.775
194.344	22.873	909.353	712.812
195.359	23.141	909.421	713.883
196.373	23.539	908.922	715.035
197.388	23.786	908.641	715.745
198.402	23.911	907.931	715.626
199.417	24.156	908.465	716.972
200.432	24.522	907.230	717.404
201.446	24.774	906.432	717.720
202.461	24.481	907.158	717.053
203.475	24.743	905.657	716.853
204.490	24.383	904.980	714.814
205.504	23.672	904.564	711.573
206.519	23.537	904.144	710.639
207.534	23.993	902.631	711.210
208.548	24.359	901.191	711.471
209.563	23.823	902.155	710.029
210.577	23.826	901.727	709.641
211.592	24.118	900.093	709.455
212.607	24.357	900.149	710.389
213.621	24.440	899.513	710.157
214.636	24.394	898.508	709.116
215.650	24.345	897.747	708.259
216.665	24.402	896.972	707.810
217.680	24.317	897.207	707.594
218.694	24.236	895.784	706.089
219.709	24.078	895.628	705.280
220.723	24.104	894.450	704.393
221.738	23.978	894.538	703.901
222.753	24.196	892.678	703.236
223.767	23.539	893.878	701.523
224.782	24.313	892.362	703.325
225.796	24.136	891.875	702.179
226.811	24.478	891.207	702.939
227.826	24.496	890.183	702.138
228.840	23.913	889.751	699.446
229.855	23.528	888.972	697.256
230.869	23.928	887.977	697.986
231.884	23.805	887.783	697.288
232.899	23.600	887.420	696.139
233.913	23.989	886.448	696.836
234.928	23.860	886.591	696.381
235.942	23.706	885.779	695.082
236.957	23.490	884.287	693.003
237.972	23.369	883.600	691.932
238.986	23.208	882.857	690.661
240.001	23.459	882.833	691.559
241.015	23.294	881.647	689.926
242.030	23.673	881.147	690.952
243.045	23.833	881.172	691.531
244.059	23.795	879.736	690.196
245.074	23.810	880.309	690.642
246.088	23.948	879.456	690.448
247.103	24.046	879.830	691.059
248.117	23.840	879.090	689.618
249.132	24.661	878.403	692.201
250.147	25.134	877.462	693.228
251.161	25.030	878.146	693.304
252.176	25.287	877.243	693.522
253.190	25.483	876.616	693.723
254.205	25.307	876.130	692.597
255.220	25.419	876.315	693.114
256.234	25.084	874.791	690.557
257.249	25.260	873.870	690.445
258.263	24.779	873.483	688.227
259.278	24.798	872.989	687.853
260.293	24.873	871.862	687.193
261.307	24.859	872.039	687.215
262.322	24.832	871.694	686.779
263.336	24.942	871.233	686.777
264.351	24.889	870.664	686.064
265.366	24.867	868.531	684.240
266.380	24.514	868.164	682.540
267.395	25.125	867.882	684.592
268.409	25.141	867.128	683.998
269.424	25.020	866.444	682.936
270.439	24.893	865.821	681.901
271.453	24.870	865.124	681.203
272.468	24.714	864.519	680.074
273.482	25.272	863.349	681.212
274.497	24.916	863.433	679.865
275.512	24.913	863.309	679.699
276.526	24.785	862.097	678.199
277.541	24.828	861.602	677.913
278.555	24.838	861.266	677.627
279.570	24.891	860.558	677.211
280.585	25.353	859.894	678.374
281.599	25.274	859.303	677.547
282.614	25.081	859.488	676.903
283.628	24.853	857.343	674.297
284.643	24.680	856.859	673.205
285.657	24.704	856.885	673.256
286.672	24.890	856.046	673.237
287.687	24.761	855.358	672.152
288.701	24.832	855.199	672.233
289.716	24.991	855.414	672.941
290.730	25.270	853.949	672.774
291.745	24.690	853.674	670.325
292.760	24.622	854.083	670.332
293.774	25.001	853.824	671.489
294.789	25.347	853.020	672.093
295.803	25.374	853.060	672.167
296.818	25.218	851.260	670.108
297.833	25.170	850.657	669.394
298.847	24.974	849.801	667.930
299.862	24.721	849.619	666.785
300.876	24.589	849.313	665.993
301.891	24.911	848.900	666.809
302.906	25.169	848.252	667.201
303.920	25.845	847.718	669.234
304.935	25.781	847.082	668.437
305.949	25.554	847.073	667.525
306.964	25.738	845.704	667.072
307.979	25.333	844.903	664.879
308.993	25.372	844.360	664.537
310.008	25.163	843.371	662.929
311.022	25.397	843.563	663.885
312.037	25.262	842.145	662.215
313.052	25.202	842.082	661.884
314.066	25.349	841.576	661.969
315.081	24.720	840.156	658.480
316.095	24.047	840.318	656.067
317.110	24.813	839.972	658.559
318.125	25.164	838.703	658.795
319.139	24.726	838.605	657.051
320.154	24.162	839.048	655.266
321.168	23.949	836.931	652.774
322.183	24.798	835.500	654.707
323.197	24.783	836.324	655.242
324.212	24.411	836.367	653.854
325.227	24.817	835.293	654.442
326.241	24.950	834.514	654.261
327.256	24.685	834.797	653.457
328.270	24.346	834.452	651.890
329.285	24.534	832.871	651.283
330.300	24.307	833.153	650.616
331.314	24.450	831.377	649.692
332.329	24.160	831.839	648.940
333.343	24.516	830.001	648.741
334.358	25.160	830.739	651.602
335.373	24.979	829.756	650.116
336.387	24.877	830.266	650.090
337.402	25.155	829.177	650.186
338.416	25.154	828.701	649.750
339.431	25.524	828.677	651.016
340.446	25.447	828.751	650.737
341.460	25.934	827.198	651.222
342.475	25.786	827.265	650.683
343.489	25.840	826.392	650.130
344.504	26.063	825.586	650.245
345.519	25.925	826.044	650.051
346.533	26.186	825.214	650.278
347.548	25.996	824.758	649.178
348.562	26.492	822.805	649.362
349.577	25.901	822.426	646.887
350.592	25.293	823.093	645.169
351.606	25.393	822.679	645.147
352.621	25.271	821.395	643.645
353.635	25.092	821.037	642.667
354.650	25.171	821.491	643.249
355.665	25.083	820.302	641.947
356.679	25.218	818.318	640.819
357.694	25.045	819.641	641.179
358.708	24.949	819.266	640.486
359.723	25.420	817.806	640.968
360.738	25.076	817.537	639.471
361.752	25.112	817.031	639.148
362.767	25.119	816.146	638.425
363.781	25.428	816.647	639.861
364.796	25.948	816.499	641.539
365.810	25.846	816.379	641.026
366.825	25.842	815.939	640.611
367.840	26.112	815.623	641.263
368.854	25.901	814.616	639.667
369.869	25.662	814.063	638.326
370.883	25.569	812.661	636.845
371.898	25.450	813.133	636.734
372.913	26.155	811.623	637.987
373.927	25.932	811.540	637.078
374.942	25.734	811.167	636.030
375.956	25.606	810.496	634.994
376.971	25.954	810.117	635.871
377.986	25.880	810.148	635.577
379.000	26.045	808.299	634.651
380.015	26.103	808.175	634.701
381.029	25.802	807.980	633.433
382.044	25.811	808.250	633.622
383.059	25.768	807.229	632.613
384.073	26.205	806.525	633.540
385.088	26.197	805.547	632.686
386.102	25.856	804.866	630.904
387.117	25.545	804.396	629.388
388.132	25.392	803.961	628.457
389.146	25.577	802.694	628.059
390.161	25.218	802.515	626.611
391.175	25.701	802.768	628.438
392.190	26.337	802.272	630.214
393.205	26.073	801.819	628.883
394.219	25.434	801.151	626.075
395.234	24.715	800.182	622.760
396.248	24.665	798.861	621.502
397.263	24.999	798.703	622.485
398.278	25.392	798.660	623.764
399.292	25.022	799.226	622.862
400.307	25.041	797.869	621.817
401.321	24.557	797.521	619.812
402.336	25.146	796.803	621.237
403.350	25.039	797.052	621.008
404.365	25.671	796.470	622.688
405.380	25.722	796.363	622.724
406.394	26.330	797.022	625.289
407.409	26.022	796.781	623.979
408.423	26.681	795.353	625.081
409.438	26.783	794.116	624.404
410.453	26.415	795.243	623.965
411.467	26.380	793.565	622.474
412.482	26.564	792.442	622.170
413.496	26.369	792.575	621.550
414.511	26.275	792.344	620.989
415.526	26.312	792.283	621.015
416.540	26.348	791.508	620.476
417.555	26.311	790.640	619.612
418.569	26.462	790.258	619.775
419.584	26.210	790.731	619.228
420.599	26.391	790.079	619.283
421.613	160.887	1369.641	1793.595
422.628	139.354	1454.048	1793.662
