DTS Sentinel unit serial number:	SN413079Multiplexer serial number:	ORYXHardware model number:	OX4-SRSoftware version number:	ORYX F/W v4.00 Oryx Data Collector v3.7.2.0data status	okinstallation	princeton_trtdifferential loss correction	single-endedforward channel	channel 3reverse channel	N/Adate	2019/09/13time	08:48:35forward acquisition time	60.00reverse acquisition time	0.00gamma	496.2192k internal	0.2329k external	0.2329temperature offset calibration	1.0141default loss term (dB/km)	0.3790temperature slope calibration	1.0000multiplexer offset coefficient	1.0000multiplexer slope coefficient	1.0000fibre end	0.00T internal ref (°C)	28.00T ext. ref 1 (°C)	4.32T ext. ref 2 (°C)	24.97length (m)	temperature (°C)	Stokes	anti-Stokes-747.200	356.319	0.037	0.074
-746.185	-126.740	0.127	-0.019
-745.171	3.992	0.266	0.196
-744.156	-91.275	-0.562	0.162
-743.142	36.577	0.102	-0.091
-742.127	11.378	-0.125	-0.097
-741.112	-52.513	-0.069	-0.032
-740.098	38.955	0.154	0.139
-739.083	-168.308	-0.389	0.015
-738.069	76.633	0.192	0.206
-737.054	-200.000	0.007	-0.056
-736.039	-12.504	-0.137	0.090
-735.025	-47.128	0.184	-0.090
-734.010	-36.181	-0.204	-0.111
-732.996	-108.950	0.159	-0.034
-731.981	-73.112	-0.217	0.080
-730.966	-53.651	0.111	0.051
-729.952	-30.415	0.321	0.183
-728.937	-120.248	-0.076	-0.013
-727.923	203.744	-0.025	-0.039
-726.908	-132.944	-0.399	0.051
-725.894	-100.355	0.153	0.038
-724.879	-126.254	-0.302	-0.045
-723.864	-101.793	-0.278	0.068
-722.850	-131.978	0.045	-0.006
-721.835	-109.807	0.223	-0.047
-720.821	-200.000	0.000	-0.108
-719.806	-200.000	-0.021	-0.307
-718.791	128.736	0.059	-0.076
-717.777	-74.650	0.054	0.020
-716.762	122.645	-0.089	0.112
-715.748	-17.661	0.079	-0.050
-714.733	-104.025	0.312	-0.073
-713.718	-101.908	0.072	-0.017
-712.704	-200.000	-0.034	-0.300
-711.689	18.411	0.159	-0.128
-710.675	84.373	0.119	0.131
-709.660	299.390	0.068	-0.125
-708.645	-34.840	-0.314	-0.173
-707.631	-138.655	-0.114	-0.013
-706.616	186.748	-0.147	-0.221
-705.602	-35.917	0.153	-0.083
-704.587	542.285	-0.040	-0.097
-703.572	800.000	0.080	0.264
-702.558	463.358	-0.105	0.235
-701.543	-200.000	0.064	0.281
-700.529	371.184	-0.095	-0.194
-699.514	-200.000	0.002	-0.275
-698.499	-9.015	0.134	-0.090
-697.485	-200.000	-0.040	-0.282
-696.470	408.819	0.084	-0.178
-695.456	-200.000	-0.049	-0.246
-694.441	95.343	0.065	0.075
-693.426	-200.000	0.018	0.091
-692.412	-109.332	-0.257	0.055
-691.397	255.459	0.097	0.167
-690.383	101.723	0.232	-0.272
-689.368	140.149	-0.079	-0.104
-688.354	800.000	-0.053	-0.200
-687.339	-200.000	0.031	-0.357
-686.324	594.577	0.089	0.221
-685.310	-144.894	-0.313	-0.029
-684.295	-200.000	-0.036	-0.254
-683.281	-200.000	-0.005	-0.087
-682.266	-71.320	0.129	0.048
-681.251	68.803	0.194	0.200
-680.237	12.115	-0.315	0.243
-679.222	75.199	-0.172	-0.183
-678.208	800.000	0.192	0.575
-677.193	-200.000	-0.045	0.307
-676.178	106.108	-0.084	0.100
-675.164	52.238	-0.095	0.091
-674.149	-200.000	0.043	0.269
-673.135	-102.715	-0.474	0.114
-672.120	-101.248	0.313	-0.077
-671.105	-101.929	-0.403	-0.098
-670.091	-65.787	-0.136	-0.055
-669.076	55.186	-0.021	-0.020
-668.062	-125.712	-0.409	0.062
-667.047	51.963	-0.051	0.048
-666.032	332.655	-0.106	0.205
-665.018	-135.942	0.379	0.045
-664.003	-200.000	-0.017	0.144
-662.989	-200.000	-0.007	-0.042
-661.974	-21.406	-0.168	0.103
-660.959	-200.000	-0.037	-0.366
-659.945	-200.000	-0.005	0.032
-658.930	-200.000	-0.007	-0.065
-657.916	-96.026	-0.204	0.054
-656.901	-29.710	-0.192	0.110
-655.886	-133.140	-0.244	-0.031
-654.872	515.303	-0.097	-0.228
-653.857	-200.000	0.013	0.084
-652.843	455.341	-0.074	-0.165
-651.828	-115.840	-0.269	-0.050
-650.814	-151.193	0.219	-0.016
-649.799	-97.408	0.261	0.068
-648.784	713.574	0.158	-0.421
-647.770	800.000	-0.108	0.432
-646.755	-36.439	-0.361	0.195
-645.741	601.853	0.150	0.375
-644.726	-200.000	-0.010	0.112
-643.711	-57.418	-0.356	-0.157
-642.697	479.884	-0.097	-0.220
-641.682	-33.861	-0.102	-0.056
-640.668	-200.000	0.014	0.115
-639.653	-72.651	-0.158	0.058
-638.638	221.185	0.099	0.159
-637.624	-200.000	-0.053	-0.309
-636.609	-200.000	-0.018	-0.424
-635.595	800.000	-0.059	-0.223
-634.580	300.748	-0.046	0.085
-633.565	-200.000	0.015	0.397
-632.551	-104.757	0.080	-0.018
-631.536	800.000	0.094	0.263
-630.522	800.000	0.032	0.105
-629.507	529.963	0.096	0.228
-628.492	-200.000	-0.024	0.200
-627.478	800.000	0.047	-0.150
-626.463	196.216	-0.033	-0.051
-625.449	109.025	-0.249	0.299
-624.434	-89.973	0.120	0.035
-623.419	-200.000	-0.317	-0.001
-622.405	337.969	0.151	0.295
-621.390	-200.000	-0.044	0.316
-620.376	-170.102	-0.434	0.015
-619.361	9.416	0.098	0.074
-618.346	26.650	-0.054	0.046
-617.332	641.390	-0.032	-0.080
-616.317	8.298	-0.099	0.074
-615.303	800.000	0.101	-0.318
-614.288	-200.000	-0.028	0.236
-613.273	310.722	-0.175	0.328
-612.259	-200.000	0.005	-0.111
-611.244	-14.979	-0.242	-0.156
-610.230	-200.000	0.029	-0.174
-609.215	-200.000	-0.011	0.074
-608.201	257.892	0.196	-0.338
-607.186	-43.014	-0.263	-0.134
-606.171	291.204	-0.021	0.038
-605.157	-148.268	0.129	0.011
-604.142	-57.178	0.266	-0.117
-603.128	-58.340	-0.142	0.062
-602.113	-200.000	0.032	-0.335
-601.098	-7.275	-0.109	-0.074
-600.084	78.411	-0.098	0.105
-599.069	-84.362	0.198	0.063
-598.055	800.000	-0.108	-0.330
-597.040	158.190	0.021	0.030
-596.025	-84.702	-0.515	-0.162
-595.011	-55.637	0.285	-0.128
-593.996	-31.193	-0.231	0.130
-592.982	-133.656	-0.226	-0.028
-591.967	-57.854	-0.216	-0.094
-590.952	-67.262	0.119	0.047
-589.938	-110.811	-0.329	0.068
-588.923	-123.293	-0.510	-0.082
-587.909	168.360	-0.113	-0.161
-586.894	-69.130	-0.068	0.026
-585.879	13.811	-0.199	0.155
-584.865	246.151	0.238	-0.401
-583.850	800.000	0.059	-0.242
-582.836	109.134	0.283	0.339
-581.821	800.000	-0.092	0.312
-580.806	-82.154	0.070	-0.023
-579.792	88.391	-0.092	-0.102
-578.777	137.094	0.153	0.200
-577.763	446.243	-0.065	0.142
-576.748	160.702	-0.148	0.207
-575.733	-17.022	0.233	0.147
-574.719	0.713	0.124	0.089
-573.704	800.000	-0.067	-0.287
-572.690	71.325	-0.225	-0.234
-571.675	-149.689	-0.271	-0.021
-570.661	-200.000	-0.013	0.215
-569.646	-200.000	-0.028	0.222
-568.631	-152.309	0.360	-0.026
-567.617	57.524	0.268	0.262
-566.602	-52.196	0.187	-0.087
-565.588	-179.466	-0.291	0.006
-564.573	178.172	0.063	-0.092
-563.558	-132.113	0.222	0.029
-562.544	800.000	0.073	-0.241
-561.529	-59.265	-0.174	0.075
-560.515	167.075	0.044	-0.063
-559.500	-200.000	-0.101	0.592
-558.485	-40.620	-0.096	0.050
-557.471	0.180	0.136	-0.097
-556.456	155.326	0.178	-0.245
-555.442	800.000	0.050	-0.183
-554.427	-55.487	0.291	0.130
-553.412	800.000	-0.107	-0.345
-552.398	498.078	0.139	-0.319
-551.383	800.000	-0.098	-0.293
-550.369	147.569	-0.174	0.234
-549.354	-194.654	-0.209	0.002
-548.339	-200.000	0.029	0.189
-547.325	-116.824	-0.101	0.019
-546.310	138.565	0.036	-0.048
-545.296	150.312	0.179	0.243
-544.281	317.276	-0.088	-0.167
-543.266	-109.175	-0.423	-0.090
-542.252	-124.869	0.221	0.034
-541.237	23.261	-0.167	0.137
-540.223	800.000	-0.047	-0.200
-539.208	-200.000	0.025	-0.168
-538.193	36.795	0.186	0.164
-537.179	-200.000	0.024	-0.244
-536.164	-160.755	0.431	0.023
-535.150	251.256	-0.082	0.140
-534.135	-18.718	-0.327	0.204
-533.121	-32.296	0.267	-0.149
-532.106	-200.000	-0.002	-0.456
-531.091	-118.580	-0.450	-0.080
-530.077	-200.000	0.044	-0.340
-529.062	176.418	-0.058	0.084
-528.048	-135.470	-0.229	0.027
-527.033	-107.788	0.338	-0.074
-526.018	800.000	-0.049	0.159
-525.004	-101.797	-0.245	-0.059
-523.989	-63.119	0.251	0.103
-522.975	595.598	-0.026	0.063
-521.960	800.000	-0.060	0.171
-520.945	221.656	-0.211	0.339
-519.931	-136.542	-0.156	0.018
-518.916	-200.000	-0.013	0.083
-517.902	-140.365	-0.434	0.045
-516.887	-79.630	0.097	-0.033
-515.872	800.000	-0.089	0.279
-514.858	-108.383	-0.283	-0.061
-513.843	61.790	-0.106	-0.105
-512.829	-200.000	-0.031	0.335
-511.814	800.000	-0.030	0.113
-510.799	494.504	0.050	0.115
-509.785	800.000	0.119	-0.336
-508.770	108.200	-0.075	0.089
-507.756	223.312	0.203	0.327
-506.741	83.539	-0.086	0.094
-505.726	151.945	-0.126	0.171
-504.712	-113.360	0.444	0.087
-503.697	800.000	-0.070	-0.254
-502.683	-10.760	0.196	0.129
-501.668	800.000	-0.017	0.073
-500.653	-1.442	0.267	-0.188
-499.639	-65.787	0.099	0.040
-498.624	-94.423	0.050	-0.013
-497.610	-200.000	0.016	0.125
-496.595	64.746	-0.020	-0.021
-495.581	-200.000	0.060	0.281
-494.566	-180.116	-0.119	-0.003
-493.551	-163.850	0.117	0.005
-492.537	-46.263	0.108	0.053
-491.522	10.836	-0.253	-0.192
-490.508	54.755	-0.263	-0.253
-489.493	800.000	-0.043	-0.158
-488.478	-59.415	-0.136	0.058
-487.464	-90.030	-0.376	-0.109
-486.449	-93.613	-0.351	-0.097
-485.435	376.756	0.114	0.232
-484.420	-43.756	0.361	-0.181
-483.405	800.000	-0.092	0.263
-482.391	105.384	-0.062	-0.073
-481.376	484.451	-0.121	-0.275
-480.362	-187.189	0.261	-0.004
-479.347	351.266	-0.094	0.185
-478.332	68.848	-0.119	-0.122
-477.318	-200.000	0.002	-0.134
-476.303	-123.064	-0.100	-0.016
-475.289	-200.000	0.005	0.203
-474.274	-200.000	-0.003	0.212
-473.259	-122.165	-0.121	0.020
-472.245	-33.404	0.160	0.088
-471.230	184.961	0.055	0.081
-470.216	-58.350	-0.092	0.040
-469.201	-200.000	-0.019	0.110
-468.186	-47.642	0.258	-0.125
-467.172	800.000	0.033	0.128
-466.157	106.867	0.131	0.155
-465.143	-171.306	0.114	0.004
-464.128	-118.183	0.079	0.014
-463.113	-5.816	0.277	-0.189
-462.099	-105.322	0.459	0.104
-461.084	-200.000	0.065	0.296
-460.070	115.339	0.144	-0.176
-459.055	252.920	-0.125	-0.213
-458.040	-45.543	-0.207	0.102
-457.026	374.875	-0.063	-0.127
-456.011	512.157	-0.097	0.226
-454.997	-23.808	0.188	-0.112
-453.982	-200.000	0.001	0.041
-452.968	161.183	0.241	-0.335
-451.953	-16.840	0.112	-0.071
-450.938	120.770	0.062	-0.076
-449.924	-150.361	-0.346	-0.027
-448.909	-108.526	-0.280	0.060
-447.895	-154.378	-0.346	-0.023
-446.880	377.777	0.009	-0.018
-445.865	104.195	0.150	0.176
-444.851	21.216	0.146	-0.118
-443.836	800.000	-0.100	-0.288
-442.822	-77.403	-0.584	0.202
-441.807	367.643	0.072	0.145
-440.792	-168.844	0.375	0.014
-439.778	-129.716	0.324	-0.044
-438.763	661.998	-0.058	-0.150
-437.749	-79.970	0.157	-0.052
-436.734	-200.000	0.005	-0.076
-435.719	20.829	-0.188	0.152
-434.705	800.000	0.030	-0.100
-433.690	398.783	0.096	-0.200
-432.676	-103.352	0.157	0.037
-431.661	393.210	-0.116	0.241
-430.646	-3.892	0.314	0.217
-429.632	180.750	0.190	-0.278
-428.617	-27.928	-0.119	-0.068
-427.603	-200.000	-0.015	0.124
-426.588	469.813	0.108	-0.241
-425.573	18.125	0.405	-0.321
-424.559	194.881	0.259	-0.391
-423.544	-50.225	-0.052	0.025
-422.530	150.294	0.078	-0.105
-421.515	-97.912	-0.300	-0.077
-420.500	-115.435	0.280	0.052
-419.486	-200.000	0.024	-0.245
-418.471	-194.892	-0.363	0.003
-417.457	-84.750	-0.361	0.113
-416.442	87.794	-0.115	-0.126
-415.428	470.694	0.088	0.197
-414.413	152.116	0.181	-0.245
-413.398	295.580	0.073	-0.133
-412.384	140.304	-0.240	0.315
-411.369	255.511	0.177	0.301
-410.355	-132.542	-0.190	-0.024
-409.340	-105.832	0.292	-0.066
-408.325	-200.000	-0.044	0.317
-407.311	-200.000	0.031	0.203
-406.296	-80.814	0.403	-0.133
-405.282	-200.000	-0.046	-0.415
-404.267	75.899	-0.034	-0.036
-403.252	34.951	0.155	0.135
-402.238	251.137	0.162	-0.274
-401.223	-169.895	-0.254	0.009
-400.209	-47.639	-0.100	-0.048
-399.194	144.218	-0.267	-0.354
-398.179	-148.202	-0.262	0.021
-397.165	-200.000	-0.015	-0.237
-396.150	-104.200	-0.182	0.042
-395.136	-200.000	-0.023	-0.209
-394.121	-33.670	0.333	0.182
-393.106	-15.836	0.247	-0.157
-392.092	-49.059	0.133	0.063
-391.077	-10.983	-0.234	0.154
-390.063	175.158	-0.142	-0.204
-389.048	-200.000	0.084	-0.410
-388.033	-82.316	0.180	-0.058
-387.019	-102.113	-0.183	-0.044
-386.004	800.000	-0.069	-0.227
-384.990	800.000	0.052	-0.177
-383.975	226.540	0.182	-0.293
-382.960	-131.731	-0.187	0.024
-381.946	-110.048	0.122	-0.025
-380.931	-200.000	0.034	-0.260
-379.917	216.903	-0.088	0.139
-378.902	392.443	-0.046	-0.095
-377.888	61.474	-0.067	0.066
-376.873	-200.000	-0.008	0.182
-375.858	-200.000	0.012	0.101
-374.844	-2.287	0.231	-0.161
-373.829	196.175	-0.028	-0.042
-372.815	6.285	-0.167	-0.123
-371.800	-124.608	-0.140	0.022
-370.785	-67.919	0.075	0.029
-369.771	221.087	0.071	-0.113
-368.756	-200.000	-0.009	-0.142
-367.742	0.727	-0.324	0.230
-366.727	-131.575	0.212	0.028
-365.712	124.972	0.113	-0.141
-364.698	13.774	0.175	-0.135
-363.683	800.000	0.036	0.147
-362.669	-200.000	0.025	0.208
-361.654	800.000	-0.102	0.328
-360.639	-200.000	0.012	0.354
-359.625	-72.649	0.232	0.085
-358.610	115.913	-0.293	-0.356
-357.596	-200.000	0.042	0.296
-356.581	4.501	-0.108	0.079
-355.566	-75.953	0.086	0.030
-354.552	588.032	-0.085	0.209
-353.537	800.000	0.075	0.232
-352.523	-200.000	-0.003	0.293
-351.508	-26.802	0.195	0.113
-350.493	161.405	-0.136	0.189
-349.479	-64.255	0.138	0.056
-348.464	-200.000	0.055	0.307
-347.450	-200.000	-0.017	-0.135
-346.435	49.745	-0.197	0.184
-345.420	-48.010	0.119	0.057
-344.406	-145.643	-0.201	-0.018
-343.391	-200.000	0.003	-0.150
-342.377	-109.699	-0.265	0.055
-341.362	-34.019	0.186	0.102
-340.348	-84.841	-0.088	0.027
-339.333	-142.496	-0.115	-0.011
-338.318	-165.971	-0.238	-0.010
-337.304	127.328	-0.192	0.241
-336.289	-77.914	0.128	0.044
-335.275	-81.711	0.183	0.059
-334.260	-1.812	0.215	0.150
-333.245	-120.309	-0.031	-0.005
-332.231	57.486	-0.332	-0.321
-331.216	-200.000	0.016	-0.253
-330.202	-40.606	-0.197	0.101
-329.187	800.000	-0.115	-0.388
-328.172	-192.600	-0.099	0.001
-327.158	-200.000	0.043	0.275
-326.143	-47.442	0.306	-0.148
-325.129	-131.187	-0.283	-0.037
-324.114	-88.560	0.121	-0.036
-323.099	-135.746	-0.315	0.037
-322.085	-70.677	0.109	0.041
-321.070	-109.456	-0.351	0.073
-320.056	167.677	0.189	-0.266
-319.041	-59.098	-0.198	-0.085
-318.026	357.669	-0.081	0.161
-317.012	-42.057	-0.235	-0.119
-315.997	-200.000	0.036	0.351
-314.983	286.527	0.016	0.028
-313.968	181.405	0.087	0.126
-312.953	-85.360	-0.196	-0.061
-311.939	447.305	0.132	-0.287
-310.924	12.910	-0.155	-0.119
-309.910	166.528	-0.078	0.110
-308.895	33.143	0.374	0.321
-307.880	-74.112	0.099	0.035
-306.866	-20.669	-0.037	0.022
-305.851	-78.150	0.250	0.085
-304.837	-200.000	-0.006	-0.073
-303.822	12.536	0.045	0.034
-302.807	-125.456	-0.162	0.024
-301.793	-84.520	0.552	-0.173
-300.778	5.761	-0.264	-0.193
-299.764	-200.000	-0.022	-0.155
-298.749	-45.612	0.220	0.108
-297.735	-31.247	0.255	-0.142
-296.720	75.440	-0.312	-0.326
-295.705	-91.005	0.353	0.100
-294.691	370.520	0.066	0.133
-293.676	-200.000	-0.004	0.088
-292.662	21.548	0.022	-0.018
-291.647	-125.706	0.139	-0.021
-290.632	-147.783	-0.164	0.014
-289.618	800.000	0.065	-0.182
-288.603	-200.000	0.001	0.095
-287.589	-75.699	0.137	0.048
-286.574	-19.973	-0.323	-0.197
-285.559	353.982	0.109	0.215
-284.545	217.506	-0.056	-0.089
-283.530	-200.000	-0.039	-0.261
-282.516	-135.994	-0.087	-0.010
-281.501	-25.709	-0.038	0.022
-280.486	-156.418	-0.176	-0.011
-279.472	-76.311	-0.100	0.035
-278.457	-200.000	-0.003	0.267
-277.443	182.569	-0.115	-0.168
-276.428	63.746	0.288	0.286
-275.413	232.353	-0.170	-0.277
-274.399	23.972	-0.120	0.098
-273.384	-58.460	0.030	-0.013
-272.370	-90.955	0.026	-0.007
-271.355	800.000	-0.064	0.182
-270.340	800.000	-0.145	-0.405
-269.326	-200.000	0.066	0.295
-268.311	-11.927	0.323	0.209
-267.297	218.349	0.092	0.145
-266.282	-61.635	0.399	-0.165
-265.267	-54.215	-0.240	0.108
-264.253	467.598	-0.013	0.029
-263.238	800.000	-0.035	0.107
-262.224	96.117	0.239	-0.270
-261.209	-63.920	0.274	-0.111
-260.195	173.814	0.287	-0.410
-259.180	294.715	0.085	0.153
-258.165	-154.083	-0.106	0.007
-257.151	-200.000	0.025	0.186
-256.136	494.863	-0.122	-0.277
-255.122	-51.345	-0.193	-0.089
-254.107	-47.680	0.151	0.072
-253.092	-84.531	-0.335	0.104
-252.078	-28.679	0.185	0.105
-251.063	122.487	-0.194	-0.240
-250.049	-13.721	0.165	-0.106
-249.034	147.497	-0.172	0.229
-248.019	-145.575	0.073	0.006
-247.005	-200.000	-0.025	0.198
-245.990	36.362	-0.119	0.104
-244.976	161.402	0.317	0.437
-243.961	-59.857	0.174	-0.073
-242.946	-112.316	0.075	0.015
-241.932	138.451	-0.087	0.113
-240.917	-57.541	-0.109	0.047
-239.903	171.557	0.350	0.496
-238.888	-200.000	-0.032	0.235
-237.873	64.611	0.012	-0.012
-236.859	406.678	-0.183	0.382
-235.844	-76.055	0.104	0.036
-234.830	-200.000	-0.010	0.138
-233.815	-200.000	0.013	-0.110
-232.800	-88.121	0.214	-0.063
-231.786	0.662	-0.153	-0.108
-230.771	-63.573	0.206	0.083
-229.757	34.784	-0.182	-0.157
-228.742	153.886	0.086	0.116
-227.727	274.269	-0.077	-0.135
-226.713	-83.147	0.260	-0.083
-225.698	-200.000	0.258	-0.001
-224.684	243.272	0.077	-0.128
-223.669	-26.239	-0.143	-0.083
-222.655	-200.000	0.021	0.110
-221.640	-46.748	0.127	0.061
-220.625	26.839	-0.149	0.123
-219.611	-118.938	-0.253	0.044
-218.596	-138.922	0.254	-0.027
-217.582	800.000	0.013	0.049
-216.567	-200.000	0.068	-0.475
-215.552	119.933	0.272	0.333
-214.538	-200.000	-0.018	-0.258
-213.523	496.402	-0.041	-0.092
-212.509	221.257	-0.039	0.062
-211.494	101.047	0.138	0.158
-210.479	-122.856	0.262	-0.042
-209.465	-139.499	-0.374	0.039
-208.450	173.354	-0.161	0.229
-207.436	-118.390	0.061	-0.011
-206.421	284.419	-0.032	-0.057
-205.406	-45.656	-0.312	-0.152
-204.392	-55.014	0.372	0.165
-203.377	584.469	-0.031	0.076
-202.363	152.698	0.217	-0.293
-201.348	118.165	-0.060	-0.073
-200.333	611.068	-0.039	-0.095
-199.319	-32.217	-0.113	0.062
-198.304	-26.779	0.225	-0.130
-197.290	-200.000	-0.051	-0.324
-196.275	144.229	0.214	0.281
-195.260	-67.972	0.250	0.096
-194.246	273.573	-0.105	-0.183
-193.231	-79.755	-0.038	0.013
-192.217	110.544	-0.047	0.055
-191.202	-113.210	0.203	0.039
-190.187	-119.243	0.123	0.021
-189.173	389.520	0.098	-0.201
-188.158	-32.540	0.229	-0.126
-187.144	114.101	0.070	0.083
-186.129	-126.107	-0.078	-0.012
-185.114	800.000	0.057	0.217
-184.100	800.000	0.066	0.202
-183.085	328.696	-0.091	-0.172
-182.071	292.278	-0.153	-0.274
-181.056	800.000	-0.046	0.134
-180.042	66.095	-0.098	-0.098
-179.027	558.237	-0.092	-0.219
-178.012	-92.936	-0.210	0.058
-176.998	-39.376	-0.178	0.092
-175.983	-154.888	0.404	-0.026
-174.969	-60.332	-0.213	0.089
-173.954	-126.370	0.310	-0.046
-172.939	31.065	0.144	-0.121
-171.925	423.110	-0.019	0.041
-170.910	-11.150	0.253	-0.164
-169.896	-163.250	0.101	0.005
-168.881	-200.000	-0.004	0.053
-167.866	-200.000	-0.077	-0.519
-166.852	-119.924	-0.109	0.018
-165.837	800.000	0.118	0.489
-164.823	71.013	-0.225	-0.229
-163.808	152.236	-0.085	-0.114
-162.793	86.562	0.108	0.117
-161.779	-43.858	0.191	0.095
-160.764	0.316	0.228	-0.160
-159.750	-125.082	-0.222	0.034
-158.735	125.479	0.090	-0.112
-157.720	36.734	-0.021	-0.018
-156.706	-200.000	0.020	0.259
-155.691	-111.998	0.028	-0.005
-154.677	800.000	0.054	-0.224
-153.662	800.000	0.033	0.113
-152.647	-47.786	0.113	0.054
-151.633	155.049	-0.219	-0.297
-150.618	11.794	0.249	0.188
-149.604	39.268	0.091	-0.080
-148.589	-200.000	0.008	-0.117
-147.574	800.000	0.019	0.057
-146.560	29.470	-0.137	0.114
-145.545	-145.487	0.091	0.008
-144.531	170.301	0.148	0.209
-143.516	-14.943	0.150	-0.094
-142.502	-200.000	-0.004	0.138
-141.487	116.554	0.214	0.258
-140.472	191.002	0.074	0.109
-139.458	-107.609	0.072	-0.015
-138.443	-82.265	0.144	0.046
-137.429	-200.000	0.036	-0.320
-136.414	83.897	0.219	-0.235
-135.399	349.099	0.078	-0.152
-134.385	242.064	-0.159	-0.262
-133.370	443.892	0.193	0.416
-132.356	-9.874	-0.126	0.083
-131.341	800.000	-0.107	0.316
-130.326	392.257	-0.094	0.193
-129.312	-113.968	-0.069	-0.013
-128.297	67.150	0.013	0.013
-127.283	-60.752	0.326	0.136
-126.268	-200.000	-0.006	0.336
-125.253	800.000	0.160	-0.480
-124.239	-145.700	0.078	-0.007
-123.224	154.884	0.147	0.199
-122.210	-169.720	-0.158	0.006
-121.195	104.403	-0.183	-0.212
-120.180	-200.000	-0.001	-0.005
-119.166	-200.000	-0.029	0.370
-118.151	17.468	0.176	-0.137
-117.137	113.583	0.076	0.091
-116.122	-200.000	-0.027	0.253
-115.107	78.470	0.146	0.153
-114.093	-165.060	0.140	-0.006
-113.078	47.922	-0.163	0.149
-112.064	274.020	-0.218	0.379
-111.049	272.639	0.063	-0.109
-110.034	800.000	0.086	0.333
-109.020	-44.931	0.226	-0.110
-108.005	-200.000	0.028	-0.221
-106.991	-146.295	-0.174	0.015
-105.976	419.159	-0.074	0.156
-104.962	-200.000	0.010	-0.210
-103.947	663.936	0.152	0.385
-102.932	-108.813	-0.081	0.017
-101.918	-32.889	0.195	0.106
-100.903	-80.638	-0.189	0.062
-99.889	800.000	0.078	0.245
-98.874	-66.475	-0.162	0.063
-97.859	-143.865	0.330	-0.031
-96.845	-85.224	-0.382	-0.117
-95.830	136.377	-0.186	-0.238
-94.816	-200.000	0.028	-0.246
-93.801	121.962	0.206	0.253
-92.786	-123.229	-0.413	0.065
-91.772	-62.342	-0.192	0.078
-90.757	800.000	-0.045	-0.162
-89.743	-23.283	0.263	0.155
-88.728	516.939	0.138	0.316
-87.713	-40.768	-0.186	0.095
-86.699	800.000	-0.087	0.296
-85.684	-200.000	0.057	0.335
-84.670	7.534	-0.284	0.208
-83.655	-157.657	-0.101	0.006
-82.640	269.464	-0.123	-0.212
-81.626	450.716	0.104	-0.226
-80.611	367.304	0.105	-0.208
-79.597	-192.884	0.197	0.002
-78.582	-17.020	0.214	0.132
-77.567	-65.939	0.080	0.031
-76.553	44.831	-0.277	-0.250
-75.538	-71.223	0.436	0.161
-74.524	-200.000	0.004	0.244
-73.509	-65.563	0.129	0.051
-72.494	138.589	0.093	-0.120
-71.480	-196.410	-0.350	0.002
-70.465	147.011	-0.131	0.173
-69.451	-42.159	0.189	0.095
-68.436	-200.000	0.015	-0.084
-67.422	-26.311	0.160	0.092
-66.407	177.024	0.105	0.150
-65.392	260.116	0.114	-0.194
-64.378	249.360	0.019	0.032
-63.363	101.323	0.223	0.254
-62.349	-24.238	0.259	0.152
-61.334	58.008	-1.114	-1.069
-60.319	324.237	0.436	0.816
-59.305	800.000	-0.342	-0.996
-58.290	298.306	0.618	1.114
-57.276	649.642	0.533	1.338
-56.261	-200.000	110.954	604.466
-55.246	497.637	1529.292	3451.037
-54.232	174.255	2711.063	3841.444
-53.217	107.138	2192.686	2554.482
-52.203	38.389	1716.364	1499.219
-51.188	31.112	1532.972	1288.922
-50.173	28.861	1507.416	1252.072
-49.159	50.113	1566.437	1449.453
-48.144	49.750	1581.836	1461.122
-47.130	31.234	1536.724	1292.718
-46.115	28.274	1521.688	1259.690
-45.100	28.195	1518.083	1256.110
-44.086	28.068	1516.196	1253.633
-43.071	28.044	1513.993	1251.594
-42.057	28.082	1512.137	1250.269
-41.042	27.996	1511.223	1248.878
-40.027	27.963	1509.730	1247.373
-39.013	27.999	1507.774	1245.947
-37.998	27.974	1507.062	1245.143
-36.984	27.976	1505.415	1243.742
-35.969	27.969	1504.464	1242.863
-34.954	27.957	1502.649	1241.229
-33.940	27.981	1501.515	1240.408
-32.925	28.016	1499.808	1239.189
-31.911	28.005	1498.758	1238.198
-30.896	28.009	1497.866	1237.435
-29.881	28.030	1496.523	1236.420
-28.867	27.995	1495.178	1235.022
-27.852	28.100	1493.582	1234.363
-26.838	28.089	1492.172	1233.075
-25.823	28.078	1490.957	1231.950
-24.809	27.976	1489.337	1229.873
-23.794	27.980	1488.400	1229.077
-22.779	27.978	1487.057	1227.908
-21.765	28.104	1485.936	1227.778
-20.750	28.065	1484.415	1226.215
-19.736	27.970	1483.555	1224.816
-18.721	28.033	1482.115	1224.003
-17.706	27.983	1481.520	1223.129
-16.692	27.974	1480.416	1222.106
-15.677	28.108	1478.734	1221.566
-14.663	27.931	1478.415	1220.073
-13.648	28.060	1476.765	1219.520
-12.633	28.033	1476.098	1218.745
-11.619	28.029	1475.500	1218.176
-10.604	28.001	1474.303	1216.954
-9.590	27.985	1473.366	1216.021
-8.575	28.034	1472.544	1215.619
-7.560	27.993	1471.699	1214.600
-6.546	27.920	1471.043	1213.531
-5.531	27.908	1469.985	1212.525
-4.517	27.916	1468.885	1211.623
-3.502	27.988	1467.635	1211.022
-2.487	28.009	1466.225	1209.951
-1.473	28.002	1465.535	1209.285
-0.458	27.866	1465.261	1208.116
0.556	29.954	1455.566	1198.773
1.571	27.294	1430.193	1160.820
2.586	24.022	1369.304	1091.278
3.600	22.300	1285.792	1014.706
4.615	20.856	1239.315	969.910
5.629	17.975	1182.252	909.842
6.644	10.751	1099.561	810.218
7.659	5.356	1061.693	756.202
8.673	4.514	1056.428	748.332
9.688	4.314	1052.762	744.710
10.702	4.261	1050.962	743.115
11.717	4.191	1049.468	741.659
12.731	6.768	1052.095	755.797
13.746	14.418	1062.369	799.957
14.761	20.557	1070.117	835.313
15.775	22.068	1071.167	843.318
16.790	21.520	1069.698	839.462
17.804	20.647	1068.055	833.914
18.819	19.993	1065.863	828.997
19.834	19.466	1064.424	825.284
20.848	19.373	1063.971	824.416
21.863	19.298	1063.465	823.595
22.877	19.135	1062.871	822.284
23.892	18.961	1061.640	820.429
24.907	18.914	1061.150	819.753
25.921	18.822	1060.084	818.418
26.936	18.868	1059.438	818.064
27.950	18.841	1058.562	817.188
28.965	18.825	1057.727	816.398
29.980	18.957	1056.456	815.967
30.994	19.079	1055.343	815.615
32.009	19.267	1054.149	815.511
33.023	19.305	1053.468	815.093
34.038	19.313	1052.835	814.566
35.053	19.180	1051.655	812.954
36.067	19.018	1051.062	811.661
37.082	18.924	1050.154	810.441
38.096	18.974	1049.450	810.065
39.111	19.155	1048.839	810.372
40.126	19.198	1047.845	809.735
41.140	19.071	1046.482	808.012
42.155	18.620	1045.350	804.954
43.169	18.515	1044.284	803.568
44.184	18.480	1043.207	802.505
45.199	18.462	1042.668	801.936
46.213	18.437	1041.522	800.864
47.228	18.718	1040.298	801.164
48.242	18.900	1039.743	801.514
49.257	19.092	1038.985	801.754
50.271	18.987	1037.776	800.263
51.286	19.034	1037.084	799.876
52.301	19.024	1036.794	799.533
53.315	19.017	1035.975	798.802
54.330	18.960	1035.328	797.966
55.344	18.807	1033.816	796.021
56.359	18.772	1032.722	794.945
57.374	18.779	1032.199	794.506
58.388	18.654	1031.456	793.286
59.403	18.547	1030.151	791.720
60.417	18.417	1029.596	790.624
61.432	18.485	1028.684	790.164
62.447	18.532	1027.870	789.686
63.461	18.326	1027.408	788.312
64.476	18.383	1026.130	787.524
65.490	18.269	1025.322	786.310
66.505	18.334	1024.440	785.862
67.520	18.280	1023.711	784.988
68.534	18.383	1022.799	784.688
69.549	18.409	1022.364	784.406
70.563	18.383	1021.322	783.419
71.578	18.312	1020.631	782.494
72.593	18.277	1019.486	781.390
73.607	18.126	1018.405	779.802
74.622	17.987	1017.448	778.365
75.636	18.057	1016.849	778.157
76.651	18.172	1016.094	778.036
77.666	18.125	1015.161	777.037
78.680	18.216	1014.484	776.864
79.695	18.318	1014.350	777.157
80.709	18.368	1013.519	776.679
81.724	18.511	1012.346	776.357
82.739	18.544	1012.293	776.398
83.753	18.637	1011.603	776.222
84.768	18.813	1010.981	776.472
85.782	19.062	1010.321	777.018
86.797	19.378	1009.659	777.868
87.812	19.305	1008.914	776.897
88.826	19.206	1007.946	775.634
89.841	19.067	1007.197	774.364
90.855	19.260	1006.250	774.434
91.870	19.075	1005.940	773.297
92.884	19.280	1005.008	773.431
93.899	19.294	1004.334	772.910
94.914	19.286	1002.945	771.736
95.928	19.319	1002.494	771.467
96.943	19.294	1002.006	770.912
97.957	19.436	1000.625	770.417
98.972	19.134	1000.293	768.744
99.987	19.027	999.634	767.691
101.001	19.152	998.834	767.568
102.016	19.145	998.060	766.873
103.030	19.226	996.674	766.101
104.045	19.113	996.018	765.028
105.060	19.197	995.061	764.597
106.074	19.008	994.053	762.916
107.089	18.824	993.207	761.385
108.103	18.488	992.027	758.924
109.118	18.455	990.684	757.683
110.133	18.344	990.026	756.624
111.147	18.329	988.900	755.631
112.162	18.136	988.209	754.181
113.176	18.540	986.848	754.858
114.191	18.612	986.268	754.661
115.206	18.624	985.346	753.945
116.220	18.511	984.789	752.952
117.235	18.480	983.946	752.108
118.249	18.534	983.343	751.815
119.264	18.583	982.136	751.043
120.279	18.401	981.500	749.691
121.293	18.378	980.732	748.939
122.308	18.280	980.029	747.907
123.322	18.209	979.374	747.032
124.337	18.103	977.954	745.421
125.352	18.159	976.877	744.778
126.366	18.098	975.647	743.509
127.381	18.138	974.835	742.999
128.395	18.100	973.788	741.970
129.410	18.075	973.106	741.274
130.424	18.316	972.083	741.476
131.439	18.305	971.660	741.038
132.454	18.455	970.548	740.772
133.468	18.513	970.092	740.610
134.483	18.460	969.438	739.819
135.497	18.545	968.522	739.417
136.512	18.492	968.149	738.841
137.527	18.672	966.687	738.433
138.541	18.488	966.568	737.486
139.556	18.524	965.654	736.880
140.570	18.544	965.191	736.546
141.585	18.665	964.470	736.450
142.600	18.833	964.277	736.957
143.614	19.029	962.931	736.704
144.629	19.132	962.413	736.682
145.643	19.127	962.139	736.384
146.658	19.191	960.929	735.669
147.673	18.997	959.792	733.903
148.687	18.885	958.572	732.431
149.702	18.592	958.403	730.988
150.716	18.505	957.016	729.494
151.731	18.624	955.995	729.158
152.746	18.620	955.546	728.732
153.760	18.781	954.280	728.388
154.775	18.730	953.992	727.884
155.789	18.815	953.440	727.760
156.804	18.878	952.500	727.244
157.819	18.972	951.549	726.854
158.833	18.790	951.336	725.855
159.848	19.081	950.422	726.323
160.862	19.177	949.996	726.338
161.877	19.262	949.191	726.017
162.892	18.880	947.974	723.411
163.906	18.512	946.729	720.852
164.921	18.547	946.101	720.458
165.935	18.617	944.677	719.603
166.950	18.637	944.129	719.205
167.964	18.835	943.505	719.495
168.979	18.749	942.313	718.166
169.994	18.684	940.793	716.669
171.008	18.702	940.030	716.099
172.023	18.678	939.716	715.697
173.037	18.880	938.997	715.930
174.052	19.222	938.162	716.653
175.067	19.063	937.470	715.400
176.081	18.831	936.426	713.573
177.096	18.650	935.368	711.955
178.110	18.520	934.454	710.660
179.125	18.619	934.333	710.911
180.140	18.756	933.381	710.692
181.154	18.695	932.516	709.720
182.169	18.868	932.231	710.156
183.183	19.161	931.820	710.988
184.198	19.084	930.901	709.908
185.213	19.123	930.254	709.510
186.227	19.252	929.205	709.179
187.242	19.162	929.425	708.915
188.256	19.250	928.871	708.789
189.271	19.241	928.271	708.234
190.286	19.424	927.506	708.338
191.300	19.324	926.177	706.850
192.315	18.632	925.556	703.477
193.329	18.481	924.463	701.965
194.344	18.381	924.186	701.283
195.359	18.614	923.738	701.838
196.373	18.799	922.909	701.899
197.388	18.957	922.327	702.041
198.402	19.160	922.373	702.841
199.417	19.395	922.203	703.609
200.432	19.459	921.613	703.359
201.446	19.545	921.054	703.218
202.461	19.639	920.974	703.479
203.475	19.655	920.594	703.191
204.490	19.647	919.792	702.484
205.504	19.392	918.478	700.384
206.519	19.251	917.421	698.944
207.534	19.074	916.835	697.716
208.548	19.168	916.044	697.433
209.563	19.107	915.617	696.799
210.577	19.248	914.073	696.135
211.592	19.110	914.231	695.634
212.607	19.516	913.709	696.814
213.621	19.556	913.079	696.433
214.636	19.514	912.342	695.642
215.650	19.337	912.180	694.743
216.665	19.499	911.182	694.573
217.680	19.633	910.988	694.904
218.694	19.649	910.572	694.590
219.709	19.721	910.082	694.441
220.723	19.623	909.425	693.486
221.738	19.645	908.546	692.843
222.753	19.587	908.045	692.169
223.767	19.419	907.368	690.918
224.782	19.654	906.405	691.062
225.796	19.797	905.492	690.879
226.811	19.793	905.169	690.553
227.826	19.805	904.180	689.787
228.840	19.576	903.713	688.456
229.855	19.573	902.608	687.540
230.869	19.546	902.237	687.090
231.884	19.445	901.306	685.917
232.899	19.472	900.602	685.429
233.913	19.255	900.569	684.482
234.928	19.487	898.965	684.123
235.942	19.190	898.229	682.325
236.957	19.064	897.788	681.430
237.972	19.209	896.883	681.258
238.986	19.278	896.589	681.248
240.001	19.162	896.144	680.389
241.015	19.243	895.242	679.965
242.030	19.264	894.650	679.538
243.045	19.494	894.214	680.050
244.059	19.485	893.680	679.549
245.074	19.478	893.179	679.081
246.088	19.544	892.522	678.781
247.103	19.777	891.666	678.985
248.117	19.684	891.350	678.319
249.132	20.056	891.150	679.565
250.147	20.059	891.031	679.428
251.161	20.300	890.586	679.975
252.176	20.461	889.789	679.936
253.190	20.655	888.588	679.714
254.205	20.677	888.429	679.620
255.220	20.713	887.955	679.337
256.234	20.575	887.513	678.401
257.249	20.522	886.638	677.463
258.263	20.349	886.407	676.553
259.278	20.557	885.301	676.461
260.293	20.498	885.102	676.019
261.307	20.598	884.611	675.971
262.322	20.594	883.818	675.291
263.336	20.665	883.363	675.157
264.351	20.738	883.043	675.137
265.366	20.677	882.162	674.168
266.380	20.674	881.358	673.483
267.395	20.592	880.834	672.706
268.409	20.630	879.755	671.970
269.424	20.329	879.601	670.627
270.439	20.394	878.879	670.271
271.453	20.465	877.865	669.711
272.468	20.220	877.155	668.167
273.482	20.379	876.472	668.199
274.497	20.485	875.940	668.142
275.512	20.328	875.360	667.036
276.526	20.325	874.719	666.476
277.541	20.326	873.938	665.828
278.555	20.339	873.586	665.550
279.570	20.442	873.303	665.671
280.585	20.795	872.426	666.294
281.599	20.662	872.374	665.686
282.614	20.532	871.563	664.512
283.628	20.483	870.565	663.503
284.643	20.348	870.209	662.661
285.657	20.410	869.520	662.311
286.672	20.486	868.996	662.143
287.687	20.389	868.822	661.583
288.701	20.452	868.301	661.370
289.716	20.414	867.645	660.667
290.730	20.579	867.122	660.836
291.745	20.542	866.071	659.837
292.760	20.511	865.807	659.460
293.774	20.549	865.210	659.092
294.789	20.770	864.979	659.693
295.803	20.848	864.342	659.446
296.818	20.691	863.202	657.924
297.833	20.649	862.490	657.162
298.847	20.541	861.532	655.966
299.862	20.606	861.033	655.775
300.876	20.532	861.027	655.434
301.891	20.708	860.031	655.280
302.906	20.805	859.655	655.299
303.920	20.987	858.922	655.369
304.935	21.130	858.337	655.401
305.949	21.318	857.948	655.752
306.964	21.130	857.365	654.544
307.979	21.050	856.537	653.553
308.993	20.880	856.078	652.507
310.008	21.024	855.526	652.569
311.022	21.108	855.306	652.657
312.037	21.112	854.596	652.072
313.052	20.967	853.761	650.835
314.066	20.721	852.967	649.256
315.081	20.587	852.358	648.236
316.095	20.539	851.810	647.581
317.110	20.706	851.347	647.794
318.125	20.639	850.997	647.221
319.139	20.477	850.294	646.028
320.154	20.624	849.698	646.063
321.168	20.700	848.905	645.687
322.183	20.665	848.713	645.353
323.197	20.551	848.876	644.995
324.212	20.801	847.774	645.030
325.227	20.839	847.359	644.794
326.241	20.572	846.846	643.362
327.256	20.786	845.765	643.274
328.270	20.639	845.217	642.259
329.285	20.680	844.809	642.043
330.300	20.689	844.278	641.615
331.314	20.699	843.573	641.060
332.329	20.783	842.744	640.680
333.343	20.814	842.819	640.796
334.358	21.091	842.147	641.246
335.373	20.938	841.903	640.441
336.387	21.090	841.050	640.295
337.402	21.073	840.768	639.960
338.416	21.345	839.756	640.128
339.431	21.214	839.649	639.514
340.446	21.435	839.277	639.979
341.460	21.579	838.752	640.049
342.475	21.548	838.393	639.606
343.489	21.675	837.475	639.313
344.504	21.684	837.095	638.999
345.519	21.733	836.933	638.998
346.533	21.765	836.378	638.635
347.548	21.655	835.611	637.590
348.562	21.400	834.886	636.053
349.577	21.292	834.268	635.134
350.592	21.208	833.689	634.332
351.606	21.041	833.146	633.255
352.621	21.177	832.369	633.104
353.635	21.247	831.883	632.931
354.650	21.160	831.764	632.468
355.665	21.310	831.306	632.610
356.679	21.314	830.698	632.105
357.694	21.258	830.420	631.633
358.708	21.432	829.752	631.697
359.723	21.397	829.164	631.071
360.738	21.491	828.561	630.892
361.752	21.417	828.024	630.161
362.767	21.477	827.612	630.007
363.781	21.548	827.580	630.184
364.796	21.800	827.216	630.758
365.810	21.826	826.745	630.437
366.825	21.978	826.598	630.814
367.840	22.006	826.177	630.537
368.854	21.939	825.724	629.896
369.869	21.871	825.098	629.120
370.883	21.754	824.491	628.182
371.898	21.747	823.859	627.619
372.913	21.976	823.184	627.869
373.927	22.044	822.741	627.718
374.942	22.000	821.823	626.807
375.956	21.951	821.144	626.057
376.971	21.955	820.688	625.670
377.986	22.183	820.306	626.133
379.000	22.182	819.972	625.819
380.015	22.154	819.430	625.252
381.029	22.097	819.199	624.816
382.044	22.212	818.206	624.413
383.059	22.167	817.594	623.730
384.073	22.167	817.072	623.277
385.088	22.014	816.992	622.619
386.102	21.880	815.850	621.218
387.117	21.749	815.101	620.129
388.132	21.785	814.606	619.827
389.146	21.718	814.159	619.194
390.161	21.891	813.715	619.412
391.175	21.965	813.697	619.605
392.190	22.076	812.970	619.390
393.205	22.179	812.419	619.278
394.219	21.839	811.984	617.694
395.234	21.897	811.523	617.491
396.248	21.804	811.190	616.858
397.263	21.563	810.748	615.619
398.278	21.553	810.051	614.999
399.292	21.556	809.389	614.451
400.307	21.403	809.532	613.970
401.321	21.533	808.756	613.783
402.336	21.668	808.273	613.834
403.350	21.789	807.974	613.979
404.365	21.796	807.608	613.669
405.380	22.086	807.038	614.196
406.394	22.226	806.576	614.281
407.409	22.226	806.635	614.271
408.423	22.407	806.293	614.588
409.438	22.390	805.675	614.001
410.453	22.548	805.141	614.091
411.467	22.601	804.534	613.760
412.482	22.652	804.034	613.500
413.496	22.583	803.873	613.082
414.511	22.839	803.499	613.634
415.526	22.675	803.255	612.823
416.540	22.561	802.929	612.124
417.555	22.574	802.164	611.534
418.569	22.368	801.868	610.538
419.584	22.518	801.129	610.442
420.599	22.640	800.635	610.435
421.613	163.669	1370.320	1795.608
422.628	142.222	1453.308	1795.703
