DTS Sentinel unit serial number:	SN413079Multiplexer serial number:	ORYXHardware model number:	OX4-SRSoftware version number:	ORYX F/W v4.00 Oryx Data Collector v3.7.2.0data status	okinstallation	princeton_trtdifferential loss correction	single-endedforward channel	channel 3reverse channel	N/Adate	2019/09/12time	07:26:11forward acquisition time	60.00reverse acquisition time	0.00gamma	496.2192k internal	0.2318k external	0.2318temperature offset calibration	1.0033default loss term (dB/km)	0.3790temperature slope calibration	1.0000multiplexer offset coefficient	1.0000multiplexer slope coefficient	1.0000fibre end	0.00T internal ref (°C)	32.44T ext. ref 1 (°C)	1.62T ext. ref 2 (°C)	28.90length (m)	temperature (°C)	Stokes	anti-Stokes-747.200	43.809	0.193	-0.179
-746.185	327.144	-0.205	0.398
-745.171	-72.053	-0.156	0.059
-744.156	-200.000	0.009	0.360
-743.142	-200.000	-0.006	0.066
-742.127	154.025	0.122	0.169
-741.112	-42.191	0.324	0.168
-740.098	-23.320	-0.126	-0.076
-739.083	-111.984	-0.256	0.052
-738.069	-116.574	-0.373	0.069
-737.054	227.506	-0.145	0.239
-736.039	-94.335	-0.581	-0.161
-735.025	230.707	-0.118	-0.195
-734.010	-47.871	-0.166	0.081
-732.996	800.000	0.071	-0.281
-731.981	800.000	-0.073	0.212
-730.966	237.196	-0.208	-0.348
-729.952	67.782	0.088	0.091
-728.937	-200.000	-0.033	-0.235
-727.923	251.580	-0.239	-0.411
-726.908	-8.156	-0.092	0.063
-725.894	-95.575	0.178	0.048
-724.879	-32.915	-0.277	-0.156
-723.864	12.403	-0.198	-0.154
-722.850	800.000	0.008	0.027
-721.835	800.000	0.031	0.087
-720.821	-85.175	-0.047	-0.015
-719.806	-103.580	-0.312	0.074
-718.791	-102.333	-0.388	0.094
-717.777	360.472	-0.169	-0.342
-716.762	-200.000	0.005	0.173
-715.748	74.629	0.106	-0.113
-714.733	-200.000	0.016	-0.223
-713.718	-142.650	0.306	-0.030
-712.704	433.480	-0.042	-0.093
-711.689	92.424	0.084	-0.096
-710.675	800.000	0.123	-0.367
-709.660	-101.986	0.235	-0.057
-708.645	99.536	0.213	0.249
-707.631	128.968	-0.091	0.117
-706.616	81.945	-0.223	0.244
-705.602	800.000	-0.137	0.494
-704.587	43.954	0.102	-0.095
-703.572	330.536	-0.101	-0.196
-702.558	-73.763	0.363	0.133
-701.543	-108.295	-0.187	0.041
-700.529	117.466	-0.071	-0.088
-699.514	63.638	0.241	0.244
-698.499	800.000	-0.136	-0.419
-697.485	50.713	-0.224	-0.214
-696.470	165.986	-0.101	0.144
-695.456	155.629	0.057	0.080
-694.441	800.000	0.028	-0.088
-693.426	-96.035	0.221	-0.059
-692.412	-156.224	-0.177	-0.011
-691.397	-97.668	0.204	0.053
-690.383	121.434	-0.146	-0.184
-689.368	-40.964	-0.479	0.250
-688.354	-200.000	-0.037	-0.171
-687.339	624.795	0.037	-0.093
-686.324	-55.179	-0.105	0.048
-685.310	-66.957	-0.252	0.101
-684.295	-82.644	-0.050	-0.016
-683.281	-0.082	0.249	-0.179
-682.266	-200.000	0.000	-0.108
-681.251	-200.000	0.018	-0.101
-680.237	146.760	-0.048	0.066
-679.222	-42.645	-0.289	-0.149
-678.208	-200.000	0.046	0.307
-677.193	471.935	0.098	0.222
-676.178	800.000	0.023	0.094
-675.164	75.123	0.147	0.156
-674.149	-175.550	-0.262	0.007
-673.135	476.545	0.116	0.265
-672.120	800.000	-0.053	-0.192
-671.105	113.258	0.159	0.195
-670.091	-128.347	-0.025	-0.004
-669.076	69.698	-0.071	-0.074
-668.062	-111.694	0.311	0.064
-667.047	-58.968	0.171	-0.075
-666.032	-118.702	-0.105	0.019
-665.018	-70.751	-0.206	0.078
-664.003	360.168	0.116	-0.234
-662.989	800.000	0.063	-0.179
-661.974	60.831	-0.276	-0.276
-660.959	-32.127	-0.079	0.045
-659.945	-18.445	-0.260	-0.164
-658.930	-46.747	0.324	0.160
-657.916	131.003	-0.075	0.097
-656.901	168.612	0.247	-0.355
-655.886	-98.488	0.291	0.075
-654.872	-71.163	-0.129	-0.049
-653.857	326.399	-0.107	0.207
-652.843	23.851	0.149	-0.124
-651.828	55.308	0.092	0.090
-650.814	-200.000	0.452	-0.002
-649.799	-161.759	0.229	0.012
-648.784	-96.315	-0.168	0.045
-647.770	147.328	-0.214	0.291
-646.755	-200.000	-0.080	-0.405
-645.741	-47.997	-0.215	0.105
-644.726	-58.796	-0.221	0.096
-643.711	-200.000	-0.037	0.338
-642.697	-73.529	0.220	0.081
-641.682	-200.000	-0.038	0.306
-640.668	114.658	-0.263	0.323
-639.653	-10.550	0.114	0.076
-638.638	-55.371	-0.275	0.124
-637.624	-152.671	0.390	-0.028
-636.609	268.991	0.123	-0.218
-635.595	-147.037	0.142	0.012
-634.580	-62.608	-0.328	0.137
-633.565	-25.356	0.042	-0.025
-632.551	110.667	0.216	-0.262
-631.536	228.828	0.152	-0.249
-630.522	-23.382	0.272	-0.164
-629.507	65.879	-0.148	0.151
-628.492	800.000	-0.081	0.332
-627.478	-125.863	-0.182	-0.028
-626.463	-96.591	-0.285	-0.076
-625.449	-7.558	-0.360	-0.245
-624.434	290.130	-0.105	-0.193
-623.419	301.209	-0.169	-0.315
-622.405	157.505	0.102	0.142
-621.390	-101.386	-0.554	0.136
-620.376	-80.593	0.243	0.081
-619.361	-200.000	0.015	-0.164
-618.346	-117.235	0.058	-0.011
-617.332	-162.881	0.377	0.018
-616.317	-19.852	-0.115	-0.071
-615.303	339.855	0.164	0.322
-614.288	53.020	0.317	0.305
-613.273	-200.000	-0.008	0.083
-612.259	37.449	-0.136	0.121
-611.244	82.379	-0.116	0.127
-610.230	-73.722	-0.113	0.041
-609.215	98.700	0.195	-0.226
-608.201	-23.529	-0.238	-0.144
-607.186	800.000	-0.015	-0.045
-606.171	274.009	0.055	-0.098
-605.157	800.000	0.076	0.281
-604.142	56.030	-0.338	0.330
-603.128	-200.000	-0.261	0.001
-602.113	800.000	-0.064	0.273
-601.098	-200.000	-0.021	0.233
-600.084	-37.871	-0.128	-0.069
-599.069	39.672	0.067	-0.061
-598.055	-200.000	-0.045	-0.208
-597.040	-136.635	-0.292	-0.034
-596.025	-20.976	0.100	-0.061
-595.011	-200.000	-0.037	-0.270
-593.996	80.012	0.110	-0.119
-592.982	-33.051	0.195	-0.109
-591.967	103.269	0.089	0.105
-590.952	417.676	0.193	0.415
-589.938	-200.000	0.018	-0.095
-588.923	-200.000	0.032	-0.174
-587.909	727.799	0.033	0.088
-586.894	-200.000	-0.065	0.318
-585.879	800.000	-0.131	0.475
-584.865	157.199	0.221	0.308
-583.850	-143.421	0.215	-0.021
-582.836	-24.754	-0.157	-0.094
-581.821	-46.529	-0.411	-0.203
-580.806	484.612	0.077	-0.176
-579.792	423.766	0.121	-0.262
-578.777	-200.000	0.010	0.165
-577.763	-200.000	0.005	0.234
-576.748	-200.000	-0.039	0.378
-575.733	-121.524	-0.338	-0.056
-574.719	-63.295	0.126	-0.052
-573.704	130.794	-0.083	-0.107
-572.690	94.792	-0.208	0.238
-571.675	-96.165	0.137	-0.037
-570.661	-200.000	0.007	0.248
-569.646	90.805	0.067	-0.076
-568.631	-200.000	-0.057	0.277
-567.617	-140.930	0.260	-0.027
-566.602	118.243	0.292	-0.362
-565.588	405.573	0.142	-0.300
-564.573	-200.000	-0.086	-0.530
-563.558	75.005	0.135	-0.143
-562.544	-139.156	0.148	-0.016
-561.529	427.651	-0.095	-0.207
-560.515	-200.000	0.005	0.134
-559.500	55.417	-0.267	-0.259
-558.485	800.000	0.091	-0.320
-557.471	-200.000	-0.028	-0.299
-556.456	431.606	0.121	0.264
-555.442	800.000	0.039	-0.139
-554.427	-79.282	-0.173	-0.059
-553.412	800.000	0.028	0.098
-552.398	156.980	-0.134	-0.186
-551.383	-164.231	-0.111	-0.005
-550.369	800.000	0.009	0.037
-549.354	535.254	0.031	0.073
-548.339	-159.358	-0.099	0.006
-547.325	800.000	-0.162	0.472
-546.310	213.363	-0.178	0.282
-545.296	-125.358	0.168	-0.026
-544.281	-200.000	0.042	-0.189
-543.266	68.058	0.098	0.100
-542.252	-43.988	0.102	-0.051
-541.237	-200.000	0.007	-0.067
-540.223	116.780	0.139	-0.171
-539.208	-200.000	0.033	-0.242
-538.193	-61.277	-0.302	-0.128
-537.179	-23.134	-0.109	0.066
-536.164	-67.425	-0.276	0.109
-535.150	-23.081	-0.026	0.015
-534.135	-182.915	-0.218	0.004
-533.121	-200.000	-0.015	-0.314
-532.106	127.305	-0.162	-0.206
-531.091	800.000	-0.085	-0.277
-530.077	396.575	-0.152	0.319
-529.062	143.979	0.104	0.139
-528.048	-51.122	0.371	0.175
-527.033	-65.379	-0.267	0.108
-526.018	384.093	0.053	-0.110
-525.004	22.677	-0.095	-0.078
-523.989	98.850	-0.252	-0.292
-522.975	-120.587	0.534	0.091
-521.960	-147.813	0.187	-0.016
-520.945	114.030	0.173	0.211
-519.931	-50.629	0.092	0.044
-518.916	-35.178	-0.114	0.062
-517.902	-83.185	0.387	-0.125
-516.887	128.138	-0.204	-0.260
-515.872	156.443	0.247	-0.341
-514.858	76.106	-0.164	-0.175
-513.843	800.000	0.071	0.304
-512.829	-8.272	0.304	0.205
-511.814	800.000	0.079	0.222
-510.799	-135.750	0.160	-0.019
-509.785	-52.666	-0.156	0.072
-508.770	-103.683	0.408	-0.096
-507.756	-154.802	-0.055	0.004
-506.741	-122.181	-0.217	-0.036
-505.726	500.955	-0.039	0.091
-504.712	74.358	-0.094	-0.099
-503.697	-200.000	0.034	0.169
-502.683	51.361	0.316	-0.301
-501.668	-200.000	-0.000	0.291
-500.653	365.152	-0.034	-0.069
-499.639	519.622	-0.093	0.219
-498.624	-16.328	0.022	-0.014
-497.610	-200.000	-0.022	0.211
-496.595	800.000	-0.019	0.059
-495.581	-42.886	0.150	0.076
-494.566	208.100	0.089	0.139
-493.551	84.872	-0.190	-0.209
-492.537	-200.000	0.024	0.142
-491.522	-160.622	-0.555	-0.030
-490.508	-200.000	-0.118	0.645
-489.493	-144.916	0.422	-0.039
-488.478	-108.809	0.126	-0.027
-487.464	800.000	0.122	0.416
-486.449	-200.000	-0.023	0.183
-485.435	286.313	-0.045	0.082
-484.420	11.075	0.104	0.080
-483.405	-151.329	-0.470	0.035
-482.391	-200.000	0.019	0.310
-481.376	2.387	0.182	0.132
-480.362	160.126	0.099	-0.138
-479.347	-143.367	0.154	0.015
-478.332	800.000	-0.053	-0.171
-477.318	-105.165	-0.399	-0.091
-476.303	27.805	-0.289	-0.244
-475.289	-155.383	0.175	-0.011
-474.274	-45.631	0.074	0.037
-473.259	-7.146	-0.199	-0.135
-472.245	27.118	0.038	0.032
-471.230	329.800	0.063	0.121
-470.216	800.000	0.115	-0.425
-469.201	416.544	-0.122	0.261
-468.186	-200.000	0.002	0.155
-467.172	-102.540	0.205	0.049
-466.157	-30.389	0.256	-0.146
-465.143	243.889	-0.006	0.011
-464.128	-200.000	-0.013	0.155
-463.113	-130.967	-0.333	0.045
-462.099	3.034	0.116	0.085
-461.084	143.041	-0.066	0.087
-460.070	-200.000	0.039	-0.279
-459.055	-165.994	0.214	-0.009
-458.040	99.446	-0.062	-0.072
-457.026	-50.241	-0.167	0.079
-456.011	84.733	-0.227	0.249
-454.997	284.000	0.027	0.048
-453.982	-94.849	0.348	-0.094
-452.968	136.161	-0.109	-0.143
-451.953	-29.259	-0.178	-0.102
-450.938	335.283	0.081	0.157
-449.924	187.180	0.097	0.145
-448.909	142.507	-0.056	-0.074
-447.895	18.495	-0.264	0.211
-446.880	-200.000	-0.084	-0.467
-445.865	214.424	-0.197	-0.311
-444.851	99.861	0.217	-0.251
-443.836	34.815	0.321	0.281
-442.822	-200.000	-0.036	0.195
-441.807	-108.635	0.172	-0.037
-440.792	-126.096	-0.106	-0.016
-439.778	-94.751	0.169	0.046
-438.763	-78.737	-0.413	0.141
-437.749	395.580	-0.152	0.317
-436.734	-200.000	-0.009	-0.137
-435.719	-200.000	-0.033	0.337
-434.705	-37.504	-0.103	-0.055
-433.690	-14.982	-0.280	0.179
-432.676	-111.906	0.098	-0.020
-431.661	411.033	-0.191	-0.405
-430.646	537.962	0.158	-0.375
-429.632	800.000	-0.156	-0.526
-428.617	-65.385	0.294	-0.118
-427.603	336.929	0.114	-0.222
-426.588	-135.010	0.148	-0.018
-425.573	72.362	0.068	0.071
-424.559	5.136	0.128	0.094
-423.544	371.461	0.032	-0.065
-422.530	800.000	0.106	0.383
-421.515	43.961	0.184	-0.168
-420.500	128.713	-0.087	0.111
-419.486	-200.000	-0.019	0.117
-418.471	-80.907	-0.094	0.031
-417.457	161.038	-0.086	0.121
-416.442	-149.066	-0.200	0.016
-415.428	80.210	-0.222	0.238
-414.413	800.000	0.006	-0.020
-413.398	-200.000	-0.005	0.302
-412.384	-23.849	0.261	-0.156
-411.369	-62.501	-0.082	-0.034
-410.355	-200.000	0.008	-0.210
-409.340	90.253	-0.111	0.124
-408.325	800.000	0.102	0.371
-407.311	-22.159	-0.125	0.076
-406.296	-101.197	0.129	0.032
-405.282	-200.000	-0.065	-0.327
-404.267	25.317	0.047	0.039
-403.252	235.485	-0.115	-0.190
-402.238	-53.052	-0.033	-0.015
-401.223	800.000	-0.070	-0.259
-400.209	264.392	-0.133	-0.231
-399.194	38.069	-0.039	-0.034
-398.179	58.709	-0.181	0.178
-397.165	-114.437	0.155	0.030
-396.150	-23.636	-0.182	-0.109
-395.136	-200.000	-0.086	0.382
-394.121	359.034	-0.111	0.222
-393.106	-200.000	-0.026	0.286
-392.092	352.746	-0.111	-0.220
-391.077	634.251	0.069	-0.174
-390.063	800.000	0.061	0.170
-389.048	-102.672	-0.050	-0.012
-388.033	220.969	-0.106	-0.169
-387.019	-62.345	0.393	-0.163
-386.004	800.000	0.025	-0.082
-384.990	-24.325	-0.174	-0.104
-383.975	89.905	0.160	-0.179
-382.960	-108.758	-0.325	-0.069
-381.946	81.936	-0.106	-0.114
-380.931	-88.115	-0.163	0.049
-379.917	-111.883	0.260	-0.052
-378.902	236.526	-0.071	-0.117
-377.888	-82.492	-0.064	-0.021
-376.873	-200.000	0.021	-0.116
-375.858	-55.394	-0.283	0.127
-374.844	-74.432	0.177	0.064
-373.829	-200.000	-0.002	-0.477
-372.815	159.700	0.032	0.045
-371.800	800.000	0.086	-0.273
-370.785	-26.649	0.076	-0.044
-369.771	-187.146	0.278	-0.004
-368.756	237.918	-0.071	0.117
-367.742	199.754	-0.110	0.169
-366.727	18.022	-0.128	0.102
-365.712	-28.115	-0.122	-0.070
-364.698	800.000	0.037	0.132
-363.683	-200.000	-0.025	-0.261
-362.669	-27.052	-0.167	0.097
-361.654	800.000	0.129	-0.391
-360.639	-200.000	-0.042	0.229
-359.625	534.795	-0.072	0.170
-358.610	-8.309	-0.047	0.032
-357.596	591.626	-0.049	-0.122
-356.581	-1.555	-0.104	0.073
-355.566	292.873	0.081	-0.146
-354.552	229.784	0.228	-0.372
-353.537	-55.021	0.227	0.102
-352.523	-64.334	0.150	0.061
-351.508	278.903	-0.131	0.233
-350.493	129.775	0.181	-0.230
-349.479	-200.000	0.002	0.158
-348.464	47.787	-0.153	-0.142
-347.450	-0.817	0.337	0.238
-346.435	25.599	0.315	-0.261
-345.420	800.000	-0.149	-0.588
-344.406	-50.014	-0.084	-0.040
-343.391	8.713	0.070	0.053
-342.377	-57.120	0.377	0.165
-341.362	340.857	0.084	-0.164
-340.348	26.769	-0.118	0.099
-339.333	-200.000	-0.009	0.325
-338.318	-128.086	0.062	0.009
-337.304	800.000	-0.108	0.454
-336.289	-9.657	0.311	-0.206
-335.275	-115.872	-0.257	0.048
-334.260	3.470	0.275	-0.200
-333.245	800.000	-0.063	-0.192
-332.231	310.065	-0.116	0.216
-331.216	800.000	0.012	0.034
-330.202	58.117	0.137	-0.134
-329.187	-168.344	0.079	0.003
-328.172	-200.000	0.054	-0.252
-327.158	-68.584	-0.218	-0.084
-326.143	384.192	0.071	-0.145
-325.129	194.809	0.131	-0.197
-324.114	-63.523	0.162	0.066
-323.099	774.212	0.109	0.295
-322.085	-77.281	-0.317	0.110
-321.070	100.935	-0.140	-0.162
-320.056	800.000	-0.049	-0.201
-319.041	769.997	-0.049	-0.133
-318.026	-200.000	0.077	0.425
-317.012	-67.711	0.154	0.060
-315.997	114.966	-0.121	-0.146
-314.983	-200.000	0.027	-0.173
-313.968	-95.810	0.088	0.023
-312.953	800.000	0.037	-0.135
-311.939	210.508	-0.089	-0.139
-310.924	331.534	0.101	-0.193
-309.910	167.557	-0.091	-0.129
-308.895	1.174	-0.089	0.063
-307.880	800.000	-0.025	0.071
-306.866	-104.833	0.155	-0.035
-305.851	-65.038	-0.067	0.027
-304.837	-121.960	-0.340	0.056
-303.822	336.524	0.082	0.159
-302.807	-34.563	0.300	-0.164
-301.793	180.599	-0.139	0.203
-300.778	-150.955	-0.060	0.005
-299.764	800.000	0.099	0.294
-298.749	-124.444	-0.301	-0.047
-297.735	800.000	-0.029	-0.117
-296.720	-200.000	0.001	0.113
-295.705	11.264	-0.196	-0.149
-294.691	18.470	0.162	-0.129
-293.676	-200.000	-0.000	-0.182
-292.662	95.492	0.222	0.252
-291.647	71.835	0.138	-0.142
-290.632	800.000	0.037	-0.160
-289.618	-191.186	-0.197	-0.002
-288.603	-57.029	0.160	0.070
-287.589	16.412	-0.173	-0.136
-286.574	65.927	0.257	-0.259
-285.559	732.144	-0.149	0.395
-284.545	134.483	-0.214	0.275
-283.530	59.408	-0.195	0.191
-282.516	1.101	0.146	0.104
-281.501	121.968	-0.151	-0.187
-280.486	-137.044	-0.220	0.025
-279.472	1.817	-0.303	0.217
-278.457	111.467	-0.164	-0.197
-277.443	-193.114	-0.242	0.002
-276.428	164.552	0.026	0.037
-275.413	-84.118	0.454	-0.143
-274.399	-3.040	0.073	0.051
-273.384	800.000	-0.049	-0.213
-272.370	34.686	0.083	0.072
-271.355	32.752	0.251	0.216
-270.340	498.181	-0.055	0.127
-269.326	-95.213	0.177	0.047
-268.311	202.253	-0.191	0.293
-267.297	9.198	-0.034	0.026
-266.282	-16.439	0.083	-0.052
-265.267	54.629	0.216	-0.206
-264.253	30.295	-0.293	0.248
-263.238	18.768	-0.087	0.069
-262.224	-140.487	-0.057	-0.006
-261.209	-71.385	-0.278	-0.103
-260.195	-200.000	0.003	0.167
-259.180	-200.000	0.008	-0.140
-258.165	800.000	-0.064	-0.211
-257.151	-16.226	-0.328	-0.207
-256.136	-9.467	-0.018	-0.012
-255.122	120.318	0.301	-0.372
-254.107	-73.609	-0.237	0.086
-253.092	162.286	0.092	-0.128
-252.078	-42.602	0.209	-0.106
-251.063	-200.000	0.031	0.233
-250.049	800.000	-0.052	-0.171
-249.034	-200.000	0.319	0.001
-248.019	17.195	0.087	-0.069
-247.005	-200.000	-0.020	0.198
-245.990	364.085	0.077	-0.153
-244.976	-98.365	0.192	-0.049
-243.961	36.098	0.117	0.102
-242.946	18.319	-0.164	-0.130
-241.932	-30.300	-0.250	0.141
-240.917	-50.485	-0.177	0.083
-239.903	333.771	0.166	-0.318
-238.888	-122.144	0.278	0.045
-237.873	-2.923	0.247	-0.171
-236.859	-200.000	0.032	0.194
-235.844	-117.902	0.139	0.025
-234.830	7.583	-0.195	-0.145
-233.815	-200.000	-0.060	0.371
-232.800	-117.472	-0.233	0.042
-231.786	52.316	-0.048	-0.046
-230.771	-148.094	0.075	-0.006
-229.757	181.846	0.057	0.084
-228.742	198.832	0.244	0.371
-227.727	-15.627	0.352	0.223
-226.713	800.000	0.060	-0.238
-225.698	-65.109	0.271	-0.108
-224.684	-33.723	0.063	0.034
-223.669	-126.988	0.484	-0.071
-222.655	20.507	-0.228	-0.182
-221.640	-115.436	-0.266	-0.050
-220.625	-200.000	0.030	0.278
-219.611	-200.000	-0.011	-0.078
-218.596	486.540	0.125	-0.282
-217.582	92.652	0.152	-0.170
-216.567	-107.013	0.455	-0.100
-215.552	134.302	-0.186	0.239
-214.538	120.703	-0.127	-0.157
-213.523	-200.000	0.012	0.318
-212.509	-200.000	-0.008	-0.186
-211.494	-118.747	0.027	-0.005
-210.479	-64.893	-0.179	0.072
-209.465	119.631	0.130	-0.160
-208.450	67.196	0.076	-0.077
-207.436	-32.384	-0.277	-0.153
-206.421	-200.000	0.010	-0.263
-205.406	800.000	0.049	-0.170
-204.392	-29.707	0.137	-0.078
-203.377	-81.019	0.235	-0.077
-202.363	-37.817	0.118	-0.062
-201.348	-83.555	-0.175	-0.056
-200.333	46.150	0.217	0.199
-199.319	43.518	-0.180	-0.163
-198.304	-52.594	0.113	0.052
-197.290	-50.798	0.370	0.172
-196.275	205.531	0.072	0.111
-195.260	567.084	-0.025	-0.060
-194.246	24.940	0.338	0.277
-193.231	-200.000	-0.011	0.130
-192.217	-84.743	-0.181	0.056
-191.202	74.033	0.173	0.180
-190.187	-165.404	0.083	0.004
-189.173	-144.673	0.404	-0.037
-188.158	-27.556	0.193	0.111
-187.144	-105.295	-0.109	0.025
-186.129	-69.711	-0.119	-0.045
-185.114	-60.747	-0.158	-0.066
-184.100	-200.000	-0.036	-0.324
-183.085	40.740	-0.262	-0.234
-182.071	800.000	-0.119	0.491
-181.056	-80.641	-0.181	-0.060
-180.042	-89.460	0.098	-0.028
-179.027	-178.449	0.229	0.005
-178.012	-20.718	-0.263	0.160
-176.998	-9.376	0.094	-0.062
-175.983	114.574	0.183	0.221
-174.969	339.526	0.024	0.046
-173.954	226.417	-0.116	0.185
-172.939	135.088	0.348	0.447
-171.925	-200.000	0.056	-0.251
-170.910	-97.517	0.397	-0.102
-169.896	261.145	-0.157	0.269
-168.881	-200.000	0.060	-0.294
-167.866	-200.000	0.009	0.280
-166.852	-151.703	-0.089	-0.006
-165.837	-105.911	-0.275	0.061
-164.823	-84.848	-0.266	-0.083
-163.808	19.855	0.175	0.140
-162.793	-133.934	-0.160	0.020
-161.779	-120.698	-0.225	-0.038
-160.764	797.947	-0.059	-0.161
-159.750	-200.000	-0.001	-0.146
-158.735	-200.000	0.011	-0.243
-157.720	24.405	0.249	0.203
-156.706	800.000	-0.079	-0.248
-155.691	-119.355	-0.288	-0.049
-154.677	54.364	-0.247	-0.235
-153.662	29.940	0.314	0.265
-152.647	-108.462	-0.161	-0.034
-151.633	199.059	-0.110	0.167
-150.618	-155.785	-0.316	0.020
-149.604	-85.227	0.207	0.064
-148.589	71.473	0.100	-0.102
-147.574	-155.889	-0.133	-0.008
-146.560	388.726	-0.039	0.080
-145.545	-116.164	0.219	0.040
-144.531	748.553	-0.055	-0.147
-143.516	-94.690	-0.236	0.063
-142.502	800.000	-0.026	-0.084
-141.487	47.535	-0.170	-0.157
-140.472	800.000	-0.071	0.211
-139.458	-32.165	-0.113	-0.062
-138.443	-152.023	0.019	0.001
-137.429	-88.002	0.136	0.040
-136.414	-200.000	-0.027	0.197
-135.399	660.985	-0.078	0.198
-134.385	-200.000	-0.074	-0.400
-133.370	-100.605	-0.453	-0.111
-132.356	205.682	0.194	0.297
-131.341	332.001	-0.090	-0.172
-130.326	-8.748	-0.024	0.016
-129.312	-11.298	0.032	0.021
-128.297	99.506	-0.082	-0.094
-127.283	-124.284	0.340	0.053
-126.268	-79.300	-0.160	0.053
-125.253	65.533	-0.072	-0.072
-124.239	632.786	0.045	0.114
-123.224	81.224	0.049	0.052
-122.210	-200.000	-0.037	-0.419
-121.195	800.000	0.077	0.217
-120.180	277.927	0.114	0.200
-119.166	-40.644	0.228	-0.117
-118.151	-200.000	0.002	-0.012
-117.137	-200.000	0.083	0.467
-116.122	-200.000	-0.031	0.158
-115.107	401.042	-0.173	-0.359
-114.093	-98.962	0.030	-0.008
-113.078	47.308	-0.299	0.275
-112.064	-200.000	-0.009	-0.086
-111.049	113.666	0.355	0.425
-110.034	109.571	-0.285	0.337
-109.020	103.778	-0.061	-0.071
-108.005	16.578	0.155	0.121
-106.991	2.752	0.194	-0.139
-105.976	55.547	0.058	-0.055
-104.962	112.891	-0.113	-0.135
-103.947	-69.598	-0.200	-0.076
-102.932	-86.587	0.183	0.055
-101.918	59.989	-0.057	0.056
-100.903	-108.925	0.244	0.051
-99.889	-57.245	0.224	0.097
-98.874	-200.000	0.015	0.270
-97.859	-53.571	0.290	0.131
-96.845	-200.000	-0.008	0.063
-95.830	800.000	-0.127	-0.461
-94.816	46.469	-0.109	0.100
-93.801	-52.025	0.087	-0.040
-92.786	800.000	-0.156	-0.474
-91.772	197.683	-0.135	-0.203
-90.757	51.427	-0.222	0.208
-89.743	-79.519	0.193	0.064
-88.728	105.838	0.078	-0.091
-87.713	800.000	-0.094	-0.341
-86.699	-14.772	0.376	0.238
-85.684	800.000	0.026	0.076
-84.670	-131.073	-0.102	0.013
-83.655	39.725	-0.308	0.273
-82.640	134.206	-0.133	0.170
-81.626	800.000	0.017	-0.052
-80.611	-67.850	0.334	0.129
-79.597	29.046	0.297	-0.248
-78.582	-200.000	0.006	-0.280
-77.567	800.000	0.073	-0.259
-76.553	-200.000	0.005	0.270
-75.538	-70.025	-0.154	0.058
-74.524	-116.699	-0.604	0.109
-73.509	19.218	0.254	-0.201
-72.494	780.197	-0.079	-0.214
-71.480	-190.091	-0.181	0.002
-70.465	172.010	-0.049	0.069
-69.451	-182.497	-0.340	-0.006
-68.436	-200.000	-0.012	0.067
-67.422	301.502	0.142	-0.258
-66.407	-200.000	0.009	-0.385
-65.392	-149.960	0.124	0.010
-64.378	-106.426	0.087	0.019
-63.363	113.052	-0.166	-0.198
-62.349	-200.000	-0.039	0.256
-61.334	107.864	-1.095	-1.286
-60.319	178.803	0.242	0.348
-59.305	675.118	-0.382	-0.977
-58.290	248.317	0.680	1.133
-57.276	480.109	0.697	1.556
-56.261	-200.000	97.866	593.324
-55.246	551.418	1395.362	3299.035
-54.232	156.990	2574.564	3505.339
-53.217	112.291	2172.919	2587.926
-52.203	43.135	1713.435	1539.956
-51.188	35.662	1527.372	1321.534
-50.173	33.275	1500.612	1282.182
-49.159	52.703	1549.375	1457.983
-48.144	54.590	1566.906	1487.401
-47.130	35.834	1526.507	1321.757
-46.115	32.793	1511.640	1288.106
-45.100	32.555	1508.144	1283.456
-44.086	32.478	1506.692	1281.642
-43.071	32.461	1504.373	1279.502
-42.057	32.497	1503.116	1278.632
-41.042	32.412	1501.685	1276.787
-40.027	32.448	1499.792	1275.372
-39.013	32.416	1498.667	1274.143
-37.998	32.414	1497.210	1272.840
-36.984	32.377	1496.556	1271.985
-35.969	32.414	1495.383	1271.187
-34.954	32.496	1493.068	1269.725
-33.940	32.380	1492.191	1268.147
-32.925	32.452	1490.727	1267.338
-31.911	32.522	1489.330	1266.570
-30.896	32.467	1487.983	1265.004
-29.881	32.492	1486.831	1264.138
-28.867	32.410	1485.416	1262.340
-27.852	32.509	1483.786	1261.567
-26.838	32.406	1482.515	1259.746
-25.823	32.474	1480.452	1258.399
-24.809	32.501	1479.127	1257.402
-23.794	32.575	1477.483	1256.448
-22.779	32.483	1476.562	1255.000
-21.765	32.458	1475.251	1253.668
-20.750	32.534	1474.205	1253.236
-19.736	32.480	1473.380	1252.127
-18.721	32.398	1472.353	1250.662
-17.706	32.470	1471.237	1250.144
-16.692	32.402	1469.997	1248.588
-15.677	32.490	1468.851	1248.144
-14.663	32.360	1468.100	1246.596
-13.648	32.338	1467.212	1245.649
-12.633	32.452	1466.017	1245.341
-11.619	32.392	1465.028	1244.052
-10.604	32.363	1464.589	1243.437
-9.590	32.422	1463.362	1242.739
-8.575	32.434	1462.555	1242.079
-7.560	32.502	1461.385	1241.488
-6.546	32.407	1460.776	1240.293
-5.531	32.414	1459.841	1239.498
-4.517	32.361	1459.047	1238.425
-3.502	32.402	1457.461	1237.302
-2.487	32.388	1456.810	1236.607
-1.473	32.213	1456.304	1234.980
-0.458	32.409	1454.336	1234.544
0.556	32.372	1445.580	1224.718
1.571	29.714	1420.303	1186.168
2.586	26.781	1363.331	1120.388
3.600	25.125	1285.070	1046.327
4.615	23.792	1237.993	1000.409
5.629	19.728	1179.505	931.215
6.644	9.986	1091.559	812.905
7.659	2.695	1050.596	746.916
8.673	1.860	1044.566	738.517
9.688	1.576	1041.519	734.925
10.702	1.547	1039.833	733.531
11.717	1.509	1037.654	731.748
12.731	4.482	1040.957	748.350
13.746	14.220	1055.160	805.853
14.761	22.462	1066.132	854.317
15.775	24.758	1068.001	866.884
16.790	25.140	1067.873	868.553
17.804	24.838	1067.158	866.432
18.819	24.734	1066.553	865.359
19.834	24.901	1065.871	865.540
20.848	25.088	1065.351	865.942
21.863	25.042	1065.074	865.420
22.877	25.199	1064.638	865.744
23.892	24.991	1063.988	864.139
24.907	24.888	1063.133	862.872
25.921	24.894	1062.608	862.394
26.936	24.904	1061.987	861.862
27.950	25.027	1060.462	861.143
28.965	24.872	1059.747	859.741
29.980	24.796	1057.934	857.830
30.994	24.783	1056.754	856.733
32.009	25.011	1056.160	857.269
33.023	25.128	1056.074	857.682
34.038	24.871	1054.586	855.172
35.053	24.819	1053.676	854.107
36.067	25.018	1053.207	854.601
37.082	24.927	1052.473	853.498
38.096	25.067	1051.378	853.200
39.111	25.102	1051.027	853.007
40.126	25.259	1050.028	852.867
41.140	25.125	1049.058	851.368
42.155	24.833	1047.507	848.649
43.169	24.582	1046.226	846.347
44.184	24.539	1045.375	845.377
45.199	24.590	1044.175	844.577
46.213	24.520	1043.797	843.864
47.228	24.675	1042.052	843.112
48.242	24.695	1041.910	843.013
49.257	24.812	1041.355	843.040
50.271	24.956	1040.304	842.794
51.286	25.051	1039.739	842.706
52.301	24.992	1039.222	841.940
53.315	25.152	1038.288	841.856
54.330	25.055	1037.130	840.389
55.344	24.916	1036.471	839.130
56.359	24.955	1035.610	838.543
57.374	25.083	1034.588	838.238
58.388	24.829	1034.046	836.538
59.403	24.755	1033.139	835.383
60.417	24.710	1032.532	834.610
61.432	24.676	1031.612	833.634
62.447	24.506	1031.425	832.615
63.461	24.729	1030.422	832.773
64.476	24.834	1029.491	832.435
65.490	24.867	1028.949	832.074
66.505	24.829	1027.606	830.740
67.520	24.664	1026.948	829.368
68.534	24.851	1026.514	829.813
69.549	24.682	1025.609	828.225
70.563	24.318	1024.062	825.215
71.578	24.143	1023.863	824.174
72.593	24.200	1022.548	823.307
73.607	24.170	1021.191	822.002
74.622	24.131	1020.303	821.034
75.636	24.290	1020.069	821.505
76.651	24.662	1018.944	822.241
77.666	24.477	1018.298	820.793
78.680	24.185	1017.940	819.093
79.695	24.279	1016.960	818.664
80.709	24.550	1016.128	819.161
81.724	24.561	1015.605	818.718
82.739	24.635	1014.504	818.097
83.753	24.593	1013.950	817.387
84.768	24.828	1013.201	817.785
85.782	25.258	1012.727	819.292
86.797	25.357	1012.102	819.167
87.812	25.435	1010.750	818.354
88.826	25.132	1010.266	816.510
89.841	25.238	1009.095	815.974
90.855	25.150	1008.767	815.236
91.870	25.322	1007.425	814.862
92.884	25.320	1006.916	814.368
93.899	25.193	1005.869	812.875
94.914	24.803	1005.506	810.744
95.928	25.085	1004.792	811.371
96.943	25.213	1003.430	810.776
97.957	24.837	1002.340	808.130
98.972	24.634	1001.765	806.676
99.987	24.535	1000.353	805.021
101.001	24.597	999.605	804.629
102.016	24.944	999.128	805.736
103.030	24.895	998.257	804.740
104.045	24.916	997.177	803.893
105.060	24.825	995.648	802.184
106.074	24.667	994.881	800.785
107.089	24.717	994.317	800.486
108.103	24.965	994.097	801.347
109.118	24.921	993.459	800.565
110.133	24.705	991.944	798.310
111.147	24.780	990.952	797.775
112.162	24.499	990.063	795.735
113.176	24.377	989.203	794.429
114.191	24.593	987.701	794.116
115.206	24.690	987.301	794.154
116.220	24.459	986.112	792.101
117.235	24.044	985.446	789.654
118.249	24.305	984.519	789.999
119.264	24.447	983.961	790.110
120.279	24.256	982.997	788.421
121.293	24.231	982.435	787.793
122.308	24.387	981.491	787.652
123.322	24.339	980.855	786.862
124.337	24.268	979.752	785.594
125.352	24.163	978.744	784.256
126.366	23.915	976.817	781.553
127.381	23.521	975.621	778.797
128.395	24.041	975.464	780.881
129.410	24.645	975.585	783.562
130.424	24.889	974.658	783.817
131.439	24.905	973.261	782.694
132.454	24.782	972.368	781.366
133.468	24.894	971.528	781.110
134.483	24.772	970.975	780.067
135.497	24.767	970.415	779.527
136.512	25.041	969.747	780.112
137.527	25.196	968.816	779.971
138.541	25.059	968.210	778.815
139.556	25.215	967.254	778.657
140.570	25.117	966.639	777.667
141.585	25.060	965.683	776.581
142.600	25.258	965.000	776.822
143.614	25.213	963.873	775.651
144.629	25.265	963.621	775.605
145.643	25.444	962.969	775.786
146.658	25.413	961.518	774.412
147.673	25.075	960.533	772.096
148.687	25.047	959.472	771.055
149.702	24.864	958.612	769.507
150.716	24.761	957.762	768.314
151.731	24.903	956.258	767.649
152.746	25.032	955.973	767.904
153.760	25.265	955.052	768.095
154.775	25.347	954.460	767.899
155.789	25.409	953.415	767.259
156.804	25.253	952.825	766.051
157.819	25.114	951.899	764.644
158.833	25.247	951.095	764.498
159.848	25.427	950.372	764.614
160.862	25.426	949.877	764.144
161.877	25.331	948.518	762.582
162.892	25.068	948.012	760.988
163.906	25.303	946.974	761.087
164.921	25.243	946.146	760.099
165.935	25.210	944.966	758.943
166.950	25.070	944.474	757.889
167.964	25.180	943.688	757.658
168.979	25.350	941.816	756.802
169.994	25.210	940.915	755.420
171.008	24.977	940.330	753.905
172.023	25.070	940.109	754.051
173.037	25.393	938.688	754.201
174.052	25.167	937.713	752.405
175.067	25.039	936.500	750.829
176.081	25.002	935.963	750.177
177.096	25.035	935.341	749.748
178.110	25.083	934.333	749.077
179.125	24.866	933.195	747.190
180.140	24.487	932.406	744.912
181.154	24.756	931.848	745.521
182.169	24.749	931.372	745.047
183.183	25.018	930.896	745.721
184.198	25.204	930.561	746.159
185.213	25.168	929.855	745.377
186.227	25.132	929.129	744.581
187.242	25.131	928.936	744.354
188.256	25.361	927.881	744.398
189.271	25.285	926.998	743.310
190.286	25.392	926.673	743.426
191.300	25.215	925.606	741.773
192.315	24.674	924.662	738.713
193.329	23.882	922.752	733.856
194.344	23.449	921.725	731.189
195.359	24.248	921.613	734.328
196.373	24.949	922.666	737.990
197.388	25.213	922.301	738.722
198.402	25.011	921.640	737.296
199.417	25.137	920.847	737.112
200.432	25.057	920.505	736.446
201.446	25.151	919.415	735.895
202.461	24.788	918.759	733.818
203.475	24.843	917.948	733.331
204.490	24.258	916.922	730.048
205.504	23.216	914.480	723.783
206.519	23.623	914.470	725.375
207.534	24.534	915.082	729.521
208.548	24.729	914.327	729.649
209.563	25.172	914.160	731.258
210.577	25.049	913.396	730.079
211.592	24.825	912.685	728.536
212.607	25.230	912.616	730.063
213.621	25.301	912.350	730.075
214.636	25.206	911.532	728.970
215.650	25.383	910.728	728.981
216.665	25.283	910.211	728.099
217.680	25.273	909.868	727.719
218.694	25.224	909.621	727.255
219.709	25.080	908.488	725.703
220.723	24.577	907.616	722.908
221.738	24.973	907.123	724.052
222.753	24.993	906.767	723.785
223.767	25.011	905.719	722.957
224.782	25.105	904.863	722.590
225.796	25.373	904.272	723.131
226.811	25.450	903.833	723.025
227.826	24.999	902.720	720.259
228.840	24.197	901.475	715.982
229.855	24.077	900.419	714.597
230.869	24.346	900.429	715.621
231.884	24.112	899.016	713.500
232.899	24.172	898.754	713.469
233.913	25.011	898.753	716.763
234.928	25.196	898.338	717.107
235.942	25.018	897.637	715.775
236.957	24.915	897.371	715.086
237.972	24.792	896.149	713.558
238.986	24.643	895.392	712.301
240.001	24.812	895.015	712.610
241.015	24.718	894.440	711.716
242.030	24.928	893.689	711.890
243.045	25.028	892.980	711.658
244.059	24.968	892.967	711.345
245.074	25.189	892.686	711.936
246.088	25.202	891.817	711.232
247.103	24.877	890.965	709.205
248.117	24.790	890.467	708.398
249.132	25.364	890.516	710.647
250.147	25.758	889.965	711.701
251.161	25.775	890.006	711.741
252.176	26.095	889.160	712.265
253.190	26.167	888.170	711.691
254.205	25.972	888.344	710.998
255.220	26.189	887.704	711.280
256.234	26.181	887.260	710.830
257.249	26.017	886.526	709.532
258.263	25.846	885.520	707.995
259.278	26.016	885.255	708.385
260.293	26.107	884.538	708.106
261.307	26.158	884.275	708.034
262.322	26.039	883.265	706.696
263.336	25.991	882.730	706.019
264.351	25.433	881.457	702.755
265.366	24.374	879.456	696.961
266.380	23.905	878.306	694.160
267.395	24.858	878.767	698.181
268.409	25.571	879.053	701.130
269.424	25.652	878.325	700.800
270.439	25.705	878.038	700.717
271.453	25.678	877.677	700.261
272.468	25.843	876.595	699.979
273.482	25.991	876.289	700.247
274.497	26.135	876.180	700.654
275.512	25.842	875.231	698.699
276.526	25.341	873.382	695.221
277.541	25.518	873.302	695.782
278.555	25.900	873.197	697.112
279.570	25.679	872.868	695.934
280.585	25.386	872.132	694.154
281.599	25.567	871.282	694.114
282.614	25.742	870.753	694.308
283.628	25.321	869.309	691.474
284.643	24.990	868.907	689.817
285.657	25.368	868.769	691.104
286.672	25.283	868.129	690.203
287.687	24.897	866.835	687.632
288.701	25.119	867.151	688.677
289.716	25.364	866.844	689.313
290.730	25.251	865.625	687.847
291.745	25.021	864.854	686.292
292.760	24.819	864.189	684.932
293.774	24.736	863.643	684.122
294.789	25.739	864.206	688.345
295.803	26.305	864.487	690.672
296.818	26.423	863.634	690.380
297.833	26.594	862.686	690.209
298.847	26.282	862.172	688.551
299.862	25.909	861.094	686.209
300.876	25.962	860.943	686.229
301.891	26.139	860.828	686.751
302.906	26.414	859.979	687.056
303.920	26.081	858.828	684.813
304.935	25.885	858.078	683.410
305.949	26.206	857.913	684.438
306.964	26.368	857.014	684.274
307.979	26.163	856.742	683.219
308.993	26.067	856.112	682.293
310.008	26.414	856.400	683.773
311.022	26.570	855.687	683.734
312.037	26.348	855.211	682.454
313.052	26.121	854.299	680.811
314.066	26.086	853.392	679.896
315.081	25.417	852.008	676.215
316.095	24.731	850.558	672.426
317.110	25.126	850.788	674.033
318.125	26.046	851.259	677.805
319.139	25.615	850.214	675.297
320.154	24.353	848.621	669.240
321.168	23.993	847.435	666.895
322.183	24.643	847.545	669.357
323.197	25.580	848.012	673.179
324.212	25.829	847.768	673.855
325.227	26.019	847.763	674.503
326.241	26.104	847.093	674.229
327.256	26.083	845.999	673.218
328.270	25.888	845.547	672.072
329.285	25.929	844.992	671.723
330.300	25.670	844.272	670.126
331.314	25.471	843.418	668.651
332.329	25.628	842.822	668.704
333.343	26.016	842.458	669.796
334.358	26.158	842.254	670.103
335.373	26.168	841.884	669.786
336.387	26.276	841.070	669.478
337.402	26.501	840.951	670.159
338.416	26.724	840.440	670.517
339.431	26.639	839.802	669.633
340.446	26.775	839.054	669.482
341.460	26.982	839.080	670.206
342.475	26.732	838.700	668.922
343.489	26.600	837.610	667.507
344.504	26.580	837.304	667.129
345.519	26.948	836.885	668.092
346.533	26.798	836.941	667.524
347.548	27.166	836.327	668.329
348.562	27.270	835.484	667.979
349.577	27.036	835.038	666.706
350.592	27.092	834.503	666.425
351.606	26.929	834.144	665.481
352.621	26.909	833.953	665.196
353.635	26.792	833.044	663.982
354.650	26.888	832.145	663.558
355.665	26.435	831.326	661.191
356.679	25.326	829.851	655.911
357.694	25.326	829.025	655.199
358.708	25.984	829.288	657.750
359.723	26.014	828.524	657.196
360.738	26.205	828.449	657.775
361.752	26.627	828.180	659.038
362.767	26.671	827.917	658.932
363.781	26.956	827.886	659.883
364.796	27.150	827.718	660.397
365.810	27.352	827.481	660.883
366.825	27.490	827.073	661.001
367.840	27.369	826.497	660.042
368.854	27.075	826.292	658.753
369.869	26.874	825.302	657.179
370.883	26.644	824.416	655.583
371.898	26.840	823.919	655.838
372.913	26.701	823.238	654.736
373.927	26.797	822.473	654.414
374.942	26.809	821.964	653.996
375.956	26.957	821.467	654.077
376.971	27.075	821.104	654.156
377.986	27.055	820.405	653.466
379.000	27.238	820.365	654.035
380.015	27.259	819.602	653.447
381.029	27.155	818.832	652.402
382.044	27.208	818.193	652.023
383.059	27.297	817.865	652.023
384.073	27.325	817.407	651.700
385.088	27.277	817.044	651.181
386.102	27.370	816.147	650.744
387.117	27.127	815.662	649.428
388.132	26.979	814.832	648.181
389.146	26.985	814.290	647.716
390.161	26.397	813.139	644.648
391.175	26.394	812.981	644.454
392.190	26.998	813.127	646.664
393.205	26.956	812.747	646.155
394.219	26.031	810.772	641.244
395.234	24.350	808.639	633.532
396.248	23.478	807.565	629.540
397.263	24.686	808.517	634.520
398.278	26.324	810.122	641.540
399.292	26.976	809.584	643.371
400.307	26.654	808.990	641.702
401.321	26.626	808.311	641.006
402.336	26.535	808.715	640.947
403.350	26.973	808.217	642.047
404.365	27.495	808.068	643.716
405.380	27.544	808.036	643.807
406.394	28.028	807.828	645.294
407.409	28.004	807.551	644.930
408.423	28.013	806.879	644.366
409.438	27.975	806.052	643.517
410.453	27.981	805.730	643.222
411.467	28.262	805.148	643.691
412.482	27.933	804.982	642.345
413.496	28.130	804.141	642.309
414.511	28.111	803.841	641.945
415.526	28.143	803.595	641.804
416.540	28.138	803.283	641.479
417.555	28.142	802.437	640.763
418.569	27.629	802.048	638.598
419.584	27.652	801.421	638.123
420.599	27.714	800.803	637.792
421.613	109.705	1285.393	1457.300
422.628	94.586	1355.997	1457.440
