DTS Sentinel unit serial number:	SN413079Multiplexer serial number:	ORYXHardware model number:	OX4-SRSoftware version number:	ORYX F/W v4.00 Oryx Data Collector v3.7.2.0data status	okinstallation	princeton_trtdifferential loss correction	single-endedforward channel	channel 3reverse channel	N/Adate	2019/09/13time	12:52:35forward acquisition time	60.00reverse acquisition time	0.00gamma	496.2192k internal	0.2305k external	0.2305temperature offset calibration	1.0148default loss term (dB/km)	0.3790temperature slope calibration	1.0000multiplexer offset coefficient	1.0000multiplexer slope coefficient	1.0000fibre end	0.00T internal ref (°C)	34.75T ext. ref 1 (°C)	4.58T ext. ref 2 (°C)	30.42length (m)	temperature (°C)	Stokes	anti-Stokes-747.200	-17.623	0.243	-0.155
-746.185	163.414	-0.142	0.203
-745.171	2.278	0.029	-0.021
-744.156	-200.000	0.000	0.153
-743.142	38.814	0.228	-0.207
-742.127	-95.172	0.151	0.041
-741.112	-200.000	0.016	0.155
-740.098	96.287	0.253	0.295
-739.083	-144.464	-0.023	0.002
-738.069	98.393	-0.206	0.242
-737.054	-200.000	-0.051	0.274
-736.039	115.040	0.223	-0.276
-735.025	-18.219	-0.214	0.136
-734.010	-118.351	0.203	-0.037
-732.996	-122.719	0.221	0.036
-731.981	-200.000	-0.010	-0.118
-730.966	-68.775	-0.282	0.111
-729.952	800.000	-0.094	-0.360
-728.937	-200.000	-0.059	-0.318
-727.923	-200.000	-0.004	-0.178
-726.908	777.531	0.130	-0.360
-725.894	-200.000	-0.006	0.059
-724.879	-200.000	0.032	-0.183
-723.864	-200.000	-0.033	0.221
-722.850	-119.647	-0.175	0.031
-721.835	-14.486	0.192	-0.125
-720.821	267.898	0.029	-0.051
-719.806	-127.269	-0.328	-0.049
-718.791	-137.161	0.107	0.012
-717.777	42.016	0.188	-0.173
-716.762	66.579	-0.131	-0.135
-715.748	-29.808	0.244	0.141
-714.733	61.161	-0.152	-0.154
-713.718	800.000	-0.053	-0.150
-712.704	-200.000	-0.052	0.232
-711.689	211.668	-0.096	0.153
-710.675	-170.863	-0.147	0.005
-709.660	-145.532	-0.310	0.028
-708.645	-16.267	0.072	-0.046
-707.631	-160.877	-0.152	-0.008
-706.616	-45.982	0.265	0.133
-705.602	-67.327	0.161	-0.064
-704.587	800.000	-0.082	0.269
-703.572	32.733	0.042	0.037
-702.558	796.268	0.034	-0.095
-701.543	-200.000	-0.005	-0.173
-700.529	-161.035	0.163	0.009
-699.514	-121.316	0.270	-0.046
-698.499	-159.065	0.177	-0.010
-697.485	800.000	-0.136	-0.457
-696.470	-200.000	0.009	0.216
-695.456	-112.465	0.200	0.041
-694.441	32.990	-0.244	-0.215
-693.426	800.000	0.083	-0.248
-692.412	-177.371	-0.211	-0.005
-691.397	-200.000	0.013	0.567
-690.383	-149.476	0.348	-0.028
-689.368	109.223	0.261	0.317
-688.354	27.913	-0.258	-0.221
-687.339	351.970	-0.182	-0.366
-686.324	-133.085	-0.283	-0.036
-685.310	132.351	-0.140	0.184
-684.295	227.244	-0.006	0.010
-683.281	-10.109	-0.158	-0.107
-682.266	-122.856	0.340	0.056
-681.251	164.425	0.119	0.170
-680.237	-143.967	0.302	0.029
-679.222	-200.000	-0.012	-0.342
-678.208	-160.702	-0.078	0.004
-677.193	-137.636	-0.207	0.024
-676.178	95.852	-0.155	-0.180
-675.164	-200.000	0.011	-0.166
-674.149	448.506	0.083	0.186
-673.135	-200.000	0.001	-0.188
-672.120	-200.000	0.033	-0.237
-671.105	-43.659	-0.114	0.058
-670.091	57.355	0.196	0.194
-669.076	800.000	0.023	0.079
-668.062	-122.879	-0.142	0.023
-667.047	-200.000	0.012	0.146
-666.032	23.930	-0.154	0.129
-665.018	-0.248	-0.100	-0.072
-664.003	88.295	-0.295	-0.332
-662.989	-86.198	0.392	0.123
-661.974	-17.218	0.130	-0.083
-660.959	-3.874	-0.141	0.099
-659.945	-15.249	0.258	0.167
-658.930	135.469	0.103	0.135
-657.916	264.452	0.133	-0.236
-656.901	500.901	0.072	0.168
-655.886	87.843	0.080	0.090
-654.872	-160.213	0.454	-0.025
-653.857	127.360	0.195	-0.251
-652.843	771.927	-0.060	0.166
-651.828	-20.991	-0.161	-0.100
-650.814	2.623	-0.234	0.172
-649.799	5.187	0.170	0.127
-648.784	64.524	0.203	-0.208
-647.770	-200.000	0.007	-0.181
-646.755	-113.958	-0.324	0.064
-645.741	-174.448	-0.472	-0.014
-644.726	-200.000	0.032	0.326
-643.711	256.487	-0.116	-0.202
-642.697	464.622	-0.050	-0.113
-641.682	-187.831	-0.263	0.003
-640.668	-101.928	-0.272	0.067
-639.653	-16.301	0.070	-0.045
-638.638	377.438	-0.061	0.125
-637.624	-200.000	-0.034	-0.171
-636.609	-168.262	0.388	0.015
-635.595	-125.226	0.201	-0.031
-634.580	-90.079	-0.392	0.116
-633.565	618.505	-0.076	0.194
-632.551	-8.326	0.303	0.207
-631.536	-73.895	0.585	0.215
-630.522	-70.229	0.343	-0.132
-629.507	800.000	0.059	0.256
-628.492	-71.902	-0.116	-0.044
-627.478	-178.487	0.369	0.009
-626.463	653.216	-0.094	-0.245
-625.449	51.631	0.069	0.066
-624.434	-200.000	0.057	-0.262
-623.419	-116.061	-0.404	0.076
-622.405	22.480	-0.057	-0.047
-621.390	263.114	0.136	-0.239
-620.376	417.507	0.105	-0.227
-619.361	-65.238	-0.084	-0.034
-618.346	106.788	-0.039	0.047
-617.332	522.629	0.185	-0.440
-616.317	143.035	-0.171	-0.231
-615.303	-0.504	-0.255	0.184
-614.288	-65.269	-0.061	0.025
-613.273	800.000	-0.114	-0.338
-612.259	800.000	-0.086	-0.259
-611.244	-37.117	-0.133	0.072
-610.230	-112.171	-0.221	-0.045
-609.215	-129.538	-0.272	-0.038
-608.201	-200.000	0.005	-0.265
-607.186	-57.355	0.211	0.094
-606.171	32.962	0.320	-0.280
-605.157	-94.430	0.132	-0.036
-604.142	375.324	0.136	0.281
-603.128	-44.139	-0.370	0.188
-602.113	-136.616	-0.236	0.028
-601.098	-200.000	0.039	-0.176
-600.084	-148.484	-0.509	-0.042
-599.069	-116.314	-0.056	0.010
-598.055	150.364	-0.074	-0.102
-597.040	194.868	-0.178	0.273
-596.025	491.783	-0.090	0.208
-595.011	252.048	-0.080	-0.139
-593.996	-101.978	-0.197	0.048
-592.982	462.484	0.162	-0.366
-591.967	727.966	0.076	0.204
-590.952	-56.893	0.054	0.024
-589.938	85.656	0.061	-0.068
-588.923	63.909	0.238	-0.242
-587.909	163.453	-0.221	-0.314
-586.894	-200.000	-0.046	-0.378
-585.879	70.290	-0.218	-0.228
-584.865	50.524	-0.055	-0.053
-583.850	-129.058	-0.219	-0.031
-582.836	41.936	-0.218	0.200
-581.821	800.000	0.055	-0.160
-580.806	98.985	0.162	-0.189
-579.792	335.515	0.071	0.140
-578.777	-200.000	0.041	-0.389
-577.763	-117.918	0.168	0.030
-576.748	800.000	0.053	0.204
-575.733	-8.891	-0.084	0.057
-574.719	800.000	0.085	0.333
-573.704	-37.061	-0.154	0.083
-572.690	-39.646	-0.155	-0.082
-571.675	-46.366	0.046	0.023
-570.661	164.114	0.060	-0.085
-569.646	-56.353	-0.273	-0.123
-568.631	800.000	0.046	-0.201
-567.617	188.027	0.139	-0.210
-566.602	-200.000	-0.001	0.125
-565.588	9.842	-0.077	0.059
-564.573	-146.972	0.225	0.020
-563.558	157.219	-0.075	-0.105
-562.544	452.053	0.063	-0.140
-561.529	-200.000	0.002	0.226
-560.515	-26.148	-0.043	-0.026
-559.500	-39.806	0.151	-0.080
-558.485	9.699	-0.168	-0.128
-557.471	-200.000	0.018	-0.089
-556.456	-123.529	-0.246	-0.039
-555.442	90.705	0.084	0.095
-554.427	-36.637	-0.266	-0.144
-553.412	-198.851	-0.154	-0.001
-552.398	543.885	0.098	-0.237
-551.383	59.370	-0.120	-0.119
-550.369	-75.268	-0.308	0.111
-549.354	-200.000	-0.003	0.157
-548.339	562.665	-0.043	-0.104
-547.325	10.091	0.060	0.046
-546.310	-200.000	-0.022	-0.156
-545.296	-200.000	-0.019	-0.155
-544.281	-200.000	0.030	-0.187
-543.266	31.039	0.070	0.061
-542.252	-45.104	0.061	-0.031
-541.237	193.036	-0.079	-0.121
-540.223	-24.402	0.282	0.170
-539.208	800.000	0.105	-0.334
-538.193	800.000	0.064	0.197
-537.179	-74.067	-0.341	0.125
-536.164	-200.000	-0.014	0.151
-535.150	33.335	0.130	-0.114
-534.135	-110.460	0.171	-0.036
-533.121	-85.763	0.517	-0.162
-532.106	131.367	0.145	0.189
-531.091	-200.000	-0.142	-0.000
-530.077	-200.000	0.011	-0.177
-529.062	800.000	0.034	-0.098
-528.048	-4.085	-0.228	-0.159
-527.033	-200.000	-0.038	0.187
-526.018	800.000	-0.049	0.172
-525.004	-200.000	-0.014	-0.188
-523.989	-179.228	0.155	0.003
-522.975	-93.121	0.133	0.037
-521.960	-112.303	-0.127	0.026
-520.945	-29.785	0.293	0.169
-519.931	381.529	0.124	-0.256
-518.916	327.891	0.055	0.107
-517.902	-45.373	0.229	0.115
-516.887	-47.675	0.154	-0.075
-515.872	-41.775	-0.320	0.166
-514.858	800.000	0.043	-0.148
-513.843	-200.000	0.022	0.277
-512.829	16.794	0.147	0.118
-511.814	223.592	0.080	0.129
-510.799	-200.000	-0.022	0.118
-509.785	800.000	-0.008	0.025
-508.770	-200.000	0.004	-0.171
-507.756	-77.024	-0.217	0.076
-506.741	136.415	0.240	0.316
-505.726	-200.000	0.006	0.109
-504.712	-7.631	0.199	0.136
-503.697	4.447	0.193	-0.143
-502.683	-5.316	0.204	0.141
-501.668	-96.409	-0.317	0.085
-500.653	-200.000	0.006	-0.121
-499.639	-22.956	0.165	-0.100
-498.624	-58.949	0.376	0.164
-497.610	-200.000	-0.003	0.107
-496.595	-72.841	0.234	0.087
-495.581	26.879	0.136	-0.115
-494.566	74.217	-0.134	0.142
-493.551	-200.000	0.051	-0.285
-492.537	-200.000	-0.013	-0.106
-491.522	277.899	0.068	0.122
-490.508	163.232	-0.188	0.266
-489.493	-200.000	0.004	-0.116
-488.478	-200.000	0.005	0.159
-487.464	-200.000	-0.001	-0.276
-486.449	11.437	-0.249	-0.192
-485.435	-35.420	-0.088	0.048
-484.420	523.525	0.046	0.109
-483.405	-90.485	0.151	-0.044
-482.391	136.888	-0.082	0.108
-481.376	800.000	0.043	0.145
-480.362	-195.493	-0.185	0.001
-479.347	-200.000	0.018	-0.252
-478.332	-164.642	-0.455	-0.021
-477.318	84.449	-0.116	0.128
-476.303	127.874	-0.096	-0.124
-475.289	-200.000	0.005	0.044
-474.274	615.267	0.055	-0.139
-473.259	202.458	-0.055	-0.085
-472.245	-200.000	-0.036	0.362
-471.230	-132.217	-0.136	-0.018
-470.216	-200.000	0.022	-0.102
-469.201	213.311	0.145	-0.230
-468.186	316.874	0.166	0.316
-467.172	483.850	0.094	0.216
-466.157	180.818	0.035	0.051
-465.143	-1.104	0.320	-0.227
-464.128	-76.754	0.272	-0.096
-463.113	800.000	-0.050	0.188
-462.099	-200.000	-0.001	0.027
-461.084	273.472	0.064	-0.114
-460.070	324.237	-0.059	0.113
-459.055	-200.000	-0.030	0.135
-458.040	-36.188	0.256	0.139
-457.026	-90.557	0.139	0.040
-456.011	-1.549	-0.283	-0.201
-454.997	258.375	-0.050	0.086
-453.982	292.758	0.092	-0.169
-452.968	118.654	-0.124	0.154
-451.953	269.757	-0.025	0.045
-450.938	-45.402	0.194	0.097
-449.924	-200.000	-0.056	0.272
-448.909	-200.000	0.011	0.110
-447.895	169.460	-0.015	-0.022
-446.880	-200.000	-0.016	-0.139
-445.865	264.357	-0.131	0.230
-444.851	800.000	-0.036	-0.129
-443.836	-115.727	-0.270	-0.051
-442.822	-200.000	-0.012	-0.057
-441.807	-200.000	0.005	-0.092
-440.792	-59.867	-0.252	-0.108
-439.778	-200.000	-0.031	-0.189
-438.763	132.394	-0.167	0.216
-437.749	145.630	0.115	0.155
-436.734	533.074	0.091	0.218
-435.719	97.938	-0.050	0.058
-434.705	589.860	-0.088	0.218
-433.690	-58.670	-0.302	-0.132
-432.676	-107.363	0.433	-0.096
-431.661	-47.800	0.139	-0.068
-430.646	-116.432	0.067	0.013
-429.632	273.217	0.032	-0.057
-428.617	36.480	-0.068	-0.061
-427.603	-10.683	0.051	-0.034
-426.588	-6.538	0.187	-0.128
-425.573	-58.846	0.285	-0.124
-424.559	230.709	0.121	0.199
-423.544	-200.000	0.032	0.434
-422.530	-89.585	-0.254	0.075
-421.515	26.139	-0.211	-0.177
-420.500	-200.000	-0.006	0.177
-419.486	49.977	0.248	-0.236
-418.471	265.184	-0.043	-0.076
-417.457	323.511	-0.208	-0.398
-416.442	-86.489	0.336	-0.104
-415.428	-26.274	-0.105	0.062
-414.413	-102.140	0.227	0.055
-413.398	800.000	-0.071	0.203
-412.384	-200.000	-0.028	-0.221
-411.369	800.000	0.048	-0.199
-410.355	177.851	-0.194	-0.285
-409.340	-106.391	0.277	0.062
-408.325	227.604	0.031	-0.050
-407.311	-41.630	-0.179	-0.092
-406.296	15.505	-0.247	0.195
-405.282	-65.568	0.146	0.059
-404.267	-130.394	-0.130	-0.018
-403.252	-200.000	0.016	-0.203
-402.238	-200.000	-0.003	0.031
-401.223	207.254	-0.075	-0.117
-400.209	-200.000	0.012	0.126
-399.194	-116.356	-0.298	0.055
-398.179	-116.488	-0.238	0.044
-397.165	599.110	-0.076	-0.188
-396.150	-28.615	0.183	0.106
-395.136	648.007	0.173	0.443
-394.121	-113.642	-0.252	0.049
-393.106	182.246	-0.059	0.087
-392.092	-200.000	-0.019	0.186
-391.077	63.037	0.161	0.162
-390.063	800.000	0.032	0.114
-389.048	206.980	0.031	-0.049
-388.033	-63.942	-0.048	0.020
-387.019	91.170	-0.101	-0.114
-386.004	-200.000	0.026	-0.139
-384.990	-25.437	0.089	0.053
-383.975	-200.000	0.003	0.200
-382.960	-200.000	-0.011	0.710
-381.946	-138.447	0.341	0.038
-380.931	16.169	0.056	0.045
-379.917	3.513	-0.053	0.039
-378.902	329.960	0.142	0.273
-377.888	0.103	-0.138	-0.099
-376.873	-105.020	-0.054	-0.012
-375.858	163.169	0.158	0.223
-374.844	85.484	-0.281	0.309
-373.829	-80.553	-0.083	0.028
-372.815	439.201	0.114	-0.249
-371.800	-140.811	0.250	0.026
-370.785	-101.002	0.158	0.039
-369.771	258.689	-0.100	-0.173
-368.756	-154.204	-0.493	0.033
-367.742	-77.621	-0.313	0.109
-366.727	-200.000	-0.332	-0.001
-365.712	-33.315	-0.090	-0.050
-364.698	800.000	-0.034	0.130
-363.683	-52.220	-0.294	0.137
-362.669	800.000	-0.049	-0.166
-361.654	137.264	-0.109	0.143
-360.639	800.000	-0.049	-0.189
-359.625	800.000	-0.061	0.191
-358.610	208.278	0.188	-0.294
-357.596	800.000	0.061	0.190
-356.581	800.000	-0.047	-0.143
-355.566	-22.461	0.281	-0.171
-354.552	17.129	0.082	-0.065
-353.537	-5.086	-0.339	0.234
-352.523	-34.978	-0.132	0.072
-351.508	2.431	0.418	0.303
-350.493	-70.253	0.147	-0.056
-349.479	-200.000	-0.061	-0.375
-348.464	-180.888	0.192	0.004
-347.450	63.895	-0.116	0.117
-346.435	-19.189	-0.067	0.042
-345.420	95.527	0.048	-0.055
-344.406	-73.929	-0.271	-0.099
-343.391	190.813	-0.191	-0.288
-342.377	-200.000	-0.015	0.168
-341.362	-117.269	-0.218	-0.040
-340.348	-200.000	0.003	0.016
-339.333	-200.000	0.023	0.194
-338.318	337.084	0.201	-0.391
-337.304	66.088	0.100	-0.102
-336.289	-30.110	0.173	-0.098
-335.275	-133.187	0.276	0.035
-334.260	-195.331	-0.353	-0.003
-333.245	-15.309	-0.069	-0.044
-332.231	-200.000	0.006	-0.053
-331.216	-5.576	0.139	-0.096
-330.202	22.479	-0.233	-0.191
-329.187	155.771	0.150	-0.207
-328.172	42.259	-0.180	0.164
-327.158	-136.940	0.120	-0.014
-326.143	157.283	-0.192	0.266
-325.129	186.309	-0.215	0.320
-324.114	614.625	0.146	0.367
-323.099	32.128	0.204	-0.176
-322.085	-19.304	0.137	0.085
-321.070	-87.536	0.048	-0.014
-320.056	234.935	-0.127	0.210
-319.041	638.346	-0.080	0.205
-318.026	127.620	-0.301	-0.383
-317.012	232.158	0.127	-0.208
-315.997	52.829	0.027	-0.026
-314.983	800.000	0.060	0.196
-313.968	-41.825	0.256	-0.132
-312.953	-5.818	0.120	-0.082
-311.939	-149.672	-0.188	-0.015
-310.924	448.675	0.099	-0.219
-309.910	297.299	-0.080	-0.146
-308.895	11.255	0.343	0.263
-307.880	-57.659	-0.194	-0.085
-306.866	-61.923	0.134	-0.056
-305.851	306.422	0.067	-0.125
-304.837	-41.850	-0.123	-0.063
-303.822	-160.389	-0.473	0.025
-302.807	665.382	0.025	-0.065
-301.793	-72.121	0.197	0.073
-300.778	-23.197	-0.325	-0.196
-299.764	88.064	0.082	0.091
-298.749	-117.972	-0.215	0.039
-297.735	76.771	0.141	-0.150
-296.720	-200.000	0.005	-0.038
-295.705	-26.175	0.087	0.051
-294.691	-22.969	-0.122	-0.073
-293.676	515.224	0.081	-0.188
-292.662	-23.586	0.260	0.156
-291.647	257.083	-0.028	-0.048
-290.632	346.405	0.068	-0.134
-289.618	-12.678	0.087	-0.056
-288.603	44.881	-0.133	0.122
-287.589	61.607	-0.186	0.185
-286.574	800.000	-0.106	0.307
-285.559	-89.366	0.267	-0.079
-284.545	-200.000	-0.035	0.187
-283.530	305.614	0.058	0.109
-282.516	-68.554	0.287	0.111
-281.501	144.755	-0.086	0.115
-280.486	-169.773	-0.282	0.010
-279.472	-199.016	0.280	0.002
-278.457	50.572	-0.309	-0.292
-277.443	28.626	-0.206	-0.174
-276.428	66.470	0.281	0.285
-275.413	800.000	0.040	-0.117
-274.399	81.629	0.169	-0.182
-273.384	-200.000	-0.043	-0.300
-272.370	137.800	-0.107	-0.140
-271.355	-108.701	0.220	-0.047
-270.340	267.150	-0.118	-0.206
-269.326	-65.022	0.105	0.042
-268.311	89.755	-0.149	0.166
-267.297	800.000	-0.028	-0.105
-266.282	-200.000	0.031	0.167
-265.267	257.709	0.167	0.288
-264.253	-106.870	0.301	-0.067
-263.238	720.867	0.067	-0.179
-262.224	-13.573	-0.190	-0.123
-261.209	-128.739	-0.237	-0.033
-260.195	85.029	-0.250	0.273
-259.180	68.281	0.150	-0.153
-258.165	42.688	0.362	-0.329
-257.151	800.000	0.075	0.328
-256.136	800.000	0.133	-0.384
-255.122	-200.000	0.028	-0.305
-254.107	308.460	0.065	-0.121
-253.092	-93.788	0.292	0.080
-252.078	214.676	0.172	0.272
-251.063	-88.263	0.341	0.102
-250.049	800.000	-0.096	-0.295
-249.034	-37.455	0.158	0.084
-248.019	50.583	-0.230	-0.218
-247.005	-200.000	0.240	0.001
-245.990	800.000	0.065	0.181
-244.976	800.000	-0.058	0.168
-243.961	-200.000	0.023	0.173
-242.946	-104.866	-0.040	0.009
-241.932	-200.000	-0.038	-0.239
-240.917	415.172	0.138	-0.294
-239.903	-88.056	0.236	0.071
-238.888	-200.000	0.000	0.107
-237.873	5.761	-0.199	0.147
-236.859	-129.246	-0.129	-0.018
-235.844	523.949	-0.116	0.273
-234.830	-200.000	-0.038	-0.168
-233.815	-33.874	0.282	-0.155
-232.800	800.000	0.066	0.276
-231.786	65.546	0.166	-0.167
-230.771	149.323	-0.128	0.173
-229.757	639.478	0.076	0.194
-228.742	119.100	0.437	0.539
-227.727	800.000	-0.039	0.141
-226.713	-54.489	-0.429	-0.194
-225.698	-93.452	-0.292	0.081
-224.684	-200.000	0.034	-0.457
-223.669	800.000	-0.060	0.208
-222.655	10.624	-0.287	0.218
-221.640	-45.545	-0.138	-0.068
-220.625	800.000	0.050	-0.171
-219.611	-183.201	0.166	-0.003
-218.596	-200.000	-0.017	-0.092
-217.582	6.472	0.187	0.139
-216.567	-7.063	-0.233	0.157
-215.552	-17.244	0.215	0.135
-214.538	-75.678	0.247	0.088
-213.523	154.658	-0.220	0.301
-212.509	107.201	-0.161	-0.191
-211.494	-65.412	-0.453	0.182
-210.479	506.207	0.091	0.210
-209.465	-200.000	0.006	0.182
-208.450	-37.681	-0.247	0.131
-207.436	-100.013	-0.240	0.060
-206.421	190.128	-0.143	-0.213
-205.406	-28.425	0.063	0.036
-204.392	800.000	0.032	-0.122
-203.377	-148.924	-0.027	-0.002
-202.363	-100.718	0.183	-0.045
-201.348	-28.723	-0.309	0.177
-200.333	-5.130	0.103	-0.071
-199.319	-200.000	-0.025	-0.199
-198.304	-104.330	0.352	-0.081
-197.290	-63.344	0.283	-0.116
-196.275	28.075	0.062	-0.052
-195.260	-59.890	-0.166	-0.071
-194.246	482.508	-0.112	0.254
-193.231	50.551	-0.168	0.158
-192.217	-200.000	0.002	0.034
-191.202	-200.000	0.074	-0.480
-190.187	-200.000	-0.035	0.220
-189.173	299.544	-0.123	0.226
-188.158	-79.955	0.119	-0.040
-187.144	448.902	0.180	0.396
-186.129	-200.000	-0.012	0.236
-185.114	90.688	-0.041	-0.046
-184.100	-24.837	-0.247	-0.146
-183.085	-200.000	-0.001	0.028
-182.071	531.816	-0.045	0.105
-181.056	-200.000	-0.025	-0.115
-180.042	-36.478	0.080	0.043
-179.027	-34.936	-0.326	0.177
-178.012	53.509	-0.121	-0.116
-176.998	800.000	-0.031	-0.100
-175.983	1.603	-0.080	0.057
-174.969	-200.000	0.005	0.024
-173.954	726.052	-0.083	0.221
-172.939	23.153	-0.279	-0.228
-171.925	-200.000	-0.006	0.056
-170.910	111.745	0.016	-0.019
-169.896	81.358	-0.058	0.063
-168.881	-200.000	-0.025	-0.292
-167.866	37.746	0.256	0.226
-166.852	-139.566	-0.099	-0.010
-165.837	-9.586	0.192	0.127
-164.823	-115.573	0.282	0.053
-163.808	-141.517	-0.059	-0.006
-162.793	-42.914	0.141	-0.071
-161.779	-33.115	0.239	0.132
-160.764	56.362	0.234	0.226
-159.750	183.697	0.087	-0.129
-158.735	800.000	0.047	-0.163
-157.720	-135.538	0.223	-0.026
-156.706	-11.874	0.337	-0.220
-155.691	-136.408	0.376	0.044
-154.677	-200.000	0.059	0.334
-153.662	194.563	0.054	-0.081
-152.647	-200.000	0.020	-0.263
-151.633	-97.224	-0.165	-0.043
-150.618	318.454	0.074	-0.140
-149.604	511.839	-0.092	-0.212
-148.589	6.998	0.100	0.074
-147.574	800.000	-0.011	0.049
-146.560	158.991	0.200	-0.276
-145.545	-200.000	0.335	-0.001
-144.531	-200.000	0.035	0.230
-143.516	72.305	0.233	-0.242
-142.502	452.324	-0.157	0.345
-141.487	-61.576	-0.116	-0.048
-140.472	-160.306	0.270	-0.014
-139.458	28.562	0.166	0.139
-138.443	-159.916	0.400	-0.022
-137.429	546.741	0.106	0.253
-136.414	-90.114	-0.288	-0.083
-135.399	800.000	0.057	-0.191
-134.385	44.602	-0.175	-0.160
-133.370	-57.458	-0.163	-0.071
-132.356	-71.807	-0.250	0.092
-131.341	-10.058	0.222	0.147
-130.326	-18.902	0.308	-0.190
-129.312	-45.248	0.285	-0.140
-128.297	-125.587	0.128	-0.019
-127.283	-44.629	-0.042	0.021
-126.268	800.000	0.023	-0.066
-125.253	-200.000	0.022	-0.206
-124.239	375.306	-0.119	0.241
-123.224	-41.618	0.269	-0.137
-122.210	-181.609	-0.321	-0.006
-121.195	-73.538	-0.132	0.048
-120.180	-145.275	-0.100	-0.009
-119.166	-200.000	0.002	-0.303
-118.151	629.780	-0.091	0.228
-117.137	-128.862	-0.152	0.021
-116.122	-135.861	0.120	0.014
-115.107	-148.606	-0.080	-0.007
-114.093	104.707	-0.247	0.289
-113.078	351.504	0.021	0.040
-112.064	-124.252	0.124	-0.019
-111.049	-130.196	0.328	0.044
-110.034	-75.126	0.330	0.117
-109.020	147.669	-0.250	-0.334
-108.005	62.584	0.226	-0.225
-106.991	-77.836	0.287	0.098
-105.976	333.109	0.044	-0.085
-104.962	-105.038	-0.303	-0.069
-103.947	-5.749	-0.117	-0.080
-102.932	145.657	-0.097	0.129
-101.918	-200.000	-0.056	-0.251
-100.903	800.000	0.047	0.194
-99.889	-185.250	0.274	0.004
-98.874	-104.326	0.251	0.058
-97.859	-65.882	-0.124	0.049
-96.845	-171.040	0.162	-0.005
-95.830	-40.549	-0.174	0.090
-94.816	133.356	0.253	-0.325
-93.801	161.597	-0.162	-0.226
-92.786	-110.430	0.211	0.044
-91.772	47.806	-0.184	-0.170
-90.757	-200.000	-0.020	-0.202
-89.743	39.767	0.211	0.188
-88.728	-3.192	0.110	0.076
-87.713	-200.000	0.015	0.136
-86.699	51.855	-0.130	-0.123
-85.684	-70.564	0.316	0.119
-84.670	-157.280	-0.048	0.003
-83.655	-138.612	0.378	0.041
-82.640	-200.000	-0.002	0.191
-81.626	68.692	-0.132	0.134
-80.611	164.735	-0.191	0.267
-79.597	73.423	-0.113	-0.117
-78.582	-73.683	0.310	-0.112
-77.567	-95.441	0.260	-0.069
-76.553	-28.099	0.347	-0.199
-75.538	-174.076	0.452	0.013
-74.524	-69.325	-0.189	-0.072
-73.509	476.324	0.084	-0.189
-72.494	-33.401	0.435	-0.238
-71.480	800.000	0.083	0.236
-70.465	-56.451	0.215	0.095
-69.451	-48.844	-0.310	-0.147
-68.436	453.010	0.231	0.506
-67.422	-128.251	-0.028	0.004
-66.407	-200.000	0.044	-0.252
-65.392	-105.883	-0.212	0.047
-64.378	-104.469	-0.251	-0.057
-63.363	-28.242	-0.062	0.035
-62.349	-78.005	0.286	0.098
-61.334	56.314	-1.072	-1.032
-60.319	77.500	0.453	0.478
-59.305	-200.000	-0.149	-0.755
-58.290	18.649	0.626	0.496
-57.276	425.787	0.776	1.657
-56.261	-200.000	95.499	563.537
-55.246	632.818	1387.239	3482.607
-54.232	184.336	2614.754	3836.861
-53.217	120.175	2219.613	2728.740
-52.203	45.329	1751.189	1600.432
-51.188	37.897	1560.478	1373.970
-50.173	35.469	1532.575	1332.519
-49.159	53.371	1582.282	1502.460
-48.144	57.088	1601.376	1546.763
-47.130	38.332	1556.858	1373.619
-46.115	35.103	1541.394	1337.418
-45.100	34.813	1538.718	1333.021
-44.086	34.843	1536.475	1331.235
-43.071	34.728	1534.488	1328.660
-42.057	34.682	1533.306	1327.261
-41.042	34.843	1531.191	1326.493
-40.027	34.831	1529.437	1324.843
-39.013	34.709	1528.664	1323.274
-37.998	34.663	1527.495	1321.889
-36.984	34.732	1525.744	1320.801
-35.969	34.741	1525.059	1320.218
-34.954	34.755	1523.240	1318.688
-33.940	34.607	1522.247	1316.756
-32.925	34.692	1520.697	1315.944
-31.911	34.759	1519.549	1315.359
-30.896	34.856	1518.022	1314.654
-29.881	34.783	1516.751	1313.000
-28.867	34.797	1514.884	1311.426
-27.852	34.797	1513.298	1310.004
-26.838	34.809	1512.024	1308.927
-25.823	34.851	1510.538	1307.880
-24.809	34.727	1508.936	1305.595
-23.794	34.847	1507.586	1305.195
-22.779	34.689	1507.012	1303.562
-21.765	34.743	1505.464	1302.546
-20.750	34.894	1503.841	1302.112
-19.736	34.856	1502.691	1300.807
-18.721	34.829	1502.066	1300.034
-17.706	34.799	1500.755	1298.645
-16.692	34.718	1499.984	1297.376
-15.677	34.733	1498.643	1296.264
-14.663	34.734	1497.501	1295.229
-13.648	34.732	1496.883	1294.633
-12.633	34.753	1495.820	1293.804
-11.619	34.752	1494.775	1292.838
-10.604	34.705	1494.534	1292.265
-9.590	34.748	1493.119	1291.282
-8.575	34.805	1492.127	1290.758
-7.560	34.767	1491.495	1289.902
-6.546	34.707	1491.015	1289.027
-5.531	34.662	1489.988	1287.787
-4.517	34.761	1488.730	1287.319
-3.502	34.748	1487.654	1286.246
-2.487	34.693	1486.875	1285.152
-1.473	34.693	1485.521	1283.929
-0.458	34.748	1484.399	1283.280
0.556	36.932	1475.034	1272.878
1.571	33.604	1447.005	1227.094
2.586	29.261	1383.117	1145.881
3.600	27.096	1298.774	1063.254
4.615	24.923	1250.491	1011.376
5.629	21.205	1192.680	944.465
6.644	12.670	1106.745	833.311
7.659	5.871	1064.739	768.409
8.673	4.741	1058.984	758.681
9.688	4.552	1055.901	755.487
10.702	4.388	1054.181	753.392
11.717	4.640	1052.815	753.570
12.731	7.555	1056.497	770.296
13.746	15.986	1067.844	819.684
14.761	21.871	1074.770	853.657
15.775	22.236	1074.852	855.424
16.790	21.593	1072.982	850.735
17.804	20.560	1070.701	843.841
18.819	19.687	1068.798	838.036
19.834	19.243	1067.450	834.753
20.848	19.190	1066.378	833.583
21.863	19.025	1066.149	832.531
22.877	18.784	1065.678	830.925
23.892	18.772	1064.635	829.978
24.907	18.549	1063.976	828.318
25.921	18.583	1063.241	827.833
26.936	18.619	1061.772	826.792
27.950	18.652	1060.951	826.235
28.965	18.667	1060.111	825.584
29.980	18.633	1059.138	824.589
30.994	18.926	1057.795	824.878
32.009	18.891	1057.131	824.119
33.023	18.962	1056.498	823.893
34.038	18.893	1055.972	823.079
35.053	18.954	1054.777	822.363
36.067	18.730	1053.478	820.208
37.082	18.745	1052.848	819.716
38.096	18.736	1051.809	818.795
39.111	18.806	1051.605	818.895
40.126	18.986	1050.466	818.792
41.140	18.654	1049.815	816.636
42.155	18.555	1047.843	814.558
43.169	18.341	1046.898	812.737
44.184	18.279	1045.779	811.499
45.199	18.239	1044.144	809.972
46.213	18.167	1043.820	809.305
47.228	18.277	1042.962	809.089
48.242	18.453	1042.417	809.428
49.257	18.669	1041.620	809.757
50.271	18.681	1040.115	808.571
51.286	18.838	1039.217	808.539
52.301	18.794	1038.603	807.782
53.315	18.757	1037.696	806.835
54.330	18.679	1037.050	805.893
55.344	18.514	1035.537	803.874
56.359	18.434	1034.868	802.910
57.374	18.338	1034.070	801.766
58.388	18.419	1033.063	801.293
59.403	18.336	1032.044	800.048
60.417	18.182	1031.505	798.838
61.432	18.165	1030.784	798.129
62.447	18.411	1029.778	798.429
63.461	18.225	1028.826	796.753
64.476	18.145	1027.994	795.663
65.490	18.068	1027.184	794.611
66.505	18.168	1026.290	794.312
67.520	18.226	1025.397	793.821
68.534	18.128	1024.825	792.853
69.549	18.181	1024.289	792.611
70.563	18.142	1023.212	791.528
71.578	18.014	1023.024	790.722
72.593	18.051	1021.327	789.510
73.607	17.871	1020.053	787.625
74.622	17.873	1019.366	787.036
75.636	17.858	1018.782	786.444
76.651	17.878	1017.927	785.806
77.666	17.870	1017.526	785.389
78.680	17.931	1016.275	784.637
79.695	18.107	1016.034	785.190
80.709	18.020	1015.532	784.332
81.724	18.185	1014.726	784.399
82.739	18.297	1014.123	784.376
83.753	18.354	1013.267	783.906
84.768	18.528	1012.654	784.156
85.782	18.860	1012.215	785.263
86.797	18.975	1011.849	785.436
87.812	19.036	1010.334	784.468
88.826	18.817	1009.863	783.035
89.841	18.801	1009.091	782.296
90.855	18.728	1008.203	781.207
91.870	18.798	1007.414	780.845
92.884	18.936	1006.702	780.851
93.899	18.914	1005.706	779.910
94.914	18.985	1004.886	779.525
95.928	19.003	1004.476	779.221
96.943	19.026	1003.447	778.455
97.957	18.834	1002.513	776.794
98.972	18.809	1001.793	776.055
99.987	18.766	1001.134	775.283
101.001	18.721	1000.510	774.530
102.016	18.897	999.483	774.457
103.030	18.756	998.664	773.118
104.045	18.812	997.675	772.537
105.060	18.839	997.188	772.213
106.074	18.824	995.923	771.095
107.089	18.574	994.906	769.120
108.103	18.342	993.848	767.196
109.118	18.191	992.431	765.358
110.133	18.065	991.884	764.304
111.147	18.224	990.496	763.880
112.162	18.165	989.883	763.074
113.176	18.246	989.082	762.749
114.191	18.290	988.193	762.193
115.206	18.372	987.216	761.738
116.220	18.361	986.737	761.251
117.235	18.341	985.606	760.224
118.249	18.297	984.805	759.341
119.264	18.391	983.668	758.816
120.279	18.187	983.376	757.620
121.293	18.053	982.567	756.338
122.308	18.053	981.389	755.364
123.322	18.047	980.498	754.584
124.337	18.045	979.661	753.863
125.352	17.941	978.425	752.385
126.366	17.827	977.152	750.839
127.381	17.933	975.991	750.348
128.395	17.926	975.609	749.958
129.410	18.006	974.340	749.264
130.424	18.059	973.184	748.543
131.439	18.051	972.666	748.045
132.454	18.257	972.146	748.478
133.468	18.300	971.331	747.974
134.483	18.265	970.980	747.481
135.497	18.261	970.277	746.860
136.512	18.377	969.233	746.494
137.527	18.255	968.390	745.249
138.541	18.329	967.936	745.155
139.556	18.303	967.538	744.671
140.570	18.429	966.475	744.333
141.585	18.467	966.137	744.169
142.600	18.740	964.782	744.247
143.614	18.749	964.459	743.968
144.629	18.917	963.662	744.017
145.643	18.987	962.962	743.712
146.658	18.980	961.942	742.830
147.673	18.732	960.740	740.763
148.687	18.581	959.751	739.287
149.702	18.516	959.266	738.567
150.716	18.548	957.759	737.478
151.731	18.317	957.190	735.983
152.746	18.355	956.379	735.455
153.760	18.487	955.423	735.221
154.775	18.467	954.898	734.669
155.789	18.603	954.138	734.599
156.804	18.584	953.458	733.933
157.819	18.589	952.546	733.187
158.833	18.644	952.255	733.133
159.848	18.748	951.509	732.935
160.862	18.869	951.301	733.228
161.877	18.858	950.406	732.425
162.892	18.622	948.841	730.150
163.906	18.314	947.914	728.066
164.921	18.213	947.473	727.231
165.935	18.448	945.851	726.917
166.950	18.361	945.098	725.909
167.964	18.397	944.603	725.616
168.979	18.585	943.107	725.199
169.994	18.467	941.900	723.706
171.008	18.439	941.445	723.173
172.023	18.478	940.659	722.671
173.037	18.852	939.472	723.268
174.052	18.872	939.094	722.999
175.067	18.824	938.828	722.530
176.081	18.583	937.510	720.436
177.096	18.261	936.601	718.325
178.110	18.495	935.395	718.316
179.125	18.415	935.029	717.638
180.140	18.475	934.335	717.292
181.154	18.575	933.353	716.893
182.169	18.681	933.114	717.089
183.183	18.979	932.340	717.672
184.198	18.842	932.133	716.879
185.213	18.770	931.269	715.851
186.227	18.837	930.541	715.507
187.242	18.857	930.043	715.143
188.256	19.034	929.373	715.302
189.271	19.060	928.818	714.920
190.286	19.172	928.089	714.762
191.300	18.777	927.491	712.599
192.315	18.535	925.715	710.168
193.329	18.314	925.134	708.746
194.344	18.305	924.577	708.219
195.359	18.412	924.047	708.193
196.373	18.640	924.015	709.048
197.388	18.675	923.618	708.823
198.402	18.857	922.715	708.818
199.417	18.965	922.859	709.314
200.432	19.170	922.429	709.763
201.446	19.298	922.019	709.914
202.461	19.394	921.356	709.735
203.475	19.456	920.941	709.605
204.490	19.376	920.379	708.783
205.504	19.150	919.359	707.007
206.519	19.028	918.478	705.768
207.534	18.984	917.818	705.017
208.548	18.946	916.684	703.927
209.563	18.968	916.122	703.525
210.577	19.157	915.264	703.576
211.592	18.974	914.821	702.424
212.607	19.096	914.243	702.416
213.621	19.315	913.789	702.900
214.636	19.326	912.990	702.268
215.650	19.122	912.639	701.102
216.665	19.186	911.795	700.652
217.680	19.359	911.190	700.830
218.694	19.303	911.134	700.497
219.709	19.409	910.937	700.713
220.723	19.493	909.763	700.088
221.738	19.408	909.012	699.105
222.753	19.312	908.422	698.200
223.767	19.314	907.542	697.470
224.782	19.408	907.029	697.393
225.796	19.508	906.202	697.102
226.811	19.593	905.843	697.108
227.826	19.410	905.052	695.700
228.840	19.426	904.053	694.935
229.855	19.393	903.516	694.326
230.869	19.334	902.820	693.493
231.884	19.263	902.075	692.574
232.899	19.319	901.432	692.243
233.913	19.204	900.789	691.228
234.928	19.154	900.299	690.591
235.942	19.178	899.051	689.668
236.957	19.083	898.291	688.643
237.972	19.112	897.592	688.161
238.986	19.133	897.060	687.777
240.001	19.029	896.669	687.000
241.015	19.116	896.020	686.792
242.030	19.108	895.250	686.108
243.045	19.209	894.614	685.962
244.059	19.211	894.160	685.561
245.074	19.283	893.715	685.446
246.088	19.366	893.063	685.216
247.103	19.472	892.525	685.161
248.117	19.550	892.325	685.258
249.132	19.624	891.866	685.138
250.147	19.919	891.198	685.734
251.161	20.005	890.967	685.836
252.176	20.202	890.224	685.982
253.190	20.184	889.648	685.409
254.205	20.399	888.668	685.441
255.220	20.274	888.560	684.801
256.234	20.234	887.856	684.040
257.249	20.248	887.103	683.457
258.263	20.120	886.695	682.578
259.278	20.212	885.789	682.180
260.293	20.267	885.276	681.943
261.307	20.334	884.818	681.793
262.322	20.459	884.306	681.827
263.336	20.497	883.931	681.628
264.351	20.449	883.302	680.895
265.366	20.445	882.389	680.112
266.380	20.516	881.730	679.823
267.395	20.602	880.999	679.537
268.409	20.330	880.546	678.066
269.424	20.277	879.356	676.883
270.439	20.021	879.487	675.924
271.453	20.279	878.027	675.747
272.468	20.179	877.082	674.572
273.482	20.180	876.675	674.201
274.497	20.033	876.401	673.360
275.512	20.107	875.189	672.655
276.526	20.111	874.978	672.449
277.541	20.212	874.022	672.048
278.555	20.182	873.839	671.730
279.570	20.247	873.018	671.292
280.585	20.341	873.393	671.884
281.599	20.347	872.401	671.086
282.614	20.270	871.645	670.145
283.628	20.211	870.698	669.131
284.643	20.243	869.737	668.456
285.657	20.238	869.809	668.435
286.672	20.240	868.990	667.753
287.687	20.389	868.664	668.015
288.701	20.258	868.371	667.227
289.716	20.191	867.841	666.506
290.730	20.272	867.323	666.361
291.745	20.239	866.527	665.562
292.760	20.453	865.633	665.638
293.774	20.221	865.474	664.566
294.789	20.661	864.803	665.675
295.803	20.583	863.658	664.439
296.818	20.354	863.594	663.455
297.833	20.427	862.375	662.739
298.847	20.372	861.762	661.999
299.862	20.374	860.965	661.338
300.876	20.410	860.219	660.841
301.891	20.499	860.079	661.013
302.906	20.643	859.494	661.051
303.920	20.714	859.028	660.908
304.935	20.919	858.382	661.128
305.949	20.900	857.988	660.694
306.964	20.932	856.967	659.971
307.979	20.810	856.267	658.911
308.993	20.691	856.133	658.301
310.008	20.911	855.443	658.542
311.022	20.978	855.105	658.476
312.037	20.816	854.833	657.598
313.052	20.759	853.667	656.430
314.066	20.459	853.112	654.812
315.081	20.331	852.487	653.795
316.095	20.423	851.985	653.698
317.110	20.428	851.300	653.133
318.125	20.519	850.794	653.028
319.139	20.420	850.332	652.242
320.154	20.463	849.889	652.007
321.168	20.641	849.065	651.983
322.183	20.556	848.649	651.290
323.197	20.662	848.064	651.178
324.212	20.634	847.406	650.512
325.227	20.592	847.058	650.030
326.241	20.729	846.608	650.138
327.256	20.628	845.565	648.904
328.270	20.523	845.500	648.404
329.285	20.584	844.581	647.869
330.300	20.523	844.147	647.254
331.314	20.491	843.422	646.521
332.329	20.577	842.976	646.439
333.343	20.694	842.588	646.522
334.358	20.926	841.744	646.678
335.373	20.920	841.552	646.449
336.387	20.807	841.194	645.700
337.402	20.845	840.532	645.275
338.416	21.081	840.032	645.706
339.431	21.158	839.497	645.522
340.446	21.256	839.042	645.479
341.460	21.261	838.599	645.098
342.475	21.367	837.778	644.803
343.489	21.466	837.376	644.800
344.504	21.426	836.920	644.243
345.519	21.410	836.424	643.747
346.533	21.597	835.675	643.801
347.548	21.503	835.363	643.160
348.562	21.295	835.120	642.149
349.577	21.078	834.311	640.672
350.592	21.083	833.450	639.974
351.606	20.898	833.192	639.042
352.621	20.783	832.602	638.110
353.635	20.843	832.025	637.832
354.650	21.018	831.775	638.226
355.665	21.057	831.267	637.921
356.679	21.010	831.136	637.592
357.694	21.147	830.604	637.629
358.708	21.223	829.903	637.309
359.723	21.166	828.789	636.191
360.738	21.187	828.491	635.984
361.752	21.181	828.080	635.589
362.767	21.213	827.647	635.315
363.781	21.268	827.496	635.345
364.796	21.466	826.740	635.428
365.810	21.567	826.789	635.777
366.825	21.639	826.493	635.752
367.840	21.826	825.929	635.941
368.854	21.829	825.492	635.560
369.869	21.547	825.220	634.273
370.883	21.496	824.206	633.252
371.898	21.518	823.704	632.889
372.913	21.660	823.023	632.824
373.927	21.781	822.843	633.066
374.942	21.764	821.882	632.208
375.956	21.713	821.244	631.479
376.971	21.810	820.722	631.370
377.986	21.869	820.256	631.168
379.000	21.861	819.871	630.787
380.015	21.972	819.593	630.916
381.029	22.095	818.645	630.575
382.044	21.948	818.184	629.635
383.059	21.864	817.585	628.817
384.073	21.994	817.010	628.787
385.088	22.007	816.596	628.458
386.102	21.752	815.763	626.847
387.117	21.794	815.161	626.482
388.132	21.514	814.753	625.110
389.146	21.575	814.430	625.026
390.161	21.654	814.142	625.032
391.175	21.804	813.932	625.350
392.190	21.878	813.357	625.116
393.205	21.789	812.900	624.393
394.219	21.716	812.093	623.458
395.234	21.682	811.599	622.903
396.248	21.592	810.841	621.949
397.263	21.449	810.615	621.211
398.278	21.403	809.873	620.425
399.292	21.392	809.707	620.205
400.307	21.421	809.087	619.774
401.321	21.477	808.603	619.549
402.336	21.567	808.020	619.366
403.350	21.501	808.294	619.288
404.365	21.586	807.825	619.173
405.380	21.751	807.430	619.398
406.394	22.125	807.017	620.350
407.409	22.121	806.347	619.764
408.423	22.053	806.275	619.415
409.438	22.205	805.627	619.397
410.453	22.167	805.428	619.056
411.467	22.377	804.889	619.327
412.482	22.270	804.204	618.366
413.496	22.372	804.131	618.617
414.511	22.492	803.757	618.693
415.526	22.605	803.170	618.583
416.540	22.488	802.713	617.768
417.555	22.235	802.260	616.476
418.569	22.281	801.867	616.282
419.584	22.239	801.326	615.664
420.599	22.253	801.204	615.566
421.613	159.108	1368.384	1789.260
422.628	138.151	1451.039	1789.382
