DTS Sentinel unit serial number:	SN413079Multiplexer serial number:	ORYXHardware model number:	OX4-SRSoftware version number:	ORYX F/W v4.00 Oryx Data Collector v3.7.2.0data status	okinstallation	princeton_trtdifferential loss correction	single-endedforward channel	channel 3reverse channel	N/Adate	2019/09/19time	12:24:35forward acquisition time	60.00reverse acquisition time	0.00gamma	496.2192k internal	0.2337k external	0.2337temperature offset calibration	0.9990default loss term (dB/km)	0.3790temperature slope calibration	1.0000multiplexer offset coefficient	1.0000multiplexer slope coefficient	1.0000fibre end	0.00T internal ref (°C)	26.81T ext. ref 1 (°C)	0.87T ext. ref 2 (°C)	24.16length (m)	temperature (°C)	Stokes	anti-Stokes-747.200	-200.000	0.009	0.355
-746.185	-91.112	-0.292	0.084
-745.171	319.228	-0.048	0.091
-744.156	-22.153	-0.282	0.172
-743.142	-100.710	-0.337	-0.083
-742.127	147.458	-0.204	0.276
-741.112	-128.291	0.132	0.019
-740.098	3.380	-0.136	0.100
-739.083	413.450	-0.094	0.202
-738.069	-160.620	0.095	-0.005
-737.054	-104.019	-0.064	-0.015
-736.039	-126.511	0.023	-0.003
-735.025	-200.000	-0.009	-0.228
-734.010	485.714	-0.084	-0.192
-732.996	-70.124	-0.125	0.048
-731.981	212.614	-0.176	0.279
-730.966	-14.996	0.253	0.163
-729.952	-37.798	0.377	-0.201
-728.937	312.581	-0.121	-0.228
-727.923	182.816	-0.131	-0.194
-726.908	23.744	-0.178	-0.148
-725.894	-200.000	-0.011	-0.144
-724.879	253.131	-0.049	-0.084
-723.864	2.384	-0.338	-0.245
-722.850	22.313	-0.126	0.104
-721.835	170.531	-0.258	-0.371
-720.821	800.000	0.045	-0.170
-719.806	271.570	0.110	-0.195
-718.791	800.000	-0.016	-0.060
-717.777	800.000	-0.082	-0.330
-716.762	24.487	0.184	0.153
-715.748	-200.000	0.022	0.249
-714.733	-200.000	0.025	-0.389
-713.718	-67.850	-0.090	-0.035
-712.704	-75.083	0.167	-0.060
-711.689	-53.884	-0.208	0.095
-710.675	-121.674	-0.276	-0.046
-709.660	-6.528	-0.163	0.112
-708.645	286.340	-0.176	-0.319
-707.631	111.508	-0.097	-0.118
-706.616	-33.712	0.075	-0.042
-705.602	-82.815	-0.055	0.018
-704.587	-23.686	-0.075	-0.045
-703.572	-142.510	-0.168	0.017
-702.558	58.119	-0.128	-0.126
-701.543	-107.705	-0.064	-0.014
-700.529	318.627	-0.150	0.284
-699.514	153.549	-0.120	-0.164
-698.499	331.674	-0.116	-0.224
-697.485	195.096	0.136	-0.207
-696.470	-47.878	-0.083	-0.040
-695.456	57.085	0.087	-0.085
-694.441	-28.305	0.218	0.126
-693.426	800.000	0.090	-0.383
-692.412	-89.029	0.087	0.026
-691.397	-131.471	-0.155	-0.021
-690.383	-39.121	-0.137	-0.072
-689.368	39.150	-0.151	0.135
-688.354	-200.000	-0.093	0.455
-687.339	-200.000	0.008	-0.146
-686.324	62.511	0.106	0.106
-685.310	-112.763	0.135	-0.027
-684.295	115.703	-0.064	-0.078
-683.281	-20.507	-0.082	0.051
-682.266	-112.446	0.119	0.024
-681.251	-151.022	-0.308	-0.023
-680.237	-12.680	-0.142	0.093
-679.222	800.000	-0.054	-0.209
-678.208	800.000	-0.026	0.107
-677.193	7.970	-0.136	-0.102
-676.178	249.242	-0.069	0.117
-675.164	-99.061	0.200	0.051
-674.149	303.480	0.018	0.034
-673.135	800.000	0.092	-0.339
-672.120	-14.145	0.063	-0.041
-671.105	-60.588	-0.222	0.094
-670.091	366.937	0.096	0.194
-669.076	697.078	0.247	-0.649
-668.062	-200.000	-0.001	0.010
-667.047	-200.000	0.014	-0.281
-666.032	143.945	0.250	-0.334
-665.018	117.362	-0.278	-0.342
-664.003	-46.944	0.084	-0.041
-662.989	-200.000	-0.025	0.119
-661.974	208.134	-0.102	-0.159
-660.959	-0.973	0.199	-0.141
-659.945	242.608	0.052	-0.086
-658.930	800.000	0.137	-0.542
-657.916	529.894	-0.074	0.175
-656.901	-67.513	0.069	0.027
-655.886	-200.000	0.021	-0.322
-654.872	-32.266	-0.051	-0.029
-653.857	-200.000	0.011	0.197
-652.843	368.792	0.031	-0.064
-651.828	490.406	0.034	-0.078
-650.814	-135.455	-0.148	0.018
-649.799	800.000	-0.056	-0.181
-648.784	-98.895	0.026	0.006
-647.770	65.953	0.213	-0.216
-646.755	-200.000	-0.022	-0.227
-645.741	-200.000	0.020	0.179
-644.726	-200.000	0.028	-0.136
-643.711	-200.000	0.019	-0.108
-642.697	280.180	-0.031	0.056
-641.682	68.130	0.286	-0.293
-640.668	-143.711	-0.104	-0.010
-639.653	-66.540	-0.368	-0.146
-638.638	166.636	0.172	-0.244
-637.624	58.645	0.118	-0.116
-636.609	-90.742	-0.271	-0.078
-635.595	203.726	0.061	0.094
-634.580	-200.000	-0.033	-0.220
-633.565	399.325	0.126	-0.265
-632.551	-15.264	-0.166	-0.106
-631.536	20.940	0.199	0.161
-630.522	113.129	-0.021	0.025
-629.507	-200.000	-0.012	-0.163
-628.492	385.184	0.051	-0.106
-627.478	295.522	0.060	-0.110
-626.463	-111.664	-0.252	0.051
-625.449	-200.000	-0.020	0.165
-624.434	-151.087	-0.372	-0.028
-623.419	370.181	-0.156	-0.317
-622.405	91.098	0.068	-0.077
-621.390	-112.877	-0.158	0.031
-620.376	188.315	-0.084	-0.125
-619.361	299.126	0.195	0.359
-618.346	-200.000	-0.008	0.230
-617.332	-82.352	-0.424	-0.138
-616.317	-200.000	0.034	0.559
-615.303	800.000	-0.079	0.288
-614.288	800.000	-0.047	-0.184
-613.273	-120.746	0.143	-0.024
-612.259	-48.307	0.292	0.140
-611.244	-200.000	0.050	0.283
-610.230	-36.278	0.064	-0.034
-609.215	415.829	0.012	0.025
-608.201	800.000	-0.098	0.291
-607.186	-118.192	0.065	-0.012
-606.171	800.000	-0.134	-0.449
-605.157	-148.607	0.203	0.016
-604.142	-99.656	0.201	-0.050
-603.128	47.925	0.136	0.127
-602.113	-15.710	0.153	-0.098
-601.098	613.464	-0.161	0.401
-600.084	-33.105	-0.186	0.103
-599.069	252.999	-0.023	-0.039
-598.055	-200.000	0.061	0.292
-597.040	-30.328	-0.074	0.042
-596.025	800.000	0.119	0.426
-595.011	800.000	-0.078	0.276
-593.996	800.000	-0.055	-0.157
-592.982	194.544	-0.155	-0.234
-591.967	18.869	-0.110	0.088
-590.952	602.674	0.076	0.189
-589.938	-200.000	-0.001	0.140
-588.923	-200.000	0.015	-0.109
-587.909	242.263	0.077	0.129
-586.894	-200.000	-0.003	0.023
-585.879	-48.500	0.054	0.026
-584.865	-92.324	0.299	0.084
-583.850	20.678	-0.225	-0.182
-582.836	800.000	-0.047	-0.174
-581.821	-129.074	-0.160	-0.022
-580.806	582.025	-0.141	-0.344
-579.792	-60.063	-0.341	-0.145
-578.777	-200.000	-0.030	-0.208
-577.763	39.793	0.158	-0.141
-576.748	151.349	0.067	-0.092
-575.733	-65.086	-0.195	-0.079
-574.719	-104.527	-0.311	-0.072
-573.704	191.338	0.166	0.250
-572.690	-200.000	0.017	0.545
-571.675	-109.271	0.040	0.008
-570.661	202.656	0.048	-0.074
-569.646	-170.585	-0.096	-0.003
-568.631	-80.371	0.061	-0.020
-567.617	286.047	-0.287	-0.515
-566.602	-108.036	-0.268	0.058
-565.588	142.020	-0.133	0.176
-564.573	-200.000	-0.009	-0.112
-563.558	466.001	0.164	-0.367
-562.544	291.034	-0.094	0.170
-561.529	-1.810	0.083	0.058
-560.515	-200.000	-0.002	-0.212
-559.500	-128.252	-0.416	-0.059
-558.485	-128.485	0.126	0.018
-557.471	-150.731	-0.178	0.013
-556.456	316.016	-0.106	-0.200
-555.442	155.659	0.047	-0.064
-554.427	-46.466	0.113	0.055
-553.412	800.000	-0.134	0.477
-552.398	16.944	-0.200	-0.158
-551.383	800.000	0.016	-0.055
-550.369	-58.921	-0.341	0.147
-549.354	-163.159	0.088	-0.004
-548.339	32.032	-0.190	-0.163
-547.325	800.000	-0.080	-0.252
-546.310	169.191	-0.190	-0.271
-545.296	454.729	0.032	-0.071
-544.281	511.181	-0.037	-0.085
-543.266	225.508	0.097	-0.157
-542.252	50.139	0.121	-0.113
-541.237	243.073	-0.143	-0.238
-540.223	262.690	0.109	-0.189
-539.208	-131.463	-0.194	0.025
-538.193	-115.748	0.547	-0.102
-537.179	57.777	-0.125	0.121
-536.164	-130.968	-0.373	0.050
-535.150	8.371	0.272	0.204
-534.135	-163.772	0.442	-0.021
-533.121	-33.488	0.219	-0.120
-532.106	66.938	0.132	0.134
-531.091	-72.028	-0.219	0.081
-530.077	800.000	-0.068	-0.215
-529.062	800.000	0.073	0.258
-528.048	-200.000	0.019	0.216
-527.033	-144.905	0.136	-0.012
-526.018	748.083	0.023	0.062
-525.004	-85.964	0.450	0.139
-523.989	-8.252	-0.191	-0.128
-522.975	110.607	-0.122	-0.145
-521.960	-133.673	0.148	0.018
-520.945	-83.728	-0.331	-0.105
-519.931	38.751	0.283	0.251
-518.916	-75.785	0.064	0.023
-517.902	44.757	-0.163	-0.149
-516.887	-56.483	-0.158	-0.070
-515.872	-200.000	-0.088	-0.406
-514.858	15.014	0.361	-0.282
-513.843	-90.970	-0.203	0.058
-512.829	-44.276	-0.431	-0.215
-511.814	800.000	0.081	0.276
-510.799	-60.407	0.168	0.071
-509.785	305.610	-0.187	-0.345
-508.770	-102.107	-0.216	0.052
-507.756	3.345	0.114	-0.083
-506.741	-200.000	0.024	0.163
-505.726	-44.030	-0.148	-0.074
-504.712	-69.126	0.182	0.070
-503.697	-200.000	0.031	0.227
-502.683	-127.055	0.089	-0.013
-501.668	-200.000	0.043	-0.429
-500.653	-200.000	-0.042	0.253
-499.639	4.307	0.056	0.041
-498.624	-200.000	-0.011	-0.197
-497.610	165.025	0.092	-0.129
-496.595	179.394	0.126	0.183
-495.581	-200.000	-0.016	-0.135
-494.566	-200.000	0.014	0.094
-493.551	-200.000	0.009	-0.087
-492.537	23.709	-0.239	-0.196
-491.522	-108.139	0.052	-0.011
-490.508	-22.763	0.315	0.189
-489.493	-200.000	-0.007	-0.490
-488.478	-200.000	0.015	0.221
-487.464	-200.000	-0.021	0.279
-486.449	-67.917	-0.285	0.111
-485.435	17.629	0.274	0.216
-484.420	-200.000	0.030	0.182
-483.405	-177.930	0.225	-0.005
-482.391	800.000	-0.074	-0.206
-481.376	-80.603	-0.292	-0.097
-480.362	-74.050	-0.202	0.073
-479.347	-120.289	-0.298	-0.051
-478.332	408.385	0.096	-0.202
-477.318	-11.953	-0.377	0.245
-476.303	-60.870	-0.060	-0.025
-475.289	-200.000	0.025	-0.281
-474.274	180.335	-0.196	0.286
-473.259	516.619	-0.120	0.278
-472.245	33.718	0.142	0.123
-471.230	258.546	0.292	-0.500
-470.216	-200.000	-0.005	0.301
-469.201	800.000	-0.052	0.150
-468.186	542.702	0.105	-0.249
-467.172	-200.000	-0.055	-0.461
-466.157	-56.142	-0.200	-0.088
-465.143	-200.000	0.006	-0.064
-464.128	-63.254	-0.306	-0.125
-463.113	-66.036	-0.172	0.068
-462.099	-52.920	-0.108	-0.050
-461.084	-81.577	0.370	0.121
-460.070	-89.689	-0.173	-0.050
-459.055	243.877	-0.083	0.139
-458.040	110.266	-0.361	-0.430
-457.026	800.000	0.058	-0.172
-456.011	-117.388	-0.238	0.043
-454.997	-200.000	0.002	0.176
-453.982	179.129	-0.111	-0.162
-452.968	457.994	0.050	-0.110
-451.953	-200.000	-0.024	0.168
-450.938	0.620	0.093	0.066
-449.924	-70.216	-0.172	-0.065
-448.909	-121.719	-0.191	-0.031
-447.895	342.629	-0.016	-0.031
-446.880	800.000	0.067	0.280
-445.865	47.884	0.081	0.075
-444.851	-104.307	-0.128	-0.029
-443.836	-141.733	0.096	0.010
-442.822	298.785	0.051	0.093
-441.807	11.481	0.108	0.082
-440.792	-200.000	0.015	0.186
-439.778	261.767	0.105	0.181
-438.763	359.862	0.037	-0.074
-437.749	-67.613	0.281	-0.109
-436.734	-58.758	-0.190	0.082
-435.719	518.998	0.116	0.269
-434.705	156.808	0.051	-0.070
-433.690	-58.783	-0.187	0.080
-432.676	74.364	0.118	0.123
-431.661	722.487	-0.103	-0.271
-430.646	767.703	0.038	-0.102
-429.632	72.031	0.037	0.038
-428.617	-200.000	0.030	-0.323
-427.603	179.780	0.031	0.045
-426.588	800.000	-0.048	-0.153
-425.573	634.896	0.078	-0.196
-424.559	66.443	-0.201	-0.203
-423.544	102.133	0.198	0.229
-422.530	-134.126	-0.039	-0.005
-421.515	800.000	0.133	-0.395
-420.500	18.846	0.132	0.105
-419.486	14.246	0.069	-0.054
-418.471	-149.525	0.290	-0.023
-417.457	-53.989	0.236	-0.107
-416.442	-49.888	-0.399	-0.188
-415.428	224.169	-0.037	-0.059
-414.413	800.000	0.096	-0.374
-413.398	-85.082	-0.158	-0.049
-412.384	-15.590	0.218	-0.138
-411.369	2.568	0.076	-0.055
-410.355	88.654	0.173	0.191
-409.340	27.488	0.161	0.135
-408.325	-5.280	-0.293	0.200
-407.311	-200.000	-0.011	-0.228
-406.296	800.000	0.079	-0.239
-405.282	-26.498	0.110	0.064
-404.267	100.642	0.152	-0.175
-403.252	-101.991	0.241	-0.058
-402.238	518.676	-0.025	0.059
-401.223	71.335	0.291	-0.299
-400.209	188.270	-0.188	0.278
-399.194	800.000	-0.133	0.506
-398.179	-134.316	0.220	-0.027
-397.165	521.311	0.051	-0.118
-396.150	-115.158	-0.230	-0.043
-395.136	161.009	-0.159	0.220
-394.121	800.000	0.089	0.287
-393.106	711.896	0.100	-0.262
-392.092	-86.372	0.260	0.079
-391.077	800.000	-0.058	0.169
-390.063	-47.344	0.080	-0.038
-389.048	-86.799	-0.136	-0.041
-388.033	-200.000	-0.051	-0.323
-387.019	-159.889	0.297	0.016
-386.004	123.074	-0.289	0.359
-384.990	14.246	0.047	-0.036
-383.975	-200.000	-0.028	-0.152
-382.960	398.687	-0.018	-0.037
-381.946	-81.308	-0.278	-0.091
-380.931	-128.423	0.455	0.064
-379.917	-35.726	0.087	-0.047
-378.902	-70.368	-0.180	0.068
-377.888	-101.105	0.285	-0.069
-376.873	47.666	0.149	0.138
-375.858	800.000	-0.037	-0.107
-374.844	-108.515	0.285	0.061
-373.829	5.605	-0.300	-0.219
-372.815	262.865	-0.053	-0.091
-371.800	-33.349	0.167	-0.091
-370.785	-116.696	-0.377	0.069
-369.771	-143.109	0.260	0.025
-368.756	-200.000	0.002	-0.104
-367.742	-4.886	-0.147	-0.100
-366.727	-102.598	0.041	-0.010
-365.712	-200.000	0.011	0.338
-364.698	63.167	0.089	-0.088
-363.683	-132.731	0.119	-0.015
-362.669	800.000	0.095	0.378
-361.654	119.056	0.056	0.069
-360.639	80.513	-0.033	0.035
-359.625	-200.000	-0.000	-0.092
-358.610	37.925	-0.145	-0.127
-357.596	-200.000	0.015	-0.227
-356.581	209.481	-0.095	0.147
-355.566	-137.510	0.130	0.015
-354.552	182.911	0.131	-0.191
-353.537	-200.000	-0.061	-0.431
-352.523	800.000	0.009	-0.036
-351.508	-127.024	0.235	-0.034
-350.493	-200.000	-0.012	0.496
-349.479	-13.038	-0.130	0.083
-348.464	133.489	-0.152	0.194
-347.450	-200.000	-0.009	0.274
-346.435	-32.840	-0.064	-0.035
-345.420	-27.477	0.183	-0.105
-344.406	-200.000	0.029	0.286
-343.391	-106.961	-0.039	0.008
-342.377	-200.000	0.001	0.037
-341.362	-200.000	-0.062	0.319
-340.348	155.141	-0.139	-0.189
-339.333	140.451	-0.174	0.227
-338.318	-16.062	0.224	-0.141
-337.304	800.000	0.047	0.153
-336.289	-43.951	-0.175	-0.087
-335.275	-200.000	-0.002	-0.071
-334.260	-200.000	0.031	-0.157
-333.245	190.596	0.079	-0.118
-332.231	-124.959	-0.253	-0.039
-331.216	800.000	-0.161	-0.462
-330.202	-200.000	0.057	0.282
-329.187	-11.989	0.056	-0.036
-328.172	-170.678	0.125	0.004
-327.158	-200.000	0.010	-0.091
-326.143	255.164	-0.202	0.342
-325.129	-200.000	-0.066	0.537
-324.114	261.170	0.203	0.348
-323.099	-200.000	-0.087	0.387
-322.085	-47.648	0.453	-0.217
-321.070	107.208	0.115	0.135
-320.056	43.193	-0.107	-0.096
-319.041	91.491	-0.140	-0.156
-318.026	-200.000	-0.016	-0.220
-317.012	165.267	-0.054	0.075
-315.997	344.855	-0.123	-0.238
-314.983	59.120	-0.322	-0.313
-313.968	441.534	0.199	0.429
-312.953	-51.331	0.123	0.057
-311.939	59.610	0.244	-0.237
-310.924	-200.000	-0.001	0.065
-309.910	-97.833	0.064	-0.016
-308.895	-135.991	-0.097	0.011
-307.880	-36.516	0.119	-0.063
-306.866	-200.000	-0.005	0.259
-305.851	-200.000	0.026	0.293
-304.837	800.000	-0.108	0.404
-303.822	-104.424	-0.171	-0.039
-302.807	-200.000	-0.018	-0.265
-301.793	-200.000	0.000	0.154
-300.778	-200.000	-0.058	0.359
-299.764	144.737	0.218	0.287
-298.749	-93.080	-0.354	0.097
-297.735	158.358	0.153	-0.209
-296.720	5.973	0.136	0.100
-295.705	-200.000	0.018	-0.197
-294.691	800.000	0.018	0.052
-293.676	44.552	-0.036	-0.033
-292.662	-23.671	0.100	-0.059
-291.647	235.206	0.100	0.163
-290.632	69.250	0.180	0.183
-289.618	-200.000	-0.006	-0.164
-288.603	800.000	0.039	-0.164
-287.589	139.648	-0.138	-0.179
-286.574	-31.134	-0.096	0.053
-285.559	35.688	-0.083	-0.072
-284.545	-125.910	-0.199	-0.030
-283.530	476.817	-0.151	-0.338
-282.516	-160.723	0.128	-0.007
-281.501	123.662	-0.199	-0.246
-280.486	-81.332	0.189	0.061
-279.472	-200.000	0.008	-0.078
-278.457	591.795	0.125	0.303
-277.443	44.389	-0.178	0.161
-276.428	-91.609	-0.248	-0.070
-275.413	-200.000	0.016	-0.096
-274.399	-200.000	-0.001	0.071
-273.384	-200.000	-0.013	0.098
-272.370	245.039	0.130	-0.216
-271.355	48.823	0.216	-0.199
-270.340	31.536	0.108	0.092
-269.326	800.000	-0.041	0.118
-268.311	-200.000	-0.009	-0.087
-267.297	800.000	-0.033	-0.104
-266.282	-26.119	0.221	0.128
-265.267	-200.000	-0.013	0.302
-264.253	60.748	0.092	0.090
-263.238	-91.388	0.158	0.044
-262.224	-35.386	-0.415	0.222
-261.209	-70.194	-0.119	-0.045
-260.195	270.381	-0.118	0.205
-259.180	69.939	0.091	0.092
-258.165	-200.000	0.048	0.243
-257.151	-121.418	0.207	-0.034
-256.136	-200.000	0.016	0.187
-255.122	800.000	-0.130	0.482
-254.107	45.529	-0.049	-0.044
-253.092	139.697	0.205	-0.266
-252.078	800.000	-0.054	0.186
-251.063	362.949	-0.053	0.106
-250.049	60.295	0.181	-0.176
-249.034	85.690	-0.044	0.047
-248.019	-76.592	0.245	-0.085
-247.005	25.616	-0.176	0.144
-245.990	147.762	-0.232	-0.308
-244.976	-131.677	-0.189	0.024
-243.961	501.067	-0.049	0.111
-242.946	-152.928	0.157	0.011
-241.932	31.412	0.155	0.131
-240.917	562.290	0.094	0.223
-239.903	650.841	0.202	0.510
-238.888	27.178	-0.185	0.153
-237.873	464.526	-0.020	-0.044
-236.859	-161.902	0.097	0.005
-235.844	38.566	0.286	-0.251
-234.830	-91.359	0.072	-0.020
-233.815	130.258	0.140	0.177
-232.800	80.077	-0.015	-0.016
-231.786	-45.400	-0.096	-0.047
-230.771	111.713	0.204	0.243
-229.757	-123.569	-0.118	-0.018
-228.742	272.659	-0.154	-0.268
-227.727	-130.838	0.435	-0.057
-226.713	-23.888	0.136	-0.080
-225.698	-177.440	-0.074	-0.002
-224.684	800.000	0.048	-0.158
-223.669	4.096	0.058	-0.042
-222.655	800.000	0.068	0.277
-221.640	100.529	-0.314	0.358
-220.625	116.726	0.089	0.107
-219.611	-82.791	-0.301	-0.096
-218.596	-200.000	0.010	-0.165
-217.582	24.829	0.401	0.327
-216.567	120.451	0.188	0.230
-215.552	-169.496	-0.368	0.013
-214.538	800.000	0.105	0.299
-213.523	-200.000	-0.023	-0.112
-212.509	71.928	0.108	-0.111
-211.494	57.419	-0.081	-0.077
-210.479	89.591	-0.091	-0.099
-209.465	-12.978	0.075	-0.048
-208.450	-200.000	0.006	0.044
-207.436	800.000	-0.088	0.306
-206.421	-110.356	0.279	-0.057
-205.406	537.662	-0.018	0.042
-204.392	244.161	-0.077	-0.128
-203.377	-71.705	-0.125	-0.046
-202.363	-154.146	-0.666	0.044
-201.348	227.636	-0.069	0.111
-200.333	-129.040	0.026	0.004
-199.319	32.602	0.209	-0.178
-198.304	-200.000	0.016	-0.210
-197.290	-136.901	0.288	-0.033
-196.275	-191.739	0.419	-0.004
-195.260	-200.000	-0.029	-0.282
-194.246	56.748	0.175	0.167
-193.231	-159.685	0.170	-0.009
-192.217	-82.226	0.432	0.138
-191.202	800.000	-0.070	-0.296
-190.187	-200.000	-0.084	-0.494
-189.173	-76.688	0.421	0.145
-188.158	800.000	0.035	-0.097
-187.144	289.923	0.070	0.124
-186.129	-89.217	-0.112	-0.032
-185.114	-9.598	0.268	0.176
-184.100	654.036	0.077	0.194
-183.085	-183.570	0.088	-0.001
-182.071	-200.000	-0.018	-0.086
-181.056	263.059	-0.108	0.184
-180.042	48.774	0.175	0.162
-179.027	800.000	-0.118	0.353
-178.012	558.787	0.040	-0.094
-176.998	-58.947	0.115	0.049
-175.983	800.000	-0.082	0.286
-174.969	-200.000	-0.015	0.342
-173.954	-126.106	-0.175	-0.026
-172.939	356.794	-0.207	-0.405
-171.925	71.571	-0.159	-0.162
-170.910	-136.041	-0.222	0.026
-169.896	449.804	-0.065	-0.140
-168.881	88.880	0.286	0.312
-167.866	-12.571	0.146	-0.094
-166.852	-101.528	0.261	-0.062
-165.837	-104.946	-0.360	0.081
-164.823	34.785	-0.163	0.140
-163.808	-131.304	-0.189	0.025
-162.793	800.000	0.037	-0.102
-161.779	800.000	0.047	-0.146
-160.764	160.205	-0.274	-0.374
-159.750	104.394	0.076	-0.088
-158.735	149.330	-0.252	0.335
-157.720	-200.000	0.062	-0.331
-156.706	45.506	-0.282	-0.255
-155.691	-167.980	-0.056	-0.002
-154.677	16.903	0.142	-0.110
-153.662	-49.275	0.284	0.133
-152.647	-10.335	-0.099	0.065
-151.633	-59.236	0.178	0.075
-150.618	59.653	-0.182	-0.176
-149.604	-18.068	0.255	0.157
-148.589	69.564	-0.064	-0.065
-147.574	-200.000	0.013	-0.124
-146.560	-170.993	0.089	-0.003
-145.545	-19.071	-0.224	-0.137
-144.531	-23.941	-0.080	0.047
-143.516	-200.000	0.017	-0.579
-142.502	800.000	-0.028	-0.076
-141.487	-200.000	0.025	-0.188
-140.472	543.880	-0.136	-0.317
-139.458	418.044	-0.062	-0.130
-138.443	-144.766	0.150	0.014
-137.429	-92.576	0.320	0.088
-136.414	-148.597	-0.178	0.014
-135.399	372.718	0.192	-0.383
-134.385	-200.000	-0.054	-0.377
-133.370	70.874	-0.245	-0.249
-132.356	-40.060	-0.253	0.129
-131.341	93.157	0.038	-0.042
-130.326	161.121	0.118	0.162
-129.312	800.000	0.078	0.267
-128.297	-149.619	0.123	0.010
-127.283	251.818	-0.135	0.226
-126.268	-131.954	0.492	0.063
-125.253	-110.766	-0.108	0.022
-124.239	-200.000	-0.017	-0.371
-123.224	445.195	0.097	0.209
-122.210	-200.000	-0.007	0.038
-121.195	48.017	0.185	0.170
-120.180	658.676	-0.135	-0.339
-119.166	-200.000	0.072	-0.500
-118.151	275.548	0.156	0.271
-117.137	-200.000	-0.049	-0.402
-116.122	800.000	-0.054	0.226
-115.107	-200.000	0.067	-0.373
-114.093	-24.148	-0.089	-0.052
-113.078	85.024	0.146	-0.157
-112.064	334.383	-0.126	-0.239
-111.049	-184.647	-0.296	-0.005
-110.034	-65.271	-0.286	0.113
-109.020	-52.226	0.118	-0.054
-108.005	-39.436	-0.240	0.123
-106.991	-70.523	-0.115	0.043
-105.976	-200.000	-0.017	-0.284
-104.962	19.500	0.298	-0.234
-103.947	-200.000	-0.007	0.302
-102.932	14.521	-0.218	-0.167
-101.918	-200.000	0.022	0.324
-100.903	55.775	-0.072	0.068
-99.889	-130.520	-0.172	0.023
-98.874	-149.840	0.092	-0.007
-97.859	800.000	-0.131	0.395
-96.845	-200.000	0.024	0.326
-95.830	-129.016	-0.083	-0.011
-94.816	-45.841	-0.080	0.039
-93.801	397.709	0.124	0.255
-92.786	6.914	-0.195	-0.142
-91.772	111.412	0.093	0.110
-90.757	-200.000	-0.027	0.196
-89.743	130.537	0.087	-0.109
-88.728	-49.346	0.145	0.068
-87.713	129.303	-0.196	-0.245
-86.699	-200.000	0.011	-0.182
-85.684	82.437	0.162	0.172
-84.670	440.125	0.070	-0.149
-83.655	-22.623	-0.333	0.197
-82.640	106.057	-0.218	-0.252
-81.626	-185.200	0.176	-0.003
-80.611	-15.039	0.269	-0.168
-79.597	82.781	0.225	0.239
-78.582	-200.000	-0.016	-0.089
-77.567	21.120	-0.320	-0.254
-76.553	439.383	0.121	0.258
-75.538	125.683	-0.027	-0.033
-74.524	-71.893	-0.180	0.065
-73.509	800.000	0.041	-0.121
-72.494	-81.184	-0.175	-0.056
-71.480	176.843	0.065	-0.093
-70.465	50.723	-0.243	0.225
-69.451	-24.513	-0.130	-0.076
-68.436	-200.000	0.020	-0.199
-67.422	-175.319	0.094	0.003
-66.407	-105.253	0.171	-0.038
-65.392	-5.542	0.138	-0.093
-64.378	-79.554	0.287	0.095
-63.363	-154.082	-0.152	0.010
-62.349	531.420	0.031	-0.073
-61.334	32.409	-0.876	-0.740
-60.319	248.028	0.408	0.674
-59.305	797.735	-0.474	-1.277
-58.290	723.633	0.547	1.424
-57.276	434.327	0.691	1.468
-56.261	-200.000	113.181	626.926
-55.246	443.994	1521.696	3261.909
-54.232	143.247	2712.250	3527.068
-53.217	100.741	2210.226	2509.955
-52.203	37.468	1728.112	1497.524
-51.188	29.847	1541.332	1283.009
-50.173	27.674	1516.513	1247.457
-49.159	51.504	1574.761	1462.042
-48.144	49.576	1590.178	1462.880
-47.130	30.153	1546.278	1289.051
-46.115	27.010	1530.934	1254.532
-45.100	26.954	1526.922	1250.811
-44.086	26.892	1525.053	1248.804
-43.071	26.932	1523.367	1247.647
-42.057	26.899	1521.707	1246.013
-41.042	26.859	1520.551	1244.738
-40.027	26.796	1518.715	1242.758
-39.013	26.804	1516.955	1241.323
-37.998	26.644	1516.452	1239.767
-36.984	26.799	1514.975	1239.568
-35.969	26.803	1513.755	1238.549
-34.954	26.831	1512.155	1237.383
-33.940	26.760	1510.596	1235.572
-32.925	26.719	1509.674	1234.491
-31.911	26.885	1507.933	1234.150
-30.896	26.881	1506.612	1232.988
-29.881	26.904	1505.087	1231.847
-28.867	26.936	1503.933	1231.075
-27.852	26.914	1502.798	1229.949
-26.838	26.840	1501.351	1228.211
-25.823	26.900	1499.060	1226.695
-24.809	26.857	1497.894	1225.401
-23.794	26.807	1496.585	1223.945
-22.779	26.790	1495.411	1222.820
-21.765	26.882	1494.322	1222.504
-20.750	26.900	1493.295	1221.731
-19.736	26.866	1492.124	1220.498
-18.721	26.908	1490.620	1219.506
-17.706	26.783	1489.908	1218.030
-16.692	26.899	1488.593	1217.687
-15.677	26.938	1487.505	1217.013
-14.663	26.897	1486.169	1215.592
-13.648	26.768	1485.830	1214.407
-12.633	26.769	1485.480	1214.075
-11.619	26.916	1483.772	1213.614
-10.604	26.688	1483.203	1211.576
-9.590	26.694	1482.859	1211.287
-8.575	26.705	1481.512	1210.213
-7.560	26.733	1480.833	1209.800
-6.546	26.727	1479.923	1208.965
-5.531	26.698	1478.849	1207.851
-4.517	26.787	1477.518	1207.305
-3.502	26.751	1476.609	1206.274
-2.487	26.865	1475.709	1206.251
-1.473	26.691	1474.833	1204.329
-0.458	26.835	1473.041	1203.774
0.556	26.246	1463.904	1195.395
1.571	23.817	1440.155	1160.067
2.586	20.739	1376.980	1089.838
3.600	19.028	1290.639	1011.360
4.615	17.461	1245.702	967.166
5.629	14.907	1187.877	908.333
6.644	7.685	1102.716	806.602
7.659	1.932	1063.636	749.722
8.673	0.987	1058.078	741.119
9.688	0.880	1054.805	738.239
10.702	0.836	1053.621	737.128
11.717	0.767	1051.978	735.578
12.731	3.009	1053.500	747.493
13.746	9.957	1062.497	787.792
14.761	15.670	1069.477	820.872
15.775	17.290	1071.414	830.202
16.790	17.168	1068.965	827.639
17.804	16.020	1067.700	820.994
18.819	15.304	1065.786	815.968
19.834	14.882	1064.050	812.516
20.848	14.373	1063.173	809.302
21.863	14.198	1062.722	808.039
22.877	13.935	1061.781	805.976
23.892	13.776	1060.820	804.401
24.907	13.645	1060.145	803.186
25.921	13.692	1059.297	802.697
26.936	13.656	1058.948	802.190
27.950	13.760	1057.899	801.826
28.965	13.818	1057.085	801.419
29.980	13.729	1056.490	800.465
30.994	13.922	1055.374	800.483
32.009	13.811	1054.908	799.523
33.023	13.951	1053.766	799.259
34.038	14.032	1052.657	798.737
35.053	13.991	1051.798	797.820
36.067	13.914	1051.120	796.862
37.082	13.871	1050.167	795.865
38.096	13.859	1049.548	795.268
39.111	13.944	1048.747	794.998
40.126	13.896	1047.892	794.048
41.140	13.709	1046.897	792.332
42.155	13.718	1045.977	791.606
43.169	13.678	1045.264	790.807
44.184	13.611	1044.334	789.717
45.199	13.762	1042.657	789.094
46.213	13.711	1041.767	788.111
47.228	13.758	1040.739	787.487
48.242	13.802	1040.274	787.273
49.257	13.828	1039.184	786.502
50.271	13.816	1037.911	785.413
51.286	13.812	1037.066	784.685
52.301	13.726	1036.291	783.621
53.315	13.826	1035.437	783.379
54.330	13.852	1034.692	782.868
55.344	13.710	1033.812	781.463
56.359	13.710	1032.549	780.438
57.374	13.783	1031.915	780.235
58.388	13.854	1030.826	779.678
59.403	13.855	1030.019	778.999
60.417	13.632	1029.567	777.546
61.432	13.609	1029.216	777.104
62.447	13.649	1028.040	776.331
63.461	13.690	1027.270	775.875
64.476	13.699	1026.224	775.057
65.490	13.644	1025.396	774.106
66.505	13.646	1024.609	773.453
67.520	13.745	1023.985	773.378
68.534	13.753	1023.500	772.979
69.549	13.833	1022.182	772.287
70.563	13.683	1021.759	771.201
71.578	13.786	1021.157	771.159
72.593	13.708	1020.287	770.069
73.607	13.502	1019.117	768.163
74.622	13.522	1018.399	767.647
75.636	13.638	1017.383	767.350
76.651	13.630	1016.388	766.493
77.666	13.608	1016.043	766.065
78.680	13.536	1015.278	765.090
79.695	13.705	1014.524	765.232
80.709	13.606	1014.120	764.402
81.724	13.745	1012.801	763.981
82.739	13.765	1012.229	763.574
83.753	13.743	1011.692	763.003
84.768	13.690	1011.153	762.283
85.782	13.844	1009.984	762.044
86.797	13.891	1009.152	761.562
87.812	13.828	1008.196	760.486
88.826	13.725	1007.587	759.488
89.841	13.802	1006.378	758.861
90.855	13.749	1005.836	758.142
91.870	13.805	1005.164	757.823
92.884	13.881	1004.151	757.339
93.899	13.825	1004.036	756.930
94.914	13.914	1003.196	756.635
95.928	13.906	1002.356	755.899
96.943	13.939	1001.633	755.439
97.957	13.828	1000.795	754.235
98.972	13.874	999.412	753.334
99.987	13.955	999.203	753.479
101.001	13.886	998.254	752.380
102.016	13.838	997.653	751.646
103.030	13.884	996.606	750.997
104.045	13.946	995.664	750.504
105.060	13.904	994.710	749.528
106.074	13.878	993.479	748.417
107.089	13.901	992.481	747.703
108.103	13.863	991.778	746.933
109.118	13.719	991.005	745.638
110.133	13.743	990.258	745.120
111.147	13.800	989.415	744.672
112.162	13.791	988.313	743.738
113.176	13.732	987.760	742.993
114.191	13.775	987.026	742.569
115.206	13.854	985.868	741.983
116.220	13.793	985.434	741.319
117.235	13.875	984.421	740.855
118.249	13.940	982.822	739.878
119.264	13.804	982.627	739.058
120.279	13.769	981.838	738.244
121.293	13.780	980.467	737.197
122.308	13.806	979.839	736.775
123.322	13.777	979.289	736.166
124.337	13.741	978.186	735.114
125.352	13.886	976.715	734.584
126.366	13.929	975.626	733.892
127.381	13.950	974.436	733.024
128.395	13.894	973.493	732.002
129.410	13.833	972.759	731.119
130.424	13.779	972.022	730.260
131.439	13.881	970.741	729.685
132.454	13.814	970.142	728.872
133.468	13.757	969.814	728.311
134.483	13.888	969.000	728.211
135.497	13.849	968.064	727.272
136.512	13.886	967.043	726.603
137.527	13.809	966.231	725.590
138.541	13.745	965.516	724.710
139.556	13.736	965.411	724.530
140.570	13.824	964.037	723.817
141.585	13.858	963.542	723.532
142.600	13.908	962.873	723.182
143.614	13.808	962.208	722.185
144.629	13.953	960.857	721.733
145.643	13.997	960.382	721.507
146.658	14.015	959.622	720.947
147.673	14.029	958.388	720.019
148.687	13.907	957.798	718.982
149.702	14.051	956.650	718.680
150.716	13.905	956.135	717.599
151.731	13.872	955.324	716.785
152.746	13.877	954.565	716.175
153.760	13.847	953.948	715.517
154.775	14.005	952.898	715.347
155.789	13.910	952.331	714.451
156.804	13.985	951.605	714.163
157.819	14.094	950.664	713.864
158.833	14.092	949.884	713.207
159.848	14.075	949.481	712.765
160.862	14.143	948.485	712.248
161.877	14.209	947.804	711.954
162.892	14.075	946.987	710.707
163.906	13.953	946.166	709.504
164.921	14.002	945.387	709.068
165.935	14.115	944.288	708.663
166.950	14.046	943.503	707.716
167.964	14.059	942.784	707.170
168.979	14.190	941.372	706.605
169.994	14.114	940.306	705.420
171.008	14.101	939.591	704.765
172.023	14.229	938.722	704.594
173.037	14.181	938.310	704.020
174.052	14.076	937.666	703.031
175.067	14.123	936.525	702.311
176.081	14.147	935.932	701.907
177.096	14.131	935.199	701.224
178.110	14.171	934.279	700.642
179.125	14.189	933.693	700.216
180.140	14.152	933.008	699.484
181.154	14.135	932.340	698.851
182.169	14.210	931.761	698.670
183.183	14.263	931.005	698.264
184.198	14.370	930.124	697.991
185.213	14.416	929.263	697.476
186.227	14.359	928.606	696.682
187.242	14.306	928.329	696.191
188.256	14.323	927.589	695.644
189.271	14.269	927.388	695.206
190.286	14.326	926.404	694.646
191.300	14.224	925.235	693.283
192.315	14.168	925.002	692.814
193.329	14.313	924.126	692.701
194.344	14.265	923.091	691.663
195.359	14.213	922.807	691.174
196.373	14.339	922.267	691.231
197.388	14.426	921.895	691.250
198.402	14.544	920.901	690.935
199.417	14.532	920.512	690.531
200.432	14.442	920.332	689.961
201.446	14.589	919.871	690.162
202.461	14.545	919.166	689.393
203.475	14.645	918.627	689.340
204.490	14.619	918.053	688.738
205.504	14.574	917.129	687.798
206.519	14.636	916.062	687.195
207.534	14.633	915.127	686.419
208.548	14.634	914.726	686.063
209.563	14.548	914.450	685.440
210.577	14.773	913.377	685.499
211.592	14.618	912.797	684.367
212.607	14.697	912.138	684.135
213.621	14.704	911.893	683.923
214.636	14.745	910.880	683.268
215.650	14.796	909.760	682.577
216.665	14.724	909.794	682.248
217.680	14.647	909.056	681.319
218.694	14.805	908.666	681.614
219.709	14.780	908.288	681.165
220.723	14.772	907.660	680.603
221.738	14.851	906.537	680.020
222.753	14.777	905.884	679.172
223.767	14.900	905.120	679.037
224.782	15.041	904.282	678.919
225.796	14.918	903.502	677.777
226.811	15.032	902.665	677.548
227.826	14.917	902.208	676.681
228.840	15.010	901.296	676.312
229.855	15.056	900.278	675.674
230.869	15.040	899.848	675.229
231.884	15.010	899.477	674.771
232.899	14.914	898.775	673.797
233.913	14.885	898.411	673.347
234.928	14.876	897.646	672.677
235.942	14.964	896.869	672.389
236.957	14.897	895.952	671.373
237.972	14.956	895.405	671.140
238.986	15.007	894.887	670.898
240.001	15.033	893.974	670.260
241.015	15.016	893.396	669.699
242.030	14.905	893.149	669.011
243.045	15.085	891.925	668.752
244.059	15.046	891.408	668.148
245.074	15.085	891.015	667.952
246.088	15.053	890.322	667.247
247.103	15.335	889.580	667.754
248.117	15.126	889.036	666.456
249.132	15.241	888.341	666.333
250.147	15.362	887.534	666.148
251.161	15.412	886.688	665.651
252.176	15.348	886.289	665.041
253.190	15.323	886.038	664.693
254.205	15.300	885.480	664.124
255.220	15.339	884.841	663.742
256.234	15.484	883.777	663.458
257.249	15.358	883.534	662.721
258.263	15.433	882.994	662.553
259.278	15.516	882.488	662.441
260.293	15.505	881.716	661.761
261.307	15.482	880.939	661.026
262.322	15.498	880.639	660.805
263.336	15.509	879.764	660.133
264.351	15.637	878.998	660.005
265.366	15.754	878.154	659.769
266.380	15.582	878.107	659.004
267.395	15.706	877.364	658.873
268.409	15.654	876.689	658.104
269.424	15.761	875.978	657.929
270.439	15.587	875.169	656.585
271.453	15.657	874.313	656.157
272.468	15.687	873.746	655.791
273.482	15.763	873.044	655.502
274.497	15.669	872.297	654.518
275.512	15.660	871.925	654.147
276.526	15.610	870.986	653.187
277.541	15.715	870.496	653.171
278.555	15.741	869.752	652.655
279.570	15.718	869.418	652.260
280.585	15.771	869.169	652.218
281.599	15.914	868.434	652.162
282.614	16.008	867.703	651.920
283.628	15.714	867.500	650.574
284.643	15.594	866.734	649.477
285.657	15.966	865.896	650.230
286.672	15.841	865.624	649.483
287.687	15.962	864.952	649.388
288.701	15.937	864.544	648.930
289.716	15.947	863.846	648.388
290.730	15.966	862.986	647.755
291.745	16.035	862.383	647.512
292.760	16.010	861.601	646.772
293.774	15.917	861.221	646.071
294.789	16.140	860.590	646.397
295.803	16.155	859.828	645.823
296.818	16.125	859.125	645.124
297.833	16.142	858.673	644.792
298.847	16.084	858.038	644.040
299.862	16.003	857.465	643.240
300.876	16.116	856.729	643.064
301.891	16.066	855.636	641.996
302.906	16.135	855.533	642.125
303.920	16.143	854.952	641.661
304.935	16.234	854.401	641.538
305.949	16.415	853.506	641.494
306.964	16.322	853.076	640.762
307.979	16.195	852.682	639.929
308.993	16.217	852.081	639.503
310.008	16.255	851.403	639.083
311.022	16.289	850.928	638.798
312.037	16.396	850.102	638.528
313.052	16.371	850.004	638.302
314.066	16.395	848.941	637.538
315.081	16.191	848.582	636.442
316.095	16.418	847.690	636.570
317.110	16.318	847.219	635.785
318.125	16.265	847.078	635.424
319.139	16.288	846.344	634.904
320.154	16.278	846.220	634.718
321.168	16.233	845.829	634.198
322.183	16.419	845.261	634.413
323.197	16.481	844.223	633.812
324.212	16.440	843.837	633.313
325.227	16.439	843.275	632.832
326.241	16.320	843.167	632.250
327.256	16.482	841.952	631.886
328.270	16.467	841.574	631.491
329.285	16.550	840.949	631.276
330.300	16.621	840.219	630.938
331.314	16.496	840.024	630.267
332.329	16.642	838.844	629.872
333.343	16.523	838.509	629.119
334.358	16.611	837.607	628.714
335.373	16.426	837.798	628.116
336.387	16.635	836.986	628.225
337.402	16.635	836.315	627.666
338.416	16.677	835.913	627.467
339.431	16.617	835.332	626.753
340.446	16.646	834.645	626.287
341.460	16.643	834.157	625.857
342.475	16.639	833.951	625.632
343.489	16.774	833.156	625.479
344.504	16.794	832.530	625.025
345.519	16.869	831.934	624.800
346.533	16.914	831.309	624.440
347.548	16.832	831.288	624.068
348.562	16.860	830.662	623.647
349.577	16.811	829.949	622.875
350.592	16.849	829.200	622.399
351.606	16.850	828.786	622.034
352.621	16.803	828.562	621.642
353.635	16.703	828.436	621.122
354.650	16.859	827.679	621.075
355.665	16.807	827.438	620.645
356.679	16.975	826.676	620.634
357.694	16.956	826.110	620.085
358.708	16.989	825.221	619.485
359.723	17.085	825.058	619.658
360.738	16.889	824.661	618.591
361.752	17.027	824.040	618.571
362.767	17.062	823.675	618.371
363.781	16.983	823.250	617.708
364.796	17.100	822.604	617.594
365.810	17.087	822.599	617.491
366.825	16.952	822.621	616.959
367.840	17.249	821.185	616.907
368.854	17.254	820.992	616.726
369.869	17.232	820.566	616.271
370.883	17.161	820.026	615.553
371.898	17.238	819.630	615.481
372.913	17.264	818.994	615.045
373.927	17.247	818.336	614.434
374.942	17.385	817.421	614.190
375.956	17.256	817.071	613.409
376.971	17.385	816.363	613.287
377.986	17.425	815.440	612.681
379.000	17.460	815.496	612.797
380.015	17.423	815.104	612.315
381.029	17.325	814.460	611.426
382.044	17.485	814.116	611.686
383.059	17.482	813.338	611.037
384.073	17.535	812.745	610.729
385.088	17.583	812.518	610.675
386.102	17.321	811.985	609.283
387.117	17.455	811.379	609.255
388.132	17.493	810.475	608.658
389.146	17.542	810.376	608.703
390.161	17.567	810.194	608.602
391.175	17.425	809.748	607.707
392.190	17.591	808.854	607.573
393.205	17.609	808.568	607.370
394.219	17.551	808.445	607.015
395.234	17.465	807.994	606.318
396.248	17.758	806.814	606.421
397.263	17.595	806.684	605.688
398.278	17.522	806.389	605.155
399.292	17.667	805.739	605.129
400.307	17.667	805.117	604.607
401.321	17.458	805.047	603.761
402.336	17.603	804.928	604.134
403.350	17.641	804.437	603.846
404.365	17.655	803.989	603.505
405.380	17.796	803.366	603.481
406.394	17.676	803.008	602.735
407.409	17.626	803.081	602.562
408.423	17.809	801.871	602.244
409.438	17.718	801.985	601.955
410.453	17.875	800.976	601.701
411.467	17.875	800.361	601.184
412.482	17.869	800.069	600.890
413.496	17.986	799.785	601.036
414.511	18.063	799.484	601.028
415.526	17.843	799.152	599.952
416.540	17.892	798.971	599.935
417.555	17.940	798.105	599.401
418.569	18.016	797.641	599.263
419.584	18.151	797.075	599.261
420.599	18.102	796.726	598.771
421.613	113.017	1295.067	1479.353
422.628	97.331	1367.657	1479.415
