DTS Sentinel unit serial number:	SN413079Multiplexer serial number:	ORYXHardware model number:	OX4-SRSoftware version number:	ORYX F/W v4.00 Oryx Data Collector v3.7.2.0data status	okinstallation	princeton_trtdifferential loss correction	single-endedforward channel	channel 3reverse channel	N/Adate	2019/09/14time	09:48:35forward acquisition time	60.00reverse acquisition time	0.00gamma	496.2192k internal	0.2316k external	0.2316temperature offset calibration	1.0057default loss term (dB/km)	0.3790temperature slope calibration	1.0000multiplexer offset coefficient	1.0000multiplexer slope coefficient	1.0000fibre end	0.00T internal ref (°C)	32.39T ext. ref 1 (°C)	3.94T ext. ref 2 (°C)	30.56length (m)	temperature (°C)	Stokes	anti-Stokes-747.200	-105.807	0.362	0.083
-746.185	-164.260	-0.116	-0.005
-745.171	800.000	0.044	-0.140
-744.156	-200.000	0.027	0.132
-743.142	-98.865	0.052	0.013
-742.127	800.000	0.086	0.269
-741.112	83.222	0.219	-0.241
-740.098	237.732	0.067	0.112
-739.083	22.160	-0.059	-0.049
-738.069	800.000	-0.073	0.314
-737.054	-200.000	-0.003	0.083
-736.039	-54.337	-0.355	-0.163
-735.025	800.000	0.068	0.235
-734.010	513.879	-0.139	-0.329
-732.996	42.640	-0.313	0.288
-731.981	-200.000	0.009	0.120
-730.966	-20.736	0.152	-0.095
-729.952	4.598	-0.281	0.209
-728.937	-117.413	-0.265	-0.049
-727.923	-9.518	-0.086	-0.058
-726.908	-39.324	-0.318	-0.169
-725.894	800.000	0.044	-0.147
-724.879	151.732	-0.049	0.068
-723.864	104.822	0.133	-0.159
-722.850	132.347	0.050	-0.065
-721.835	-155.454	-0.250	0.016
-720.821	534.608	-0.080	-0.191
-719.806	364.405	0.086	-0.175
-718.791	-48.487	0.239	-0.117
-717.777	800.000	-0.083	0.346
-716.762	-57.899	-0.305	0.135
-715.748	-103.577	0.078	0.019
-714.733	-107.671	-0.355	-0.079
-713.718	61.169	-0.095	0.095
-712.704	-114.782	-0.282	-0.055
-711.689	235.857	-0.175	-0.293
-710.675	91.516	-0.271	0.308
-709.660	800.000	0.066	-0.279
-708.645	786.150	0.103	0.286
-707.631	-47.245	-0.291	-0.143
-706.616	-62.773	-0.206	0.087
-705.602	800.000	0.077	-0.297
-704.587	-13.532	0.035	-0.023
-703.572	-96.012	0.489	0.132
-702.558	-200.000	0.045	0.339
-701.543	435.166	-0.042	-0.092
-700.529	275.871	0.187	0.335
-699.514	-102.997	-0.339	0.081
-698.499	167.714	0.228	-0.328
-697.485	228.009	-0.118	0.195
-696.470	182.855	-0.156	-0.232
-695.456	185.894	0.092	-0.138
-694.441	-148.431	0.064	-0.005
-693.426	237.330	0.087	0.147
-692.412	14.797	-0.287	0.227
-691.397	-200.000	0.043	-0.406
-690.383	-200.000	-0.028	-0.212
-689.368	120.852	0.240	-0.302
-688.354	85.953	-0.223	-0.248
-687.339	-87.404	-0.141	0.043
-686.324	-200.000	0.035	-0.243
-685.310	-90.889	0.227	-0.066
-684.295	-137.490	-0.203	0.023
-683.281	154.554	0.295	-0.410
-682.266	-39.023	-0.304	0.162
-681.251	-128.529	-0.202	0.029
-680.237	-17.264	-0.404	0.257
-679.222	-73.827	0.091	0.033
-678.208	-28.249	0.157	0.091
-677.193	2.260	0.129	0.094
-676.178	148.124	-0.183	-0.249
-675.164	-14.283	0.193	-0.125
-674.149	-18.307	0.113	0.071
-673.135	-200.000	-0.071	-0.379
-672.120	-63.975	-0.260	0.107
-671.105	84.911	0.137	-0.151
-670.091	-1.267	-0.266	-0.190
-669.076	134.581	-0.147	0.193
-668.062	424.101	-0.172	0.374
-667.047	-200.000	-0.042	-0.191
-666.032	98.842	-0.276	0.321
-665.018	-83.763	0.037	0.012
-664.003	36.328	-0.145	-0.129
-662.989	81.126	-0.130	0.142
-661.974	-200.000	-0.047	-0.252
-660.959	-80.145	0.408	-0.138
-659.945	97.915	-0.201	-0.234
-658.930	-200.000	-0.009	0.099
-657.916	800.000	0.023	0.077
-656.901	96.615	-0.213	-0.246
-655.886	-200.000	0.034	0.246
-654.872	800.000	0.110	0.436
-653.857	640.947	-0.118	-0.303
-652.843	-200.000	0.030	0.165
-651.828	17.607	-0.128	0.103
-650.814	800.000	0.049	-0.177
-649.799	165.865	-0.278	-0.397
-648.784	260.079	-0.091	0.159
-647.770	651.179	-0.091	0.235
-646.755	-200.000	0.003	0.234
-645.741	-160.156	-0.170	-0.009
-644.726	-149.948	0.146	-0.012
-643.711	800.000	-0.101	0.290
-642.697	800.000	0.053	0.198
-641.682	-83.831	-0.218	0.070
-640.668	429.169	-0.168	-0.366
-639.653	-200.000	-0.006	0.244
-638.638	-123.781	-0.006	-0.001
-637.624	-18.071	0.163	-0.103
-636.609	-105.317	-0.100	0.023
-635.595	-105.885	-0.277	0.063
-634.580	-50.540	0.170	-0.081
-633.565	-56.677	0.097	0.044
-632.551	-200.000	-0.009	0.379
-631.536	-173.069	0.175	-0.005
-630.522	-4.913	0.202	0.141
-629.507	475.718	0.093	0.211
-628.492	6.309	-0.194	0.146
-627.478	-200.000	0.020	0.133
-626.463	201.734	-0.167	0.260
-625.449	-100.113	0.321	0.081
-624.434	688.702	0.126	-0.333
-623.419	800.000	0.047	-0.189
-622.405	-139.807	-0.186	0.020
-621.390	381.324	-0.065	-0.134
-620.376	-200.000	0.013	0.093
-619.361	687.007	-0.032	0.083
-618.346	-108.990	-0.158	0.034
-617.332	535.539	-0.045	0.107
-616.317	-200.000	-0.027	0.191
-615.303	-181.543	-0.186	-0.004
-614.288	-200.000	0.009	0.080
-613.273	-141.942	0.042	0.004
-612.259	-200.000	-0.007	-0.261
-611.244	160.442	-0.125	-0.176
-610.230	536.848	-0.094	-0.226
-609.215	-85.209	0.159	0.050
-608.201	-21.894	-0.264	-0.162
-607.186	398.728	0.090	-0.191
-606.171	-200.000	-0.012	-0.278
-605.157	-131.412	0.376	-0.050
-604.142	-200.000	0.027	0.215
-603.128	224.475	-0.041	0.066
-602.113	-92.876	-0.352	-0.099
-601.098	-200.000	-0.032	-0.173
-600.084	-22.868	0.113	0.069
-599.069	317.158	-0.113	0.215
-598.055	248.826	-0.060	-0.102
-597.040	97.640	-0.049	-0.056
-596.025	-104.914	0.110	0.025
-595.011	89.922	0.122	-0.137
-593.996	-200.000	-0.005	-0.193
-592.982	-33.548	0.128	0.071
-591.967	71.635	-0.088	-0.092
-590.952	256.357	-0.068	0.117
-589.938	151.377	0.074	0.101
-588.923	-68.178	-0.259	-0.101
-587.909	104.687	0.151	-0.179
-586.894	-52.417	-0.326	-0.152
-585.879	-50.484	0.180	-0.086
-584.865	800.000	-0.032	-0.096
-583.850	-48.549	0.186	-0.090
-582.836	342.066	-0.171	0.338
-581.821	48.725	0.115	0.108
-580.806	-116.294	-0.171	-0.032
-579.792	-200.000	-0.012	-0.184
-578.777	532.257	0.017	0.040
-577.763	-200.000	-0.031	0.203
-576.748	-44.225	-0.097	-0.049
-575.733	-57.822	-0.376	-0.165
-574.719	572.148	-0.061	0.149
-573.704	-35.049	-0.363	-0.199
-572.690	-200.000	0.016	-0.227
-571.675	-200.000	0.005	0.237
-570.661	-200.000	-0.030	-0.159
-569.646	-200.000	-0.004	-0.388
-568.631	-10.213	0.246	-0.164
-567.617	800.000	-0.099	0.318
-566.602	-200.000	-0.022	-0.309
-565.588	-200.000	-0.017	-0.189
-564.573	-144.519	0.050	0.005
-563.558	85.440	0.055	-0.061
-562.544	-117.757	0.097	-0.018
-561.529	409.476	-0.068	0.145
-560.515	-200.000	-0.020	-0.453
-559.500	470.676	0.071	-0.162
-558.485	-200.000	0.019	-0.402
-557.471	48.274	-0.183	-0.172
-556.456	-200.000	0.039	0.236
-555.442	435.215	0.115	0.251
-554.427	670.135	-0.175	-0.456
-553.412	159.074	0.265	-0.370
-552.398	131.671	0.087	-0.113
-551.383	-150.234	0.106	-0.008
-550.369	7.290	-0.189	0.142
-549.354	-200.000	0.070	0.326
-548.339	231.248	0.155	0.256
-547.325	37.813	-0.240	0.214
-546.310	-98.455	-0.099	0.026
-545.296	-190.987	-0.105	0.001
-544.281	-0.438	-0.113	0.081
-543.266	79.638	-0.156	0.169
-542.252	330.859	-0.112	0.217
-541.237	-200.000	-0.047	-0.209
-540.223	242.415	0.311	0.523
-539.208	-134.962	0.126	0.015
-538.193	85.403	0.234	0.259
-537.179	-57.165	-0.317	-0.140
-536.164	-86.230	0.436	-0.135
-535.150	555.904	0.122	-0.295
-534.135	-34.845	0.140	0.077
-533.121	-178.111	0.221	0.005
-532.106	-200.000	-0.005	0.029
-531.091	-58.026	-0.091	0.040
-530.077	-200.000	-0.052	-0.248
-529.062	-109.929	0.350	0.074
-528.048	800.000	0.033	0.104
-527.033	66.195	0.058	-0.060
-526.018	11.044	-0.244	-0.187
-525.004	-164.999	0.170	0.008
-523.989	52.798	-0.081	0.078
-522.975	-93.436	-0.103	0.029
-521.960	-31.290	-0.090	-0.051
-520.945	-200.000	0.003	0.233
-519.931	-87.802	0.039	-0.012
-518.916	389.907	-0.081	0.170
-517.902	-167.240	0.253	0.010
-516.887	-59.933	0.215	-0.092
-515.872	-30.582	-0.202	-0.115
-514.858	194.374	0.030	-0.045
-513.843	-55.500	0.157	-0.071
-512.829	-35.719	-0.110	0.060
-511.814	113.829	0.142	0.174
-510.799	-200.000	-0.038	0.339
-509.785	-29.616	0.199	0.114
-508.770	-106.459	-0.117	0.026
-507.756	46.352	-0.162	0.151
-506.741	136.841	-0.195	0.255
-505.726	-136.902	0.075	-0.009
-504.712	800.000	0.098	0.304
-503.697	30.804	0.214	-0.184
-502.683	80.930	-0.099	-0.107
-501.668	706.475	-0.065	0.173
-500.653	-104.052	-0.196	-0.046
-499.639	-200.000	0.003	0.235
-498.624	-59.195	-0.101	0.044
-497.610	-109.408	-0.129	0.027
-496.595	-106.725	-0.133	-0.030
-495.581	736.683	0.068	-0.184
-494.566	800.000	0.053	-0.154
-493.551	-176.515	0.095	-0.002
-492.537	40.153	0.150	0.135
-491.522	200.375	0.139	-0.214
-490.508	6.788	-0.151	-0.113
-489.493	627.603	0.089	0.225
-488.478	-83.077	0.334	-0.108
-487.464	-164.629	-0.409	0.019
-486.449	44.888	0.115	0.106
-485.435	339.435	-0.058	0.114
-484.420	800.000	-0.078	0.292
-483.405	-15.825	0.190	0.121
-482.391	92.404	0.075	0.084
-481.376	-20.097	-0.300	-0.185
-480.362	-14.511	-0.287	-0.185
-479.347	476.021	0.112	-0.253
-478.332	651.115	-0.085	0.217
-477.318	-200.000	0.015	0.099
-476.303	-66.286	-0.364	0.145
-475.289	117.416	0.081	-0.099
-474.274	213.639	-0.076	0.121
-473.259	479.741	0.087	0.197
-472.245	800.000	-0.058	-0.163
-471.230	19.179	-0.176	-0.142
-470.216	800.000	-0.074	0.284
-469.201	198.910	-0.090	0.138
-468.186	53.181	0.307	-0.295
-467.172	-6.606	-0.162	-0.111
-466.157	-37.209	-0.318	0.171
-465.143	-200.000	0.049	-0.248
-464.128	32.350	0.062	-0.053
-463.113	-63.544	-0.219	-0.090
-462.099	297.777	-0.022	-0.041
-461.084	123.004	0.138	-0.173
-460.070	-125.932	-0.092	-0.014
-459.055	-163.117	0.235	-0.011
-458.040	-73.428	0.133	0.049
-457.026	-200.000	0.005	0.252
-456.011	-28.939	-0.162	-0.093
-454.997	-200.000	-0.047	-0.235
-453.982	-200.000	0.026	-0.199
-452.968	-200.000	-0.015	-0.132
-451.953	260.781	-0.050	-0.086
-450.938	111.350	-0.084	-0.102
-449.924	565.384	-0.126	0.307
-448.909	-138.889	-0.346	0.038
-447.895	-128.748	-0.337	-0.048
-446.880	193.937	-0.063	-0.096
-445.865	-135.132	0.230	0.028
-444.851	-200.000	-0.065	-0.322
-443.836	183.869	0.111	-0.165
-442.822	-200.000	-0.054	-0.253
-441.807	168.450	-0.063	0.090
-440.792	-145.123	0.278	0.025
-439.778	-39.739	-0.351	-0.184
-438.763	472.059	-0.097	-0.219
-437.749	-43.228	-0.197	-0.100
-436.734	302.682	-0.045	0.084
-435.719	-200.000	-0.050	0.380
-434.705	-26.480	0.231	0.135
-433.690	-95.606	-0.199	-0.053
-432.676	49.642	0.077	0.072
-431.661	-71.097	0.130	-0.049
-430.646	-200.000	-0.017	0.239
-429.632	800.000	-0.019	0.079
-428.617	51.618	-0.444	-0.422
-427.603	-73.567	0.303	0.111
-426.588	-200.000	-0.003	0.013
-425.573	-28.965	0.095	0.054
-424.559	-3.320	-0.178	0.124
-423.544	-9.973	-0.096	-0.064
-422.530	-30.767	-0.216	-0.122
-421.515	213.313	-0.285	-0.450
-420.500	120.106	-0.153	0.190
-419.486	800.000	-0.057	-0.188
-418.471	800.000	-0.037	0.126
-417.457	-119.037	-0.281	-0.049
-416.442	800.000	0.040	-0.169
-415.428	-200.000	0.027	-0.271
-414.413	205.691	0.122	0.190
-413.398	-138.252	-0.081	-0.009
-412.384	33.756	-0.205	-0.178
-411.369	-200.000	0.002	0.224
-410.355	800.000	0.115	0.330
-409.340	-132.690	0.115	-0.015
-408.325	-133.003	-0.165	-0.021
-407.311	76.911	-0.121	0.128
-406.296	207.070	0.065	-0.101
-405.282	800.000	-0.066	0.275
-404.267	1.843	0.122	0.088
-403.252	26.074	-0.287	0.239
-402.238	19.172	-0.081	-0.065
-401.223	-110.321	0.091	0.019
-400.209	-149.421	-0.096	0.008
-399.194	-200.000	-0.003	0.054
-398.179	-200.000	-0.022	0.160
-397.165	76.613	0.225	0.238
-396.150	-74.489	0.090	-0.032
-395.136	-8.680	-0.282	0.189
-394.121	48.522	0.090	0.084
-393.106	-200.000	-0.040	-0.207
-392.092	-62.626	0.289	-0.120
-391.077	-200.000	0.025	-0.150
-390.063	-57.704	0.127	0.056
-389.048	254.527	-0.073	-0.126
-388.033	563.509	0.043	-0.105
-387.019	-79.678	-0.173	0.058
-386.004	800.000	-0.114	0.333
-384.990	354.167	-0.028	-0.055
-383.975	-87.031	0.328	0.100
-382.960	125.835	0.148	-0.187
-381.946	-157.613	-0.515	0.031
-380.931	395.910	0.090	-0.187
-379.917	-200.000	-0.011	0.224
-378.902	-25.622	0.316	-0.186
-377.888	-200.000	0.021	-0.212
-376.873	-200.000	-0.067	0.425
-375.858	-200.000	0.035	0.349
-374.844	-200.000	0.004	0.124
-373.829	-75.237	0.153	-0.055
-372.815	-25.932	0.194	-0.114
-371.800	-200.000	0.001	-0.084
-370.785	-72.473	0.294	-0.108
-369.771	-200.000	-0.026	-0.182
-368.756	351.417	0.038	0.076
-367.742	-200.000	-0.021	0.189
-366.727	-200.000	-0.014	0.259
-365.712	-103.990	-0.104	-0.024
-364.698	-200.000	0.031	0.391
-363.683	43.714	-0.176	-0.160
-362.669	-109.634	-0.180	-0.038
-361.654	-132.703	0.458	0.058
-360.639	-89.973	-0.177	0.052
-359.625	800.000	-0.096	0.334
-358.610	-27.415	0.313	0.181
-357.596	167.136	0.136	0.193
-356.581	800.000	-0.042	-0.136
-355.566	6.734	-0.137	0.102
-354.552	-144.175	0.222	0.021
-353.537	800.000	-0.049	0.153
-352.523	-200.000	-0.029	-0.255
-351.508	800.000	-0.010	0.028
-350.493	-182.133	-0.154	0.003
-349.479	-26.333	-0.029	0.017
-348.464	-145.793	-0.189	0.017
-347.450	-200.000	0.029	0.311
-346.435	-38.862	0.101	0.053
-345.420	-81.531	-0.196	-0.064
-344.406	-58.884	0.197	-0.085
-343.391	28.417	-0.098	-0.082
-342.377	-200.000	0.011	-0.053
-341.362	476.691	0.043	-0.097
-340.348	-9.225	-0.312	0.208
-339.333	-200.000	-0.036	-0.305
-338.318	26.087	0.218	0.181
-337.304	182.530	-0.086	0.127
-336.289	-161.674	-0.080	-0.004
-335.275	-125.570	-0.282	-0.043
-334.260	-24.353	0.179	-0.107
-333.245	659.650	-0.091	-0.233
-332.231	82.953	0.130	0.141
-331.216	-129.774	-0.273	0.037
-330.202	-46.450	-0.219	0.107
-329.187	-30.417	-0.248	-0.140
-328.172	-200.000	0.058	-0.338
-327.158	306.050	0.018	0.033
-326.143	800.000	-0.033	-0.102
-325.129	67.310	0.128	0.130
-324.114	274.533	-0.123	-0.217
-323.099	28.901	0.044	-0.037
-322.085	-84.547	0.149	-0.047
-321.070	-82.874	0.380	-0.122
-320.056	93.869	0.105	-0.119
-319.041	800.000	0.056	0.238
-318.026	81.082	-0.044	-0.047
-317.012	211.796	0.087	-0.137
-315.997	-38.927	0.130	-0.068
-314.983	65.107	0.054	0.054
-313.968	4.387	0.212	-0.155
-312.953	-38.883	-0.138	-0.072
-311.939	-118.843	-0.372	0.065
-310.924	-3.094	0.131	-0.091
-309.910	-200.000	-0.015	0.343
-308.895	-68.443	-0.182	-0.070
-307.880	-200.000	-0.011	0.255
-306.866	434.077	0.116	-0.251
-305.851	-52.000	0.268	-0.124
-304.837	-60.788	-0.098	0.041
-303.822	-200.000	-0.004	0.261
-302.807	-60.901	0.347	-0.146
-301.793	-200.000	0.000	0.013
-300.778	800.000	0.123	-0.436
-299.764	215.570	0.079	-0.125
-298.749	329.302	0.123	-0.236
-297.735	19.652	0.210	-0.168
-296.720	42.624	0.117	-0.106
-295.705	263.200	-0.119	-0.205
-294.691	-100.279	-0.127	0.031
-293.676	570.655	-0.048	-0.116
-292.662	-200.000	-0.009	0.105
-291.647	800.000	-0.020	0.068
-290.632	-200.000	0.024	-0.269
-289.618	-59.538	0.280	-0.120
-288.603	-50.408	-0.112	0.053
-287.589	-180.297	0.188	0.004
-286.574	-200.000	-0.009	0.052
-285.559	-200.000	0.012	0.100
-284.545	800.000	0.072	0.294
-283.530	-108.638	-0.054	0.012
-282.516	-101.865	0.226	-0.054
-281.501	-87.588	0.216	-0.065
-280.486	-121.448	-0.297	0.049
-279.472	305.298	0.091	0.169
-278.457	86.777	0.167	-0.184
-277.443	271.170	-0.106	-0.185
-276.428	800.000	-0.092	-0.324
-275.413	-2.930	0.430	0.298
-274.399	17.750	0.079	-0.063
-273.384	124.421	0.179	-0.224
-272.370	-126.029	0.205	0.031
-271.355	-97.923	-0.213	0.055
-270.340	176.689	0.194	0.280
-269.326	22.224	0.088	-0.071
-268.311	-165.766	0.528	-0.023
-267.297	-14.344	0.132	-0.084
-266.282	-38.955	0.372	-0.195
-265.267	196.149	0.221	-0.335
-264.253	-200.000	-0.019	0.165
-263.238	5.803	0.015	-0.011
-262.224	360.792	0.090	-0.179
-261.209	800.000	-0.115	0.316
-260.195	17.268	0.213	0.168
-259.180	-38.212	-0.157	-0.083
-258.165	131.114	-0.261	0.333
-257.151	3.466	-0.099	-0.072
-256.136	-200.000	0.003	0.311
-255.122	-103.440	-0.064	0.015
-254.107	40.465	-0.214	0.192
-253.092	800.000	0.094	0.351
-252.078	63.349	-0.147	-0.146
-251.063	-10.265	0.246	0.162
-250.049	699.303	0.152	-0.398
-249.034	21.815	0.259	-0.210
-248.019	95.955	0.046	-0.052
-247.005	-200.000	0.094	0.410
-245.990	-92.795	0.325	-0.090
-244.976	800.000	-0.053	0.206
-243.961	403.189	0.068	0.143
-242.946	-61.609	-0.466	-0.194
-241.932	53.445	-0.190	0.181
-240.917	-57.474	-0.171	0.075
-239.903	-21.903	0.336	-0.203
-238.888	-144.013	0.039	0.004
-237.873	-191.481	0.098	-0.001
-236.859	252.392	-0.169	0.285
-235.844	199.695	0.111	-0.169
-234.830	-85.325	0.186	-0.058
-233.815	485.157	-0.098	0.222
-232.800	608.746	-0.021	-0.052
-231.786	800.000	-0.229	-0.658
-230.771	-89.592	0.280	0.082
-229.757	-200.000	-0.065	0.307
-228.742	-200.000	0.086	0.519
-227.727	282.826	-0.123	0.219
-226.713	92.859	0.145	0.163
-225.698	-86.563	0.086	-0.026
-224.684	-88.112	0.133	-0.040
-223.669	-44.322	-0.134	-0.067
-222.655	88.683	0.136	-0.150
-221.640	-131.391	-0.392	0.052
-220.625	-100.125	0.210	-0.052
-219.611	-23.637	0.177	-0.105
-218.596	235.417	0.244	-0.400
-217.582	-138.393	-0.150	-0.016
-216.567	215.031	0.208	-0.327
-215.552	63.275	0.236	-0.235
-214.538	-151.012	0.092	-0.007
-213.523	-153.269	0.059	-0.004
-212.509	-115.862	0.140	0.026
-211.494	-38.953	0.176	-0.092
-210.479	-143.846	-0.172	-0.016
-209.465	39.350	-0.179	-0.159
-208.450	15.480	0.182	0.142
-207.436	366.342	0.113	0.225
-206.421	-200.000	0.023	0.106
-205.406	46.362	0.111	-0.102
-204.392	11.024	-0.039	-0.030
-203.377	48.932	0.100	-0.093
-202.363	-25.111	-0.172	0.101
-201.348	-151.322	-0.323	0.024
-200.333	-61.593	-0.100	0.041
-199.319	-153.336	0.072	0.005
-198.304	-87.294	0.156	0.047
-197.290	-200.000	-0.003	-0.070
-196.275	102.300	0.031	0.035
-195.260	-13.108	0.087	-0.056
-194.246	-200.000	-0.007	-0.167
-193.231	-200.000	-0.028	0.224
-192.217	109.657	-0.136	-0.162
-191.202	7.914	0.095	-0.071
-190.187	-103.228	0.107	-0.025
-189.173	106.647	-0.180	0.212
-188.158	117.393	-0.102	-0.124
-187.144	-200.000	-0.073	0.402
-186.129	-32.624	-0.071	-0.039
-185.114	800.000	0.091	-0.314
-184.100	-200.000	-0.054	-0.402
-183.085	120.791	0.243	0.299
-182.071	55.179	0.198	-0.190
-181.056	17.984	0.253	-0.200
-180.042	-90.098	-0.111	-0.032
-179.027	-132.404	-0.060	-0.008
-178.012	-139.280	0.175	-0.019
-176.998	-200.000	-0.048	0.465
-175.983	800.000	-0.078	0.281
-174.969	-200.000	-0.001	0.679
-173.954	105.177	0.092	0.107
-172.939	800.000	0.106	0.317
-171.925	-3.926	-0.096	0.066
-170.910	-200.000	-0.040	-0.187
-169.896	-11.430	0.036	-0.023
-168.881	53.967	0.103	-0.098
-167.866	-200.000	-0.021	-0.115
-166.852	-155.224	-0.440	-0.028
-165.837	58.293	0.099	0.096
-164.823	800.000	-0.158	0.443
-163.808	-53.375	-0.122	-0.055
-162.793	-47.220	-0.114	-0.055
-161.779	-200.000	-0.028	-0.291
-160.764	-38.632	-0.285	-0.149
-159.750	-48.630	-0.060	0.028
-158.735	147.187	-0.074	-0.099
-157.720	-200.000	0.024	-0.230
-156.706	800.000	0.049	-0.206
-155.691	-95.843	0.151	-0.040
-154.677	235.463	0.064	-0.104
-153.662	800.000	-0.056	-0.235
-152.647	-200.000	0.095	0.498
-151.633	174.466	-0.116	-0.166
-150.618	-104.421	0.312	-0.072
-149.604	-200.000	0.005	0.454
-148.589	50.867	-0.316	0.296
-147.574	269.669	0.222	0.385
-146.560	-33.235	-0.160	0.088
-145.545	800.000	-0.088	-0.331
-144.531	33.089	-0.132	-0.113
-143.516	-200.000	-0.016	0.217
-142.502	-89.235	0.206	0.060
-141.487	-37.200	0.074	-0.039
-140.472	-142.025	-0.347	-0.034
-139.458	-144.809	0.179	0.016
-138.443	-140.789	-0.428	-0.044
-137.429	-124.702	0.088	0.014
-136.414	-111.152	0.135	0.027
-135.399	140.758	-0.180	0.235
-134.385	394.605	-0.181	0.374
-133.370	-66.072	-0.341	-0.135
-132.356	394.451	-0.149	0.307
-131.341	93.850	-0.065	-0.073
-130.326	-200.000	0.044	-0.279
-129.312	-167.123	0.279	-0.011
-128.297	409.818	-0.043	-0.090
-127.283	230.542	0.097	-0.158
-126.268	-200.000	-0.018	0.340
-125.253	-92.911	0.140	0.039
-124.239	-200.000	-0.046	0.254
-123.224	-27.370	-0.163	0.094
-122.210	33.215	0.266	0.228
-121.195	-0.912	0.213	0.149
-120.180	8.907	0.056	0.042
-119.166	-23.596	0.339	0.201
-118.151	-46.636	-0.183	0.089
-117.137	176.493	-0.096	0.138
-116.122	-90.330	-0.040	0.012
-115.107	83.389	0.229	0.247
-114.093	271.830	0.156	-0.271
-113.078	251.464	-0.077	-0.129
-112.064	-200.000	-0.011	0.299
-111.049	133.325	0.154	0.196
-110.034	-200.000	-0.038	0.287
-109.020	104.829	-0.216	0.251
-108.005	-69.583	-0.117	-0.044
-106.991	-19.500	0.293	0.179
-105.976	-200.000	0.047	0.327
-104.962	800.000	-0.027	-0.103
-103.947	235.422	-0.104	0.169
-102.932	-60.035	0.430	-0.182
-101.918	-177.775	-0.145	0.003
-100.903	15.730	0.468	0.364
-99.889	-32.164	0.087	-0.048
-98.874	800.000	0.118	0.334
-97.859	-19.532	-0.187	-0.114
-96.845	15.065	-0.167	-0.129
-95.830	-200.000	0.008	-0.054
-94.816	-200.000	-0.003	-0.204
-93.801	-200.000	-0.034	-0.236
-92.786	-103.304	0.331	-0.077
-91.772	800.000	-0.044	0.129
-90.757	-60.645	0.227	0.095
-89.743	106.273	-0.173	-0.203
-88.728	-48.593	0.238	0.113
-87.713	732.133	0.085	0.225
-86.699	800.000	-0.027	0.098
-85.684	-49.211	-0.177	0.084
-84.670	-115.377	0.250	-0.047
-83.655	-65.795	-0.112	0.044
-82.640	-79.509	-0.374	-0.125
-81.626	-172.815	0.345	-0.011
-80.611	71.992	0.371	-0.381
-79.597	-200.000	0.025	0.110
-78.582	800.000	-0.121	0.396
-77.567	-182.833	0.220	0.004
-76.553	25.324	0.144	-0.118
-75.538	-200.000	-0.028	0.238
-74.524	-153.654	0.101	0.007
-73.509	404.484	0.065	-0.136
-72.494	107.497	-0.238	0.279
-71.480	-15.178	0.324	0.205
-70.465	-66.945	-0.108	-0.042
-69.451	-46.349	-0.154	0.074
-68.436	-16.442	-0.156	0.097
-67.422	50.723	-0.165	-0.154
-66.407	-84.875	-0.029	0.009
-65.392	-200.000	-0.107	0.592
-64.378	504.578	0.043	-0.099
-63.363	75.160	-0.225	-0.234
-62.349	800.000	0.048	0.171
-61.334	-14.997	-0.882	-0.558
-60.319	-73.905	0.722	0.259
-59.305	800.000	-0.302	-1.057
-58.290	392.543	0.535	1.097
-57.276	322.921	0.617	1.159
-56.261	-200.000	97.649	588.295
-55.246	599.191	1436.779	3515.020
-54.232	182.229	2641.457	3838.513
-53.217	118.067	2215.864	2692.961
-52.203	43.104	1743.864	1568.953
-51.188	35.535	1554.612	1345.839
-50.173	33.161	1527.151	1305.647
-49.159	53.015	1576.438	1487.407
-48.144	54.391	1594.485	1514.015
-47.130	35.757	1553.230	1345.987
-46.115	32.641	1538.134	1311.211
-45.100	32.454	1534.816	1307.033
-44.086	32.507	1532.889	1305.706
-43.071	32.472	1531.107	1303.892
-42.057	32.266	1529.776	1301.286
-41.042	32.408	1528.048	1300.745
-40.027	32.446	1526.537	1299.668
-39.013	32.430	1525.148	1298.323
-37.998	32.307	1524.427	1296.812
-36.984	32.457	1522.790	1296.396
-35.969	32.433	1521.261	1294.881
-34.954	32.384	1520.028	1293.441
-33.940	32.376	1518.848	1292.333
-32.925	32.385	1517.554	1291.244
-31.911	32.375	1516.061	1289.850
-30.896	32.500	1513.993	1288.898
-29.881	32.613	1512.553	1288.390
-28.867	32.550	1511.254	1286.807
-27.852	32.448	1510.436	1285.363
-26.838	32.325	1509.219	1283.438
-25.823	32.421	1507.270	1282.379
-24.809	32.467	1505.134	1280.825
-23.794	32.438	1504.040	1279.645
-22.779	32.486	1502.719	1278.795
-21.765	32.385	1501.882	1277.349
-20.750	32.470	1500.390	1276.609
-19.736	32.419	1499.440	1275.404
-18.721	32.301	1498.824	1274.027
-17.706	32.358	1497.688	1273.400
-16.692	32.367	1496.437	1272.344
-15.677	32.364	1495.666	1271.618
-14.663	32.380	1494.203	1270.428
-13.648	32.416	1493.226	1269.790
-12.633	32.378	1491.979	1268.427
-11.619	32.329	1491.698	1267.808
-10.604	32.342	1491.037	1267.281
-9.590	32.252	1490.340	1266.033
-8.575	32.388	1488.925	1265.698
-7.560	32.347	1488.055	1264.632
-6.546	32.373	1486.628	1263.540
-5.531	32.254	1486.613	1262.680
-4.517	32.350	1485.308	1262.164
-3.502	32.244	1484.094	1260.375
-2.487	32.398	1482.900	1260.337
-1.473	32.299	1481.883	1258.761
-0.458	32.445	1480.142	1258.208
0.556	33.036	1471.712	1249.776
1.571	30.873	1446.228	1213.949
2.586	27.918	1384.882	1143.880
3.600	26.307	1301.661	1065.555
4.615	24.429	1254.848	1016.461
5.629	20.517	1195.393	946.941
6.644	11.678	1107.977	832.783
7.659	4.915	1066.932	768.595
8.673	3.921	1061.402	759.666
9.688	4.019	1058.300	757.856
10.702	3.780	1057.490	756.040
11.717	4.051	1054.908	755.448
12.731	6.395	1057.579	768.751
13.746	14.700	1068.945	817.772
14.761	20.129	1076.443	850.135
15.775	19.974	1074.770	847.977
16.790	19.160	1072.893	842.440
17.804	18.075	1070.483	835.176
18.819	17.152	1068.540	829.083
19.834	16.831	1067.280	826.467
20.848	16.411	1066.591	823.815
21.863	16.303	1065.704	822.526
22.877	16.083	1064.813	820.699
23.892	15.945	1064.390	819.627
24.907	15.817	1063.602	818.326
25.921	15.981	1062.120	817.911
26.936	15.902	1062.022	817.375
27.950	15.866	1060.775	816.170
28.965	15.879	1059.877	815.469
29.980	16.043	1058.409	815.062
30.994	16.150	1057.334	814.678
32.009	16.137	1056.375	813.803
33.023	16.157	1055.992	813.536
34.038	16.283	1055.034	813.334
35.053	16.002	1054.600	811.574
36.067	16.030	1052.908	810.330
37.082	15.986	1052.471	809.714
38.096	16.054	1051.608	809.307
39.111	16.086	1050.815	808.774
40.126	16.141	1049.712	808.121
41.140	16.077	1048.709	806.967
42.155	15.889	1047.597	805.143
43.169	15.795	1046.720	803.947
44.184	15.725	1045.190	802.367
45.199	15.741	1044.175	801.596
46.213	15.622	1043.843	800.703
47.228	15.849	1042.544	800.714
48.242	15.786	1041.707	799.703
49.257	15.835	1041.043	799.354
50.271	16.059	1039.362	799.052
51.286	16.039	1038.831	798.480
52.301	16.078	1037.744	797.757
53.315	16.049	1037.160	797.101
54.330	16.024	1036.483	796.392
55.344	15.716	1035.767	794.316
56.359	15.792	1034.306	793.487
57.374	15.819	1033.704	793.082
58.388	15.810	1033.042	792.462
59.403	15.804	1031.885	791.475
60.417	15.779	1031.048	790.643
61.432	15.612	1030.976	789.736
62.447	15.582	1030.151	788.895
63.461	15.593	1029.047	788.029
64.476	15.598	1027.909	787.111
65.490	15.601	1026.908	786.288
66.505	15.598	1026.133	785.610
67.520	15.655	1025.533	785.348
68.534	15.614	1025.000	784.678
69.549	15.673	1023.795	783.964
70.563	15.736	1022.917	783.516
71.578	15.587	1022.460	782.401
72.593	15.572	1021.313	781.384
73.607	15.490	1020.174	780.062
74.622	15.420	1019.513	779.163
75.636	15.479	1018.379	778.501
76.651	15.405	1017.646	777.532
77.666	15.529	1017.197	777.694
78.680	15.493	1016.487	776.915
79.695	15.530	1015.899	776.569
80.709	15.556	1015.505	776.318
81.724	15.628	1014.419	775.751
82.739	15.813	1013.687	775.974
83.753	15.730	1013.116	775.086
84.768	15.880	1012.405	775.165
85.782	15.984	1011.919	775.204
86.797	16.232	1010.803	775.420
87.812	16.155	1009.850	774.267
88.826	15.988	1009.145	772.892
89.841	15.903	1008.675	772.075
90.855	16.003	1007.351	771.448
91.870	16.065	1006.731	771.189
92.884	16.171	1006.226	771.220
93.899	16.095	1005.894	770.550
94.914	16.131	1004.705	769.734
95.928	16.128	1004.234	769.293
96.943	16.261	1003.010	768.895
97.957	16.085	1002.654	767.752
98.972	16.062	1001.528	766.715
99.987	16.095	1001.176	766.528
101.001	16.017	1000.464	765.561
102.016	16.104	999.756	765.348
103.030	16.154	998.145	764.271
104.045	16.120	997.667	763.685
105.060	16.097	996.782	762.836
106.074	16.123	995.347	761.785
107.089	16.068	994.501	760.825
108.103	15.809	993.622	758.919
109.118	15.579	993.137	757.443
110.133	15.640	991.999	756.781
111.147	15.636	990.883	755.847
112.162	15.534	990.035	754.674
113.176	15.528	989.236	753.972
114.191	15.585	988.932	753.928
115.206	15.772	987.852	753.877
116.220	15.716	987.033	752.933
117.235	15.704	986.063	752.073
118.249	15.668	985.082	751.096
119.264	15.762	984.071	750.681
120.279	15.801	983.054	750.013
121.293	15.747	982.624	749.376
122.308	15.654	981.820	748.283
123.322	15.694	980.580	747.450
124.337	15.457	979.779	745.719
125.352	15.611	978.186	745.125
126.366	15.512	977.458	744.065
127.381	15.501	976.594	743.293
128.395	15.576	975.842	742.986
129.410	15.608	974.567	742.092
130.424	15.741	973.796	742.027
131.439	15.667	972.971	741.005
132.454	15.774	972.334	740.928
133.468	15.923	971.304	740.732
134.483	15.822	971.400	740.294
135.497	15.750	970.452	739.188
136.512	15.810	969.875	738.951
137.527	15.740	969.205	738.067
138.541	15.881	967.842	737.583
139.556	15.868	967.050	736.854
140.570	15.680	966.942	735.883
141.585	15.879	966.021	735.988
142.600	16.053	965.250	736.095
143.614	15.999	964.444	735.182
144.629	16.223	963.476	735.353
145.643	16.163	962.995	734.661
146.658	16.071	962.220	733.603
147.673	16.111	961.112	732.867
148.687	16.012	960.109	731.609
149.702	15.922	959.018	730.322
150.716	15.980	958.114	729.819
151.731	15.840	957.644	728.793
152.746	15.696	957.282	727.829
153.760	15.908	955.848	727.592
154.775	15.783	955.731	726.898
155.789	15.934	955.017	726.939
156.804	15.882	954.153	725.997
157.819	15.965	953.029	725.433
158.833	16.081	952.453	725.427
159.848	16.187	952.340	725.733
160.862	16.245	951.538	725.308
161.877	16.304	950.210	724.487
162.892	15.938	949.851	722.578
163.906	15.870	948.633	721.297
164.921	15.950	947.889	721.008
165.935	15.852	946.772	719.677
166.950	15.786	946.024	718.763
167.964	15.996	945.037	718.847
168.979	16.148	943.631	718.360
169.994	15.945	942.865	716.850
171.008	15.868	942.563	716.228
172.023	15.954	941.784	715.939
173.037	16.251	940.994	716.534
174.052	16.139	940.533	715.648
175.067	16.227	939.300	715.019
176.081	16.028	938.748	713.691
177.096	15.868	937.717	712.166
178.110	15.873	937.222	711.749
179.125	16.039	935.745	711.267
180.140	16.156	935.167	711.256
181.154	16.019	934.581	710.171
182.169	16.011	934.517	710.028
183.183	16.281	933.691	710.473
184.198	16.408	932.933	710.364
185.213	16.313	932.125	709.290
186.227	16.230	931.766	708.604
187.242	16.168	931.700	708.231
188.256	16.379	930.816	708.382
189.271	16.522	929.544	707.949
190.286	16.451	929.068	707.225
191.300	16.382	927.885	705.976
192.315	16.028	927.061	703.807
193.329	15.867	926.364	702.546
194.344	15.917	925.642	702.145
195.359	15.988	925.475	702.249
196.373	16.066	925.309	702.389
197.388	16.117	924.420	701.862
198.402	16.473	924.060	703.006
199.417	16.434	923.749	702.546
200.432	16.566	922.941	702.420
201.446	16.531	922.911	702.190
202.461	16.660	922.399	702.274
203.475	16.608	922.169	701.820
204.490	16.767	920.515	701.155
205.504	16.605	920.117	700.123
206.519	16.505	919.060	698.841
207.534	16.393	918.785	698.109
208.548	16.510	917.726	697.726
209.563	16.625	917.124	697.679
210.577	16.495	916.234	696.404
211.592	16.501	916.153	696.305
212.607	16.511	915.761	695.990
213.621	16.704	914.833	696.015
214.636	16.665	914.268	695.364
215.650	16.655	913.904	694.985
216.665	16.687	913.026	694.387
217.680	16.667	912.551	693.881
218.694	16.873	912.007	694.251
219.709	16.761	911.196	693.113
220.723	16.885	910.846	693.294
221.738	16.913	909.709	692.482
222.753	16.783	909.348	691.612
223.767	16.715	908.614	690.718
224.782	16.778	907.782	690.278
225.796	16.913	907.092	690.245
226.811	16.988	905.947	689.616
227.826	16.996	905.794	689.471
228.840	16.873	904.814	688.164
229.855	16.886	904.200	687.690
230.869	16.849	903.932	687.276
231.884	16.847	903.094	686.569
232.899	16.748	902.495	685.650
233.913	16.687	901.792	684.811
234.928	16.792	901.028	684.593
235.942	16.775	900.169	683.813
236.957	16.570	899.988	682.785
237.972	16.601	899.098	682.176
238.986	16.646	898.339	681.721
240.001	16.728	897.554	681.395
241.015	16.649	896.863	680.494
242.030	16.773	896.540	680.684
243.045	16.702	896.070	679.982
244.059	16.868	895.517	680.169
245.074	16.888	894.597	679.492
246.088	16.913	893.969	679.055
247.103	16.950	893.325	678.651
248.117	17.087	892.700	678.665
249.132	17.194	892.108	678.585
250.147	17.254	891.972	678.658
251.161	17.455	891.301	678.889
252.176	17.383	890.958	678.282
253.190	17.510	890.171	678.129
254.205	17.518	889.193	677.356
255.220	17.544	888.945	677.209
256.234	17.461	888.139	676.208
257.249	17.533	887.845	676.209
258.263	17.509	887.157	675.530
259.278	17.583	886.559	675.309
260.293	17.592	885.910	674.788
261.307	17.682	885.245	674.578
262.322	17.647	885.108	674.277
263.336	17.661	884.218	673.594
264.351	17.713	883.930	673.520
265.366	17.626	883.874	673.076
266.380	17.804	882.292	672.512
267.395	17.722	881.849	671.790
268.409	17.723	880.958	671.059
269.424	17.635	880.195	670.069
270.439	17.622	879.538	669.459
271.453	17.540	878.652	668.406
272.468	17.603	877.736	667.896
273.482	17.635	877.203	667.558
274.497	17.517	876.750	666.692
275.512	17.588	876.226	666.513
276.526	17.502	875.352	665.453
277.541	17.557	874.537	664.989
278.555	17.558	874.052	664.563
279.570	17.700	873.429	664.586
280.585	17.790	873.234	664.729
281.599	17.790	872.906	664.421
282.614	17.883	871.555	663.695
283.628	17.599	871.721	662.658
284.643	17.803	870.524	662.482
285.657	17.653	870.046	661.478
286.672	17.840	869.804	661.961
287.687	17.773	868.884	660.942
288.701	17.823	868.556	660.827
289.716	17.936	868.022	660.800
290.730	17.814	867.239	659.673
291.745	17.847	866.877	659.469
292.760	17.705	866.448	658.535
293.774	17.809	865.684	658.296
294.789	18.002	865.196	658.612
295.803	18.015	864.347	657.956
296.818	17.936	863.967	657.306
297.833	17.997	862.878	656.654
298.847	18.005	862.159	656.079
299.862	17.882	861.623	655.142
300.876	17.926	861.235	654.959
301.891	18.020	860.375	654.605
302.906	18.035	859.652	654.054
303.920	18.244	858.941	654.254
304.935	18.098	858.612	653.388
305.949	18.243	858.109	653.500
306.964	18.289	857.065	652.823
307.979	18.153	856.681	651.956
308.993	18.237	856.493	652.074
310.008	18.098	856.100	651.188
311.022	18.270	855.307	651.182
312.037	18.345	854.725	650.966
313.052	18.254	853.889	649.928
314.066	18.106	853.533	649.037
315.081	18.081	852.677	648.232
316.095	18.032	852.194	647.623
317.110	18.007	851.601	647.022
318.125	18.142	850.946	646.976
319.139	18.097	850.471	646.388
320.154	18.197	850.114	646.437
321.168	18.087	849.465	645.469
322.183	18.224	848.720	645.364
323.197	18.235	848.395	645.101
324.212	18.231	848.037	644.759
325.227	18.308	846.994	644.198
326.241	18.359	846.851	644.224
327.256	18.128	846.547	643.066
328.270	18.274	845.565	642.811
329.285	18.139	845.506	642.204
330.300	18.090	844.565	641.246
331.314	18.158	843.970	640.994
332.329	18.185	843.556	640.725
333.343	18.155	843.186	640.273
334.358	18.354	842.019	640.077
335.373	18.410	842.037	640.240
336.387	18.375	841.496	639.644
337.402	18.458	840.602	639.216
338.416	18.517	839.864	638.818
339.431	18.606	839.813	639.054
340.446	18.727	839.140	638.936
341.460	18.690	838.751	638.447
342.475	18.747	838.315	638.271
343.489	18.731	837.480	637.518
344.504	18.818	836.737	637.219
345.519	18.876	836.297	637.043
346.533	18.913	836.021	636.912
347.548	18.893	835.676	636.521
348.562	18.893	834.581	635.630
349.577	18.662	834.516	634.669
350.592	18.661	833.625	633.932
351.606	18.532	833.115	633.010
352.621	18.513	832.975	632.778
353.635	18.572	832.359	632.473
354.650	18.703	832.182	632.765
355.665	18.594	831.514	631.798
356.679	18.692	831.179	631.850
357.694	18.694	830.856	631.556
358.708	18.676	829.914	630.716
359.723	18.717	828.991	630.110
360.738	18.816	828.934	630.374
361.752	18.727	828.458	629.631
362.767	18.844	827.898	629.579
363.781	18.875	827.792	629.555
364.796	18.972	827.108	629.336
365.810	18.909	826.793	628.808
366.825	19.180	826.208	629.298
367.840	19.074	826.109	628.780
368.854	19.143	825.601	628.589
369.869	19.147	825.010	628.098
370.883	19.065	824.268	627.180
371.898	19.069	823.808	626.790
372.913	19.026	823.342	626.222
373.927	19.186	822.576	626.166
374.942	19.196	822.137	625.811
375.956	19.237	821.183	625.178
376.971	19.332	820.715	625.112
377.986	19.239	820.173	624.308
379.000	19.378	819.783	624.459
380.015	19.421	819.386	624.259
381.029	19.251	818.911	623.226
382.044	19.335	818.437	623.114
383.059	19.351	817.581	622.464
384.073	19.347	817.479	622.315
385.088	19.414	816.713	621.921
386.102	19.222	815.910	620.560
387.117	19.170	815.239	619.811
388.132	19.102	814.865	619.224
389.146	19.118	814.629	619.049
390.161	19.176	814.318	618.967
391.175	19.357	813.860	619.212
392.190	19.459	813.326	619.119
393.205	19.469	812.732	618.649
394.219	19.218	812.766	617.718
395.234	19.197	812.190	617.152
396.248	19.250	811.384	616.673
397.263	19.162	810.992	616.008
398.278	19.066	810.559	615.279
399.292	19.131	810.101	615.110
400.307	19.097	809.588	614.544
401.321	19.235	808.950	614.499
402.336	19.177	808.756	614.089
403.350	19.276	808.199	613.965
404.365	19.303	807.984	613.844
405.380	19.484	807.440	614.020
406.394	19.539	807.095	613.898
407.409	19.826	806.124	614.124
408.423	19.713	806.131	613.675
409.438	19.820	805.654	613.636
410.453	19.719	805.233	612.904
411.467	19.828	804.843	612.940
412.482	19.794	804.004	612.126
413.496	19.854	803.910	612.211
414.511	19.967	803.550	612.284
415.526	19.890	803.245	611.725
416.540	19.761	803.095	611.100
417.555	19.703	802.247	610.195
418.569	19.746	801.958	610.072
419.584	19.885	801.314	610.021
420.599	19.717	801.252	609.328
421.613	157.470	1370.026	1791.286
422.628	136.627	1452.940	1791.388
