DTS Sentinel unit serial number:	SN413079Multiplexer serial number:	ORYXHardware model number:	OX4-SRSoftware version number:	ORYX F/W v4.00 Oryx Data Collector v3.7.2.0data status	okinstallation	princeton_trtdifferential loss correction	single-endedforward channel	channel 3reverse channel	N/Adate	2019/09/15time	02:56:35forward acquisition time	60.00reverse acquisition time	0.00gamma	496.2192k internal	0.2323k external	0.2323temperature offset calibration	0.9968default loss term (dB/km)	0.3790temperature slope calibration	1.0000multiplexer offset coefficient	1.0000multiplexer slope coefficient	1.0000fibre end	0.00T internal ref (°C)	31.25T ext. ref 1 (°C)	4.58T ext. ref 2 (°C)	25.65length (m)	temperature (°C)	Stokes	anti-Stokes-747.200	565.815	0.079	-0.195
-746.185	486.408	-0.028	0.064
-745.171	-170.321	-0.145	0.005
-744.156	-15.464	-0.287	0.185
-743.142	402.863	0.063	0.134
-742.127	800.000	-0.087	0.269
-741.112	800.000	-0.048	-0.200
-740.098	-44.810	-0.184	0.093
-739.083	-183.528	-0.377	-0.007
-738.069	-14.702	-0.211	0.137
-737.054	302.323	-0.098	-0.184
-736.039	-200.000	-0.034	-0.267
-735.025	263.939	-0.095	-0.166
-734.010	800.000	-0.119	-0.339
-732.996	-112.466	-0.480	0.097
-731.981	7.609	-0.123	0.093
-730.966	-200.000	0.040	0.254
-729.952	-73.853	0.385	-0.141
-728.937	-9.995	-0.104	0.070
-727.923	-161.071	-0.300	0.016
-726.908	-19.600	0.082	-0.051
-725.894	122.024	0.182	-0.229
-724.879	-73.505	-0.474	-0.174
-723.864	-200.000	-0.001	-0.008
-722.850	-30.713	0.131	0.075
-721.835	-104.635	-0.633	-0.147
-720.821	-141.917	0.039	0.004
-719.806	-200.000	-0.005	-0.143
-718.791	50.565	0.282	0.269
-717.777	-61.385	-0.083	0.035
-716.762	-200.000	0.010	-0.066
-715.748	260.988	-0.172	0.301
-714.733	169.786	-0.098	-0.142
-713.718	1.489	0.023	-0.016
-712.704	-48.759	-0.091	0.044
-711.689	209.421	-0.097	-0.153
-710.675	55.133	0.234	-0.228
-709.660	-200.000	0.015	0.336
-708.645	-75.499	-0.197	-0.071
-707.631	-200.000	0.019	0.093
-706.616	175.203	0.058	-0.085
-705.602	21.660	0.074	0.061
-704.587	-127.095	-0.217	0.032
-703.572	-33.644	-0.070	-0.039
-702.558	-67.692	0.288	-0.114
-701.543	431.874	-0.078	-0.171
-700.529	137.776	0.179	0.237
-699.514	-59.595	-0.300	0.130
-698.499	-200.000	0.007	0.102
-697.485	-200.000	-0.005	0.071
-696.470	-52.735	0.173	0.080
-695.456	331.128	-0.086	0.167
-694.441	-114.407	0.250	-0.049
-693.426	-75.808	0.233	0.083
-692.412	-72.769	0.340	-0.126
-691.397	-69.529	0.307	0.119
-690.383	-122.200	-0.067	0.011
-689.368	800.000	0.084	-0.269
-688.354	525.157	-0.064	-0.151
-687.339	28.399	-0.076	0.065
-686.324	-148.669	-0.225	-0.018
-685.310	-159.816	0.519	0.029
-684.295	503.936	0.067	-0.156
-683.281	-97.273	-0.577	0.152
-682.266	-12.282	0.097	-0.064
-681.251	42.100	0.042	-0.038
-680.237	800.000	-0.130	-0.491
-679.222	-200.000	0.018	-0.244
-678.208	67.861	-0.043	0.045
-677.193	-82.310	0.213	-0.070
-676.178	-200.000	0.013	0.096
-675.164	479.730	0.074	0.169
-674.149	-200.000	0.003	0.017
-673.135	59.169	-0.121	-0.120
-672.120	-200.000	0.080	0.000
-671.105	130.675	-0.202	-0.260
-670.091	130.108	0.034	0.043
-669.076	-31.961	-0.213	-0.120
-668.062	-7.753	-0.248	-0.169
-667.047	800.000	-0.016	0.065
-666.032	60.724	-0.126	-0.126
-665.018	-200.000	-0.086	-0.448
-664.003	524.178	-0.012	0.029
-662.989	-49.199	0.122	0.059
-661.974	-48.557	0.134	0.065
-660.959	-137.830	-0.142	0.016
-659.945	-163.000	0.130	0.006
-658.930	-200.000	0.018	-0.248
-657.916	444.397	-0.079	0.174
-656.901	-200.000	0.029	0.149
-655.886	-166.646	-0.047	-0.002
-654.872	-200.000	0.131	0.599
-653.857	161.583	0.136	0.191
-652.843	244.645	-0.082	0.139
-651.828	37.269	0.092	0.082
-650.814	-200.000	-0.002	-0.243
-649.799	800.000	-0.078	-0.218
-648.784	133.092	0.084	-0.109
-647.770	69.693	0.139	0.144
-646.755	-189.365	-0.176	-0.002
-645.741	-168.436	-0.339	-0.013
-644.726	-200.000	0.021	-0.196
-643.711	-69.684	-0.169	0.065
-642.697	-83.806	-0.215	0.069
-641.682	-130.795	0.405	0.055
-640.668	645.188	0.053	-0.136
-639.653	-0.020	0.196	-0.141
-638.638	-36.652	0.033	-0.018
-637.624	800.000	0.032	-0.091
-636.609	-88.308	0.285	0.086
-635.595	-80.782	-0.216	0.072
-634.580	413.421	0.043	0.091
-633.565	25.556	0.124	-0.104
-632.551	-179.593	-0.311	0.007
-631.536	-50.541	-0.157	0.074
-630.522	-200.000	-0.014	0.078
-629.507	-154.968	0.243	-0.016
-628.492	-86.402	0.281	0.087
-627.478	800.000	0.113	-0.454
-626.463	33.706	-0.190	0.166
-625.449	-51.176	0.188	-0.089
-624.434	60.294	-0.137	0.136
-623.419	-33.614	-0.160	0.089
-622.405	800.000	-0.096	-0.416
-621.390	78.972	0.188	0.203
-620.376	484.734	0.044	0.100
-619.361	16.663	0.270	0.214
-618.346	-200.000	0.005	-0.033
-617.332	-29.803	-0.312	0.179
-616.317	-54.498	0.106	0.048
-615.303	110.717	-0.228	-0.276
-614.288	-186.562	-0.415	0.006
-613.273	452.067	-0.061	-0.135
-612.259	-26.101	-0.234	-0.138
-611.244	773.113	-0.037	-0.101
-610.230	-140.104	-0.380	-0.040
-609.215	-79.068	-0.332	0.113
-608.201	-154.110	0.263	0.018
-607.186	-57.814	-0.157	0.069
-606.171	-167.854	0.274	-0.011
-605.157	-117.527	-0.222	-0.040
-604.142	224.579	0.212	0.345
-603.128	800.000	0.068	-0.296
-602.113	-200.000	0.011	0.137
-601.098	800.000	0.015	-0.052
-600.084	-76.497	-0.242	0.086
-599.069	-37.117	0.095	0.051
-598.055	800.000	-0.078	-0.235
-597.040	-200.000	0.068	-0.310
-596.025	69.427	-0.031	0.032
-595.011	-7.252	-0.222	-0.151
-593.996	-28.657	0.327	-0.189
-592.982	-96.163	0.262	0.070
-591.967	-62.679	-0.125	0.052
-590.952	800.000	-0.047	-0.134
-589.938	227.038	0.240	-0.392
-588.923	-110.752	-0.130	-0.027
-587.909	647.201	-0.075	0.192
-586.894	390.228	-0.068	-0.141
-585.879	-62.061	0.358	-0.150
-584.865	-111.333	0.338	-0.069
-583.850	-130.538	-0.186	0.025
-582.836	-109.627	0.401	0.085
-581.821	-92.139	-0.244	-0.069
-580.806	-73.495	0.126	0.046
-579.792	296.076	-0.047	0.086
-578.777	-160.438	0.511	0.028
-577.763	800.000	0.037	-0.117
-576.748	558.076	0.086	0.209
-575.733	160.242	0.025	-0.035
-574.719	-9.054	-0.315	-0.212
-573.704	-87.826	-0.209	-0.063
-572.690	28.499	0.028	0.024
-571.675	-200.000	0.001	0.034
-570.661	-31.913	0.099	0.055
-569.646	-200.000	0.002	-0.048
-568.631	-128.460	0.241	-0.034
-567.617	-123.870	-0.563	-0.089
-566.602	266.003	0.080	-0.140
-565.588	-120.096	0.087	0.015
-564.573	-200.000	0.026	0.242
-563.558	-196.922	-0.340	0.002
-562.544	800.000	0.078	0.277
-561.529	-92.913	0.319	-0.089
-560.515	101.252	-0.101	-0.118
-559.500	-200.000	-0.014	-0.295
-558.485	526.040	-0.029	-0.068
-557.471	29.524	-0.238	0.203
-556.456	-200.000	-0.008	0.142
-555.442	276.705	-0.126	0.225
-554.427	-71.585	-0.259	-0.097
-553.412	800.000	0.019	0.056
-552.398	240.845	-0.198	-0.331
-551.383	237.163	0.113	-0.187
-550.369	-171.490	-0.353	-0.012
-549.354	249.310	0.086	-0.146
-548.339	-56.562	0.327	0.145
-547.325	800.000	-0.052	0.172
-546.310	-29.752	0.194	0.111
-545.296	-71.487	0.181	-0.068
-544.281	-23.109	-0.134	0.081
-543.266	244.914	-0.087	0.146
-542.252	-133.153	-0.187	-0.024
-541.237	-200.000	0.008	-0.309
-540.223	-35.099	0.212	-0.116
-539.208	-137.985	0.060	-0.007
-538.193	-167.370	-0.045	-0.002
-537.179	48.232	-0.215	0.202
-536.164	311.359	0.087	0.163
-535.150	-175.256	0.204	0.006
-534.135	369.334	0.019	0.039
-533.121	129.272	-0.073	0.093
-532.106	-55.698	-0.109	0.049
-531.091	171.628	-0.114	0.164
-530.077	800.000	0.050	0.194
-529.062	182.980	-0.111	0.164
-528.048	800.000	0.012	-0.041
-527.033	-200.000	-0.029	0.261
-526.018	160.467	-0.073	0.102
-525.004	197.454	0.221	-0.337
-523.989	698.413	0.069	-0.183
-522.975	-200.000	-0.008	-0.122
-521.960	-200.000	-0.008	0.046
-520.945	414.353	-0.098	-0.209
-519.931	-75.613	-0.293	0.104
-518.916	-200.000	-0.018	-0.197
-517.902	800.000	-0.073	-0.216
-516.887	-200.000	-0.139	-0.722
-515.872	37.638	0.129	-0.114
-514.858	196.240	-0.196	0.298
-513.843	357.368	-0.024	-0.048
-512.829	800.000	-0.034	0.119
-511.814	-142.897	0.205	-0.020
-510.799	290.770	-0.143	-0.261
-509.785	-200.000	0.005	-0.029
-508.770	-200.000	0.008	0.290
-507.756	312.076	-0.144	-0.271
-506.741	249.225	0.055	-0.093
-505.726	17.224	-0.204	-0.162
-504.712	-88.576	0.161	0.048
-503.697	-106.057	-0.166	-0.037
-502.683	800.000	-0.091	0.282
-501.668	-144.586	-0.210	0.019
-500.653	-132.411	-0.353	-0.046
-499.639	247.614	-0.109	-0.184
-498.624	-1.644	-0.140	-0.099
-497.610	-71.918	0.047	-0.017
-496.595	680.346	0.100	-0.261
-495.581	-56.245	0.184	0.082
-494.566	311.077	0.123	-0.230
-493.551	-200.000	0.030	0.161
-492.537	-32.120	-0.225	-0.126
-491.522	144.662	0.166	-0.222
-490.508	-118.417	-0.325	0.058
-489.493	34.441	0.181	0.158
-488.478	52.404	0.181	0.173
-487.464	-200.000	0.049	-0.398
-486.449	-114.403	0.213	0.041
-485.435	-37.641	-0.269	0.143
-484.420	40.720	0.190	-0.171
-483.405	-130.844	0.046	-0.006
-482.391	76.391	-0.083	0.087
-481.376	-200.000	-0.028	-0.209
-480.362	-63.014	0.220	-0.091
-479.347	100.653	0.074	0.086
-478.332	-200.000	-0.037	-0.220
-477.318	220.196	0.133	-0.213
-476.303	-83.542	0.156	-0.050
-475.289	89.461	-0.216	0.241
-474.274	94.577	-0.094	-0.107
-473.259	-200.000	-0.024	0.133
-472.245	-168.624	0.078	-0.003
-471.230	127.058	0.088	0.111
-470.216	-92.594	0.139	0.039
-469.201	241.288	0.094	0.157
-468.186	380.197	-0.138	-0.282
-467.172	800.000	-0.037	0.113
-466.157	627.364	0.081	0.204
-465.143	397.134	0.117	-0.244
-464.128	-87.979	0.517	-0.155
-463.113	302.302	-0.214	0.395
-462.099	753.934	-0.070	0.188
-461.084	71.968	0.165	0.172
-460.070	93.209	0.160	0.181
-459.055	117.333	-0.122	-0.150
-458.040	-60.327	-0.263	0.112
-457.026	-200.000	-0.024	0.221
-456.011	-60.568	-0.042	0.018
-454.997	-200.000	-0.017	-0.230
-453.982	-153.407	-0.295	-0.020
-452.968	29.115	-0.199	0.169
-451.953	680.312	-0.114	-0.297
-450.938	800.000	-0.064	0.188
-449.924	74.135	-0.111	-0.116
-448.909	148.163	0.078	0.105
-447.895	207.853	-0.126	0.197
-446.880	-113.146	0.136	-0.027
-445.865	27.082	0.233	-0.195
-444.851	-200.000	0.006	-0.350
-443.836	-80.571	0.241	0.080
-442.822	133.039	-0.117	-0.151
-441.807	117.500	-0.250	-0.307
-440.792	408.848	0.081	0.171
-439.778	294.275	0.025	-0.046
-438.763	800.000	0.028	-0.097
-437.749	-99.556	-0.282	-0.071
-436.734	-138.821	-0.136	0.015
-435.719	-200.000	-0.002	0.011
-434.705	800.000	0.069	-0.214
-433.690	435.573	-0.036	-0.077
-432.676	-89.632	-0.278	0.081
-431.661	-200.000	-0.029	-0.198
-430.646	2.252	0.241	0.174
-429.632	-167.554	-0.298	-0.012
-428.617	127.751	-0.185	-0.234
-427.603	136.480	-0.064	-0.083
-426.588	800.000	0.017	0.059
-425.573	800.000	-0.078	-0.279
-424.559	-39.662	-0.148	-0.077
-423.544	-161.604	0.058	0.003
-422.530	-106.888	0.309	0.068
-421.515	374.701	0.108	0.220
-420.500	800.000	0.052	0.195
-419.486	-122.553	0.089	-0.014
-418.471	-137.745	-0.135	0.015
-417.457	595.535	-0.058	0.143
-416.442	29.461	0.176	0.149
-415.428	-86.154	0.285	-0.088
-414.413	-15.348	-0.185	0.118
-413.398	275.608	-0.140	-0.247
-412.384	800.000	-0.093	0.290
-411.369	-135.003	-0.234	0.028
-410.355	161.902	-0.147	-0.205
-409.340	11.245	-0.252	0.192
-408.325	-200.000	-0.012	0.227
-407.311	60.496	0.102	-0.101
-406.296	-200.000	-0.102	0.540
-405.282	800.000	0.070	-0.234
-404.267	21.310	-0.101	0.082
-403.252	298.307	0.146	0.268
-402.238	-200.000	-0.009	-0.131
-401.223	-84.405	-0.219	0.069
-400.209	-94.271	0.306	0.083
-399.194	800.000	0.042	0.174
-398.179	800.000	0.051	0.193
-397.165	-79.057	0.233	0.079
-396.150	559.513	-0.128	-0.308
-395.136	-80.240	-0.127	-0.042
-394.121	428.511	-0.112	0.241
-393.106	-43.480	-0.215	-0.108
-392.092	-200.000	0.024	-0.183
-391.077	-136.926	0.178	-0.020
-390.063	800.000	0.110	0.339
-389.048	81.540	0.140	-0.151
-388.033	443.504	-0.061	0.134
-387.019	800.000	0.049	-0.150
-386.004	-116.575	-0.019	-0.003
-384.990	496.296	0.124	0.285
-383.975	102.404	0.056	-0.065
-382.960	-119.972	-0.275	0.047
-381.946	800.000	0.087	-0.337
-380.931	-200.000	0.021	-0.144
-379.917	-121.963	0.119	0.020
-378.902	-36.526	-0.284	0.152
-377.888	258.275	0.051	0.088
-376.873	-30.986	-0.297	0.167
-375.858	66.987	0.170	-0.172
-374.844	26.925	-0.183	0.153
-373.829	-98.660	-0.134	0.034
-372.815	800.000	0.056	-0.161
-371.800	-200.000	-0.037	-0.250
-370.785	-33.206	0.221	-0.122
-369.771	-8.974	0.396	0.264
-368.756	127.328	0.161	-0.204
-367.742	600.697	0.054	-0.133
-366.727	800.000	0.117	-0.451
-365.712	119.275	-0.215	-0.265
-364.698	48.828	-0.029	-0.027
-363.683	185.622	-0.066	0.098
-362.669	307.524	-0.198	-0.368
-361.654	-163.986	0.257	-0.012
-360.639	-200.000	0.063	0.474
-359.625	-113.297	-0.277	-0.054
-358.610	-5.558	0.141	-0.097
-357.596	130.868	-0.196	-0.250
-356.581	-82.282	-0.239	0.077
-355.566	-122.593	-0.055	0.009
-354.552	-200.000	-0.048	0.253
-353.537	-94.623	0.245	0.066
-352.523	167.229	-0.120	-0.170
-351.508	178.558	0.225	-0.327
-350.493	21.523	0.238	0.193
-349.479	800.000	0.061	-0.224
-348.464	24.659	-0.216	-0.178
-347.450	15.791	-0.208	0.163
-346.435	-20.754	0.422	0.258
-345.420	235.181	-0.117	-0.193
-344.406	-86.301	0.370	0.113
-343.391	118.659	-0.116	0.143
-342.377	271.969	0.050	0.087
-341.362	11.914	0.421	0.322
-340.348	-81.089	0.309	-0.102
-339.333	-117.393	-0.340	-0.061
-338.318	-104.406	-0.267	0.061
-337.304	99.211	0.047	-0.054
-336.289	-200.000	0.005	-0.176
-335.275	-200.000	-0.029	-0.276
-334.260	162.889	-0.067	-0.094
-333.245	800.000	-0.038	-0.131
-332.231	-61.121	0.293	-0.123
-331.216	82.944	-0.110	0.119
-330.202	800.000	0.083	0.339
-329.187	-69.111	-0.269	0.103
-328.172	141.358	0.089	-0.118
-327.158	9.393	0.153	0.115
-326.143	800.000	0.048	-0.132
-325.129	183.057	0.130	0.191
-324.114	582.676	0.014	0.035
-323.099	-35.184	-0.171	0.092
-322.085	746.663	-0.074	0.198
-321.070	-91.062	0.054	-0.015
-320.056	118.772	-0.266	0.326
-319.041	-24.631	0.081	0.048
-318.026	-11.585	-0.079	-0.051
-317.012	-126.772	0.192	-0.028
-315.997	-200.000	0.015	0.180
-314.983	-68.162	0.046	-0.018
-313.968	-200.000	-0.044	-0.288
-312.953	-200.000	0.023	-0.207
-311.939	-123.069	-0.209	-0.033
-310.924	78.772	0.279	-0.297
-309.910	-149.528	0.411	0.032
-308.895	-131.700	-0.132	0.017
-307.880	-81.009	-0.437	-0.144
-306.866	-97.778	-0.092	0.024
-305.851	-200.000	-0.003	0.150
-304.837	-200.000	0.005	-0.283
-303.822	476.292	0.079	0.176
-302.807	-50.635	0.157	0.074
-301.793	25.697	0.103	-0.085
-300.778	283.646	-0.125	0.223
-299.764	-122.656	0.080	-0.013
-298.749	800.000	-0.027	0.092
-297.735	-112.465	0.339	0.067
-296.720	-200.000	0.038	0.270
-295.705	-97.206	-0.061	-0.016
-294.691	-23.338	0.316	-0.189
-293.676	434.402	0.129	0.278
-292.662	-168.943	0.131	0.005
-291.647	-151.984	-0.477	-0.035
-290.632	-148.039	-0.312	-0.026
-289.618	-92.916	-0.351	-0.097
-288.603	574.268	0.095	-0.230
-287.589	-103.080	0.271	-0.064
-286.574	100.327	0.176	0.203
-285.559	-29.815	0.172	0.097
-284.545	241.195	-0.156	0.258
-283.530	258.438	-0.036	-0.062
-282.516	219.883	0.161	0.256
-281.501	-200.000	0.003	0.161
-280.486	-200.000	-0.022	0.293
-279.472	161.690	0.052	-0.073
-278.457	-6.606	-0.262	-0.177
-277.443	-125.838	-0.081	-0.012
-276.428	800.000	-0.062	0.253
-275.413	90.681	-0.143	-0.159
-274.399	-89.229	0.262	0.077
-273.384	-200.000	0.001	0.346
-272.370	-90.997	-0.143	-0.041
-271.355	140.356	0.109	0.143
-270.340	160.870	-0.048	0.067
-269.326	293.984	-0.092	0.166
-268.311	-157.845	0.400	-0.023
-267.297	-10.865	-0.199	0.130
-266.282	-23.485	0.128	-0.076
-265.267	490.864	0.092	0.209
-264.253	-57.397	-0.250	0.109
-263.238	171.871	0.078	-0.111
-262.224	39.846	0.367	0.327
-261.209	-25.946	0.297	0.173
-260.195	800.000	-0.055	0.179
-259.180	2.167	-0.376	0.269
-258.165	-17.126	0.160	-0.100
-257.151	277.447	0.074	0.130
-256.136	243.777	0.014	0.024
-255.122	-200.000	0.032	0.228
-254.107	253.803	0.083	-0.141
-253.092	-78.098	0.039	-0.013
-252.078	-35.156	0.160	-0.086
-251.063	800.000	-0.083	-0.340
-250.049	20.049	-0.273	-0.218
-249.034	142.569	0.148	-0.195
-248.019	-26.124	0.128	-0.075
-247.005	-130.523	0.197	0.026
-245.990	403.326	0.076	-0.159
-244.976	20.417	0.065	-0.052
-243.961	146.598	-0.207	0.276
-242.946	-105.059	0.275	0.062
-241.932	-125.186	-0.130	0.020
-240.917	14.733	-0.078	0.061
-239.903	498.077	-0.052	0.119
-238.888	39.780	0.037	-0.033
-237.873	385.788	0.095	0.194
-236.859	-105.628	0.219	-0.049
-235.844	44.586	-0.026	-0.023
-234.830	163.991	0.136	-0.189
-233.815	0.143	-0.115	0.081
-232.800	-95.147	-0.083	-0.022
-231.786	-82.556	0.141	-0.045
-230.771	-43.455	-0.021	-0.011
-229.757	79.975	0.134	0.142
-228.742	-200.000	0.009	0.276
-227.727	32.813	-0.075	0.064
-226.713	-200.000	0.027	0.368
-225.698	-200.000	0.034	0.246
-224.684	-130.892	0.344	-0.046
-223.669	65.270	0.045	-0.045
-222.655	39.152	-0.218	-0.193
-221.640	-32.218	0.078	-0.043
-220.625	110.815	-0.217	0.258
-219.611	36.381	0.278	-0.243
-218.596	5.898	0.238	0.174
-217.582	-31.239	-0.143	-0.080
-216.567	-52.823	0.321	-0.146
-215.552	-136.841	-0.054	-0.006
-214.538	-81.760	0.246	-0.080
-213.523	800.000	0.086	0.272
-212.509	-200.000	-0.016	0.201
-211.494	-29.160	-0.257	-0.146
-210.479	101.991	-0.103	0.118
-209.465	-21.995	-0.188	0.113
-208.450	61.691	-0.154	0.152
-207.436	-119.153	-0.328	-0.057
-206.421	-71.084	0.411	0.153
-205.406	324.813	-0.133	-0.251
-204.392	18.753	0.109	-0.086
-203.377	-200.000	-0.010	-0.153
-202.363	256.312	-0.136	-0.231
-201.348	-57.304	-0.214	-0.093
-200.333	-200.000	-0.077	0.401
-199.319	-8.377	0.149	-0.099
-198.304	254.360	-0.093	0.157
-197.290	231.948	-0.057	-0.093
-196.275	130.980	0.162	-0.206
-195.260	-200.000	0.064	0.367
-194.246	-28.922	-0.266	0.151
-193.231	81.369	0.151	0.161
-192.217	-200.000	0.033	-0.354
-191.202	800.000	0.079	-0.243
-190.187	800.000	-0.127	0.350
-189.173	-42.649	0.304	0.153
-188.158	-117.640	-0.030	0.005
-187.144	-90.466	0.355	-0.102
-186.129	-200.000	0.028	-0.160
-185.114	222.459	-0.071	0.113
-184.100	689.905	0.115	-0.298
-183.085	-200.000	0.021	0.130
-182.071	-160.912	-0.365	-0.019
-181.056	800.000	0.085	0.254
-180.042	304.717	0.064	0.118
-179.027	-148.398	-0.123	-0.010
-178.012	3.433	0.067	-0.048
-176.998	-156.309	0.042	0.003
-175.983	709.284	-0.117	0.306
-174.969	-200.000	-0.002	0.099
-173.954	800.000	-0.029	-0.083
-172.939	55.937	-0.122	-0.117
-171.925	172.735	0.042	0.059
-170.910	709.530	-0.139	-0.362
-169.896	411.993	0.134	0.281
-168.881	-200.000	-0.039	-0.176
-167.866	-200.000	0.038	0.455
-166.852	-75.791	-0.478	0.167
-165.837	-74.684	0.189	-0.067
-164.823	-111.383	-0.259	0.052
-163.808	-100.202	0.311	-0.076
-162.793	-200.000	-0.060	0.392
-161.779	-92.367	0.194	-0.054
-160.764	692.445	0.081	-0.209
-159.750	235.558	-0.037	0.061
-158.735	-155.073	-0.425	-0.027
-157.720	-70.991	0.312	-0.116
-156.706	177.919	0.061	-0.088
-155.691	-78.886	0.240	0.081
-154.677	800.000	-0.025	-0.105
-153.662	70.469	-0.153	-0.156
-152.647	800.000	0.149	-0.413
-151.633	800.000	0.048	-0.169
-150.618	183.842	-0.062	0.090
-149.604	136.789	0.143	0.184
-148.589	33.723	-0.071	-0.061
-147.574	-200.000	-0.006	-0.244
-146.560	27.940	0.228	-0.190
-145.545	120.012	0.122	-0.149
-144.531	-200.000	-0.058	0.316
-143.516	-149.908	0.381	-0.029
-142.502	-200.000	-0.000	-0.166
-141.487	-200.000	0.050	-0.344
-140.472	-61.302	-0.219	0.091
-139.458	177.906	0.330	0.475
-138.443	76.484	0.123	0.129
-137.429	-200.000	0.046	-0.413
-136.414	-113.625	0.091	-0.018
-135.399	209.256	-0.025	-0.038
-134.385	6.924	-0.381	-0.280
-133.370	234.506	-0.115	-0.187
-132.356	-76.591	-0.070	-0.024
-131.341	800.000	0.061	-0.244
-130.326	-102.796	0.400	0.094
-129.312	-200.000	0.039	0.258
-128.297	55.961	0.339	0.324
-127.283	-200.000	0.034	0.165
-126.268	131.536	-0.153	0.195
-125.253	800.000	0.033	0.097
-124.239	-200.000	-0.005	0.362
-123.224	155.961	-0.141	0.191
-122.210	57.654	-0.145	-0.140
-121.195	48.718	-0.055	-0.051
-120.180	-169.592	0.254	-0.009
-119.166	-171.054	0.372	0.012
-118.151	-58.113	0.227	0.098
-117.137	-200.000	0.002	0.277
-116.122	-171.800	-0.054	0.002
-115.107	235.453	0.152	0.247
-114.093	46.301	0.109	-0.100
-113.078	-96.144	-0.134	-0.035
-112.064	251.933	0.139	0.233
-111.049	186.240	-0.143	-0.210
-110.034	-127.804	0.241	-0.034
-109.020	800.000	0.067	0.215
-108.005	-3.099	0.252	0.173
-106.991	86.413	0.223	-0.242
-105.976	301.709	0.090	0.165
-104.962	-58.241	0.231	-0.099
-103.947	-200.000	0.011	0.063
-102.932	346.144	0.056	0.109
-101.918	-200.000	0.072	0.605
-100.903	89.260	0.234	-0.257
-99.889	175.636	0.048	-0.069
-98.874	54.573	-0.293	0.278
-97.859	16.873	0.122	0.095
-96.845	253.427	-0.133	-0.224
-95.830	113.692	-0.130	-0.156
-94.816	201.273	0.117	0.177
-93.801	255.359	-0.154	0.259
-92.786	-130.429	0.191	0.026
-91.772	146.419	-0.181	0.240
-90.757	-5.917	0.349	-0.235
-89.743	137.594	0.045	-0.058
-88.728	800.000	-0.067	-0.283
-87.713	368.387	-0.287	0.571
-86.699	14.381	0.146	-0.112
-85.684	-200.000	-0.011	0.061
-84.670	-10.448	-0.223	-0.145
-83.655	800.000	-0.012	-0.049
-82.640	-153.478	-0.106	0.007
-81.626	800.000	-0.086	0.303
-80.611	494.925	-0.082	-0.184
-79.597	-200.000	-0.063	-0.344
-78.582	800.000	-0.068	-0.252
-77.567	34.267	0.147	-0.126
-76.553	800.000	-0.048	0.136
-75.538	-29.110	-0.154	0.087
-74.524	800.000	0.110	0.407
-73.509	-76.407	0.301	-0.104
-72.494	-118.720	0.091	0.016
-71.480	-123.193	-0.319	0.050
-70.465	800.000	0.065	0.207
-69.451	463.201	0.089	0.196
-68.436	7.230	0.271	-0.199
-67.422	800.000	-0.012	-0.046
-66.407	-200.000	0.028	-0.328
-65.392	122.144	0.158	0.195
-64.378	385.824	0.031	-0.062
-63.363	800.000	-0.126	-0.379
-62.349	209.539	0.144	0.221
-61.334	192.532	-0.718	-1.066
-60.319	-62.847	0.661	0.269
-59.305	800.000	-0.335	-1.076
-58.290	239.462	0.710	1.163
-57.276	256.016	0.845	1.426
-56.261	-200.000	99.995	611.646
-55.246	598.070	1405.812	3426.195
-54.232	193.287	2585.682	3843.956
-53.217	118.373	2160.524	2620.243
-52.203	42.187	1698.163	1516.210
-51.188	34.559	1508.924	1295.655
-50.173	32.074	1482.497	1256.313
-49.159	52.589	1533.803	1439.870
-48.144	53.892	1551.872	1465.641
-47.130	34.646	1509.883	1296.866
-46.115	31.504	1494.877	1262.755
-45.100	31.350	1491.804	1259.068
-44.086	31.244	1489.960	1256.748
-43.071	31.246	1487.710	1254.813
-42.057	31.221	1485.960	1253.124
-41.042	31.320	1484.466	1252.478
-40.027	31.246	1483.281	1250.929
-39.013	31.237	1481.917	1249.670
-37.998	31.261	1480.294	1248.413
-36.984	31.174	1479.380	1247.010
-35.969	31.228	1477.628	1245.844
-34.954	31.183	1476.845	1244.834
-33.940	31.174	1475.742	1243.798
-32.925	31.266	1474.095	1242.972
-31.911	31.214	1472.621	1241.331
-30.896	31.242	1471.474	1240.504
-29.881	31.406	1469.967	1240.271
-28.867	31.396	1468.577	1238.983
-27.852	31.300	1467.092	1237.044
-26.838	31.388	1465.684	1236.389
-25.823	31.326	1464.376	1234.827
-24.809	31.346	1462.376	1233.226
-23.794	31.231	1461.431	1231.620
-22.779	31.272	1459.891	1230.542
-21.765	31.318	1459.068	1230.102
-20.750	31.399	1457.791	1229.512
-19.736	31.239	1456.768	1227.551
-18.721	31.315	1455.633	1227.043
-17.706	31.311	1454.417	1225.942
-16.692	31.303	1453.245	1224.852
-15.677	31.178	1452.314	1223.203
-14.663	31.238	1451.279	1222.674
-13.648	31.194	1450.750	1221.892
-12.633	31.199	1449.930	1221.184
-11.619	31.254	1448.583	1220.364
-10.604	31.196	1447.788	1219.264
-9.590	31.215	1446.997	1218.673
-8.575	31.239	1446.582	1218.433
-7.560	31.152	1445.225	1216.677
-6.546	31.166	1444.344	1215.977
-5.531	31.188	1443.725	1215.551
-4.517	31.235	1442.706	1214.953
-3.502	31.178	1441.500	1213.514
-2.487	31.191	1440.578	1212.777
-1.473	31.171	1439.387	1211.592
-0.458	31.178	1438.242	1210.627
0.556	29.798	1428.873	1199.449
1.571	26.721	1403.924	1158.756
2.586	23.281	1345.131	1089.018
3.600	21.674	1263.995	1013.946
4.615	20.247	1219.092	969.869
5.629	17.787	1163.433	912.363
6.644	10.744	1081.646	813.011
7.659	5.337	1043.460	758.075
8.673	4.665	1038.387	751.076
9.688	4.634	1035.398	748.697
10.702	4.528	1033.700	746.897
11.717	4.484	1031.992	745.382
12.731	6.387	1033.670	755.670
13.746	13.089	1042.339	794.273
14.761	18.075	1048.242	822.765
15.775	18.348	1047.633	823.526
16.790	17.338	1045.745	817.119
17.804	16.313	1043.420	810.312
18.819	15.302	1041.709	804.065
19.834	14.903	1040.500	801.150
20.848	14.608	1039.405	798.824
21.863	14.354	1038.629	796.943
22.877	14.142	1038.148	795.491
23.892	14.024	1037.224	794.148
24.907	13.933	1036.363	792.987
25.921	13.939	1035.644	792.393
26.936	13.963	1034.689	791.704
27.950	13.979	1033.610	790.887
28.965	13.988	1032.368	789.908
29.980	14.228	1031.459	790.286
30.994	14.208	1030.287	789.219
32.009	14.252	1029.551	788.795
33.023	14.470	1028.781	789.165
34.038	14.241	1028.427	787.744
35.053	14.155	1027.375	786.459
36.067	14.081	1026.510	785.379
37.082	14.071	1025.670	784.620
38.096	14.200	1024.919	784.583
39.111	14.226	1024.146	784.048
40.126	14.324	1023.200	783.713
41.140	14.245	1021.944	782.309
42.155	13.994	1021.139	780.446
43.169	13.892	1020.127	779.124
44.184	13.786	1019.019	777.712
45.199	13.879	1017.669	777.050
46.213	13.851	1016.740	776.141
47.228	13.960	1015.862	775.912
48.242	14.056	1015.087	775.700
49.257	14.122	1013.924	775.048
50.271	14.122	1013.168	774.401
51.286	14.091	1012.425	773.619
52.301	14.146	1011.713	773.266
53.315	14.094	1010.972	772.390
54.330	13.964	1010.283	771.192
55.344	13.910	1009.370	770.173
56.359	13.837	1008.328	768.971
57.374	13.956	1007.631	768.925
58.388	13.996	1006.580	768.238
59.403	13.992	1005.559	767.373
60.417	13.882	1005.099	766.445
61.432	13.931	1004.196	765.918
62.447	13.878	1003.445	765.034
63.461	13.850	1002.825	764.363
64.476	13.852	1001.648	763.409
65.490	13.690	1001.230	762.276
66.505	13.792	1000.287	761.961
67.520	13.827	999.292	761.295
68.534	13.849	998.903	761.031
69.549	13.852	997.629	760.006
70.563	13.863	997.225	759.684
71.578	13.913	996.499	759.289
72.593	13.824	995.556	758.101
73.607	13.808	994.426	757.100
74.622	13.750	993.536	756.091
75.636	13.736	992.758	755.367
76.651	13.743	992.306	754.987
77.666	13.766	991.412	754.343
78.680	13.670	990.416	753.084
79.695	13.681	990.520	753.146
80.709	13.771	989.999	753.091
81.724	13.803	989.067	752.462
82.739	13.871	988.133	751.994
83.753	14.003	987.219	751.828
84.768	13.979	986.874	751.389
85.782	14.095	986.178	751.320
86.797	14.262	985.480	751.476
87.812	14.220	984.518	750.484
88.826	14.006	983.707	748.837
89.841	14.075	982.862	748.437
90.855	14.220	981.924	748.309
91.870	14.174	981.411	747.645
92.884	14.282	980.502	747.372
93.899	14.286	979.777	746.768
94.914	14.282	978.961	746.066
95.928	14.384	978.327	745.970
96.943	14.276	977.581	744.852
97.957	14.237	976.903	744.097
98.972	14.182	976.246	743.287
99.987	14.198	975.307	742.577
101.001	14.175	974.774	742.001
102.016	14.198	973.758	741.265
103.030	14.321	973.059	741.214
104.045	14.108	972.247	739.584
105.060	14.251	971.038	739.231
106.074	14.247	970.125	738.455
107.089	14.065	969.291	736.948
108.103	13.983	968.335	735.791
109.118	13.926	967.428	734.788
110.133	13.955	966.728	734.319
111.147	13.941	966.138	733.745
112.162	13.880	965.100	732.623
113.176	14.046	964.192	732.596
114.191	13.934	963.437	731.466
115.206	14.016	962.560	731.097
116.220	13.993	961.664	730.250
117.235	13.948	961.030	729.506
118.249	13.936	960.147	728.720
119.264	13.959	959.471	728.243
120.279	13.963	958.166	727.204
121.293	13.932	957.716	726.662
122.308	13.850	956.855	725.588
123.322	13.893	955.824	724.928
124.337	13.830	954.684	723.727
125.352	13.836	953.900	723.092
126.366	13.824	952.735	722.095
127.381	13.895	951.551	721.444
128.395	13.862	950.528	720.460
129.410	13.795	950.431	720.033
130.424	14.002	949.015	719.791
131.439	13.984	948.051	718.918
132.454	13.984	947.257	718.252
133.468	14.086	946.541	718.087
134.483	13.938	946.296	717.199
135.497	14.041	945.633	717.075
136.512	13.932	944.612	715.772
137.527	14.044	943.988	715.716
138.541	14.129	943.012	715.280
139.556	13.872	942.733	713.898
140.570	13.937	941.978	713.543
141.585	14.091	940.652	713.134
142.600	14.213	940.387	713.397
143.614	14.141	939.550	712.390
144.629	14.222	938.744	712.061
145.643	14.275	938.137	711.766
146.658	14.259	937.622	711.244
147.673	14.150	936.538	709.891
148.687	14.235	935.298	709.251
149.702	14.086	934.665	708.072
150.716	14.152	933.587	707.477
151.731	14.070	932.889	706.535
152.746	14.142	932.101	706.182
153.760	14.242	931.630	706.185
154.775	14.324	930.924	705.937
155.789	14.185	930.019	704.600
156.804	14.276	929.616	704.617
157.819	14.284	928.966	704.095
158.833	14.279	928.422	703.598
159.848	14.264	927.863	703.051
160.862	14.371	927.359	703.059
161.877	14.443	926.417	702.586
162.892	14.339	925.424	701.332
163.906	14.191	924.325	699.817
164.921	14.043	923.493	698.501
165.935	14.223	922.623	698.536
166.950	14.116	921.927	697.499
167.964	14.191	921.176	697.183
168.979	14.268	920.086	696.619
169.994	14.248	919.015	695.664
171.008	14.370	917.649	695.078
172.023	14.226	917.652	694.415
173.037	14.352	916.576	694.066
174.052	14.451	915.929	693.927
175.067	14.348	915.435	693.065
176.081	14.353	914.424	692.255
177.096	14.261	913.419	691.051
178.110	14.071	913.027	689.908
179.125	14.207	912.175	689.764
180.140	14.181	911.729	689.261
181.154	14.277	910.697	688.816
182.169	14.479	910.115	689.151
183.183	14.255	909.866	687.975
184.198	14.393	908.899	687.751
185.213	14.522	908.224	687.713
186.227	14.494	907.630	687.087
187.242	14.536	906.754	686.536
188.256	14.499	906.396	686.051
189.271	14.632	905.820	686.100
190.286	14.572	905.151	685.287
191.300	14.415	904.087	683.776
192.315	14.356	902.836	682.530
193.329	14.206	902.291	681.443
194.344	14.238	901.496	680.912
195.359	14.240	901.483	680.850
196.373	14.437	900.301	680.704
197.388	14.516	900.227	680.907
198.402	14.548	899.968	680.784
199.417	14.641	899.688	680.889
200.432	14.905	898.825	681.253
201.446	14.866	898.554	680.829
202.461	14.903	898.067	680.549
203.475	14.890	897.525	680.025
204.490	14.990	896.701	679.749
205.504	14.793	895.986	678.347
206.519	14.801	895.089	677.639
207.534	14.793	894.486	677.091
208.548	14.647	894.003	676.072
209.563	14.708	893.155	675.620
210.577	14.626	892.657	674.853
211.592	14.655	891.968	674.389
212.607	14.791	891.664	674.648
213.621	15.025	890.946	674.987
214.636	14.956	890.236	674.112
215.650	14.916	889.703	673.489
216.665	14.919	888.714	672.694
217.680	14.998	888.485	672.776
218.694	15.006	888.132	672.481
219.709	15.047	887.288	671.946
220.723	15.073	886.766	671.599
221.738	15.067	885.886	670.849
222.753	14.992	885.368	670.094
223.767	14.999	884.651	669.523
224.782	14.989	883.971	668.910
225.796	15.095	883.298	668.765
226.811	15.107	882.609	668.230
227.826	15.116	882.116	667.835
228.840	15.095	881.099	666.921
229.855	15.174	880.434	666.673
230.869	14.923	880.052	665.327
231.884	15.037	879.304	665.153
232.899	15.116	878.173	664.555
233.913	15.121	877.665	664.131
234.928	14.909	877.204	662.884
235.942	14.834	876.627	662.091
236.957	15.048	875.796	662.250
237.972	14.966	875.032	661.290
238.986	15.150	874.121	661.269
240.001	15.014	874.178	660.718
241.015	15.082	873.060	660.084
242.030	15.146	871.953	659.442
243.045	15.028	872.060	658.997
244.059	14.996	871.425	658.333
245.074	15.244	870.232	658.348
246.088	15.188	870.086	657.960
247.103	15.056	870.103	657.397
248.117	15.146	869.339	657.113
249.132	15.453	868.416	657.560
250.147	15.423	868.270	657.276
251.161	15.604	867.499	657.341
252.176	15.627	866.709	656.775
253.190	15.570	866.228	656.128
254.205	15.643	865.698	655.954
255.220	15.811	864.826	655.890
256.234	15.781	863.884	655.000
257.249	15.753	863.806	654.774
258.263	15.732	863.303	654.253
259.278	15.576	862.776	653.189
260.293	15.704	862.204	653.196
261.307	15.694	861.646	652.675
262.322	15.706	861.178	652.311
263.336	15.842	860.197	652.036
264.351	15.805	859.947	651.646
265.366	15.893	858.614	650.919
266.380	15.852	858.365	650.514
267.395	15.962	857.494	650.223
268.409	15.948	856.910	649.667
269.424	15.844	856.381	648.806
270.439	15.801	855.862	648.194
271.453	15.862	855.053	647.758
272.468	15.686	853.982	646.210
273.482	15.808	853.470	646.236
274.497	15.782	852.968	645.699
275.512	15.822	852.487	645.430
276.526	15.851	851.353	644.624
277.541	15.750	851.063	643.964
278.555	15.714	850.747	643.530
279.570	15.858	850.139	643.562
280.585	15.897	849.647	643.284
281.599	16.060	848.918	643.294
282.614	15.953	848.515	642.526
283.628	15.979	847.643	641.906
284.643	16.038	846.973	641.567
285.657	15.958	846.968	641.204
286.672	15.940	846.205	640.500
287.687	16.027	845.591	640.307
288.701	16.001	845.053	639.747
289.716	16.042	844.691	639.572
290.730	16.103	843.929	639.167
291.745	15.940	843.637	638.274
292.760	16.065	842.599	637.905
293.774	16.146	842.065	637.751
294.789	16.144	841.935	637.587
295.803	16.148	840.880	636.746
296.818	16.061	840.658	636.193
297.833	16.026	839.757	635.323
298.847	16.059	839.051	634.859
299.862	16.157	838.304	634.605
300.876	16.199	837.931	634.425
301.891	16.115	837.103	633.428
302.906	16.251	836.301	633.275
303.920	16.394	835.781	633.361
304.935	16.372	835.268	632.834
305.949	16.475	834.761	632.780
306.964	16.468	834.276	632.329
307.979	16.341	833.781	631.424
308.993	16.419	833.011	631.075
310.008	16.414	832.675	630.745
311.022	16.539	832.379	630.933
312.037	16.392	831.675	629.796
313.052	16.463	830.802	629.341
314.066	16.401	830.378	628.736
315.081	16.273	829.872	627.820
316.095	16.270	829.203	627.246
317.110	16.249	828.546	626.619
318.125	16.361	827.915	626.499
319.139	16.293	827.687	626.018
320.154	16.382	827.172	625.903
321.168	16.277	826.923	625.273
322.183	16.390	826.067	624.987
323.197	16.301	826.072	624.606
324.212	16.483	824.795	624.257
325.227	16.454	824.734	624.048
326.241	16.492	824.105	623.660
327.256	16.456	823.750	623.200
328.270	16.434	822.493	622.113
329.285	16.395	822.288	621.762
330.300	16.353	821.931	621.280
331.314	16.369	821.216	620.745
332.329	16.525	820.502	620.722
333.343	16.473	820.150	620.212
334.358	16.564	819.347	619.881
335.373	16.489	819.145	619.399
336.387	16.675	818.661	619.662
337.402	16.598	817.900	618.747
338.416	16.717	817.297	618.672
339.431	16.702	816.977	618.321
340.446	16.930	816.123	618.450
341.460	16.707	816.141	617.597
342.475	16.887	815.536	617.738
343.489	16.922	814.578	617.088
344.504	16.996	814.264	617.062
345.519	16.950	813.809	616.498
346.533	16.980	813.629	616.416
347.548	16.906	813.251	615.804
348.562	17.031	812.137	615.361
349.577	16.986	811.402	614.588
350.592	16.984	810.995	614.214
351.606	16.917	810.031	613.191
352.621	16.746	810.154	612.611
353.635	16.717	809.901	612.260
354.650	16.708	809.390	611.786
355.665	16.891	809.022	612.116
356.679	16.848	808.780	611.722
357.694	16.756	808.239	610.926
358.708	16.944	807.587	611.059
359.723	17.060	806.960	610.945
360.738	17.029	806.442	610.389
361.752	16.980	805.910	609.757
362.767	17.019	805.474	609.514
363.781	17.172	805.009	609.656
364.796	17.090	804.945	609.259
365.810	17.221	804.362	609.234
366.825	17.496	803.593	609.582
367.840	17.326	803.695	608.996
368.854	17.252	803.295	608.377
369.869	17.308	802.810	608.155
370.883	17.314	801.773	607.336
371.898	17.411	801.066	607.093
372.913	17.338	800.541	606.381
373.927	17.252	800.561	606.034
374.942	17.396	799.548	605.730
375.956	17.481	798.721	605.350
376.971	17.358	798.543	604.726
377.986	17.390	798.150	604.486
379.000	17.729	797.417	605.081
380.015	17.552	797.062	604.130
381.029	17.668	796.306	603.916
382.044	17.563	796.275	603.466
383.059	17.576	795.170	602.623
384.073	17.683	794.638	602.545
385.088	17.435	794.483	601.498
386.102	17.454	793.766	600.967
387.117	17.471	793.379	600.682
388.132	17.494	792.749	600.233
389.146	17.500	792.366	599.910
390.161	17.472	792.103	599.560
391.175	17.585	791.898	599.750
392.190	17.556	791.560	599.337
393.205	17.729	790.843	599.350
394.219	17.586	790.482	598.520
395.234	17.666	789.809	598.241
396.248	17.412	789.717	597.226
397.263	17.575	788.804	597.052
398.278	17.443	788.893	596.605
399.292	17.378	788.056	595.691
400.307	17.335	787.867	595.346
401.321	17.471	787.404	595.420
402.336	17.456	786.700	594.783
403.350	17.501	786.606	594.815
404.365	17.450	786.611	594.586
405.380	17.536	785.754	594.186
406.394	17.696	785.144	594.232
407.409	17.866	784.888	594.578
408.423	17.839	784.489	594.129
409.438	17.920	783.832	593.858
410.453	17.772	783.613	593.127
411.467	17.955	783.211	593.405
412.482	18.015	782.490	593.018
413.496	18.105	782.064	592.952
414.511	18.093	781.496	592.426
415.526	17.947	781.770	592.078
416.540	17.978	781.135	591.652
417.555	17.884	780.731	590.969
418.569	17.904	780.293	590.652
419.584	18.043	779.723	590.648
420.599	17.861	779.441	589.755
421.613	156.548	1369.649	1796.683
422.628	135.068	1455.638	1796.749
