DTS Sentinel unit serial number:	SN413079Multiplexer serial number:	ORYXHardware model number:	OX4-SRSoftware version number:	ORYX F/W v4.00 Oryx Data Collector v3.7.2.0data status	okinstallation	princeton_trtdifferential loss correction	single-endedforward channel	channel 3reverse channel	N/Adate	2019/09/12time	18:46:03forward acquisition time	15.00reverse acquisition time	0.00gamma	496.2192k internal	0.2318k external	0.2318temperature offset calibration	1.0097default loss term (dB/km)	0.3790temperature slope calibration	1.0000multiplexer offset coefficient	1.0000multiplexer slope coefficient	1.0000fibre end	0.00T internal ref (°C)	33.00T ext. ref 1 (°C)	2.97T ext. ref 2 (°C)	27.49length (m)	temperature (°C)	Stokes	anti-Stokes-747.200	136.592	0.109	0.144
-746.185	-200.000	-0.033	0.226
-745.171	-41.084	0.514	0.269
-744.156	18.871	0.210	0.171
-743.142	221.326	-0.282	-0.459
-742.127	-15.815	0.121	-0.078
-741.112	151.963	-0.241	-0.332
-740.098	-200.000	-0.026	0.332
-739.083	-200.000	-0.106	0.508
-738.069	57.181	0.597	0.589
-737.054	-1.958	-0.518	-0.368
-736.039	800.000	-0.144	0.533
-735.025	-64.593	-0.622	-0.255
-734.010	-26.309	0.155	-0.092
-732.996	-147.786	-0.863	-0.073
-731.981	-162.016	0.440	0.022
-730.966	30.813	-0.540	-0.468
-729.952	-57.964	0.296	-0.131
-728.937	-121.667	-0.365	0.061
-727.923	-35.301	-0.772	-0.425
-726.908	-140.809	-0.638	-0.066
-725.894	120.367	0.332	-0.417
-724.879	705.098	-0.335	-0.893
-723.864	-200.000	-0.006	0.166
-722.850	61.622	0.495	-0.499
-721.835	198.814	-0.479	0.741
-720.821	-165.441	0.406	-0.018
-719.806	522.590	-0.234	-0.556
-718.791	17.144	-0.167	0.134
-717.777	64.608	-0.287	-0.293
-716.762	-200.000	0.051	-0.708
-715.748	452.745	-0.301	-0.673
-714.733	-76.377	-0.589	0.210
-713.718	-1.881	-0.505	-0.359
-712.704	95.678	-0.142	0.164
-711.689	800.000	0.268	0.799
-710.675	-117.783	0.091	0.017
-709.660	-200.000	0.024	0.250
-708.645	-69.557	0.586	0.227
-707.631	-159.073	0.589	-0.034
-706.616	-106.951	-0.144	-0.032
-705.602	-9.116	0.426	-0.288
-704.587	36.074	-0.549	0.489
-703.572	-82.675	0.295	-0.097
-702.558	800.000	-0.166	-0.583
-701.543	-76.464	-1.000	-0.355
-700.529	-64.231	0.490	-0.202
-699.514	-18.522	-1.263	-0.797
-698.499	407.796	-0.412	0.881
-697.485	800.000	-0.042	-0.176
-696.470	-72.102	-0.423	-0.159
-695.456	-200.000	-0.158	-1.040
-694.441	-22.036	-0.621	-0.381
-693.426	157.858	0.495	-0.693
-692.412	117.199	-0.347	-0.431
-691.397	48.774	-0.808	0.766
-690.383	-106.099	-0.535	0.121
-689.368	-115.657	-0.737	-0.140
-688.354	238.443	0.158	0.265
-687.339	-12.364	-0.285	-0.188
-686.324	-117.214	1.373	0.252
-685.310	240.519	0.228	0.384
-684.295	-99.631	-0.490	-0.124
-683.281	-129.259	-0.273	-0.038
-682.266	-21.888	0.249	0.153
-681.251	-200.000	-0.010	-0.575
-680.237	629.832	0.156	0.398
-679.222	161.471	-0.319	0.451
-678.208	800.000	-0.353	-1.146
-677.193	61.166	0.270	-0.270
-676.178	800.000	-0.102	0.348
-675.164	-114.395	-0.123	0.024
-674.149	-200.000	-0.084	0.398
-673.135	-30.462	-0.739	-0.423
-672.120	48.730	0.292	0.277
-671.105	549.795	-0.219	0.531
-670.091	7.038	0.650	0.489
-669.076	800.000	-0.147	-0.581
-668.062	149.191	-0.113	-0.154
-667.047	-39.140	-0.235	-0.125
-666.032	418.337	-0.330	0.712
-665.018	-1.157	-0.380	0.271
-664.003	92.029	-0.474	-0.538
-662.989	142.146	-0.054	0.072
-661.974	-61.530	0.229	-0.097
-660.959	30.044	0.370	-0.319
-659.945	-52.851	0.531	0.247
-658.930	-200.000	-0.005	0.279
-657.916	181.250	0.221	0.327
-656.901	-114.753	0.248	-0.048
-655.886	-79.139	-0.367	-0.126
-654.872	59.822	0.321	0.320
-653.857	20.579	-0.386	-0.315
-652.843	614.031	0.131	0.331
-651.828	-95.852	-0.417	0.112
-650.814	464.607	-0.303	0.682
-649.799	50.328	-0.493	-0.469
-648.784	-200.000	-0.088	-0.899
-647.770	-200.000	0.012	-0.753
-646.755	584.629	-0.164	-0.405
-645.741	-116.895	0.272	-0.050
-644.726	-53.881	-0.538	-0.247
-643.711	14.297	0.390	-0.306
-642.697	-0.071	-0.458	-0.329
-641.682	48.456	-0.115	-0.109
-640.668	212.997	-0.254	-0.405
-639.653	-47.445	0.124	0.061
-638.638	71.094	-0.255	0.266
-637.624	-200.000	0.032	0.711
-636.609	613.408	0.293	-0.739
-635.595	441.401	-0.280	-0.618
-634.580	-200.000	-0.081	-0.366
-633.565	482.465	0.202	-0.462
-632.551	101.256	0.246	-0.289
-631.536	-111.668	0.622	-0.127
-630.522	800.000	0.105	-0.367
-629.507	-83.628	0.847	-0.273
-628.492	325.849	-0.400	0.771
-627.478	33.898	0.265	0.232
-626.463	-72.899	-0.351	0.130
-625.449	-162.692	-0.385	0.019
-624.434	477.364	0.195	0.443
-623.419	71.536	-0.347	0.363
-622.405	800.000	-0.070	0.298
-621.390	-35.686	-0.484	0.264
-620.376	-149.914	-0.264	-0.021
-619.361	125.087	-0.315	0.400
-618.346	-174.883	0.450	-0.013
-617.332	85.847	-0.554	0.614
-616.317	242.069	-0.170	-0.286
-615.303	-200.000	-0.015	0.704
-614.288	78.559	0.383	-0.412
-613.273	17.778	0.220	-0.177
-612.259	117.360	0.196	0.242
-611.244	-115.475	1.054	-0.200
-610.230	-66.531	-0.965	0.385
-609.215	-139.358	-1.023	0.111
-608.201	210.995	0.101	-0.160
-607.186	185.189	-0.211	-0.316
-606.171	21.823	0.244	0.200
-605.157	-149.260	0.787	0.063
-604.142	71.137	-0.427	-0.446
-603.128	-200.000	-0.037	0.375
-602.113	-76.227	-0.369	0.131
-601.098	-14.899	0.291	0.188
-600.084	-166.805	0.272	-0.011
-599.069	312.814	-0.248	-0.470
-598.055	425.523	0.131	-0.284
-597.040	64.739	0.670	-0.680
-596.025	74.923	0.157	0.167
-595.011	636.761	0.269	0.687
-593.996	7.244	0.528	-0.396
-592.982	77.794	0.501	-0.537
-591.967	-58.631	0.540	-0.236
-590.952	66.757	0.102	-0.105
-589.938	-200.000	-0.010	0.427
-588.923	64.305	-0.184	0.186
-587.909	-79.089	0.291	0.099
-586.894	-200.000	-0.031	0.344
-585.879	-97.984	0.508	-0.132
-584.865	-200.000	-0.051	-0.247
-583.850	643.959	0.209	0.536
-582.836	-38.627	-0.369	0.196
-581.821	-67.355	0.564	0.223
-580.806	52.388	-0.423	-0.406
-579.792	-82.224	-0.868	-0.284
-578.777	-116.036	0.376	-0.070
-577.763	-50.841	-0.761	0.360
-576.748	-108.474	-0.861	0.186
-575.733	284.100	-0.176	0.319
-574.719	800.000	-0.148	-0.428
-573.704	-200.000	-0.005	0.740
-572.690	-200.000	0.073	0.592
-571.675	-80.317	0.402	-0.135
-570.661	-200.000	-0.008	-0.314
-569.646	-50.232	0.417	0.198
-568.631	273.062	-0.085	-0.151
-567.617	-200.000	0.025	0.234
-566.602	711.181	0.181	0.480
-565.588	-104.441	-0.448	-0.104
-564.573	-72.530	0.413	0.153
-563.558	-13.319	0.587	-0.383
-562.544	-107.067	-0.144	-0.032
-561.529	11.925	0.285	-0.220
-560.515	800.000	0.118	0.439
-559.500	-200.000	-0.165	0.764
-558.485	-174.467	-0.493	0.014
-557.471	-200.000	0.059	-0.409
-556.456	67.048	0.387	0.396
-555.442	77.914	0.245	0.263
-554.427	-200.000	0.069	-1.100
-553.412	-122.477	0.828	0.135
-552.398	627.969	0.162	-0.411
-551.383	-200.000	0.002	-0.134
-550.369	448.817	0.202	0.447
-549.354	33.611	-0.301	0.263
-548.339	-91.669	-0.197	-0.056
-547.325	-200.000	-0.133	0.621
-546.310	95.642	0.228	0.261
-545.296	-107.454	-0.465	-0.102
-544.281	-121.519	-0.409	-0.068
-543.266	33.408	-0.027	0.023
-542.252	-200.000	0.043	0.612
-541.237	-200.000	-0.036	0.707
-540.223	-137.727	0.212	-0.024
-539.208	119.231	0.372	-0.462
-538.193	-200.000	0.005	0.412
-537.179	800.000	0.165	-0.695
-536.164	93.857	-0.434	0.494
-535.150	-185.055	-0.224	0.004
-534.135	-18.674	0.194	-0.121
-533.121	340.555	0.108	-0.211
-532.106	48.184	-0.385	-0.362
-531.091	-74.659	-0.554	-0.200
-530.077	-86.339	-0.727	0.224
-529.062	-117.241	0.184	-0.034
-528.048	450.940	0.178	0.394
-527.033	36.896	-0.411	-0.364
-526.018	225.008	0.170	-0.276
-525.004	390.408	-0.369	-0.769
-523.989	-121.870	0.241	0.040
-522.975	-200.000	-0.072	-0.455
-521.960	-140.365	0.762	-0.080
-520.945	-200.000	0.070	0.879
-519.931	-84.230	-0.587	-0.187
-518.916	90.115	0.097	-0.109
-517.902	-132.620	-0.971	-0.125
-516.887	484.515	0.318	-0.726
-515.872	759.738	0.302	-0.820
-514.858	70.102	0.097	-0.101
-513.843	4.565	0.573	0.422
-512.829	800.000	0.215	0.816
-511.814	-200.000	-0.011	1.010
-510.799	48.323	-0.391	0.367
-509.785	-35.161	-0.438	-0.239
-508.770	-13.493	-0.498	0.323
-507.756	-200.000	0.034	0.274
-506.741	-19.221	0.699	-0.435
-505.726	800.000	-0.162	-0.471
-504.712	34.871	-0.248	0.218
-503.697	219.254	-0.189	-0.302
-502.683	800.000	-0.204	-0.661
-501.668	10.977	0.383	-0.294
-500.653	113.388	0.263	0.320
-499.639	2.096	-0.235	-0.170
-498.624	-105.176	0.609	-0.139
-497.610	-37.063	-0.230	0.123
-496.595	-200.000	0.025	-0.517
-495.581	800.000	0.288	0.866
-494.566	41.189	0.506	0.458
-493.551	-168.810	-0.240	-0.009
-492.537	-110.531	-0.312	-0.065
-491.522	149.053	0.539	0.730
-490.508	131.213	0.298	-0.383
-489.493	0.522	0.388	0.278
-488.478	25.219	-0.325	0.270
-487.464	5.721	0.079	-0.059
-486.449	-46.410	0.363	0.179
-485.435	-124.013	0.347	0.055
-484.420	800.000	0.147	0.567
-483.405	800.000	0.143	-0.575
-482.391	7.785	0.190	0.143
-481.376	-68.606	-0.423	0.164
-480.362	11.307	-0.249	-0.191
-479.347	404.710	0.225	-0.475
-478.332	177.846	0.126	0.184
-477.318	42.880	0.462	-0.422
-476.303	113.448	0.358	0.435
-475.289	-63.948	-0.337	0.138
-474.274	-105.173	0.491	0.112
-473.259	-164.793	-0.483	-0.022
-472.245	-98.403	0.817	0.209
-471.230	-107.261	0.771	-0.170
-470.216	215.180	-0.208	-0.330
-469.201	64.733	-0.088	-0.089
-468.186	19.556	-0.390	-0.314
-467.172	-28.283	0.496	-0.287
-466.157	-200.000	-0.091	0.586
-465.143	-83.431	-0.808	0.259
-464.128	36.671	-0.574	0.507
-463.113	92.813	-0.181	0.204
-462.099	-10.000	0.257	-0.171
-461.084	47.891	-0.278	0.260
-460.070	-133.704	0.264	0.033
-459.055	234.600	-0.223	0.368
-458.040	-153.019	-0.590	0.042
-457.026	-147.098	0.577	0.049
-456.011	414.548	-0.098	0.210
-454.997	800.000	-0.145	-0.404
-453.982	199.668	0.466	0.715
-452.968	137.476	0.449	-0.588
-451.953	-65.049	-0.553	0.223
-450.938	-61.133	-0.548	0.231
-449.924	101.595	-0.178	-0.208
-448.909	140.559	0.413	-0.545
-447.895	168.392	-0.371	-0.529
-446.880	304.655	-0.108	0.201
-445.865	-200.000	0.110	0.505
-444.851	336.712	-0.455	-0.885
-443.836	463.697	0.140	0.312
-442.822	48.520	-0.593	-0.556
-441.807	-200.000	-0.105	0.790
-440.792	-139.917	0.267	0.028
-439.778	88.596	0.296	-0.330
-438.763	-200.000	-0.121	0.643
-437.749	800.000	-0.059	0.177
-436.734	12.895	-0.562	-0.434
-435.719	284.519	0.373	-0.672
-434.705	-128.046	0.665	0.095
-433.690	-89.747	0.286	-0.084
-432.676	121.478	-0.425	-0.529
-431.661	-200.000	-0.009	0.326
-430.646	200.269	0.350	0.538
-429.632	-137.149	-0.295	0.034
-428.617	-150.928	0.325	-0.025
-427.603	-97.621	-1.152	-0.299
-426.588	-188.082	-0.162	0.002
-425.573	-57.625	0.495	-0.217
-424.559	663.890	-0.301	-0.775
-423.544	-102.249	1.184	-0.284
-422.530	720.878	-0.188	-0.499
-421.515	800.000	0.174	-0.596
-420.500	-59.815	0.492	-0.210
-419.486	17.484	-0.860	0.683
-418.471	-158.402	0.558	-0.032
-417.457	-44.237	-0.560	0.281
-416.442	-1.362	-1.034	-0.729
-415.428	-23.429	0.450	-0.270
-414.413	-140.915	0.711	0.073
-413.398	303.044	-0.236	-0.436
-412.384	27.024	-0.424	0.355
-411.369	-32.440	-0.724	-0.403
-410.355	192.176	-0.222	-0.335
-409.340	37.891	0.665	-0.590
-408.325	19.194	0.626	-0.502
-407.311	50.854	0.181	0.172
-406.296	6.120	-0.651	-0.482
-405.282	-200.000	-0.083	-0.677
-404.267	488.999	-0.585	-1.334
-403.252	32.020	0.503	0.433
-402.238	-71.594	-0.682	0.255
-401.223	-164.937	-0.430	-0.019
-400.209	-131.722	0.497	-0.065
-399.194	-96.513	-0.652	-0.172
-398.179	-130.300	-0.384	-0.052
-397.165	277.401	0.293	-0.521
-396.150	275.569	-0.250	0.442
-395.136	382.906	0.157	0.322
-394.121	800.000	0.130	-0.448
-393.106	-200.000	0.196	1.199
-392.092	40.007	0.520	0.467
-391.077	-200.000	-0.030	1.041
-390.063	762.568	0.309	0.837
-389.048	-84.222	-0.256	-0.081
-388.033	150.853	-0.466	0.632
-387.019	330.811	-0.416	-0.799
-386.004	800.000	-0.029	-0.105
-384.990	-27.127	0.179	-0.104
-383.975	-73.053	0.229	0.084
-382.960	-100.669	-0.607	0.149
-381.946	300.980	0.148	-0.272
-380.931	69.592	0.399	0.410
-379.917	-107.467	0.344	-0.075
-378.902	-144.214	0.225	0.021
-377.888	800.000	0.064	0.239
-376.873	-69.823	0.487	0.185
-375.858	305.555	-0.034	-0.063
-374.844	-58.291	0.621	-0.269
-373.829	-131.565	0.504	0.066
-372.815	-63.888	-0.405	0.165
-371.800	-10.694	0.653	-0.431
-370.785	-200.000	0.060	-0.529
-369.771	-140.913	0.359	-0.037
-368.756	-200.000	0.078	-0.512
-367.742	37.095	0.277	-0.245
-366.727	-120.329	0.570	-0.097
-365.712	-124.941	-0.294	-0.045
-364.698	19.810	0.144	-0.116
-363.683	82.588	0.218	-0.236
-362.669	-200.000	0.093	-0.437
-361.654	224.786	-0.223	-0.359
-360.639	408.582	-0.192	-0.404
-359.625	64.048	0.255	0.255
-358.610	-198.782	-0.678	0.004
-357.596	-200.000	0.039	-0.311
-356.581	-125.687	-0.492	0.074
-355.566	-27.789	-0.941	0.544
-354.552	669.560	-0.144	0.372
-353.537	-200.000	-0.041	-0.583
-352.523	-28.809	-0.659	-0.378
-351.508	627.880	0.208	-0.523
-350.493	-18.868	0.758	-0.470
-349.479	-165.345	-0.760	0.033
-348.464	-200.000	0.104	0.657
-347.450	134.625	-0.234	0.302
-346.435	800.000	0.175	0.632
-345.420	-177.484	-0.535	-0.013
-344.406	-29.072	-0.525	0.300
-343.391	-200.000	0.020	0.379
-342.377	28.168	-0.225	-0.190
-341.362	-60.991	0.697	-0.293
-340.348	-95.566	0.871	-0.232
-339.333	-143.303	-0.492	0.047
-338.318	-200.000	-0.179	-0.898
-337.304	800.000	0.066	-0.246
-336.289	678.798	0.327	0.848
-335.275	472.144	-0.247	0.554
-334.260	-144.544	0.417	0.038
-333.245	800.000	-0.142	-0.543
-332.231	800.000	0.265	-0.998
-331.216	30.571	0.538	0.458
-330.202	-134.544	-0.824	-0.100
-329.187	36.493	0.131	0.115
-328.172	29.474	-0.571	-0.484
-327.158	111.100	0.230	0.276
-326.143	-9.244	0.684	0.455
-325.129	-47.642	0.454	-0.219
-324.114	-59.415	0.403	-0.172
-323.099	579.965	0.277	0.675
-322.085	55.853	0.226	0.218
-321.070	-150.992	0.567	0.043
-320.056	-200.000	-0.188	-1.010
-319.041	-200.000	0.072	-0.565
-318.026	-95.001	0.797	0.214
-317.012	174.325	-0.420	0.604
-315.997	92.707	-0.305	0.343
-314.983	-200.000	0.063	1.260
-313.968	59.042	0.992	0.971
-312.953	-111.095	0.340	-0.069
-311.939	-49.688	-0.343	-0.162
-310.924	338.623	-0.179	0.347
-309.910	-200.000	-0.150	0.977
-308.895	610.446	-0.157	-0.391
-307.880	-155.012	-0.473	0.031
-306.866	-117.552	-0.435	0.078
-305.851	-200.000	-0.102	-0.815
-304.837	799.445	-0.111	0.304
-303.822	341.936	0.620	-1.206
-302.807	-200.000	0.003	-0.859
-301.793	-69.220	0.111	0.042
-300.778	-66.788	-0.692	0.272
-299.764	800.000	-0.072	0.279
-298.749	246.954	0.214	0.359
-297.735	800.000	-0.162	-0.499
-296.720	-108.426	-0.136	-0.029
-295.705	654.133	0.142	-0.363
-294.691	81.584	0.287	-0.309
-293.676	-49.199	-0.319	0.151
-292.662	800.000	0.065	0.260
-291.647	-164.294	0.767	-0.035
-290.632	800.000	0.203	-0.634
-289.618	33.044	-0.637	0.549
-288.603	-200.000	-0.001	0.361
-287.589	800.000	0.097	0.340
-286.574	138.525	0.233	-0.304
-285.559	-49.938	-0.675	-0.318
-284.545	-16.742	-0.294	0.185
-283.530	-186.227	-0.804	-0.012
-282.516	475.272	0.125	0.281
-281.501	-107.392	-0.533	-0.116
-280.486	-32.158	-0.410	-0.228
-279.472	-200.000	0.079	0.663
-278.457	-143.595	0.247	0.023
-277.443	-62.292	-0.834	0.345
-276.428	-95.733	-0.509	-0.135
-275.413	9.973	0.586	-0.442
-274.399	5.077	1.105	0.808
-273.384	104.593	0.373	0.436
-272.370	146.345	-0.337	0.449
-271.355	800.000	-0.086	0.286
-270.340	650.550	-0.178	-0.453
-269.326	800.000	0.075	-0.237
-268.311	-129.975	0.563	0.077
-267.297	322.334	0.081	-0.153
-266.282	364.246	0.183	0.366
-265.267	-150.569	-1.026	-0.078
-264.253	111.814	-0.537	-0.644
-263.238	800.000	-0.145	0.580
-262.224	-170.979	-0.524	-0.018
-261.209	-200.000	-0.011	-0.153
-260.195	-200.000	-0.026	0.496
-259.180	-98.603	-1.097	0.278
-258.165	800.000	0.130	0.369
-257.151	800.000	-0.270	-0.854
-256.136	-46.124	-0.487	-0.238
-255.122	484.311	-0.260	0.587
-254.107	-200.000	0.021	-0.283
-253.092	11.842	0.408	0.311
-252.078	88.417	-0.351	0.387
-251.063	-155.120	-0.534	-0.035
-250.049	115.588	0.441	0.535
-249.034	800.000	0.128	0.503
-248.019	-33.976	0.132	-0.072
-247.005	216.912	0.455	0.720
-245.990	624.161	-0.092	0.230
-244.976	-200.000	0.078	0.452
-243.961	53.518	-0.162	-0.154
-242.946	-200.000	-0.025	-1.125
-241.932	140.531	-0.081	0.106
-240.917	-105.710	0.514	-0.115
-239.903	-67.719	-0.608	-0.236
-238.888	800.000	-0.027	-0.108
-237.873	-57.324	0.188	0.082
-236.859	-200.000	0.089	-0.503
-235.844	22.730	-0.228	0.185
-234.830	-120.645	0.158	-0.027
-233.815	-34.016	-1.014	-0.553
-232.800	-113.018	-0.477	0.093
-231.786	-200.000	-0.034	-0.265
-230.771	-95.790	-0.168	-0.045
-229.757	-111.148	-0.276	0.056
-228.742	-200.000	-0.041	0.270
-227.727	5.017	0.432	0.315
-226.713	47.086	0.148	0.137
-225.698	-33.392	0.402	-0.221
-224.684	-122.498	0.450	0.073
-223.669	157.549	0.370	0.508
-222.655	-41.619	-0.818	0.417
-221.640	54.238	0.212	-0.203
-220.625	-72.089	0.282	0.104
-219.611	85.123	-0.319	0.347
-218.596	177.320	-0.155	-0.224
-217.582	-68.531	-1.354	0.520
-216.567	306.178	-0.238	0.440
-215.552	429.951	0.122	-0.262
-214.538	129.512	0.195	0.247
-213.523	-200.000	-0.003	-0.111
-212.509	-200.000	-0.484	-0.002
-211.494	-46.787	0.116	0.056
-210.479	-126.149	0.489	0.073
-209.465	-200.000	0.043	-0.289
-208.450	65.195	0.118	-0.118
-207.436	-200.000	-0.049	0.233
-206.421	-107.374	-0.351	0.076
-205.406	800.000	0.273	0.898
-204.392	-200.000	0.020	0.503
-203.377	94.505	0.231	-0.260
-202.363	-200.000	0.042	-0.392
-201.348	182.054	0.301	-0.439
-200.333	82.717	0.267	0.287
-199.319	152.206	-0.450	0.608
-198.304	152.903	0.466	0.632
-197.290	-166.512	-0.631	-0.026
-196.275	-78.061	-0.343	0.117
-195.260	-149.705	0.629	0.049
-194.246	-65.443	-0.635	-0.253
-193.231	179.801	0.049	-0.071
-192.217	800.000	-0.195	0.581
-191.202	90.022	-0.656	0.726
-190.187	292.560	0.244	0.441
-189.173	-200.000	0.037	-0.396
-188.158	242.405	-0.366	-0.607
-187.144	800.000	0.080	0.259
-186.129	-200.000	-0.001	-0.312
-185.114	-200.000	-0.123	0.667
-184.100	-115.141	0.298	0.056
-183.085	-200.000	0.755	0.001
-182.071	191.601	0.153	0.228
-181.056	800.000	0.135	-0.477
-180.042	-200.000	0.027	-0.247
-179.027	134.949	0.094	0.120
-178.012	-117.475	0.127	-0.023
-176.998	475.732	0.536	-1.198
-175.983	800.000	-0.100	0.370
-174.969	204.713	0.107	0.164
-173.954	-200.000	-0.076	-0.442
-172.939	373.117	0.150	-0.302
-171.925	-200.000	0.008	-0.354
-170.910	22.123	0.340	-0.275
-169.896	88.817	0.272	-0.299
-168.881	800.000	-0.131	0.540
-167.866	-31.169	0.632	-0.352
-166.852	549.938	-0.172	0.409
-165.837	139.437	0.494	-0.643
-164.823	-200.000	0.078	-0.625
-163.808	-200.000	0.082	-0.625
-162.793	-116.487	-0.369	-0.067
-161.779	259.220	-0.254	-0.433
-160.764	-136.937	0.183	-0.021
-159.750	800.000	-0.258	0.806
-158.735	800.000	0.077	-0.315
-157.720	269.020	0.310	-0.538
-156.706	66.781	0.391	0.394
-155.691	393.142	-0.140	0.289
-154.677	315.512	0.035	0.065
-153.662	-81.465	0.521	-0.169
-152.647	42.009	0.495	0.444
-151.633	-200.000	0.148	0.714
-150.618	-200.000	-0.073	-1.008
-149.604	800.000	0.155	0.441
-148.589	-40.737	0.396	0.203
-147.574	-200.000	-0.187	0.974
-146.560	21.814	0.177	0.142
-145.545	-80.256	-0.245	-0.081
-144.531	462.304	-0.266	0.588
-143.516	225.829	-0.253	0.406
-142.502	145.701	0.207	0.274
-141.487	-157.525	0.636	0.038
-140.472	-57.588	0.257	-0.111
-139.458	-102.706	0.171	0.040
-138.443	-6.234	0.235	-0.158
-137.429	-28.034	-0.671	-0.384
-136.414	12.490	-0.203	-0.154
-135.399	-39.589	-0.340	0.176
-134.385	-21.341	0.371	0.224
-133.370	106.487	0.467	0.548
-132.356	-142.353	-0.315	-0.031
-131.341	152.926	0.293	0.396
-130.326	800.000	-0.170	0.645
-129.312	-200.000	-0.053	0.787
-128.297	-200.000	0.069	-0.385
-127.283	-200.000	-0.047	0.647
-126.268	-77.478	-0.362	0.124
-125.253	25.960	0.268	-0.221
-124.239	-77.460	-0.097	-0.033
-123.224	641.534	0.090	-0.227
-122.210	-121.415	-0.325	0.054
-121.195	-159.572	-0.668	0.037
-120.180	148.972	-0.137	0.183
-119.166	-165.737	-1.230	-0.052
-118.151	-87.832	0.642	0.191
-117.137	-76.478	0.608	0.211
-116.122	800.000	0.137	0.540
-115.107	18.683	-0.500	0.395
-114.093	-200.000	0.055	0.437
-113.078	207.325	-0.361	-0.556
-112.064	49.338	-0.427	-0.396
-111.049	87.650	-0.081	0.089
-110.034	800.000	0.219	-0.644
-109.020	800.000	-0.208	0.637
-108.005	800.000	-0.137	-0.448
-106.991	-134.700	-0.305	0.037
-105.976	-69.384	-1.012	0.383
-104.962	744.286	-0.224	-0.594
-103.947	-88.005	-0.441	-0.131
-102.932	-112.953	-1.211	-0.236
-101.918	-200.000	-0.054	0.235
-100.903	64.885	-0.298	-0.297
-99.889	-83.578	-0.307	-0.097
-98.874	209.040	-0.296	-0.458
-97.859	-8.600	0.422	-0.280
-96.845	-151.175	0.795	-0.059
-95.830	355.100	0.172	0.338
-94.816	-200.000	0.059	0.797
-93.801	10.757	-0.469	-0.353
-92.786	284.985	0.316	-0.561
-91.772	126.788	-0.111	0.138
-90.757	244.172	0.271	-0.449
-89.743	160.196	0.931	-1.280
-88.728	-200.000	-0.068	-0.543
-87.713	37.333	-0.616	-0.539
-86.699	7.538	-0.386	-0.285
-85.684	800.000	-0.292	0.964
-84.670	-200.000	-0.012	0.510
-83.655	346.194	-0.522	1.012
-82.640	55.510	-0.685	0.654
-81.626	800.000	-0.059	0.189
-80.611	-179.137	-0.572	-0.013
-79.597	-78.513	-0.636	0.215
-78.582	71.172	-0.245	0.250
-77.567	-46.040	-0.601	0.292
-76.553	-200.000	0.124	0.976
-75.538	-200.000	-0.029	-0.335
-74.524	-24.936	0.544	0.318
-73.509	-72.244	-0.788	-0.288
-72.494	84.004	-0.437	-0.470
-71.480	219.828	0.313	-0.494
-70.465	-134.129	-0.134	0.016
-69.451	-200.000	0.053	-0.801
-68.436	-58.341	-0.398	0.171
-67.422	800.000	-0.183	-0.778
-66.407	-45.629	-0.370	0.180
-65.392	-162.672	-0.659	-0.032
-64.378	35.701	0.385	-0.333
-63.363	-71.896	-0.366	-0.134
-62.349	8.277	0.242	0.179
-61.334	-25.857	-1.324	-0.768
-60.319	-106.532	0.604	0.133
-59.305	269.270	-0.789	-1.365
-58.290	448.589	0.224	0.487
-57.276	20.511	1.514	1.206
-56.261	-200.000	95.890	576.286
-55.246	655.679	1363.084	3448.212
-54.232	201.724	2528.896	3838.730
-53.217	117.774	2147.581	2604.549
-52.203	43.639	1697.863	1529.892
-51.188	36.161	1511.820	1311.576
-50.173	33.791	1485.767	1273.054
-49.159	54.323	1535.760	1456.210
-48.144	55.049	1554.074	1478.463
-47.130	36.421	1513.248	1314.380
-46.115	33.368	1497.532	1280.077
-45.100	33.025	1494.892	1275.451
-44.086	33.069	1492.661	1273.792
-43.071	33.053	1490.972	1272.192
-42.057	33.158	1489.532	1271.623
-41.042	33.201	1488.299	1270.810
-40.027	33.315	1486.292	1269.810
-39.013	33.200	1484.970	1267.861
-37.998	33.086	1484.273	1266.448
-36.984	32.965	1482.490	1264.066
-35.969	33.116	1481.368	1264.070
-34.954	32.954	1479.695	1261.512
-33.940	32.736	1479.080	1259.480
-32.925	33.093	1477.485	1260.454
-31.911	33.101	1476.467	1259.586
-30.896	33.189	1474.209	1258.200
-29.881	33.379	1473.095	1258.457
-28.867	33.084	1471.700	1255.257
-27.852	33.014	1470.151	1253.421
-26.838	32.970	1470.090	1253.030
-25.823	33.000	1467.931	1251.339
-24.809	33.088	1465.871	1250.113
-23.794	32.852	1465.201	1247.935
-22.779	33.190	1463.183	1248.399
-21.765	33.236	1462.513	1248.076
-20.750	33.071	1461.110	1245.741
-19.736	32.789	1461.450	1244.122
-18.721	32.726	1460.153	1242.555
-17.706	32.794	1458.615	1241.648
-16.692	33.071	1455.624	1240.867
-15.677	33.077	1455.968	1241.153
-14.663	32.945	1455.388	1239.745
-13.648	32.995	1454.802	1239.520
-12.633	32.992	1452.376	1237.387
-11.619	32.727	1451.726	1235.050
-10.604	32.990	1451.546	1236.571
-9.590	32.721	1450.888	1234.201
-8.575	33.018	1449.389	1234.814
-7.560	33.113	1449.033	1235.085
-6.546	32.974	1448.908	1234.018
-5.531	32.983	1447.257	1232.624
-4.517	32.873	1446.127	1230.893
-3.502	32.890	1445.194	1230.164
-2.487	32.865	1444.856	1229.663
-1.473	32.975	1443.207	1228.929
-0.458	33.130	1441.734	1228.630
0.556	33.919	1431.912	1215.450
1.571	30.651	1407.622	1174.136
2.586	27.222	1348.617	1104.044
3.600	25.334	1269.381	1028.281
4.615	23.984	1222.099	982.446
5.629	20.598	1165.296	918.838
6.644	11.310	1081.106	806.635
7.659	4.259	1039.145	741.638
8.673	3.272	1033.076	732.550
9.688	3.255	1030.083	730.280
10.702	2.605	1029.400	726.651
11.717	2.750	1027.922	726.227
12.731	6.268	1029.198	743.719
13.746	15.218	1043.235	796.510
14.761	22.639	1053.819	840.011
15.775	24.872	1054.065	850.759
16.790	24.825	1053.503	850.010
17.804	24.731	1052.006	848.279
18.819	24.361	1052.863	847.140
19.834	24.388	1051.898	846.417
20.848	24.789	1050.943	847.474
21.863	24.806	1050.799	847.360
22.877	24.502	1051.255	846.214
23.892	24.698	1049.854	845.940
24.907	24.223	1049.515	843.344
25.921	24.521	1047.965	843.429
26.936	24.701	1047.209	843.599
27.950	24.462	1045.819	841.277
28.965	24.440	1044.180	839.778
29.980	24.380	1044.042	839.312
30.994	24.473	1043.030	838.864
32.009	24.635	1041.501	838.317
33.023	24.683	1040.877	837.965
34.038	24.501	1040.415	836.667
35.053	24.591	1039.714	836.451
36.067	24.274	1039.310	834.570
37.082	24.266	1038.750	834.007
38.096	24.361	1036.859	832.861
39.111	24.470	1037.542	833.844
40.126	24.270	1036.737	832.190
41.140	24.729	1035.643	833.376
42.155	24.146	1034.095	829.344
43.169	24.095	1033.058	828.201
44.184	24.071	1032.372	827.469
45.199	24.377	1030.698	827.472
46.213	24.104	1029.924	825.510
47.228	24.325	1028.517	825.332
48.242	24.739	1027.643	826.472
49.257	24.627	1028.503	826.576
50.271	24.706	1026.728	825.437
51.286	24.790	1025.533	824.792
52.301	24.683	1025.368	824.093
53.315	24.772	1025.044	824.169
54.330	24.676	1024.221	822.994
55.344	24.680	1023.241	822.154
56.359	24.614	1021.762	820.589
57.374	24.624	1020.568	819.602
58.388	24.232	1021.255	818.281
59.403	24.293	1020.531	817.907
60.417	24.509	1018.505	817.202
61.432	24.260	1018.058	815.630
62.447	24.247	1017.849	815.334
63.461	24.419	1018.061	816.217
64.476	24.389	1016.145	814.471
65.490	23.911	1015.603	811.784
66.505	24.104	1014.573	811.770
67.520	24.282	1013.724	811.827
68.534	24.198	1013.024	810.814
69.549	24.218	1012.349	810.294
70.563	24.063	1011.357	808.720
71.578	23.699	1010.656	806.439
72.593	24.048	1008.338	806.097
73.607	23.552	1008.391	803.821
74.622	23.545	1007.359	802.898
75.636	23.894	1006.643	803.834
76.651	24.109	1006.162	804.349
77.666	23.737	1005.869	802.365
78.680	24.087	1004.748	802.979
79.695	24.196	1003.755	802.603
80.709	24.228	1003.095	802.147
81.724	23.854	1004.217	801.288
82.739	24.320	1001.709	801.314
83.753	23.949	1001.442	799.363
84.768	24.499	1000.614	801.096
85.782	25.120	1000.056	803.362
86.797	25.220	999.480	803.279
87.812	24.831	999.934	801.830
88.826	24.727	998.907	800.470
89.841	24.610	997.696	798.903
90.855	25.000	997.099	800.098
91.870	24.752	996.460	798.409
92.884	24.637	996.195	797.609
93.899	24.596	994.147	795.718
94.914	24.751	993.697	795.976
95.928	24.743	993.315	795.567
96.943	24.719	991.993	794.332
97.957	24.589	991.176	793.026
98.972	24.454	989.632	791.126
99.987	24.611	988.933	791.189
101.001	24.386	988.306	789.626
102.016	24.589	988.040	790.238
103.030	24.748	986.809	789.888
104.045	24.606	985.409	788.072
105.060	24.565	984.781	787.316
106.074	24.894	983.691	787.825
107.089	24.497	983.061	785.504
108.103	24.591	982.292	785.234
109.118	24.549	981.808	784.591
110.133	24.359	980.709	782.812
111.147	24.286	979.838	781.728
112.162	24.467	977.416	780.516
113.176	24.150	977.211	778.896
114.191	24.393	977.201	779.883
115.206	24.192	976.245	778.174
116.220	24.195	975.286	777.353
117.235	23.896	975.201	775.912
118.249	24.377	972.950	776.149
119.264	24.293	972.927	775.694
120.279	24.336	971.971	775.048
121.293	23.878	971.480	772.601
122.308	23.968	970.454	772.106
123.322	24.040	969.462	771.560
124.337	23.844	969.069	770.330
125.352	23.674	968.715	769.242
126.366	23.732	966.823	767.925
127.381	23.512	967.047	767.082
128.395	24.129	965.177	768.193
129.410	24.608	963.599	768.931
130.424	24.352	963.210	767.453
131.439	24.575	963.412	768.504
132.454	24.602	961.628	767.131
133.468	24.696	961.306	767.211
134.483	24.527	960.709	765.939
135.497	24.575	960.453	765.872
136.512	24.760	958.456	765.006
137.527	24.682	958.321	764.497
138.541	24.840	956.654	763.773
139.556	24.909	956.385	763.784
140.570	24.539	956.871	762.527
141.585	24.753	955.969	762.650
142.600	24.699	956.179	762.522
143.614	24.861	954.131	761.512
144.629	25.021	953.145	761.336
145.643	24.721	953.461	760.247
146.658	25.014	950.930	759.405
147.673	24.693	950.544	757.666
148.687	24.453	950.504	756.550
149.702	24.714	948.617	756.086
150.716	24.521	947.185	754.064
151.731	24.879	946.571	755.019
152.746	24.431	946.025	752.628
153.760	24.769	945.043	753.204
154.775	24.896	943.829	752.703
155.789	24.893	943.115	752.056
156.804	24.747	943.259	751.489
157.819	24.829	942.317	751.014
158.833	25.146	941.172	751.364
159.848	24.916	940.230	749.585
160.862	25.079	940.473	750.393
161.877	24.910	938.582	748.111
162.892	24.921	937.863	747.518
163.906	24.655	936.898	745.575
164.921	25.067	936.367	746.805
165.935	24.866	935.059	744.859
166.950	24.941	934.103	744.340
167.964	24.597	934.531	743.186
168.979	24.811	932.362	742.283
169.994	24.519	932.194	740.875
171.008	24.859	929.721	740.247
172.023	24.891	929.946	740.495
173.037	24.993	928.370	739.597
174.052	24.868	928.168	738.853
175.067	25.204	928.050	740.080
176.081	25.005	926.054	737.606
177.096	24.481	925.644	735.054
178.110	24.358	924.463	733.544
179.125	24.493	923.832	733.536
180.140	24.518	922.832	732.779
181.154	24.569	921.289	731.700
182.169	24.599	921.379	731.826
183.183	24.482	922.201	731.937
184.198	24.818	921.552	732.733
185.213	24.757	919.656	730.913
186.227	24.959	919.785	731.772
187.242	24.767	919.424	730.638
188.256	24.809	918.631	730.115
189.271	24.915	918.110	730.069
190.286	25.233	917.259	730.624
191.300	24.998	916.038	728.627
192.315	24.533	914.984	725.838
193.329	23.883	913.990	722.345
194.344	23.814	913.548	721.652
195.359	24.487	912.922	723.821
196.373	24.730	913.333	725.071
197.388	24.980	912.586	725.426
198.402	24.692	913.274	724.742
199.417	25.321	912.258	726.417
200.432	25.108	912.641	725.795
201.446	25.095	912.044	725.202
202.461	24.923	910.686	723.364
203.475	24.974	910.513	723.369
204.490	24.670	909.643	721.387
205.504	24.182	907.475	717.639
206.519	24.233	906.083	716.681
207.534	24.917	906.604	719.781
208.548	25.043	906.072	719.799
209.563	25.196	905.335	719.765
210.577	24.910	906.364	719.371
211.592	24.714	904.291	716.876
212.607	25.246	903.815	718.566
213.621	25.457	903.352	718.978
214.636	25.094	903.209	717.345
215.650	25.453	901.720	717.535
216.665	25.392	901.624	717.152
217.680	24.870	900.813	714.363
218.694	25.237	900.634	715.621
219.709	25.115	900.441	714.917
220.723	24.970	899.475	713.509
221.738	24.753	899.820	712.853
222.753	24.782	897.522	711.084
223.767	24.988	896.799	711.269
224.782	25.111	896.682	711.599
225.796	25.308	895.530	711.404
226.811	25.275	895.596	711.263
227.826	25.187	894.664	710.111
228.840	24.568	893.501	706.677
229.855	24.720	892.453	706.386
230.869	24.708	892.712	706.483
231.884	24.508	891.750	704.870
232.899	24.720	890.771	704.866
233.913	24.736	891.217	705.224
234.928	25.002	890.394	705.557
235.942	24.693	890.127	704.064
236.957	24.453	889.003	702.170
237.972	24.313	888.019	700.779
238.986	24.571	887.042	700.961
240.001	24.578	886.736	700.686
241.015	24.595	886.337	700.372
242.030	24.698	884.492	699.257
243.045	24.834	884.957	700.094
244.059	24.920	884.769	700.219
245.074	24.975	883.989	699.755
246.088	24.981	883.120	699.030
247.103	24.789	883.413	698.448
248.117	24.937	882.763	698.452
249.132	25.337	882.320	699.598
250.147	25.457	881.280	699.177
251.161	25.667	881.538	700.138
252.176	26.214	879.986	700.965
253.190	25.680	880.453	699.202
254.205	25.924	879.983	699.716
255.220	25.721	879.998	698.878
256.234	25.485	878.787	696.940
257.249	25.783	877.880	697.313
258.263	25.727	878.124	697.228
259.278	25.557	877.076	695.674
260.293	25.462	876.852	695.067
261.307	25.478	875.963	694.364
262.322	25.959	874.523	695.015
263.336	25.930	873.871	694.326
264.351	25.647	874.143	693.391
265.366	25.514	871.948	691.075
266.380	25.052	871.541	688.917
267.395	25.342	871.022	689.559
268.409	25.726	871.310	691.201
269.424	25.272	871.311	689.397
270.439	25.966	869.435	690.512
271.453	25.909	868.423	689.428
272.468	25.748	867.818	688.270
273.482	25.925	867.282	688.461
274.497	25.462	867.967	687.172
275.512	25.357	867.229	686.128
276.526	25.391	866.343	685.495
277.541	25.348	866.161	685.126
278.555	25.692	864.923	685.396
279.570	25.838	864.647	685.672
280.585	25.986	863.700	685.426
281.599	25.803	863.043	684.146
282.614	25.833	862.539	683.799
283.628	25.401	861.896	681.592
284.643	25.220	860.532	679.768
285.657	25.610	860.523	681.178
286.672	25.411	860.113	680.039
287.687	25.586	858.884	679.667
288.701	25.478	859.088	679.361
289.716	25.102	859.814	678.454
290.730	25.542	858.532	679.042
291.745	25.426	857.021	677.351
292.760	25.205	857.820	677.089
293.774	25.230	856.780	676.301
294.789	25.758	856.736	678.197
295.803	26.105	855.221	678.240
296.818	25.862	856.200	678.042
297.833	25.980	854.898	677.397
298.847	25.868	853.278	675.632
299.862	26.043	852.260	675.421
300.876	25.859	852.279	674.689
301.891	25.752	852.424	674.341
302.906	26.352	851.214	675.568
303.920	26.002	850.870	673.929
304.935	25.897	849.700	672.552
305.949	26.099	849.402	673.007
306.964	26.325	848.904	673.395
307.979	25.685	849.163	671.156
308.993	25.648	848.658	670.560
310.008	25.995	847.396	670.793
311.022	25.992	847.357	670.693
312.037	26.009	846.172	669.759
313.052	25.782	846.475	669.096
314.066	25.620	845.549	667.706
315.081	25.301	844.032	665.266
316.095	24.944	843.755	663.663
317.110	25.242	843.522	664.526
318.125	26.043	843.008	667.026
319.139	25.782	841.879	665.111
320.154	24.626	841.699	660.638
321.168	24.701	840.694	660.069
322.183	24.880	840.312	660.370
323.197	25.537	840.342	662.758
324.212	25.902	839.301	663.222
325.227	25.274	840.032	661.427
326.241	25.595	838.974	661.717
327.256	25.367	838.130	660.154
328.270	25.513	837.249	659.938
329.285	25.171	837.637	658.929
330.300	25.362	836.252	658.481
331.314	25.015	836.399	657.265
332.329	25.316	835.347	657.485
333.343	25.289	835.713	657.615
334.358	25.578	835.023	658.071
335.373	26.067	833.521	658.615
336.387	25.748	833.854	657.654
337.402	25.777	832.745	656.827
338.416	26.039	832.390	657.445
339.431	26.007	832.160	657.090
340.446	26.185	832.130	657.656
341.460	26.339	830.886	657.171
342.475	26.398	831.487	657.805
343.489	26.458	830.265	656.998
344.504	26.670	829.081	656.774
345.519	26.490	829.226	656.177
346.533	26.468	828.496	655.462
347.548	26.397	828.430	655.091
348.562	26.463	827.644	654.651
349.577	26.149	827.084	653.014
350.592	26.198	826.143	652.391
351.606	26.321	825.903	652.588
352.621	26.186	825.357	651.613
353.635	26.215	824.450	650.944
354.650	26.210	824.260	650.716
355.665	25.988	824.203	649.814
356.679	25.793	822.772	647.929
357.694	25.466	822.716	646.649
358.708	26.030	822.150	648.175
359.723	25.882	820.893	646.597
360.738	25.816	820.503	645.994
361.752	26.145	820.560	647.163
362.767	25.984	821.000	646.876
363.781	26.491	820.013	647.856
364.796	26.231	820.190	647.007
365.810	26.564	819.267	647.414
366.825	26.696	818.379	647.125
367.840	26.252	818.752	645.776
368.854	26.397	818.134	645.751
369.869	25.849	817.490	643.227
370.883	26.329	816.776	644.321
371.898	26.150	816.698	643.564
372.913	26.588	815.568	644.176
373.927	26.435	815.431	643.467
374.942	26.332	814.618	642.401
375.956	26.065	813.338	640.389
376.971	26.278	813.892	641.523
377.986	26.230	813.249	640.790
379.000	26.277	812.768	640.521
380.015	26.298	812.185	640.079
381.029	26.098	812.431	639.506
382.044	26.231	811.749	639.387
383.059	26.707	809.497	639.235
384.073	26.613	809.631	638.953
385.088	26.698	809.080	638.759
386.102	26.315	807.690	636.258
387.117	25.742	807.620	634.128
388.132	25.863	807.159	634.136
389.146	26.091	806.488	634.356
390.161	25.693	806.000	632.518
391.175	26.270	805.717	634.267
392.190	26.700	805.627	635.648
393.205	26.253	805.543	633.956
394.219	26.038	803.724	631.715
395.234	25.072	802.640	627.428
396.248	24.997	801.690	626.369
397.263	25.371	802.489	628.244
398.278	26.078	802.420	630.609
399.292	26.000	801.702	629.717
400.307	25.560	801.510	627.974
401.321	25.721	801.126	628.178
402.336	25.352	801.497	627.123
403.350	26.274	799.858	628.997
404.365	26.040	800.738	628.820
405.380	25.950	800.863	628.547
406.394	27.098	799.935	631.759
407.409	26.631	800.019	630.145
408.423	26.696	799.174	629.648
409.438	26.925	797.725	629.247
410.453	26.482	797.897	627.788
411.467	26.805	797.326	628.405
412.482	26.593	796.177	626.710
413.496	26.627	795.165	625.975
414.511	26.824	795.686	627.010
415.526	26.618	794.850	625.585
416.540	26.516	794.579	624.964
417.555	26.462	794.538	624.689
418.569	26.704	793.940	625.000
419.584	26.907	792.345	624.387
420.599	26.789	793.045	624.478
421.613	159.822	1369.437	1792.604
422.628	138.485	1453.416	1792.646
