DTS Sentinel unit serial number:	SN413079Multiplexer serial number:	ORYXHardware model number:	OX4-SRSoftware version number:	ORYX F/W v4.00 Oryx Data Collector v3.7.2.0data status	okinstallation	princeton_trtdifferential loss correction	single-endedforward channel	channel 3reverse channel	N/Adate	2019/09/16time	04:36:35forward acquisition time	60.00reverse acquisition time	0.00gamma	496.2192k internal	0.2336k external	0.2336temperature offset calibration	0.9954default loss term (dB/km)	0.3790temperature slope calibration	1.0000multiplexer offset coefficient	1.0000multiplexer slope coefficient	1.0000fibre end	0.00T internal ref (°C)	27.25T ext. ref 1 (°C)	10.88T ext. ref 2 (°C)	21.40length (m)	temperature (°C)	Stokes	anti-Stokes-747.200	-125.105	-0.378	-0.058
-746.185	-200.000	0.053	0.275
-745.171	7.366	-0.160	0.120
-744.156	32.732	-0.271	0.235
-743.142	-2.058	0.191	-0.135
-742.127	-1.712	-0.401	0.283
-741.112	247.315	0.106	-0.180
-740.098	-200.000	0.013	0.210
-739.083	-200.000	0.024	0.178
-738.069	-165.059	-0.334	0.015
-737.054	149.841	0.201	0.274
-736.039	-107.771	0.128	0.028
-735.025	125.623	-0.116	-0.147
-734.010	-200.000	0.024	-0.178
-732.996	-46.152	-0.206	-0.102
-731.981	800.000	0.091	-0.292
-730.966	-25.798	-0.192	-0.113
-729.952	302.496	-0.167	-0.310
-728.937	-1.850	-0.466	-0.329
-727.923	-49.086	-0.651	-0.313
-726.908	-200.000	-0.007	-0.343
-725.894	800.000	0.043	-0.187
-724.879	104.738	-0.025	0.030
-723.864	14.200	0.165	0.129
-722.850	-18.788	-0.299	0.187
-721.835	-111.537	0.186	-0.038
-720.821	800.000	0.031	-0.119
-719.806	-200.000	-0.024	-0.251
-718.791	-200.000	-0.035	0.442
-717.777	-111.144	-0.271	0.056
-716.762	-104.987	0.276	-0.063
-715.748	-32.370	0.263	0.147
-714.733	59.440	-0.316	-0.313
-713.718	-200.000	0.011	0.062
-712.704	-200.000	0.029	0.187
-711.689	11.802	-0.154	-0.119
-710.675	-7.083	0.066	0.045
-709.660	-10.615	-0.291	-0.193
-708.645	-8.504	-0.321	0.217
-707.631	-200.000	0.028	0.178
-706.616	-200.000	-0.028	0.265
-705.602	800.000	0.101	0.392
-704.587	800.000	-0.029	0.103
-703.572	-72.773	0.191	-0.070
-702.558	-31.522	-0.215	-0.121
-701.543	-200.000	0.109	-0.481
-700.529	85.868	-0.164	0.181
-699.514	-138.837	0.061	0.007
-698.499	40.223	0.395	0.356
-697.485	-52.322	0.292	0.135
-696.470	90.676	-0.280	0.314
-695.456	-47.126	-0.428	-0.209
-694.441	-39.733	0.260	0.136
-693.426	-131.051	-0.124	-0.017
-692.412	5.050	0.194	-0.143
-691.397	-200.000	-0.051	-0.264
-690.383	800.000	0.055	-0.228
-689.368	174.388	0.038	0.055
-688.354	-114.828	-0.258	-0.049
-687.339	-113.564	0.324	0.064
-686.324	80.728	0.178	-0.192
-685.310	181.339	-0.089	0.131
-684.295	8.900	0.323	-0.244
-683.281	-200.000	-0.083	0.478
-682.266	-108.713	-0.133	-0.029
-681.251	-55.218	0.205	-0.092
-680.237	-115.070	0.444	-0.084
-679.222	-200.000	0.031	0.227
-678.208	153.375	0.109	-0.150
-677.193	152.560	-0.067	0.092
-676.178	209.529	-0.176	0.277
-675.164	-81.499	0.163	-0.054
-674.149	800.000	-0.014	0.043
-673.135	27.411	0.124	0.104
-672.120	-15.206	0.177	-0.113
-671.105	341.328	-0.099	-0.193
-670.091	-33.299	0.208	0.115
-669.076	-80.845	0.615	0.204
-668.062	-200.000	0.012	-0.109
-667.047	-6.088	0.156	-0.107
-666.032	800.000	0.121	0.371
-665.018	-71.266	-0.458	0.172
-664.003	-200.000	0.033	0.406
-662.989	14.012	-0.064	-0.050
-661.974	572.631	0.083	-0.203
-660.959	-135.950	-0.125	-0.015
-659.945	800.000	0.079	0.289
-658.930	-200.000	0.005	-0.161
-657.916	602.925	0.056	0.139
-656.901	-184.039	0.174	0.003
-655.886	-62.683	0.085	0.035
-654.872	152.096	-0.131	0.179
-653.857	3.530	-0.224	0.163
-652.843	64.230	-0.148	-0.149
-651.828	-24.751	0.150	-0.089
-650.814	-43.367	-0.033	-0.017
-649.799	43.825	-0.052	-0.048
-648.784	800.000	0.060	0.172
-647.770	2.785	-0.019	-0.014
-646.755	266.448	-0.024	-0.042
-645.741	-117.606	-0.462	-0.083
-644.726	800.000	-0.133	-0.381
-643.711	317.677	0.055	-0.104
-642.697	-85.236	0.347	0.108
-641.682	-9.063	-0.189	-0.127
-640.668	-200.000	-0.031	-0.221
-639.653	-92.452	-0.261	-0.073
-638.638	39.822	-0.042	-0.037
-637.624	-200.000	0.020	-0.156
-636.609	304.178	-0.257	0.477
-635.595	-172.372	-0.180	0.006
-634.580	800.000	-0.020	-0.084
-633.565	800.000	0.094	0.334
-632.551	496.722	0.023	-0.053
-631.536	398.607	0.066	-0.137
-630.522	-161.853	0.338	0.017
-629.507	800.000	0.036	0.105
-628.492	-39.193	0.126	-0.066
-627.478	7.348	-0.206	-0.154
-626.463	-97.042	0.260	0.068
-625.449	-74.492	-0.296	0.107
-624.434	-200.000	0.025	-0.172
-623.419	-43.356	0.286	-0.144
-622.405	379.536	-0.108	0.220
-621.390	535.915	0.022	-0.052
-620.376	-121.908	-0.335	-0.055
-619.361	800.000	0.043	0.180
-618.346	-66.609	0.276	0.109
-617.332	800.000	-0.044	-0.190
-616.317	178.212	0.172	-0.250
-615.303	-2.214	-0.022	0.015
-614.288	-85.297	-0.118	0.037
-613.273	18.577	-0.137	0.109
-612.259	-200.000	-0.005	0.196
-611.244	-130.605	-0.250	0.034
-610.230	-200.000	-0.017	-0.109
-609.215	-38.727	-0.095	-0.050
-608.201	16.830	0.114	0.090
-607.186	319.063	0.065	0.123
-606.171	506.604	0.065	0.151
-605.157	800.000	-0.038	0.158
-604.142	800.000	0.074	-0.298
-603.128	-200.000	0.051	-0.318
-602.113	800.000	0.089	0.260
-601.098	-2.086	-0.312	0.219
-600.084	-145.280	0.107	-0.010
-599.069	-64.608	0.081	0.033
-598.055	175.755	-0.034	-0.049
-597.040	-200.000	-0.039	-0.220
-596.025	-44.314	-0.040	0.020
-595.011	-106.326	0.065	-0.015
-593.996	800.000	-0.019	-0.073
-592.982	157.200	0.048	-0.067
-591.967	0.423	0.046	-0.033
-590.952	126.863	-0.191	-0.241
-589.938	-90.236	-0.287	0.083
-588.923	50.659	-0.145	0.137
-587.909	-14.432	0.299	-0.192
-586.894	335.412	-0.036	0.071
-585.879	-22.669	-0.103	0.062
-584.865	154.810	-0.036	0.049
-583.850	-8.311	-0.100	0.067
-582.836	-200.000	0.022	-0.191
-581.821	127.556	-0.122	-0.154
-580.806	165.702	0.024	0.034
-579.792	-53.067	-0.173	-0.079
-578.777	800.000	0.051	0.198
-577.763	227.473	0.152	0.247
-576.748	-200.000	0.036	0.347
-575.733	-130.343	-0.138	0.019
-574.719	240.255	-0.114	0.189
-573.704	800.000	0.114	-0.477
-572.690	-75.665	-0.090	0.032
-571.675	-200.000	0.048	-0.329
-570.661	312.260	-0.029	0.054
-569.646	-73.546	-0.269	0.098
-568.631	44.177	0.365	0.334
-567.617	-200.000	0.018	-0.260
-566.602	3.399	0.129	-0.094
-565.588	170.252	-0.038	0.054
-564.573	-22.956	0.117	0.071
-563.558	66.774	0.305	-0.310
-562.544	38.676	0.216	0.192
-561.529	-80.588	-0.314	0.104
-560.515	86.143	-0.207	-0.227
-559.500	-200.000	-0.024	0.158
-558.485	-89.873	-0.081	-0.024
-557.471	-200.000	0.019	-0.120
-556.456	230.163	-0.148	-0.242
-555.442	-200.000	-0.027	0.243
-554.427	-111.982	0.047	-0.010
-553.412	800.000	-0.096	-0.275
-552.398	-60.698	0.504	0.213
-551.383	-200.000	0.050	0.302
-550.369	-69.558	0.092	0.035
-549.354	762.384	-0.020	-0.053
-548.339	-150.562	-0.290	-0.022
-547.325	-48.055	-0.316	-0.152
-546.310	-200.000	0.026	0.187
-545.296	-53.327	0.536	0.245
-544.281	-72.986	-0.225	-0.082
-543.266	300.160	-0.139	0.255
-542.252	13.584	-0.079	0.061
-541.237	-200.000	-0.005	0.217
-540.223	-200.000	0.049	0.292
-539.208	36.758	0.240	0.212
-538.193	16.589	0.105	-0.083
-537.179	-117.220	-0.170	-0.031
-536.164	96.103	0.099	-0.112
-535.150	253.950	-0.077	-0.131
-534.135	-7.759	-0.117	-0.078
-533.121	-200.000	-0.054	-0.414
-532.106	680.368	-0.050	0.130
-531.091	-200.000	0.030	0.243
-530.077	-78.700	0.087	-0.030
-529.062	-52.371	-0.267	-0.123
-528.048	660.471	-0.084	-0.215
-527.033	87.811	0.027	0.030
-526.018	104.846	0.086	0.101
-525.004	-200.000	-0.021	0.176
-523.989	130.656	0.061	0.078
-522.975	83.562	-0.157	0.171
-521.960	-89.560	-0.089	-0.026
-520.945	800.000	0.008	-0.032
-519.931	289.636	0.164	0.296
-518.916	-3.185	-0.105	-0.073
-517.902	-153.725	-0.291	-0.020
-516.887	195.606	0.044	0.067
-515.872	126.400	0.162	-0.205
-514.858	-81.139	0.134	-0.044
-513.843	312.747	-0.037	0.070
-512.829	-85.405	0.083	-0.026
-511.814	62.812	-0.302	0.300
-510.799	153.006	0.097	0.131
-509.785	215.536	-0.191	-0.301
-508.770	447.217	-0.107	-0.233
-507.756	-15.237	0.142	0.090
-506.741	-3.155	-0.087	-0.060
-505.726	-200.000	-0.023	0.109
-504.712	290.341	-0.107	0.194
-503.697	-123.790	0.254	-0.040
-502.683	-34.711	-0.286	-0.156
-501.668	-135.533	0.167	-0.020
-500.653	227.367	-0.166	0.269
-499.639	-200.000	-0.070	-0.373
-498.624	103.944	-0.255	-0.298
-497.610	373.004	0.061	-0.124
-496.595	800.000	0.029	0.110
-495.581	271.829	-0.179	-0.314
-494.566	-62.640	0.348	-0.143
-493.551	-83.011	-0.218	0.070
-492.537	-48.409	-0.109	0.052
-491.522	-155.785	-0.116	0.007
-490.508	-128.526	0.323	-0.046
-489.493	-183.776	0.190	0.003
-488.478	-97.403	0.198	0.051
-487.464	-200.000	0.030	-0.132
-486.449	274.449	-0.064	-0.113
-485.435	-139.926	-0.166	-0.017
-484.420	694.497	-0.091	-0.238
-483.405	-169.186	-0.252	0.009
-482.391	283.641	0.095	-0.169
-481.376	70.231	-0.204	-0.209
-480.362	111.233	-0.198	-0.237
-479.347	-200.000	-0.046	-0.381
-478.332	-31.645	0.212	0.118
-477.318	-140.889	-0.124	-0.013
-476.303	80.465	-0.070	-0.075
-475.289	-200.000	-0.060	-0.526
-474.274	-130.513	0.146	0.020
-473.259	800.000	-0.011	0.032
-472.245	23.725	-0.193	-0.158
-471.230	-126.175	0.126	-0.019
-470.216	-200.000	0.012	0.140
-469.201	800.000	0.117	-0.380
-468.186	226.053	0.186	-0.300
-467.172	30.760	-0.062	-0.053
-466.157	800.000	0.086	0.264
-465.143	292.572	0.034	0.062
-464.128	-93.963	0.347	-0.095
-463.113	647.847	-0.048	-0.123
-462.099	5.266	0.191	0.140
-461.084	-200.000	0.015	-0.107
-460.070	-71.088	-0.180	0.067
-459.055	-200.000	0.008	-0.158
-458.040	-200.000	-0.042	0.559
-457.026	-121.831	-0.068	-0.011
-456.011	-200.000	0.026	-0.199
-454.997	-0.132	-0.062	0.044
-453.982	-200.000	-0.011	0.194
-452.968	-200.000	-0.033	-0.416
-451.953	-24.697	0.341	0.201
-450.938	-200.000	-0.048	0.232
-449.924	-54.089	-0.293	-0.132
-448.909	-47.935	-0.247	0.119
-447.895	-35.916	0.480	-0.258
-446.880	-8.779	-0.079	0.053
-445.865	168.354	-0.093	0.132
-444.851	-38.429	0.247	-0.130
-443.836	5.730	-0.220	-0.161
-442.822	-109.513	0.140	0.029
-441.807	-122.278	-0.313	0.051
-440.792	340.051	0.064	0.123
-439.778	-180.527	0.278	-0.006
-438.763	613.814	-0.131	0.325
-437.749	338.347	0.175	0.337
-436.734	-172.717	0.022	0.001
-435.719	286.636	0.040	0.071
-434.705	-200.000	-0.017	0.224
-433.690	190.574	0.039	-0.058
-432.676	-110.521	0.446	0.092
-431.661	-81.536	0.178	-0.058
-430.646	-200.000	-0.006	0.075
-429.632	99.323	-0.117	-0.135
-428.617	215.059	-0.055	0.086
-427.603	2.381	-0.162	-0.116
-426.588	66.871	-0.113	-0.114
-425.573	-200.000	-0.033	-0.337
-424.559	180.496	-0.155	0.225
-423.544	-137.182	0.114	0.013
-422.530	132.606	0.101	-0.129
-421.515	-41.118	-0.178	-0.091
-420.500	-200.000	0.020	0.336
-419.486	186.197	-0.246	0.363
-418.471	502.657	0.117	0.269
-417.457	-200.000	0.044	-0.444
-416.442	27.120	0.253	0.211
-415.428	-170.298	-0.470	0.016
-414.413	87.298	0.115	0.126
-413.398	-200.000	-0.026	-0.336
-412.384	-200.000	-0.008	-0.315
-411.369	91.888	0.196	-0.219
-410.355	18.495	0.184	0.146
-409.340	-51.208	0.153	0.071
-408.325	-200.000	0.014	-0.158
-407.311	-102.856	-0.221	-0.052
-406.296	-22.847	0.243	0.145
-405.282	-200.000	-0.007	0.068
-404.267	312.781	-0.037	0.070
-403.252	197.328	-0.146	0.220
-402.238	800.000	0.037	-0.109
-401.223	-114.521	0.164	0.031
-400.209	-15.269	-0.225	0.142
-399.194	-130.858	0.103	0.014
-398.179	115.377	-0.033	-0.041
-397.165	800.000	-0.052	-0.178
-396.150	724.458	0.080	-0.212
-395.136	-200.000	-0.027	0.262
-394.121	-200.000	0.008	-0.058
-393.106	12.345	-0.205	-0.157
-392.092	28.190	-0.154	-0.129
-391.077	174.420	0.087	-0.125
-390.063	9.575	0.213	0.160
-389.048	77.550	-0.220	0.232
-388.033	-200.000	0.009	-0.056
-387.019	-75.885	0.200	-0.070
-386.004	-200.000	-0.003	0.336
-384.990	-116.785	0.355	-0.064
-383.975	148.570	-0.125	0.167
-382.960	20.015	-0.179	-0.143
-381.946	4.746	0.196	-0.142
-380.931	-4.632	0.243	-0.166
-379.917	800.000	0.147	-0.420
-378.902	131.863	-0.168	-0.215
-377.888	-43.435	0.310	-0.155
-376.873	528.525	0.023	0.054
-375.858	-200.000	0.001	0.252
-374.844	169.870	-0.085	-0.120
-373.829	148.988	-0.167	-0.223
-372.815	37.399	-0.280	-0.246
-371.800	546.060	-0.110	-0.260
-370.785	-154.280	-0.126	0.008
-369.771	-56.422	-0.039	-0.017
-368.756	10.506	-0.161	-0.121
-367.742	-91.481	0.206	0.058
-366.727	170.965	0.143	0.203
-365.712	-28.270	0.271	0.155
-364.698	315.505	0.098	-0.182
-363.683	275.239	-0.046	0.080
-362.669	800.000	-0.113	0.363
-361.654	-99.003	0.305	-0.077
-360.639	47.388	0.302	0.278
-359.625	800.000	-0.062	-0.200
-358.610	-86.571	-0.081	0.025
-357.596	-74.170	-0.199	0.071
-356.581	-200.000	-0.050	-0.244
-355.566	-200.000	0.000	-0.282
-354.552	655.313	-0.059	0.151
-353.537	155.185	-0.118	-0.160
-352.523	800.000	0.062	0.207
-351.508	198.678	0.077	-0.117
-350.493	-200.000	-0.001	0.120
-349.479	-200.000	-0.075	0.361
-348.464	38.208	0.251	0.221
-347.450	-200.000	-0.005	0.025
-346.435	-68.016	-0.104	-0.040
-345.420	341.519	0.042	-0.080
-344.406	387.555	0.054	0.110
-343.391	234.489	0.089	-0.146
-342.377	-200.000	0.018	0.082
-341.362	-170.525	0.243	-0.008
-340.348	226.016	-0.044	0.070
-339.333	62.256	-0.191	-0.188
-338.318	-82.575	0.130	0.042
-337.304	-25.221	0.032	0.019
-336.289	241.391	-0.027	0.045
-335.275	-200.000	-0.030	0.232
-334.260	-102.378	-0.321	0.076
-333.245	82.519	0.192	0.206
-332.231	-200.000	-0.060	-0.365
-331.216	-26.924	-0.121	-0.070
-330.202	464.042	0.108	-0.238
-329.187	-86.129	-0.135	0.041
-328.172	463.891	0.105	0.231
-327.158	-138.583	0.247	-0.027
-326.143	-200.000	-0.005	-0.181
-325.129	14.583	-0.200	-0.154
-324.114	762.079	-0.069	0.186
-323.099	800.000	0.066	-0.216
-322.085	-136.548	0.199	-0.023
-321.070	189.578	0.096	-0.143
-320.056	-113.193	-0.365	-0.071
-319.041	800.000	-0.101	-0.291
-318.026	20.616	0.251	-0.201
-317.012	800.000	-0.108	-0.340
-315.997	8.816	-0.317	0.236
-314.983	63.718	-0.117	-0.116
-313.968	746.714	-0.078	-0.209
-312.953	190.739	-0.142	-0.211
-311.939	-11.990	-0.109	-0.070
-310.924	-200.000	0.028	0.139
-309.910	343.159	-0.084	0.163
-308.895	166.073	-0.120	0.167
-307.880	-200.000	-0.003	-0.124
-306.866	172.052	0.241	-0.342
-305.851	-100.970	-0.206	-0.050
-304.837	198.396	-0.170	0.257
-303.822	139.979	-0.231	0.301
-302.807	800.000	-0.032	0.127
-301.793	-6.451	-0.118	0.079
-300.778	-33.385	0.469	0.256
-299.764	-200.000	0.019	0.121
-298.749	420.060	0.042	0.089
-297.735	-110.880	-0.228	0.046
-296.720	-200.000	0.004	-0.194
-295.705	-33.213	0.277	-0.151
-294.691	-200.000	-0.069	0.361
-293.676	-16.558	-0.156	0.098
-292.662	30.163	0.228	0.192
-291.647	47.415	0.152	-0.139
-290.632	-200.000	-0.019	0.124
-289.618	101.508	0.219	0.252
-288.603	623.505	-0.043	-0.106
-287.589	800.000	-0.036	-0.099
-286.574	3.692	-0.212	0.153
-285.559	0.728	0.216	-0.152
-284.545	-38.605	0.193	-0.100
-283.530	194.101	-0.047	-0.071
-282.516	-80.752	0.168	-0.055
-281.501	800.000	0.093	0.292
-280.486	185.720	0.053	-0.078
-279.472	477.944	0.024	0.054
-278.457	76.704	-0.206	0.215
-277.443	-200.000	0.040	-0.182
-276.428	-101.043	-0.258	-0.062
-275.413	-102.424	0.130	-0.031
-274.399	799.921	-0.116	-0.316
-273.384	195.153	-0.185	0.277
-272.370	-200.000	-0.024	0.123
-271.355	-36.295	-0.199	-0.106
-270.340	-98.138	-0.230	0.058
-269.326	-200.000	-0.058	0.272
-268.311	-200.000	0.029	0.142
-267.297	800.000	0.097	-0.279
-266.282	800.000	-0.101	0.370
-265.267	14.645	-0.162	0.124
-264.253	-140.431	-0.207	-0.021
-263.238	219.171	-0.032	0.051
-262.224	596.291	-0.116	0.283
-261.209	-101.238	0.170	0.041
-260.195	-39.917	0.436	0.224
-259.180	-71.448	0.237	-0.088
-258.165	-50.209	0.393	-0.183
-257.151	800.000	-0.071	-0.260
-256.136	142.015	-0.145	-0.190
-255.122	413.410	0.098	-0.204
-254.107	-150.557	-0.077	-0.006
-253.092	800.000	-0.046	0.143
-252.078	-47.473	-0.425	0.203
-251.063	-44.486	0.419	-0.207
-250.049	-70.869	0.128	-0.047
-249.034	-200.000	-0.013	0.155
-248.019	-181.632	-0.111	-0.002
-247.005	347.852	-0.042	0.081
-245.990	104.269	-0.074	-0.086
-244.976	772.454	-0.122	0.326
-243.961	0.923	0.196	0.138
-242.946	-102.250	-0.093	0.022
-241.932	800.000	0.033	0.092
-240.917	-173.163	-0.165	0.005
-239.903	800.000	-0.046	0.194
-238.888	288.058	0.137	0.245
-237.873	148.043	0.116	0.154
-236.859	8.171	0.141	-0.104
-235.844	-118.455	0.561	0.098
-234.830	289.955	0.038	-0.068
-233.815	800.000	-0.050	0.162
-232.800	-48.499	0.103	0.049
-231.786	-10.419	0.229	-0.149
-230.771	-82.752	-0.148	-0.047
-229.757	787.254	0.115	-0.309
-228.742	800.000	0.082	0.267
-227.727	-126.433	-0.150	0.022
-226.713	-61.646	0.273	0.113
-225.698	-200.000	0.011	0.133
-224.684	87.339	0.082	0.089
-223.669	-192.638	0.256	0.002
-222.655	-169.573	0.184	-0.007
-221.640	294.199	-0.050	-0.090
-220.625	-67.763	0.314	0.121
-219.611	-200.000	-0.003	0.106
-218.596	42.715	-0.025	0.022
-217.582	-129.745	-0.124	-0.017
-216.567	-79.420	-0.259	0.086
-215.552	-173.333	0.463	-0.014
-214.538	-109.947	0.105	0.022
-213.523	133.257	-0.027	0.035
-212.509	514.329	-0.094	-0.215
-211.494	232.813	0.034	-0.055
-210.479	-200.000	-0.000	-0.111
-209.465	-167.384	0.268	-0.011
-208.450	309.689	-0.067	-0.124
-207.436	514.045	-0.086	-0.198
-206.421	-200.000	-0.003	-0.109
-205.406	-0.992	-0.213	0.148
-204.392	-13.881	-0.217	-0.138
-203.377	800.000	0.064	0.223
-202.363	175.214	0.137	-0.195
-201.348	-200.000	-0.003	0.211
-200.333	-200.000	0.005	-0.221
-199.319	-92.971	-0.216	-0.059
-198.304	0.256	0.093	0.065
-197.290	-111.297	0.296	-0.060
-196.275	-200.000	0.003	-0.286
-195.260	525.343	-0.056	0.130
-194.246	269.807	0.192	0.332
-193.231	351.594	-0.070	-0.135
-192.217	225.388	-0.150	-0.239
-191.202	138.540	0.134	-0.173
-190.187	-104.541	0.256	0.058
-189.173	-135.553	0.182	-0.021
-188.158	67.841	-0.273	0.275
-187.144	-200.000	-0.014	0.243
-186.129	93.114	0.042	-0.047
-185.114	-76.684	-0.430	0.148
-184.100	800.000	-0.100	0.350
-183.085	54.482	-0.211	0.200
-182.071	137.603	0.076	-0.098
-181.056	237.699	0.135	-0.220
-180.042	529.202	-0.058	0.135
-179.027	-46.681	-0.163	0.078
-178.012	-74.680	-0.266	0.094
-176.998	46.180	0.337	-0.306
-175.983	-51.957	0.239	-0.109
-174.969	-149.983	-0.038	0.003
-173.954	-200.000	-0.023	-0.137
-172.939	721.786	0.056	-0.147
-171.925	-18.436	-0.172	0.105
-170.910	-200.000	0.042	-0.251
-169.896	284.943	0.091	0.161
-168.881	-200.000	-0.061	0.327
-167.866	393.058	-0.175	-0.357
-166.852	-117.163	0.245	0.044
-165.837	-200.000	-0.006	0.130
-164.823	-88.357	0.047	-0.014
-163.808	-59.372	0.229	-0.097
-162.793	-109.538	0.124	0.026
-161.779	327.264	-0.164	0.309
-160.764	-67.301	-0.457	0.176
-159.750	117.743	-0.042	-0.051
-158.735	40.511	0.188	-0.166
-157.720	-85.266	0.173	-0.053
-156.706	-200.000	0.010	-0.313
-155.691	-159.001	-0.353	-0.020
-154.677	439.876	0.234	0.503
-153.662	195.196	0.063	0.094
-152.647	-141.910	-0.333	-0.033
-151.633	520.410	0.186	0.428
-150.618	-144.957	0.087	-0.008
-149.604	108.928	0.249	0.292
-148.589	-135.066	-0.219	-0.026
-147.574	-200.000	0.018	-0.249
-146.560	1.145	0.241	-0.170
-145.545	59.602	0.288	0.278
-144.531	-111.542	0.125	-0.025
-143.516	-109.440	-0.272	0.056
-142.502	-8.988	0.126	0.083
-141.487	800.000	-0.056	0.194
-140.472	63.266	0.092	0.090
-139.458	-200.000	0.005	0.213
-138.443	800.000	-0.072	0.249
-137.429	-117.363	-0.107	-0.019
-136.414	-73.725	-0.265	-0.095
-135.399	-200.000	0.036	-0.200
-134.385	-33.812	-0.193	-0.104
-133.370	-200.000	-0.050	-0.292
-132.356	25.362	0.143	-0.117
-131.341	556.126	0.082	-0.193
-130.326	-127.253	0.226	0.032
-129.312	29.607	0.129	0.107
-128.297	628.869	0.125	0.309
-127.283	-66.560	0.197	-0.077
-126.268	-200.000	-0.024	-0.211
-125.253	-78.136	0.091	0.031
-124.239	27.218	0.161	-0.132
-123.224	71.341	-0.238	-0.242
-122.210	29.318	0.170	0.142
-121.195	-200.000	0.054	0.286
-120.180	223.940	0.163	0.258
-119.166	-84.423	0.313	0.097
-118.151	269.819	0.108	0.187
-117.137	-200.000	-0.013	0.067
-116.122	-200.000	0.001	0.182
-115.107	-200.000	0.026	0.178
-114.093	112.870	0.276	0.327
-113.078	800.000	0.085	-0.279
-112.064	-200.000	0.072	-0.467
-111.049	-92.239	0.396	0.110
-110.034	322.189	0.091	0.169
-109.020	492.326	-0.053	-0.120
-108.005	53.389	-0.123	-0.115
-106.991	-193.883	0.138	0.001
-105.976	15.093	0.162	0.124
-104.962	-20.521	-0.145	-0.087
-103.947	198.131	0.128	-0.192
-102.932	800.000	0.039	0.122
-101.918	-200.000	0.006	-0.129
-100.903	-19.274	-0.174	0.106
-99.889	-38.144	0.044	-0.023
-98.874	-200.000	-0.009	0.255
-97.859	800.000	0.099	0.273
-96.845	-88.698	-0.052	-0.015
-95.830	-200.000	-0.013	0.233
-94.816	607.339	0.153	0.374
-93.801	-166.983	0.210	0.008
-92.786	51.159	-0.199	0.184
-91.772	-118.328	0.265	-0.046
-90.757	6.945	0.210	0.153
-89.743	-86.612	0.194	0.058
-88.728	-79.474	0.136	0.045
-87.713	-200.000	-0.141	-0.000
-86.699	-200.000	-0.014	-0.094
-85.684	3.211	-0.305	0.217
-84.670	-120.311	0.225	-0.038
-83.655	5.446	-0.086	-0.062
-82.640	10.582	0.144	-0.108
-81.626	-13.393	0.243	0.154
-80.611	340.644	0.068	-0.130
-79.597	-100.385	0.032	0.008
-78.582	-99.596	0.140	0.035
-77.567	-58.266	-0.178	-0.076
-76.553	58.548	0.241	-0.231
-75.538	-200.000	0.011	-0.105
-74.524	286.837	0.139	0.246
-73.509	-94.654	-0.247	0.066
-72.494	37.988	0.159	-0.138
-71.480	-61.910	0.148	-0.061
-70.465	345.134	0.183	0.352
-69.451	-86.250	0.213	-0.064
-68.436	35.925	-0.206	-0.177
-67.422	252.330	-0.125	0.208
-66.407	277.327	0.239	0.415
-65.392	-18.856	0.167	-0.101
-64.378	800.000	-0.046	0.189
-63.363	-159.851	0.106	-0.006
-62.349	-200.000	0.010	-0.080
-61.334	549.366	-0.611	-1.431
-60.319	83.341	0.358	0.382
-59.305	705.214	-0.499	-1.286
-58.290	63.021	1.033	1.011
-57.276	559.155	0.636	1.500
-56.261	-200.000	114.947	646.431
-55.246	468.058	1512.514	3316.519
-54.232	147.458	2676.870	3523.506
-53.217	102.185	2172.827	2480.585
-52.203	37.553	1699.437	1473.599
-51.188	30.356	1516.223	1265.827
-50.173	28.124	1491.523	1230.161
-49.159	52.003	1549.564	1442.303
-48.144	50.413	1565.275	1445.987
-47.130	30.620	1521.459	1271.801
-46.115	27.397	1506.988	1237.780
-45.100	27.286	1502.953	1233.665
-44.086	27.252	1501.290	1232.021
-43.071	27.235	1499.031	1229.998
-42.057	27.265	1497.712	1229.075
-41.042	27.223	1496.210	1227.504
-40.027	27.222	1494.938	1226.410
-39.013	27.200	1493.475	1225.012
-37.998	27.206	1491.934	1223.738
-36.984	27.099	1491.360	1222.499
-35.969	27.175	1489.656	1221.564
-34.954	27.261	1487.962	1220.704
-33.940	27.199	1486.826	1219.311
-32.925	27.311	1485.156	1218.638
-31.911	27.314	1483.895	1217.576
-30.896	27.399	1482.247	1216.746
-29.881	27.326	1481.009	1215.192
-28.867	27.271	1480.559	1214.411
-27.852	27.252	1479.283	1213.188
-26.838	27.234	1477.885	1211.868
-25.823	27.284	1475.701	1210.363
-24.809	27.277	1474.401	1209.204
-23.794	27.337	1472.806	1208.249
-22.779	27.321	1471.731	1207.210
-21.765	27.299	1470.806	1206.259
-20.750	27.274	1469.868	1205.274
-19.736	27.349	1468.426	1204.539
-18.721	27.210	1467.803	1203.062
-17.706	27.319	1466.509	1202.679
-16.692	27.300	1465.448	1201.631
-15.677	27.238	1464.791	1200.639
-14.663	27.290	1463.504	1199.878
-13.648	27.173	1462.826	1198.502
-12.633	27.246	1462.025	1198.281
-11.619	27.197	1461.229	1197.257
-10.604	27.314	1459.815	1196.823
-9.590	27.178	1459.240	1195.408
-8.575	27.208	1458.022	1194.562
-7.560	27.313	1457.264	1194.578
-6.546	27.185	1456.432	1193.009
-5.531	27.180	1455.672	1192.311
-4.517	27.094	1454.731	1190.927
-3.502	27.173	1453.486	1190.380
-2.487	27.200	1452.306	1189.542
-1.473	27.224	1451.594	1189.064
-0.458	27.154	1450.543	1187.701
0.556	25.616	1440.301	1176.500
1.571	22.538	1416.124	1136.822
2.586	19.217	1356.490	1068.289
3.600	17.641	1274.422	994.384
4.615	16.525	1229.420	952.897
5.629	16.073	1177.129	909.847
6.644	13.534	1101.559	838.525
7.659	11.207	1067.738	801.276
8.673	10.892	1063.182	796.245
9.688	10.930	1059.039	793.258
10.702	10.876	1057.719	791.932
11.717	10.822	1056.022	790.332
12.731	11.750	1055.069	794.056
13.746	14.293	1058.787	809.156
14.761	16.864	1061.928	823.997
15.775	17.715	1061.653	827.849
16.790	17.063	1059.805	823.172
17.804	15.943	1057.841	816.148
18.819	15.068	1055.868	810.321
19.834	14.563	1054.038	806.406
20.848	14.266	1053.257	804.302
21.863	13.978	1052.682	802.401
22.877	13.823	1051.698	800.831
23.892	13.585	1051.029	799.102
24.907	13.555	1049.940	798.061
25.921	13.508	1049.651	797.545
26.936	13.335	1048.613	795.851
27.950	13.437	1047.908	795.735
28.965	13.639	1046.278	795.395
29.980	13.728	1045.314	795.018
30.994	13.814	1044.023	794.380
32.009	13.816	1043.503	793.924
33.023	13.847	1043.176	793.754
34.038	13.736	1042.300	792.487
35.053	13.734	1041.041	791.450
36.067	13.569	1040.479	790.163
37.082	13.694	1039.267	789.768
38.096	13.599	1039.193	789.190
39.111	13.651	1038.150	788.575
40.126	13.683	1036.828	787.656
41.140	13.691	1036.032	787.020
42.155	13.457	1035.104	785.137
43.169	13.491	1033.901	784.312
44.184	13.604	1032.860	783.986
45.199	13.544	1031.317	782.464
46.213	13.448	1030.812	781.557
47.228	13.520	1029.662	780.957
48.242	13.557	1028.652	780.296
49.257	13.607	1027.922	779.911
50.271	13.617	1026.556	778.853
51.286	13.693	1025.888	778.633
52.301	13.638	1025.181	777.771
53.315	13.663	1024.016	776.936
54.330	13.629	1023.322	776.180
55.344	13.722	1022.056	775.583
56.359	13.689	1021.543	774.974
57.374	13.584	1020.273	773.452
58.388	13.519	1019.841	772.753
59.403	13.546	1018.937	772.122
60.417	13.350	1018.129	770.529
61.432	13.403	1017.651	770.347
62.447	13.427	1016.270	769.344
63.461	13.303	1016.008	768.503
64.476	13.446	1014.808	768.192
65.490	13.395	1014.217	767.438
66.505	13.464	1012.687	766.531
67.520	13.405	1012.181	765.811
68.534	13.409	1011.521	765.258
69.549	13.524	1010.785	765.165
70.563	13.558	1009.954	764.629
71.578	13.503	1008.890	763.499
72.593	13.538	1008.116	763.007
73.607	13.360	1007.225	761.448
74.622	13.328	1006.491	760.676
75.636	13.502	1005.269	760.487
76.651	13.450	1004.557	759.640
77.666	13.270	1003.984	758.317
78.680	13.441	1003.191	758.435
79.695	13.343	1003.086	757.837
80.709	13.451	1001.611	757.149
81.724	13.497	1000.879	756.740
82.739	13.552	1000.435	756.588
83.753	13.614	999.694	756.244
84.768	13.595	999.143	755.675
85.782	13.687	998.369	755.441
86.797	13.704	997.672	754.922
87.812	13.837	996.540	754.604
88.826	13.665	995.952	753.311
89.841	13.736	994.748	752.656
90.855	13.647	994.381	751.909
91.870	13.685	993.133	751.071
92.884	13.755	992.473	750.823
93.899	13.848	991.900	750.744
94.914	13.768	991.071	749.685
95.928	13.816	990.559	749.450
96.943	13.880	989.469	748.847
97.957	13.816	988.807	747.991
98.972	13.835	987.810	747.259
99.987	13.841	987.192	746.751
101.001	13.824	986.345	745.966
102.016	13.746	985.833	745.166
103.030	13.744	984.769	744.285
104.045	13.827	983.499	743.632
105.060	13.862	982.754	743.158
106.074	13.836	981.440	741.983
107.089	13.609	981.096	740.645
108.103	13.489	980.378	739.502
109.118	13.632	979.206	739.187
110.133	13.535	978.382	738.070
111.147	13.624	977.558	737.776
112.162	13.490	976.801	736.545
113.176	13.542	975.922	736.048
114.191	13.665	974.829	735.704
115.206	13.613	974.397	735.084
116.220	13.645	973.445	734.441
117.235	13.678	972.573	733.866
118.249	13.562	971.810	732.710
119.264	13.685	970.916	732.514
120.279	13.505	970.314	731.202
121.293	13.525	969.226	730.406
122.308	13.594	968.706	730.251
123.322	13.536	967.862	729.296
124.337	13.547	966.618	728.342
125.352	13.580	965.118	727.292
126.366	13.480	964.600	726.401
127.381	13.491	963.036	725.205
128.395	13.490	962.175	724.487
129.410	13.510	960.949	723.588
130.424	13.507	960.534	723.200
131.439	13.596	959.418	722.684
132.454	13.538	958.953	722.017
133.468	13.575	957.989	721.389
134.483	13.726	957.566	721.665
135.497	13.577	957.193	720.669
136.512	13.615	956.022	719.889
137.527	13.681	955.386	719.633
138.541	13.621	954.413	718.576
139.556	13.564	953.874	717.860
140.570	13.652	953.053	717.562
141.585	13.754	952.424	717.466
142.600	13.744	951.817	716.898
143.614	13.712	951.335	716.335
144.629	13.820	950.331	715.983
145.643	13.873	949.469	715.499
146.658	13.839	949.023	714.951
147.673	13.857	947.603	713.898
148.687	13.757	946.742	712.756
149.702	13.659	945.645	711.445
150.716	13.719	945.062	711.201
151.731	13.632	944.017	709.979
152.746	13.777	943.623	710.239
153.760	13.689	942.777	709.164
154.775	13.708	942.432	708.923
155.789	13.710	941.481	708.156
156.804	13.801	941.004	708.120
157.819	13.821	939.811	707.246
158.833	13.827	939.334	706.851
159.848	13.962	938.728	706.905
160.862	14.070	938.105	706.835
161.877	13.956	937.617	705.920
162.892	13.880	936.223	704.484
163.906	13.781	935.351	703.345
164.921	13.752	934.934	702.846
165.935	13.708	933.751	701.710
166.950	13.739	933.318	701.452
167.964	13.978	931.839	701.289
168.979	13.862	931.096	700.176
169.994	14.013	929.888	699.843
171.008	13.950	929.052	698.887
172.023	13.991	928.192	698.352
173.037	14.035	927.601	698.028
174.052	13.936	926.799	696.947
175.067	13.951	926.317	696.588
176.081	13.967	925.340	695.859
177.096	13.966	924.456	695.127
178.110	13.843	923.640	693.940
179.125	13.998	923.068	694.097
180.140	14.073	922.026	693.563
181.154	13.943	921.929	692.888
182.169	14.084	921.045	692.748
183.183	14.139	920.240	692.311
184.198	14.022	919.762	691.403
185.213	14.048	919.143	690.984
186.227	14.044	918.649	690.533
187.242	14.155	918.064	690.494
188.256	14.097	917.718	689.933
189.271	14.267	916.544	689.693
190.286	14.188	915.754	688.713
191.300	14.081	914.640	687.373
192.315	14.077	913.774	686.643
193.329	13.884	913.869	685.858
194.344	14.026	912.637	685.456
195.359	13.951	912.534	685.009
196.373	14.089	911.765	684.941
197.388	14.000	911.561	684.361
198.402	14.297	910.486	684.715
199.417	14.278	910.251	684.399
200.432	14.394	909.653	684.363
201.446	14.423	909.452	684.272
202.461	14.312	909.547	683.827
203.475	14.481	908.318	683.535
204.490	14.482	907.749	683.050
205.504	14.406	906.787	681.954
206.519	14.400	906.266	681.480
207.534	14.333	905.315	680.431
208.548	14.438	903.986	679.797
209.563	14.492	903.400	679.519
210.577	14.478	903.122	679.192
211.592	14.373	902.929	678.558
212.607	14.510	902.084	678.422
213.621	14.637	901.417	678.375
214.636	14.598	900.695	677.613
215.650	14.560	900.283	677.090
216.665	14.579	900.102	676.970
217.680	14.618	899.042	676.271
218.694	14.674	898.636	676.131
219.709	14.653	898.377	675.795
220.723	14.617	897.225	674.721
221.738	14.618	896.942	674.453
222.753	14.582	896.495	673.911
223.767	14.627	895.615	673.372
224.782	14.685	894.655	672.825
225.796	14.837	893.700	672.660
226.811	14.809	893.231	672.133
227.826	14.877	891.836	671.299
228.840	14.840	892.085	671.277
229.855	14.772	891.414	670.441
230.869	14.706	890.670	669.555
231.884	14.682	889.970	668.874
232.899	14.687	889.288	668.323
233.913	14.725	888.214	667.607
234.928	14.613	887.663	666.689
235.942	14.750	886.842	666.558
236.957	14.719	886.420	666.060
237.972	14.731	885.616	665.442
238.986	14.591	885.537	664.770
240.001	14.741	884.641	664.634
241.015	14.683	884.057	663.903
242.030	14.899	883.045	663.943
243.045	14.742	882.651	662.968
244.059	14.821	882.061	662.777
245.074	14.819	881.254	662.106
246.088	14.947	880.424	661.930
247.103	14.941	880.251	661.715
248.117	15.005	879.412	661.279
249.132	14.955	879.183	660.850
250.147	15.104	878.470	660.845
251.161	14.953	878.168	659.965
252.176	15.220	877.474	660.438
253.190	15.249	876.546	659.796
254.205	15.224	876.344	659.487
255.220	15.312	875.506	659.141
256.234	15.298	874.666	658.398
257.249	15.366	874.124	658.199
258.263	15.300	873.552	657.449
259.278	15.305	873.129	657.093
260.293	15.436	872.606	657.152
261.307	15.284	872.020	656.061
262.322	15.504	870.855	655.984
263.336	15.463	870.857	655.769
264.351	15.392	870.490	655.158
265.366	15.509	869.330	654.680
266.380	15.458	868.814	654.037
267.395	15.639	868.009	654.077
268.409	15.458	867.445	652.889
269.424	15.439	866.980	652.408
270.439	15.496	865.912	651.767
271.453	15.656	864.918	651.582
272.468	15.527	864.598	650.783
273.482	15.414	864.135	649.942
274.497	15.453	863.558	649.602
275.512	15.464	862.734	648.964
276.526	15.550	862.080	648.749
277.541	15.477	861.533	647.996
278.555	15.564	860.956	647.843
279.570	15.597	860.571	647.621
280.585	15.735	859.820	647.529
281.599	15.712	859.454	647.110
282.614	15.826	858.203	646.547
283.628	15.584	857.875	645.314
284.643	15.640	857.469	645.166
285.657	15.732	856.603	644.811
286.672	15.678	856.189	644.237
287.687	15.570	855.984	643.611
288.701	15.685	855.440	643.584
289.716	15.700	854.746	643.061
290.730	15.741	853.953	642.566
291.745	15.661	853.560	641.908
292.760	15.738	852.899	641.649
293.774	15.810	852.215	641.351
294.789	15.803	851.687	640.871
295.803	15.900	851.259	640.859
296.818	15.810	850.545	639.923
297.833	15.694	849.903	638.943
298.847	15.921	849.168	639.196
299.862	15.872	848.692	638.596
300.876	15.943	847.941	638.241
301.891	16.013	846.493	637.362
302.906	15.912	846.333	636.801
303.920	16.053	845.819	636.892
304.935	16.067	845.444	636.608
305.949	15.962	845.026	635.839
306.964	16.009	844.166	635.314
307.979	16.114	843.436	635.103
308.993	16.175	843.196	635.094
310.008	16.160	842.842	634.714
311.022	16.077	842.467	634.067
312.037	16.160	841.664	633.717
313.052	16.048	841.236	632.917
314.066	16.181	840.178	632.567
315.081	16.034	839.954	631.789
316.095	16.145	839.185	631.571
317.110	15.989	838.957	630.758
318.125	15.985	838.385	630.260
319.139	16.170	837.724	630.398
320.154	16.042	837.365	629.592
321.168	16.084	837.232	629.593
322.183	16.192	836.165	629.139
323.197	16.087	835.802	628.417
324.212	16.282	834.944	628.445
325.227	16.208	834.564	627.826
326.241	16.248	833.601	627.194
327.256	16.230	833.566	627.048
328.270	16.184	832.647	626.130
329.285	16.292	832.031	626.010
330.300	16.309	831.903	625.922
331.314	16.282	831.089	625.155
332.329	16.207	830.991	624.747
333.343	16.312	829.943	624.292
334.358	16.307	829.356	623.777
335.373	16.406	829.076	623.879
336.387	16.414	828.298	623.267
337.402	16.370	827.834	622.699
338.416	16.367	827.373	622.286
339.431	16.324	827.038	621.821
340.446	16.570	826.422	622.206
341.460	16.544	825.674	621.495
342.475	16.565	825.162	621.131
343.489	16.652	824.559	620.941
344.504	16.613	824.275	620.530
345.519	16.634	823.565	620.018
346.533	16.588	823.200	619.518
347.548	16.592	823.175	619.460
348.562	16.628	822.459	618.997
349.577	16.664	821.555	618.395
350.592	16.645	820.991	617.845
351.606	16.547	820.530	617.086
352.621	16.482	820.077	616.453
353.635	16.571	819.953	616.630
354.650	16.675	819.183	616.376
355.665	16.671	818.846	616.055
356.679	16.613	818.676	615.659
357.694	16.644	818.067	615.260
358.708	16.634	817.505	614.748
359.723	16.706	816.882	614.484
360.738	16.742	816.141	614.006
361.752	16.789	815.605	613.718
362.767	16.821	815.340	613.579
363.781	16.808	815.032	613.246
364.796	16.902	814.401	613.058
365.810	16.925	814.144	612.892
366.825	17.137	813.459	613.089
367.840	16.998	813.219	612.352
368.854	16.933	813.014	611.908
369.869	16.988	812.444	611.624
370.883	17.063	811.497	611.126
371.898	16.989	811.397	610.730
372.913	17.093	810.488	610.365
373.927	17.137	809.783	609.940
374.942	17.017	809.413	609.174
375.956	16.967	809.079	608.692
376.971	17.278	808.156	609.058
377.986	17.227	807.572	608.383
379.000	17.320	807.059	608.273
380.015	17.288	806.671	607.813
381.029	17.260	806.180	607.290
382.044	17.222	805.564	606.633
383.059	17.186	805.066	606.079
384.073	17.254	804.602	605.918
385.088	17.246	803.971	605.359
386.102	17.216	803.630	604.941
387.117	17.056	803.092	603.915
388.132	17.183	802.304	603.721
389.146	17.146	802.109	603.389
390.161	17.185	801.795	603.237
391.175	17.327	801.367	603.367
392.190	17.353	800.707	602.908
393.205	17.349	800.247	602.494
394.219	17.301	800.037	602.112
395.234	17.319	799.237	601.521
396.248	17.284	798.692	600.936
397.263	17.215	798.548	600.529
398.278	17.323	797.898	600.370
399.292	17.101	797.559	599.277
400.307	17.230	797.388	599.552
401.321	17.321	796.710	599.307
402.336	17.265	796.447	598.859
403.350	17.358	795.999	598.797
404.365	17.567	795.377	599.011
405.380	17.470	795.067	598.383
406.394	17.533	794.643	598.234
407.409	17.531	794.398	597.990
408.423	17.608	793.509	597.539
409.438	17.544	793.517	597.265
410.453	17.630	793.021	597.142
411.467	17.815	792.381	597.253
412.482	17.641	792.020	596.320
413.496	17.704	791.629	596.194
414.511	17.822	791.064	596.129
415.526	17.711	790.685	595.401
416.540	17.636	790.699	595.097
417.555	17.712	790.063	594.832
418.569	17.759	789.256	594.334
419.584	17.879	788.887	594.421
420.599	17.924	788.359	594.127
421.613	111.614	1293.126	1475.847
422.628	95.837	1366.647	1475.942
