DTS Sentinel unit serial number:	SN413079Multiplexer serial number:	ORYXHardware model number:	OX4-SRSoftware version number:	ORYX F/W v4.00 Oryx Data Collector v3.7.2.0data status	okinstallation	princeton_trtdifferential loss correction	single-endedforward channel	channel 3reverse channel	N/Adate	2019/09/16time	01:16:35forward acquisition time	60.00reverse acquisition time	0.00gamma	496.2192k internal	0.2338k external	0.2338temperature offset calibration	0.9950default loss term (dB/km)	0.3790temperature slope calibration	1.0000multiplexer offset coefficient	1.0000multiplexer slope coefficient	1.0000fibre end	0.00T internal ref (°C)	27.28T ext. ref 1 (°C)	9.84T ext. ref 2 (°C)	21.77length (m)	temperature (°C)	Stokes	anti-Stokes-747.200	-114.878	0.196	0.038
-746.185	-116.333	-0.211	-0.039
-745.171	251.396	0.087	-0.148
-744.156	-72.200	-0.356	0.132
-743.142	55.978	-0.139	0.135
-742.127	21.377	0.107	-0.088
-741.112	-25.985	-0.145	0.086
-740.098	-200.000	0.054	0.408
-739.083	-173.254	0.083	0.003
-738.069	-13.506	-0.337	0.219
-737.054	-131.530	-0.230	0.030
-736.039	31.483	-0.448	-0.386
-735.025	-40.217	0.430	0.224
-734.010	494.855	0.101	-0.233
-732.996	-90.624	-0.206	-0.060
-731.981	-124.594	0.346	-0.054
-730.966	121.473	0.156	0.195
-729.952	-61.773	-0.129	-0.054
-728.937	12.419	-0.198	-0.153
-727.923	-80.271	-0.218	0.073
-726.908	-158.605	0.107	-0.006
-725.894	-104.647	0.075	0.017
-724.879	-9.429	0.081	-0.054
-723.864	-53.637	-0.247	0.113
-722.850	-42.139	0.072	0.037
-721.835	31.065	0.130	0.112
-720.821	-58.540	0.227	-0.099
-719.806	-87.524	0.174	-0.053
-718.791	-200.000	0.023	-0.250
-717.777	348.977	0.029	-0.058
-716.762	-111.651	-0.257	-0.052
-715.748	612.360	0.076	-0.190
-714.733	-200.000	-0.320	0.000
-713.718	-112.502	0.150	0.030
-712.704	-156.999	-0.249	-0.015
-711.689	-139.725	-0.369	-0.039
-710.675	135.347	-0.170	-0.221
-709.660	236.513	0.098	0.163
-708.645	85.605	0.146	-0.161
-707.631	-200.000	-0.045	0.301
-706.616	-96.109	-0.129	-0.034
-705.602	-87.251	0.189	0.057
-704.587	34.980	0.125	-0.109
-703.572	800.000	0.078	0.256
-702.558	262.554	-0.112	0.194
-701.543	-3.408	-0.112	-0.078
-700.529	-151.441	-0.542	-0.040
-699.514	4.128	0.186	0.137
-698.499	93.738	-0.158	-0.179
-697.485	-105.064	0.055	0.013
-696.470	98.648	0.064	-0.074
-695.456	11.947	-0.126	0.097
-694.441	12.600	-0.397	0.307
-693.426	251.752	-0.060	-0.102
-692.412	7.285	0.166	-0.124
-691.397	-85.681	0.245	0.076
-690.383	-35.420	-0.322	0.175
-689.368	-200.000	0.014	0.066
-688.354	800.000	0.073	-0.291
-687.339	-76.164	-0.290	0.102
-686.324	-129.300	0.124	0.017
-685.310	158.415	-0.124	-0.172
-684.295	-27.920	0.273	-0.158
-683.281	-20.113	-0.237	0.146
-682.266	79.693	0.167	0.179
-681.251	-47.562	0.261	-0.127
-680.237	-160.847	0.132	0.007
-679.222	153.735	0.039	-0.054
-678.208	-94.153	-0.132	0.036
-677.193	800.000	0.035	-0.130
-676.178	-44.094	0.249	0.125
-675.164	654.649	-0.137	0.351
-674.149	-51.164	-0.199	-0.093
-673.135	-200.000	0.074	-0.399
-672.120	-200.000	0.034	0.310
-671.105	-58.183	-0.384	0.167
-670.091	-101.989	0.269	0.065
-669.076	308.424	0.040	-0.074
-668.062	301.320	-0.019	-0.035
-667.047	266.656	-0.071	0.124
-666.032	-200.000	0.026	0.177
-665.018	-113.743	0.051	0.010
-664.003	34.546	-0.109	-0.096
-662.989	79.582	-0.112	0.121
-661.974	-47.844	-0.164	-0.079
-660.959	800.000	-0.030	-0.121
-659.945	40.263	0.105	0.094
-658.930	-131.211	0.160	0.021
-657.916	415.629	-0.111	-0.237
-656.901	-200.000	-0.003	0.266
-655.886	385.059	-0.081	-0.168
-654.872	-84.391	0.282	-0.089
-653.857	-32.814	-0.093	-0.051
-652.843	-48.978	0.201	0.096
-651.828	-200.000	0.008	0.100
-650.814	800.000	-0.047	0.145
-649.799	-128.651	-0.211	0.030
-648.784	124.625	-0.101	-0.127
-647.770	-51.862	-0.252	-0.117
-646.755	60.406	-0.102	0.101
-645.741	-50.415	0.237	-0.112
-644.726	192.105	-0.090	0.135
-643.711	-161.139	0.481	0.025
-642.697	-200.000	-0.017	0.271
-641.682	134.187	-0.100	-0.130
-640.668	107.139	0.212	0.252
-639.653	427.808	0.132	0.285
-638.638	-36.307	-0.168	0.090
-637.624	800.000	-0.036	0.116
-636.609	-7.198	-0.089	-0.060
-635.595	-200.000	-0.021	-0.246
-634.580	800.000	-0.056	0.186
-633.565	800.000	-0.032	0.099
-632.551	-121.216	0.028	0.005
-631.536	212.117	0.079	0.124
-630.522	-200.000	0.035	0.199
-629.507	-72.745	0.179	-0.066
-628.492	-78.480	-0.368	-0.126
-627.478	114.110	-0.277	-0.337
-626.463	-8.962	-0.078	0.052
-625.449	646.132	0.156	0.399
-624.434	559.595	0.108	0.260
-623.419	14.820	0.069	-0.054
-622.405	-138.471	-0.254	0.028
-621.390	156.186	-0.125	0.172
-620.376	-148.897	0.090	0.007
-619.361	309.213	-0.150	-0.280
-618.346	60.922	-0.278	-0.276
-617.332	-200.000	-0.040	-0.354
-616.317	-135.444	-0.144	-0.017
-615.303	-94.273	-0.304	0.083
-614.288	-115.563	0.108	0.020
-613.273	-200.000	0.060	-0.264
-612.259	81.299	0.329	-0.354
-611.244	721.546	0.105	-0.279
-610.230	124.079	0.068	-0.086
-609.215	-200.000	0.028	-0.339
-608.201	-31.224	-0.044	-0.025
-607.186	-200.000	-0.002	-0.150
-606.171	286.332	-0.159	-0.287
-605.157	259.743	0.097	-0.167
-604.142	-43.951	-0.164	0.082
-603.128	-136.206	0.226	0.026
-602.113	-31.912	0.183	-0.102
-601.098	-21.016	0.144	0.088
-600.084	800.000	0.037	-0.155
-599.069	-28.017	0.321	-0.186
-598.055	-200.000	0.000	-0.145
-597.040	-191.941	-0.400	0.004
-596.025	-64.955	0.150	-0.060
-595.011	16.633	-0.157	-0.124
-593.996	125.047	-0.027	-0.034
-592.982	800.000	-0.049	-0.136
-591.967	638.641	0.114	0.288
-590.952	188.148	-0.193	0.288
-589.938	-102.228	-0.230	0.055
-588.923	-78.544	0.097	0.033
-587.909	800.000	-0.042	0.147
-586.894	41.030	0.146	0.131
-585.879	-7.745	-0.181	-0.122
-584.865	60.894	-0.066	0.065
-583.850	83.334	-0.254	0.276
-582.836	800.000	-0.140	0.389
-581.821	-61.370	-0.282	0.118
-580.806	645.555	0.100	0.254
-579.792	800.000	0.068	-0.222
-578.777	-33.251	0.142	-0.078
-577.763	-43.845	0.246	0.123
-576.748	93.796	-0.135	-0.152
-575.733	54.136	-0.407	-0.390
-574.719	50.141	-0.045	0.042
-573.704	-200.000	0.095	0.510
-572.690	-117.633	-0.277	-0.050
-571.675	157.022	0.125	-0.172
-570.661	486.837	0.084	-0.190
-569.646	-200.000	0.006	0.188
-568.631	-155.643	-0.445	-0.028
-567.617	-45.993	0.028	0.014
-566.602	506.098	-0.076	0.175
-565.588	-62.277	-0.304	-0.126
-564.573	-108.214	-0.163	0.035
-563.558	-31.778	-0.125	0.070
-562.544	-112.681	0.180	-0.036
-561.529	800.000	0.125	0.346
-560.515	141.980	-0.114	-0.150
-559.500	-61.220	-0.076	0.032
-558.485	42.919	-0.216	0.196
-557.471	314.537	-0.035	-0.065
-556.456	-30.731	0.142	-0.080
-555.442	117.145	-0.246	-0.301
-554.427	-200.000	-0.063	0.373
-553.412	-133.299	0.355	-0.045
-552.398	320.978	0.100	-0.190
-551.383	-124.463	-0.154	0.024
-550.369	-200.000	0.123	-0.001
-549.354	800.000	0.115	-0.333
-548.339	289.126	0.044	-0.080
-547.325	13.152	-0.075	0.058
-546.310	800.000	0.055	-0.224
-545.296	-156.927	-0.233	-0.014
-544.281	83.459	0.145	0.158
-543.266	-25.019	0.242	0.143
-542.252	-21.453	0.080	0.048
-541.237	38.782	0.194	0.172
-540.223	-15.176	0.048	0.030
-539.208	-200.000	-0.012	-0.171
-538.193	113.966	-0.083	-0.101
-537.179	552.417	-0.076	-0.181
-536.164	800.000	-0.035	-0.099
-535.150	-200.000	0.004	0.393
-534.135	20.649	-0.142	0.114
-533.121	-82.758	0.301	-0.097
-532.106	-177.356	-0.313	-0.008
-531.091	-200.000	-0.007	0.086
-530.077	800.000	-0.049	-0.212
-529.062	72.527	0.054	0.056
-528.048	394.470	0.097	0.202
-527.033	402.976	0.091	0.191
-526.018	-3.922	-0.260	-0.179
-525.004	7.025	0.170	0.126
-523.989	-200.000	-0.033	0.157
-522.975	-21.645	0.189	-0.114
-521.960	-200.000	-0.026	0.181
-520.945	163.907	-0.081	-0.113
-519.931	151.676	-0.114	0.155
-518.916	-200.000	-0.030	0.290
-517.902	121.138	-0.074	0.092
-516.887	800.000	0.085	-0.248
-515.872	-22.444	-0.115	-0.069
-514.858	-0.467	-0.142	-0.100
-513.843	27.402	0.444	0.371
-512.829	-200.000	-0.002	-0.075
-511.814	800.000	0.044	0.169
-510.799	-138.024	-0.085	-0.009
-509.785	101.645	0.077	-0.089
-508.770	-65.619	-0.405	0.162
-507.756	374.397	0.047	-0.095
-506.741	-115.849	0.199	-0.037
-505.726	800.000	-0.007	0.026
-504.712	30.962	-0.171	-0.146
-503.697	189.313	-0.144	-0.214
-502.683	-117.886	-0.159	0.028
-501.668	-166.755	0.256	-0.011
-500.653	-100.661	-0.092	0.023
-499.639	300.507	-0.196	-0.360
-498.624	-200.000	-0.002	-0.049
-497.610	55.361	-0.088	0.084
-496.595	-134.850	0.235	0.028
-495.581	800.000	0.086	0.315
-494.566	-83.321	0.113	0.036
-493.551	-200.000	0.012	0.072
-492.537	-200.000	0.016	0.117
-491.522	-200.000	-0.020	0.139
-490.508	113.761	0.056	-0.068
-489.493	468.004	0.016	0.036
-488.478	-200.000	0.007	0.361
-487.464	159.560	0.125	-0.174
-486.449	-147.267	0.209	-0.018
-485.435	-18.053	0.355	0.221
-484.420	232.724	0.059	0.096
-483.405	-22.397	-0.136	-0.082
-482.391	-200.000	-0.014	-0.299
-481.376	372.433	0.178	0.359
-480.362	-200.000	0.025	0.112
-479.347	704.582	0.091	-0.238
-478.332	98.766	-0.242	-0.278
-477.318	-61.509	0.154	-0.064
-476.303	800.000	0.061	0.229
-475.289	-200.000	-0.004	-0.104
-474.274	472.486	0.010	-0.022
-473.259	-107.149	0.114	-0.025
-472.245	-106.198	0.191	0.043
-471.230	71.821	-0.024	0.025
-470.216	194.152	0.171	0.257
-469.201	30.746	0.051	0.043
-468.186	-200.000	0.007	0.218
-467.172	-155.706	-0.142	-0.009
-466.157	-195.086	0.082	0.001
-465.143	-16.573	-0.123	0.077
-464.128	287.827	0.028	0.051
-463.113	-125.999	-0.105	0.016
-462.099	220.010	0.117	-0.186
-461.084	-70.884	0.064	0.024
-460.070	-98.582	-0.494	0.125
-459.055	-63.804	0.023	-0.009
-458.040	800.000	-0.064	0.274
-457.026	-160.869	-0.199	0.010
-456.011	-200.000	0.008	-0.145
-454.997	-67.300	0.034	0.013
-453.982	52.743	0.099	0.093
-452.968	800.000	0.031	0.121
-451.953	800.000	-0.054	0.188
-450.938	-200.000	-0.030	0.373
-449.924	-58.999	-0.117	0.050
-448.909	210.377	-0.256	-0.399
-447.895	-37.808	-0.077	0.041
-446.880	-99.215	0.124	-0.031
-445.865	297.200	-0.101	0.183
-444.851	79.672	0.164	-0.175
-443.836	269.053	-0.208	-0.361
-442.822	-32.456	-0.113	0.062
-441.807	-93.015	0.493	-0.136
-440.792	800.000	0.037	-0.159
-439.778	-27.349	0.165	-0.095
-438.763	-139.999	0.408	-0.043
-437.749	800.000	-0.146	-0.453
-436.734	-101.846	0.130	-0.031
-435.719	-92.114	0.197	-0.055
-434.705	-78.281	0.313	0.106
-433.690	144.473	0.056	0.074
-432.676	-129.777	-0.338	0.046
-431.661	755.261	0.168	0.450
-430.646	-95.773	0.088	-0.023
-429.632	-61.894	0.157	0.065
-428.617	-122.049	0.151	0.025
-427.603	273.989	0.075	0.131
-426.588	1.047	-0.145	0.103
-425.573	227.062	0.075	-0.120
-424.559	800.000	0.050	-0.149
-423.544	12.307	-0.153	-0.117
-422.530	-200.000	-0.000	-0.030
-421.515	565.649	0.054	0.129
-420.500	-200.000	-0.003	-0.221
-419.486	800.000	-0.017	0.056
-418.471	-200.000	0.084	0.417
-417.457	107.693	-0.148	0.174
-416.442	654.148	0.036	0.091
-415.428	800.000	0.097	-0.340
-414.413	-200.000	-0.037	-0.304
-413.398	-128.657	0.226	-0.032
-412.384	-166.940	-0.131	-0.005
-411.369	103.907	0.134	-0.156
-410.355	-111.330	-0.220	-0.044
-409.340	71.784	0.242	-0.249
-408.325	767.057	-0.099	0.266
-407.311	185.887	0.216	0.318
-406.296	800.000	-0.099	0.378
-405.282	-71.343	-0.181	0.067
-404.267	386.423	-0.037	0.076
-403.252	610.017	0.116	0.287
-402.238	71.778	0.168	0.173
-401.223	-78.700	0.218	-0.074
-400.209	-200.000	0.031	-0.210
-399.194	158.575	-0.144	-0.198
-398.179	556.324	-0.124	-0.295
-397.165	-200.000	0.013	0.247
-396.150	-185.457	-0.159	0.002
-395.136	107.224	0.037	0.044
-394.121	59.343	0.203	-0.198
-393.106	-89.530	-0.181	-0.053
-392.092	391.133	0.123	0.252
-391.077	18.775	-0.250	-0.198
-390.063	-62.884	-0.305	-0.125
-389.048	-200.000	0.027	0.143
-388.033	-120.586	-0.150	0.025
-387.019	77.368	-0.165	-0.174
-386.004	575.814	-0.176	-0.426
-384.990	-34.739	0.189	-0.102
-383.975	800.000	-0.090	-0.360
-382.960	-200.000	0.045	-0.235
-381.946	-127.323	0.356	-0.051
-380.931	-200.000	-0.009	0.161
-379.917	715.323	0.057	0.150
-378.902	-200.000	-0.044	-0.256
-377.888	-55.629	-0.050	0.022
-376.873	-6.059	-0.307	-0.207
-375.858	99.311	0.215	-0.245
-374.844	471.884	-0.082	0.183
-373.829	279.419	-0.088	-0.155
-372.815	498.219	-0.148	-0.337
-371.800	-107.212	-0.102	0.022
-370.785	46.928	-0.096	0.088
-369.771	536.933	-0.115	-0.270
-368.756	-140.590	-0.278	0.029
-367.742	7.344	0.177	0.131
-366.727	-80.414	-0.195	-0.064
-365.712	-200.000	0.042	-0.393
-364.698	27.568	-0.236	-0.196
-363.683	-82.862	-0.166	0.053
-362.669	192.112	0.180	-0.268
-361.654	-23.539	0.177	-0.105
-360.639	196.419	-0.150	0.225
-359.625	800.000	0.074	-0.274
-358.610	-57.488	0.175	-0.076
-357.596	-200.000	-0.006	-0.042
-356.581	21.158	0.093	-0.074
-355.566	-132.771	-0.035	-0.004
-354.552	-138.201	0.053	-0.006
-353.537	-40.623	0.151	0.077
-352.523	-28.459	-0.198	-0.113
-351.508	261.532	-0.128	0.220
-350.493	224.734	-0.073	0.116
-349.479	-200.000	0.000	0.143
-348.464	800.000	0.091	0.336
-347.450	579.230	0.161	0.389
-346.435	289.475	-0.097	0.173
-345.420	406.499	-0.192	0.401
-344.406	528.306	0.058	-0.136
-343.391	-63.370	-0.101	0.041
-342.377	32.973	0.120	0.102
-341.362	-200.000	0.036	-0.238
-340.348	17.555	0.044	-0.035
-339.333	-26.831	0.206	0.119
-338.318	-200.000	0.021	-0.156
-337.304	-95.905	-0.323	-0.085
-336.289	605.512	0.065	-0.160
-335.275	800.000	0.093	0.299
-334.260	-57.755	-0.105	0.045
-333.245	-200.000	0.031	0.143
-332.231	102.357	-0.086	0.100
-331.216	-126.497	0.057	-0.008
-330.202	72.240	0.087	0.089
-329.187	-103.620	-0.071	0.016
-328.172	70.790	0.230	-0.236
-327.158	16.509	-0.065	-0.051
-326.143	800.000	-0.010	-0.032
-325.129	-93.176	-0.325	0.089
-324.114	471.492	-0.084	0.187
-323.099	800.000	0.143	0.394
-322.085	44.937	0.275	0.250
-321.070	207.078	-0.202	-0.311
-320.056	101.629	-0.195	0.224
-319.041	105.781	-0.131	0.153
-318.026	311.075	-0.088	0.163
-317.012	50.557	0.190	-0.178
-315.997	450.115	0.117	0.255
-314.983	524.030	0.062	-0.145
-313.968	43.709	-0.135	-0.122
-312.953	-79.068	-0.188	-0.063
-311.939	-98.001	0.067	-0.017
-310.924	-79.747	-0.156	0.052
-309.910	-200.000	-0.017	0.151
-308.895	-0.221	-0.046	0.032
-307.880	-200.000	0.024	-0.172
-306.866	312.797	-0.123	0.228
-305.851	-122.510	-0.323	-0.052
-304.837	4.847	-0.168	-0.122
-303.822	-109.367	0.488	-0.102
-302.807	-188.276	0.323	0.004
-301.793	800.000	0.020	-0.074
-300.778	800.000	0.044	-0.180
-299.764	-120.011	-0.243	-0.041
-298.749	459.102	0.092	-0.201
-297.735	104.002	0.210	-0.243
-296.720	-54.744	-0.080	0.035
-295.705	-28.684	0.175	-0.099
-294.691	-200.000	-0.001	0.012
-293.676	209.673	-0.197	-0.304
-292.662	104.282	0.034	0.039
-291.647	2.766	-0.326	0.233
-290.632	-92.023	0.097	0.027
-289.618	800.000	0.073	-0.209
-288.603	-200.000	0.057	-0.370
-287.589	-57.125	-0.184	-0.080
-286.574	-173.925	0.093	0.003
-285.559	778.382	-0.156	-0.420
-284.545	612.340	-0.094	0.232
-283.530	505.190	-0.055	-0.126
-282.516	-65.666	0.304	-0.120
-281.501	-126.654	0.194	-0.028
-280.486	-77.667	0.303	-0.103
-279.472	106.090	0.026	0.031
-278.457	-93.207	-0.253	-0.069
-277.443	53.480	0.123	-0.116
-276.428	-57.504	0.092	0.040
-275.413	586.395	-0.082	-0.199
-274.399	-94.950	0.195	-0.052
-273.384	161.958	-0.299	0.413
-272.370	1.505	0.170	0.120
-271.355	86.834	-0.177	0.193
-270.340	481.856	0.103	0.230
-269.326	430.268	0.078	-0.165
-268.311	99.581	-0.115	-0.132
-267.297	-132.583	-0.190	0.024
-266.282	-145.417	-0.144	0.013
-265.267	800.000	-0.096	0.383
-264.253	356.318	0.155	-0.305
-263.238	800.000	-0.029	-0.109
-262.224	185.388	0.188	-0.275
-261.209	-42.679	-0.090	-0.045
-260.195	593.537	0.043	-0.105
-259.180	467.998	-0.143	-0.316
-258.165	581.396	0.116	-0.281
-257.151	-161.442	0.441	-0.022
-256.136	479.162	0.059	0.132
-255.122	-69.859	-0.244	0.092
-254.107	-135.826	0.320	-0.037
-253.092	-94.420	-0.266	0.072
-252.078	252.201	-0.146	0.245
-251.063	-82.988	0.065	-0.021
-250.049	-200.000	-0.008	0.242
-249.034	491.493	0.172	0.388
-248.019	65.705	-0.210	-0.209
-247.005	-200.000	-0.023	0.487
-245.990	800.000	-0.068	-0.194
-244.976	800.000	0.084	0.358
-243.961	-16.471	-0.233	0.146
-242.946	-82.192	0.508	-0.163
-241.932	5.584	0.061	0.045
-240.917	541.169	-0.143	0.335
-239.903	-73.110	0.181	-0.065
-238.888	320.088	0.158	-0.295
-237.873	-149.222	-0.453	0.036
-236.859	-1.675	0.131	-0.091
-235.844	-200.000	-0.016	0.460
-234.830	800.000	0.127	-0.405
-233.815	-148.118	0.148	0.012
-232.800	-108.009	0.378	-0.081
-231.786	32.421	0.141	0.120
-230.771	54.242	0.215	0.203
-229.757	522.503	-0.057	0.131
-228.742	-200.000	0.003	0.165
-227.727	-173.211	-0.103	-0.003
-226.713	407.298	-0.129	-0.269
-225.698	800.000	-0.022	0.073
-224.684	-38.814	-0.165	0.085
-223.669	-200.000	-0.015	-0.099
-222.655	13.284	0.124	-0.094
-221.640	-44.507	-0.182	-0.090
-220.625	-200.000	0.041	0.201
-219.611	-68.785	0.062	0.024
-218.596	-200.000	0.007	0.077
-217.582	-200.000	-0.061	-0.376
-216.567	-78.159	-0.201	0.068
-215.552	162.183	-0.194	-0.267
-214.538	-108.743	-0.143	-0.030
-213.523	210.746	0.166	0.256
-212.509	800.000	0.084	-0.324
-211.494	33.592	-0.127	-0.109
-210.479	-200.000	-0.018	-0.269
-209.465	73.971	-0.352	0.363
-208.450	-47.816	0.139	-0.066
-207.436	-200.000	0.001	-0.031
-206.421	130.915	0.078	-0.098
-205.406	-112.493	0.354	-0.069
-204.392	-5.641	0.089	-0.060
-203.377	500.503	-0.041	-0.093
-202.363	-86.859	0.037	0.011
-201.348	304.382	0.213	0.387
-200.333	39.973	0.204	-0.180
-199.319	-200.000	0.030	-0.135
-198.304	141.926	-0.032	-0.042
-197.290	-200.000	0.020	-0.204
-196.275	156.840	0.146	-0.198
-195.260	-33.901	0.123	-0.066
-194.246	-91.200	-0.262	-0.074
-193.231	278.901	0.079	-0.138
-192.217	-200.000	-0.005	0.197
-191.202	-101.718	-0.126	-0.030
-190.187	43.475	-0.144	0.129
-189.173	-20.276	0.212	0.128
-188.158	83.077	0.292	0.312
-187.144	-60.254	-0.458	0.191
-186.129	454.581	-0.058	-0.127
-185.114	185.456	-0.170	0.248
-184.100	71.062	0.062	-0.063
-183.085	70.799	0.116	-0.118
-182.071	-73.226	0.140	0.050
-181.056	-142.172	-0.210	-0.020
-180.042	180.888	0.103	-0.149
-179.027	800.000	-0.085	0.230
-178.012	120.478	0.143	-0.174
-176.998	220.754	0.021	0.033
-175.983	134.848	0.073	-0.093
-174.969	-158.783	0.125	0.007
-173.954	-20.794	-0.161	-0.097
-172.939	-33.332	0.139	-0.075
-171.925	352.331	0.131	0.255
-170.910	-17.772	0.205	0.126
-169.896	128.867	-0.079	0.099
-168.881	619.036	-0.085	-0.210
-167.866	-103.231	0.220	-0.051
-166.852	800.000	0.054	0.166
-165.837	800.000	-0.096	-0.355
-164.823	98.037	-0.063	-0.071
-163.808	-200.000	-0.004	0.090
-162.793	800.000	-0.047	-0.147
-161.779	-100.991	0.049	-0.012
-160.764	800.000	0.107	0.412
-159.750	1.368	-0.175	0.123
-158.735	-149.681	-0.325	0.025
-157.720	-200.000	-0.007	0.065
-156.706	-200.000	-0.014	0.293
-155.691	68.526	-0.127	0.127
-154.677	-92.232	0.179	0.050
-153.662	-90.435	0.144	-0.041
-152.647	-65.821	0.410	0.161
-151.633	-108.027	0.186	0.040
-150.618	147.446	0.119	0.157
-149.604	-200.000	0.045	-0.233
-148.589	661.890	-0.047	-0.118
-147.574	52.721	0.028	-0.026
-146.560	-18.242	-0.224	-0.137
-145.545	15.776	0.289	0.223
-144.531	-200.000	-0.020	0.413
-143.516	3.499	0.016	-0.011
-142.502	-97.767	0.074	-0.019
-141.487	-86.763	-0.184	-0.055
-140.472	-25.951	0.227	0.131
-139.458	648.365	0.191	0.477
-138.443	225.671	-0.063	0.100
-137.429	-160.957	0.201	-0.010
-136.414	-151.775	0.223	0.016
-135.399	351.926	0.043	-0.084
-134.385	-200.000	0.006	0.110
-133.370	-104.928	0.160	0.036
-132.356	68.015	0.133	0.133
-131.341	689.087	0.103	-0.265
-130.326	-200.000	-0.005	0.235
-129.312	657.872	-0.067	0.169
-128.297	215.205	-0.079	0.123
-127.283	-180.880	-0.331	0.007
-126.268	-200.000	0.095	-0.419
-125.253	-200.000	0.004	0.374
-124.239	178.382	0.330	0.472
-123.224	-200.000	-0.001	-0.033
-122.210	-89.927	0.247	0.071
-121.195	800.000	-0.079	0.233
-120.180	-101.931	0.239	-0.056
-119.166	135.613	0.086	-0.110
-118.151	124.088	-0.065	-0.080
-117.137	400.861	-0.120	0.247
-116.122	-2.632	0.094	-0.065
-115.107	26.078	-0.211	0.172
-114.093	4.551	-0.070	-0.050
-113.078	-200.000	0.058	0.322
-112.064	-200.000	-0.037	0.206
-111.049	53.076	0.182	0.171
-110.034	-200.000	0.041	0.397
-109.020	-85.365	0.191	0.058
-108.005	-200.000	0.011	0.227
-106.991	344.959	0.196	0.377
-105.976	-140.249	-0.166	-0.017
-104.962	201.336	0.147	0.222
-103.947	675.745	-0.157	0.400
-102.932	-60.441	-0.130	-0.054
-101.918	-71.330	0.123	-0.045
-100.903	-150.101	-0.205	-0.016
-99.889	-7.845	0.415	-0.274
-98.874	26.812	-0.134	-0.110
-97.859	233.209	-0.160	0.257
-96.845	-10.617	0.162	0.105
-95.830	-34.822	0.331	0.177
-94.816	800.000	-0.112	-0.309
-93.801	-80.993	-0.458	0.148
-92.786	-22.022	0.264	0.157
-91.772	705.019	-0.039	-0.101
-90.757	-200.000	-0.004	0.235
-89.743	-47.062	-0.440	0.210
-88.728	68.597	-0.080	0.080
-87.713	-21.491	-0.145	0.086
-86.699	241.857	0.055	-0.090
-85.684	123.543	0.111	-0.136
-84.670	2.952	0.327	-0.233
-83.655	800.000	0.081	-0.309
-82.640	123.995	-0.261	-0.320
-81.626	249.504	0.104	0.172
-80.611	-200.000	-0.065	0.341
-79.597	-7.036	-0.077	-0.051
-78.582	-126.048	-0.164	0.024
-77.567	-33.277	-0.254	0.138
-76.553	152.335	0.106	-0.141
-75.538	94.870	0.105	-0.117
-74.524	-34.993	0.282	-0.150
-73.509	-177.841	0.321	-0.008
-72.494	-129.889	-0.384	-0.051
-71.480	-165.142	-0.049	0.002
-70.465	-200.000	-0.052	0.231
-69.451	184.255	0.085	-0.123
-68.436	63.922	0.242	-0.238
-67.422	147.829	-0.098	-0.129
-66.407	800.000	0.081	-0.326
-65.392	541.898	0.030	0.069
-64.378	98.176	0.305	0.344
-63.363	-10.290	-0.196	0.127
-62.349	266.722	0.155	0.264
-61.334	149.752	-0.928	-1.229
-60.319	109.064	0.548	0.640
-59.305	800.000	-0.245	-1.042
-58.290	237.253	0.910	1.473
-57.276	-200.000	0.323	1.497
-56.261	-200.000	114.341	643.167
-55.246	477.700	1500.047	3315.182
-54.232	149.874	2661.723	3524.706
-53.217	102.048	2161.882	2465.120
-52.203	37.509	1691.263	1465.120
-51.188	30.315	1508.586	1258.257
-50.173	28.216	1484.490	1224.092
-49.159	51.595	1541.992	1431.473
-48.144	50.294	1557.721	1437.151
-47.130	30.539	1514.754	1264.730
-46.115	27.576	1499.320	1231.801
-45.100	27.369	1495.948	1227.582
-44.086	27.315	1494.135	1225.684
-43.071	27.262	1491.985	1223.513
-42.057	27.264	1489.901	1221.768
-41.042	27.228	1489.061	1220.791
-40.027	27.414	1486.860	1220.187
-39.013	27.247	1485.816	1218.160
-37.998	27.194	1485.174	1217.234
-36.984	27.234	1483.951	1216.452
-35.969	27.277	1482.111	1215.177
-34.954	27.241	1480.604	1213.658
-33.940	27.313	1479.363	1213.068
-32.925	27.258	1477.995	1211.537
-31.911	27.275	1476.708	1210.542
-30.896	27.376	1475.358	1210.062
-29.881	27.424	1473.989	1209.209
-28.867	27.259	1473.442	1207.616
-27.852	27.336	1471.897	1206.816
-26.838	27.335	1470.322	1205.466
-25.823	27.281	1468.901	1203.900
-24.809	27.212	1467.547	1202.285
-23.794	27.202	1466.159	1201.031
-22.779	27.245	1464.912	1200.245
-21.765	27.285	1463.848	1199.593
-20.750	27.381	1462.758	1199.282
-19.736	27.215	1461.642	1197.227
-18.721	27.309	1460.337	1196.733
-17.706	27.333	1459.480	1196.139
-16.692	27.346	1458.420	1195.306
-15.677	27.358	1456.971	1194.149
-14.663	27.260	1456.441	1193.027
-13.648	27.268	1455.807	1192.511
-12.633	27.312	1454.479	1191.663
-11.619	27.281	1453.716	1190.788
-10.604	27.326	1452.841	1190.318
-9.590	27.318	1452.185	1189.683
-8.575	27.292	1451.204	1188.659
-7.560	27.244	1450.509	1187.730
-6.546	27.286	1449.295	1186.965
-5.531	27.275	1448.615	1186.291
-4.517	27.227	1447.357	1184.900
-3.502	27.324	1446.414	1184.712
-2.487	27.236	1445.663	1183.480
-1.473	27.250	1444.321	1182.425
-0.458	27.327	1443.305	1182.042
0.556	25.685	1433.188	1170.742
1.571	22.764	1409.520	1132.590
2.586	19.526	1349.736	1064.520
3.600	18.086	1267.850	991.505
4.615	17.012	1222.885	950.245
5.629	16.137	1170.557	904.810
6.644	13.074	1094.432	830.507
7.659	10.323	1060.297	791.108
8.673	9.917	1054.773	784.942
9.688	9.813	1052.044	782.338
10.702	9.843	1050.085	780.959
11.717	9.778	1048.513	779.407
12.731	10.972	1048.074	784.777
13.746	14.169	1052.208	803.258
14.761	17.074	1055.498	819.750
15.775	17.712	1055.694	822.911
16.790	16.873	1053.682	817.226
17.804	15.813	1051.511	810.365
18.819	15.060	1049.453	805.089
19.834	14.548	1048.015	801.455
20.848	14.152	1047.378	798.993
21.863	13.979	1046.213	797.204
22.877	13.704	1045.539	795.303
23.892	13.557	1044.773	793.945
24.907	13.530	1043.874	793.063
25.921	13.576	1042.952	792.513
26.936	13.511	1042.370	791.689
27.950	13.569	1041.281	791.071
28.965	13.467	1040.580	789.980
29.980	13.669	1039.077	789.733
30.994	13.768	1037.728	789.105
32.009	13.764	1036.897	788.387
33.023	13.724	1036.475	787.807
34.038	13.880	1035.435	787.686
35.053	13.705	1034.849	786.339
36.067	13.684	1033.907	785.458
37.082	13.714	1032.908	784.770
38.096	13.652	1032.322	783.960
39.111	13.644	1031.740	783.414
40.126	13.763	1030.517	782.974
41.140	13.666	1029.173	781.429
42.155	13.673	1028.235	780.682
43.169	13.555	1027.704	779.652
44.184	13.389	1026.749	778.078
45.199	13.394	1025.621	777.177
46.213	13.393	1024.542	776.289
47.228	13.448	1023.739	775.869
48.242	13.649	1022.343	775.681
49.257	13.693	1021.421	775.117
50.271	13.639	1020.797	774.325
51.286	13.491	1020.345	773.223
52.301	13.686	1018.679	772.799
53.315	13.560	1018.568	772.062
54.330	13.618	1017.163	771.198
55.344	13.510	1016.305	769.975
56.359	13.416	1015.495	768.860
57.374	13.631	1013.956	768.623
58.388	13.495	1013.841	767.837
59.403	13.432	1012.762	766.658
60.417	13.476	1011.932	766.167
61.432	13.364	1011.872	765.535
62.447	13.457	1010.910	765.168
63.461	13.312	1009.981	763.730
64.476	13.341	1008.825	762.920
65.490	13.341	1008.174	762.361
66.505	13.330	1007.199	761.504
67.520	13.356	1006.792	761.252
68.534	13.574	1005.225	760.999
69.549	13.469	1004.778	760.110
70.563	13.524	1003.813	759.568
71.578	13.441	1003.526	758.903
72.593	13.389	1002.563	757.869
73.607	13.365	1001.464	756.859
74.622	13.390	1000.463	756.152
75.636	13.381	999.539	755.347
76.651	13.351	998.748	754.542
77.666	13.322	998.149	753.893
78.680	13.297	997.061	752.892
79.695	13.367	997.188	753.239
80.709	13.430	996.417	752.878
81.724	13.469	995.704	752.449
82.739	13.378	994.859	751.329
83.753	13.495	994.263	751.345
84.768	13.550	993.623	751.042
85.782	13.729	992.516	750.949
86.797	13.796	991.706	750.575
87.812	13.684	990.728	749.261
88.826	13.641	990.151	748.564
89.841	13.539	989.411	747.480
90.855	13.682	988.168	747.117
91.870	13.665	987.622	746.561
92.884	13.798	986.742	746.428
93.899	13.737	986.087	745.592
94.914	13.637	985.465	744.609
95.928	13.783	984.774	744.675
96.943	13.835	983.744	744.066
97.957	13.766	982.899	743.048
98.972	13.774	981.957	742.306
99.987	13.772	981.317	741.748
101.001	13.839	980.722	741.534
102.016	13.719	980.379	740.672
103.030	13.742	978.917	739.606
104.045	13.738	977.782	738.665
105.060	13.811	977.095	738.406
106.074	13.681	976.359	737.206
107.089	13.560	975.406	735.882
108.103	13.493	974.455	734.802
109.118	13.503	973.774	734.269
110.133	13.454	973.142	733.510
111.147	13.457	972.116	732.686
112.162	13.450	971.229	731.921
113.176	13.622	969.948	731.652
114.191	13.422	969.580	730.427
115.206	13.540	968.440	730.021
116.220	13.621	967.674	729.736
117.235	13.685	966.745	729.252
118.249	13.555	966.256	728.250
119.264	13.621	965.090	727.597
120.279	13.557	964.311	726.661
121.293	13.530	963.806	726.097
122.308	13.621	962.859	725.721
123.322	13.535	962.171	724.760
124.337	13.376	960.982	723.107
125.352	13.452	959.417	722.199
126.366	13.368	958.469	721.053
127.381	13.400	957.671	720.526
128.395	13.359	956.831	719.654
129.410	13.529	955.633	719.430
130.424	13.509	954.550	718.463
131.439	13.510	953.832	717.862
132.454	13.463	953.667	717.472
133.468	13.466	952.924	716.860
134.483	13.670	952.004	716.988
135.497	13.477	951.590	715.778
136.512	13.648	950.367	715.534
137.527	13.587	949.846	714.813
138.541	13.601	948.911	714.108
139.556	13.494	948.654	713.392
140.570	13.762	947.427	713.560
141.585	13.523	946.943	712.104
142.600	13.755	946.054	712.369
143.614	13.750	945.461	711.838
144.629	13.686	944.856	711.044
145.643	13.904	943.558	710.939
146.658	13.873	943.048	710.359
147.673	13.769	941.865	708.960
148.687	13.701	941.593	708.402
149.702	13.573	940.684	707.107
150.716	13.674	939.522	706.605
151.731	13.694	938.260	705.677
152.746	13.569	938.085	704.951
153.760	13.684	937.247	704.749
154.775	13.722	936.319	704.149
155.789	13.715	935.775	703.647
156.804	13.727	935.232	703.226
157.819	13.672	935.034	702.784
158.833	13.836	933.629	702.357
159.848	13.876	932.900	701.919
160.862	13.764	932.404	701.010
161.877	13.857	931.407	700.592
162.892	13.943	930.741	700.390
163.906	13.762	930.012	699.016
164.921	13.776	929.386	698.544
165.935	13.743	928.050	697.338
166.950	13.672	927.539	696.597
167.964	13.860	926.425	696.487
168.979	13.880	925.383	695.722
169.994	13.792	924.509	694.637
171.008	13.754	923.771	693.864
172.023	13.870	922.917	693.645
173.037	13.931	922.165	693.271
174.052	14.048	921.133	692.924
175.067	13.992	920.738	692.333
176.081	13.866	920.063	691.239
177.096	13.900	919.336	690.770
178.110	13.807	918.579	689.757
179.125	13.870	917.319	689.008
180.140	13.877	916.831	688.610
181.154	13.803	916.439	687.951
182.169	13.883	915.685	687.654
183.183	14.093	914.641	687.676
184.198	14.021	914.059	686.883
185.213	14.058	913.779	686.763
186.227	14.090	912.817	686.110
187.242	14.122	912.448	685.907
188.256	14.169	911.841	685.583
189.271	14.251	911.080	685.286
190.286	14.337	909.849	684.655
191.300	14.184	908.996	683.324
192.315	13.987	908.778	682.292
193.329	13.815	908.263	681.136
194.344	13.961	906.817	680.590
195.359	13.734	907.007	679.744
196.373	14.022	906.226	680.276
197.388	14.125	905.656	680.211
198.402	14.385	904.621	680.432
199.417	14.270	904.875	680.093
200.432	14.238	904.579	679.680
201.446	14.403	904.010	679.865
202.461	14.323	903.882	679.383
203.475	14.578	902.899	679.624
204.490	14.441	902.039	678.358
205.504	14.433	901.291	677.704
206.519	14.277	900.273	676.246
207.534	14.442	899.665	676.397
208.548	14.250	899.487	675.426
209.563	14.314	898.396	674.805
210.577	14.207	897.827	673.886
211.592	14.287	897.206	673.684
212.607	14.528	896.624	674.161
213.621	14.679	896.086	674.309
214.636	14.477	895.170	672.744
215.650	14.396	894.886	672.142
216.665	14.498	894.237	672.008
217.680	14.574	893.939	672.031
218.694	14.519	893.681	671.555
219.709	14.525	892.879	670.918
220.723	14.643	892.140	670.775
221.738	14.622	891.141	669.880
222.753	14.535	890.800	669.220
223.767	14.566	890.072	668.736
224.782	14.554	889.294	668.046
225.796	14.658	888.953	668.146
226.811	14.777	887.855	667.735
227.826	14.802	887.300	667.361
228.840	14.741	886.514	666.465
229.855	14.733	885.525	665.630
230.869	14.719	885.337	665.377
231.884	14.700	884.494	664.608
232.899	14.627	883.629	663.610
233.913	14.680	883.131	663.387
234.928	14.648	882.304	662.579
235.942	14.650	881.740	662.107
236.957	14.516	881.143	661.066
237.972	14.568	880.804	660.962
238.986	14.669	879.757	660.518
240.001	14.625	879.265	659.916
241.015	14.533	878.719	659.084
242.030	14.701	878.026	659.169
243.045	14.741	877.461	658.844
244.059	14.867	876.850	658.824
245.074	14.890	875.928	658.163
246.088	14.786	875.436	657.324
247.103	14.859	874.743	657.033
248.117	14.977	874.219	657.046
249.132	15.007	873.467	656.542
250.147	15.075	873.432	656.721
251.161	14.978	872.684	655.720
252.176	15.223	871.863	656.007
253.190	15.219	871.174	655.414
254.205	15.241	870.479	654.920
255.220	15.323	870.003	654.821
256.234	15.371	869.443	654.533
257.249	15.213	868.998	653.523
258.263	15.314	868.429	653.428
259.278	15.154	868.137	652.528
260.293	15.271	867.560	652.491
261.307	15.239	866.860	651.783
262.322	15.377	866.106	651.694
263.336	15.382	865.380	651.111
264.351	15.356	864.968	650.642
265.366	15.439	864.391	650.472
266.380	15.455	863.651	649.922
267.395	15.507	863.070	649.626
268.409	15.372	862.399	648.541
269.424	15.363	861.879	648.057
270.439	15.501	860.928	647.820
271.453	15.450	860.309	647.098
272.468	15.338	859.813	646.238
273.482	15.463	858.738	645.855
274.497	15.472	858.150	645.387
275.512	15.470	857.483	644.824
276.526	15.599	856.726	644.693
277.541	15.486	856.262	643.850
278.555	15.459	855.784	643.330
279.570	15.671	854.714	643.281
280.585	15.676	854.425	643.025
281.599	15.698	853.922	642.674
282.614	15.683	853.791	642.462
283.628	15.600	852.686	641.257
284.643	15.516	852.594	640.813
285.657	15.496	851.912	640.165
286.672	15.491	851.270	639.608
287.687	15.606	850.711	639.570
288.701	15.595	850.192	639.080
289.716	15.712	849.595	639.017
290.730	15.571	849.408	638.285
291.745	15.730	848.378	638.059
292.760	15.671	847.817	637.355
293.774	15.893	847.176	637.659
294.789	15.676	846.636	636.376
295.803	15.823	846.044	636.429
296.818	15.832	845.726	636.169
297.833	15.790	844.838	635.284
298.847	15.837	844.298	635.001
299.862	15.857	843.392	634.337
300.876	15.770	842.865	633.559
301.891	15.868	842.517	633.611
302.906	15.902	841.694	633.062
303.920	16.028	840.882	632.869
304.935	15.938	840.435	632.137
305.949	16.186	839.699	632.458
306.964	15.992	839.137	631.251
307.979	16.043	838.607	630.988
308.993	15.965	838.107	630.267
310.008	16.006	838.006	630.287
311.022	16.196	837.053	630.222
312.037	16.088	836.758	629.543
313.052	16.234	835.888	629.376
314.066	16.036	835.390	628.211
315.081	15.851	834.879	627.079
316.095	15.974	834.288	627.036
317.110	16.065	833.716	626.893
318.125	15.855	832.989	625.507
319.139	16.080	832.716	626.084
320.154	15.888	832.270	624.979
321.168	16.109	831.637	625.270
322.183	15.964	831.085	624.263
323.197	16.172	830.359	624.432
324.212	16.086	829.937	623.742
325.227	16.110	829.823	623.690
326.241	16.054	829.319	623.046
327.256	16.060	828.777	622.608
328.270	16.172	827.588	622.073
329.285	16.055	827.382	621.431
330.300	15.988	826.895	620.762
331.314	16.017	826.286	620.356
332.329	16.102	825.996	620.398
333.343	16.242	825.044	620.141
334.358	16.285	824.551	619.874
335.373	16.146	824.193	619.043
336.387	16.279	823.746	619.139
337.402	16.390	822.997	618.929
338.416	16.306	822.589	618.258
339.431	16.288	821.901	617.619
340.446	16.378	821.624	617.688
341.460	16.532	820.586	617.414
342.475	16.541	820.163	617.075
343.489	16.636	819.795	617.089
344.504	16.571	819.171	616.328
345.519	16.540	818.744	615.838
346.533	16.588	818.232	615.572
347.548	16.681	817.488	615.299
348.562	16.582	816.967	614.493
349.577	16.501	816.662	613.915
350.592	16.426	816.457	613.433
351.606	16.499	815.713	613.084
352.621	16.551	815.264	612.881
353.635	16.631	814.689	612.683
354.650	16.488	814.482	611.957
355.665	16.578	813.732	611.664
356.679	16.582	813.495	611.446
357.694	16.591	812.843	610.936
358.708	16.619	812.422	610.667
359.723	16.719	811.961	610.626
360.738	16.637	811.715	610.093
361.752	16.548	811.162	609.302
362.767	16.843	810.200	609.586
363.781	16.844	809.632	609.110
364.796	16.866	809.400	608.960
365.810	16.886	809.082	608.739
366.825	16.999	808.873	608.932
367.840	16.948	808.838	608.670
368.854	16.878	808.422	608.051
369.869	17.004	807.530	607.776
370.883	16.815	806.850	606.537
371.898	16.857	806.251	606.183
372.913	17.028	805.610	606.258
373.927	16.924	805.119	605.461
374.942	17.076	804.096	605.183
375.956	16.978	804.102	604.782
376.971	16.974	803.356	604.154
377.986	16.952	803.323	603.997
379.000	17.087	802.546	603.839
380.015	17.189	801.684	603.502
381.029	17.033	801.359	602.648
382.044	17.171	800.491	602.432
383.059	17.189	800.061	602.120
384.073	17.238	799.836	602.071
385.088	17.361	798.785	601.659
386.102	17.187	798.439	600.731
387.117	17.116	798.028	600.118
388.132	17.090	798.025	599.971
389.146	17.252	797.240	599.898
390.161	17.082	796.998	599.064
391.175	17.039	796.675	598.616
392.190	17.219	796.109	598.772
393.205	17.272	795.514	598.459
394.219	17.120	795.678	597.993
395.234	17.097	795.027	597.370
396.248	17.164	794.146	596.891
397.263	17.163	793.572	596.402
398.278	17.228	793.007	596.155
399.292	17.151	792.814	595.686
400.307	17.225	792.436	595.611
401.321	17.179	791.984	595.055
402.336	17.251	791.701	595.042
403.350	17.295	791.132	594.716
404.365	17.380	790.819	594.725
405.380	17.415	790.232	594.353
406.394	17.495	789.760	594.225
407.409	17.449	789.260	593.635
408.423	17.567	789.090	593.867
409.438	17.495	788.494	593.116
410.453	17.527	788.154	592.919
411.467	17.565	787.900	592.809
412.482	17.692	787.488	592.886
413.496	17.682	786.861	592.326
414.511	17.745	786.471	592.200
415.526	17.605	786.118	591.395
416.540	17.599	785.743	591.039
417.555	17.776	785.145	591.152
418.569	17.769	784.489	590.583
419.584	17.762	784.335	590.390
420.599	17.780	784.177	590.279
421.613	111.925	1293.349	1477.143
422.628	95.997	1367.517	1477.249
