DTS Sentinel unit serial number:	SN413079Multiplexer serial number:	ORYXHardware model number:	OX4-SRSoftware version number:	ORYX F/W v4.00 Oryx Data Collector v3.7.2.0data status	okinstallation	princeton_trtdifferential loss correction	single-endedforward channel	channel 3reverse channel	N/Adate	2019/09/10time	19:06:11forward acquisition time	60.00reverse acquisition time	0.00gamma	496.2192k internal	0.2315k external	0.2315temperature offset calibration	0.9913default loss term (dB/km)	0.3790temperature slope calibration	1.0000multiplexer offset coefficient	1.0000multiplexer slope coefficient	1.0000fibre end	0.00T internal ref (°C)	34.33T ext. ref 1 (°C)	-0.34T ext. ref 2 (°C)	26.66length (m)	temperature (°C)	Stokes	anti-Stokes-747.200	800.000	0.042	0.169
-746.185	-185.877	-0.269	-0.004
-745.171	-167.186	0.121	0.005
-744.156	167.945	-0.168	-0.243
-743.142	-113.675	0.237	-0.047
-742.127	-157.705	-0.242	-0.015
-741.112	691.538	0.005	-0.013
-740.098	401.064	0.122	0.261
-739.083	250.196	-0.141	-0.243
-738.069	136.173	-0.033	-0.043
-737.054	31.902	-0.105	-0.091
-736.039	-88.244	0.236	0.072
-735.025	-166.014	0.157	0.007
-734.010	-176.847	-0.310	0.008
-732.996	65.011	-0.167	-0.171
-731.981	36.739	-0.160	0.143
-730.966	-175.415	0.250	0.007
-729.952	-132.015	-0.469	0.062
-728.937	24.347	0.131	-0.109
-727.923	225.729	-0.203	-0.333
-726.908	-200.000	-0.050	0.253
-725.894	-73.335	-0.174	0.064
-724.879	80.189	-0.140	0.152
-723.864	-49.021	0.187	0.090
-722.850	-141.724	0.085	-0.009
-721.835	-35.468	0.269	-0.148
-720.821	18.548	-0.152	0.123
-719.806	800.000	-0.019	-0.077
-718.791	-200.000	0.012	0.132
-717.777	-200.000	0.005	-0.372
-716.762	800.000	0.042	-0.151
-715.748	442.619	0.133	-0.294
-714.733	188.033	-0.042	-0.064
-713.718	-82.760	-0.105	0.034
-712.704	9.314	-0.071	0.055
-711.689	-94.111	0.124	0.035
-710.675	235.587	0.179	0.300
-709.660	123.063	0.123	-0.156
-708.645	-200.000	-0.049	-0.337
-707.631	-23.625	-0.155	0.094
-706.616	-125.139	-0.231	0.036
-705.602	141.822	-0.112	-0.150
-704.587	96.753	-0.163	0.189
-703.572	55.074	0.107	-0.105
-702.558	-200.000	-0.029	-0.187
-701.543	-54.485	-0.221	0.101
-700.529	72.853	0.346	0.366
-699.514	-30.805	-0.136	-0.078
-698.499	2.102	0.163	-0.119
-697.485	52.613	-0.339	0.328
-696.470	-200.000	-0.040	-0.279
-695.456	25.824	0.148	-0.125
-694.441	675.036	-0.134	-0.353
-693.426	800.000	-0.040	-0.168
-692.412	-200.000	-0.013	0.112
-691.397	440.694	0.105	0.232
-690.383	-58.854	-0.038	0.017
-689.368	-46.053	-0.179	-0.089
-688.354	-93.590	0.384	-0.107
-687.339	-96.735	0.099	-0.026
-686.324	47.922	0.051	0.048
-685.310	-90.079	-0.086	0.025
-684.295	-108.465	-0.128	-0.028
-683.281	-39.620	-0.285	-0.151
-682.266	48.913	-0.227	-0.215
-681.251	41.030	0.254	-0.232
-680.237	-200.000	0.055	-0.313
-679.222	800.000	0.049	0.147
-678.208	22.414	0.100	-0.082
-677.193	85.143	0.072	-0.080
-676.178	-200.000	0.009	-0.193
-675.164	-151.136	0.421	-0.032
-674.149	-200.000	-0.013	-0.179
-673.135	88.896	-0.152	0.171
-672.120	9.404	-0.120	0.092
-671.105	-200.000	-0.012	0.447
-670.091	-200.000	-0.009	-0.072
-669.076	424.249	-0.067	-0.145
-668.062	67.984	0.090	-0.093
-667.047	-45.120	-0.114	0.057
-666.032	162.548	-0.114	-0.162
-665.018	-101.583	0.082	-0.020
-664.003	-49.829	0.237	0.114
-662.989	-84.311	-0.474	0.151
-661.974	800.000	0.013	-0.045
-660.959	-200.000	0.048	-0.570
-659.945	-101.155	-0.090	-0.022
-658.930	-160.117	-0.028	-0.002
-657.916	-84.435	0.335	0.107
-656.901	-37.067	-0.413	0.223
-655.886	-160.407	-0.335	0.018
-654.872	-21.194	0.323	0.199
-653.857	-53.238	0.225	-0.104
-652.843	386.100	0.173	-0.360
-651.828	800.000	0.088	0.265
-650.814	-200.000	-0.029	-0.147
-649.799	174.527	-0.121	0.176
-648.784	800.000	-0.056	0.170
-647.770	-200.000	-0.014	-0.273
-646.755	-174.432	-0.152	0.004
-645.741	268.104	-0.052	0.092
-644.726	33.520	-0.149	-0.130
-643.711	800.000	0.158	-0.448
-642.697	-64.947	-0.102	-0.042
-641.682	-166.582	-0.093	-0.004
-640.668	277.447	0.053	-0.095
-639.653	-132.644	-0.173	0.022
-638.638	68.092	-0.107	-0.110
-637.624	284.516	0.171	-0.312
-636.609	-72.236	0.285	-0.106
-635.595	58.971	-0.156	-0.155
-634.580	-39.462	0.071	0.038
-633.565	151.523	-0.043	0.060
-632.551	-86.012	-0.290	0.090
-631.536	109.130	0.310	-0.374
-630.522	-31.631	-0.278	-0.157
-629.507	49.606	0.155	0.148
-628.492	201.686	-0.157	0.244
-627.478	177.005	0.129	-0.190
-626.463	800.000	0.096	0.343
-625.449	-76.598	-0.160	0.056
-624.434	371.419	-0.067	-0.137
-623.419	-143.785	0.175	-0.017
-622.405	800.000	-0.067	0.205
-621.390	-200.000	-0.059	0.522
-620.376	-200.000	0.014	0.338
-619.361	-155.182	-0.369	0.024
-618.346	-167.172	0.064	0.003
-617.332	283.412	0.111	-0.200
-616.317	-134.396	-0.119	-0.015
-615.303	41.222	0.180	0.164
-614.288	-134.903	-0.086	-0.010
-613.273	124.879	0.288	-0.366
-612.259	-68.841	0.134	0.052
-611.244	-150.403	-0.150	0.012
-610.230	-60.668	0.136	0.058
-609.215	654.073	-0.116	0.299
-608.201	-96.827	-0.490	-0.130
-607.186	-200.000	-0.027	0.183
-606.171	98.201	-0.172	0.199
-605.157	-200.000	0.006	0.321
-604.142	391.880	-0.099	-0.208
-603.128	327.432	-0.104	-0.202
-602.113	385.209	0.105	-0.218
-601.098	118.808	0.080	-0.099
-600.084	-17.934	-0.188	0.119
-599.069	4.818	0.060	0.044
-598.055	-142.036	0.100	-0.010
-597.040	15.614	0.052	-0.041
-596.025	-15.165	-0.080	-0.052
-595.011	24.174	0.270	-0.224
-593.996	53.097	-0.125	0.121
-592.982	-26.248	0.293	-0.173
-591.967	225.619	-0.191	-0.312
-590.952	-125.154	-0.217	0.033
-589.938	-55.160	0.106	0.048
-588.923	207.656	-0.113	-0.177
-587.909	-152.179	0.151	-0.011
-586.894	-27.092	0.084	-0.049
-585.879	169.578	0.075	-0.107
-584.865	-200.000	0.005	0.051
-583.850	721.102	-0.045	0.121
-582.836	-69.981	0.255	-0.098
-581.821	-49.718	-0.122	-0.059
-580.806	442.490	0.040	0.088
-579.792	78.805	-0.197	-0.212
-578.777	95.631	0.092	-0.106
-577.763	52.562	0.204	0.196
-576.748	-172.648	-0.284	0.009
-575.733	131.083	-0.163	0.211
-574.719	-28.372	0.207	-0.120
-573.704	-40.747	-0.207	-0.108
-572.690	-105.509	-0.375	-0.086
-571.675	-200.000	0.010	-0.197
-570.661	-200.000	-0.025	0.146
-569.646	800.000	0.078	-0.231
-568.631	389.293	0.059	0.124
-567.617	-200.000	-0.056	0.305
-566.602	231.481	0.116	-0.191
-565.588	-147.332	-0.169	-0.014
-564.573	-132.365	-0.249	0.032
-563.558	-74.069	-0.313	0.114
-562.544	180.365	-0.384	0.567
-561.529	-35.470	-0.344	0.188
-560.515	235.645	0.048	0.080
-559.500	-92.337	-0.416	-0.118
-558.485	181.409	-0.042	0.062
-557.471	-173.041	0.290	0.009
-556.456	-200.000	0.003	0.071
-555.442	156.443	0.106	-0.147
-554.427	289.982	-0.157	-0.287
-553.412	-200.000	0.012	-0.104
-552.398	16.995	0.122	-0.097
-551.383	-200.000	-0.021	-0.139
-550.369	-166.152	-0.436	-0.019
-549.354	-88.059	-0.227	0.069
-548.339	210.481	0.138	0.218
-547.325	800.000	-0.095	0.277
-546.310	93.108	0.130	-0.147
-545.296	-74.446	-0.318	-0.115
-544.281	63.787	-0.203	-0.205
-543.266	-122.097	0.222	-0.037
-542.252	-6.248	-0.089	0.061
-541.237	163.514	0.083	-0.118
-540.223	-147.282	0.228	-0.019
-539.208	44.360	0.264	-0.244
-538.193	-6.553	-0.225	-0.154
-537.179	-200.000	-0.016	-0.259
-536.164	127.845	-0.135	-0.172
-535.150	-7.393	-0.147	-0.100
-534.135	250.758	-0.060	0.103
-533.121	-200.000	0.005	-0.310
-532.106	-22.756	0.167	-0.101
-531.091	-200.000	-0.008	-0.105
-530.077	332.567	0.043	-0.084
-529.062	-65.203	-0.125	0.051
-528.048	128.055	-0.004	-0.006
-527.033	-200.000	0.017	0.130
-526.018	-200.000	-0.050	0.239
-525.004	-128.613	0.265	0.038
-523.989	800.000	0.093	-0.372
-522.975	57.818	0.260	0.256
-521.960	108.657	0.230	0.277
-520.945	722.740	0.077	0.206
-519.931	98.521	0.164	-0.190
-518.916	91.753	0.133	0.150
-517.902	57.624	-0.211	0.207
-516.887	53.577	0.204	0.197
-515.872	191.083	-0.050	0.075
-514.858	-99.737	-0.289	0.073
-513.843	-200.000	0.036	0.436
-512.829	-169.497	0.200	-0.007
-511.814	-173.050	0.080	0.002
-510.799	402.439	0.105	-0.221
-509.785	-67.756	-0.155	0.061
-508.770	-200.000	-0.047	-0.223
-507.756	800.000	-0.091	0.262
-506.741	75.402	0.092	-0.097
-505.726	800.000	0.032	0.105
-504.712	245.135	-0.119	-0.200
-503.697	140.315	-0.098	-0.130
-502.683	-113.975	-0.183	0.036
-501.668	-78.233	0.364	-0.126
-500.653	247.659	-0.271	0.460
-499.639	-28.862	0.017	0.010
-498.624	282.830	0.015	-0.028
-497.610	-39.808	0.346	-0.181
-496.595	317.200	0.036	-0.067
-495.581	-103.270	-0.190	-0.045
-494.566	-132.633	0.283	-0.036
-493.551	303.399	0.107	-0.199
-492.537	-35.832	-0.268	0.146
-491.522	221.013	0.121	-0.195
-490.508	48.800	0.118	0.112
-489.493	800.000	0.052	-0.161
-488.478	-129.418	-0.299	0.042
-487.464	197.556	0.169	0.259
-486.449	-108.776	-0.134	0.029
-485.435	-36.610	0.185	0.100
-484.420	-111.184	0.296	-0.061
-483.405	-200.000	0.035	0.157
-482.391	-200.000	0.033	0.154
-481.376	800.000	0.038	0.113
-480.362	800.000	-0.033	0.105
-479.347	18.133	-0.211	0.169
-478.332	157.753	-0.085	-0.117
-477.318	-200.000	0.041	0.237
-476.303	64.656	-0.075	-0.076
-475.289	-200.000	-0.020	0.102
-474.274	-156.898	0.334	-0.021
-473.259	75.333	0.114	-0.121
-472.245	209.619	0.031	0.049
-471.230	-121.323	-0.407	-0.068
-470.216	47.784	-0.053	0.050
-469.201	-200.000	-0.008	-0.080
-468.186	-164.182	-0.236	0.011
-467.172	-43.069	0.085	0.043
-466.157	-78.078	0.162	-0.056
-465.143	262.279	0.142	-0.246
-464.128	366.335	-0.038	0.076
-463.113	732.880	-0.023	0.061
-462.099	-200.000	0.102	-0.457
-461.084	800.000	0.105	-0.442
-460.070	-84.436	-0.109	0.035
-459.055	238.028	-0.114	0.189
-458.040	387.536	0.024	0.050
-457.026	430.849	0.130	0.282
-456.011	112.705	0.077	-0.094
-454.997	785.809	-0.021	-0.057
-453.982	-176.747	0.409	-0.010
-452.968	60.552	0.062	0.061
-451.953	-5.929	-0.244	-0.167
-450.938	145.987	-0.057	0.077
-449.924	44.211	0.205	0.189
-448.909	0.513	-0.170	0.121
-447.895	-117.509	-0.199	-0.036
-446.880	800.000	0.069	-0.190
-445.865	-130.062	0.014	0.002
-444.851	-92.847	0.189	0.053
-443.836	746.082	0.163	0.438
-442.822	-200.000	-0.212	-0.001
-441.807	39.879	0.105	-0.094
-440.792	-2.019	-0.186	-0.131
-439.778	-48.205	-0.166	0.080
-438.763	-31.933	0.150	-0.084
-437.749	-114.134	-0.273	0.053
-436.734	-27.032	0.108	0.063
-435.719	-200.000	-0.056	0.273
-434.705	-200.000	0.061	-0.318
-433.690	-98.693	0.050	-0.013
-432.676	-73.276	-0.166	-0.061
-431.661	-36.359	-0.088	-0.048
-430.646	-69.186	0.134	0.052
-429.632	800.000	0.087	-0.379
-428.617	72.854	0.045	0.047
-427.603	38.269	-0.286	-0.255
-426.588	-21.721	0.180	-0.110
-425.573	75.370	-0.074	0.078
-424.559	25.535	0.087	0.073
-423.544	-200.000	-0.013	-0.103
-422.530	800.000	-0.025	0.079
-421.515	210.799	0.105	0.165
-420.500	800.000	0.061	-0.225
-419.486	22.170	0.143	0.116
-418.471	800.000	-0.076	0.287
-417.457	800.000	0.078	-0.216
-416.442	-107.841	0.269	0.059
-415.428	-200.000	0.002	-0.088
-414.413	319.485	-0.055	-0.105
-413.398	184.291	0.055	-0.081
-412.384	254.281	-0.197	-0.336
-411.369	75.686	0.169	-0.179
-410.355	-200.000	-0.003	0.274
-409.340	21.449	0.219	-0.178
-408.325	800.000	0.125	-0.383
-407.311	50.292	-0.110	0.104
-406.296	-169.348	0.180	0.007
-405.282	-179.167	-0.142	-0.003
-404.267	-138.590	0.392	0.043
-403.252	102.511	0.245	-0.287
-402.238	-75.660	0.401	0.143
-401.223	578.530	-0.109	-0.267
-400.209	-200.000	-0.029	-0.151
-399.194	24.938	0.268	-0.222
-398.179	-29.874	-0.190	-0.108
-397.165	-200.000	-0.010	-0.252
-396.150	-0.677	0.189	-0.134
-395.136	-152.678	-0.257	-0.018
-394.121	45.881	-0.248	-0.229
-393.106	-95.999	-0.042	0.011
-392.092	91.742	-0.154	0.174
-391.077	800.000	-0.046	-0.193
-390.063	186.176	-0.092	0.137
-389.048	-42.656	-0.450	0.229
-388.033	-103.597	-0.183	-0.043
-387.019	-26.847	0.270	-0.158
-386.004	131.494	-0.052	-0.066
-384.990	-49.452	0.128	-0.061
-383.975	-173.224	-0.172	-0.005
-382.960	-29.344	-0.261	-0.149
-381.946	-200.000	0.035	0.281
-380.931	-83.781	-0.389	0.124
-379.917	41.081	0.256	0.231
-378.902	-200.000	0.002	-0.128
-377.888	688.677	-0.108	0.283
-376.873	262.122	-0.120	0.208
-375.858	-143.041	-0.085	-0.008
-374.844	223.523	0.241	-0.389
-373.829	48.428	0.063	-0.059
-372.815	231.218	-0.059	0.096
-371.800	800.000	0.059	0.175
-370.785	-98.377	-0.202	0.052
-369.771	-14.133	0.191	-0.123
-368.756	219.084	0.192	0.307
-367.742	-200.000	0.004	-0.064
-366.727	429.272	0.063	0.137
-365.712	-92.429	-0.154	-0.043
-364.698	-93.035	-0.208	-0.058
-363.683	-12.048	0.136	0.089
-362.669	-200.000	-0.027	-0.179
-361.654	79.774	-0.204	0.219
-360.639	93.314	0.097	0.109
-359.625	42.197	-0.122	-0.111
-358.610	-85.827	0.191	-0.059
-357.596	-107.928	-0.186	-0.040
-356.581	-150.027	0.358	-0.028
-355.566	-110.841	-0.158	0.032
-354.552	-121.643	0.063	-0.010
-353.537	-102.519	0.102	0.024
-352.523	-68.825	-0.081	-0.031
-351.508	144.538	-0.161	0.215
-350.493	270.083	0.149	0.261
-349.479	392.624	0.071	0.148
-348.464	-152.532	0.161	-0.011
-347.450	-43.575	0.316	-0.159
-346.435	185.959	-0.190	-0.281
-345.420	-200.000	0.004	0.062
-344.406	29.609	-0.224	-0.190
-343.391	-200.000	0.008	0.232
-342.377	-135.256	-0.172	-0.021
-341.362	11.180	0.031	0.024
-340.348	174.707	0.093	-0.134
-339.333	-96.080	0.209	-0.056
-338.318	477.166	0.095	-0.215
-337.304	189.638	0.054	0.081
-336.289	-71.779	-0.196	0.073
-335.275	53.671	0.192	0.184
-334.260	124.684	-0.209	0.263
-333.245	-95.394	-0.176	-0.047
-332.231	-72.483	0.441	0.163
-331.216	173.831	0.237	0.341
-330.202	16.317	-0.068	0.054
-329.187	85.104	-0.051	-0.056
-328.172	139.121	-0.110	0.144
-327.158	64.687	-0.296	0.298
-326.143	-33.386	-0.258	-0.142
-325.129	109.371	0.119	0.142
-324.114	800.000	-0.053	0.155
-323.099	-96.507	-0.245	-0.064
-322.085	-30.802	-0.104	-0.059
-321.070	11.744	0.073	-0.056
-320.056	65.682	0.075	-0.075
-319.041	-200.000	0.021	-0.095
-318.026	-93.265	-0.252	0.070
-317.012	80.802	-0.175	0.188
-315.997	82.691	0.095	0.103
-314.983	-118.457	-0.014	0.002
-313.968	-59.044	-0.281	0.121
-312.953	208.478	-0.096	0.150
-311.939	27.090	0.361	0.302
-310.924	800.000	-0.045	0.157
-309.910	-99.860	0.309	-0.077
-308.895	373.480	0.195	0.395
-307.880	-133.521	0.147	-0.018
-306.866	86.990	0.167	-0.184
-305.851	-200.000	0.000	-0.016
-304.837	558.641	-0.077	-0.186
-303.822	800.000	0.048	-0.207
-302.807	-40.046	0.303	-0.157
-301.793	-57.670	0.140	-0.061
-300.778	20.285	0.217	-0.175
-299.764	89.074	-0.136	0.151
-298.749	-167.118	-0.153	0.006
-297.735	-93.316	0.124	-0.034
-296.720	260.497	-0.171	0.294
-295.705	151.831	0.164	0.223
-294.691	-200.000	-0.016	-0.257
-293.676	7.546	0.120	0.089
-292.662	800.000	0.085	0.243
-291.647	-167.712	0.133	-0.005
-290.632	12.330	-0.264	-0.202
-289.618	-110.323	-0.174	0.036
-288.603	-36.633	-0.246	0.132
-287.589	-15.984	-0.082	0.052
-286.574	-50.830	-0.242	0.113
-285.559	21.328	0.264	0.214
-284.545	141.912	0.112	-0.147
-283.530	6.093	-0.390	0.288
-282.516	239.255	-0.033	0.055
-281.501	800.000	0.060	-0.253
-280.486	800.000	-0.030	-0.119
-279.472	-86.039	-0.206	0.063
-278.457	800.000	-0.119	0.348
-277.443	459.331	0.087	-0.192
-276.428	145.495	-0.068	-0.091
-275.413	12.621	0.169	-0.130
-274.399	-200.000	0.018	0.107
-273.384	-200.000	-0.008	0.154
-272.370	72.172	-0.042	-0.043
-271.355	48.977	0.111	-0.103
-270.340	-79.662	-0.348	-0.117
-269.326	-55.549	0.335	0.149
-268.311	369.022	-0.150	-0.303
-267.297	-175.256	0.088	-0.002
-266.282	-200.000	0.094	-0.568
-265.267	18.361	-0.248	-0.197
-264.253	111.560	-0.240	0.288
-263.238	286.324	0.047	0.083
-262.224	164.572	0.258	0.362
-261.209	-108.690	0.379	-0.081
-260.195	-149.943	-0.034	0.003
-259.180	-92.532	-0.184	0.051
-258.165	-124.615	-0.134	-0.021
-257.151	266.393	0.063	0.110
-256.136	-200.000	-0.070	-0.419
-255.122	44.060	0.218	-0.199
-254.107	-200.000	0.029	0.179
-253.092	47.429	-0.071	0.065
-252.078	47.053	0.154	0.143
-251.063	229.410	0.173	0.280
-250.049	448.804	0.103	-0.226
-249.034	620.599	-0.112	-0.280
-248.019	0.376	0.444	-0.315
-247.005	565.104	0.149	-0.358
-245.990	7.543	-0.216	-0.160
-244.976	18.573	0.153	-0.122
-243.961	-144.414	0.073	0.007
-242.946	-13.376	0.036	0.023
-241.932	-200.000	0.032	-0.323
-240.917	79.095	-0.248	-0.264
-239.903	157.481	-0.211	-0.291
-238.888	-169.590	0.048	0.002
-237.873	-110.195	0.258	0.053
-236.859	-90.813	-0.142	0.041
-235.844	194.465	0.091	0.137
-234.830	-106.518	0.329	0.073
-233.815	800.000	0.049	-0.135
-232.800	-160.762	-0.356	-0.019
-231.786	-200.000	0.050	0.264
-230.771	-200.000	0.009	0.151
-229.757	-200.000	0.042	-0.398
-228.742	-30.777	-0.337	0.189
-227.727	-200.000	-0.034	0.256
-226.713	7.404	0.179	0.133
-225.698	-80.463	-0.178	0.059
-224.684	-91.757	0.348	-0.098
-223.669	-7.879	0.381	0.255
-222.655	661.687	0.077	-0.198
-221.640	19.952	0.322	-0.257
-220.625	-49.610	-0.135	-0.064
-219.611	-200.000	-0.028	0.267
-218.596	-200.000	-0.003	0.196
-217.582	-40.213	-0.221	0.114
-216.567	-34.017	-0.383	-0.209
-215.552	91.941	-0.109	0.122
-214.538	-9.824	0.184	0.122
-213.523	326.046	-0.119	0.225
-212.509	-82.628	0.111	0.036
-211.494	50.463	-0.110	0.103
-210.479	-126.006	0.144	0.021
-209.465	-144.216	0.193	-0.018
-208.450	-153.885	-0.087	0.006
-207.436	-68.229	-0.419	0.162
-206.421	-129.905	0.355	-0.048
-205.406	-107.610	0.279	-0.061
-204.392	264.363	0.059	0.103
-203.377	800.000	0.040	-0.112
-202.363	-112.346	0.037	-0.007
-201.348	471.518	-0.057	0.127
-200.333	-200.000	0.003	0.127
-199.319	381.908	-0.129	0.264
-198.304	-3.099	-0.037	0.025
-197.290	-55.109	-0.141	-0.063
-196.275	-197.255	-0.079	-0.000
-195.260	800.000	-0.069	0.213
-194.246	-16.190	0.118	-0.074
-193.231	-200.000	-0.044	0.199
-192.217	800.000	-0.032	0.101
-191.202	-200.000	0.018	-0.104
-190.187	214.185	-0.047	0.074
-189.173	141.265	0.068	0.090
-188.158	-59.576	-0.242	-0.103
-187.144	40.381	0.065	0.058
-186.129	-200.000	-0.032	0.201
-185.114	791.326	-0.104	0.285
-184.100	-46.440	0.125	0.061
-183.085	-200.000	0.044	-0.298
-182.071	-200.000	0.001	0.027
-181.056	-51.743	0.127	-0.059
-180.042	-200.000	0.045	0.306
-179.027	-6.390	-0.213	0.144
-178.012	-200.000	-0.062	0.369
-176.998	165.080	-0.106	-0.148
-175.983	-50.508	0.292	-0.137
-174.969	99.844	0.029	0.033
-173.954	-17.831	-0.355	0.221
-172.939	800.000	-0.092	-0.278
-171.925	-54.877	0.575	0.257
-170.910	51.429	-0.230	-0.217
-169.896	-200.000	-0.022	-0.268
-168.881	-200.000	-0.019	0.193
-167.866	-41.001	0.355	0.182
-166.852	-140.737	-0.166	-0.017
-165.837	-149.149	0.145	-0.011
-164.823	-83.535	-0.152	0.048
-163.808	-155.037	0.184	0.012
-162.793	120.907	-0.133	-0.164
-161.779	800.000	0.086	-0.247
-160.764	-106.267	0.126	-0.028
-159.750	-200.000	0.009	0.152
-158.735	-200.000	-0.009	0.131
-157.720	43.327	0.135	0.122
-156.706	122.339	0.225	-0.279
-155.691	19.247	-0.164	0.131
-154.677	159.264	-0.156	-0.215
-153.662	129.603	0.107	-0.135
-152.647	81.186	0.291	-0.312
-151.633	-158.169	0.106	-0.006
-150.618	-51.119	0.292	0.135
-149.604	-200.000	0.002	0.050
-148.589	-134.960	0.199	0.024
-147.574	248.814	0.053	0.089
-146.560	204.318	0.162	-0.249
-145.545	162.879	-0.188	0.261
-144.531	203.634	0.164	0.252
-143.516	800.000	0.097	-0.367
-142.502	800.000	0.061	-0.201
-141.487	446.829	-0.060	0.130
-140.472	-200.000	-0.034	0.154
-139.458	750.711	-0.159	-0.425
-138.443	800.000	0.083	0.228
-137.429	523.713	0.022	-0.050
-136.414	426.168	0.100	-0.214
-135.399	-200.000	-0.044	0.420
-134.385	-96.479	0.243	-0.064
-133.370	123.813	0.218	-0.271
-132.356	-94.049	-0.130	0.035
-131.341	-179.300	-0.079	0.002
-130.326	-184.316	-0.471	0.008
-129.312	-159.421	0.289	0.016
-128.297	66.822	0.053	-0.054
-127.283	-200.000	-0.054	-0.509
-126.268	0.425	0.127	0.089
-125.253	122.863	0.105	-0.130
-124.239	249.344	0.098	0.165
-123.224	-41.111	0.270	0.138
-122.210	-96.956	0.183	0.047
-121.195	336.662	0.171	0.328
-120.180	-111.717	0.178	0.036
-119.166	-200.000	-0.001	0.205
-118.151	-107.626	0.164	0.035
-117.137	-62.457	0.121	0.050
-116.122	-52.161	0.179	0.082
-115.107	54.210	0.156	0.148
-114.093	248.752	0.014	-0.024
-113.078	6.575	-0.256	0.188
-112.064	-164.471	-0.341	0.015
-111.049	-76.117	0.124	0.043
-110.034	-80.504	-0.351	0.116
-109.020	-200.000	-0.036	0.167
-108.005	-84.246	-0.173	0.054
-106.991	163.133	-0.019	-0.027
-105.976	-200.000	0.085	0.453
-104.962	800.000	0.020	0.064
-103.947	227.916	-0.119	-0.191
-102.932	-85.699	-0.104	0.032
-101.918	-200.000	-0.010	-0.046
-100.903	794.770	-0.059	-0.160
-99.889	273.215	-0.221	0.386
-98.874	444.746	0.053	-0.115
-97.859	-181.155	-0.374	0.007
-96.845	35.097	0.245	0.212
-95.830	-22.075	-0.254	0.152
-94.816	-200.000	-0.017	-0.170
-93.801	96.238	-0.096	-0.109
-92.786	-200.000	0.051	-0.394
-91.772	136.858	0.201	-0.259
-90.757	-200.000	0.003	-0.403
-89.743	-88.371	0.101	0.030
-88.728	-133.972	-0.266	-0.033
-87.713	312.789	-0.036	0.066
-86.699	502.265	0.107	0.243
-85.684	-200.000	-0.010	0.302
-84.670	518.520	0.134	-0.309
-83.655	-75.951	0.323	-0.113
-82.640	88.383	-0.101	0.111
-81.626	-44.684	-0.161	0.079
-80.611	-69.190	0.225	-0.086
-79.597	-64.152	0.018	0.007
-78.582	-179.232	0.261	0.006
-77.567	229.820	-0.106	-0.171
-76.553	-18.638	0.039	-0.024
-75.538	565.904	0.020	-0.048
-74.524	800.000	0.078	-0.217
-73.509	243.162	0.093	-0.154
-72.494	-68.710	0.198	-0.076
-71.480	-135.133	0.307	0.036
-70.465	73.377	-0.229	0.237
-69.451	800.000	-0.102	-0.396
-68.436	-117.845	-0.131	-0.023
-67.422	-88.782	-0.234	0.069
-66.407	116.349	0.037	-0.045
-65.392	747.242	-0.044	-0.116
-64.378	140.139	-0.340	0.443
-63.363	-41.206	0.397	0.202
-62.349	507.151	0.082	0.188
-61.334	209.735	-0.642	-0.993
-60.319	69.372	0.501	0.509
-59.305	-200.000	0.068	-0.960
-58.290	97.460	0.634	0.718
-57.276	680.294	0.618	1.587
-56.261	-200.000	102.141	607.997
-55.246	608.074	1430.078	3520.153
-54.232	181.753	2644.455	3840.023
-53.217	119.356	2203.016	2689.595
-52.203	44.848	1732.013	1572.387
-51.188	37.547	1542.111	1349.530
-50.173	35.033	1514.839	1308.452
-49.159	54.194	1568.763	1488.891
-48.144	57.117	1586.752	1526.242
-47.130	37.715	1540.017	1348.641
-46.115	34.479	1524.722	1312.967
-45.100	34.441	1521.145	1309.573
-44.086	34.354	1519.649	1307.634
-43.071	34.358	1517.495	1305.758
-42.057	34.289	1516.139	1304.069
-41.042	34.331	1514.204	1302.635
-40.027	34.382	1513.183	1302.057
-39.013	34.306	1511.385	1299.939
-37.998	34.372	1510.283	1299.392
-36.984	34.348	1509.315	1298.341
-35.969	34.293	1508.052	1296.828
-34.954	34.278	1506.625	1295.444
-33.940	34.326	1504.883	1294.223
-32.925	34.361	1503.153	1292.924
-31.911	34.454	1502.154	1292.641
-30.896	34.325	1501.184	1290.881
-29.881	34.394	1500.095	1290.361
-28.867	34.362	1498.469	1288.695
-27.852	34.419	1497.153	1287.898
-26.838	34.400	1495.442	1286.244
-25.823	34.378	1494.032	1284.837
-24.809	34.369	1492.584	1283.475
-23.794	34.410	1490.604	1282.002
-22.779	34.332	1489.962	1280.875
-21.765	34.314	1488.910	1279.794
-20.750	34.424	1487.335	1279.132
-19.736	34.347	1486.132	1277.528
-18.721	34.347	1485.432	1276.875
-17.706	34.237	1484.527	1275.311
-16.692	34.321	1483.155	1274.646
-15.677	34.311	1482.048	1273.573
-14.663	34.379	1481.000	1273.078
-13.648	34.256	1480.174	1271.497
-12.633	34.252	1479.557	1270.890
-11.619	34.292	1478.142	1269.893
-10.604	34.337	1477.538	1269.622
-9.590	34.250	1476.883	1268.430
-8.575	34.288	1475.882	1267.767
-7.560	34.350	1475.129	1267.486
-6.546	34.268	1474.451	1266.307
-5.531	34.290	1473.420	1265.521
-4.517	34.362	1471.775	1264.530
-3.502	34.378	1471.257	1264.145
-2.487	34.398	1469.906	1263.067
-1.473	34.328	1469.228	1261.970
-0.458	34.316	1467.618	1260.458
0.556	31.736	1457.862	1247.769
1.571	28.205	1430.587	1201.195
2.586	23.995	1367.123	1121.338
3.600	22.023	1283.560	1041.023
4.615	20.719	1237.911	996.452
5.629	17.853	1182.118	935.763
6.644	8.774	1095.929	821.108
7.659	0.926	1053.685	750.588
8.673	-0.235	1047.833	740.626
9.688	-0.280	1044.880	738.253
10.702	-0.498	1042.903	735.723
11.717	-0.327	1041.006	735.156
12.731	2.450	1044.919	751.501
13.746	11.424	1057.174	804.664
14.761	17.648	1065.346	841.642
15.775	17.999	1064.550	842.671
16.790	17.722	1063.890	840.706
17.804	17.587	1062.604	838.953
18.819	17.395	1061.731	837.244
19.834	17.345	1060.855	836.236
20.848	17.423	1060.299	836.104
21.863	17.388	1059.970	835.600
22.877	17.448	1059.524	835.467
23.892	17.236	1059.362	834.225
24.907	17.272	1058.090	833.328
25.921	17.329	1057.367	832.963
26.936	17.481	1056.784	833.172
27.950	17.470	1055.306	831.880
28.965	17.396	1054.032	830.443
29.980	17.318	1052.585	828.849
30.994	17.304	1050.826	827.320
32.009	17.542	1049.523	827.378
33.023	17.509	1048.930	826.677
34.038	17.250	1047.865	824.509
35.053	17.305	1047.022	824.040
36.067	17.568	1046.023	824.457
37.082	17.493	1045.482	823.594
38.096	17.542	1044.544	823.017
39.111	17.519	1043.830	822.270
40.126	17.645	1042.689	821.908
41.140	17.481	1041.745	820.302
42.155	17.419	1040.140	818.667
43.169	17.199	1038.838	816.509
44.184	17.056	1037.914	815.025
45.199	17.234	1036.692	814.846
46.213	17.231	1035.816	814.074
47.228	17.025	1034.719	812.152
48.242	17.146	1033.274	811.527
49.257	17.290	1032.081	811.204
50.271	17.175	1031.530	810.148
51.286	17.473	1030.061	810.344
52.301	17.316	1029.834	809.347
53.315	17.299	1028.935	808.488
54.330	17.462	1028.008	808.459
55.344	17.320	1026.796	806.766
56.359	17.390	1025.784	806.229
57.374	17.359	1025.722	805.962
58.388	17.309	1024.032	804.328
59.403	17.226	1023.542	803.478
60.417	17.364	1022.333	803.107
61.432	17.222	1021.558	801.761
62.447	17.230	1020.620	800.988
63.461	17.332	1020.516	801.319
64.476	17.369	1019.543	800.658
65.490	17.255	1018.907	799.549
66.505	17.215	1017.356	798.075
67.520	17.270	1016.499	797.589
68.534	17.448	1015.686	797.718
69.549	17.307	1014.632	796.156
70.563	17.127	1013.395	794.275
71.578	16.948	1012.791	792.893
72.593	17.159	1011.450	792.758
73.607	16.981	1010.671	791.250
74.622	17.026	1009.544	790.507
75.636	17.185	1009.138	790.858
76.651	17.311	1008.583	790.941
77.666	17.175	1007.250	789.192
78.680	17.026	1006.449	787.801
79.695	17.100	1005.945	787.682
80.709	17.164	1005.660	787.688
81.724	17.256	1004.647	787.250
82.739	17.187	1003.680	786.102
83.753	17.162	1002.913	785.316
84.768	17.431	1002.149	785.891
85.782	17.479	1002.037	785.956
86.797	17.594	1000.845	785.482
87.812	17.578	999.504	784.285
88.826	17.439	998.271	782.608
89.841	17.267	997.699	781.304
90.855	17.632	996.542	782.000
91.870	17.556	996.442	781.507
92.884	17.532	995.152	780.317
93.899	17.495	994.132	779.277
94.914	17.426	993.649	778.513
95.928	17.556	992.413	778.070
96.943	17.513	992.006	777.485
97.957	17.233	990.710	775.125
98.972	17.239	989.363	774.030
99.987	16.979	988.399	772.025
101.001	17.006	987.580	771.437
102.016	17.362	987.041	772.568
103.030	17.297	986.246	771.580
104.045	17.356	984.728	770.594
105.060	17.108	983.138	768.160
106.074	16.928	982.271	766.601
107.089	16.976	981.411	766.078
108.103	17.336	981.552	767.744
109.118	17.609	980.378	767.991
110.133	17.269	979.645	765.816
111.147	17.421	978.442	765.492
112.162	17.303	977.733	764.336
113.176	17.098	976.062	762.042
114.191	17.144	975.633	761.850
115.206	17.204	974.733	761.348
116.220	16.994	973.220	759.159
117.235	16.978	972.225	758.244
118.249	17.149	971.367	758.272
119.264	17.122	970.705	757.566
120.279	16.941	969.877	756.048
121.293	17.093	968.762	755.788
122.308	17.104	968.558	755.610
123.322	17.169	967.672	755.139
124.337	17.181	966.578	754.274
125.352	17.237	964.488	752.823
126.366	16.747	963.220	749.599
127.381	16.471	961.759	747.175
128.395	16.850	961.519	748.597
129.410	17.426	960.827	750.536
130.424	17.569	959.782	750.282
131.439	17.680	958.508	749.709
132.454	17.428	957.853	748.020
133.468	17.435	956.907	747.248
134.483	17.378	955.941	746.177
135.497	17.460	955.336	745.998
136.512	17.657	954.689	746.290
137.527	17.836	953.839	746.344
138.541	17.746	952.783	745.056
139.556	17.625	952.276	744.068
140.570	17.764	951.203	743.768
141.585	17.655	950.729	742.855
142.600	17.584	949.913	741.841
143.614	17.443	948.938	740.405
144.629	17.702	947.789	740.566
145.643	17.873	947.514	741.030
146.658	17.691	946.402	739.303
147.673	17.749	944.715	738.170
148.687	17.687	943.985	737.268
149.702	17.642	942.916	736.175
150.716	17.638	941.957	735.344
151.731	17.492	941.125	733.997
152.746	17.612	940.487	733.954
153.760	17.620	940.176	733.680
154.775	17.712	939.285	733.314
155.789	17.857	937.914	732.801
156.804	17.764	937.166	731.755
157.819	17.776	936.062	730.882
158.833	17.728	935.493	730.163
159.848	17.810	934.703	729.833
160.862	17.982	933.631	729.668
161.877	17.777	932.849	728.119
162.892	17.704	932.306	727.319
163.906	17.971	931.223	727.547
164.921	17.737	930.542	725.955
165.935	17.798	929.179	725.087
166.950	17.886	928.092	724.548
167.964	17.848	926.990	723.461
168.979	17.841	925.997	722.590
169.994	17.770	925.239	721.635
171.008	17.472	924.357	719.627
172.023	17.577	923.866	719.624
173.037	17.725	922.548	719.157
174.052	17.619	921.388	717.742
175.067	17.394	920.443	715.995
176.081	17.467	919.978	715.876
177.096	17.704	919.003	716.051
178.110	17.612	918.102	714.900
179.125	17.468	916.646	713.101
180.140	17.384	915.901	712.106
181.154	17.475	915.089	711.791
182.169	17.481	914.282	711.125
183.183	17.530	914.412	711.369
184.198	17.694	913.479	711.265
185.213	17.742	912.723	710.814
186.227	17.748	912.088	710.282
187.242	17.731	911.777	709.903
188.256	17.845	910.599	709.399
189.271	17.849	909.566	708.546
190.286	17.752	909.657	708.154
191.300	17.811	907.889	706.960
192.315	17.425	907.011	704.614
193.329	16.836	905.698	701.097
194.344	16.604	904.569	699.200
195.359	17.055	904.872	701.236
196.373	17.816	904.387	703.942
197.388	17.818	904.216	703.755
198.402	17.699	903.803	702.879
199.417	17.601	902.614	701.489
200.432	17.584	902.572	701.323
201.446	17.373	901.809	699.800
202.461	17.096	900.729	697.765
203.475	17.225	900.115	697.756
204.490	16.875	898.560	695.053
205.504	16.059	896.768	690.265
206.519	16.260	897.114	691.296
207.534	17.134	897.600	695.188
208.548	17.322	896.612	695.129
209.563	17.651	896.611	696.410
210.577	17.621	895.797	695.594
211.592	17.398	894.971	693.981
212.607	17.776	894.893	695.401
213.621	17.718	894.062	694.459
214.636	17.706	893.260	693.727
215.650	17.805	892.732	693.655
216.665	17.818	892.149	693.196
217.680	17.836	891.535	692.731
218.694	17.938	891.050	692.704
219.709	17.620	889.661	690.275
220.723	17.268	888.517	687.904
221.738	17.506	888.269	688.612
222.753	17.650	888.046	688.961
223.767	17.679	886.938	688.158
224.782	17.698	886.159	687.570
225.796	17.927	884.853	687.415
226.811	17.969	884.751	687.446
227.826	17.732	883.243	685.261
228.840	17.134	882.077	681.894
229.855	16.953	881.930	680.995
230.869	17.070	881.552	681.112
231.884	16.840	880.196	679.083
232.899	16.934	879.837	679.123
233.913	17.689	879.753	682.018
234.928	17.782	879.600	682.211
235.942	17.751	879.160	681.687
236.957	17.871	878.047	681.240
237.972	17.538	877.615	679.518
238.986	17.698	875.954	678.807
240.001	17.658	875.648	678.354
241.015	17.606	875.082	677.647
242.030	17.619	874.350	677.073
243.045	17.832	874.063	677.635
244.059	17.916	873.512	677.483
245.074	17.958	872.805	677.042
246.088	17.922	871.940	676.168
247.103	17.503	870.754	673.530
248.117	17.564	870.261	673.329
249.132	18.061	869.719	674.816
250.147	18.288	869.058	675.138
251.161	18.291	868.232	674.448
252.176	18.338	868.152	674.510
253.190	18.411	867.132	673.946
254.205	18.347	866.749	673.335
255.220	18.693	866.048	674.093
256.234	18.656	865.607	673.545
257.249	18.653	864.445	672.568
258.263	18.415	863.642	670.952
259.278	18.487	863.157	670.799
260.293	18.568	862.998	670.930
261.307	18.590	862.276	670.395
262.322	18.396	861.761	669.179
263.336	18.377	861.123	668.549
264.351	17.905	859.615	665.483
265.366	16.748	857.777	659.498
266.380	16.411	856.665	657.272
267.395	17.216	857.275	660.815
268.409	18.254	856.657	664.313
269.424	18.025	856.468	663.218
270.439	18.234	855.719	663.388
271.453	18.320	855.394	663.410
272.468	18.417	854.650	663.151
273.482	18.596	854.207	663.443
274.497	18.686	853.382	663.091
275.512	18.451	852.142	661.162
276.526	18.006	850.797	658.343
277.541	17.971	850.903	658.234
278.555	18.442	850.389	659.591
279.570	18.229	849.389	657.937
280.585	17.979	848.437	656.181
281.599	18.024	848.102	656.038
282.614	18.192	847.555	656.200
283.628	17.971	846.518	654.494
284.643	17.700	845.881	652.904
285.657	18.012	845.658	653.871
286.672	17.955	844.884	652.997
287.687	17.441	844.088	650.359
288.701	17.684	843.736	650.958
289.716	18.059	843.561	652.197
290.730	17.728	842.588	650.125
291.745	17.651	841.794	649.160
292.760	17.501	840.512	647.543
293.774	17.544	839.670	647.001
294.789	18.221	840.063	649.821
295.803	18.809	840.146	652.060
296.818	18.740	839.913	651.560
297.833	19.030	838.733	651.683
298.847	18.719	837.694	649.645
299.862	18.415	836.813	647.755
300.876	18.615	836.569	648.264
301.891	18.828	836.094	648.641
302.906	18.929	835.249	648.311
303.920	18.488	833.892	645.538
304.935	18.253	833.330	644.162
305.949	18.688	833.010	645.494
306.964	18.854	832.484	645.652
307.979	18.694	831.863	644.514
308.993	18.704	832.058	644.645
310.008	19.052	831.373	645.362
311.022	19.001	831.114	644.914
312.037	18.851	830.420	643.757
313.052	18.731	829.471	642.513
314.066	18.625	828.619	641.400
315.081	18.130	827.553	638.672
316.095	17.631	826.833	636.197
317.110	18.008	826.421	637.229
318.125	18.731	826.635	640.033
319.139	18.449	825.478	638.031
320.154	17.411	824.161	633.098
321.168	17.178	823.097	631.358
322.183	17.717	823.153	633.347
323.197	18.394	823.607	636.155
324.212	18.722	822.885	636.760
325.227	18.768	822.475	636.557
326.241	18.944	822.357	637.061
327.256	18.840	821.557	635.999
328.270	18.749	821.161	635.299
329.285	18.717	820.294	634.452
330.300	18.537	819.475	633.101
331.314	18.305	819.025	631.841
332.329	18.412	818.618	631.866
333.343	18.826	817.824	632.721
334.358	19.028	817.549	633.195
335.373	18.771	817.211	631.931
336.387	19.005	816.223	631.972
337.402	19.058	815.956	631.904
338.416	19.311	815.076	632.096
339.431	19.328	814.057	631.309
340.446	19.215	813.745	630.601
341.460	19.186	813.443	630.203
342.475	19.312	812.433	629.825
343.489	19.164	811.564	628.556
344.504	18.928	811.621	627.684
345.519	19.177	811.405	628.370
346.533	19.471	810.592	628.755
347.548	19.583	810.200	628.803
348.562	19.421	810.237	628.186
349.577	19.534	809.136	627.689
350.592	19.561	808.833	627.498
351.606	19.647	808.164	627.234
352.621	19.513	808.003	626.566
353.635	19.449	807.387	625.804
354.650	19.456	806.490	625.076
355.665	19.071	805.917	623.184
356.679	18.235	804.119	618.716
357.694	18.117	803.622	617.853
358.708	18.692	803.519	619.794
359.723	18.525	803.126	618.835
360.738	18.928	802.591	619.822
361.752	19.249	802.786	621.074
362.767	19.417	802.412	621.335
363.781	19.580	802.061	621.597
364.796	19.757	801.633	621.844
365.810	19.663	801.490	621.342
366.825	19.862	800.333	621.104
367.840	19.792	800.381	620.835
368.854	19.840	799.630	620.370
369.869	19.427	798.799	618.190
370.883	19.189	798.614	617.139
371.898	19.244	798.174	616.942
372.913	19.160	797.439	616.019
373.927	19.094	796.540	615.033
374.942	19.404	796.106	615.752
375.956	19.602	795.661	616.058
376.971	19.455	795.285	615.191
377.986	19.630	794.652	615.267
379.000	19.632	794.504	615.108
380.015	19.835	793.603	615.075
381.029	19.728	792.963	614.147
382.044	19.705	792.610	613.734
383.059	19.801	791.927	613.493
384.073	19.653	791.573	612.641
385.088	19.837	791.023	612.813
386.102	19.650	791.109	612.163
387.117	19.733	790.284	611.763
388.132	19.704	789.691	611.147
389.146	19.593	789.141	610.275
390.161	19.214	787.932	607.950
391.175	19.124	787.429	607.190
392.190	19.379	787.450	608.051
393.205	19.566	786.843	608.187
394.219	18.767	785.794	604.513
395.234	17.436	783.910	598.333
396.248	17.034	782.342	595.673
397.263	17.888	783.189	599.265
398.278	19.475	784.179	605.540
399.292	19.887	784.074	606.852
400.307	19.548	783.647	605.281
401.321	19.473	783.527	604.869
402.336	19.557	782.804	604.553
403.350	19.634	782.689	604.681
404.365	19.988	782.344	605.600
405.380	20.118	782.182	605.874
406.394	20.361	781.552	606.179
407.409	20.554	780.815	606.228
408.423	20.454	780.249	605.387
409.438	20.195	780.010	604.245
410.453	20.220	779.387	603.797
411.467	20.366	779.261	604.152
412.482	20.410	778.622	603.758
413.496	20.301	778.170	602.974
414.511	20.368	777.898	602.944
415.526	20.489	777.890	603.305
416.540	20.381	777.339	602.448
417.555	20.266	776.645	601.459
418.569	20.120	775.526	600.033
419.584	19.995	775.443	599.485
420.599	20.263	774.765	599.835
421.613	155.388	1358.715	1792.845
422.628	134.074	1443.809	1792.939
