DTS Sentinel unit serial number:	SN413079Multiplexer serial number:	ORYXHardware model number:	OX4-SRSoftware version number:	ORYX F/W v4.00 Oryx Data Collector v3.7.2.0data status	okinstallation	princeton_trtdifferential loss correction	single-endedforward channel	channel 3reverse channel	N/Adate	2019/09/17time	14:16:35forward acquisition time	60.00reverse acquisition time	0.00gamma	496.2192k internal	0.2299k external	0.2299temperature offset calibration	0.9958default loss term (dB/km)	0.3790temperature slope calibration	1.0000multiplexer offset coefficient	1.0000multiplexer slope coefficient	1.0000fibre end	0.00T internal ref (°C)	36.05T ext. ref 1 (°C)	0.41T ext. ref 2 (°C)	33.07length (m)	temperature (°C)	Stokes	anti-Stokes-747.200	41.247	-0.170	-0.157
-746.185	-200.000	-0.025	0.192
-745.171	334.920	0.147	-0.291
-744.156	-200.000	0.018	-0.190
-743.142	284.923	0.100	0.183
-742.127	-200.000	-0.046	-0.372
-741.112	-44.520	-0.164	0.083
-740.098	-33.053	-0.032	-0.018
-739.083	80.702	-0.064	0.071
-738.069	164.904	0.031	0.044
-737.054	-83.193	0.133	0.044
-736.039	-51.078	-0.447	-0.214
-735.025	-111.338	-0.119	-0.025
-734.010	629.814	-0.129	-0.334
-732.996	-200.000	-0.043	0.293
-731.981	196.048	-0.012	0.019
-730.966	-76.831	0.232	-0.083
-729.952	-39.831	-0.177	-0.094
-728.937	54.997	-0.292	-0.288
-727.923	-171.702	-0.347	-0.012
-726.908	31.083	0.006	-0.005
-725.894	-200.000	0.050	0.316
-724.879	26.680	-0.090	-0.077
-723.864	-60.852	-0.219	-0.094
-722.850	-136.752	0.098	0.011
-721.835	800.000	-0.037	-0.138
-720.821	528.751	-0.146	0.352
-719.806	-200.000	-0.024	-0.236
-718.791	-18.413	0.193	-0.123
-717.777	120.932	-0.084	0.106
-716.762	154.632	0.020	0.027
-715.748	-200.000	0.062	-0.302
-714.733	275.725	0.042	-0.075
-713.718	-62.215	-0.154	-0.065
-712.704	58.437	0.120	-0.120
-711.689	-14.779	-0.187	0.122
-710.675	220.168	0.077	0.125
-709.660	42.409	0.225	-0.209
-708.645	-24.057	-0.260	0.159
-707.631	-51.950	-0.192	0.091
-706.616	239.419	0.151	-0.256
-705.602	517.229	-0.166	-0.397
-704.587	32.777	0.230	0.203
-703.572	657.042	0.149	-0.391
-702.558	-37.987	0.325	0.176
-701.543	51.712	-0.376	0.364
-700.529	454.632	-0.109	-0.246
-699.514	-94.071	-0.111	-0.031
-698.499	23.606	-0.242	0.203
-697.485	121.540	-0.148	0.188
-696.470	62.740	0.046	0.046
-695.456	321.919	-0.042	0.082
-694.441	-192.443	0.193	0.002
-693.426	-61.650	0.150	-0.064
-692.412	-27.308	-0.231	0.137
-691.397	204.539	0.087	0.137
-690.383	-48.073	-0.117	0.057
-689.368	189.650	-0.113	-0.173
-688.354	800.000	0.040	0.146
-687.339	56.042	-0.008	0.007
-686.324	-92.678	-0.525	-0.150
-685.310	343.605	-0.169	-0.338
-684.295	56.888	0.146	-0.145
-683.281	-93.694	0.240	-0.067
-682.266	-35.555	-0.332	0.183
-681.251	-200.000	-0.008	-0.186
-680.237	800.000	-0.049	0.155
-679.222	242.213	-0.111	-0.188
-678.208	149.842	-0.210	-0.289
-677.193	-200.000	-0.013	0.236
-676.178	-109.261	-0.277	0.060
-675.164	-200.000	0.056	-0.257
-674.149	-200.000	0.012	-0.144
-673.135	-18.114	-0.085	0.054
-672.120	-46.622	-0.367	0.183
-671.105	419.463	0.186	0.405
-670.091	114.754	0.194	0.240
-669.076	-200.000	0.012	0.122
-668.062	-200.000	-0.038	-0.249
-667.047	-131.225	0.278	0.038
-666.032	338.662	-0.117	0.232
-665.018	-71.110	0.190	-0.072
-664.003	-200.000	-0.016	-0.158
-662.989	-131.018	0.206	0.028
-661.974	800.000	-0.042	0.159
-660.959	116.118	0.101	0.125
-659.945	174.633	-0.261	0.384
-658.930	-19.988	-0.207	0.130
-657.916	-172.075	-0.088	0.003
-656.901	-200.000	-0.015	-0.254
-655.886	666.148	0.049	0.129
-654.872	-55.128	0.092	-0.042
-653.857	-45.422	-0.232	-0.117
-652.843	293.271	0.195	-0.362
-651.828	529.568	-0.055	0.132
-650.814	21.388	-0.126	-0.104
-649.799	-114.299	0.240	0.047
-648.784	-23.404	0.008	-0.005
-647.770	-67.033	0.129	0.052
-646.755	-46.633	0.283	0.141
-645.741	-200.000	0.033	0.470
-644.726	63.846	0.121	0.124
-643.711	74.973	0.279	0.298
-642.697	-154.230	0.154	0.011
-641.682	-19.641	0.269	-0.169
-640.668	598.876	0.065	0.164
-639.653	783.762	0.017	-0.047
-638.638	362.670	0.095	-0.193
-637.624	-200.000	-0.004	-0.021
-636.609	99.512	-0.092	0.108
-635.595	-96.339	-0.295	-0.079
-634.580	-200.000	-0.050	0.321
-633.565	210.975	0.050	-0.081
-632.551	-0.869	0.197	0.142
-631.536	144.701	0.090	-0.122
-630.522	5.789	-0.267	-0.201
-629.507	-200.000	0.015	-0.242
-628.492	300.484	0.115	-0.215
-627.478	-160.709	-0.236	-0.013
-626.463	267.899	-0.120	0.213
-625.449	800.000	0.110	0.320
-624.434	298.880	-0.063	-0.118
-623.419	-91.769	0.336	-0.097
-622.405	172.299	0.145	-0.211
-621.390	27.067	0.021	-0.018
-620.376	-200.000	0.010	-0.076
-619.361	1.695	0.317	-0.232
-618.346	-48.699	0.245	-0.120
-617.332	92.399	-0.187	0.214
-616.317	-108.195	-0.124	0.027
-615.303	-27.646	0.333	0.196
-614.288	-110.176	0.370	-0.078
-613.273	-49.998	-0.163	-0.079
-612.259	114.608	-0.209	-0.258
-611.244	-169.241	0.176	0.007
-610.230	277.853	-0.032	0.058
-609.215	-166.007	0.208	-0.009
-608.201	800.000	-0.095	-0.381
-607.186	-200.000	0.037	-0.230
-606.171	-200.000	-0.004	0.030
-605.157	-180.769	-0.147	0.003
-604.142	37.456	-0.155	0.140
-603.128	278.357	-0.056	-0.101
-602.113	-200.000	0.058	0.293
-601.098	20.690	-0.263	0.216
-600.084	-4.297	0.180	-0.126
-599.069	-200.000	-0.002	-0.152
-598.055	-62.490	-0.299	-0.126
-597.040	800.000	0.070	0.247
-596.025	433.895	0.092	-0.202
-595.011	742.537	0.080	-0.217
-593.996	-200.000	0.042	0.245
-592.982	154.793	-0.289	0.403
-591.967	-26.583	-0.188	0.112
-590.952	-99.983	-0.228	-0.058
-589.938	-66.659	-0.339	-0.136
-588.923	189.798	0.196	0.299
-587.909	-14.894	0.080	-0.052
-586.894	-200.000	-0.007	-0.192
-585.879	-200.000	-0.023	-0.121
-584.865	-24.623	-0.197	0.119
-583.850	142.838	-0.155	0.208
-582.836	4.808	0.297	0.221
-581.821	-200.000	-0.054	-0.257
-580.806	800.000	-0.077	0.333
-579.792	-116.311	0.355	0.067
-578.777	800.000	-0.054	-0.154
-577.763	107.845	-0.084	-0.101
-576.748	-154.632	-0.214	0.014
-575.733	-154.629	0.175	0.012
-574.719	-92.061	0.163	-0.047
-573.704	73.195	0.227	-0.240
-572.690	51.979	0.215	0.208
-571.675	-78.921	0.103	0.035
-570.661	141.164	-0.311	-0.417
-569.646	-132.729	0.338	0.044
-568.631	800.000	0.047	0.148
-567.617	-129.469	-0.202	0.028
-566.602	800.000	0.051	0.195
-565.588	-200.000	0.007	-0.061
-564.573	-200.000	0.006	-0.028
-563.558	-76.230	0.158	0.056
-562.544	253.562	-0.081	-0.140
-561.529	39.047	-0.168	0.152
-560.515	-200.000	-0.032	0.184
-559.500	-200.000	-0.009	0.247
-558.485	800.000	0.040	-0.114
-557.471	800.000	-0.065	-0.251
-556.456	-200.000	0.005	-0.121
-555.442	-67.989	-0.045	-0.018
-554.427	-200.000	0.040	-0.339
-553.412	-200.000	-0.039	0.173
-552.398	323.913	0.110	-0.213
-551.383	-200.000	-0.001	0.076
-550.369	-14.146	0.057	-0.037
-549.354	-81.085	-0.168	-0.056
-548.339	-66.137	0.053	0.021
-547.325	-17.726	0.294	0.187
-546.310	-151.462	-0.561	0.042
-545.296	77.513	-0.012	-0.013
-544.281	-136.744	-0.209	-0.024
-543.266	-200.000	-0.024	-0.149
-542.252	11.730	-0.235	0.183
-541.237	-145.113	0.146	0.013
-540.223	3.600	-0.141	-0.104
-539.208	-157.346	-0.322	-0.020
-538.193	-65.372	0.216	0.088
-537.179	182.362	-0.121	-0.180
-536.164	-28.093	0.173	0.101
-535.150	-200.000	0.055	0.294
-534.135	-98.138	-0.138	0.036
-533.121	206.554	-0.210	-0.331
-532.106	-80.089	0.109	-0.037
-531.091	-109.752	0.505	-0.107
-530.077	274.592	-0.160	0.286
-529.062	148.667	-0.150	0.206
-528.048	-119.543	-0.244	0.043
-527.033	-200.000	0.044	-0.203
-526.018	-41.762	-0.153	0.079
-525.004	-117.814	0.423	0.077
-523.989	3.771	0.155	0.115
-522.975	198.853	-0.062	-0.096
-521.960	-163.466	-0.162	-0.008
-520.945	-128.680	0.256	-0.037
-519.931	-59.415	0.040	0.017
-518.916	466.050	-0.037	-0.084
-517.902	201.188	-0.072	-0.113
-516.887	-200.000	-0.017	0.207
-515.872	-34.840	0.165	-0.091
-514.858	-52.765	-0.299	-0.139
-513.843	800.000	-0.059	-0.188
-512.829	246.412	0.109	-0.185
-511.814	485.588	0.044	-0.100
-510.799	446.451	-0.083	-0.184
-509.785	138.609	-0.127	0.168
-508.770	-130.347	-0.325	-0.045
-507.756	85.626	-0.209	-0.232
-506.741	-52.965	0.279	0.130
-505.726	71.705	-0.036	-0.038
-504.712	-126.975	-0.380	0.056
-503.697	-134.122	0.046	0.006
-502.683	-200.000	-0.008	0.156
-501.668	-119.316	-0.216	0.038
-500.653	9.153	-0.224	-0.171
-499.639	-42.467	0.143	-0.074
-498.624	484.174	0.068	0.157
-497.610	338.015	0.030	-0.059
-496.595	119.057	-0.169	0.211
-495.581	-57.560	0.119	0.053
-494.566	506.771	-0.165	-0.386
-493.551	-150.144	-0.268	0.021
-492.537	-172.275	0.090	-0.003
-491.522	-13.166	0.402	0.264
-490.508	-63.462	-0.165	-0.068
-489.493	-106.737	0.219	0.049
-488.478	-111.427	0.106	-0.022
-487.464	-200.000	0.007	-0.293
-486.449	-76.942	0.330	-0.117
-485.435	-120.811	0.120	-0.020
-484.420	147.231	-0.082	0.111
-483.405	2.206	-0.179	0.130
-482.391	30.958	-0.135	0.117
-481.376	-200.000	0.015	0.110
-480.362	-98.643	-0.137	-0.035
-479.347	122.998	0.249	-0.315
-478.332	-25.936	0.258	-0.154
-477.318	800.000	-0.059	-0.239
-476.303	19.321	-0.257	0.209
-475.289	-14.962	0.217	-0.140
-474.274	57.515	0.103	-0.101
-473.259	-36.040	0.308	-0.168
-472.245	-200.000	-0.001	0.066
-471.230	-0.279	0.367	0.263
-470.216	800.000	-0.096	0.276
-469.201	-167.826	-0.088	-0.004
-468.186	355.919	-0.128	0.257
-467.172	-200.000	-0.013	0.137
-466.157	71.846	0.160	0.168
-465.143	-58.674	-0.267	0.117
-464.128	-52.769	0.186	0.087
-463.113	-200.000	0.051	-0.265
-462.099	-94.752	0.257	-0.070
-461.084	173.764	-0.303	-0.441
-460.070	108.457	0.201	-0.243
-459.055	-200.000	0.015	-0.070
-458.040	-200.000	-0.036	0.216
-457.026	-51.575	-0.207	-0.097
-456.011	-96.212	-0.436	-0.117
-454.997	379.517	-0.106	0.220
-453.982	7.739	0.137	-0.104
-452.968	171.095	-0.246	0.356
-451.953	28.327	-0.189	0.162
-450.938	-86.780	0.315	-0.097
-449.924	132.107	-0.076	-0.098
-448.909	-125.771	0.112	-0.017
-447.895	279.121	-0.088	-0.158
-446.880	10.278	0.072	0.055
-445.865	-2.452	0.345	-0.244
-444.851	-86.279	0.243	-0.075
-443.836	-20.479	-0.132	0.082
-442.822	-43.364	-0.117	0.060
-441.807	800.000	0.027	-0.101
-440.792	352.442	0.120	0.239
-439.778	-89.295	-0.020	0.006
-438.763	-200.000	0.003	-0.035
-437.749	-83.334	-0.159	0.052
-436.734	-6.919	-0.134	0.092
-435.719	-200.000	-0.030	-0.333
-434.705	4.679	0.219	-0.162
-433.690	-2.153	-0.134	0.095
-432.676	-52.854	-0.197	0.091
-431.661	-70.111	-0.307	-0.118
-430.646	474.548	-0.053	0.122
-429.632	-149.461	0.343	-0.027
-428.617	123.093	-0.085	0.107
-427.603	-117.895	-0.375	0.068
-426.588	800.000	0.099	0.318
-425.573	16.741	-0.118	0.094
-424.559	534.666	0.033	0.079
-423.544	37.098	-0.118	0.105
-422.530	3.066	0.119	0.087
-421.515	-190.712	-0.478	-0.005
-420.500	-171.708	-0.221	0.007
-419.486	469.868	0.131	-0.296
-418.471	-91.047	-0.065	0.019
-417.457	-200.000	0.018	0.192
-416.442	-43.287	0.272	-0.139
-415.428	-200.000	0.040	-0.369
-414.413	35.392	-0.080	-0.071
-413.398	-82.477	0.127	-0.041
-412.384	800.000	0.046	-0.193
-411.369	800.000	0.070	-0.303
-410.355	318.394	0.091	-0.173
-409.340	216.089	0.016	-0.025
-408.325	60.563	0.125	-0.124
-407.311	146.911	-0.308	0.417
-406.296	800.000	0.167	0.514
-405.282	575.100	-0.038	0.093
-404.267	212.192	-0.074	0.118
-403.252	90.709	-0.116	0.131
-402.238	141.246	0.226	0.301
-401.223	-200.000	0.086	0.000
-400.209	-51.177	-0.335	0.158
-399.194	-5.473	0.185	-0.128
-398.179	11.669	-0.128	0.099
-397.165	-133.073	0.053	-0.007
-396.150	-77.417	-0.170	-0.059
-395.136	156.961	-0.196	-0.273
-394.121	-75.504	-0.054	0.019
-393.106	261.555	-0.241	-0.421
-392.092	336.871	-0.109	-0.212
-391.077	-132.792	0.145	-0.019
-390.063	800.000	-0.063	-0.180
-389.048	170.856	0.299	0.431
-388.033	173.929	-0.178	0.258
-387.019	54.216	0.363	-0.351
-386.004	400.140	-0.099	-0.208
-384.990	178.866	0.128	-0.189
-383.975	800.000	-0.120	-0.473
-382.960	143.291	-0.084	-0.112
-381.946	-111.844	0.100	0.020
-380.931	745.760	-0.047	-0.126
-379.917	119.810	-0.070	-0.087
-378.902	19.025	-0.186	-0.150
-377.888	-1.070	-0.272	-0.194
-376.873	-58.826	0.306	-0.133
-375.858	-67.539	0.174	-0.069
-374.844	-15.598	0.094	-0.060
-373.829	-200.000	0.008	0.434
-372.815	32.371	-0.235	0.204
-371.800	-17.839	0.046	0.029
-370.785	-25.332	0.296	-0.176
-369.771	-109.848	-0.308	-0.065
-368.756	17.173	-0.110	-0.088
-367.742	-200.000	-0.028	0.130
-366.727	800.000	0.058	0.194
-365.712	-80.518	0.194	-0.065
-364.698	-68.826	0.008	-0.003
-363.683	11.450	0.239	0.184
-362.669	88.857	0.186	-0.208
-361.654	-128.380	-0.147	-0.021
-360.639	-14.919	0.073	0.047
-359.625	800.000	0.032	-0.105
-358.610	800.000	-0.074	0.249
-357.596	-30.729	-0.084	-0.048
-356.581	-77.062	-0.184	0.065
-355.566	565.339	0.165	-0.403
-354.552	171.070	-0.157	-0.226
-353.537	-67.103	-0.197	0.078
-352.523	-79.867	-0.170	-0.058
-351.508	-39.911	0.249	0.130
-350.493	520.388	0.125	0.294
-349.479	251.151	-0.065	-0.111
-348.464	53.276	-0.225	0.217
-347.450	146.547	-0.162	0.219
-346.435	-34.468	0.090	-0.049
-345.420	-114.695	-0.061	0.012
-344.406	-2.153	-0.088	-0.062
-343.391	86.646	-0.217	0.240
-342.377	206.794	0.082	0.128
-341.362	100.289	-0.200	-0.234
-340.348	-200.000	-0.023	0.362
-339.333	-200.000	-0.004	-0.081
-338.318	800.000	-0.013	0.040
-337.304	468.554	0.058	-0.131
-336.289	-200.000	-0.037	-0.194
-335.275	-93.722	-0.271	-0.075
-334.260	-52.905	-0.499	0.231
-333.245	77.248	-0.106	-0.113
-332.231	-21.768	0.200	-0.123
-331.216	150.314	0.151	0.206
-330.202	136.444	-0.003	-0.004
-329.187	62.190	0.250	0.250
-328.172	-124.436	0.039	0.006
-327.158	520.290	-0.131	0.308
-326.143	36.439	0.247	0.219
-325.129	-49.748	0.210	0.100
-324.114	-200.000	0.040	0.265
-323.099	65.346	0.114	0.115
-322.085	-136.898	-0.212	0.024
-321.070	37.401	0.331	0.295
-320.056	-129.150	0.149	0.021
-319.041	59.585	0.260	-0.258
-318.026	-13.267	0.155	0.101
-317.012	-127.649	-0.062	-0.009
-315.997	86.168	0.233	-0.257
-314.983	-200.000	-0.022	0.110
-313.968	202.684	-0.085	-0.132
-312.953	59.133	0.167	-0.165
-311.939	-137.324	0.233	0.026
-310.924	-52.870	0.097	-0.045
-309.910	269.904	0.095	-0.168
-308.895	-200.000	-0.032	-0.173
-307.880	229.702	-0.161	0.263
-306.866	-10.175	0.194	-0.129
-305.851	-200.000	0.072	-0.325
-304.837	204.102	-0.211	0.328
-303.822	-32.802	0.184	0.103
-302.807	800.000	-0.083	-0.275
-301.793	-167.073	-0.158	0.006
-300.778	113.926	-0.117	-0.143
-299.764	-41.183	0.078	-0.040
-298.749	139.101	-0.123	0.162
-297.735	17.189	-0.217	0.172
-296.720	-94.551	-0.139	-0.038
-295.705	97.797	0.034	0.040
-294.691	-200.000	-0.034	-0.185
-293.676	38.481	-0.245	-0.219
-292.662	-200.000	0.009	-0.202
-291.647	-144.203	0.189	-0.018
-290.632	-148.893	0.443	-0.036
-289.618	-172.712	-0.323	0.010
-288.603	80.701	-0.109	0.118
-287.589	-200.000	0.003	-0.063
-286.574	-117.350	-0.278	-0.051
-285.559	148.211	0.183	-0.247
-284.545	229.177	-0.079	0.129
-283.530	-185.174	0.443	-0.007
-282.516	-200.000	0.004	-0.138
-281.501	-144.666	0.166	-0.015
-280.486	71.254	-0.163	-0.170
-279.472	-11.259	-0.297	-0.196
-278.457	7.140	0.127	0.095
-277.443	61.132	-0.218	-0.217
-276.428	-200.000	0.013	0.244
-275.413	800.000	0.077	0.274
-274.399	-196.370	-0.338	-0.002
-273.384	-96.499	0.176	0.047
-272.370	-60.881	-0.027	0.011
-271.355	53.528	0.256	-0.246
-270.340	38.043	0.139	0.124
-269.326	-123.558	0.067	0.011
-268.311	17.009	0.096	-0.077
-267.297	224.033	0.145	0.235
-266.282	-200.000	0.001	0.104
-265.267	115.816	0.340	-0.417
-264.253	-197.742	-0.351	0.002
-263.238	195.502	-0.203	0.308
-262.224	-62.065	-0.216	-0.090
-261.209	702.744	0.076	0.201
-260.195	11.016	0.145	0.111
-259.180	-200.000	0.053	-0.318
-258.165	800.000	-0.030	-0.118
-257.151	171.796	-0.017	-0.024
-256.136	206.874	-0.030	-0.047
-255.122	605.704	0.144	0.359
-254.107	101.701	-0.155	-0.181
-253.092	-135.035	0.119	0.014
-252.078	103.922	0.102	0.120
-251.063	-200.000	-0.026	-0.240
-250.049	-28.642	-0.306	0.176
-249.034	147.735	-0.234	0.315
-248.019	800.000	0.066	-0.205
-247.005	-129.029	0.275	0.038
-245.990	549.321	-0.097	-0.233
-244.976	-200.000	-0.003	0.074
-243.961	-135.735	0.237	0.028
-242.946	-81.225	-0.180	0.059
-241.932	-13.517	0.087	0.056
-240.917	-200.000	-0.050	0.398
-239.903	-20.363	0.158	-0.097
-238.888	-119.048	0.262	0.046
-237.873	-200.000	0.035	-0.152
-236.859	497.423	0.174	0.401
-235.844	-167.832	0.205	0.008
-234.830	146.422	-0.084	-0.112
-233.815	29.112	-0.260	-0.220
-232.800	-46.649	-0.151	0.074
-231.786	34.097	0.220	-0.191
-230.771	107.512	-0.098	0.117
-229.757	24.119	0.400	0.330
-228.742	-200.000	0.000	0.252
-227.727	-190.573	0.130	0.001
-226.713	-47.070	-0.173	0.085
-225.698	-70.332	-0.262	0.099
-224.684	-17.278	-0.180	-0.113
-223.669	45.646	0.228	-0.211
-222.655	24.788	-0.138	-0.114
-221.640	-82.780	0.232	0.075
-220.625	-78.454	0.284	0.097
-219.611	-111.857	-0.129	0.026
-218.596	128.780	0.074	-0.094
-217.582	184.996	-0.166	-0.246
-216.567	-200.000	-0.023	0.239
-215.552	383.891	0.054	0.111
-214.538	-24.062	-0.267	0.159
-213.523	103.110	0.129	0.151
-212.509	-58.415	0.201	-0.087
-211.494	-46.210	0.367	0.181
-210.479	708.737	0.094	-0.248
-209.465	120.845	0.246	-0.306
-208.450	-114.303	0.296	-0.057
-207.436	80.006	0.270	0.290
-206.421	0.499	-0.108	0.077
-205.406	56.293	0.123	0.120
-204.392	-6.069	-0.161	-0.110
-203.377	-132.170	-0.285	-0.037
-202.363	-56.947	0.161	0.071
-201.348	-200.000	0.020	-0.336
-200.333	800.000	0.103	0.315
-199.319	-59.925	-0.186	-0.079
-198.304	115.451	-0.170	-0.207
-197.290	26.745	-0.314	0.263
-196.275	800.000	-0.016	0.047
-195.260	-200.000	0.010	0.050
-194.246	174.577	0.155	0.224
-193.231	160.120	0.122	-0.170
-192.217	800.000	-0.090	-0.250
-191.202	-200.000	-0.016	-0.108
-190.187	-19.502	0.218	0.135
-189.173	-52.482	0.285	0.131
-188.158	119.254	-0.265	0.328
-187.144	117.245	-0.224	0.275
-186.129	-200.000	-0.052	-0.293
-185.114	-78.780	-0.251	-0.085
-184.100	800.000	-0.130	0.459
-183.085	-200.000	-0.001	-0.114
-182.071	-141.499	-0.421	-0.043
-181.056	-200.000	0.011	-0.070
-180.042	-135.581	-0.291	-0.035
-179.027	-129.128	-0.209	0.029
-178.012	-20.759	0.083	0.051
-176.998	-12.102	0.199	0.130
-175.983	-200.000	-0.002	0.089
-174.969	-67.011	-0.070	-0.028
-173.954	-10.540	-0.029	-0.019
-172.939	-200.000	-0.032	0.361
-171.925	396.924	0.064	0.133
-170.910	-64.297	-0.059	0.024
-169.896	-200.000	0.065	-0.327
-168.881	-76.752	-0.348	0.121
-167.866	43.786	-0.109	0.099
-166.852	-131.424	0.128	-0.017
-165.837	-106.539	-0.307	-0.068
-164.823	800.000	-0.048	-0.164
-163.808	-200.000	-0.057	0.252
-162.793	-200.000	-0.023	-0.362
-161.779	-130.692	0.179	-0.024
-160.764	194.604	-0.101	-0.153
-159.750	800.000	0.051	0.160
-158.735	-58.792	0.314	-0.136
-157.720	10.671	0.235	0.179
-156.706	63.014	0.108	-0.108
-155.691	-60.896	0.143	-0.060
-154.677	203.957	0.076	-0.117
-153.662	-43.504	-0.175	-0.088
-152.647	-105.106	-0.240	0.055
-151.633	582.720	-0.127	-0.312
-150.618	-96.050	-0.386	0.102
-149.604	49.478	-0.066	-0.062
-148.589	-119.221	0.195	-0.034
-147.574	-67.421	-0.214	-0.084
-146.560	-200.000	0.039	-0.189
-145.545	800.000	-0.084	0.279
-144.531	800.000	0.088	0.358
-143.516	8.018	-0.271	-0.202
-142.502	-20.756	-0.188	-0.115
-141.487	-113.168	0.326	0.064
-140.472	-36.182	0.107	-0.057
-139.458	-109.045	-0.353	0.075
-138.443	78.453	0.167	-0.178
-137.429	-200.000	-0.033	0.205
-136.414	-48.874	-0.118	0.056
-135.399	139.389	0.119	0.157
-134.385	94.055	-0.217	0.245
-133.370	-0.469	-0.323	0.228
-132.356	188.126	-0.044	-0.065
-131.341	-200.000	-0.021	0.226
-130.326	-97.502	-0.123	0.032
-129.312	530.932	-0.079	0.186
-128.297	494.857	-0.073	-0.168
-127.283	-153.945	0.200	-0.014
-126.268	49.600	0.249	-0.234
-125.253	-200.000	-0.030	-0.188
-124.239	-200.000	0.018	0.123
-123.224	-200.000	0.029	0.299
-122.210	-126.994	0.284	-0.041
-121.195	321.384	-0.031	-0.060
-120.180	132.708	0.137	0.176
-119.166	145.668	-0.065	0.087
-118.151	174.904	-0.194	0.279
-117.137	132.711	-0.062	0.079
-116.122	329.098	-0.067	0.129
-115.107	21.017	0.120	-0.097
-114.093	-26.448	-0.333	-0.195
-113.078	-164.374	-0.037	0.002
-112.064	138.105	0.090	0.118
-111.049	-144.781	-0.207	-0.019
-110.034	259.027	0.086	0.147
-109.020	-200.000	-0.028	0.264
-108.005	-173.218	0.348	0.011
-106.991	-37.678	0.013	-0.007
-105.976	49.362	-0.190	0.178
-104.962	28.897	-0.248	-0.209
-103.947	-130.729	0.445	0.060
-102.932	-142.623	-0.027	0.003
-101.918	79.354	0.203	0.217
-100.903	-29.023	0.116	-0.066
-99.889	55.185	-0.132	0.127
-98.874	-146.021	0.188	0.017
-97.859	-18.866	0.193	0.120
-96.845	-44.395	0.227	-0.113
-95.830	28.173	-0.127	-0.106
-94.816	570.529	0.115	0.278
-93.801	-117.912	-0.337	0.060
-92.786	128.430	0.061	-0.077
-91.772	-143.928	-0.113	0.011
-90.757	-81.083	-0.320	0.105
-89.743	-173.847	-0.225	-0.007
-88.728	-88.400	0.267	0.079
-87.713	-106.441	-0.121	0.027
-86.699	-9.823	0.206	0.136
-85.684	196.775	-0.120	-0.182
-84.670	-95.509	-0.072	-0.019
-83.655	282.841	-0.069	0.123
-82.640	257.553	0.067	-0.114
-81.626	333.141	-0.133	0.256
-80.611	248.684	0.049	0.083
-79.597	-153.917	-0.261	0.018
-78.582	362.535	-0.085	-0.169
-77.567	1.176	0.078	-0.056
-76.553	177.342	-0.156	-0.226
-75.538	130.351	-0.100	-0.127
-74.524	28.981	0.205	-0.173
-73.509	-26.190	-0.305	0.178
-72.494	35.087	-0.316	0.275
-71.480	106.389	0.073	-0.086
-70.465	-70.682	0.316	-0.118
-69.451	0.042	-0.132	0.094
-68.436	-200.000	0.036	0.192
-67.422	-93.293	-0.313	-0.086
-66.407	-200.000	-0.043	-0.301
-65.392	6.561	-0.275	-0.203
-64.378	-56.370	-0.205	0.090
-63.363	243.912	-0.023	-0.038
-62.349	-16.517	0.265	0.167
-61.334	86.198	-0.637	-0.697
-60.319	800.000	0.243	0.716
-59.305	-200.000	-0.124	-0.996
-58.290	253.019	0.628	1.065
-57.276	800.000	0.613	1.888
-56.261	-200.000	90.491	515.601
-55.246	444.001	1424.449	3103.344
-54.232	143.318	2630.717	3477.619
-53.217	108.310	2252.795	2669.462
-52.203	45.667	1771.065	1625.229
-51.188	38.929	1574.895	1397.401
-50.173	36.540	1546.817	1355.698
-49.159	53.472	1593.391	1517.416
-48.144	56.900	1612.842	1560.302
-47.130	39.556	1570.771	1397.969
-46.115	36.261	1555.373	1361.015
-45.100	36.108	1551.877	1356.824
-44.086	35.952	1550.616	1354.569
-43.071	36.061	1547.896	1352.908
-42.057	35.968	1546.352	1350.847
-41.042	36.023	1544.862	1349.883
-40.027	36.005	1543.406	1348.426
-39.013	35.979	1541.730	1346.729
-37.998	36.008	1540.784	1346.051
-36.984	35.908	1540.025	1344.637
-35.969	35.966	1538.296	1343.478
-34.954	35.951	1536.563	1341.806
-33.940	35.929	1535.331	1340.527
-32.925	36.065	1533.410	1339.743
-31.911	36.095	1532.281	1338.907
-30.896	36.114	1531.070	1337.931
-29.881	36.153	1529.883	1337.112
-28.867	36.221	1527.738	1335.654
-27.852	36.197	1526.534	1334.381
-26.838	36.157	1524.651	1332.408
-25.823	36.189	1523.095	1331.216
-24.809	36.145	1521.461	1329.429
-23.794	35.993	1520.683	1327.653
-22.779	35.952	1520.082	1326.790
-21.765	36.079	1518.369	1326.119
-20.750	36.159	1516.719	1325.172
-19.736	36.097	1516.039	1324.096
-18.721	36.125	1514.771	1323.132
-17.706	36.035	1513.489	1321.343
-16.692	36.086	1512.376	1320.671
-15.677	36.043	1511.908	1319.912
-14.663	36.032	1510.719	1318.748
-13.648	36.085	1509.515	1318.004
-12.633	36.059	1508.433	1316.832
-11.619	36.107	1507.619	1316.396
-10.604	35.961	1506.957	1314.768
-9.590	35.919	1506.412	1313.955
-8.575	36.049	1505.031	1313.583
-7.560	36.009	1503.852	1312.229
-6.546	35.994	1503.167	1311.477
-5.531	35.974	1502.151	1310.405
-4.517	35.948	1501.289	1309.423
-3.502	35.906	1500.156	1308.099
-2.487	35.959	1499.284	1307.643
-1.473	35.959	1498.166	1306.622
-0.458	36.061	1496.627	1305.914
0.556	34.633	1487.576	1295.751
1.571	32.134	1460.701	1255.549
2.586	28.460	1395.942	1176.260
3.600	26.134	1308.684	1088.623
4.615	23.895	1260.463	1035.399
5.629	20.253	1201.822	966.882
6.644	10.372	1110.664	842.326
7.659	1.951	1065.615	765.936
8.673	0.569	1059.281	754.415
9.688	0.395	1056.377	751.412
10.702	0.415	1055.089	750.526
11.717	0.241	1053.369	748.375
12.731	3.198	1056.337	765.133
13.746	12.177	1069.089	819.314
14.761	18.065	1076.168	854.179
15.775	17.806	1074.383	851.393
16.790	16.697	1072.328	844.163
17.804	15.671	1069.857	837.038
18.819	14.803	1068.012	831.207
19.834	14.348	1066.455	827.661
20.848	13.967	1065.547	824.988
21.863	13.777	1064.673	823.296
22.877	13.539	1063.852	821.409
23.892	13.396	1062.938	819.923
24.907	13.247	1062.301	818.621
25.921	13.246	1061.482	817.912
26.936	13.338	1061.144	818.034
27.950	13.328	1060.254	817.229
28.965	13.325	1059.624	816.653
29.980	13.371	1058.602	816.023
30.994	13.523	1057.122	815.554
32.009	13.442	1056.961	814.961
33.023	13.595	1056.081	814.962
34.038	13.438	1055.197	813.435
35.053	13.497	1054.654	813.238
36.067	13.385	1053.430	811.674
37.082	13.529	1052.411	811.522
38.096	13.403	1052.223	810.687
39.111	13.425	1051.644	810.275
40.126	13.520	1050.433	809.734
41.140	13.409	1049.058	808.063
42.155	13.356	1048.338	807.178
43.169	13.358	1047.176	806.220
44.184	13.261	1046.399	805.080
45.199	13.212	1045.230	803.869
46.213	13.248	1044.426	803.355
47.228	13.289	1043.151	802.505
48.242	13.239	1042.567	801.738
49.257	13.203	1041.682	800.815
50.271	13.384	1040.512	800.722
51.286	13.399	1039.587	800.009
52.301	13.271	1039.046	798.904
53.315	13.322	1037.774	798.103
54.330	13.387	1037.134	797.851
55.344	13.187	1036.234	796.125
56.359	13.482	1034.759	796.342
57.374	13.365	1034.103	795.204
58.388	13.305	1033.192	794.145
59.403	13.173	1032.448	792.870
60.417	13.370	1031.386	792.929
61.432	13.238	1030.725	791.716
62.447	13.255	1030.106	791.254
63.461	13.206	1029.266	790.303
64.476	13.153	1028.589	789.459
65.490	13.113	1027.713	788.526
66.505	13.045	1027.189	787.730
67.520	13.114	1026.275	787.290
68.534	13.203	1025.175	786.799
69.549	13.158	1024.581	786.061
70.563	13.353	1023.218	785.871
71.578	13.362	1023.025	785.694
72.593	13.214	1021.925	784.078
73.607	13.218	1020.836	783.196
74.622	13.131	1020.218	782.236
75.636	13.137	1018.989	781.255
76.651	13.079	1018.893	780.840
77.666	13.113	1017.533	779.886
78.680	13.072	1017.286	779.435
79.695	13.109	1016.844	779.204
80.709	13.157	1015.763	778.530
81.724	13.211	1014.867	778.032
82.739	13.180	1014.141	777.257
83.753	13.260	1013.813	777.315
84.768	13.398	1012.644	776.996
85.782	13.227	1012.289	775.852
86.797	13.377	1011.176	775.634
87.812	13.430	1010.580	775.357
88.826	13.249	1009.632	773.717
89.841	13.351	1008.770	773.464
90.855	13.372	1008.224	773.076
91.870	13.326	1007.293	772.079
92.884	13.475	1006.073	771.768
93.899	13.456	1005.320	771.033
94.914	13.352	1005.037	770.266
95.928	13.492	1004.124	770.148
96.943	13.402	1003.563	769.231
97.957	13.422	1002.478	768.423
98.972	13.440	1001.637	767.796
99.987	13.396	1001.239	767.220
101.001	13.385	1000.649	766.646
102.016	13.344	999.760	765.708
103.030	13.310	998.668	764.646
104.045	13.430	997.364	764.136
105.060	13.437	996.478	763.420
106.074	13.458	995.872	762.987
107.089	13.372	995.144	761.965
108.103	13.166	994.485	760.443
109.118	13.285	993.085	759.852
110.133	13.240	992.109	758.832
111.147	13.108	991.390	757.612
112.162	13.277	990.534	757.661
113.176	13.235	989.607	756.695
114.191	13.233	988.743	755.960
115.206	13.373	987.746	755.769
116.220	13.375	986.872	755.043
117.235	13.350	985.989	754.188
118.249	13.248	985.429	753.225
119.264	13.270	984.350	752.437
120.279	13.355	983.234	751.901
121.293	13.249	982.988	751.167
122.308	13.202	981.731	749.924
123.322	13.174	981.184	749.315
124.337	13.280	980.050	748.864
125.352	13.226	979.088	747.816
126.366	13.357	977.567	747.182
127.381	13.286	976.430	745.924
128.395	13.318	975.679	745.429
129.410	13.331	974.674	744.654
130.424	13.227	973.932	743.555
131.439	13.316	973.146	743.290
132.454	13.404	971.989	742.733
133.468	13.306	972.139	742.340
134.483	13.248	971.377	741.433
135.497	13.328	970.228	740.851
136.512	13.400	969.456	740.518
137.527	13.447	968.438	739.886
138.541	13.405	967.669	739.044
139.556	13.405	967.155	738.586
140.570	13.468	966.090	737.987
141.585	13.515	965.334	737.555
142.600	13.385	964.807	736.507
143.614	13.620	963.485	736.477
144.629	13.453	963.210	735.459
145.643	13.498	962.389	734.967
146.658	13.493	961.806	734.436
147.673	13.558	960.489	733.653
148.687	13.492	959.957	732.892
149.702	13.362	959.648	732.016
150.716	13.448	958.091	731.144
151.731	13.391	957.297	730.220
152.746	13.271	956.981	729.386
153.760	13.422	956.033	729.264
154.775	13.403	955.083	728.392
155.789	13.513	954.126	728.080
156.804	13.473	953.723	727.532
157.819	13.636	952.157	726.988
158.833	13.459	952.371	726.309
159.848	13.486	951.589	725.767
160.862	13.667	950.603	725.742
161.877	13.655	950.141	725.276
162.892	13.484	949.413	723.909
163.906	13.536	948.096	723.067
164.921	13.544	947.831	722.833
165.935	13.433	946.551	721.310
166.950	13.548	945.605	721.026
167.964	13.474	944.450	719.762
168.979	13.490	943.399	718.967
169.994	13.443	942.630	718.110
171.008	13.494	941.907	717.717
172.023	13.526	941.244	717.289
173.037	13.600	940.465	716.954
174.052	13.664	939.522	716.448
175.067	13.677	938.992	716.033
176.081	13.552	938.143	714.787
177.096	13.565	937.207	714.064
178.110	13.512	936.253	713.046
179.125	13.632	935.670	713.056
180.140	13.672	934.978	712.639
181.154	13.676	933.891	711.763
182.169	13.747	933.219	711.490
183.183	13.618	933.291	710.932
184.198	13.719	932.241	710.503
185.213	13.759	931.595	710.115
186.227	13.875	930.913	710.029
187.242	13.860	930.110	709.290
188.256	13.798	929.806	708.733
189.271	13.778	928.792	707.809
190.286	13.909	927.965	707.678
191.300	13.815	927.332	706.729
192.315	13.705	926.603	705.643
193.329	13.729	925.945	705.181
194.344	13.771	925.150	704.691
195.359	13.670	924.703	703.861
196.373	13.667	924.232	703.428
197.388	13.887	923.346	703.624
198.402	13.938	922.649	703.248
199.417	13.981	922.345	703.136
200.432	14.126	921.672	703.172
201.446	14.019	921.508	702.532
202.461	14.106	920.846	702.335
203.475	14.040	920.881	702.020
204.490	14.127	919.774	701.479
205.504	14.026	918.968	700.378
206.519	14.136	917.711	699.819
207.534	14.155	917.054	699.337
208.548	14.099	916.500	698.619
209.563	14.013	915.906	697.741
210.577	14.139	915.122	697.612
211.592	14.038	914.680	696.787
212.607	13.920	914.424	696.037
213.621	14.135	913.519	696.188
214.636	14.249	912.518	695.842
215.650	14.202	912.198	695.337
216.665	14.091	911.788	694.499
217.680	14.193	911.292	694.487
218.694	14.177	910.677	693.890
219.709	14.327	910.183	694.076
220.723	14.316	909.317	693.311
221.738	14.254	908.598	692.442
222.753	14.298	907.895	692.028
223.767	14.271	907.283	691.387
224.782	14.303	906.501	690.863
225.796	14.339	905.709	690.349
226.811	14.385	905.318	690.181
227.826	14.406	904.385	689.495
228.840	14.338	903.383	688.387
229.855	14.441	902.709	688.241
230.869	14.381	902.230	687.564
231.884	14.437	901.680	687.317
232.899	14.382	900.754	686.323
233.913	14.353	900.038	685.597
234.928	14.475	899.157	685.367
235.942	14.277	899.007	684.379
236.957	14.328	898.082	683.824
237.972	14.279	897.609	683.204
238.986	14.416	897.004	683.244
240.001	14.335	896.481	682.453
241.015	14.314	895.345	681.442
242.030	14.492	894.814	681.703
243.045	14.347	894.317	680.673
244.059	14.583	893.700	681.107
245.074	14.526	892.362	679.794
246.088	14.462	892.278	679.411
247.103	14.571	891.619	679.289
248.117	14.578	891.273	678.995
249.132	14.667	890.630	678.809
250.147	14.637	890.120	678.239
251.161	14.612	889.408	677.535
252.176	14.702	888.769	677.351
253.190	14.830	887.905	677.153
254.205	14.817	887.349	676.615
255.220	14.818	886.564	675.962
256.234	14.862	885.957	675.617
257.249	14.848	885.482	675.139
258.263	14.886	884.914	674.798
259.278	14.975	884.196	674.552
260.293	14.876	883.723	673.728
261.307	14.874	883.541	673.525
262.322	14.929	882.807	673.126
263.336	14.885	882.297	672.500
264.351	15.076	881.235	672.397
265.366	14.978	880.481	671.370
266.380	15.043	880.095	671.277
267.395	15.055	879.551	670.853
268.409	15.195	878.541	670.580
269.424	15.002	878.249	669.528
270.439	15.045	877.651	669.183
271.453	14.981	876.771	668.199
272.468	15.104	875.655	667.780
273.482	15.091	875.396	667.472
274.497	15.106	874.615	666.876
275.512	15.049	874.002	666.125
276.526	15.145	873.149	665.797
277.541	15.110	872.386	665.016
278.555	15.135	872.149	664.877
279.570	15.144	871.827	664.609
280.585	15.162	871.237	664.171
281.599	15.231	870.599	663.900
282.614	15.317	869.794	663.566
283.628	15.161	869.245	662.471
284.643	15.219	868.722	662.242
285.657	15.245	868.270	661.942
286.672	15.309	867.263	661.368
287.687	15.310	866.722	660.902
288.701	15.278	866.395	660.470
289.716	15.397	865.419	660.135
290.730	15.313	865.413	659.741
291.745	15.293	865.119	659.380
292.760	15.470	864.010	659.170
293.774	15.377	863.479	658.343
294.789	15.426	862.159	657.470
295.803	15.577	862.085	657.948
296.818	15.502	861.495	657.145
297.833	15.565	860.975	656.935
298.847	15.343	860.054	655.309
299.862	15.448	859.630	655.336
300.876	15.522	858.381	654.615
301.891	15.501	857.886	654.099
302.906	15.377	857.832	653.516
303.920	15.613	856.364	653.256
304.935	15.673	855.878	653.060
305.949	15.663	855.485	652.666
306.964	15.789	854.944	652.684
307.979	15.807	853.949	651.938
308.993	15.585	854.167	651.186
310.008	15.712	853.251	650.922
311.022	15.669	853.048	650.543
312.037	15.868	852.102	650.532
313.052	15.596	851.969	649.323
314.066	15.656	851.390	649.054
315.081	15.810	850.491	648.904
316.095	15.595	849.903	647.570
317.110	15.680	849.428	647.477
318.125	15.774	848.984	647.447
319.139	15.651	848.622	646.641
320.154	15.722	847.889	646.296
321.168	15.722	847.423	645.884
322.183	15.742	846.978	645.564
323.197	15.743	846.177	644.898
324.212	15.647	846.054	644.380
325.227	15.906	845.027	644.532
326.241	15.920	844.151	643.861
327.256	15.786	844.229	643.353
328.270	15.811	843.714	642.998
329.285	15.797	843.253	642.536
330.300	15.859	842.185	641.901
331.314	16.004	841.511	641.883
332.329	15.832	841.165	640.909
333.343	15.812	840.547	640.304
334.358	15.948	839.786	640.185
335.373	15.867	839.478	639.586
336.387	15.787	839.221	639.031
337.402	16.001	838.417	639.174
338.416	15.986	837.961	638.713
339.431	16.057	837.284	638.408
340.446	16.041	836.460	637.663
341.460	16.202	836.122	637.959
342.475	16.220	835.579	637.556
343.489	16.282	835.125	637.387
344.504	16.146	834.481	636.327
345.519	16.285	833.613	636.132
346.533	16.311	833.481	636.070
347.548	16.220	833.035	635.332
348.562	16.277	832.464	635.055
349.577	16.182	832.131	634.387
350.592	16.208	831.459	633.918
351.606	16.279	830.934	633.727
352.621	16.058	830.781	632.724
353.635	16.173	830.063	632.554
354.650	16.227	829.493	632.267
355.665	16.243	829.240	632.078
356.679	16.266	828.948	631.884
357.694	16.349	828.076	631.473
358.708	16.434	827.344	631.177
359.723	16.118	827.562	630.107
360.738	16.392	826.389	630.181
361.752	16.381	825.984	629.774
362.767	16.481	825.384	629.634
363.781	16.422	825.132	629.166
364.796	16.495	824.623	628.994
365.810	16.499	824.243	628.663
366.825	16.609	823.676	628.586
367.840	16.456	823.776	628.037
368.854	16.564	823.347	628.057
369.869	16.609	822.609	627.603
370.883	16.617	821.837	626.989
371.898	16.617	821.588	626.742
372.913	16.716	820.738	626.407
373.927	16.672	820.497	626.001
374.942	16.613	819.636	625.075
375.956	16.652	818.918	624.615
376.971	16.641	818.553	624.238
377.986	16.664	818.179	623.985
379.000	16.960	817.368	624.401
380.015	16.690	817.088	623.138
381.029	16.925	816.106	623.199
382.044	16.739	815.861	622.273
383.059	16.839	815.212	622.088
384.073	16.840	815.125	621.972
385.088	16.983	813.980	621.565
386.102	16.944	813.377	620.907
387.117	16.776	813.287	620.170
388.132	16.828	812.595	619.779
389.146	16.810	812.317	619.445
390.161	16.854	812.039	619.341
391.175	16.853	812.021	619.267
392.190	16.855	811.454	618.788
393.205	16.934	810.775	618.501
394.219	17.018	810.140	618.271
395.234	16.925	810.032	617.792
396.248	16.983	809.114	617.250
397.263	16.952	808.673	616.746
398.278	16.827	808.437	616.057
399.292	16.782	807.674	615.257
400.307	16.862	807.618	615.452
401.321	16.911	806.929	615.048
402.336	17.009	806.354	614.912
403.350	17.052	805.935	614.693
404.365	17.017	805.367	614.080
405.380	17.149	805.026	614.240
406.394	17.191	804.691	614.084
407.409	17.072	804.574	613.511
408.423	17.077	804.137	613.140
409.438	17.240	803.706	613.347
410.453	17.254	803.118	612.894
411.467	17.273	802.459	612.404
412.482	17.419	801.926	612.470
413.496	17.221	801.799	611.604
414.511	17.318	801.565	611.723
415.526	17.220	801.293	611.108
416.540	17.260	800.764	610.795
417.555	17.286	800.159	610.371
418.569	17.331	799.760	610.176
419.584	17.360	799.374	609.930
420.599	17.269	798.828	609.134
421.613	100.846	1279.878	1429.604
422.628	86.437	1349.991	1429.715
