DTS Sentinel unit serial number:	SN413079Multiplexer serial number:	ORYXHardware model number:	OX4-SRSoftware version number:	ORYX F/W v4.00 Oryx Data Collector v3.7.2.0data status	okinstallation	princeton_trtdifferential loss correction	single-endedforward channel	channel 3reverse channel	N/Adate	2019/09/15time	13:04:35forward acquisition time	60.00reverse acquisition time	0.00gamma	496.2192k internal	0.2296k external	0.2296temperature offset calibration	0.9959default loss term (dB/km)	0.3790temperature slope calibration	1.0000multiplexer offset coefficient	1.0000multiplexer slope coefficient	1.0000fibre end	0.00T internal ref (°C)	36.67T ext. ref 1 (°C)	4.98T ext. ref 2 (°C)	35.00length (m)	temperature (°C)	Stokes	anti-Stokes-747.200	-200.000	0.003	-0.312
-746.185	800.000	-0.080	0.292
-745.171	87.181	-0.146	0.165
-744.156	-100.024	-0.292	0.074
-743.142	339.202	-0.085	-0.169
-742.127	-54.580	-0.132	-0.061
-741.112	132.025	0.120	-0.158
-740.098	77.440	-0.246	0.267
-739.083	-200.000	0.005	0.128
-738.069	108.462	0.136	0.166
-737.054	-200.000	-0.010	0.123
-736.039	-92.891	-0.117	-0.034
-735.025	447.491	-0.138	0.311
-734.010	637.066	-0.128	-0.331
-732.996	477.030	0.059	-0.136
-731.981	-9.464	-0.152	-0.104
-730.966	-200.000	0.020	0.256
-729.952	312.964	-0.136	0.260
-728.937	-145.027	0.392	-0.036
-727.923	-62.681	-0.356	0.151
-726.908	800.000	-0.092	0.379
-725.894	170.996	-0.125	-0.183
-724.879	-200.000	-0.004	0.053
-723.864	168.901	0.196	0.286
-722.850	-200.000	0.058	0.317
-721.835	150.531	0.099	0.138
-720.821	115.877	-0.399	0.499
-719.806	-9.237	0.105	-0.072
-718.791	101.169	-0.101	0.120
-717.777	-200.000	0.002	0.194
-716.762	160.493	-0.035	-0.050
-715.748	308.648	-0.097	-0.185
-714.733	381.977	-0.075	-0.157
-713.718	463.291	-0.107	-0.245
-712.704	30.734	-0.083	-0.073
-711.689	-180.905	0.416	-0.009
-710.675	-144.792	-0.130	0.012
-709.660	-173.707	0.218	-0.007
-708.645	800.000	0.083	0.319
-707.631	800.000	-0.061	-0.208
-706.616	29.030	-0.140	-0.121
-705.602	-200.000	-0.009	0.116
-704.587	-64.421	0.433	-0.179
-703.572	400.522	0.149	-0.319
-702.558	-63.800	-0.143	-0.060
-701.543	-61.065	0.093	-0.040
-700.529	41.624	-0.108	0.100
-699.514	-200.000	0.004	-0.141
-698.499	800.000	-0.113	-0.344
-697.485	138.046	0.219	-0.293
-696.470	-149.131	-0.411	0.034
-695.456	800.000	0.028	0.123
-694.441	-74.441	-0.123	-0.045
-693.426	-4.261	-0.126	-0.089
-692.412	-200.000	-0.021	-0.212
-691.397	55.952	0.086	-0.085
-690.383	23.687	-0.134	0.113
-689.368	-151.066	-0.308	0.024
-688.354	484.509	0.105	0.243
-687.339	800.000	-0.069	-0.230
-686.324	29.575	-0.320	0.278
-685.310	-22.888	0.138	-0.085
-684.295	-200.000	0.012	0.126
-683.281	97.032	0.207	0.242
-682.266	-81.043	0.007	-0.002
-681.251	107.390	-0.026	0.032
-680.237	-39.208	-0.218	-0.117
-679.222	295.713	0.077	-0.144
-678.208	-65.048	0.169	-0.070
-677.193	-3.429	-0.211	-0.149
-676.178	14.023	-0.077	0.061
-675.164	42.125	-0.564	-0.522
-674.149	-31.507	-0.110	0.063
-673.135	-200.000	0.075	-0.524
-672.120	800.000	-0.051	0.212
-671.105	245.551	-0.203	-0.347
-670.091	-54.308	-0.079	-0.036
-669.076	37.410	-0.191	-0.172
-668.062	28.904	0.204	-0.176
-667.047	295.087	-0.176	-0.329
-666.032	-200.000	0.031	0.142
-665.018	-166.036	-0.160	-0.007
-664.003	224.753	-0.207	-0.342
-662.989	-37.106	-0.299	-0.163
-661.974	217.920	-0.273	0.444
-660.959	23.563	0.031	0.026
-659.945	26.903	-0.101	0.086
-658.930	188.549	-0.093	0.141
-657.916	-133.232	0.308	-0.040
-656.901	-157.730	-0.313	-0.019
-655.886	515.330	-0.044	0.105
-654.872	-22.936	-0.152	0.093
-653.857	800.000	-0.014	0.044
-652.843	-11.725	-0.279	0.187
-651.828	-141.817	0.172	0.018
-650.814	-144.286	-0.242	-0.023
-649.799	-30.630	-0.374	0.216
-648.784	800.000	0.052	-0.179
-647.770	-200.000	-0.021	-0.215
-646.755	76.750	-0.140	-0.151
-645.741	184.765	-0.091	0.138
-644.726	-169.422	-0.138	-0.005
-643.711	259.075	0.145	-0.255
-642.697	-113.163	0.072	0.014
-641.682	-200.000	-0.015	-0.259
-640.668	-28.050	-0.226	-0.133
-639.653	297.246	0.088	-0.165
-638.638	-25.113	0.208	-0.126
-637.624	-58.380	0.192	0.085
-636.609	8.206	-0.283	0.216
-635.595	800.000	-0.082	0.322
-634.580	-148.991	0.377	0.031
-633.565	80.196	-0.124	0.135
-632.551	-62.966	0.256	0.108
-631.536	73.269	0.139	-0.148
-630.522	140.311	0.074	-0.099
-629.507	274.094	0.031	0.056
-628.492	-158.881	0.419	-0.024
-627.478	-166.593	0.206	-0.009
-626.463	74.413	0.160	0.171
-625.449	180.655	0.047	-0.071
-624.434	-200.000	-0.064	-0.360
-623.419	-200.000	-0.024	0.230
-622.405	-153.972	-0.444	0.031
-621.390	-200.000	0.003	0.045
-620.376	31.161	-0.114	0.099
-619.361	-200.000	-0.016	-0.343
-618.346	-200.000	-0.016	0.158
-617.332	-200.000	0.012	0.069
-616.317	-104.512	-0.116	0.027
-615.303	170.794	-0.067	-0.097
-614.288	-163.891	0.248	0.012
-613.273	-6.305	-0.163	-0.113
-612.259	361.743	0.124	0.253
-611.244	-82.740	-0.183	0.060
-610.230	-27.730	-0.110	0.065
-609.215	-2.331	0.191	0.136
-608.201	-84.297	-0.345	0.111
-607.186	77.670	0.085	-0.092
-606.171	-200.000	0.026	-0.207
-605.157	-200.000	-0.032	-0.172
-604.142	-172.130	-0.148	-0.005
-603.128	572.851	-0.108	-0.267
-602.113	-22.769	-0.086	-0.053
-601.098	218.055	-0.044	-0.071
-600.084	50.854	-0.095	0.091
-599.069	349.373	0.239	0.479
-598.055	2.870	-0.096	-0.071
-597.040	321.864	-0.045	-0.087
-596.025	728.087	-0.124	0.335
-595.011	-125.193	-0.234	-0.036
-593.996	125.195	-0.072	-0.092
-592.982	170.593	-0.014	0.021
-591.967	-23.235	-0.102	-0.063
-590.952	58.039	0.195	-0.194
-589.938	-56.523	0.194	-0.087
-588.923	-200.000	0.039	0.180
-587.909	-148.758	-0.051	0.004
-586.894	-10.287	-0.041	0.028
-585.879	-200.000	-0.028	0.249
-584.865	-181.898	0.393	0.008
-583.850	-94.726	0.244	-0.067
-582.836	-192.752	0.076	-0.001
-581.821	800.000	-0.032	0.117
-580.806	-123.706	-0.230	0.037
-579.792	5.159	0.088	0.066
-578.777	-25.955	0.130	0.078
-577.763	-110.606	-0.460	0.097
-576.748	-16.474	0.067	0.043
-575.733	174.324	-0.150	0.220
-574.719	-132.963	0.084	0.011
-573.704	281.645	-0.026	-0.047
-572.690	-149.332	-0.251	-0.020
-571.675	-12.178	-0.171	0.113
-570.661	800.000	0.040	0.176
-569.646	347.205	0.147	0.293
-568.631	-72.322	0.185	-0.069
-567.617	263.198	-0.108	0.190
-566.602	-31.037	0.047	-0.027
-565.588	-67.790	0.179	-0.071
-564.573	-148.346	0.098	0.008
-563.558	-90.451	-0.214	-0.063
-562.544	-200.000	0.003	0.256
-561.529	-200.000	0.081	0.413
-560.515	-200.000	-0.028	0.222
-559.500	-200.000	0.012	0.268
-558.485	-146.761	0.052	-0.005
-557.471	-158.312	-0.056	0.003
-556.456	207.544	-0.234	-0.371
-555.442	-13.987	0.188	0.123
-554.427	106.701	0.181	0.218
-553.412	-104.126	0.161	0.038
-552.398	-200.000	-0.058	-0.258
-551.383	-11.854	0.323	0.215
-550.369	-48.235	-0.243	-0.119
-549.354	-114.132	-0.232	-0.046
-548.339	-48.085	0.357	-0.175
-547.325	66.910	0.081	-0.084
-546.310	-14.767	-0.287	-0.187
-545.296	-31.056	0.197	-0.113
-544.281	800.000	-0.093	-0.364
-543.266	-200.000	-0.034	0.195
-542.252	-200.000	-0.000	0.394
-541.237	-14.782	-0.066	-0.043
-540.223	-190.613	-0.236	0.003
-539.208	800.000	0.127	-0.367
-538.193	-133.523	-0.111	-0.014
-537.179	116.742	-0.289	0.359
-536.164	193.363	0.051	-0.078
-535.150	-169.509	0.089	0.003
-534.135	-161.612	0.074	-0.004
-533.121	377.174	0.162	-0.335
-532.106	-200.000	-0.006	-0.092
-531.091	-105.996	-0.132	0.030
-530.077	-151.868	-0.093	0.007
-529.062	33.288	0.345	-0.303
-528.048	92.266	0.187	0.214
-527.033	-168.831	-0.112	-0.004
-526.018	-200.000	-0.011	0.134
-525.004	-12.617	0.052	0.034
-523.989	180.981	-0.096	-0.142
-522.975	-200.000	-0.022	0.335
-521.960	-61.497	0.196	0.083
-520.945	-33.165	0.071	-0.040
-519.931	281.988	-0.091	-0.165
-518.916	157.101	0.331	-0.464
-517.902	-35.768	-0.168	-0.092
-516.887	187.512	0.122	-0.185
-515.872	406.608	-0.126	0.269
-514.858	-200.000	-0.016	-0.179
-513.843	-24.631	0.211	-0.127
-512.829	-100.312	-0.167	0.042
-511.814	-200.000	0.010	-0.270
-510.799	93.683	0.153	0.175
-509.785	-179.296	0.131	-0.003
-508.770	456.986	-0.062	0.140
-507.756	-45.419	-0.116	0.058
-506.741	-115.196	0.130	-0.025
-505.726	80.443	-0.059	0.064
-504.712	-10.949	0.038	-0.025
-503.697	800.000	0.045	-0.133
-502.683	-31.293	0.405	0.231
-501.668	305.469	-0.111	0.208
-500.653	-7.081	0.220	-0.151
-499.639	205.283	0.106	-0.167
-498.624	135.506	0.085	-0.112
-497.610	-176.226	0.315	0.008
-496.595	800.000	0.097	-0.294
-495.581	-35.995	-0.148	-0.081
-494.566	636.666	-0.081	0.208
-493.551	170.103	-0.168	0.242
-492.537	-200.000	0.009	-0.314
-491.522	-67.451	0.171	0.068
-490.508	-200.000	0.008	0.221
-489.493	95.962	0.131	-0.151
-488.478	-200.000	-0.056	-0.346
-487.464	-200.000	-0.016	-0.183
-486.449	-159.960	-0.202	0.011
-485.435	11.743	-0.145	-0.112
-484.420	130.027	-0.216	-0.279
-483.405	23.357	0.117	0.098
-482.391	-200.000	0.020	0.304
-481.376	-200.000	-0.024	0.130
-480.362	658.574	-0.081	-0.211
-479.347	-116.065	0.196	-0.037
-478.332	-128.577	-0.329	-0.047
-477.318	-80.349	0.116	-0.039
-476.303	15.974	0.074	-0.059
-475.289	-200.000	-0.051	-0.439
-474.274	800.000	0.085	-0.266
-473.259	-9.767	0.228	0.154
-472.245	278.061	-0.106	0.192
-471.230	-200.000	0.031	0.143
-470.216	221.667	-0.158	0.256
-469.201	18.048	-0.168	0.136
-468.186	-200.000	-0.002	0.089
-467.172	-200.000	0.033	-0.407
-466.157	55.284	-0.261	-0.255
-465.143	-97.821	-0.143	0.037
-464.128	-200.000	0.037	-0.469
-463.113	-77.440	-0.296	-0.104
-462.099	40.820	0.056	-0.051
-461.084	425.953	-0.180	0.392
-460.070	-104.946	-0.098	-0.023
-459.055	26.449	-0.310	0.262
-458.040	-200.000	-0.020	-0.095
-457.026	-200.000	0.038	-0.206
-456.011	-198.510	-0.162	0.001
-454.997	-112.309	-0.109	0.022
-453.982	-152.051	-0.400	0.029
-452.968	-131.577	0.279	-0.037
-451.953	-92.035	0.159	-0.046
-450.938	108.890	-0.096	0.116
-449.924	-93.576	0.447	0.125
-448.909	156.333	-0.184	0.256
-447.895	-200.000	0.003	-0.116
-446.880	-180.274	0.198	0.004
-445.865	-64.681	-0.205	-0.084
-444.851	25.324	0.251	0.210
-443.836	471.787	-0.031	-0.070
-442.822	-200.000	-0.000	-0.082
-441.807	-142.305	-0.157	-0.016
-440.792	415.716	-0.068	0.147
-439.778	-67.688	-0.208	-0.082
-438.763	-88.632	0.179	-0.054
-437.749	-88.521	0.023	-0.007
-436.734	-200.000	-0.056	-0.391
-435.719	-108.566	0.253	0.055
-434.705	-59.683	0.048	-0.021
-433.690	-200.000	-0.002	-0.316
-432.676	-133.552	-0.199	0.025
-431.661	-79.869	-0.185	0.063
-430.646	682.249	-0.083	0.218
-429.632	-44.468	-0.139	-0.070
-428.617	-60.247	-0.073	-0.031
-427.603	6.341	0.177	-0.133
-426.588	43.747	0.128	-0.119
-425.573	800.000	0.100	0.320
-424.559	117.099	0.044	-0.055
-423.544	237.062	0.034	-0.057
-422.530	76.238	0.129	0.138
-421.515	-200.000	-0.036	0.164
-420.500	-87.882	-0.107	-0.032
-419.486	800.000	-0.052	0.172
-418.471	741.728	0.090	0.245
-417.457	800.000	0.057	0.208
-416.442	105.353	0.252	-0.300
-415.428	-54.644	0.164	-0.075
-414.413	83.749	-0.157	-0.173
-413.398	-2.663	-0.056	-0.039
-412.384	-200.000	-0.075	0.419
-411.369	396.839	0.100	0.211
-410.355	-97.559	-0.180	-0.047
-409.340	740.027	0.112	-0.304
-408.325	-183.506	0.122	0.002
-407.311	18.517	-0.280	-0.226
-406.296	110.633	0.207	0.251
-405.282	-162.911	-0.132	-0.006
-404.267	564.349	-0.181	0.442
-403.252	0.550	0.011	-0.008
-402.238	-0.875	-0.174	-0.124
-401.223	-200.000	-0.043	-0.301
-400.209	-200.000	0.042	0.282
-399.194	-78.247	-0.153	-0.053
-398.179	800.000	-0.077	0.246
-397.165	10.072	-0.111	0.085
-396.150	-200.000	0.006	0.214
-395.136	33.403	-0.232	0.203
-394.121	800.000	0.072	0.225
-393.106	-162.753	-0.135	-0.007
-392.092	0.459	0.247	-0.178
-391.077	-200.000	-0.004	0.046
-390.063	511.433	0.069	0.161
-389.048	-9.235	0.194	-0.131
-388.033	-32.223	0.179	-0.101
-387.019	22.172	0.110	-0.090
-386.004	310.450	-0.011	-0.020
-384.990	-191.368	0.170	-0.002
-383.975	377.005	0.064	0.132
-382.960	-96.853	-0.151	0.040
-381.946	24.270	-0.235	0.195
-380.931	-51.280	0.346	0.163
-379.917	37.446	0.138	-0.123
-378.902	-14.373	-0.354	0.229
-377.888	-200.000	0.039	0.321
-376.873	671.936	0.126	-0.329
-375.858	-37.299	-0.279	0.150
-374.844	68.235	0.211	-0.217
-373.829	800.000	-0.109	-0.304
-372.815	-10.098	0.233	-0.156
-371.800	118.067	0.109	0.136
-370.785	-129.948	0.143	0.020
-369.771	44.491	0.205	0.190
-368.756	94.491	-0.071	0.082
-367.742	195.570	-0.027	0.042
-366.727	58.450	0.279	0.275
-365.712	574.844	0.149	0.365
-364.698	800.000	0.137	0.526
-363.683	564.822	-0.063	0.153
-362.669	146.128	0.195	-0.263
-361.654	-123.276	-0.203	-0.033
-360.639	131.635	0.293	0.380
-359.625	-59.636	-0.249	0.107
-358.610	-79.037	-0.157	-0.054
-357.596	-152.423	0.187	0.014
-356.581	-30.954	-0.436	-0.248
-355.566	-200.000	0.049	0.274
-354.552	800.000	-0.079	-0.286
-353.537	202.265	0.057	0.089
-352.523	41.777	0.332	-0.303
-351.508	-93.619	-0.169	0.047
-350.493	231.998	-0.253	0.418
-349.479	50.930	0.057	-0.054
-348.464	-77.464	0.365	0.128
-347.450	800.000	-0.037	0.161
-346.435	-131.112	0.155	0.021
-345.420	-200.000	0.030	0.318
-344.406	800.000	0.072	0.207
-343.391	-46.452	-0.108	-0.053
-342.377	5.583	-0.287	-0.213
-341.362	-200.000	-0.115	-0.573
-340.348	-48.505	-0.249	-0.121
-339.333	-117.131	-0.090	0.017
-338.318	-98.004	-0.116	0.030
-337.304	80.967	-0.241	-0.261
-336.289	-55.178	0.418	0.189
-335.275	-200.000	0.013	-0.235
-334.260	204.507	-0.142	0.222
-333.245	75.494	0.145	-0.154
-332.231	231.412	0.126	0.207
-331.216	-111.904	0.333	0.068
-330.202	-6.783	-0.064	-0.043
-329.187	-44.831	-0.120	0.060
-328.172	-89.723	0.159	0.047
-327.158	-55.095	-0.034	0.015
-326.143	-109.550	-0.257	0.055
-325.129	800.000	0.046	0.135
-324.114	-27.425	-0.088	-0.051
-323.099	-9.549	-0.198	0.133
-322.085	42.275	-0.105	-0.096
-321.070	-200.000	-0.010	0.413
-320.056	-124.766	-0.243	-0.038
-319.041	479.507	0.116	-0.265
-318.026	176.993	0.186	-0.272
-317.012	496.842	-0.158	-0.366
-315.997	56.675	0.211	-0.206
-314.983	800.000	0.013	0.042
-313.968	-115.743	-0.198	0.037
-312.953	-45.111	-0.423	-0.211
-311.939	-25.386	0.048	0.028
-310.924	800.000	0.052	-0.176
-309.910	462.730	0.070	-0.156
-308.895	91.392	0.117	-0.132
-307.880	-65.885	-0.312	-0.125
-306.866	-200.000	-0.029	0.128
-305.851	800.000	-0.129	0.547
-304.837	36.324	-0.113	0.100
-303.822	-87.310	0.205	-0.063
-302.807	-24.089	0.171	-0.103
-301.793	-46.088	-0.122	0.060
-300.778	368.529	-0.152	0.308
-299.764	-126.316	-0.196	-0.029
-298.749	800.000	0.102	0.355
-297.735	800.000	0.041	0.171
-296.720	800.000	-0.106	-0.295
-295.705	-119.555	0.176	-0.031
-294.691	18.023	0.207	-0.166
-293.676	800.000	-0.073	0.294
-292.662	800.000	-0.034	0.138
-291.647	-33.875	0.058	0.032
-290.632	-79.591	-0.049	0.017
-289.618	215.924	0.127	-0.202
-288.603	800.000	-0.004	-0.015
-287.589	-200.000	0.028	-0.403
-286.574	110.897	-0.143	-0.173
-285.559	-80.652	0.097	-0.032
-284.545	-138.798	0.059	-0.006
-283.530	-95.927	-0.298	0.080
-282.516	-149.419	0.316	-0.025
-281.501	-200.000	0.041	-0.214
-280.486	-200.000	-0.043	-0.214
-279.472	250.721	-0.072	-0.122
-278.457	28.905	-0.214	-0.182
-277.443	-200.000	-0.000	0.205
-276.428	265.983	-0.090	0.157
-275.413	-2.304	-0.127	-0.089
-274.399	800.000	0.079	-0.222
-273.384	-40.181	-0.131	0.068
-272.370	-152.546	-0.109	-0.008
-271.355	-134.019	-0.233	-0.029
-270.340	-128.882	-0.485	0.068
-269.326	214.531	-0.147	0.233
-268.311	67.718	0.316	-0.323
-267.297	274.033	-0.060	-0.106
-266.282	73.402	-0.200	0.210
-265.267	800.000	-0.067	0.272
-264.253	51.716	0.264	-0.252
-263.238	61.458	0.253	0.252
-262.224	-85.664	0.273	0.085
-261.209	130.637	-0.162	-0.208
-260.195	1.582	0.205	-0.148
-259.180	-200.000	0.038	0.340
-258.165	-81.331	-0.138	0.045
-257.151	-69.040	0.175	0.067
-256.136	435.679	0.105	0.229
-255.122	-200.000	-0.046	0.237
-254.107	106.377	0.139	0.165
-253.092	-75.549	-0.181	0.064
-252.078	32.056	0.314	0.271
-251.063	-200.000	-0.011	-0.341
-250.049	131.371	-0.165	-0.213
-249.034	2.506	-0.137	0.099
-248.019	4.123	0.210	0.154
-247.005	800.000	0.092	0.260
-245.990	-74.700	0.054	0.019
-244.976	800.000	0.045	0.152
-243.961	152.121	-0.224	-0.306
-242.946	14.024	-0.075	-0.059
-241.932	-89.548	0.089	-0.026
-240.917	-77.400	-0.181	0.063
-239.903	-1.575	-0.257	-0.182
-238.888	61.578	0.172	0.171
-237.873	109.270	-0.264	-0.317
-236.859	247.697	-0.047	-0.079
-235.844	-200.000	0.013	-0.168
-234.830	-32.333	-0.434	-0.243
-233.815	125.935	-0.056	-0.071
-232.800	-65.540	0.192	0.077
-231.786	-86.079	-0.050	-0.015
-230.771	-176.837	-0.118	0.003
-229.757	266.793	0.129	-0.225
-228.742	-200.000	0.009	-0.206
-227.727	-3.694	-0.232	-0.161
-226.713	-200.000	0.000	0.063
-225.698	-90.488	-0.271	0.079
-224.684	-102.590	-0.353	0.084
-223.669	99.208	0.109	0.126
-222.655	-200.000	-0.093	0.560
-221.640	-200.000	-0.093	0.471
-220.625	581.791	0.149	-0.366
-219.611	166.527	-0.201	-0.286
-218.596	-119.350	0.042	0.007
-217.582	-200.000	0.036	-0.234
-216.567	92.493	-0.110	0.124
-215.552	132.471	0.146	-0.188
-214.538	63.544	0.320	-0.321
-213.523	-15.838	-0.130	-0.083
-212.509	-39.252	0.150	0.079
-211.494	-100.294	-0.132	-0.033
-210.479	6.766	-0.291	-0.217
-209.465	-180.499	0.242	-0.005
-208.450	-169.861	0.255	-0.009
-207.436	0.592	0.114	0.082
-206.421	-200.000	-0.107	-0.492
-205.406	218.780	0.278	-0.444
-204.392	24.635	-0.078	-0.065
-203.377	56.027	-0.021	0.021
-202.363	104.783	0.279	0.329
-201.348	-200.000	-0.041	-0.207
-200.333	-44.639	0.362	-0.181
-199.319	800.000	0.050	0.169
-198.304	-48.866	0.180	0.086
-197.290	-153.811	-0.114	-0.008
-196.275	230.927	0.217	-0.355
-195.260	13.019	-0.110	0.085
-194.246	682.493	-0.042	0.110
-193.231	169.967	0.358	0.511
-192.217	57.443	-0.312	0.304
-191.202	-36.622	-0.209	-0.112
-190.187	-32.627	0.255	-0.142
-189.173	-31.504	0.308	-0.173
-188.158	60.002	0.180	0.178
-187.144	467.422	0.073	-0.163
-186.129	263.907	-0.106	-0.184
-185.114	-146.370	-0.040	-0.004
-184.100	64.672	-0.057	0.057
-183.085	24.698	-0.243	-0.201
-182.071	-12.503	0.212	0.138
-181.056	-200.000	0.055	0.289
-180.042	464.851	0.171	-0.383
-179.027	800.000	0.097	0.336
-178.012	96.584	-0.235	0.269
-176.998	-5.878	0.449	0.307
-175.983	-48.842	0.116	0.056
-174.969	91.808	-0.066	0.074
-173.954	-200.000	-0.001	-0.425
-172.939	-108.692	-0.340	-0.073
-171.925	800.000	-0.014	0.059
-170.910	-81.646	0.242	0.079
-169.896	-139.887	-0.051	0.005
-168.881	-200.000	-0.002	-0.144
-167.866	800.000	-0.012	0.050
-166.852	-200.000	0.039	-0.290
-165.837	800.000	-0.030	-0.099
-164.823	800.000	0.082	0.284
-163.808	67.299	0.276	0.282
-162.793	800.000	-0.029	0.102
-161.779	693.759	-0.133	-0.349
-160.764	-200.000	-0.001	-0.230
-159.750	-200.000	-0.031	-0.206
-158.735	-200.000	-0.059	-0.295
-157.720	174.128	0.060	-0.087
-156.706	152.618	-0.059	0.081
-155.691	800.000	-0.096	0.298
-154.677	729.408	0.044	-0.117
-153.662	101.345	0.157	0.183
-152.647	95.363	0.052	-0.059
-151.633	-4.076	0.255	-0.177
-150.618	345.603	0.042	0.083
-149.604	107.867	-0.128	-0.153
-148.589	269.947	-0.079	0.138
-147.574	-49.520	-0.227	-0.108
-146.560	-65.894	-0.180	0.072
-145.545	-200.000	0.013	-0.065
-144.531	800.000	-0.027	0.093
-143.516	-38.714	0.090	-0.048
-142.502	-200.000	0.012	-0.058
-141.487	-8.396	0.121	0.081
-140.472	80.259	-0.013	-0.014
-139.458	-200.000	0.020	-0.276
-138.443	-200.000	-0.045	0.256
-137.429	136.663	0.128	0.166
-136.414	800.000	-0.049	0.173
-135.399	-200.000	0.013	0.117
-134.385	-200.000	0.001	-0.310
-133.370	87.220	-0.279	0.308
-132.356	-59.930	0.276	0.118
-131.341	757.381	0.129	-0.347
-130.326	-170.855	0.129	-0.004
-129.312	-70.837	-0.232	-0.087
-128.297	45.457	-0.093	-0.086
-127.283	-200.000	-0.010	0.351
-126.268	-200.000	0.007	0.218
-125.253	-182.460	-0.240	-0.004
-124.239	-124.536	-0.142	-0.022
-123.224	193.139	0.075	0.113
-122.210	-61.421	0.112	-0.047
-121.195	800.000	0.021	-0.064
-120.180	374.460	-0.210	0.426
-119.166	-200.000	-0.015	0.196
-118.151	-200.000	0.058	-0.313
-117.137	-64.343	-0.208	-0.084
-116.122	536.473	-0.108	-0.256
-115.107	-200.000	-0.031	-0.201
-114.093	800.000	-0.056	0.158
-113.078	-113.691	0.051	0.010
-112.064	-94.143	-0.344	-0.094
-111.049	-200.000	0.033	-0.186
-110.034	-200.000	-0.012	-0.117
-109.020	-200.000	0.108	0.622
-108.005	25.318	0.056	0.046
-106.991	-44.459	-0.036	-0.018
-105.976	-200.000	-0.058	0.302
-104.962	-114.226	0.119	0.023
-103.947	82.347	0.139	-0.150
-102.932	-139.935	0.463	-0.049
-101.918	-63.175	0.178	-0.073
-100.903	206.889	0.029	0.045
-99.889	-115.105	-0.600	-0.113
-98.874	-185.170	0.323	-0.005
-97.859	-95.201	0.444	0.119
-96.845	-200.000	0.001	0.234
-95.830	130.717	0.224	-0.286
-94.816	140.222	-0.055	-0.072
-93.801	-151.988	-0.217	0.016
-92.786	140.447	-0.200	-0.263
-91.772	-41.120	0.203	0.104
-90.757	-98.818	-0.253	0.064
-89.743	85.747	-0.149	-0.163
-88.728	-92.958	-0.259	0.072
-87.713	800.000	0.153	0.491
-86.699	-120.387	0.092	-0.016
-85.684	288.405	0.195	0.352
-84.670	-200.000	0.020	0.180
-83.655	170.458	0.063	-0.090
-82.640	-59.107	-0.272	-0.117
-81.626	800.000	0.076	-0.238
-80.611	-26.355	-0.142	0.083
-79.597	-16.083	0.194	-0.123
-78.582	-49.009	-0.158	-0.075
-77.567	-200.000	0.003	0.313
-76.553	-200.000	-0.008	0.062
-75.538	-127.537	0.191	0.028
-74.524	800.000	0.109	-0.363
-73.509	-111.194	0.126	0.026
-72.494	43.326	0.076	0.069
-71.480	199.487	-0.068	-0.104
-70.465	-127.863	0.242	-0.035
-69.451	-200.000	0.007	-0.080
-68.436	800.000	-0.092	0.268
-67.422	313.131	-0.037	0.070
-66.407	-156.196	0.155	0.010
-65.392	-110.589	0.237	0.049
-64.378	-51.519	-0.096	-0.044
-63.363	-49.601	0.214	0.101
-62.349	800.000	-0.110	0.380
-61.334	47.976	-0.859	-0.798
-60.319	145.028	0.333	0.443
-59.305	-200.000	-0.123	-0.729
-58.290	138.627	0.500	0.654
-57.276	478.710	0.699	1.575
-56.261	-200.000	87.906	492.152
-55.246	493.915	1405.132	3206.990
-54.232	181.752	2616.229	3830.421
-53.217	114.303	2246.237	2719.810
-52.203	45.949	1765.503	1624.764
-51.188	39.510	1569.300	1398.629
-50.173	37.101	1540.790	1356.343
-49.159	53.695	1585.550	1513.750
-48.144	57.252	1605.546	1558.043
-47.130	40.292	1563.769	1399.002
-46.115	36.840	1548.999	1361.521
-45.100	36.838	1545.033	1357.964
-44.086	36.786	1543.078	1355.832
-43.071	36.678	1540.980	1353.173
-42.057	36.589	1539.854	1351.508
-41.042	36.709	1538.186	1350.828
-40.027	36.712	1536.609	1349.414
-39.013	36.591	1535.259	1347.333
-37.998	36.550	1533.868	1345.770
-36.984	36.599	1532.475	1344.839
-35.969	36.632	1531.357	1344.029
-34.954	36.677	1529.621	1342.770
-33.940	36.667	1528.298	1341.485
-32.925	36.709	1527.052	1340.628
-31.911	36.771	1525.873	1339.969
-30.896	36.740	1524.185	1338.221
-29.881	36.787	1523.006	1337.455
-28.867	36.848	1520.977	1336.043
-27.852	36.781	1519.671	1334.379
-26.838	36.608	1518.449	1332.062
-25.823	36.810	1516.770	1331.925
-24.809	36.821	1514.765	1330.189
-23.794	36.737	1513.930	1328.826
-22.779	36.737	1512.671	1327.665
-21.765	36.717	1511.624	1326.555
-20.750	36.711	1510.214	1325.224
-19.736	36.678	1509.389	1324.226
-18.721	36.789	1507.628	1323.388
-17.706	36.555	1507.165	1321.330
-16.692	36.664	1506.253	1321.223
-15.677	36.669	1505.036	1320.133
-14.663	36.679	1503.812	1319.078
-13.648	36.549	1503.005	1317.427
-12.633	36.610	1501.686	1316.636
-11.619	36.644	1500.754	1315.999
-10.604	36.638	1499.889	1315.144
-9.590	36.696	1498.789	1314.523
-8.575	36.683	1498.214	1313.882
-7.560	36.539	1497.714	1312.411
-6.546	36.663	1496.441	1312.084
-5.531	36.533	1495.480	1310.308
-4.517	36.588	1494.364	1309.650
-3.502	36.630	1493.622	1309.232
-2.487	36.604	1492.622	1308.130
-1.473	36.644	1491.181	1307.084
-0.458	36.638	1489.863	1305.841
0.556	35.428	1481.063	1297.223
1.571	33.213	1455.143	1259.673
2.586	30.176	1392.075	1185.585
3.600	28.383	1307.472	1102.656
4.615	26.206	1259.207	1049.228
5.629	22.203	1201.066	978.461
6.644	13.359	1113.225	860.993
7.659	6.270	1069.617	791.630
8.673	5.291	1063.630	782.232
9.688	4.992	1060.576	778.419
10.702	4.849	1059.295	776.697
11.717	4.799	1057.139	774.804
12.731	7.914	1060.756	792.916
13.746	16.092	1072.880	842.957
14.761	20.277	1077.195	867.235
15.775	18.734	1073.773	856.709
16.790	17.304	1071.354	847.581
17.804	16.137	1068.773	839.657
18.819	15.241	1067.039	833.765
19.834	14.783	1065.411	830.140
20.848	14.496	1064.239	827.733
21.863	14.173	1063.830	825.738
22.877	13.969	1063.146	824.122
23.892	13.876	1062.088	822.765
24.907	13.873	1061.034	821.864
25.921	13.722	1060.461	820.599
26.936	13.755	1059.800	820.180
27.950	13.844	1058.515	819.552
28.965	13.862	1057.520	818.795
29.980	13.908	1056.529	818.184
30.994	13.855	1055.385	816.964
32.009	14.033	1054.274	816.909
33.023	13.977	1053.778	816.176
34.038	14.118	1052.569	815.860
35.053	13.971	1051.959	814.592
36.067	13.926	1051.036	813.584
37.082	13.876	1050.168	812.599
38.096	13.886	1049.632	812.158
39.111	13.980	1048.784	811.892
40.126	13.995	1047.399	810.819
41.140	13.909	1046.357	809.523
42.155	13.719	1045.603	807.940
43.169	13.719	1044.668	807.147
44.184	13.695	1042.934	805.619
45.199	13.683	1042.225	804.943
46.213	13.563	1041.311	803.582
47.228	13.589	1040.298	802.859
48.242	13.699	1039.614	802.790
49.257	13.884	1037.988	802.356
50.271	13.780	1037.098	801.097
51.286	13.955	1036.054	801.062
52.301	13.944	1035.227	800.300
53.315	13.929	1034.705	799.755
54.330	13.824	1033.895	798.552
55.344	13.713	1032.783	797.087
56.359	13.758	1031.774	796.457
57.374	13.713	1030.915	795.504
58.388	13.799	1029.546	794.792
59.403	13.647	1029.279	793.787
60.417	13.691	1028.413	793.259
61.432	13.738	1027.880	793.003
62.447	13.694	1027.148	792.156
63.461	13.473	1026.052	790.185
64.476	13.460	1025.550	789.671
65.490	13.615	1024.200	789.298
66.505	13.649	1023.182	788.604
67.520	13.632	1022.308	787.783
68.534	13.583	1022.056	787.286
69.549	13.660	1020.690	786.530
70.563	13.571	1020.310	785.744
71.578	13.591	1019.692	785.291
72.593	13.490	1018.634	783.933
73.607	13.458	1017.857	783.113
74.622	13.523	1016.825	782.556
75.636	13.470	1015.995	781.598
76.651	13.494	1015.123	780.969
77.666	13.539	1014.555	780.676
78.680	13.561	1013.574	779.957
79.695	13.597	1013.277	779.827
80.709	13.584	1012.725	779.275
81.724	13.643	1011.953	778.887
82.739	13.495	1011.223	777.563
83.753	13.691	1010.333	777.730
84.768	13.721	1009.320	777.020
85.782	13.848	1008.677	777.052
86.797	14.033	1007.884	777.238
87.812	13.995	1007.113	776.397
88.826	13.780	1006.657	774.970
89.841	13.832	1005.532	774.281
90.855	13.842	1004.996	773.844
91.870	13.735	1004.195	772.660
92.884	13.845	1003.501	772.573
93.899	13.914	1002.505	772.058
94.914	13.941	1001.865	771.619
95.928	13.862	1000.997	770.517
96.943	13.992	1000.313	770.523
97.957	13.919	999.682	769.633
98.972	13.969	998.633	768.988
99.987	13.968	997.958	768.398
101.001	13.959	997.048	767.586
102.016	13.988	996.309	767.085
103.030	13.846	995.357	765.629
104.045	13.936	994.058	764.974
105.060	13.909	993.360	764.248
106.074	13.759	992.744	763.016
107.089	13.749	991.761	762.145
108.103	13.699	990.654	760.999
109.118	13.572	989.755	759.660
110.133	13.604	988.860	759.050
111.147	13.604	987.976	758.305
112.162	13.453	987.584	757.247
113.176	13.785	986.204	757.638
114.191	13.654	985.475	756.412
115.206	13.704	984.622	755.917
116.220	13.778	983.919	755.651
117.235	13.592	983.127	754.129
118.249	13.693	982.020	753.670
119.264	13.681	981.165	752.891
120.279	13.620	980.349	751.923
121.293	13.698	979.527	751.578
122.308	13.582	978.857	750.475
123.322	13.633	978.287	750.203
124.337	13.619	976.934	749.037
125.352	13.556	975.780	747.800
126.366	13.648	974.879	747.460
127.381	13.684	973.447	746.456
128.395	13.599	972.873	745.569
129.410	13.549	972.120	744.700
130.424	13.578	971.268	744.110
131.439	13.617	970.557	743.674
132.454	13.802	969.455	743.594
133.468	13.846	968.624	743.087
134.483	13.801	968.429	742.673
135.497	13.740	967.470	741.598
136.512	13.874	966.581	741.450
137.527	13.831	965.708	740.523
138.541	13.786	964.903	739.639
139.556	13.783	964.079	738.929
140.570	13.690	963.701	738.159
141.585	13.803	963.034	738.086
142.600	14.022	962.017	738.212
143.614	13.997	961.457	737.606
144.629	13.968	960.870	736.965
145.643	14.040	959.730	736.341
146.658	13.976	958.898	735.354
147.673	13.901	958.102	734.346
148.687	13.862	957.035	733.291
149.702	13.743	956.090	731.979
150.716	13.805	955.133	731.456
151.731	13.813	954.289	730.779
152.746	13.771	953.613	730.011
153.760	13.798	953.245	729.787
154.775	13.936	951.978	729.357
155.789	13.911	951.264	728.637
156.804	13.838	950.910	727.980
157.819	13.955	949.868	727.631
158.833	13.960	949.018	726.936
159.848	13.936	948.625	726.467
160.862	14.052	947.556	726.090
161.877	14.079	946.753	725.527
162.892	13.977	945.818	724.305
163.906	13.781	945.466	723.116
164.921	13.800	944.497	722.391
165.935	13.780	943.418	721.418
166.950	13.803	942.401	720.676
167.964	13.949	941.576	720.612
168.979	13.872	940.677	719.529
169.994	13.892	939.383	718.561
171.008	13.906	938.525	717.900
172.023	13.937	937.934	717.521
173.037	13.915	937.337	716.904
174.052	14.118	936.433	717.025
175.067	13.960	935.846	715.831
176.081	13.886	935.064	714.851
177.096	13.860	934.234	714.042
178.110	13.860	933.139	713.141
179.125	13.779	933.040	712.657
180.140	13.934	931.828	712.331
181.154	13.925	931.309	711.835
182.169	13.937	930.631	711.303
183.183	14.081	929.765	711.195
184.198	14.114	929.144	710.798
185.213	14.104	928.250	710.008
186.227	14.260	927.861	710.312
187.242	14.083	927.387	709.132
188.256	14.272	926.714	709.363
189.271	14.183	926.184	708.512
190.286	14.106	925.448	707.561
191.300	14.179	924.119	706.792
192.315	13.970	923.532	705.391
193.329	13.817	922.736	704.074
194.344	13.926	922.206	704.067
195.359	13.873	921.735	703.421
196.373	14.116	920.600	703.522
197.388	14.175	920.145	703.361
198.402	14.333	919.804	703.708
199.417	14.401	919.287	703.537
200.432	14.397	919.193	703.383
201.446	14.536	918.495	703.374
202.461	14.477	918.240	702.870
203.475	14.542	917.524	702.533
204.490	14.573	916.415	701.750
205.504	14.427	915.818	700.618
206.519	14.351	915.179	699.746
207.534	14.458	914.442	699.569
208.548	14.325	913.558	698.276
209.563	14.275	912.980	697.562
210.577	14.504	911.932	697.660
211.592	14.338	911.454	696.537
212.607	14.502	910.965	696.788
213.621	14.580	910.411	696.626
214.636	14.494	909.886	695.805
215.650	14.498	909.206	695.239
216.665	14.531	908.486	694.767
217.680	14.519	907.954	694.246
218.694	14.653	907.717	694.562
219.709	14.627	907.122	693.936
220.723	14.658	906.204	693.302
221.738	14.695	905.295	692.697
222.753	14.686	904.725	692.166
223.767	14.602	904.581	691.644
224.782	14.622	903.559	690.886
225.796	14.686	902.850	690.548
226.811	14.840	901.981	690.457
227.826	14.786	901.530	689.829
228.840	14.684	900.780	688.773
229.855	14.779	900.277	688.720
230.869	14.735	899.262	687.698
231.884	14.592	898.985	686.837
232.899	14.723	897.840	686.440
233.913	14.577	897.437	685.473
234.928	14.677	896.389	685.021
235.942	14.719	895.577	684.512
236.957	14.650	895.373	684.013
237.972	14.672	894.442	683.332
238.986	14.719	893.640	682.849
240.001	14.644	893.537	682.406
241.015	14.589	893.089	681.777
242.030	14.736	891.858	681.379
243.045	14.693	891.537	680.895
244.059	14.858	890.718	680.884
245.074	14.822	890.128	680.227
246.088	14.807	889.216	679.405
247.103	14.805	889.004	679.176
248.117	14.825	888.421	678.752
249.132	14.923	887.763	678.589
250.147	15.078	887.273	678.781
251.161	15.218	886.597	678.770
252.176	15.075	886.228	677.851
253.190	15.153	885.549	677.587
254.205	15.220	884.819	677.237
255.220	15.211	884.272	676.723
256.234	15.354	883.538	676.678
257.249	15.199	883.051	675.623
258.263	15.268	882.643	675.528
259.278	15.363	881.547	675.010
260.293	15.304	881.027	674.315
261.307	15.377	880.634	674.247
262.322	15.492	879.826	674.031
263.336	15.306	879.447	672.937
264.351	15.406	879.148	673.049
265.366	15.357	878.596	672.370
266.380	15.412	878.043	672.105
267.395	15.346	877.157	671.104
268.409	15.481	876.248	670.892
269.424	15.353	875.556	669.791
270.439	15.472	874.663	669.522
271.453	15.402	873.787	668.512
272.468	15.327	873.589	668.006
273.482	15.362	872.693	667.398
274.497	15.390	872.477	667.287
275.512	15.480	871.421	666.775
276.526	15.388	870.688	665.793
277.541	15.361	869.933	665.050
278.555	15.419	869.452	664.853
279.570	15.483	869.162	664.825
280.585	15.620	868.310	664.657
281.599	15.739	867.670	664.577
282.614	15.645	867.169	663.765
283.628	15.612	866.353	662.950
284.643	15.454	866.034	662.025
285.657	15.523	865.493	661.824
286.672	15.568	864.820	661.429
287.687	15.586	864.523	661.212
288.701	15.573	863.965	660.678
289.716	15.529	863.669	660.220
290.730	15.597	862.735	659.713
291.745	15.614	862.181	659.298
292.760	15.684	861.547	659.029
293.774	15.844	860.599	658.872
294.789	15.725	860.209	658.051
295.803	15.796	859.806	657.960
296.818	15.652	859.121	656.816
297.833	15.796	858.576	656.903
298.847	15.692	857.663	655.743
299.862	15.845	856.813	655.629
300.876	15.793	856.561	655.175
301.891	15.797	855.674	654.454
302.906	15.812	855.216	654.107
303.920	15.849	854.795	653.870
304.935	15.972	853.685	653.441
305.949	15.990	853.342	653.191
306.964	16.036	852.894	652.968
307.979	16.069	851.842	652.231
308.993	16.022	851.579	651.789
310.008	16.151	850.873	651.692
311.022	16.073	850.456	651.012
312.037	16.014	850.103	650.458
313.052	16.024	849.296	649.821
314.066	15.976	848.773	649.177
315.081	15.867	848.085	648.174
316.095	15.872	847.439	647.643
317.110	15.920	847.217	647.599
318.125	15.951	846.508	647.121
319.139	15.803	846.217	646.274
320.154	15.889	845.687	646.139
321.168	15.960	844.953	645.794
322.183	15.895	844.750	645.334
323.197	15.981	843.752	644.843
324.212	16.120	843.258	644.941
325.227	16.060	842.872	644.359
326.241	16.198	841.880	644.072
327.256	16.085	841.523	643.307
328.270	15.951	841.138	642.446
329.285	16.161	840.296	642.545
330.300	16.203	839.559	642.088
331.314	16.033	839.501	641.337
332.329	16.043	838.634	640.657
333.343	16.087	838.017	640.296
334.358	16.343	837.285	640.652
335.373	16.261	836.874	639.971
336.387	16.326	836.571	639.925
337.402	16.381	835.650	639.373
338.416	16.461	834.988	639.114
339.431	16.404	834.895	638.769
340.446	16.589	833.865	638.622
341.460	16.420	834.052	638.074
342.475	16.483	833.304	637.683
343.489	16.395	832.746	636.868
344.504	16.564	832.194	637.025
345.519	16.687	831.255	636.712
346.533	16.682	830.814	636.297
347.548	16.675	830.650	636.090
348.562	16.567	829.909	635.062
349.577	16.425	829.506	634.163
350.592	16.521	828.885	633.995
351.606	16.471	827.923	633.016
352.621	16.399	828.014	632.760
353.635	16.403	827.682	632.461
354.650	16.485	827.191	632.338
355.665	16.432	826.870	631.840
356.679	16.710	825.827	632.023
357.694	16.441	825.927	631.041
358.708	16.718	825.020	631.325
359.723	16.632	824.378	630.457
360.738	16.635	823.978	630.107
361.752	16.651	823.427	629.688
362.767	16.693	822.749	629.272
363.781	16.796	822.806	629.641
364.796	16.803	822.675	629.511
365.810	16.817	822.248	629.181
366.825	16.906	821.728	629.059
367.840	16.945	821.099	628.664
368.854	16.929	820.723	628.264
369.869	16.962	820.113	627.861
370.883	16.759	819.772	626.795
371.898	16.744	819.087	626.158
372.913	17.070	818.078	626.535
373.927	17.015	817.823	626.084
374.942	17.031	817.081	625.520
375.956	17.019	816.315	624.834
376.971	16.937	815.795	624.079
377.986	16.901	815.883	623.958
379.000	17.169	814.993	624.206
380.015	17.214	814.326	623.804
381.029	17.238	813.673	623.339
382.044	17.043	813.405	622.364
383.059	17.065	812.946	622.036
384.073	17.081	812.502	621.700
385.088	17.303	811.565	621.740
386.102	17.213	810.746	620.729
387.117	17.119	810.509	620.149
388.132	16.974	810.051	619.216
389.146	17.069	809.542	619.117
390.161	17.042	809.491	618.926
391.175	17.158	808.889	618.834
392.190	17.120	808.519	618.359
393.205	17.149	808.492	618.389
394.219	17.227	807.315	617.716
395.234	17.231	806.754	617.246
396.248	17.077	806.689	616.584
397.263	17.110	806.031	616.144
398.278	17.016	805.929	615.670
399.292	17.074	805.383	615.411
400.307	16.978	804.936	614.668
401.321	16.933	804.899	614.419
402.336	17.080	804.302	614.443
403.350	17.141	803.569	614.049
404.365	17.229	803.318	614.120
405.380	17.342	802.480	613.834
406.394	17.326	802.383	613.647
407.409	17.457	801.836	613.647
408.423	17.407	801.362	613.051
409.438	17.576	800.597	613.018
410.453	17.519	800.738	612.867
411.467	17.617	800.134	612.704
412.482	17.529	799.447	611.807
413.496	17.629	798.853	611.658
414.511	17.697	798.660	611.698
415.526	17.597	798.622	611.257
416.540	17.549	798.250	610.747
417.555	17.811	797.388	610.973
418.569	17.592	797.099	609.912
419.584	17.664	796.963	610.013
420.599	17.626	796.097	609.160
421.613	149.984	1366.945	1783.642
422.628	129.731	1450.160	1783.739
