DTS Sentinel unit serial number:	SN413079Multiplexer serial number:	ORYXHardware model number:	OX4-SRSoftware version number:	ORYX F/W v4.00 Oryx Data Collector v3.7.2.0data status	okinstallation	princeton_trtdifferential loss correction	single-endedforward channel	channel 3reverse channel	N/Adate	2019/09/19time	06:56:35forward acquisition time	60.00reverse acquisition time	0.00gamma	496.2192k internal	0.2348k external	0.2348temperature offset calibration	0.9987default loss term (dB/km)	0.3790temperature slope calibration	1.0000multiplexer offset coefficient	1.0000multiplexer slope coefficient	1.0000fibre end	0.00T internal ref (°C)	19.00T ext. ref 1 (°C)	0.56T ext. ref 2 (°C)	12.75length (m)	temperature (°C)	Stokes	anti-Stokes-747.200	-95.781	0.220	-0.059
-746.185	581.286	-0.135	0.330
-745.171	-9.118	0.142	0.095
-744.156	-114.620	0.063	-0.012
-743.142	-15.149	0.466	0.298
-742.127	800.000	-0.128	0.535
-741.112	-87.079	0.164	-0.050
-740.098	-152.879	-0.151	-0.011
-739.083	-200.000	0.016	0.084
-738.069	-81.559	-0.233	0.076
-737.054	800.000	0.015	-0.061
-736.039	-74.041	-0.385	0.139
-735.025	-67.343	0.221	0.087
-734.010	-96.049	-0.294	-0.078
-732.996	-46.616	-0.171	-0.084
-731.981	-10.998	-0.165	0.109
-730.966	-31.867	-0.229	-0.128
-729.952	355.788	0.032	0.063
-728.937	-165.376	-0.196	0.009
-727.923	-63.475	-0.215	-0.088
-726.908	-45.966	-0.162	0.080
-725.894	-142.168	0.093	0.009
-724.879	800.000	0.021	-0.061
-723.864	-200.000	0.041	0.292
-722.850	-200.000	0.005	-0.189
-721.835	-95.706	-0.337	0.090
-720.821	21.420	0.354	-0.287
-719.806	273.906	-0.184	-0.324
-718.791	276.392	0.151	0.268
-717.777	-200.000	-0.048	-0.233
-716.762	724.489	0.096	-0.255
-715.748	800.000	-0.070	-0.268
-714.733	268.488	-0.096	-0.169
-713.718	12.085	0.278	-0.213
-712.704	-31.081	0.212	-0.119
-711.689	-134.195	-0.287	-0.035
-710.675	-12.675	-0.021	-0.014
-709.660	442.788	0.120	-0.262
-708.645	800.000	-0.008	0.028
-707.631	60.124	0.154	0.152
-706.616	-200.000	0.070	0.373
-705.602	28.078	-0.175	0.147
-704.587	162.258	0.238	-0.333
-703.572	95.504	-0.205	-0.234
-702.558	-120.826	0.179	-0.030
-701.543	-92.294	0.035	0.010
-700.529	800.000	0.164	-0.572
-699.514	42.642	0.079	-0.072
-698.499	-200.000	-0.042	0.193
-697.485	286.198	-0.146	-0.263
-696.470	-157.639	-0.157	0.009
-695.456	-25.608	0.153	0.090
-694.441	800.000	0.118	-0.407
-693.426	-200.000	-0.046	0.300
-692.412	-85.981	-0.167	0.051
-691.397	-122.593	0.229	0.037
-690.383	-200.000	-0.006	0.104
-689.368	-200.000	0.002	0.028
-688.354	129.598	-0.136	-0.173
-687.339	-36.928	0.322	-0.172
-686.324	-157.380	0.148	-0.009
-685.310	800.000	0.048	0.144
-684.295	-75.299	0.190	-0.068
-683.281	11.529	-0.168	0.129
-682.266	-200.000	-0.016	-0.236
-681.251	-181.372	0.212	0.004
-680.237	370.392	-0.160	0.323
-679.222	-200.000	-0.009	-0.043
-678.208	327.297	0.026	-0.051
-677.193	608.973	0.116	0.290
-676.178	-200.000	0.074	-0.401
-675.164	800.000	-0.051	-0.168
-674.149	-78.127	0.196	0.067
-673.135	-200.000	-0.020	0.126
-672.120	800.000	0.076	-0.328
-671.105	95.988	-0.058	-0.066
-670.091	174.845	-0.099	-0.142
-669.076	-118.472	0.181	0.032
-668.062	-105.429	0.087	-0.020
-667.047	-71.353	0.187	0.070
-666.032	-200.000	0.016	0.342
-665.018	-39.738	0.322	-0.168
-664.003	10.365	0.043	0.032
-662.989	96.496	-0.187	0.213
-661.974	17.199	0.264	-0.208
-660.959	-21.808	-0.157	-0.095
-659.945	-26.876	0.151	-0.088
-658.930	-102.406	-0.132	0.031
-657.916	29.147	0.136	0.115
-656.901	-59.934	-0.050	-0.021
-655.886	800.000	0.057	-0.186
-654.872	98.242	-0.156	0.179
-653.857	374.610	-0.086	0.174
-652.843	-79.381	-0.340	0.114
-651.828	53.578	0.154	0.147
-650.814	67.437	-0.096	0.098
-649.799	36.272	-0.115	-0.101
-648.784	-12.586	0.294	0.191
-647.770	800.000	0.040	0.136
-646.755	88.770	0.230	-0.255
-645.741	800.000	0.031	-0.108
-644.726	-103.844	-0.087	-0.020
-643.711	389.161	0.213	0.440
-642.697	-146.563	0.439	-0.038
-641.682	-200.000	-0.020	-0.166
-640.668	34.750	0.346	0.301
-639.653	-143.777	0.088	0.008
-638.638	-200.000	-0.063	-0.292
-637.624	-134.480	-0.224	0.027
-636.609	317.567	0.022	0.042
-635.595	145.548	0.382	-0.509
-634.580	-118.675	-0.374	0.066
-633.565	-89.814	-0.148	0.043
-632.551	133.303	-0.133	-0.171
-631.536	-88.802	0.142	-0.042
-630.522	93.480	0.046	0.051
-629.507	170.976	-0.237	-0.338
-628.492	82.582	0.224	0.242
-627.478	121.717	0.125	-0.154
-626.463	800.000	-0.081	-0.273
-625.449	-89.843	-0.300	-0.087
-624.434	106.766	-0.139	-0.164
-623.419	-50.921	0.098	-0.046
-622.405	122.152	0.187	0.232
-621.390	29.458	-0.178	0.150
-620.376	74.240	-0.190	0.198
-619.361	800.000	0.056	0.199
-618.346	-36.059	0.099	-0.053
-617.332	-200.000	-0.042	0.312
-616.317	800.000	-0.062	0.233
-615.303	83.310	-0.107	0.116
-614.288	20.750	-0.099	0.080
-613.273	-183.668	0.149	-0.003
-612.259	22.127	-0.110	-0.089
-611.244	-37.417	0.200	0.106
-610.230	445.129	-0.074	0.161
-609.215	385.828	0.044	0.090
-608.201	-200.000	-0.014	0.170
-607.186	-144.507	-0.305	0.028
-606.171	-5.037	0.215	-0.147
-605.157	-200.000	-0.010	-0.347
-604.142	27.174	0.193	-0.161
-603.128	178.603	0.065	-0.094
-602.113	-134.764	-0.092	-0.011
-601.098	-200.000	0.027	0.182
-600.084	-50.741	-0.168	-0.079
-599.069	24.746	-0.212	-0.175
-598.055	-200.000	0.304	0.001
-597.040	-112.269	-0.113	-0.022
-596.025	68.527	0.094	0.095
-595.011	-200.000	0.040	0.319
-593.996	38.086	0.110	-0.097
-592.982	-111.365	0.049	0.010
-591.967	-36.727	0.310	-0.165
-590.952	134.112	0.117	-0.151
-589.938	-200.000	0.094	-0.503
-588.923	-200.000	0.066	-0.335
-587.909	800.000	0.077	-0.214
-586.894	43.921	-0.201	-0.183
-585.879	475.168	0.060	0.135
-584.865	-200.000	-0.014	-0.119
-583.850	-200.000	-0.070	0.319
-582.836	800.000	0.069	0.201
-581.821	-182.665	-0.173	-0.003
-580.806	-158.871	0.223	0.013
-579.792	-200.000	-0.005	0.292
-578.777	22.621	-0.186	0.151
-577.763	-101.370	0.136	0.033
-576.748	39.009	0.154	-0.137
-575.733	59.883	0.225	-0.221
-574.719	96.278	0.097	0.110
-573.704	731.768	-0.036	-0.094
-572.690	480.371	-0.094	0.211
-571.675	144.228	0.185	-0.245
-570.661	237.145	-0.100	0.165
-569.646	-110.775	0.361	-0.074
-568.631	428.083	0.135	-0.288
-567.617	800.000	-0.137	-0.440
-566.602	447.750	-0.086	0.188
-565.588	-7.787	-0.190	0.128
-564.573	217.760	0.040	-0.064
-563.558	-102.696	-0.191	-0.045
-562.544	347.237	-0.124	0.242
-561.529	-1.614	0.145	-0.101
-560.515	-3.221	-0.204	0.141
-559.500	61.396	0.195	-0.192
-558.485	-144.827	0.054	-0.005
-557.471	-15.053	0.102	0.065
-556.456	-105.476	0.325	-0.073
-555.442	-200.000	0.042	-0.308
-554.427	-57.915	0.096	0.042
-553.412	-144.254	-0.262	0.024
-552.398	-111.260	-0.171	0.035
-551.383	800.000	-0.048	0.183
-550.369	-147.557	0.275	-0.023
-549.354	-22.733	-0.253	-0.152
-548.339	-200.000	0.003	0.110
-547.325	-119.876	-0.168	-0.029
-546.310	-82.575	0.018	-0.006
-545.296	56.832	-0.063	-0.061
-544.281	110.406	0.052	-0.062
-543.266	117.782	-0.190	-0.232
-542.252	-11.953	0.151	-0.098
-541.237	61.879	-0.114	-0.113
-540.223	586.248	0.110	0.269
-539.208	-200.000	0.013	0.190
-538.193	8.365	-0.017	-0.013
-537.179	-200.000	0.003	-0.230
-536.164	-128.604	0.073	-0.010
-535.150	199.532	0.152	0.230
-534.135	800.000	-0.070	-0.243
-533.121	442.190	0.033	0.071
-532.106	-140.627	-0.111	-0.011
-531.091	-146.929	-0.220	-0.019
-530.077	-200.000	-0.003	0.134
-529.062	-200.000	0.077	-0.385
-528.048	-103.195	0.383	0.090
-527.033	33.585	-0.074	0.064
-526.018	14.669	-0.153	-0.118
-525.004	-200.000	-0.019	0.204
-523.989	241.233	0.087	0.145
-522.975	24.754	0.175	-0.144
-521.960	-78.975	0.173	-0.058
-520.945	94.927	0.132	0.148
-519.931	297.948	0.158	-0.288
-518.916	-23.207	0.216	0.129
-517.902	-200.000	-0.028	0.145
-516.887	-118.385	-0.107	0.019
-515.872	-200.000	0.011	-0.205
-514.858	-29.758	-0.184	0.104
-513.843	235.958	-0.193	0.316
-512.829	323.827	0.079	-0.148
-511.814	-200.000	0.013	0.400
-510.799	73.535	0.132	0.137
-509.785	800.000	0.049	-0.214
-508.770	-38.659	-0.159	-0.083
-507.756	-200.000	-0.029	0.148
-506.741	34.541	0.285	-0.246
-505.726	302.450	-0.025	-0.047
-504.712	514.724	-0.158	-0.365
-503.697	22.952	-0.320	-0.260
-502.683	800.000	0.016	-0.046
-501.668	-35.521	-0.055	-0.030
-500.653	241.085	-0.118	-0.195
-499.639	-110.059	-0.265	0.055
-498.624	800.000	0.021	-0.068
-497.610	-200.000	0.010	-0.211
-496.595	-112.952	-0.355	0.070
-495.581	48.689	0.032	-0.029
-494.566	299.469	-0.085	0.156
-493.551	-43.074	-0.178	-0.089
-492.537	31.358	-0.059	-0.050
-491.522	253.464	0.097	0.165
-490.508	-200.000	-0.009	0.061
-489.493	136.254	0.124	0.160
-488.478	-105.176	0.227	0.051
-487.464	45.831	0.185	-0.169
-486.449	-49.946	0.071	0.033
-485.435	165.898	0.067	-0.094
-484.420	8.288	-0.129	-0.096
-483.405	-52.920	0.040	-0.018
-482.391	-200.000	-0.007	-0.371
-481.376	-200.000	-0.004	-0.249
-480.362	-160.428	-0.165	-0.009
-479.347	-79.699	-0.121	-0.040
-478.332	800.000	0.042	-0.125
-477.318	-127.102	-0.136	0.020
-476.303	-151.883	0.211	-0.015
-475.289	334.341	-0.076	0.145
-474.274	-200.000	0.065	0.437
-473.259	86.010	-0.178	0.194
-472.245	197.273	-0.063	-0.095
-471.230	20.242	0.088	-0.070
-470.216	-76.787	-0.169	0.059
-469.201	66.523	-0.141	-0.142
-468.186	83.335	-0.030	-0.032
-467.172	-134.727	0.251	0.030
-466.157	800.000	0.012	0.042
-465.143	-164.027	-0.103	0.005
-464.128	514.092	-0.048	-0.112
-463.113	-126.949	-0.357	-0.052
-462.099	262.217	-0.049	-0.085
-461.084	8.259	0.079	-0.058
-460.070	431.241	-0.173	0.371
-459.055	-63.918	0.158	-0.064
-458.040	-24.678	-0.235	-0.138
-457.026	275.946	0.197	0.346
-456.011	208.574	-0.074	0.115
-454.997	-97.740	-0.067	0.017
-453.982	-142.480	0.067	0.007
-452.968	-200.000	0.014	0.096
-451.953	-4.258	-0.342	-0.234
-450.938	-27.192	0.113	0.065
-449.924	160.894	-0.133	0.184
-448.909	-31.574	-0.101	0.056
-447.895	128.757	0.039	0.050
-446.880	160.532	0.253	-0.349
-445.865	-133.263	0.160	0.020
-444.851	-200.000	0.082	-0.394
-443.836	-86.486	-0.091	0.028
-442.822	235.432	-0.141	0.229
-441.807	-3.483	0.265	0.182
-440.792	471.450	0.012	-0.027
-439.778	-168.080	0.289	-0.011
-438.763	336.275	-0.032	-0.061
-437.749	105.413	0.134	0.156
-436.734	19.793	-0.205	0.163
-435.719	68.715	-0.107	-0.109
-434.705	-200.000	-0.018	0.170
-433.690	-33.915	0.294	0.160
-432.676	-84.169	-0.227	-0.071
-431.661	13.899	-0.171	0.131
-430.646	-200.000	0.022	0.165
-429.632	14.856	-0.166	0.128
-428.617	67.584	0.068	-0.068
-427.603	-97.071	0.107	0.028
-426.588	-55.076	0.107	-0.047
-425.573	-151.110	0.290	-0.022
-424.559	-77.700	0.221	-0.075
-423.544	-109.448	0.223	-0.047
-422.530	-200.000	0.018	-0.336
-421.515	199.782	0.033	0.049
-420.500	-46.618	0.253	-0.122
-419.486	-162.871	-0.300	-0.014
-418.471	-200.000	-0.012	-0.068
-417.457	324.189	-0.188	-0.354
-416.442	-8.093	0.125	0.083
-415.428	800.000	0.055	-0.235
-414.413	46.366	-0.296	0.270
-413.398	800.000	0.075	0.285
-412.384	348.878	0.200	-0.389
-411.369	166.447	-0.086	-0.120
-410.355	27.201	-0.236	-0.195
-409.340	-10.693	0.362	-0.236
-408.325	153.816	-0.083	-0.112
-407.311	35.264	-0.012	-0.010
-406.296	-20.122	-0.142	0.086
-405.282	-94.491	0.103	0.028
-404.267	188.454	-0.165	-0.243
-403.252	-11.459	-0.208	0.135
-402.238	-200.000	-0.094	0.417
-401.223	-133.943	-0.492	-0.060
-400.209	-133.991	0.225	-0.027
-399.194	-200.000	-0.188	-0.000
-398.179	213.801	0.129	0.202
-397.165	800.000	-0.080	0.221
-396.150	-125.361	0.226	-0.034
-395.136	21.296	0.275	0.221
-394.121	800.000	-0.077	-0.307
-393.106	-51.519	0.185	-0.085
-392.092	-200.000	-0.000	0.636
-391.077	-162.337	-0.318	-0.016
-390.063	-111.383	0.321	-0.065
-389.048	-200.000	0.039	0.405
-388.033	-41.955	0.343	-0.173
-387.019	277.150	0.110	0.192
-386.004	130.903	-0.267	-0.337
-384.990	-200.000	0.005	0.076
-383.975	294.537	-0.051	0.091
-382.960	-200.000	-0.011	-0.294
-381.946	133.338	0.111	0.141
-380.931	-42.509	-0.051	-0.026
-379.917	-167.303	-0.459	0.018
-378.902	-99.195	0.048	-0.012
-377.888	800.000	0.051	-0.206
-376.873	-124.512	-0.296	-0.045
-375.858	46.488	0.071	0.065
-374.844	334.762	-0.143	0.273
-373.829	800.000	0.049	-0.185
-372.815	800.000	0.033	-0.099
-371.800	800.000	0.038	0.120
-370.785	800.000	0.102	-0.412
-369.771	800.000	0.069	-0.211
-368.756	-200.000	0.012	0.097
-367.742	-200.000	0.005	0.248
-366.727	44.997	0.147	-0.133
-365.712	194.137	-0.098	-0.146
-364.698	-193.079	-0.101	-0.001
-363.683	800.000	-0.050	-0.155
-362.669	227.062	0.091	-0.146
-361.654	-24.726	0.170	0.100
-360.639	360.845	-0.048	0.095
-359.625	-82.856	-0.047	0.015
-358.610	800.000	0.023	0.083
-357.596	358.626	0.169	0.332
-356.581	405.087	0.065	0.134
-355.566	-15.160	-0.185	-0.117
-354.552	194.674	0.159	0.237
-353.537	-200.000	-0.011	0.225
-352.523	800.000	0.053	0.170
-351.508	-30.239	-0.236	0.132
-350.493	-37.017	0.059	0.031
-349.479	146.668	0.179	-0.237
-348.464	-81.229	-0.195	0.063
-347.450	288.623	-0.073	-0.131
-346.435	-200.000	-0.017	0.084
-345.420	586.732	-0.047	-0.113
-344.406	-200.000	0.038	0.276
-343.391	-127.698	-0.267	0.038
-342.377	253.745	0.063	-0.107
-341.362	-14.107	-0.172	-0.109
-340.348	-134.829	-0.227	-0.027
-339.333	-53.992	-0.140	0.063
-338.318	102.063	-0.143	0.164
-337.304	-171.927	-0.269	0.009
-336.289	800.000	0.015	-0.046
-335.275	-116.297	0.260	0.047
-334.260	-72.895	-0.185	0.067
-333.245	-93.240	0.205	-0.056
-332.231	-142.382	-0.245	-0.024
-331.216	-96.511	-0.095	0.025
-330.202	800.000	-0.030	-0.120
-329.187	440.197	0.040	-0.086
-328.172	-118.485	0.406	0.071
-327.158	-36.241	-0.170	0.090
-326.143	-161.730	0.181	0.009
-325.129	322.958	-0.104	0.195
-324.114	-130.103	-0.431	0.058
-323.099	-153.018	0.371	-0.026
-322.085	-120.806	0.169	-0.028
-321.070	-98.723	0.034	0.009
-320.056	366.165	0.138	-0.274
-319.041	264.966	0.061	-0.104
-318.026	141.414	-0.094	0.123
-317.012	-47.951	-0.218	0.104
-315.997	14.657	0.065	0.050
-314.983	800.000	-0.092	0.336
-313.968	-91.976	0.211	-0.059
-312.953	-200.000	0.000	0.101
-311.939	-98.374	-0.209	0.053
-310.924	545.657	0.015	0.035
-309.910	353.589	0.093	0.182
-308.895	-37.739	-0.168	-0.088
-307.880	-146.249	0.153	-0.013
-306.866	7.700	-0.152	-0.111
-305.851	-179.091	0.297	0.007
-304.837	-200.000	0.005	0.359
-303.822	-3.619	0.035	0.024
-302.807	286.833	0.183	0.324
-301.793	-60.522	-0.205	0.086
-300.778	100.360	0.252	-0.287
-299.764	-12.819	-0.170	-0.109
-298.749	-11.934	-0.474	-0.305
-297.735	422.429	-0.078	0.165
-296.720	800.000	0.021	-0.066
-295.705	42.670	0.355	0.317
-294.691	248.800	0.191	-0.317
-293.676	498.722	-0.119	-0.269
-292.662	-12.730	-0.293	-0.188
-291.647	20.730	-0.177	0.141
-290.632	-114.655	0.292	0.055
-289.618	-53.611	0.094	-0.042
-288.603	-200.000	-0.000	0.014
-287.589	-129.022	-0.349	-0.048
-286.574	-107.099	-0.162	0.035
-285.559	-200.000	0.014	0.369
-284.545	-41.478	0.300	-0.151
-283.530	-113.474	0.222	0.043
-282.516	800.000	0.008	-0.027
-281.501	207.002	0.086	0.131
-280.486	800.000	-0.025	-0.075
-279.472	-102.590	-0.342	-0.080
-278.457	-52.475	0.164	0.074
-277.443	800.000	0.142	-0.393
-276.428	-200.000	0.013	-0.076
-275.413	25.359	-0.207	0.169
-274.399	263.274	-0.104	-0.178
-273.384	152.932	0.225	-0.302
-272.370	-200.000	-0.021	0.095
-271.355	-163.787	-0.081	0.004
-270.340	521.577	-0.058	0.134
-269.326	-200.000	0.033	0.147
-268.311	70.272	-0.063	0.063
-267.297	-50.794	0.140	0.065
-266.282	128.638	-0.235	0.293
-265.267	708.872	0.117	0.304
-264.253	800.000	-0.079	-0.311
-263.238	620.579	0.019	0.046
-262.224	-144.660	-0.322	0.029
-261.209	53.146	-0.069	-0.065
-260.195	-20.559	0.264	0.159
-259.180	30.985	-0.104	0.087
-258.165	-19.206	-0.143	0.087
-257.151	-167.836	-0.584	0.023
-256.136	649.856	0.101	-0.253
-255.122	-109.888	-0.071	-0.015
-254.107	-200.000	0.022	0.466
-253.092	-12.417	0.259	-0.166
-252.078	47.308	0.132	-0.120
-251.063	-200.000	0.019	0.123
-250.049	118.126	0.267	0.322
-249.034	47.342	0.164	-0.150
-248.019	237.423	-0.200	-0.325
-247.005	-200.000	-0.019	0.140
-245.990	-89.409	0.183	-0.053
-244.976	110.198	0.239	-0.281
-243.961	-47.211	-0.182	0.087
-242.946	-103.661	0.247	0.057
-241.932	-144.835	0.226	0.020
-240.917	800.000	-0.050	-0.174
-239.903	33.794	0.152	-0.130
-238.888	218.429	-0.035	0.054
-237.873	-200.000	0.035	0.258
-236.859	129.520	0.118	0.147
-235.844	-200.000	-0.049	0.300
-234.830	539.030	0.087	-0.202
-233.815	-77.059	-0.110	0.038
-232.800	47.129	-0.208	0.190
-231.786	169.965	-0.149	0.208
-230.771	-178.557	-0.158	0.004
-229.757	-200.000	-0.010	0.100
-228.742	800.000	-0.119	-0.411
-227.727	105.225	-0.120	0.138
-226.713	234.704	-0.126	-0.203
-225.698	182.523	-0.058	-0.084
-224.684	800.000	0.146	0.403
-223.669	591.158	0.110	0.266
-222.655	-58.718	-0.133	-0.057
-221.640	-142.183	0.040	0.004
-220.625	21.787	-0.084	0.067
-219.611	-137.965	-0.170	0.019
-218.596	1.263	-0.072	-0.050
-217.582	-84.040	-0.244	0.076
-216.567	-200.000	0.005	-0.038
-215.552	121.391	0.162	0.198
-214.538	114.795	0.225	0.268
-213.523	550.758	0.114	-0.267
-212.509	-99.293	-0.361	0.089
-211.494	-114.144	0.144	0.027
-210.479	800.000	0.083	0.224
-209.465	152.172	0.195	0.261
-208.450	-139.339	-0.106	-0.011
-207.436	-200.000	0.045	0.374
-206.421	800.000	0.094	0.300
-205.406	107.890	0.197	-0.230
-204.392	57.388	0.203	0.193
-203.377	-159.500	-0.085	-0.005
-202.363	800.000	0.112	-0.468
-201.348	-200.000	-0.071	0.352
-200.333	-17.455	-0.184	0.113
-199.319	-200.000	0.041	-0.278
-198.304	489.419	-0.028	-0.062
-197.290	43.370	-0.171	0.152
-196.275	-200.000	-0.043	0.342
-195.260	108.579	-0.195	-0.228
-194.246	52.368	-0.048	-0.045
-193.231	421.509	0.035	0.074
-192.217	90.088	0.167	0.183
-191.202	75.194	-0.113	0.117
-190.187	-200.000	0.041	-0.564
-189.173	-49.380	0.156	0.073
-188.158	-86.448	-0.122	0.037
-187.144	54.266	0.119	-0.112
-186.129	602.892	0.087	0.212
-185.114	-146.866	0.204	0.017
-184.100	-116.383	-0.224	-0.041
-183.085	157.252	-0.079	0.107
-182.071	240.171	0.224	0.365
-181.056	-200.000	-0.003	-0.222
-180.042	101.678	-0.318	-0.362
-179.027	-200.000	0.018	-0.156
-178.012	122.171	0.153	-0.186
-176.998	-33.531	0.108	-0.058
-175.983	-68.956	-0.376	-0.142
-174.969	800.000	0.111	-0.379
-173.954	164.160	0.092	0.126
-172.939	-77.568	0.053	-0.018
-171.925	800.000	-0.026	0.079
-170.910	281.507	0.099	-0.174
-169.896	800.000	-0.047	-0.145
-168.881	203.844	-0.113	-0.171
-167.866	-115.168	-0.337	-0.062
-166.852	-3.973	0.187	-0.127
-165.837	-31.012	0.214	-0.118
-164.823	121.585	-0.134	-0.163
-163.808	100.478	0.152	-0.172
-162.793	-53.430	-0.218	-0.098
-161.779	-200.000	0.017	0.174
-160.764	800.000	0.032	0.136
-159.750	27.519	0.271	-0.223
-158.735	184.306	0.142	-0.205
-157.720	-26.321	0.367	0.210
-156.706	-69.345	-0.177	0.066
-155.691	200.819	0.204	-0.307
-154.677	800.000	0.042	0.124
-153.662	-200.000	-0.034	0.281
-152.647	-12.295	-0.157	0.100
-151.633	-154.737	-0.502	0.032
-150.618	186.572	0.129	0.188
-149.604	17.434	-0.342	0.265
-148.589	800.000	-0.059	0.182
-147.574	-115.476	0.092	-0.017
-146.560	-77.613	0.049	-0.017
-145.545	54.085	-0.062	-0.058
-144.531	800.000	-0.107	-0.299
-143.516	445.914	-0.029	-0.063
-142.502	-103.515	-0.174	0.040
-141.487	-53.942	-0.219	-0.097
-140.472	800.000	0.056	-0.214
-139.458	-152.270	-0.086	0.006
-138.443	-71.382	0.049	-0.018
-137.429	-81.792	0.189	0.061
-136.414	-43.646	0.335	0.165
-135.399	95.342	-0.330	-0.367
-134.385	-200.000	0.026	0.293
-133.370	150.046	0.435	0.576
-132.356	299.907	0.170	0.306
-131.341	33.350	-0.237	-0.200
-130.326	-60.997	0.196	0.081
-129.312	663.160	-0.076	0.192
-128.297	188.412	0.045	0.066
-127.283	-12.821	0.174	0.110
-126.268	3.368	-0.332	-0.236
-125.253	-5.694	0.138	0.092
-124.239	114.203	0.242	0.287
-123.224	76.399	0.192	-0.198
-122.210	-200.000	0.013	0.175
-121.195	82.303	0.079	0.084
-120.180	800.000	-0.110	0.387
-119.166	800.000	-0.015	-0.050
-118.151	643.685	0.093	0.232
-117.137	-200.000	-0.010	0.074
-116.122	800.000	-0.041	-0.120
-115.107	197.154	0.057	0.084
-114.093	-78.246	-0.292	-0.098
-113.078	-176.963	-0.193	-0.005
-112.064	-29.354	-0.205	0.114
-111.049	-5.505	-0.425	-0.284
-110.034	221.291	-0.131	0.206
-109.020	-200.000	-0.011	0.274
-108.005	120.265	0.049	0.059
-106.991	800.000	-0.059	0.180
-105.976	360.082	0.098	-0.191
-104.962	-127.738	-0.184	-0.026
-103.947	-200.000	-0.003	0.172
-102.932	254.622	0.145	-0.242
-101.918	32.381	-0.102	-0.086
-100.903	-55.406	-0.205	0.089
-99.889	404.255	-0.086	-0.177
-98.874	-0.623	0.188	-0.130
-97.859	-33.408	-0.318	-0.171
-96.845	800.000	-0.054	-0.194
-95.830	112.450	0.040	-0.047
-94.816	-55.885	0.181	0.079
-93.801	-67.077	-0.115	-0.044
-92.786	261.789	-0.113	0.190
-91.772	56.887	-0.193	0.183
-90.757	-183.358	0.332	-0.006
-89.743	-87.814	-0.373	-0.110
-88.728	-88.010	0.045	0.013
-87.713	234.902	-0.168	-0.269
-86.699	-200.000	0.006	-0.145
-85.684	-158.120	0.127	0.007
-84.670	117.676	-0.213	0.256
-83.655	264.245	-0.263	0.446
-82.640	-110.057	0.209	0.042
-81.626	-200.000	-0.055	-0.299
-80.611	174.147	-0.071	-0.099
-79.597	-86.722	0.061	0.018
-78.582	-77.000	-0.202	0.069
-77.567	-40.736	0.306	0.154
-76.553	285.795	-0.090	0.159
-75.538	87.261	0.042	0.045
-74.524	-3.375	0.200	-0.136
-73.509	-200.000	0.018	0.143
-72.494	-200.000	0.010	0.107
-71.480	387.921	0.059	-0.119
-70.465	-200.000	0.060	0.373
-69.451	9.987	0.140	0.103
-68.436	44.028	0.042	0.037
-67.422	-29.365	-0.213	0.119
-66.407	-78.341	0.306	0.102
-65.392	28.447	-0.139	-0.114
-64.378	-200.000	-0.069	0.388
-63.363	708.012	0.138	0.354
-62.349	35.073	0.213	0.181
-61.334	59.369	-1.211	-1.160
-60.319	-54.590	1.184	0.521
-59.305	800.000	-0.493	-1.489
-58.290	800.000	0.420	1.475
-57.276	222.106	0.819	1.282
-56.261	-200.000	135.583	630.318
-55.246	348.778	1631.688	3130.487
-54.232	138.736	2769.030	3536.554
-53.217	81.104	2176.146	2284.573
-52.203	28.627	1697.205	1396.525
-51.188	21.979	1522.462	1207.138
-50.173	20.442	1502.047	1180.470
-49.159	43.833	1578.139	1404.961
-48.144	39.461	1588.751	1383.722
-47.130	21.808	1538.097	1218.150
-46.115	19.172	1522.471	1187.579
-45.100	18.976	1518.896	1183.392
-44.086	19.118	1516.319	1182.311
-43.071	18.925	1514.921	1179.850
-42.057	18.985	1513.631	1179.207
-41.042	18.967	1512.112	1177.855
-40.027	19.011	1510.837	1177.116
-39.013	18.947	1509.494	1175.590
-37.998	18.966	1507.387	1174.029
-36.984	18.955	1507.180	1173.746
-35.969	18.980	1505.535	1172.589
-34.954	18.867	1504.183	1170.724
-33.940	18.895	1502.648	1169.668
-32.925	18.882	1501.167	1168.384
-31.911	18.908	1500.380	1167.897
-30.896	19.087	1498.661	1167.732
-29.881	19.122	1497.049	1166.667
-28.867	19.051	1495.883	1165.230
-27.852	19.060	1494.772	1164.379
-26.838	19.092	1492.900	1163.090
-25.823	19.143	1491.416	1162.232
-24.809	18.924	1490.548	1160.031
-23.794	19.073	1488.719	1159.567
-22.779	18.984	1488.046	1158.399
-21.765	19.045	1486.671	1157.694
-20.750	19.064	1485.537	1156.888
-19.736	19.005	1484.418	1155.574
-18.721	19.058	1483.120	1154.878
-17.706	18.953	1482.769	1153.853
-16.692	19.106	1481.335	1153.716
-15.677	18.998	1480.638	1152.402
-14.663	19.036	1479.558	1151.770
-13.648	19.050	1478.178	1150.748
-12.633	19.027	1477.045	1149.662
-11.619	18.973	1476.062	1148.493
-10.604	19.066	1475.245	1148.430
-9.590	18.976	1474.983	1147.585
-8.575	18.982	1474.308	1147.049
-7.560	18.967	1473.278	1146.106
-6.546	18.981	1472.593	1145.622
-5.531	19.006	1471.146	1144.617
-4.517	19.012	1469.691	1143.475
-3.502	18.945	1469.329	1142.704
-2.487	19.012	1467.910	1141.999
-1.473	18.930	1467.166	1140.833
-0.458	19.005	1466.068	1140.431
0.556	18.042	1455.430	1128.960
1.571	14.860	1432.413	1090.289
2.586	11.501	1371.672	1022.951
3.600	10.057	1288.253	952.155
4.615	9.271	1244.285	915.103
5.629	8.339	1188.367	868.832
6.644	4.344	1109.421	790.719
7.659	0.930	1076.626	750.372
8.673	0.686	1071.065	745.226
9.688	0.586	1067.866	742.447
10.702	0.487	1066.918	741.235
11.717	0.471	1064.223	739.218
12.731	1.815	1063.916	745.520
13.746	6.801	1070.042	774.235
14.761	13.114	1078.609	811.470
15.775	16.648	1083.142	832.216
16.790	16.850	1082.597	832.718
17.804	15.773	1080.433	825.698
18.819	15.019	1078.497	820.446
19.834	14.645	1076.741	817.207
20.848	14.342	1075.955	815.056
21.863	14.113	1075.549	813.555
22.877	13.874	1074.433	811.475
23.892	13.777	1073.436	810.173
24.907	13.521	1072.906	808.455
25.921	13.530	1072.025	807.765
26.936	13.639	1071.164	807.572
27.950	13.607	1071.000	807.220
28.965	13.716	1070.133	807.029
29.980	13.727	1068.976	806.137
30.994	13.780	1068.118	805.676
32.009	13.791	1067.655	805.311
33.023	13.732	1067.015	804.471
34.038	13.952	1065.884	804.613
35.053	13.885	1064.392	803.089
36.067	13.862	1063.804	802.462
37.082	13.863	1062.747	801.600
38.096	13.715	1062.473	800.606
39.111	13.836	1061.668	800.516
40.126	13.774	1060.853	799.530
41.140	13.730	1059.385	798.144
42.155	13.701	1058.259	797.083
43.169	13.750	1057.687	796.816
44.184	13.644	1056.728	795.513
45.199	13.623	1055.640	794.523
46.213	13.544	1054.671	793.346
47.228	13.667	1053.224	792.777
48.242	13.800	1052.040	792.449
49.257	13.710	1051.651	791.659
50.271	13.746	1050.254	790.706
51.286	13.700	1049.706	790.008
52.301	13.919	1048.640	790.178
53.315	13.685	1048.251	788.701
54.330	13.716	1047.042	787.867
55.344	13.630	1046.790	787.202
56.359	13.688	1045.112	786.143
57.374	13.703	1044.253	785.498
58.388	13.774	1043.322	785.063
59.403	13.650	1042.701	783.941
60.417	13.620	1041.922	783.147
61.432	13.684	1041.583	783.123
62.447	13.544	1040.946	781.915
63.461	13.608	1039.891	781.355
64.476	13.560	1038.843	780.274
65.490	13.578	1037.599	779.353
66.505	13.524	1037.411	778.890
67.520	13.671	1036.312	778.686
68.534	13.611	1036.071	778.153
69.549	13.658	1035.180	777.637
70.563	13.604	1034.292	776.647
71.578	13.735	1033.384	776.510
72.593	13.749	1032.531	775.864
73.607	13.584	1031.491	774.245
74.622	13.612	1030.802	773.789
75.636	13.675	1029.731	773.210
76.651	13.561	1028.907	771.994
77.666	13.549	1028.418	771.500
78.680	13.642	1027.443	771.137
79.695	13.513	1027.320	770.375
80.709	13.492	1026.457	769.561
81.724	13.622	1025.667	769.505
82.739	13.734	1024.471	769.061
83.753	13.629	1023.767	767.977
84.768	13.662	1023.427	767.806
85.782	13.927	1021.941	767.847
86.797	13.931	1021.420	767.408
87.812	13.733	1020.621	765.823
88.826	13.746	1019.469	764.953
89.841	13.694	1018.662	764.038
90.855	13.706	1018.160	763.649
91.870	13.798	1017.411	763.444
92.884	13.881	1016.684	763.214
93.899	13.949	1015.575	762.627
94.914	13.950	1015.070	762.183
95.928	13.984	1014.306	761.700
96.943	13.919	1013.632	760.828
97.957	13.996	1013.055	760.679
98.972	13.809	1012.135	759.068
99.987	13.836	1011.570	758.699
101.001	13.877	1010.652	758.132
102.016	13.808	1009.478	756.867
103.030	13.851	1008.697	756.410
104.045	13.878	1007.469	755.546
105.060	13.941	1006.876	755.321
106.074	13.793	1005.632	753.650
107.089	13.841	1004.872	753.232
108.103	13.767	1004.137	752.279
109.118	13.745	1003.038	751.288
110.133	13.822	1002.218	750.954
111.147	13.734	1001.658	750.073
112.162	13.795	1000.444	749.370
113.176	13.734	999.860	748.593
114.191	13.791	998.765	747.963
115.206	13.763	998.234	747.375
116.220	13.879	996.835	746.780
117.235	13.680	996.391	745.487
118.249	13.877	995.288	745.481
119.264	13.890	993.968	744.484
120.279	13.801	993.659	743.790
121.293	13.799	992.712	743.006
122.308	13.775	991.874	742.206
123.322	13.667	991.374	741.285
124.337	13.746	990.189	740.682
125.352	13.766	988.740	739.622
126.366	13.683	987.559	738.308
127.381	13.695	986.742	737.681
128.395	13.631	985.541	736.433
129.410	13.695	984.683	736.011
130.424	13.777	983.768	735.628
131.439	13.868	982.765	735.216
132.454	13.625	982.177	733.637
133.468	13.662	981.384	733.140
134.483	13.850	980.581	733.306
135.497	13.861	980.001	732.858
136.512	13.770	979.381	731.927
137.527	13.866	978.401	731.555
138.541	13.710	977.521	730.144
139.556	13.858	976.846	730.224
140.570	13.810	976.513	729.702
141.585	13.775	975.800	728.951
142.600	13.952	974.935	729.018
143.614	13.964	973.897	728.230
144.629	14.016	973.262	727.916
145.643	13.997	972.651	727.310
146.658	14.047	971.601	726.682
147.673	14.024	970.267	725.518
148.687	14.036	969.658	725.051
149.702	13.933	969.176	724.177
150.716	13.854	967.973	722.873
151.731	13.771	967.798	722.316
152.746	13.990	966.499	722.234
153.760	13.991	965.650	721.538
154.775	13.936	965.033	720.777
155.789	14.045	964.403	720.713
156.804	14.139	963.195	720.155
157.819	14.103	962.822	719.659
158.833	13.966	962.227	718.557
159.848	14.151	961.296	718.596
160.862	13.980	961.077	717.630
161.877	14.151	959.960	717.469
162.892	14.056	958.987	716.269
163.906	14.108	958.017	715.704
164.921	13.983	957.746	714.902
165.935	14.134	955.952	714.149
166.950	14.019	955.578	713.314
167.964	14.086	954.632	712.833
168.979	14.167	953.619	712.360
169.994	14.289	952.443	711.938
171.008	14.101	951.883	710.655
172.023	14.068	951.191	709.933
173.037	14.121	950.714	709.739
174.052	14.199	949.662	709.225
175.067	14.320	948.847	709.068
176.081	14.270	947.890	708.079
177.096	14.364	946.735	707.551
178.110	14.182	946.132	706.267
179.125	14.145	946.217	706.110
180.140	14.130	945.037	705.104
181.154	14.173	944.218	704.613
182.169	14.207	943.743	704.339
183.183	14.390	943.085	704.559
184.198	14.277	942.320	703.449
185.213	14.331	941.501	703.004
186.227	14.254	941.170	702.369
187.242	14.390	940.317	702.243
188.256	14.371	939.381	701.402
189.271	14.383	938.986	701.097
190.286	14.619	937.847	701.174
191.300	14.300	937.114	699.226
192.315	14.261	936.585	698.607
193.329	14.375	935.608	698.291
194.344	14.331	934.756	697.411
195.359	14.232	934.615	696.830
196.373	14.426	933.828	696.992
197.388	14.373	933.523	696.479
198.402	14.421	933.098	696.301
199.417	14.609	932.179	696.338
200.432	14.542	932.003	695.869
201.446	14.573	932.128	696.027
202.461	14.701	931.369	695.934
203.475	14.677	930.674	695.255
204.490	14.607	929.945	694.356
205.504	14.630	929.377	693.965
206.519	14.721	927.923	693.197
207.534	14.644	927.383	692.411
208.548	14.524	926.879	691.475
209.563	14.582	926.194	691.145
210.577	14.576	925.688	690.680
211.592	14.611	924.947	690.211
212.607	14.762	924.221	690.234
213.621	14.668	923.813	689.478
214.636	14.708	922.996	688.972
215.650	14.746	922.305	688.555
216.665	14.746	921.876	688.172
217.680	14.827	921.272	687.996
218.694	14.807	920.896	687.570
219.709	14.889	919.938	687.131
220.723	14.969	919.275	686.904
221.738	14.949	918.643	686.287
222.753	14.901	917.815	685.411
223.767	14.870	917.243	684.799
224.782	14.887	916.580	684.310
225.796	14.895	915.676	683.607
226.811	14.830	915.102	682.854
227.826	14.962	914.203	682.661
228.840	14.957	913.604	682.134
229.855	14.920	913.055	681.512
230.869	14.990	912.329	681.196
231.884	14.921	911.730	680.408
232.899	14.925	910.841	679.700
233.913	15.010	910.296	679.577
234.928	14.898	909.574	678.526
235.942	15.107	908.561	678.556
236.957	14.993	907.991	677.610
237.972	15.074	907.432	677.460
238.986	15.038	906.624	676.651
240.001	14.993	905.727	675.738
241.015	15.091	905.263	675.730
242.030	15.019	904.673	674.937
243.045	15.133	904.173	674.965
244.059	15.260	903.295	674.763
245.074	15.179	902.656	673.898
246.088	15.181	902.041	673.389
247.103	15.194	901.749	673.162
248.117	15.160	900.985	672.396
249.132	15.120	900.504	671.816
250.147	15.375	899.516	672.042
251.161	15.293	899.048	671.303
252.176	15.356	898.372	670.994
253.190	15.362	897.574	670.362
254.205	15.440	897.199	670.335
255.220	15.475	896.660	670.011
256.234	15.443	895.585	669.022
257.249	15.516	895.119	668.903
258.263	15.451	894.531	668.145
259.278	15.614	893.948	668.301
260.293	15.564	892.999	667.334
261.307	15.500	892.825	666.891
262.322	15.599	892.114	666.693
263.336	15.502	891.692	665.935
264.351	15.654	890.878	665.870
265.366	15.584	890.435	665.203
266.380	15.669	889.776	664.988
267.395	15.771	888.594	664.448
268.409	15.612	888.100	663.393
269.424	15.636	887.680	663.112
270.439	15.759	886.784	662.871
271.453	15.688	885.730	661.746
272.468	15.652	885.154	661.114
273.482	15.668	884.916	660.943
274.497	15.863	883.574	660.647
275.512	15.770	883.392	660.085
276.526	15.610	882.658	658.852
277.541	15.662	882.083	658.569
278.555	15.825	881.326	658.585
279.570	15.805	880.725	657.999
280.585	15.916	880.079	657.890
281.599	15.812	879.836	657.243
282.614	15.792	879.033	656.507
283.628	15.942	878.277	656.470
284.643	15.899	877.858	655.933
285.657	15.807	877.180	655.009
286.672	15.871	876.554	654.734
287.687	15.923	876.311	654.695
288.701	15.827	876.061	654.076
289.716	16.003	874.796	653.759
290.730	15.837	874.720	652.998
291.745	15.952	873.675	652.608
292.760	16.044	872.763	652.225
293.774	16.052	872.037	651.653
294.789	16.046	871.994	651.541
295.803	16.103	871.277	651.169
296.818	15.967	870.858	650.271
297.833	16.082	869.377	649.552
298.847	16.055	869.257	649.300
299.862	16.219	868.570	649.360
300.876	16.187	867.610	648.464
301.891	16.127	867.169	647.845
302.906	16.155	866.816	647.634
303.920	16.243	865.693	647.074
304.935	16.314	865.119	646.861
305.949	16.214	864.926	646.275
306.964	16.218	864.300	645.766
307.979	16.253	863.389	645.160
308.993	16.304	862.953	644.974
310.008	16.421	862.218	644.811
311.022	16.441	861.617	644.384
312.037	16.404	861.268	643.923
313.052	16.509	860.309	643.549
314.066	16.369	860.154	642.844
315.081	16.370	859.288	642.144
316.095	16.340	859.068	641.807
317.110	16.285	858.565	641.166
318.125	16.426	857.972	641.201
319.139	16.238	857.753	640.268
320.154	16.354	857.069	640.141
321.168	16.327	856.441	639.515
322.183	16.539	855.594	639.625
323.197	16.394	855.563	638.998
324.212	16.396	854.733	638.331
325.227	16.485	854.019	638.074
326.241	16.657	853.541	638.309
327.256	16.516	852.957	637.285
328.270	16.421	852.483	636.516
329.285	16.487	852.116	636.437
330.300	16.506	851.382	635.904
331.314	16.458	850.820	635.245
332.329	16.656	849.767	635.148
333.343	16.575	849.385	634.501
334.358	16.590	849.175	634.346
335.373	16.595	848.639	633.906
336.387	16.631	847.591	633.201
337.402	16.694	847.246	633.125
338.416	16.708	846.634	632.663
339.431	16.672	846.124	632.092
340.446	16.825	845.206	631.920
341.460	16.979	844.492	631.906
342.475	16.679	844.412	630.671
343.489	16.905	843.804	631.002
344.504	16.908	843.268	630.556
345.519	16.901	842.663	630.022
346.533	17.001	842.440	630.171
347.548	16.942	841.705	629.349
348.562	16.853	841.249	628.621
349.577	17.012	840.733	628.770
350.592	16.754	840.181	627.345
351.606	16.846	839.863	627.392
352.621	16.886	839.109	626.921
353.635	16.902	839.018	626.857
354.650	16.869	838.375	626.198
355.665	16.816	838.361	625.937
356.679	17.032	837.648	626.146
357.694	16.974	837.021	625.409
358.708	17.047	836.193	625.003
359.723	17.053	835.736	624.631
360.738	17.060	835.053	624.090
361.752	16.952	835.302	623.825
362.767	17.007	834.288	623.211
363.781	17.093	833.918	623.195
364.796	17.094	833.389	622.750
365.810	17.077	833.343	622.597
366.825	17.227	832.496	622.458
367.840	17.292	832.286	622.485
368.854	17.300	832.049	622.281
369.869	17.225	831.167	621.294
370.883	17.253	830.610	620.925
371.898	17.257	830.076	620.484
372.913	17.313	829.106	619.910
373.927	17.277	828.993	619.638
374.942	17.231	828.254	618.864
375.956	17.346	827.712	618.823
376.971	17.308	827.453	618.436
377.986	17.383	826.580	618.001
379.000	17.246	826.220	617.179
380.015	17.401	825.620	617.240
381.029	17.435	825.163	616.967
382.044	17.473	824.520	616.571
383.059	17.581	824.032	616.541
384.073	17.477	823.264	615.536
385.088	17.403	822.803	614.867
386.102	17.607	822.259	615.145
387.117	17.453	821.567	614.019
388.132	17.382	821.236	613.460
389.146	17.298	821.252	613.115
390.161	17.508	820.665	613.379
391.175	17.565	820.324	613.273
392.190	17.617	819.857	613.060
393.205	17.484	819.412	612.192
394.219	17.554	818.722	611.874
395.234	17.698	818.144	611.906
396.248	17.497	818.263	611.219
397.263	17.599	817.268	610.786
398.278	17.582	816.593	610.168
399.292	17.562	816.089	609.664
400.307	17.710	815.606	609.780
401.321	17.762	815.314	609.694
402.336	17.627	814.999	608.923
403.350	17.707	814.728	608.950
404.365	17.684	814.283	608.484
405.380	17.736	813.850	608.290
406.394	17.729	813.268	607.776
407.409	17.896	812.822	607.986
408.423	17.982	812.174	607.750
409.438	17.855	811.904	607.045
410.453	17.924	811.255	606.752
411.467	17.942	811.107	606.651
412.482	17.834	810.528	605.782
413.496	18.076	809.761	606.012
414.511	17.935	809.834	605.514
415.526	17.980	809.676	605.502
416.540	18.001	809.024	605.032
417.555	18.058	808.591	604.860
418.569	17.965	808.094	604.103
419.584	17.938	807.808	603.741
420.599	18.119	806.971	603.702
421.613	116.299	1299.913	1494.049
422.628	100.571	1371.681	1494.089
