DTS Sentinel unit serial number:	SN413079Multiplexer serial number:	ORYXHardware model number:	OX4-SRSoftware version number:	ORYX F/W v4.00 Oryx Data Collector v3.7.2.0data status	okinstallation	princeton_trtdifferential loss correction	single-endedforward channel	channel 3reverse channel	N/Adate	2019/09/18time	21:16:35forward acquisition time	60.00reverse acquisition time	0.00gamma	496.2192k internal	0.2345k external	0.2345temperature offset calibration	0.9995default loss term (dB/km)	0.3790temperature slope calibration	1.0000multiplexer offset coefficient	1.0000multiplexer slope coefficient	1.0000fibre end	0.00T internal ref (°C)	25.78T ext. ref 1 (°C)	0.83T ext. ref 2 (°C)	18.04length (m)	temperature (°C)	Stokes	anti-Stokes-747.200	-18.693	0.045	0.028
-746.185	-200.000	0.011	0.183
-745.171	-97.653	0.215	0.056
-744.156	-42.877	-0.340	0.173
-743.142	-55.830	0.285	0.127
-742.127	201.406	-0.141	0.217
-741.112	116.244	-0.100	-0.122
-740.098	61.302	-0.080	-0.080
-739.083	-36.140	0.145	0.078
-738.069	-38.211	-0.168	0.089
-737.054	370.825	0.131	0.267
-736.039	-124.221	-0.368	-0.058
-735.025	164.076	0.265	-0.374
-734.010	116.551	-0.304	-0.373
-732.996	-166.499	-0.231	-0.010
-731.981	-46.277	0.277	0.136
-730.966	547.416	0.155	-0.372
-729.952	-79.790	0.295	-0.099
-728.937	-43.154	-0.423	0.214
-727.923	21.628	-0.293	-0.238
-726.908	800.000	0.044	0.161
-725.894	100.819	0.084	0.098
-724.879	-136.217	-0.326	-0.038
-723.864	587.873	-0.061	0.151
-722.850	-33.010	0.096	-0.053
-721.835	16.155	0.298	0.235
-720.821	569.233	0.106	-0.257
-719.806	-25.310	0.216	0.128
-718.791	800.000	-0.135	-0.545
-717.777	-11.433	-0.337	0.222
-716.762	181.602	-0.194	0.285
-715.748	257.880	-0.050	-0.087
-714.733	-41.075	-0.072	-0.037
-713.718	-168.545	-0.198	-0.008
-712.704	-96.795	0.221	0.058
-711.689	-117.608	0.279	0.050
-710.675	23.785	0.179	-0.148
-709.660	128.530	0.077	0.098
-708.645	-86.117	-0.226	-0.070
-707.631	-38.207	-0.222	-0.118
-706.616	-200.000	0.018	0.083
-705.602	-138.689	-0.265	-0.029
-704.587	74.864	0.256	-0.270
-703.572	781.576	0.069	-0.188
-702.558	-46.986	-0.022	0.011
-701.543	174.664	0.143	-0.206
-700.529	-200.000	0.020	0.241
-699.514	77.893	-0.121	-0.129
-698.499	800.000	-0.014	-0.056
-697.485	444.186	0.097	-0.212
-696.470	-135.948	-0.235	-0.028
-695.456	596.221	0.026	-0.063
-694.441	-127.255	0.333	0.049
-693.426	-132.283	-0.371	0.048
-692.412	590.476	-0.139	-0.343
-691.397	-200.000	-0.008	-0.131
-690.383	737.719	0.046	-0.124
-689.368	34.216	0.187	-0.163
-688.354	132.325	-0.190	0.244
-687.339	13.971	-0.027	-0.021
-686.324	391.156	0.176	-0.366
-685.310	-117.344	-0.083	0.015
-684.295	18.946	-0.522	-0.418
-683.281	87.266	0.022	0.024
-682.266	-95.504	-0.007	0.002
-681.251	-42.523	-0.118	-0.060
-680.237	15.283	-0.149	-0.117
-679.222	-200.000	-0.008	-0.072
-678.208	12.142	-0.021	0.016
-677.193	383.268	-0.140	0.288
-676.178	-104.895	0.101	-0.023
-675.164	-200.000	-0.045	-0.199
-674.149	20.242	0.254	-0.205
-673.135	800.000	0.075	-0.257
-672.120	55.714	-0.262	0.253
-671.105	10.192	0.146	-0.111
-670.091	800.000	-0.052	-0.156
-669.076	487.433	0.161	-0.368
-668.062	130.450	0.222	0.284
-667.047	210.521	0.132	0.206
-666.032	-128.478	-0.197	0.028
-665.018	-109.787	0.137	-0.029
-664.003	652.981	0.198	-0.507
-662.989	138.008	-0.131	0.172
-661.974	102.275	0.183	-0.213
-660.959	-200.000	-0.031	0.370
-659.945	203.856	-0.196	0.303
-658.930	-18.532	0.173	-0.107
-657.916	208.202	0.062	-0.096
-656.901	-101.184	-0.150	-0.037
-655.886	15.448	0.161	0.126
-654.872	437.051	-0.090	0.195
-653.857	800.000	-0.070	-0.221
-652.843	69.986	-0.255	0.262
-651.828	144.112	0.265	0.352
-650.814	-71.883	-0.277	0.103
-649.799	40.434	0.251	0.226
-648.784	-74.064	0.359	0.130
-647.770	150.330	-0.273	-0.369
-646.755	-4.774	0.035	0.024
-645.741	138.590	0.267	-0.350
-644.726	238.150	0.072	0.119
-643.711	257.445	0.101	0.173
-642.697	-200.000	-0.049	-0.221
-641.682	-7.524	0.093	-0.063
-640.668	-173.158	-0.189	-0.006
-639.653	144.778	-0.191	-0.254
-638.638	78.737	-0.021	0.022
-637.624	29.668	-0.292	0.247
-636.609	-131.696	-0.098	0.013
-635.595	-200.000	-0.010	-0.315
-634.580	-39.919	-0.410	-0.213
-633.565	-23.964	-0.289	-0.172
-632.551	-53.514	0.095	0.043
-631.536	443.593	-0.089	-0.194
-630.522	222.137	-0.091	0.147
-629.507	-138.928	-0.133	0.014
-628.492	-200.000	0.054	-0.297
-627.478	-150.181	-0.514	-0.040
-626.463	-200.000	-0.003	-0.369
-625.449	25.052	0.174	-0.144
-624.434	107.225	-0.097	0.115
-623.419	-173.402	-0.305	0.009
-622.405	136.828	0.201	0.261
-621.390	-59.791	-0.188	-0.080
-620.376	-153.821	0.156	-0.011
-619.361	734.465	0.010	0.027
-618.346	-118.159	-0.287	0.051
-617.332	51.887	-0.238	0.225
-616.317	-120.256	-0.175	-0.030
-615.303	65.554	0.124	-0.125
-614.288	-63.380	-0.186	0.076
-613.273	-16.866	0.302	0.190
-612.259	-156.959	-0.136	-0.008
-611.244	343.575	0.054	-0.105
-610.230	-83.768	-0.226	-0.072
-609.215	800.000	0.055	-0.170
-608.201	800.000	-0.082	-0.253
-607.186	337.609	-0.112	0.217
-606.171	800.000	0.111	0.364
-605.157	-200.000	-0.025	-0.138
-604.142	277.668	0.037	-0.066
-603.128	35.171	-0.236	0.206
-602.113	34.294	0.221	-0.191
-601.098	179.814	-0.185	-0.270
-600.084	-116.339	-0.140	0.026
-599.069	83.348	0.200	-0.216
-598.055	-200.000	-0.042	0.307
-597.040	54.392	0.318	0.304
-596.025	-33.360	-0.100	-0.055
-595.011	218.641	0.049	0.079
-593.996	46.342	-0.139	0.128
-592.982	415.864	-0.079	-0.167
-591.967	-21.309	-0.044	-0.027
-590.952	-31.537	-0.231	0.129
-589.938	-78.794	0.257	-0.087
-588.923	-150.377	-0.378	-0.029
-587.909	12.381	0.039	-0.030
-586.894	-200.000	0.016	-0.179
-585.879	-200.000	-0.001	0.018
-584.865	144.547	-0.097	0.129
-583.850	800.000	0.076	0.220
-582.836	-200.000	-0.044	-0.220
-581.821	-30.736	0.236	-0.133
-580.806	-110.400	-0.250	-0.052
-579.792	19.358	0.106	-0.085
-578.777	-81.584	-0.273	0.089
-577.763	363.951	0.030	-0.059
-576.748	694.407	0.102	0.266
-575.733	487.824	-0.235	-0.532
-574.719	522.303	-0.060	-0.140
-573.704	-200.000	-0.012	-0.076
-572.690	-38.135	-0.092	-0.048
-571.675	-74.618	-0.142	0.051
-570.661	800.000	-0.110	0.408
-569.646	-147.087	0.276	0.023
-568.631	89.172	-0.253	0.280
-567.617	87.776	-0.061	0.067
-566.602	-48.936	-0.271	-0.129
-565.588	89.195	-0.261	-0.289
-564.573	-109.056	0.084	-0.018
-563.558	-114.070	0.078	0.015
-562.544	429.367	0.201	-0.431
-561.529	-21.374	0.232	0.141
-560.515	25.523	-0.112	-0.092
-559.500	186.071	-0.079	-0.117
-558.485	-200.000	0.009	-0.072
-557.471	110.541	-0.150	-0.179
-556.456	96.185	0.062	0.070
-555.442	-200.000	0.005	0.052
-554.427	-83.922	-0.178	-0.056
-553.412	-200.000	0.001	0.131
-552.398	-59.129	-0.070	0.030
-551.383	-76.427	0.462	0.161
-550.369	-200.000	-0.031	-0.141
-549.354	-131.357	0.108	-0.014
-548.339	-176.862	0.059	0.001
-547.325	-135.857	0.134	-0.016
-546.310	-27.865	0.090	-0.052
-545.296	494.645	-0.107	-0.243
-544.281	231.598	0.114	-0.185
-543.266	187.796	-0.211	-0.312
-542.252	-200.000	0.029	-0.212
-541.237	-53.439	0.164	-0.074
-540.223	46.295	0.106	-0.098
-539.208	-4.496	-0.296	0.203
-538.193	344.779	-0.106	-0.206
-537.179	229.395	0.123	-0.199
-536.164	800.000	-0.029	-0.113
-535.150	559.492	-0.052	0.124
-534.135	261.779	-0.069	-0.118
-533.121	-153.931	-0.249	-0.017
-532.106	293.403	0.033	-0.060
-531.091	-200.000	0.055	0.288
-530.077	-89.372	0.229	0.067
-529.062	-47.540	-0.096	-0.046
-528.048	122.731	-0.031	-0.038
-527.033	800.000	-0.071	-0.258
-526.018	-10.518	-0.107	-0.070
-525.004	135.366	-0.198	-0.256
-523.989	-200.000	0.009	0.107
-522.975	-200.000	0.033	-0.308
-521.960	217.511	-0.058	0.092
-520.945	24.010	-0.095	0.077
-519.931	76.249	0.229	-0.241
-518.916	-120.444	0.247	0.042
-517.902	60.495	-0.078	-0.076
-516.887	368.487	-0.140	-0.282
-515.872	15.578	0.270	0.211
-514.858	26.191	0.322	0.266
-513.843	-26.914	0.247	-0.143
-512.829	308.975	0.117	0.216
-511.814	-11.784	0.315	-0.205
-510.799	405.579	-0.069	0.144
-509.785	-3.317	0.070	0.048
-508.770	-100.805	0.176	0.043
-507.756	800.000	-0.046	-0.142
-506.741	401.260	0.046	0.096
-505.726	-10.228	0.193	0.127
-504.712	-40.984	-0.321	0.164
-503.697	-45.902	0.196	0.096
-502.683	-189.433	0.190	-0.002
-501.668	-84.693	-0.296	-0.092
-500.653	443.887	-0.050	-0.109
-499.639	-48.448	0.296	-0.141
-498.624	-200.000	-0.062	-0.286
-497.610	-200.000	0.027	-0.142
-496.595	800.000	0.094	0.293
-495.581	105.935	-0.306	0.359
-494.566	-200.000	-0.024	0.370
-493.551	-148.413	-0.303	0.025
-492.537	17.668	-0.363	-0.286
-491.522	254.212	-0.140	-0.237
-490.508	-144.306	-0.222	-0.020
-489.493	-7.434	0.349	-0.234
-488.478	-200.000	0.013	0.158
-487.464	-113.030	-0.380	0.074
-486.449	74.650	0.130	-0.135
-485.435	96.379	0.274	-0.310
-484.420	-159.667	0.542	-0.030
-483.405	-136.196	-0.152	0.018
-482.391	-200.000	0.019	0.213
-481.376	387.602	-0.100	-0.204
-480.362	-27.298	-0.095	-0.055
-479.347	-200.000	-0.020	0.385
-478.332	800.000	-0.024	-0.084
-477.318	-90.820	0.261	-0.075
-476.303	-200.000	-0.011	-0.107
-475.289	-132.516	-0.288	-0.037
-474.274	613.073	0.083	-0.205
-473.259	-63.228	0.154	-0.063
-472.245	21.729	0.201	0.162
-471.230	-54.593	0.085	-0.038
-470.216	-46.633	0.282	0.137
-469.201	-200.000	-0.016	-0.340
-468.186	800.000	-0.056	0.215
-467.172	54.428	0.087	-0.083
-466.157	-138.489	0.077	-0.008
-465.143	-103.095	-0.170	0.040
-464.128	-145.045	0.087	-0.008
-463.113	17.263	0.207	-0.163
-462.099	-200.000	0.063	0.377
-461.084	272.482	-0.039	0.068
-460.070	-94.056	0.292	-0.079
-459.055	-200.000	0.007	-0.320
-458.040	8.657	-0.196	0.146
-457.026	221.009	-0.121	0.193
-456.011	90.724	0.093	-0.103
-454.997	62.607	0.127	0.125
-453.982	-70.686	-0.106	-0.040
-452.968	415.113	0.208	0.438
-451.953	92.221	-0.144	-0.160
-450.938	-91.334	0.131	0.037
-449.924	-185.769	0.132	0.002
-448.909	-71.661	0.147	-0.054
-447.895	78.706	0.271	0.286
-446.880	266.971	-0.060	0.104
-445.865	-112.490	-0.242	-0.048
-444.851	800.000	-0.061	0.240
-443.836	-112.164	0.087	-0.017
-442.822	-200.000	0.044	-0.205
-441.807	28.936	-0.234	-0.196
-440.792	-173.551	0.190	-0.006
-439.778	187.567	0.159	-0.234
-438.763	-22.705	-0.176	0.105
-437.749	-8.710	0.259	-0.172
-436.734	-53.303	-0.378	0.171
-435.719	800.000	0.131	0.363
-434.705	-200.000	-0.025	-0.207
-433.690	517.630	-0.081	0.188
-432.676	-128.023	0.021	0.003
-431.661	-200.000	-0.040	-0.319
-430.646	492.361	-0.054	-0.123
-429.632	217.503	0.197	0.310
-428.617	355.558	-0.214	0.422
-427.603	-94.446	0.372	0.100
-426.588	-63.918	0.155	-0.063
-425.573	-200.000	0.005	-0.171
-424.559	-200.000	-0.002	0.158
-423.544	792.996	-0.041	0.111
-422.530	23.067	0.211	-0.171
-421.515	800.000	-0.119	-0.347
-420.500	354.686	-0.066	0.130
-419.486	-200.000	0.000	-0.055
-418.471	214.457	-0.211	-0.331
-417.457	-15.168	-0.195	-0.124
-416.442	800.000	0.025	0.094
-415.428	-45.682	0.209	-0.102
-414.413	800.000	0.056	0.204
-413.398	800.000	-0.093	0.298
-412.384	-149.287	0.096	-0.008
-411.369	595.712	0.095	0.231
-410.355	101.300	0.197	-0.226
-409.340	279.307	0.246	-0.434
-408.325	460.524	0.054	-0.119
-407.311	80.865	-0.167	0.178
-406.296	800.000	0.039	-0.151
-405.282	800.000	-0.055	-0.178
-404.267	17.864	0.094	-0.074
-403.252	20.748	0.175	-0.140
-402.238	-13.270	0.262	0.168
-401.223	-153.250	-0.300	0.021
-400.209	-114.008	0.281	0.054
-399.194	-200.000	-0.003	0.196
-398.179	88.096	0.177	0.194
-397.165	-86.628	0.245	0.074
-396.150	-200.000	-0.013	-0.187
-395.136	13.887	0.253	-0.194
-394.121	-83.364	0.208	0.066
-393.106	21.148	0.088	-0.071
-392.092	800.000	0.014	0.041
-391.077	-114.096	-0.345	0.066
-390.063	443.323	-0.132	-0.286
-389.048	-200.000	-0.015	0.095
-388.033	257.651	0.182	0.308
-387.019	-179.483	-0.129	-0.003
-386.004	-168.745	-0.291	-0.011
-384.990	57.975	-0.404	0.390
-383.975	800.000	0.085	-0.239
-382.960	-171.456	0.078	0.003
-381.946	-87.099	0.513	0.154
-380.931	-1.967	-0.265	0.184
-379.917	-200.000	0.027	-0.306
-378.902	800.000	-0.062	-0.218
-377.888	-78.931	0.066	0.022
-376.873	-112.999	0.249	0.049
-375.858	24.982	-0.307	-0.251
-374.844	-36.531	0.074	-0.039
-373.829	530.353	0.086	0.200
-372.815	-149.564	-0.320	-0.025
-371.800	-200.000	0.003	-0.090
-370.785	-108.128	-0.210	-0.045
-369.771	245.874	-0.128	-0.212
-368.756	-82.611	-0.288	-0.092
-367.742	-89.099	-0.164	0.048
-366.727	-200.000	0.014	0.355
-365.712	331.907	0.119	0.225
-364.698	800.000	-0.107	-0.297
-363.683	-200.000	-0.019	-0.220
-362.669	132.808	-0.062	0.079
-361.654	-69.566	0.207	0.078
-360.639	-26.423	0.156	0.090
-359.625	116.789	0.136	-0.165
-358.610	-184.001	-0.217	0.004
-357.596	-5.132	0.182	0.124
-356.581	-76.925	0.123	0.042
-355.566	-200.000	-0.012	-0.108
-354.552	-35.318	0.257	-0.138
-353.537	-71.725	-0.320	0.118
-352.523	-200.000	-0.019	-0.332
-351.508	-16.823	0.355	0.221
-350.493	314.488	0.032	-0.059
-349.479	223.102	0.107	-0.169
-348.464	-200.000	0.002	0.177
-347.450	800.000	0.027	-0.105
-346.435	25.506	-0.096	-0.079
-345.420	800.000	0.050	-0.161
-344.406	-30.618	0.242	0.135
-343.391	-139.550	0.179	0.019
-342.377	-22.635	0.104	0.062
-341.362	-200.000	-0.006	0.063
-340.348	459.664	-0.129	-0.282
-339.333	25.830	0.051	-0.042
-338.318	800.000	0.020	0.077
-337.304	-74.032	-0.329	0.117
-336.289	-92.571	0.324	-0.089
-335.275	-125.945	0.213	-0.032
-334.260	-3.627	0.118	-0.081
-333.245	800.000	0.037	-0.137
-332.231	-83.291	-0.099	0.031
-331.216	-200.000	0.015	0.130
-330.202	-200.000	-0.006	-0.233
-329.187	-74.942	-0.105	0.037
-328.172	-167.828	-0.085	0.003
-327.158	-182.175	-0.121	-0.002
-326.143	176.044	0.186	0.265
-325.129	172.739	-0.072	-0.102
-324.114	11.202	0.068	0.051
-323.099	800.000	0.032	0.099
-322.085	-200.000	-0.010	0.281
-321.070	32.690	0.199	0.169
-320.056	-112.924	0.367	-0.072
-319.041	480.115	-0.024	-0.054
-318.026	-200.000	0.066	-0.374
-317.012	6.250	-0.260	-0.190
-315.997	-7.968	-0.235	0.156
-314.983	48.309	-0.108	-0.099
-313.968	800.000	-0.062	-0.186
-312.953	-96.317	-0.075	0.019
-311.939	800.000	0.059	0.186
-310.924	-173.301	0.452	-0.014
-309.910	44.539	0.255	0.230
-308.895	247.680	0.148	-0.247
-307.880	161.920	0.066	-0.091
-306.866	142.008	0.116	0.151
-305.851	130.941	0.086	-0.108
-304.837	297.337	0.063	-0.113
-303.822	-74.490	0.170	0.060
-302.807	215.677	0.065	-0.101
-301.793	-200.000	-0.009	-0.219
-300.778	-26.058	-0.152	-0.088
-299.764	-44.805	0.274	-0.134
-298.749	-200.000	-0.003	0.262
-297.735	-51.817	-0.212	0.097
-296.720	386.310	0.055	-0.112
-295.705	266.346	-0.196	-0.336
-294.691	233.721	-0.159	0.258
-293.676	632.071	-0.119	0.297
-292.662	-131.513	0.200	0.026
-291.647	86.231	0.190	0.206
-290.632	46.688	0.253	0.231
-289.618	800.000	0.069	0.195
-288.603	157.469	0.076	0.104
-287.589	-32.837	0.089	-0.049
-286.574	-70.912	0.047	0.018
-285.559	16.221	0.235	0.182
-284.545	107.530	-0.300	0.351
-283.530	329.725	0.064	0.120
-282.516	529.206	0.066	-0.153
-281.501	-144.828	-0.242	-0.022
-280.486	-137.128	-0.053	-0.006
-279.472	-114.480	0.247	-0.047
-278.457	124.573	-0.097	0.120
-277.443	-200.000	-0.023	0.418
-276.428	181.081	0.092	0.133
-275.413	-25.411	-0.292	-0.169
-274.399	-200.000	0.005	0.286
-273.384	-59.938	-0.102	0.043
-272.370	144.767	-0.131	0.172
-271.355	-200.000	0.028	-0.165
-270.340	-200.000	-0.025	-0.112
-269.326	-200.000	0.024	-0.141
-268.311	407.961	0.008	0.016
-267.297	-164.342	-0.191	-0.009
-266.282	-56.197	-0.430	0.188
-265.267	-107.562	-0.175	-0.038
-264.253	8.998	-0.207	-0.153
-263.238	-200.000	-0.009	-0.175
-262.224	136.980	-0.110	-0.141
-261.209	-68.642	0.118	0.045
-260.195	-185.077	-0.154	0.002
-259.180	-200.000	0.008	0.358
-258.165	-29.635	0.198	-0.111
-257.151	-34.038	0.246	0.133
-256.136	140.480	0.206	0.267
-255.122	240.812	0.044	0.072
-254.107	15.929	0.071	-0.055
-253.092	-62.969	-0.121	-0.049
-252.078	418.926	0.061	0.128
-251.063	-200.000	-0.022	0.122
-250.049	-138.772	-0.430	-0.046
-249.034	-134.939	0.246	-0.029
-248.019	31.686	0.197	-0.166
-247.005	61.010	-0.035	-0.034
-245.990	-120.303	0.081	0.013
-244.976	-143.842	-0.258	-0.024
-243.961	51.182	-0.244	0.227
-242.946	-56.320	0.073	-0.032
-241.932	288.532	0.092	-0.164
-240.917	32.447	0.114	0.096
-239.903	-28.363	-0.050	-0.028
-238.888	-200.000	0.026	0.463
-237.873	-59.192	0.145	0.061
-236.859	800.000	-0.051	-0.150
-235.844	-20.265	0.162	-0.098
-234.830	-163.609	-0.154	0.007
-233.815	-99.994	0.118	0.029
-232.800	34.676	-0.222	-0.190
-231.786	-148.187	-0.244	-0.020
-230.771	1.817	0.021	-0.015
-229.757	-200.000	-0.015	0.214
-228.742	258.122	0.108	0.182
-227.727	800.000	-0.073	-0.217
-226.713	-200.000	0.018	0.136
-225.698	-200.000	0.021	0.371
-224.684	-161.241	0.158	0.008
-223.669	800.000	0.039	-0.119
-222.655	136.018	0.179	-0.229
-221.640	-200.000	0.006	-0.368
-220.625	235.432	0.134	-0.218
-219.611	230.207	-0.086	0.137
-218.596	-200.000	-0.033	-0.438
-217.582	114.408	0.183	0.218
-216.567	-118.394	-0.161	0.028
-215.552	-72.463	0.168	0.061
-214.538	-133.301	0.098	0.012
-213.523	-133.965	-0.326	-0.040
-212.509	385.744	-0.089	0.181
-211.494	56.005	0.131	-0.125
-210.479	-33.492	-0.037	-0.020
-209.465	227.711	-0.159	0.253
-208.450	25.235	0.152	0.124
-207.436	56.252	0.402	0.382
-206.421	-82.152	-0.227	-0.072
-205.406	629.912	0.044	-0.110
-204.392	-140.727	-0.111	-0.011
-203.377	26.977	-0.210	0.173
-202.363	151.228	0.115	-0.154
-201.348	310.969	0.178	0.328
-200.333	132.827	-0.110	0.139
-199.319	-127.433	0.260	-0.037
-198.304	-146.669	-0.203	0.017
-197.290	214.557	-0.086	0.133
-196.275	144.107	-0.161	-0.210
-195.260	-65.514	0.099	-0.039
-194.246	186.629	0.095	0.139
-193.231	85.813	0.111	-0.120
-192.217	-200.000	-0.019	0.305
-191.202	-34.864	-0.191	0.102
-190.187	-87.839	-0.106	0.031
-189.173	800.000	-0.132	0.384
-188.158	434.802	0.041	-0.088
-187.144	-5.827	-0.216	0.145
-186.129	800.000	-0.062	-0.188
-185.114	767.733	-0.144	0.383
-184.100	84.875	0.057	-0.061
-183.085	-140.630	0.227	0.023
-182.071	-200.000	-0.002	-0.158
-181.056	34.310	0.195	-0.167
-180.042	46.140	0.214	0.194
-179.027	-66.650	-0.104	-0.040
-178.012	-200.000	0.006	-0.121
-176.998	800.000	-0.030	0.088
-175.983	-200.000	0.050	0.242
-174.969	800.000	0.099	0.297
-173.954	800.000	-0.026	0.082
-172.939	-200.000	-0.002	-0.162
-171.925	-105.254	-0.191	0.043
-170.910	269.642	-0.154	0.265
-169.896	343.025	0.129	0.246
-168.881	-131.893	0.128	-0.016
-167.866	68.912	-0.194	0.194
-166.852	800.000	-0.054	0.227
-165.837	800.000	0.045	-0.178
-164.823	54.527	0.224	0.211
-163.808	63.283	-0.364	0.357
-162.793	-131.151	-0.293	0.038
-161.779	414.307	0.042	0.087
-160.764	-126.606	-0.218	-0.032
-159.750	376.184	0.028	0.057
-158.735	316.123	0.071	-0.131
-157.720	800.000	-0.061	-0.208
-156.706	800.000	0.036	0.132
-155.691	800.000	-0.049	-0.172
-154.677	-115.417	-0.150	-0.028
-153.662	-83.017	-0.239	0.075
-152.647	-200.000	0.010	0.059
-151.633	15.934	-0.330	-0.254
-150.618	-120.208	0.076	0.013
-149.604	-33.390	0.122	-0.066
-148.589	168.135	-0.162	0.226
-147.574	800.000	0.053	-0.165
-146.560	-165.744	0.239	-0.010
-145.545	-135.334	0.123	0.014
-144.531	-80.458	0.341	-0.111
-143.516	-200.000	0.048	0.208
-142.502	800.000	0.052	0.160
-141.487	9.584	-0.173	0.128
-140.472	800.000	-0.052	-0.198
-139.458	217.357	0.168	-0.261
-138.443	-96.041	0.222	0.058
-137.429	30.432	0.131	-0.109
-136.414	217.691	-0.084	0.131
-135.399	11.470	0.269	-0.201
-134.385	-200.000	0.023	-0.366
-133.370	13.887	0.175	-0.133
-132.356	-200.000	-0.064	0.295
-131.341	47.803	0.114	0.104
-130.326	-115.788	0.207	-0.038
-129.312	-126.196	0.192	0.028
-128.297	-118.126	-0.416	0.072
-127.283	136.880	-0.208	0.265
-126.268	375.471	0.018	0.035
-125.253	49.466	-0.262	0.241
-124.239	-200.000	0.042	0.209
-123.224	100.590	0.087	-0.099
-122.210	-40.580	0.378	-0.191
-121.195	36.511	-0.326	-0.281
-120.180	36.653	-0.067	0.058
-119.166	134.406	-0.216	0.273
-118.151	-49.174	0.280	0.131
-117.137	-200.000	0.024	0.174
-116.122	142.505	-0.167	-0.217
-115.107	-173.913	-0.078	0.002
-114.093	800.000	-0.043	-0.170
-113.078	46.196	-0.242	0.219
-112.064	10.349	-0.068	0.050
-111.049	-53.680	-0.234	0.104
-110.034	-12.245	0.097	0.062
-109.020	211.355	-0.124	-0.191
-108.005	-135.829	0.263	-0.030
-106.991	50.539	0.078	-0.072
-105.976	-200.000	0.008	-0.219
-104.962	-95.964	0.262	0.068
-103.947	-76.226	-0.176	0.061
-102.932	800.000	-0.095	0.296
-101.918	109.763	0.123	-0.144
-100.903	-200.000	-0.030	0.328
-99.889	-98.962	0.325	-0.080
-98.874	5.054	-0.069	-0.049
-97.859	137.334	-0.075	0.096
-96.845	-91.226	0.259	0.072
-95.830	-113.220	0.026	-0.005
-94.816	55.716	-0.147	-0.139
-93.801	-97.306	-0.138	-0.035
-92.786	-114.999	-0.240	0.045
-91.772	-157.685	0.176	-0.010
-90.757	76.434	0.123	-0.127
-89.743	15.972	-0.218	-0.167
-88.728	-102.330	-0.306	0.072
-87.713	254.653	-0.188	0.313
-86.699	48.835	-0.148	0.135
-85.684	-121.054	0.056	0.009
-84.670	800.000	-0.018	-0.058
-83.655	167.735	-0.193	-0.267
-82.640	562.668	0.153	-0.360
-81.626	-108.510	0.161	-0.034
-80.611	-3.022	0.131	0.089
-79.597	241.970	-0.051	-0.082
-78.582	289.239	0.113	-0.199
-77.567	-40.025	0.093	0.047
-76.553	93.131	-0.144	0.159
-75.538	382.181	-0.054	-0.107
-74.524	-8.086	-0.183	0.120
-73.509	-22.546	-0.100	-0.059
-72.494	-151.980	0.085	-0.006
-71.480	771.227	-0.088	0.233
-70.465	203.256	-0.070	0.105
-69.451	27.439	-0.050	-0.041
-68.436	-200.000	-0.013	0.197
-67.422	-1.582	0.166	-0.114
-66.407	42.800	0.136	-0.121
-65.392	38.154	0.044	-0.038
-64.378	-200.000	-0.071	0.325
-63.363	95.952	-0.133	0.148
-62.349	-200.000	0.001	0.430
-61.334	125.076	-0.990	-1.216
-60.319	229.431	0.322	0.512
-59.305	524.637	-0.555	-1.272
-58.290	411.737	0.696	1.440
-57.276	800.000	0.504	1.482
-56.261	-200.000	119.486	630.196
-55.246	416.820	1537.328	3195.880
-54.232	148.700	2686.117	3535.197
-53.217	98.312	2150.506	2412.772
-52.203	35.748	1675.923	1434.526
-51.188	28.871	1492.545	1231.622
-50.173	26.793	1468.116	1197.708
-49.159	48.209	1535.304	1398.460
-48.144	46.451	1549.324	1399.232
-47.130	28.916	1500.378	1238.197
-46.115	25.968	1484.849	1205.652
-45.100	25.802	1481.375	1201.676
-44.086	25.739	1479.459	1199.653
-43.071	25.709	1477.093	1197.489
-42.057	25.693	1476.154	1196.572
-41.042	25.760	1474.551	1195.672
-40.027	25.723	1473.028	1194.146
-39.013	25.689	1471.563	1192.680
-37.998	25.717	1470.639	1192.072
-36.984	25.681	1469.275	1190.678
-35.969	25.718	1467.987	1189.837
-34.954	25.757	1467.003	1189.246
-33.940	25.750	1465.408	1187.864
-32.925	25.876	1463.822	1187.356
-31.911	25.825	1463.018	1186.326
-30.896	25.760	1461.632	1184.727
-29.881	25.857	1460.130	1184.095
-28.867	25.812	1459.016	1182.854
-27.852	25.845	1457.434	1181.736
-26.838	25.889	1455.961	1180.785
-25.823	25.731	1454.901	1178.845
-24.809	25.821	1453.114	1177.941
-23.794	25.754	1451.681	1176.292
-22.779	25.792	1450.659	1175.666
-21.765	25.827	1449.534	1174.938
-20.750	25.898	1448.575	1174.573
-19.736	25.789	1447.292	1172.780
-18.721	25.841	1446.043	1172.057
-17.706	25.733	1445.567	1170.926
-16.692	25.814	1444.302	1170.380
-15.677	25.866	1443.079	1169.676
-14.663	25.715	1443.052	1168.627
-13.648	25.798	1441.458	1167.830
-12.633	25.693	1441.083	1166.801
-11.619	25.779	1439.877	1166.333
-10.604	25.893	1439.237	1166.508
-9.590	25.715	1438.195	1164.466
-8.575	25.679	1437.958	1163.995
-7.560	25.777	1437.061	1163.856
-6.546	25.898	1435.390	1163.234
-5.531	25.804	1434.622	1161.964
-4.517	25.759	1433.591	1160.788
-3.502	25.749	1432.898	1160.119
-2.487	25.679	1432.176	1159.040
-1.473	25.746	1431.225	1158.655
-0.458	25.782	1429.566	1157.498
0.556	24.632	1419.522	1144.265
1.571	20.744	1394.471	1099.466
2.586	16.689	1332.638	1026.093
3.600	14.771	1250.447	951.809
4.615	13.709	1206.623	912.526
5.629	11.986	1152.069	862.136
6.644	6.318	1073.175	775.173
7.659	1.624	1037.500	726.952
8.673	0.940	1031.960	719.754
9.688	0.837	1028.613	716.870
10.702	0.730	1027.345	715.418
11.717	0.833	1025.247	714.377
12.731	2.717	1026.355	723.985
13.746	8.866	1034.816	759.085
14.761	15.070	1042.179	793.926
15.775	17.292	1044.664	806.299
16.790	17.072	1043.470	804.265
17.804	16.155	1041.191	798.101
18.819	15.288	1039.068	792.306
19.834	14.743	1038.230	789.022
20.848	14.474	1037.409	787.060
21.863	14.381	1036.283	785.699
22.877	14.087	1035.457	783.614
23.892	13.812	1034.596	781.598
24.907	13.730	1034.107	780.775
25.921	13.642	1033.479	779.818
26.936	13.860	1032.232	779.830
27.950	13.839	1031.834	779.362
28.965	13.871	1031.228	778.987
29.980	13.959	1030.042	778.434
30.994	13.969	1029.124	777.719
32.009	13.981	1028.231	777.031
33.023	14.001	1027.881	776.792
34.038	14.077	1027.241	776.595
35.053	14.131	1026.056	775.883
36.067	13.972	1025.030	774.295
37.082	13.968	1024.589	773.876
38.096	14.018	1023.487	773.207
39.111	14.050	1023.097	772.993
40.126	14.051	1022.264	772.298
41.140	13.940	1021.096	770.835
42.155	13.917	1019.932	769.780
43.169	13.821	1019.589	769.009
44.184	13.864	1018.150	768.056
45.199	13.719	1017.285	766.665
46.213	13.823	1016.188	766.249
47.228	13.820	1015.227	765.446
48.242	13.826	1013.975	764.458
49.257	13.993	1012.841	764.304
50.271	13.894	1012.361	763.422
51.286	13.888	1011.607	762.755
52.301	13.984	1010.740	762.478
53.315	14.019	1009.553	761.675
54.330	13.911	1008.591	760.384
55.344	13.967	1007.683	759.892
56.359	13.940	1006.790	759.026
57.374	13.932	1006.030	758.351
58.388	13.898	1005.425	757.672
59.403	13.948	1004.456	757.102
60.417	13.782	1004.025	755.955
61.432	13.789	1003.441	755.481
62.447	13.811	1002.661	754.926
63.461	13.836	1001.527	754.116
64.476	13.800	1000.685	753.254
65.490	13.841	999.362	752.377
66.505	13.798	998.684	751.606
67.520	13.799	998.233	751.206
68.534	13.800	997.189	750.357
69.549	13.904	996.562	750.289
70.563	13.823	996.193	749.581
71.578	13.842	995.509	749.084
72.593	13.754	994.733	748.035
73.607	13.937	993.410	747.797
74.622	13.636	993.039	746.097
75.636	13.818	992.079	746.130
76.651	13.690	991.385	744.965
77.666	13.801	990.549	744.770
78.680	13.679	990.180	743.882
79.695	13.747	989.494	743.602
80.709	13.668	989.265	743.010
81.724	13.848	987.810	742.660
82.739	13.724	987.600	741.882
83.753	13.851	986.509	741.561
84.768	13.834	985.884	740.952
85.782	13.924	985.004	740.627
86.797	14.002	984.096	740.227
87.812	14.061	983.298	739.823
88.826	13.870	982.476	738.288
89.841	13.869	981.905	737.790
90.855	13.878	981.171	737.212
91.870	13.975	980.266	736.898
92.884	13.960	979.750	736.380
93.899	13.921	979.323	735.820
94.914	14.121	977.966	735.618
95.928	14.047	977.223	734.670
96.943	14.097	976.771	734.485
97.957	14.142	975.561	733.709
98.972	14.162	974.720	733.099
99.987	13.996	974.230	731.936
101.001	14.030	973.683	731.608
102.016	14.062	972.695	730.942
103.030	14.091	971.712	730.264
104.045	14.007	971.073	729.355
105.060	14.025	969.829	728.432
106.074	14.043	969.462	728.173
107.089	14.004	968.018	726.854
108.103	14.010	967.337	726.300
109.118	13.809	966.888	725.022
110.133	13.949	965.681	724.666
111.147	13.961	965.128	724.239
112.162	13.925	964.145	723.280
113.176	13.892	963.532	722.611
114.191	13.969	962.586	722.174
115.206	14.062	961.540	721.730
116.220	14.086	960.419	720.928
117.235	13.981	959.829	719.965
118.249	14.087	959.254	719.930
119.264	13.922	958.578	718.646
120.279	14.159	957.248	718.606
121.293	14.051	956.602	717.593
122.308	13.909	956.304	716.695
123.322	13.934	955.619	716.222
124.337	13.915	954.816	715.480
125.352	13.934	953.406	714.438
126.366	13.859	952.468	713.351
127.381	13.910	951.023	712.425
128.395	13.859	950.412	711.685
129.410	13.866	949.595	711.041
130.424	13.955	948.372	710.440
131.439	14.035	947.475	710.050
132.454	14.005	946.820	709.366
133.468	13.918	946.302	708.544
134.483	14.035	945.419	708.319
135.497	13.960	944.854	707.514
136.512	14.019	943.782	706.898
137.527	13.941	943.270	706.122
138.541	13.989	942.448	705.648
139.556	13.951	941.744	704.899
140.570	13.928	941.166	704.304
141.585	14.061	940.060	703.978
142.600	14.115	939.755	703.919
143.614	14.145	938.623	703.133
144.629	14.093	938.466	702.733
145.643	14.145	937.481	702.153
146.658	14.142	936.619	701.435
147.673	14.157	935.382	700.507
148.687	13.950	934.836	699.165
149.702	13.995	934.376	698.948
150.716	14.003	933.221	698.055
151.731	14.188	932.448	698.194
152.746	14.125	931.625	697.253
153.760	14.015	931.257	696.453
154.775	14.120	930.054	695.933
155.789	14.257	929.178	695.788
156.804	14.265	928.343	695.135
157.819	14.293	927.695	694.705
158.833	14.219	927.148	693.925
159.848	14.362	926.810	694.205
160.862	14.192	926.510	693.212
161.877	14.271	925.679	692.859
162.892	14.304	924.336	691.926
163.906	14.226	923.752	691.104
164.921	14.294	922.815	690.624
165.935	14.313	921.435	689.611
166.950	14.319	920.995	689.246
167.964	14.237	920.295	688.322
168.979	14.320	919.078	687.693
169.994	14.205	918.389	686.642
171.008	14.247	917.212	685.874
172.023	14.350	916.406	685.634
173.037	14.371	915.664	685.106
174.052	14.411	915.413	685.022
175.067	14.370	914.508	684.117
176.081	14.324	913.570	683.163
177.096	14.393	912.576	682.642
178.110	14.328	911.863	681.783
179.125	14.340	911.695	681.647
180.140	14.215	910.795	680.404
181.154	14.307	910.167	680.247
182.169	14.475	909.500	680.376
183.183	14.471	908.864	679.823
184.198	14.504	907.864	679.148
185.213	14.584	907.208	678.925
186.227	14.581	906.736	678.499
187.242	14.563	906.406	678.119
188.256	14.630	905.529	677.673
189.271	14.590	905.054	677.096
190.286	14.621	904.092	676.443
191.300	14.503	903.421	675.405
192.315	14.479	902.777	674.767
193.329	14.400	902.594	674.247
194.344	14.475	901.353	673.563
195.359	14.529	900.486	673.075
196.373	14.520	900.302	672.843
197.388	14.504	900.099	672.568
198.402	14.656	899.005	672.302
199.417	14.581	899.095	672.008
200.432	14.702	898.597	672.061
201.446	14.748	898.156	671.859
202.461	14.725	897.920	671.532
203.475	14.767	897.064	670.997
204.490	14.843	896.547	670.858
205.504	14.884	895.311	670.037
206.519	14.861	894.699	669.429
207.534	14.826	893.595	668.402
208.548	14.741	893.457	667.900
209.563	14.781	892.776	667.495
210.577	14.801	892.042	666.963
211.592	14.788	891.661	666.567
212.607	14.923	891.006	666.560
213.621	14.976	890.081	666.018
214.636	14.990	889.490	665.573
215.650	14.874	888.900	664.612
216.665	14.944	888.017	664.170
217.680	14.919	887.826	663.870
218.694	15.069	887.288	664.004
219.709	15.071	886.714	663.525
220.723	15.025	885.759	662.567
221.738	15.021	885.126	662.019
222.753	15.030	884.657	661.647
223.767	15.006	883.939	660.957
224.782	14.906	883.182	659.938
225.796	14.937	882.588	659.557
226.811	15.239	881.550	659.911
227.826	15.098	881.108	658.967
228.840	15.147	880.316	658.508
229.855	15.104	879.955	658.012
230.869	15.052	879.211	657.192
231.884	15.131	878.660	657.035
232.899	15.143	877.839	656.410
233.913	15.171	877.028	655.853
234.928	15.199	876.083	655.197
235.942	15.035	876.039	654.467
236.957	15.084	875.200	653.973
237.972	15.093	874.356	653.318
238.986	15.165	873.819	653.143
240.001	15.027	873.415	652.245
241.015	15.138	872.722	652.102
242.030	15.257	871.822	651.833
243.045	15.185	871.317	651.119
244.059	15.260	870.979	651.100
245.074	15.367	870.017	650.739
246.088	15.347	869.703	650.369
247.103	15.383	868.783	649.764
248.117	15.248	868.567	649.020
249.132	15.421	868.016	649.219
250.147	15.477	867.360	648.887
251.161	15.534	866.642	648.512
252.176	15.506	866.088	647.933
253.190	15.631	865.392	647.837
254.205	15.564	864.690	646.996
255.220	15.590	864.476	646.878
256.234	15.691	863.436	646.434
257.249	15.762	862.788	646.162
258.263	15.633	862.580	645.457
259.278	15.607	862.232	645.037
260.293	15.664	861.530	644.673
261.307	15.778	860.703	644.434
262.322	15.713	860.122	643.693
263.336	15.895	859.397	643.790
264.351	15.692	858.972	642.639
265.366	15.703	858.881	642.558
266.380	15.655	858.323	641.900
267.395	15.906	856.970	641.786
268.409	15.897	856.297	641.190
269.424	15.784	855.751	640.296
270.439	15.845	854.814	639.770
271.453	15.877	854.149	639.338
272.468	15.951	853.761	639.270
273.482	15.865	852.997	638.317
274.497	15.922	852.458	638.072
275.512	15.997	851.766	637.782
276.526	15.681	850.930	635.905
277.541	15.975	850.355	636.529
278.555	16.038	849.461	636.043
279.570	15.912	849.378	635.450
280.585	15.933	848.696	634.963
281.599	16.022	848.419	635.032
282.614	16.106	847.804	634.833
283.628	16.050	846.998	633.964
284.643	16.064	846.643	633.694
285.657	16.010	846.005	632.956
286.672	16.087	845.665	632.937
287.687	16.117	845.035	632.521
288.701	15.948	844.990	631.798
289.716	16.197	843.611	631.642
290.730	16.260	843.179	631.498
291.745	16.201	842.531	630.737
292.760	16.167	842.083	630.219
293.774	16.127	841.757	629.770
294.789	16.219	841.360	629.761
295.803	16.239	840.410	629.070
296.818	16.268	839.730	628.611
297.833	16.208	839.075	627.844
298.847	16.220	838.364	627.298
299.862	16.158	837.837	626.619
300.876	16.346	836.971	626.615
301.891	16.376	836.363	626.214
302.906	16.390	836.014	625.951
303.920	16.446	835.074	625.396
304.935	16.571	834.385	625.286
305.949	16.457	834.260	624.716
306.964	16.501	833.385	624.169
307.979	16.483	832.894	623.679
308.993	16.498	832.439	623.340
310.008	16.496	831.890	622.867
311.022	16.447	831.488	622.328
312.037	16.562	831.008	622.337
313.052	16.572	830.202	621.715
314.066	16.567	829.345	621.003
315.081	16.469	829.449	620.663
316.095	16.457	828.997	620.228
317.110	16.461	828.102	619.517
318.125	16.515	827.474	619.192
319.139	16.552	826.857	618.811
320.154	16.569	826.193	618.320
321.168	16.542	825.867	617.921
322.183	16.517	825.605	617.581
323.197	16.581	824.939	617.260
324.212	16.496	824.684	616.705
325.227	16.595	823.997	616.499
326.241	16.769	823.226	616.501
327.256	16.712	822.867	615.971
328.270	16.592	822.405	615.134
329.285	16.712	821.140	614.569
330.300	16.645	821.226	614.334
331.314	16.626	820.777	613.875
332.329	16.725	820.167	613.723
333.343	16.795	819.238	613.228
334.358	16.848	818.731	612.987
335.373	16.846	818.448	612.713
336.387	16.901	817.666	612.270
337.402	16.830	817.587	611.904
338.416	16.912	816.665	611.453
339.431	16.890	816.370	611.098
340.446	16.971	815.476	610.665
341.460	17.005	815.027	610.399
342.475	17.058	814.155	609.884
343.489	16.958	813.945	609.311
344.504	17.015	813.770	609.332
345.519	17.013	813.055	608.734
346.533	17.175	812.335	608.724
347.548	17.129	811.991	608.248
348.562	16.972	811.351	607.151
349.577	17.275	810.632	607.644
350.592	16.982	810.694	606.590
351.606	17.011	810.215	606.280
352.621	17.003	809.721	605.827
353.635	16.943	809.030	605.042
354.650	17.104	808.971	605.518
355.665	17.072	808.482	604.987
356.679	17.105	807.902	604.616
357.694	17.320	807.415	604.963
358.708	17.189	806.759	603.952
359.723	17.099	806.271	603.213
360.738	17.138	805.612	602.806
361.752	17.233	805.096	602.705
362.767	17.256	804.891	602.578
363.781	17.307	804.514	602.425
364.796	17.228	804.108	601.786
365.810	17.486	803.226	601.985
366.825	17.232	803.236	601.042
367.840	17.456	802.441	601.185
368.854	17.302	802.475	600.615
369.869	17.416	801.781	600.442
370.883	17.405	801.072	599.820
371.898	17.245	800.863	599.046
372.913	17.583	799.797	599.385
373.927	17.499	799.682	598.951
374.942	17.473	798.627	598.015
375.956	17.561	798.228	597.972
376.971	17.549	797.700	597.483
377.986	17.670	797.193	597.474
379.000	17.595	796.699	596.789
380.015	17.702	796.130	596.686
381.029	17.667	795.948	596.373
382.044	17.672	795.374	595.906
383.059	17.530	794.626	594.799
384.073	17.665	794.638	595.225
385.088	17.653	793.662	594.400
386.102	17.698	792.862	593.905
387.117	17.706	792.568	593.659
388.132	17.625	792.414	593.211
389.146	17.735	791.791	593.074
390.161	17.792	791.459	592.971
391.175	17.787	791.208	592.713
392.190	17.587	790.897	591.733
393.205	17.722	790.325	591.722
394.219	17.851	789.616	591.587
395.234	17.925	789.188	591.468
396.248	17.897	788.673	590.935
397.263	17.663	788.591	590.009
398.278	17.727	788.134	589.837
399.292	17.707	787.524	589.260
400.307	17.744	787.324	589.186
401.321	17.802	786.843	588.974
402.336	17.982	785.938	588.863
403.350	17.956	785.906	588.700
404.365	17.905	785.668	588.293
405.380	17.838	785.119	587.600
406.394	17.899	784.424	587.236
407.409	17.970	784.024	587.128
408.423	17.945	783.901	586.898
409.438	18.186	783.300	587.224
410.453	18.034	783.265	586.627
411.467	18.056	782.704	586.229
412.482	18.212	781.695	585.955
413.496	18.067	781.193	585.032
414.511	18.219	781.092	585.423
415.526	18.350	780.700	585.526
416.540	18.144	780.693	584.765
417.555	18.222	780.075	584.518
418.569	18.108	779.494	583.640
419.584	18.243	778.587	583.371
420.599	18.099	778.545	582.795
421.613	116.138	1294.506	1488.142
422.628	99.679	1369.654	1488.245
