DTS Sentinel unit serial number:	SN413079Multiplexer serial number:	ORYXHardware model number:	OX4-SRSoftware version number:	ORYX F/W v4.00 Oryx Data Collector v3.7.2.0data status	okinstallation	princeton_trtdifferential loss correction	single-endedforward channel	channel 3reverse channel	N/Adate	2019/09/14time	20:32:35forward acquisition time	60.00reverse acquisition time	0.00gamma	496.2192k internal	0.2315k external	0.2315temperature offset calibration	1.0008default loss term (dB/km)	0.3790temperature slope calibration	1.0000multiplexer offset coefficient	1.0000multiplexer slope coefficient	1.0000fibre end	0.00T internal ref (°C)	33.50T ext. ref 1 (°C)	4.86T ext. ref 2 (°C)	28.12length (m)	temperature (°C)	Stokes	anti-Stokes-747.200	800.000	-0.087	0.329
-746.185	-200.000	-0.002	0.097
-745.171	-73.861	-0.628	0.231
-744.156	531.097	0.046	0.111
-743.142	-200.000	-0.033	0.416
-742.127	215.234	0.269	0.432
-741.112	272.939	-0.026	0.046
-740.098	204.771	0.229	0.361
-739.083	-200.000	0.204	0.001
-738.069	36.006	-0.083	0.074
-737.054	-200.000	0.005	0.265
-736.039	72.750	-0.250	0.264
-735.025	-83.991	0.377	0.121
-734.010	230.287	-0.133	-0.221
-732.996	-32.108	-0.041	-0.023
-731.981	-55.110	-0.499	0.227
-730.966	505.461	0.045	-0.106
-729.952	-168.702	0.037	-0.001
-728.937	-47.291	0.278	0.137
-727.923	319.758	-0.108	-0.208
-726.908	-2.760	-0.292	-0.207
-725.894	-135.392	-0.173	0.021
-724.879	800.000	0.077	-0.273
-723.864	36.742	0.214	-0.192
-722.850	-158.516	0.106	0.006
-721.835	187.663	0.112	0.169
-720.821	-178.434	0.235	-0.006
-719.806	71.652	0.168	-0.176
-718.791	800.000	-0.098	-0.422
-717.777	54.473	-0.022	0.021
-716.762	358.805	0.125	0.253
-715.748	187.890	-0.142	-0.214
-714.733	481.242	0.055	-0.127
-713.718	800.000	-0.038	0.160
-712.704	-200.000	0.004	0.040
-711.689	-88.758	-0.408	0.123
-710.675	41.016	-0.135	-0.123
-709.660	290.918	0.109	0.200
-708.645	-38.086	-0.056	-0.030
-707.631	-200.000	-0.073	-0.382
-706.616	-200.000	0.003	-0.120
-705.602	4.666	0.072	-0.054
-704.587	-85.851	0.253	0.079
-703.572	55.100	0.155	-0.151
-702.558	-200.000	-0.019	0.140
-701.543	66.562	-0.204	0.210
-700.529	-11.835	0.219	0.145
-699.514	214.464	-0.233	0.374
-698.499	-48.695	-0.142	-0.069
-697.485	-123.842	0.164	-0.026
-696.470	-112.916	0.523	-0.105
-695.456	305.001	0.040	0.075
-694.441	25.531	0.071	-0.060
-693.426	177.998	-0.033	0.049
-692.412	-200.000	0.038	0.259
-691.397	-200.000	-0.007	0.163
-690.383	-126.644	-0.226	-0.034
-689.368	154.595	-0.155	0.215
-688.354	46.675	-0.048	0.045
-687.339	78.102	-0.057	0.062
-686.324	225.670	-0.079	0.129
-685.310	108.844	-0.227	-0.274
-684.295	707.683	-0.095	0.254
-683.281	205.434	0.243	0.381
-682.266	-200.000	-0.033	-0.183
-681.251	70.661	0.047	-0.049
-680.237	84.953	-0.170	-0.188
-679.222	-38.878	-0.289	0.154
-678.208	-200.000	0.047	-0.212
-677.193	-68.131	-0.283	0.111
-676.178	-35.104	0.217	-0.119
-675.164	-200.000	0.027	0.184
-674.149	249.263	-0.079	-0.136
-673.135	-200.000	-0.032	-0.177
-672.120	64.877	0.169	-0.173
-671.105	448.970	0.189	0.421
-670.091	-138.333	0.298	-0.033
-669.076	272.139	0.123	-0.219
-668.062	55.065	0.196	0.191
-667.047	-200.000	-0.037	-0.356
-666.032	-200.000	-0.063	-0.411
-665.018	168.364	-0.203	0.292
-664.003	140.418	0.171	0.229
-662.989	-10.134	-0.287	0.193
-661.974	-110.612	-0.227	-0.047
-660.959	-20.768	0.172	0.106
-659.945	32.070	-0.055	0.048
-658.930	-55.700	0.140	0.063
-657.916	-8.133	0.190	0.129
-656.901	58.607	-0.254	0.252
-655.886	122.524	-0.201	0.253
-654.872	-103.426	-0.246	0.058
-653.857	255.786	0.165	-0.286
-652.843	800.000	0.153	-0.460
-651.828	800.000	0.070	-0.275
-650.814	800.000	-0.044	-0.139
-649.799	-200.000	0.003	-0.189
-648.784	-170.314	0.202	0.007
-647.770	-200.000	0.010	-0.170
-646.755	-200.000	0.003	-0.354
-645.741	80.459	0.227	0.247
-644.726	83.581	-0.148	0.163
-643.711	-148.108	-0.094	-0.008
-642.697	-110.951	-0.373	0.077
-641.682	-108.107	-0.123	-0.027
-640.668	-72.729	-0.413	0.153
-639.653	0.460	0.398	0.287
-638.638	437.928	-0.088	0.193
-637.624	59.280	0.134	0.133
-636.609	-117.956	0.255	-0.046
-635.595	-69.994	-0.650	-0.250
-634.580	167.689	-0.114	0.164
-633.565	800.000	-0.051	-0.175
-632.551	-89.449	-0.162	0.048
-631.536	437.692	0.108	0.237
-630.522	50.639	-0.116	0.111
-629.507	-200.000	-0.014	0.170
-628.492	-14.243	-0.258	-0.168
-627.478	-75.075	-0.288	0.104
-626.463	-200.000	0.023	0.165
-625.449	-52.541	-0.361	-0.168
-624.434	318.504	0.065	-0.124
-623.419	-105.132	0.299	0.069
-622.405	-90.587	-0.183	-0.053
-621.390	86.178	-0.214	0.237
-620.376	150.312	0.043	-0.059
-619.361	-200.000	0.074	-0.369
-618.346	311.001	-0.139	-0.262
-617.332	-106.985	0.243	0.054
-616.317	-200.000	0.008	-0.066
-615.303	-56.913	0.184	0.082
-614.288	-115.216	-0.384	0.073
-613.273	-65.588	-0.200	-0.081
-612.259	292.523	0.055	-0.101
-611.244	-200.000	0.018	-0.209
-610.230	-78.395	0.193	-0.067
-609.215	-82.704	-0.154	0.050
-608.201	-200.000	0.015	-0.166
-607.186	-101.557	0.290	0.071
-606.171	-138.917	-0.269	-0.029
-605.157	-95.151	0.103	-0.028
-604.142	63.786	-0.102	-0.104
-603.128	46.839	-0.177	0.166
-602.113	357.519	-0.023	-0.047
-601.098	235.026	-0.071	0.119
-600.084	-31.972	0.154	0.087
-599.069	-41.756	0.035	-0.018
-598.055	-200.000	0.007	0.190
-597.040	-123.516	-0.345	-0.055
-596.025	109.708	0.070	0.084
-595.011	-3.270	0.404	0.284
-593.996	-78.524	-0.073	-0.025
-592.982	39.978	-0.259	-0.234
-591.967	-200.000	-0.024	0.189
-590.952	62.771	-0.164	0.165
-589.938	321.070	-0.110	-0.211
-588.923	-71.248	0.332	-0.125
-587.909	-127.599	-0.069	0.010
-586.894	3.834	-0.182	-0.134
-585.879	-27.293	0.108	-0.064
-584.865	29.469	-0.240	0.205
-583.850	-173.818	-0.390	-0.012
-582.836	-139.461	-0.147	0.016
-581.821	49.650	0.220	0.209
-580.806	800.000	0.050	0.153
-579.792	205.249	0.154	-0.241
-578.777	18.370	-0.244	0.196
-577.763	-31.894	0.097	0.055
-576.748	153.257	0.062	0.086
-575.733	800.000	-0.034	-0.113
-574.719	-115.506	-0.254	0.048
-573.704	16.564	0.364	0.289
-572.690	159.322	-0.077	-0.108
-571.675	233.750	0.152	-0.252
-570.661	383.827	-0.123	0.255
-569.646	-26.187	-0.258	-0.152
-568.631	464.245	-0.125	0.280
-567.617	-200.000	-0.213	-0.000
-566.602	-5.461	-0.242	-0.167
-565.588	81.569	0.137	0.149
-564.573	251.428	-0.067	0.115
-563.558	-21.119	0.272	0.167
-562.544	-126.537	0.075	-0.011
-561.529	519.612	-0.028	-0.067
-560.515	28.124	-0.146	0.124
-559.500	21.749	-0.018	-0.015
-558.485	17.053	0.203	0.162
-557.471	2.721	0.138	-0.101
-556.456	-200.000	0.024	0.158
-555.442	-107.385	0.135	0.030
-554.427	-200.000	-0.011	0.181
-553.412	-45.926	0.391	-0.194
-552.398	-67.329	-0.084	-0.033
-551.383	591.349	0.009	0.022
-550.369	112.881	0.081	0.099
-549.354	-191.219	-0.023	-0.000
-548.339	1.860	0.224	-0.162
-547.325	39.936	0.050	0.045
-546.310	-70.034	0.076	0.029
-545.296	-50.645	0.373	-0.177
-544.281	150.589	0.166	0.226
-543.266	-47.510	0.072	0.035
-542.252	202.632	0.294	-0.456
-541.237	-200.000	0.002	0.090
-540.223	152.727	0.152	0.208
-539.208	-187.800	0.289	-0.004
-538.193	800.000	-0.111	0.458
-537.179	-57.558	0.198	-0.087
-536.164	94.016	0.108	-0.123
-535.150	285.630	-0.022	-0.041
-534.135	-84.643	-0.098	-0.031
-533.121	32.115	0.137	-0.119
-532.106	-200.000	-0.003	-0.277
-531.091	295.529	-0.055	0.101
-530.077	-128.513	-0.338	0.048
-529.062	103.201	0.019	-0.022
-528.048	-47.634	-0.127	-0.062
-527.033	6.629	0.160	0.119
-526.018	687.155	0.082	-0.214
-525.004	-171.728	0.322	-0.011
-523.989	-47.157	-0.546	0.267
-522.975	608.187	-0.077	0.194
-521.960	-13.053	-0.296	0.193
-520.945	-18.737	-0.299	0.187
-519.931	113.815	-0.310	0.379
-518.916	61.688	0.326	-0.326
-517.902	-200.000	-0.009	-0.235
-516.887	-200.000	0.001	-0.270
-515.872	800.000	-0.030	-0.097
-514.858	88.411	-0.076	0.085
-513.843	93.879	-0.109	-0.124
-512.829	143.898	-0.127	-0.170
-511.814	-26.671	-0.257	-0.151
-510.799	718.135	-0.096	0.255
-509.785	-106.311	0.119	0.027
-508.770	-81.133	-0.202	0.067
-507.756	800.000	-0.066	-0.204
-506.741	-200.000	0.001	-0.161
-505.726	-82.638	0.315	0.103
-504.712	800.000	0.030	-0.114
-503.697	800.000	-0.077	0.235
-502.683	-200.000	-0.048	-0.225
-501.668	8.147	-0.274	0.207
-500.653	404.373	-0.077	-0.164
-499.639	97.930	0.140	0.162
-498.624	-200.000	0.040	0.260
-497.610	-107.899	0.184	0.040
-496.595	-156.598	0.165	0.010
-495.581	-200.000	0.031	0.196
-494.566	-200.000	-0.065	-0.406
-493.551	113.643	-0.026	-0.032
-492.537	107.269	0.150	-0.178
-491.522	297.165	-0.108	-0.198
-490.508	-56.924	0.075	-0.033
-489.493	113.845	-0.239	0.291
-488.478	-29.771	0.449	-0.257
-487.464	-7.176	-0.041	-0.028
-486.449	104.659	-0.149	0.176
-485.435	-111.864	-0.415	0.084
-484.420	54.686	-0.039	0.038
-483.405	12.412	-0.362	-0.280
-482.391	-86.425	0.260	-0.080
-481.376	510.933	-0.087	-0.203
-480.362	-200.000	-0.010	0.218
-479.347	522.484	0.120	-0.283
-478.332	-200.000	0.064	0.298
-477.318	-20.781	0.114	-0.070
-476.303	79.302	-0.069	-0.074
-475.289	-15.846	0.184	0.118
-474.274	16.662	0.103	-0.082
-473.259	-100.917	-0.115	0.028
-472.245	-116.090	-0.103	0.019
-471.230	-112.932	-0.089	0.018
-470.216	-5.742	-0.326	0.224
-469.201	-114.109	-0.164	-0.032
-468.186	141.839	-0.059	0.078
-467.172	109.763	0.235	-0.282
-466.157	313.428	-0.046	-0.086
-465.143	235.289	-0.101	-0.168
-464.128	-200.000	0.013	-0.335
-463.113	-168.501	-0.036	-0.001
-462.099	-55.526	0.335	0.150
-461.084	-65.116	0.169	0.068
-460.070	-31.438	0.186	0.105
-459.055	-200.000	-0.029	-0.223
-458.040	-200.000	0.005	0.122
-457.026	61.188	-0.227	-0.226
-456.011	406.659	-0.093	0.196
-454.997	205.428	-0.143	-0.222
-453.982	800.000	-0.056	-0.164
-452.968	33.612	0.145	-0.126
-451.953	-9.176	0.188	0.126
-450.938	-137.325	-0.156	0.018
-449.924	-182.761	0.323	0.006
-448.909	129.496	-0.045	-0.057
-447.895	-46.626	-0.169	-0.083
-446.880	34.306	-0.222	-0.194
-445.865	-200.000	0.042	0.310
-444.851	117.662	-0.115	0.142
-443.836	-32.686	-0.384	-0.214
-442.822	-173.653	0.254	-0.008
-441.807	-6.192	0.217	0.148
-440.792	23.575	-0.043	0.035
-439.778	628.978	-0.055	0.138
-438.763	-155.155	0.285	0.019
-437.749	-155.112	-0.103	0.007
-436.734	132.850	-0.119	-0.153
-435.719	747.624	0.189	-0.510
-434.705	483.103	-0.136	-0.310
-433.690	35.284	-0.106	-0.093
-432.676	-17.545	0.080	0.051
-431.661	189.380	-0.151	-0.227
-430.646	-129.669	0.251	0.035
-429.632	-36.822	0.244	-0.131
-428.617	594.410	-0.055	0.135
-427.603	389.625	0.101	-0.210
-426.588	-73.407	0.355	-0.130
-425.573	273.460	0.040	-0.071
-424.559	-200.000	0.005	0.105
-423.544	800.000	0.069	0.230
-422.530	-45.335	0.337	0.167
-421.515	-112.712	0.056	-0.011
-420.500	-99.607	-0.069	-0.017
-419.486	-200.000	0.079	0.492
-418.471	800.000	-0.046	0.175
-417.457	-164.493	-0.367	-0.017
-416.442	64.928	-0.172	-0.173
-415.428	-59.579	-0.160	-0.069
-414.413	-200.000	-0.010	0.219
-413.398	-200.000	-0.063	0.501
-412.384	45.970	-0.125	0.116
-411.369	617.917	-0.073	0.183
-410.355	411.938	0.014	0.030
-409.340	-174.972	-0.247	-0.007
-408.325	800.000	0.078	0.232
-407.311	-83.680	0.184	-0.059
-406.296	-184.628	0.237	0.004
-405.282	525.459	-0.014	-0.033
-404.267	800.000	0.045	0.168
-403.252	30.793	-0.161	-0.138
-402.238	-200.000	0.077	-0.344
-401.223	-122.927	-0.310	-0.050
-400.209	-95.101	-0.066	0.018
-399.194	-102.571	-0.192	-0.046
-398.179	-157.686	0.139	0.008
-397.165	-131.965	0.287	-0.037
-396.150	81.308	0.144	-0.156
-395.136	154.345	-0.063	0.087
-394.121	343.433	-0.010	-0.020
-393.106	110.320	0.142	-0.170
-392.092	321.762	-0.254	0.483
-391.077	-74.137	-0.210	0.076
-390.063	193.748	-0.226	0.341
-389.048	229.979	-0.086	0.141
-388.033	53.208	0.039	-0.037
-387.019	35.009	0.130	0.114
-386.004	-142.260	-0.196	0.019
-384.990	26.700	0.466	-0.390
-383.975	800.000	0.171	-0.499
-382.960	-180.548	-0.384	0.008
-381.946	-200.000	0.030	0.267
-380.931	-106.686	0.107	-0.024
-379.917	-200.000	0.007	0.176
-378.902	59.229	-0.113	0.111
-377.888	-53.302	0.148	-0.068
-376.873	-69.032	0.143	0.055
-375.858	-118.293	-0.082	0.015
-374.844	-200.000	-0.042	0.421
-373.829	-140.446	-0.094	-0.010
-372.815	-20.900	0.102	0.062
-371.800	20.366	0.282	-0.228
-370.785	-14.033	0.173	-0.112
-369.771	-124.761	-0.033	-0.005
-368.756	-135.518	0.077	-0.009
-367.742	-85.805	0.045	-0.014
-366.727	5.347	0.127	-0.094
-365.712	390.996	-0.147	0.305
-364.698	-10.746	-0.354	0.234
-363.683	-53.177	-0.239	-0.109
-362.669	205.470	-0.160	0.248
-361.654	-64.591	0.281	-0.114
-360.639	-112.743	-0.124	-0.025
-359.625	-200.000	0.043	0.201
-358.610	161.334	-0.090	0.125
-357.596	288.968	-0.036	-0.066
-356.581	-200.000	0.026	-0.149
-355.566	800.000	0.066	0.206
-354.552	-25.868	0.268	-0.157
-353.537	800.000	-0.024	0.071
-352.523	-165.463	0.131	0.006
-351.508	-145.950	0.237	-0.021
-350.493	-157.152	-0.363	-0.022
-349.479	-200.000	0.006	-0.201
-348.464	15.600	0.198	-0.155
-347.450	24.116	0.052	-0.043
-346.435	-64.889	0.247	-0.100
-345.420	118.938	0.105	-0.129
-344.406	-124.028	-0.270	0.042
-343.391	70.582	-0.122	0.126
-342.377	37.359	-0.112	-0.099
-341.362	-85.523	0.170	0.053
-340.348	204.934	0.008	-0.012
-339.333	-126.382	-0.106	-0.016
-338.318	69.058	-0.140	-0.144
-337.304	800.000	-0.049	0.158
-336.289	-169.229	-0.167	-0.006
-335.275	-200.000	-0.024	-0.117
-334.260	-100.324	-0.307	0.076
-333.245	104.907	-0.229	0.269
-332.231	-92.393	0.141	-0.040
-331.216	-93.907	0.078	0.021
-330.202	-200.000	-0.051	-0.388
-329.187	18.186	0.165	-0.132
-328.172	-62.840	0.108	0.045
-327.158	800.000	-0.084	0.323
-326.143	144.688	0.152	-0.203
-325.129	74.659	-0.171	0.180
-324.114	800.000	0.047	0.204
-323.099	176.858	-0.112	0.163
-322.085	-80.579	0.244	0.081
-321.070	49.329	-0.108	0.102
-320.056	-128.486	0.308	0.044
-319.041	341.664	0.102	-0.198
-318.026	-86.410	0.334	-0.102
-317.012	4.794	-0.184	0.135
-315.997	88.717	-0.065	0.072
-314.983	-116.648	0.268	-0.049
-313.968	-117.688	-0.214	0.038
-312.953	144.849	0.249	0.331
-311.939	112.282	0.139	0.167
-310.924	446.500	-0.010	-0.022
-309.910	-200.000	-0.035	0.206
-308.895	-62.985	0.209	-0.086
-307.880	100.510	0.055	-0.064
-306.866	25.156	0.289	0.239
-305.851	800.000	-0.057	0.202
-304.837	-119.216	0.137	0.024
-303.822	-90.873	-0.316	-0.091
-302.807	22.105	-0.216	-0.175
-301.793	-200.000	0.004	-0.114
-300.778	-137.892	-0.364	-0.041
-299.764	210.325	-0.200	0.313
-298.749	-37.136	0.207	-0.110
-297.735	-74.475	0.033	0.012
-296.720	800.000	0.043	0.155
-295.705	169.230	0.028	0.040
-294.691	586.405	-0.047	-0.116
-293.676	-200.000	0.031	-0.135
-292.662	-200.000	-0.002	0.152
-291.647	46.738	-0.214	0.198
-290.632	-200.000	0.011	-0.103
-289.618	-200.000	0.039	-0.179
-288.603	800.000	0.058	-0.229
-287.589	-200.000	0.003	-0.426
-286.574	194.789	0.139	-0.210
-285.559	-138.904	0.152	-0.016
-284.545	164.972	0.114	0.160
-283.530	-154.749	0.060	-0.004
-282.516	468.186	0.128	-0.285
-281.501	156.924	-0.102	-0.141
-280.486	157.508	0.069	-0.096
-279.472	-179.121	-0.123	0.003
-278.457	-111.767	-0.302	0.061
-277.443	125.338	-0.186	0.233
-276.428	288.508	0.100	0.179
-275.413	-107.524	0.252	0.055
-274.399	800.000	-0.096	-0.393
-273.384	2.605	0.242	-0.175
-272.370	-137.321	-0.142	0.016
-271.355	800.000	-0.016	0.050
-270.340	800.000	0.086	-0.242
-269.326	-200.000	0.022	0.160
-268.311	69.859	-0.224	-0.229
-267.297	-200.000	-0.008	-0.157
-266.282	800.000	0.068	-0.206
-265.267	-200.000	-0.046	0.241
-264.253	-133.256	-0.148	-0.019
-263.238	209.818	0.151	0.235
-262.224	273.512	0.130	-0.228
-261.209	-49.575	-0.343	-0.162
-260.195	-106.181	-0.132	-0.029
-259.180	-57.372	0.053	0.023
-258.165	-116.893	-0.282	0.051
-257.151	22.592	-0.164	0.134
-256.136	95.960	-0.241	-0.274
-255.122	6.801	-0.263	-0.194
-254.107	-53.878	0.101	-0.046
-253.092	-83.662	-0.047	-0.015
-252.078	97.574	0.128	0.146
-251.063	-86.016	0.136	-0.042
-250.049	-11.782	0.231	-0.151
-249.034	31.580	-0.138	-0.118
-248.019	-200.000	0.001	-0.087
-247.005	-35.916	-0.149	0.080
-245.990	800.000	-0.083	-0.254
-244.976	60.756	-0.312	-0.307
-243.961	349.516	-0.106	-0.208
-242.946	617.890	-0.096	0.240
-241.932	-87.730	-0.305	0.091
-240.917	222.389	0.155	0.247
-239.903	-111.058	0.067	-0.014
-238.888	800.000	0.062	-0.208
-237.873	174.441	0.245	-0.351
-236.859	-49.575	-0.121	0.057
-235.844	224.183	0.074	-0.118
-234.830	3.671	-0.132	-0.095
-233.815	800.000	0.072	-0.306
-232.800	-69.366	0.306	0.117
-231.786	161.207	-0.239	-0.332
-230.771	-24.698	0.053	0.031
-229.757	-66.973	-0.199	-0.078
-228.742	-72.206	-0.007	0.003
-227.727	-107.281	0.418	-0.091
-226.713	49.624	-0.342	-0.320
-225.698	-139.761	0.111	-0.012
-224.684	-94.603	-0.311	0.084
-223.669	193.261	0.126	-0.189
-222.655	118.527	0.102	0.124
-221.640	74.007	0.142	-0.148
-220.625	86.909	0.181	-0.199
-219.611	360.828	0.091	0.180
-218.596	335.441	-0.084	0.161
-217.582	-153.565	-0.185	0.013
-216.567	-121.225	-0.279	-0.046
-215.552	-58.524	-0.217	-0.093
-214.538	-101.900	-0.220	0.053
-213.523	-19.078	0.240	-0.148
-212.509	800.000	-0.121	0.415
-211.494	58.903	-0.194	0.189
-210.479	481.530	0.017	-0.039
-209.465	98.379	0.075	0.086
-208.450	654.973	-0.060	-0.153
-207.436	173.790	0.152	-0.218
-206.421	-1.326	0.176	-0.124
-205.406	130.521	0.156	-0.198
-204.392	-65.164	-0.050	-0.020
-203.377	-24.865	0.509	-0.300
-202.363	-109.573	0.298	0.062
-201.348	-92.392	0.092	-0.026
-200.333	-40.830	-0.209	0.107
-199.319	113.407	0.397	0.477
-198.304	-115.226	0.251	-0.047
-197.290	138.402	0.138	0.180
-196.275	-26.170	-0.086	0.050
-195.260	-82.323	-0.052	0.017
-194.246	86.258	0.206	-0.225
-193.231	-200.000	-0.056	-0.289
-192.217	-102.019	-0.023	-0.005
-191.202	800.000	0.062	0.173
-190.187	-200.000	-0.000	0.057
-189.173	253.901	0.216	0.365
-188.158	-2.912	-0.187	-0.129
-187.144	39.370	0.143	-0.127
-186.129	5.365	0.065	-0.047
-185.114	-200.000	0.042	0.277
-184.100	-135.935	0.010	-0.001
-183.085	161.318	0.058	0.080
-182.071	-24.355	0.228	-0.135
-181.056	800.000	-0.085	-0.287
-180.042	-200.000	-0.006	-0.369
-179.027	-65.381	0.309	-0.123
-178.012	-127.025	-0.057	-0.008
-176.998	559.679	-0.115	-0.275
-175.983	661.087	-0.074	0.189
-174.969	356.934	-0.255	0.505
-173.954	29.071	0.236	0.198
-172.939	238.015	0.163	0.268
-171.925	101.142	0.207	0.238
-170.910	-103.467	-0.146	-0.034
-169.896	-200.000	0.009	-0.334
-168.881	800.000	-0.022	-0.067
-167.866	-6.650	0.392	0.264
-166.852	189.993	-0.102	0.151
-165.837	800.000	-0.087	0.337
-164.823	75.251	0.267	0.279
-163.808	-22.651	0.133	0.080
-162.793	110.896	0.169	0.201
-161.779	800.000	0.061	0.230
-160.764	-22.799	-0.209	0.125
-159.750	-200.000	-0.030	0.275
-158.735	-157.611	0.192	0.011
-157.720	-34.792	0.094	-0.051
-156.706	72.937	0.120	-0.124
-155.691	-46.143	-0.011	-0.005
-154.677	-82.181	0.481	0.155
-153.662	-105.661	-0.248	0.056
-152.647	-200.000	-0.007	-0.085
-151.633	304.404	0.100	-0.183
-150.618	-144.744	0.039	0.004
-149.604	33.477	-0.110	-0.095
-148.589	-106.085	0.014	0.003
-147.574	47.613	0.311	0.287
-146.560	-98.178	0.182	0.046
-145.545	20.328	0.287	0.229
-144.531	589.415	0.127	0.310
-143.516	800.000	-0.024	-0.097
-142.502	-167.632	0.321	-0.013
-141.487	-200.000	0.002	0.224
-140.472	-110.079	0.448	-0.093
-139.458	-55.601	0.136	0.060
-138.443	800.000	-0.062	0.181
-137.429	-148.053	0.310	-0.025
-136.414	-83.887	0.245	-0.077
-135.399	800.000	-0.045	-0.164
-134.385	-93.287	0.306	0.084
-133.370	84.455	0.154	0.167
-132.356	333.750	-0.111	0.212
-131.341	-200.000	0.029	-0.143
-130.326	-200.000	0.007	-0.336
-129.312	146.982	0.128	0.170
-128.297	16.059	-0.177	-0.138
-127.283	-42.277	0.241	0.122
-126.268	-192.194	-0.232	0.002
-125.253	800.000	0.109	0.360
-124.239	-54.980	0.347	-0.155
-123.224	36.799	-0.097	-0.085
-122.210	58.981	-0.321	-0.312
-121.195	-65.927	0.197	0.078
-120.180	-79.409	0.164	0.055
-119.166	159.051	0.192	-0.264
-118.151	-101.078	0.400	0.097
-117.137	-144.557	-0.363	0.033
-116.122	-200.000	0.003	-0.133
-115.107	-121.420	-0.100	-0.016
-114.093	-86.855	0.365	0.110
-113.078	260.584	0.102	0.174
-112.064	-12.039	-0.160	0.103
-111.049	-180.308	-0.320	-0.007
-110.034	-33.454	-0.118	0.065
-109.020	-8.617	-0.125	0.083
-108.005	800.000	-0.084	0.230
-106.991	-200.000	-0.016	-0.304
-105.976	-61.981	0.171	-0.071
-104.962	-22.748	-0.188	-0.112
-103.947	-200.000	-0.047	0.340
-102.932	-200.000	-0.014	0.061
-101.918	-200.000	0.016	0.193
-100.903	800.000	-0.063	-0.260
-99.889	190.099	-0.045	0.067
-98.874	18.263	0.026	-0.021
-97.859	-200.000	-0.003	-0.166
-96.845	-200.000	-0.013	-0.212
-95.830	-200.000	-0.012	-0.065
-94.816	-127.790	0.219	-0.031
-93.801	136.416	0.122	0.157
-92.786	800.000	-0.048	0.194
-91.772	126.092	0.360	0.449
-90.757	-173.949	-0.344	-0.010
-89.743	-200.000	-0.047	0.268
-88.728	-200.000	0.011	0.196
-87.713	101.107	-0.087	-0.100
-86.699	-30.385	-0.119	0.067
-85.684	-126.476	0.186	-0.027
-84.670	20.416	0.234	-0.187
-83.655	-171.632	0.081	0.003
-82.640	-36.358	0.148	-0.079
-81.626	392.500	0.133	-0.273
-80.611	464.936	-0.118	-0.262
-79.597	800.000	0.120	0.355
-78.582	-200.000	0.028	-0.369
-77.567	763.943	0.083	-0.222
-76.553	61.480	0.247	-0.243
-75.538	-184.089	-0.133	0.002
-74.524	800.000	-0.018	-0.051
-73.509	-200.000	-0.004	0.080
-72.494	121.629	0.120	0.148
-71.480	-200.000	-0.022	0.465
-70.465	-133.364	-0.151	-0.019
-69.451	226.766	0.135	0.217
-68.436	691.500	0.093	-0.242
-67.422	-139.548	-0.287	0.030
-66.407	-107.898	-0.166	0.036
-65.392	-200.000	-0.023	0.250
-64.378	-115.879	-0.291	-0.054
-63.363	800.000	-0.052	0.184
-62.349	86.197	0.141	0.153
-61.334	47.512	-0.964	-0.887
-60.319	-47.602	0.447	0.214
-59.305	95.308	-0.478	-0.538
-58.290	592.326	0.483	1.177
-57.276	800.000	0.559	1.522
-56.261	-200.000	94.989	563.965
-55.246	631.047	1380.387	3445.947
-54.232	194.882	2564.704	3838.986
-53.217	118.535	2170.814	2642.615
-52.203	43.854	1712.559	1546.756
-51.188	36.784	1524.173	1328.266
-50.173	34.306	1497.776	1288.476
-49.159	53.555	1545.397	1462.010
-48.144	55.696	1563.927	1494.183
-47.130	36.942	1523.214	1328.306
-46.115	33.794	1508.166	1293.724
-45.100	33.600	1505.069	1289.695
-44.086	33.552	1503.175	1287.696
-43.071	33.494	1501.623	1285.919
-42.057	33.455	1500.072	1284.277
-41.042	33.558	1498.398	1283.488
-40.027	33.538	1496.936	1282.051
-39.013	33.545	1495.581	1280.889
-37.998	33.413	1494.582	1279.090
-36.984	33.575	1493.205	1278.954
-35.969	33.527	1491.580	1277.184
-34.954	33.511	1490.172	1275.823
-33.940	33.478	1489.406	1274.894
-32.925	33.550	1487.560	1273.746
-31.911	33.580	1486.043	1272.601
-30.896	33.510	1485.387	1271.516
-29.881	33.604	1483.794	1270.735
-28.867	33.602	1482.280	1269.376
-27.852	33.635	1480.645	1268.140
-26.838	33.549	1479.559	1266.586
-25.823	33.514	1478.168	1265.112
-24.809	33.510	1476.378	1263.505
-23.794	33.559	1474.644	1262.299
-22.779	33.491	1473.880	1261.138
-21.765	33.556	1472.323	1260.190
-20.750	33.561	1471.936	1259.844
-19.736	33.492	1470.791	1258.357
-18.721	33.507	1469.656	1257.434
-17.706	33.490	1468.919	1256.639
-16.692	33.496	1467.518	1255.429
-15.677	33.490	1466.401	1254.384
-14.663	33.470	1465.350	1253.307
-13.648	33.448	1464.519	1252.395
-12.633	33.434	1463.830	1251.670
-11.619	33.535	1462.634	1251.263
-10.604	33.459	1461.991	1250.158
-9.590	33.381	1460.891	1248.656
-8.575	33.490	1459.922	1248.497
-7.560	33.438	1459.446	1247.697
-6.546	33.398	1458.815	1246.847
-5.531	33.444	1457.456	1245.938
-4.517	33.467	1456.640	1245.337
-3.502	33.456	1455.688	1244.406
-2.487	33.415	1454.756	1243.291
-1.473	33.438	1453.481	1242.305
-0.458	33.495	1451.903	1241.279
0.556	32.781	1442.710	1229.608
1.571	29.758	1416.511	1187.784
2.586	26.066	1355.137	1113.482
3.600	24.267	1273.085	1035.531
4.615	22.693	1227.480	989.524
5.629	19.559	1171.649	927.622
6.644	11.705	1087.909	821.921
7.659	5.716	1047.854	762.520
8.673	4.955	1042.480	754.859
9.688	4.890	1039.798	752.533
10.702	4.771	1038.056	750.634
11.717	4.814	1036.298	749.505
12.731	7.056	1037.782	761.305
13.746	14.124	1048.147	803.084
14.761	19.258	1054.240	832.552
15.775	19.167	1053.168	831.193
16.790	18.334	1050.144	824.718
17.804	17.125	1048.336	817.408
18.819	16.141	1046.731	811.358
19.834	15.604	1045.374	807.653
20.848	15.329	1044.771	805.793
21.863	15.328	1043.355	804.622
22.877	14.979	1042.796	802.447
23.892	14.945	1041.984	801.591
24.907	14.786	1041.061	800.049
25.921	14.740	1040.395	799.244
26.936	14.871	1039.515	799.124
27.950	14.852	1038.466	798.158
28.965	14.864	1037.852	797.671
29.980	14.905	1036.698	796.910
30.994	14.932	1035.620	796.140
32.009	15.105	1034.512	796.042
33.023	15.096	1034.187	795.675
34.038	15.017	1033.557	794.743
35.053	15.044	1032.198	793.759
36.067	14.867	1031.528	792.334
37.082	14.846	1030.488	791.366
38.096	14.915	1030.107	791.328
39.111	15.019	1028.639	790.623
40.126	15.014	1028.222	790.207
41.140	14.951	1026.887	788.815
42.155	14.884	1025.427	787.311
43.169	14.763	1024.794	786.182
44.184	14.708	1023.647	784.978
45.199	14.551	1023.175	783.808
46.213	14.663	1022.036	783.390
47.228	14.661	1021.131	782.618
48.242	14.946	1019.549	782.671
49.257	14.816	1019.100	781.651
50.271	14.769	1018.243	780.705
51.286	14.923	1017.057	780.442
52.301	14.981	1016.503	780.218
53.315	14.900	1015.710	779.163
54.330	14.784	1014.635	777.731
55.344	14.708	1013.681	776.576
56.359	14.748	1012.377	775.694
57.374	14.722	1012.128	775.317
58.388	14.823	1011.158	774.972
59.403	14.682	1010.460	773.714
60.417	14.672	1009.711	773.025
61.432	14.675	1008.886	772.343
62.447	14.605	1007.652	771.007
63.461	14.554	1007.422	770.524
64.476	14.549	1006.248	769.536
65.490	14.555	1005.406	768.853
66.505	14.493	1004.831	768.056
67.520	14.492	1003.840	767.227
68.534	14.517	1002.967	766.608
69.549	14.598	1002.425	766.496
70.563	14.588	1001.371	765.580
71.578	14.633	1000.877	765.337
72.593	14.531	1000.295	764.359
73.607	14.463	998.924	762.934
74.622	14.374	998.240	761.935
75.636	14.430	997.156	761.294
76.651	14.439	996.492	760.763
77.666	14.487	996.205	760.696
78.680	14.510	995.312	760.052
79.695	14.370	994.964	759.079
80.709	14.485	993.917	758.738
81.724	14.575	993.131	758.479
82.739	14.642	992.474	758.216
83.753	14.645	991.963	757.770
84.768	14.762	991.362	757.778
85.782	14.886	990.665	757.739
86.797	14.972	989.943	757.509
87.812	15.041	988.972	757.008
88.826	15.003	988.050	756.066
89.841	14.763	987.705	754.651
90.855	14.894	986.520	754.270
91.870	14.872	986.111	753.792
92.884	14.919	985.723	753.639
93.899	14.989	984.440	752.907
94.914	15.016	983.378	752.151
95.928	14.923	983.099	751.454
96.943	15.021	982.541	751.399
97.957	15.008	981.569	750.530
98.972	14.882	980.924	749.404
99.987	15.009	980.146	749.314
101.001	14.970	979.202	748.354
102.016	15.052	978.319	747.976
103.030	14.980	977.271	746.787
104.045	14.916	976.914	746.165
105.060	15.003	975.936	745.741
106.074	15.069	974.237	744.671
107.089	14.805	973.691	743.013
108.103	14.691	972.976	741.896
109.118	14.650	972.341	741.160
110.133	14.654	971.032	740.115
111.147	14.722	970.347	739.828
112.162	14.583	969.582	738.565
113.176	14.617	968.926	738.152
114.191	14.632	967.909	737.377
115.206	14.764	967.253	737.394
116.220	14.774	966.478	736.783
117.235	14.859	965.285	736.183
118.249	14.751	964.723	735.213
119.264	14.772	963.970	734.669
120.279	14.684	963.341	733.735
121.293	14.741	962.485	733.268
122.308	14.600	961.677	731.970
123.322	14.582	960.419	730.870
124.337	14.658	959.322	730.301
125.352	14.518	958.283	728.835
126.366	14.574	957.443	728.378
127.381	14.530	956.482	727.388
128.395	14.583	955.306	726.662
129.410	14.673	954.091	726.065
130.424	14.716	953.416	725.672
131.439	14.701	952.742	725.032
132.454	14.688	952.417	724.662
133.468	14.792	951.844	724.611
134.483	14.800	951.135	724.045
135.497	14.734	949.960	722.801
136.512	14.664	949.796	722.308
137.527	14.771	948.483	721.707
138.541	14.680	947.829	720.754
139.556	14.815	947.306	720.877
140.570	14.872	946.317	720.303
141.585	14.803	945.762	719.521
142.600	15.036	945.233	720.059
143.614	14.948	944.130	718.775
144.629	14.921	943.490	718.111
145.643	15.066	942.785	718.131
146.658	15.079	942.679	718.042
147.673	14.944	941.309	716.355
148.687	14.913	940.400	715.469
149.702	14.754	939.898	714.343
150.716	14.793	938.942	713.721
151.731	14.828	937.732	712.889
152.746	14.834	937.490	712.665
153.760	14.794	936.861	711.956
154.775	14.755	936.292	711.291
155.789	14.959	935.203	711.270
156.804	15.051	934.430	711.011
157.819	14.936	933.677	709.888
158.833	15.094	932.908	709.910
159.848	15.063	932.247	709.212
160.862	15.121	931.729	708.999
161.877	15.059	931.057	708.165
162.892	14.911	929.936	706.621
163.906	14.824	929.243	705.667
164.921	14.878	928.406	705.196
165.935	14.873	927.479	704.410
166.950	15.024	926.197	704.009
167.964	14.939	925.638	703.163
168.979	14.959	924.581	702.382
169.994	14.859	923.776	701.288
171.008	14.907	922.883	700.749
172.023	15.021	921.728	700.288
173.037	15.075	921.273	700.107
174.052	15.205	920.513	700.011
175.067	15.149	919.860	699.217
176.081	15.156	918.766	698.356
177.096	14.890	918.064	696.649
178.110	14.940	917.550	696.409
179.125	14.886	917.022	695.719
180.140	15.029	915.800	695.325
181.154	15.080	915.283	695.083
182.169	15.033	914.372	694.136
183.183	15.271	913.986	694.767
184.198	15.282	913.131	694.101
185.213	15.280	912.830	693.805
186.227	15.290	912.006	693.155
187.242	15.226	911.494	692.441
188.256	15.192	911.449	692.207
189.271	15.454	910.250	692.315
190.286	15.566	909.526	692.162
191.300	15.194	908.925	690.115
192.315	15.049	907.758	688.571
193.329	14.958	906.982	687.544
194.344	15.080	906.094	687.314
195.359	14.938	906.315	686.837
196.373	15.086	905.394	686.686
197.388	15.220	904.723	686.664
198.402	15.332	904.450	686.856
199.417	15.345	904.437	686.836
200.432	15.698	903.559	687.554
201.446	15.604	903.047	686.717
202.461	15.587	903.027	686.576
203.475	15.644	902.298	686.190
204.490	15.582	901.669	685.401
205.504	15.605	900.517	684.556
206.519	15.396	900.032	683.278
207.534	15.483	899.365	683.062
208.548	15.544	898.003	682.219
209.563	15.545	897.703	681.932
210.577	15.417	897.406	681.129
211.592	15.548	896.588	680.979
212.607	15.517	896.231	680.520
213.621	15.692	895.419	680.553
214.636	15.650	894.746	679.810
215.650	15.549	894.157	678.896
216.665	15.679	893.418	678.798
217.680	15.709	892.985	678.531
218.694	15.735	892.622	678.299
219.709	15.793	892.081	678.063
220.723	15.821	891.250	677.483
221.738	15.673	890.745	676.446
222.753	15.765	889.539	675.840
223.767	15.746	889.076	675.351
224.782	15.780	888.399	674.913
225.796	15.737	887.718	674.165
226.811	15.855	886.831	673.902
227.826	15.794	886.284	673.184
228.840	15.760	885.918	672.709
229.855	15.687	885.235	671.840
230.869	15.783	884.546	671.641
231.884	15.847	883.505	671.048
232.899	15.793	882.988	670.379
233.913	15.689	882.213	669.318
234.928	15.727	881.831	669.118
235.942	15.613	880.947	667.935
236.957	15.696	880.249	667.679
237.972	15.627	879.820	667.018
238.986	15.654	878.943	666.402
240.001	15.727	878.333	666.170
241.015	15.886	877.408	666.038
242.030	15.864	877.285	665.800
243.045	15.845	876.583	665.130
244.059	15.789	876.187	664.553
245.074	15.871	875.392	664.212
246.088	15.937	874.524	663.756
247.103	16.079	874.136	663.961
248.117	16.047	873.431	663.241
249.132	16.069	873.040	662.972
250.147	16.207	872.760	663.245
251.161	16.193	872.213	662.714
252.176	16.303	871.422	662.486
253.190	16.430	870.860	662.500
254.205	16.413	870.377	662.007
255.220	16.534	869.619	661.844
256.234	16.526	868.978	661.266
257.249	16.481	868.477	660.651
258.263	16.466	868.122	660.266
259.278	16.439	867.282	659.462
260.293	16.394	866.911	658.947
261.307	16.576	866.513	659.295
262.322	16.555	865.608	658.465
263.336	16.628	865.262	658.430
264.351	16.549	864.769	657.687
265.366	16.617	864.097	657.382
266.380	16.601	863.407	656.736
267.395	16.594	862.446	655.920
268.409	16.570	861.557	655.096
269.424	16.517	860.994	654.403
270.439	16.593	860.666	654.391
271.453	16.462	860.021	653.335
272.468	16.395	859.474	652.603
273.482	16.400	858.681	651.961
274.497	16.475	858.149	651.788
275.512	16.482	857.263	651.085
276.526	16.468	856.760	650.592
277.541	16.525	856.313	650.416
278.555	16.524	855.582	649.800
279.570	16.623	855.251	649.871
280.585	16.712	854.351	649.468
281.599	16.804	853.958	649.466
282.614	16.608	853.430	648.255
283.628	16.598	852.823	647.699
284.643	16.764	852.113	647.739
285.657	16.772	851.399	647.169
286.672	16.598	851.098	646.218
287.687	16.646	850.504	645.894
288.701	16.609	850.421	645.631
289.716	16.669	849.244	644.908
290.730	16.691	848.723	644.542
291.745	16.754	848.481	644.540
292.760	16.903	847.514	644.315
293.774	16.996	846.524	643.856
294.789	16.941	846.623	643.668
295.803	16.998	845.719	643.141
296.818	16.947	845.294	642.566
297.833	16.766	845.015	641.611
298.847	16.782	843.845	640.727
299.862	16.894	842.901	640.376
300.876	16.970	842.582	640.365
301.891	16.997	841.874	639.870
302.906	16.934	841.714	639.456
303.920	17.114	840.626	639.251
304.935	17.126	840.171	638.894
305.949	17.025	839.805	638.177
306.964	17.120	838.972	637.844
307.979	17.068	838.480	637.219
308.993	17.065	837.785	636.623
310.008	17.156	837.592	636.761
311.022	17.270	836.949	636.645
312.037	17.232	836.304	635.954
313.052	17.175	835.603	635.151
314.066	17.060	835.065	634.257
315.081	17.042	834.346	633.590
316.095	16.992	833.870	632.985
317.110	17.021	833.367	632.653
318.125	17.069	832.518	632.131
319.139	17.033	832.287	631.765
320.154	17.123	831.858	631.719
321.168	17.042	831.527	631.113
322.183	17.076	830.837	630.658
323.197	17.070	830.309	630.181
324.212	17.096	829.921	629.925
325.227	17.101	829.406	629.496
326.241	17.188	828.857	629.349
327.256	17.064	828.211	628.344
328.270	17.122	827.784	628.176
329.285	17.046	827.103	627.324
330.300	17.119	826.580	627.143
331.314	17.156	825.947	626.744
332.329	17.074	825.464	626.017
333.343	17.256	824.894	626.200
334.358	17.251	824.172	625.580
335.373	17.454	823.359	625.652
336.387	17.278	823.421	624.998
337.402	17.440	823.089	625.287
338.416	17.434	822.135	624.484
339.431	17.472	821.599	624.160
340.446	17.543	821.155	624.028
341.460	17.597	820.760	623.872
342.475	17.589	820.365	623.487
343.489	17.656	819.398	622.941
344.504	17.677	819.372	622.943
345.519	17.681	818.806	622.470
346.533	17.889	818.141	622.669
347.548	17.627	817.778	621.383
348.562	17.727	816.796	620.946
349.577	17.533	816.460	619.931
350.592	17.654	815.722	619.756
351.606	17.534	815.388	619.011
352.621	17.653	814.753	618.905
353.635	17.541	814.355	618.142
354.650	17.345	814.605	617.565
355.665	17.572	813.815	617.735
356.679	17.597	813.324	617.397
357.694	17.700	812.877	617.378
358.708	17.655	812.164	616.620
359.723	17.675	811.612	616.217
360.738	17.768	810.882	615.945
361.752	17.756	810.120	615.266
362.767	17.698	810.205	615.068
363.781	17.906	809.747	615.416
364.796	17.951	809.431	615.282
365.810	18.037	809.008	615.218
366.825	18.099	808.253	614.811
367.840	17.981	808.266	614.345
368.854	18.099	807.533	614.157
369.869	17.995	807.307	613.555
370.883	17.969	807.240	613.358
371.898	18.014	806.072	612.576
372.913	18.041	805.425	612.128
373.927	18.016	805.073	611.714
374.942	18.162	804.112	611.453
375.956	18.206	803.694	611.240
376.971	18.143	803.364	610.707
377.986	18.172	803.146	610.592
379.000	18.231	802.730	610.434
380.015	18.316	802.052	610.165
381.029	18.249	801.215	609.238
382.044	18.207	800.662	608.614
383.059	18.285	800.402	608.640
384.073	18.160	799.314	607.314
385.088	18.354	798.889	607.625
386.102	18.152	798.288	606.401
387.117	18.163	797.715	605.950
388.132	18.200	797.383	605.775
389.146	18.072	796.996	604.972
390.161	18.221	796.522	605.087
391.175	18.399	796.224	605.436
392.190	18.278	795.960	604.755
393.205	18.247	795.559	604.287
394.219	18.326	794.752	603.900
395.234	18.339	794.353	603.587
396.248	18.258	794.240	603.162
397.263	18.025	793.415	601.663
398.278	18.234	792.765	601.853
399.292	18.225	792.145	601.296
400.307	18.074	792.210	600.763
401.321	17.982	791.969	600.204
402.336	18.212	791.439	600.555
403.350	18.288	790.914	600.371
404.365	18.256	790.659	600.012
405.380	18.261	790.083	599.539
406.394	18.496	789.630	599.965
407.409	18.532	789.062	599.605
408.423	18.612	788.782	599.619
409.438	18.521	788.484	599.022
410.453	18.507	788.004	598.555
411.467	18.625	787.625	598.626
412.482	18.702	787.061	598.414
413.496	18.709	786.791	598.180
414.511	18.754	786.329	597.933
415.526	18.727	786.095	597.608
416.540	18.720	785.722	597.246
417.555	18.775	785.204	596.991
418.569	18.772	784.578	596.453
419.584	18.811	784.053	596.135
420.599	18.854	783.624	595.906
421.613	155.847	1369.761	1792.053
422.628	134.574	1455.175	1792.142
