DTS Sentinel unit serial number:	SN413079Multiplexer serial number:	ORYXHardware model number:	OX4-SRSoftware version number:	ORYX F/W v4.00 Oryx Data Collector v3.7.2.0data status	okinstallation	princeton_trtdifferential loss correction	single-endedforward channel	channel 3reverse channel	N/Adate	2019/09/14time	05:52:35forward acquisition time	60.00reverse acquisition time	0.00gamma	496.2192k internal	0.2338k external	0.2338temperature offset calibration	1.0054default loss term (dB/km)	0.3790temperature slope calibration	1.0000multiplexer offset coefficient	1.0000multiplexer slope coefficient	1.0000fibre end	0.00T internal ref (°C)	26.87T ext. ref 1 (°C)	3.40T ext. ref 2 (°C)	21.29length (m)	temperature (°C)	Stokes	anti-Stokes-747.200	-186.547	0.459	-0.007
-746.185	-7.608	-0.246	0.167
-745.171	297.064	-0.047	0.087
-744.156	11.510	-0.345	0.265
-743.142	-119.617	0.228	0.040
-742.127	151.295	0.131	0.179
-741.112	-37.010	0.124	-0.067
-740.098	-74.275	0.350	-0.127
-739.083	-200.000	-0.023	0.172
-738.069	599.721	-0.037	0.091
-737.054	-45.458	-0.225	-0.112
-736.039	-138.011	-0.067	0.007
-735.025	94.153	-0.238	-0.271
-734.010	800.000	0.037	-0.118
-732.996	-26.370	-0.204	-0.120
-731.981	-200.000	0.030	-0.239
-730.966	6.125	-0.179	-0.133
-729.952	-3.930	0.134	-0.093
-728.937	378.780	0.010	-0.020
-727.923	0.261	-0.131	-0.094
-726.908	41.100	-0.115	0.104
-725.894	-81.525	0.133	-0.044
-724.879	-124.153	-0.196	-0.031
-723.864	-200.000	-0.014	-0.291
-722.850	-200.000	0.026	0.212
-721.835	32.496	0.172	0.149
-720.821	294.153	0.004	-0.007
-719.806	-47.440	-0.135	0.066
-718.791	-75.082	-0.248	-0.089
-717.777	368.888	-0.191	0.388
-716.762	-4.626	0.169	-0.117
-715.748	-126.771	-0.414	-0.061
-714.733	-127.256	-0.122	-0.018
-713.718	-3.934	-0.153	0.106
-712.704	-161.800	0.215	0.011
-711.689	-200.000	-0.083	0.448
-710.675	800.000	-0.013	0.039
-709.660	-200.000	0.041	-0.356
-708.645	-200.000	-0.017	0.290
-707.631	-30.822	0.226	-0.128
-706.616	800.000	-0.095	0.333
-705.602	198.528	0.212	-0.324
-704.587	207.869	0.059	-0.092
-703.572	-200.000	-0.084	-0.590
-702.558	-158.404	-0.141	-0.008
-701.543	-6.254	-0.173	-0.118
-700.529	246.810	-0.057	-0.097
-699.514	133.411	-0.211	0.274
-698.499	54.577	-0.094	0.091
-697.485	800.000	0.061	-0.216
-696.470	352.753	0.093	-0.185
-695.456	26.176	0.441	-0.369
-694.441	-200.000	0.421	-0.001
-693.426	215.473	0.103	-0.163
-692.412	-109.153	-0.232	-0.049
-691.397	800.000	0.145	-0.428
-690.383	277.974	-0.012	-0.022
-689.368	-167.869	-0.316	-0.012
-688.354	143.670	0.069	0.092
-687.339	-196.536	-0.150	-0.001
-686.324	192.095	0.153	0.231
-685.310	800.000	0.096	-0.293
-684.295	-89.625	-0.300	0.088
-683.281	800.000	-0.068	-0.262
-682.266	87.292	-0.057	0.063
-681.251	-54.546	-0.045	-0.020
-680.237	2.692	-0.492	0.357
-679.222	-58.074	0.076	-0.033
-678.208	800.000	-0.068	-0.201
-677.193	142.549	-0.084	-0.112
-676.178	476.934	-0.073	-0.166
-675.164	235.430	-0.155	-0.256
-674.149	116.758	-0.057	0.071
-673.135	619.924	0.123	-0.310
-672.120	212.551	-0.075	-0.119
-671.105	-200.000	0.024	0.174
-670.091	-200.000	0.024	0.252
-669.076	800.000	-0.071	0.267
-668.062	96.061	-0.335	0.383
-667.047	-200.000	0.051	-0.425
-666.032	-187.368	0.398	-0.005
-665.018	800.000	0.096	-0.308
-664.003	18.991	0.050	-0.040
-662.989	-167.334	0.209	-0.008
-661.974	135.115	0.034	0.044
-660.959	-200.000	0.070	-0.444
-659.945	224.806	0.117	-0.190
-658.930	444.579	0.135	0.296
-657.916	-200.000	0.004	-0.235
-656.901	278.188	0.046	-0.081
-655.886	343.257	-0.022	-0.044
-654.872	128.064	-0.112	-0.143
-653.857	84.858	-0.173	-0.190
-652.843	627.056	0.105	-0.265
-651.828	-115.452	-0.359	0.068
-650.814	-200.000	0.021	0.212
-649.799	-200.000	0.011	-0.329
-648.784	-200.000	-0.048	-0.297
-647.770	-123.444	-0.092	-0.015
-646.755	-200.000	0.006	0.126
-645.741	94.233	-0.141	0.160
-644.726	-175.455	-0.233	-0.006
-643.711	243.104	0.110	-0.184
-642.697	122.143	0.137	0.171
-641.682	-30.598	-0.231	0.131
-640.668	-200.000	0.052	0.431
-639.653	800.000	-0.072	-0.276
-638.638	-108.080	-0.413	0.089
-637.624	445.953	0.136	-0.298
-636.609	-129.338	0.121	-0.017
-635.595	62.335	0.093	0.093
-634.580	171.407	-0.090	-0.128
-633.565	800.000	0.073	-0.207
-632.551	-24.579	0.195	0.116
-631.536	-78.952	-0.080	-0.027
-630.522	800.000	-0.025	-0.080
-629.507	437.834	-0.010	-0.022
-628.492	-68.762	-0.160	0.062
-627.478	-94.609	-0.019	-0.005
-626.463	-200.000	-0.054	-0.272
-625.449	800.000	-0.070	-0.257
-624.434	800.000	-0.137	-0.432
-623.419	162.683	0.083	0.117
-622.405	518.443	0.127	0.297
-621.390	800.000	0.110	0.316
-620.376	-35.495	-0.192	0.104
-619.361	-107.858	0.190	-0.041
-618.346	-200.000	0.014	-0.332
-617.332	-18.156	-0.085	-0.053
-616.317	85.680	-0.222	-0.244
-615.303	298.333	-0.082	-0.150
-614.288	-200.000	0.042	0.226
-613.273	-200.000	0.019	-0.137
-612.259	102.247	-0.039	0.046
-611.244	-14.950	-0.302	0.193
-610.230	800.000	-0.061	0.252
-609.215	-128.525	-0.088	0.012
-608.201	58.897	-0.238	0.234
-607.186	-180.057	-0.132	0.003
-606.171	4.322	0.225	-0.164
-605.157	-200.000	0.013	0.059
-604.142	198.049	0.130	-0.199
-603.128	-115.313	-0.382	0.072
-602.113	-13.054	-0.359	-0.233
-601.098	-135.214	-0.119	-0.014
-600.084	0.006	0.069	0.049
-599.069	-22.586	0.100	-0.061
-598.055	11.822	-0.303	-0.233
-597.040	-200.000	-0.021	0.311
-596.025	-96.354	0.079	0.021
-595.011	-99.588	-0.238	0.060
-593.996	-72.722	0.521	0.191
-592.982	-49.806	-0.233	0.110
-591.967	800.000	-0.089	0.294
-590.952	-69.044	0.192	0.074
-589.938	-64.263	0.241	0.098
-588.923	-200.000	0.049	0.246
-587.909	-200.000	-0.023	-0.180
-586.894	-119.224	-0.245	-0.043
-585.879	299.660	0.093	0.171
-584.865	-45.911	-0.075	0.037
-583.850	-200.000	0.013	-0.150
-582.836	74.657	-0.049	0.052
-581.821	62.475	-0.225	0.224
-580.806	28.201	-0.257	0.217
-579.792	118.163	-0.183	-0.225
-578.777	1.313	0.379	-0.271
-577.763	-198.253	0.236	0.001
-576.748	-200.000	-0.008	-0.083
-575.733	394.231	-0.245	-0.509
-574.719	-99.619	0.440	-0.110
-573.704	406.642	0.126	0.266
-572.690	28.414	-0.223	-0.188
-571.675	-52.680	-0.215	0.099
-570.661	800.000	-0.088	0.277
-569.646	-200.000	0.034	-0.207
-568.631	-200.000	0.040	-0.415
-567.617	122.686	0.081	-0.101
-566.602	-200.000	0.018	0.084
-565.588	10.912	0.065	-0.049
-564.573	503.396	-0.067	-0.155
-563.558	-156.071	0.276	0.017
-562.544	-200.000	-0.062	-0.350
-561.529	-131.147	-0.288	-0.038
-560.515	30.430	0.068	-0.058
-559.500	219.312	-0.056	0.089
-558.485	171.230	0.095	-0.136
-557.471	-136.254	-0.010	-0.001
-556.456	500.101	0.068	0.156
-555.442	-161.536	0.057	-0.003
-554.427	-200.000	-0.044	0.313
-553.412	34.427	0.314	0.273
-552.398	-18.123	-0.220	-0.137
-551.383	-34.631	0.075	-0.041
-550.369	-55.728	-0.420	-0.187
-549.354	800.000	0.013	-0.051
-548.339	418.420	-0.075	0.161
-547.325	202.228	0.118	-0.182
-546.310	800.000	0.023	0.094
-545.296	-131.378	0.222	-0.029
-544.281	259.602	0.080	-0.138
-543.266	144.622	-0.263	0.349
-542.252	77.197	-0.208	-0.220
-541.237	236.872	0.150	0.247
-540.223	800.000	-0.016	0.055
-539.208	-149.383	0.505	0.040
-538.193	-150.842	-0.030	-0.002
-537.179	-55.682	0.180	-0.080
-536.164	800.000	-0.021	-0.068
-535.150	800.000	0.061	0.185
-534.135	266.824	-0.134	0.234
-533.121	-11.968	-0.137	0.089
-532.106	4.874	-0.175	-0.128
-531.091	-200.000	0.043	0.484
-530.077	-198.182	0.208	-0.001
-529.062	-91.000	0.107	0.031
-528.048	-5.771	0.092	-0.063
-527.033	-129.984	-0.168	0.023
-526.018	-200.000	-0.027	0.129
-525.004	-64.138	0.487	0.198
-523.989	42.566	0.055	-0.050
-522.975	-107.417	0.083	-0.018
-521.960	-24.145	0.122	0.072
-520.945	87.461	-0.159	0.175
-519.931	53.874	-0.015	-0.014
-518.916	37.655	-0.181	-0.159
-517.902	172.566	-0.054	-0.077
-516.887	-163.118	-0.044	0.002
-515.872	8.560	-0.294	0.220
-514.858	52.523	0.049	0.047
-513.843	221.639	-0.072	0.116
-512.829	21.605	-0.098	0.079
-511.814	508.503	0.058	0.134
-510.799	184.695	0.058	-0.085
-509.785	620.505	0.120	0.299
-508.770	417.648	-0.068	0.145
-507.756	-106.895	0.201	0.044
-506.741	-200.000	-0.009	0.172
-505.726	216.987	-0.201	-0.318
-504.712	318.404	-0.187	0.353
-503.697	134.995	-0.135	-0.174
-502.683	-72.289	0.254	-0.094
-501.668	25.182	-0.154	-0.127
-500.653	-56.467	-0.082	-0.036
-499.639	800.000	0.034	0.122
-498.624	-7.420	0.295	-0.198
-497.610	-44.724	-0.158	-0.078
-496.595	23.617	0.155	-0.127
-495.581	-200.000	-0.376	0.002
-494.566	-24.856	0.154	0.091
-493.551	-146.509	0.132	-0.011
-492.537	22.505	-0.118	-0.096
-491.522	-173.999	0.219	-0.006
-490.508	84.429	-0.188	-0.204
-489.493	-10.708	0.074	0.049
-488.478	-12.979	-0.180	0.116
-487.464	98.125	0.155	0.178
-486.449	800.000	-0.061	0.252
-485.435	323.384	-0.058	0.110
-484.420	-4.225	0.227	-0.156
-483.405	52.052	0.087	0.083
-482.391	800.000	-0.077	-0.287
-481.376	-75.944	-0.169	0.059
-480.362	-143.603	0.424	-0.040
-479.347	-200.000	0.012	0.156
-478.332	-200.000	0.019	0.099
-477.318	800.000	-0.126	0.458
-476.303	-106.938	0.384	0.084
-475.289	-50.358	0.165	0.078
-474.274	-88.866	0.343	-0.101
-473.259	552.656	-0.140	-0.334
-472.245	387.464	-0.056	0.116
-471.230	-67.675	-0.076	-0.029
-470.216	9.376	0.065	0.049
-469.201	-142.248	0.167	-0.016
-468.186	36.218	0.142	-0.125
-467.172	116.782	0.152	0.185
-466.157	0.025	-0.233	-0.165
-465.143	-110.135	-0.258	0.053
-464.128	75.054	-0.288	0.301
-463.113	800.000	0.025	0.100
-462.099	-77.087	-0.222	-0.077
-461.084	100.180	0.160	-0.184
-460.070	-101.539	0.188	0.045
-459.055	33.052	-0.192	0.165
-458.040	356.340	-0.098	-0.194
-457.026	-60.090	0.274	0.116
-456.011	14.598	0.304	-0.236
-454.997	695.995	-0.090	-0.233
-453.982	-144.585	-0.317	-0.029
-452.968	102.197	-0.028	-0.032
-451.953	15.986	-0.120	0.094
-450.938	-200.000	-0.002	-0.012
-449.924	55.380	-0.397	-0.381
-448.909	800.000	0.099	0.328
-447.895	800.000	-0.009	-0.036
-446.880	340.011	-0.012	-0.023
-445.865	363.871	0.174	0.347
-444.851	77.342	-0.199	-0.210
-443.836	-118.883	-0.233	0.041
-442.822	245.741	0.140	-0.234
-441.807	85.378	0.146	0.159
-440.792	-200.000	-0.092	-0.428
-439.778	-95.834	-0.210	0.056
-438.763	4.524	-0.116	-0.085
-437.749	-29.579	0.146	-0.083
-436.734	471.066	-0.091	-0.203
-435.719	76.930	0.125	0.131
-434.705	-200.000	-0.021	0.155
-433.690	-115.477	0.098	0.018
-432.676	356.129	0.149	0.295
-431.661	37.944	0.192	-0.169
-430.646	-102.128	-0.167	-0.040
-429.632	432.443	-0.022	0.047
-428.617	-4.160	-0.076	0.052
-427.603	-66.724	0.173	0.068
-426.588	-121.946	-0.027	-0.004
-425.573	-35.193	-0.125	-0.067
-424.559	-54.076	-0.265	-0.119
-423.544	589.867	0.126	0.309
-422.530	45.867	0.111	0.102
-421.515	439.524	-0.089	0.192
-420.500	16.341	0.197	0.154
-419.486	800.000	-0.044	0.156
-418.471	-52.623	0.194	-0.089
-417.457	800.000	0.014	-0.041
-416.442	-200.000	0.078	0.390
-415.428	206.248	0.235	0.363
-414.413	800.000	-0.100	0.356
-413.398	-23.185	0.406	0.242
-412.384	148.748	0.143	-0.192
-411.369	-14.875	0.035	0.022
-410.355	36.039	0.235	-0.205
-409.340	-106.522	0.007	-0.002
-408.325	-46.207	0.292	0.142
-407.311	-174.160	-0.102	-0.003
-406.296	141.842	-0.181	0.238
-405.282	-60.614	0.024	0.010
-404.267	800.000	-0.064	-0.190
-403.252	17.366	0.108	0.085
-402.238	-129.368	-0.135	0.019
-401.223	-31.219	0.211	0.118
-400.209	-41.944	0.259	0.132
-399.194	53.688	0.101	0.096
-398.179	-91.101	-0.271	-0.077
-397.165	-87.000	0.151	-0.046
-396.150	-128.711	-0.315	0.044
-395.136	500.520	0.124	0.284
-394.121	393.759	-0.167	0.344
-393.106	800.000	0.076	-0.312
-392.092	-159.357	0.134	-0.007
-391.077	-104.627	-0.210	0.048
-390.063	175.969	-0.069	-0.098
-389.048	-176.897	-0.029	-0.001
-388.033	-61.058	0.287	0.120
-387.019	-95.085	0.268	-0.072
-386.004	-31.553	-0.096	0.053
-384.990	150.382	-0.040	0.054
-383.975	-76.631	-0.158	0.055
-382.960	-200.000	0.012	-0.077
-381.946	177.971	-0.099	-0.142
-380.931	-82.802	-0.163	-0.052
-379.917	-102.540	0.332	-0.079
-378.902	787.029	-0.088	0.239
-377.888	16.542	0.111	0.086
-376.873	-200.000	0.001	-0.111
-375.858	0.413	-0.170	-0.120
-374.844	-200.000	0.059	0.308
-373.829	3.463	-0.285	0.205
-372.815	-79.863	-0.177	-0.059
-371.800	391.365	-0.052	-0.107
-370.785	1.793	0.167	0.119
-369.771	202.140	-0.128	0.195
-368.756	-200.000	0.026	0.167
-367.742	-179.940	-0.105	0.002
-366.727	-139.623	-0.454	0.048
-365.712	16.399	0.122	0.095
-364.698	-200.000	0.003	-0.075
-363.683	-136.651	-0.231	0.026
-362.669	215.576	0.213	-0.334
-361.654	139.749	-0.059	0.077
-360.639	414.341	-0.065	-0.136
-359.625	54.853	0.111	-0.106
-358.610	-127.935	0.098	0.014
-357.596	-132.135	0.332	-0.043
-356.581	-127.180	-0.293	0.042
-355.566	164.667	0.159	-0.222
-354.552	-157.066	-0.183	0.011
-353.537	86.161	0.109	-0.119
-352.523	-123.766	-0.279	-0.044
-351.508	70.861	-0.124	-0.127
-350.493	-200.000	0.003	-0.116
-349.479	-114.334	0.125	-0.024
-348.464	-102.047	-0.103	-0.025
-347.450	147.532	0.104	-0.138
-346.435	-200.000	-0.005	-0.240
-345.420	-124.038	0.445	-0.069
-344.406	-150.772	-0.126	-0.009
-343.391	-200.000	0.007	0.157
-342.377	-5.150	-0.071	0.048
-341.362	193.478	0.119	-0.177
-340.348	57.469	0.206	0.199
-339.333	28.085	-0.208	0.174
-338.318	-200.000	-0.017	-0.129
-337.304	166.001	0.105	-0.146
-336.289	800.000	0.092	-0.290
-335.275	-8.011	-0.175	0.117
-334.260	4.837	-0.182	0.132
-333.245	-2.598	0.170	-0.118
-332.231	-200.000	0.032	0.233
-331.216	-200.000	-0.004	-0.029
-330.202	-200.000	0.011	-0.140
-329.187	-200.000	-0.008	0.037
-328.172	196.031	0.146	0.219
-327.158	319.037	0.054	-0.101
-326.143	-200.000	0.059	-0.425
-325.129	107.835	-0.193	-0.227
-324.114	329.621	0.169	-0.321
-323.099	270.571	-0.046	0.081
-322.085	76.788	-0.115	-0.120
-321.070	157.543	-0.028	0.039
-320.056	-53.906	0.255	-0.115
-319.041	129.123	0.038	-0.047
-318.026	800.000	-0.066	-0.187
-317.012	137.039	-0.033	0.042
-315.997	69.586	0.107	-0.109
-314.983	-30.151	0.263	0.148
-313.968	800.000	-0.105	-0.288
-312.953	98.247	0.111	-0.126
-311.939	-88.649	-0.082	-0.024
-310.924	-62.334	-0.396	0.163
-309.910	-200.000	0.048	-0.232
-308.895	-10.707	0.106	0.069
-307.880	-200.000	0.021	-0.201
-306.866	-47.308	-0.303	-0.145
-305.851	116.181	-0.194	0.234
-304.837	800.000	0.130	0.471
-303.822	-69.277	0.087	0.033
-302.807	-146.305	0.136	0.012
-301.793	-200.000	-0.054	-0.458
-300.778	-113.060	0.208	-0.040
-299.764	-42.332	0.161	0.081
-298.749	800.000	0.062	-0.243
-297.735	112.234	-0.222	0.264
-296.720	15.753	0.275	0.213
-295.705	-160.179	0.377	-0.020
-294.691	-61.854	-0.281	0.116
-293.676	-200.000	-0.035	0.180
-292.662	800.000	0.010	0.041
-291.647	149.661	-0.062	0.083
-290.632	-114.260	0.059	-0.011
-289.618	33.000	0.099	0.085
-288.603	250.834	-0.092	0.154
-287.589	396.924	-0.090	0.185
-286.574	800.000	0.062	-0.205
-285.559	-107.746	-0.109	0.023
-284.545	-64.449	-0.420	0.168
-283.530	-7.799	-0.078	-0.052
-282.516	-159.244	0.279	0.015
-281.501	-21.285	-0.167	-0.101
-280.486	-124.559	0.312	0.048
-279.472	-45.649	-0.034	0.017
-278.457	369.988	0.145	0.290
-277.443	-140.763	0.235	-0.024
-276.428	-5.048	-0.275	0.186
-275.413	110.502	-0.193	0.228
-274.399	-17.632	-0.276	0.171
-273.384	111.717	-0.154	0.183
-272.370	41.121	-0.271	-0.241
-271.355	452.889	0.057	0.125
-270.340	62.711	0.124	0.123
-269.326	79.106	-0.061	-0.065
-268.311	800.000	-0.057	-0.239
-267.297	-55.022	-0.255	0.113
-266.282	158.092	-0.084	-0.115
-265.267	-31.387	-0.204	-0.113
-264.253	800.000	-0.063	0.223
-263.238	-13.095	-0.358	-0.229
-262.224	374.223	-0.027	-0.054
-261.209	140.588	-0.174	-0.227
-260.195	-21.009	-0.111	-0.067
-259.180	65.725	0.236	0.235
-258.165	800.000	0.029	-0.103
-257.151	199.655	-0.108	0.164
-256.136	83.349	0.110	-0.118
-255.122	20.565	-0.126	-0.101
-254.107	-95.163	0.298	-0.079
-253.092	-126.320	0.232	0.034
-252.078	-16.280	-0.078	0.049
-251.063	-107.081	0.192	0.042
-250.049	293.281	-0.149	-0.267
-249.034	30.379	0.224	0.188
-248.019	-56.299	0.093	-0.041
-247.005	244.544	0.011	0.019
-245.990	-166.196	0.214	-0.009
-244.976	16.380	-0.200	0.155
-243.961	257.210	0.057	0.096
-242.946	-108.159	0.155	0.033
-241.932	-200.000	0.008	0.249
-240.917	278.643	0.088	-0.155
-239.903	-200.000	-0.005	0.201
-238.888	-72.173	-0.263	-0.096
-237.873	-131.047	0.178	0.023
-236.859	-53.051	-0.147	-0.067
-235.844	-200.000	-0.003	0.264
-234.830	-35.493	-0.194	-0.104
-233.815	-76.403	0.724	0.251
-232.800	-108.933	-0.310	-0.065
-231.786	-170.894	-0.323	-0.011
-230.771	-46.270	0.247	-0.120
-229.757	621.744	0.057	0.142
-228.742	-132.996	0.169	0.021
-227.727	47.887	-0.174	-0.160
-226.713	-200.000	0.005	-0.074
-225.698	-200.000	0.007	0.286
-224.684	121.396	0.184	0.225
-223.669	236.054	-0.094	0.153
-222.655	-71.389	-0.304	-0.112
-221.640	-193.164	-0.207	-0.002
-220.625	800.000	0.096	-0.264
-219.611	-32.977	0.386	-0.211
-218.596	156.512	-0.315	-0.427
-217.582	-184.244	0.175	-0.003
-216.567	-96.870	-0.442	0.114
-215.552	800.000	0.080	0.250
-214.538	-110.891	-0.333	0.067
-213.523	23.520	-0.159	-0.129
-212.509	118.515	-0.273	-0.331
-211.494	-152.483	0.028	-0.002
-210.479	16.058	0.297	0.230
-209.465	800.000	0.064	-0.228
-208.450	-150.267	0.468	0.036
-207.436	-200.000	-0.033	0.241
-206.421	324.398	-0.082	-0.154
-205.406	-146.780	0.410	-0.035
-204.392	-200.000	-0.003	0.239
-203.377	208.724	0.112	-0.172
-202.363	334.888	0.076	0.145
-201.348	-200.000	-0.021	0.197
-200.333	-80.062	-0.111	-0.037
-199.319	-200.000	-0.047	-0.235
-198.304	182.214	0.020	0.029
-197.290	339.325	-0.104	-0.199
-196.275	198.110	0.121	0.182
-195.260	139.762	-0.142	-0.184
-194.246	422.145	-0.145	-0.306
-193.231	206.400	0.095	-0.145
-192.217	-108.217	0.462	0.098
-191.202	-200.000	0.013	0.075
-190.187	106.276	0.013	-0.015
-189.173	-52.791	-0.090	-0.041
-188.158	-105.671	0.273	-0.061
-187.144	-32.660	0.081	-0.044
-186.129	-74.425	0.224	-0.079
-185.114	800.000	0.044	-0.182
-184.100	-28.364	-0.314	-0.178
-183.085	359.187	0.121	-0.238
-182.071	800.000	0.081	0.298
-181.056	800.000	0.079	-0.237
-180.042	-200.000	-0.045	-0.281
-179.027	-41.186	0.334	-0.169
-178.012	-186.735	-0.375	-0.005
-176.998	-14.736	0.144	-0.090
-175.983	182.916	0.073	0.106
-174.969	-32.126	-0.290	-0.159
-173.954	48.162	-0.207	-0.190
-172.939	98.353	0.112	-0.127
-171.925	-38.541	0.254	-0.132
-170.910	230.865	-0.031	-0.050
-169.896	86.682	0.100	-0.109
-168.881	-76.379	-0.074	0.026
-167.866	82.419	-0.035	0.037
-166.852	-128.704	0.152	-0.021
-165.837	100.356	-0.169	0.193
-164.823	110.146	0.190	0.224
-163.808	141.102	-0.201	0.261
-162.793	-24.558	-0.157	0.091
-161.779	404.565	-0.085	0.175
-160.764	-89.898	0.177	-0.051
-159.750	800.000	-0.110	-0.413
-158.735	-11.433	0.226	0.146
-157.720	-200.000	-0.021	-0.589
-156.706	800.000	-0.047	-0.145
-155.691	274.048	0.067	0.115
-154.677	95.702	0.118	-0.132
-153.662	-7.538	0.279	-0.185
-152.647	471.974	0.030	-0.067
-151.633	-200.000	0.017	0.201
-150.618	318.738	-0.138	-0.256
-149.604	-200.000	0.051	-0.275
-148.589	-71.624	-0.304	-0.111
-147.574	-145.530	0.156	0.014
-146.560	-106.890	0.092	0.020
-145.545	-49.869	0.089	0.041
-144.531	-200.000	0.076	0.390
-143.516	-168.354	-0.224	-0.008
-142.502	-200.000	-0.016	-0.129
-141.487	737.580	-0.138	0.362
-140.472	41.873	-0.306	0.272
-139.458	-200.000	-0.029	-0.158
-138.443	224.509	-0.139	-0.220
-137.429	-190.217	0.299	-0.003
-136.414	351.347	0.103	0.200
-135.399	188.015	-0.125	0.183
-134.385	-200.000	0.001	-0.010
-133.370	-17.928	-0.294	0.180
-132.356	-5.249	-0.326	-0.220
-131.341	430.488	0.164	0.348
-130.326	-13.668	0.075	0.048
-129.312	-200.000	0.058	0.260
-128.297	-200.000	0.019	0.406
-127.283	-60.653	0.248	0.103
-126.268	-200.000	-0.006	-0.079
-125.253	286.681	0.121	0.213
-124.239	285.792	0.152	-0.269
-123.224	274.190	-0.099	-0.171
-122.210	278.684	0.116	0.202
-121.195	22.380	-0.215	0.172
-120.180	179.958	0.061	-0.087
-119.166	-86.839	-0.174	0.052
-118.151	-123.685	0.349	-0.054
-117.137	-9.679	0.102	0.067
-116.122	-200.000	0.000	-0.246
-115.107	-5.627	-0.250	0.168
-114.093	487.729	0.272	0.608
-113.078	800.000	-0.071	-0.224
-112.064	-108.301	0.089	-0.019
-111.049	-149.568	-0.416	-0.032
-110.034	443.548	-0.052	0.112
-109.020	393.785	0.138	0.280
-108.005	-200.000	-0.033	0.253
-106.991	-57.240	0.075	0.032
-105.976	225.327	-0.092	0.145
-104.962	-200.000	0.004	0.235
-103.947	295.872	0.183	-0.327
-102.932	114.907	-0.040	-0.048
-101.918	-47.644	-0.198	0.094
-100.903	-144.674	0.242	-0.022
-99.889	149.582	-0.065	-0.086
-98.874	52.421	0.083	-0.078
-97.859	-103.194	-0.278	-0.064
-96.845	-16.626	-0.143	-0.088
-95.830	11.949	0.060	0.045
-94.816	-1.932	0.214	0.147
-93.801	-119.413	-0.177	0.030
-92.786	171.938	0.085	0.120
-91.772	48.650	-0.252	-0.231
-90.757	568.974	0.091	0.215
-89.743	32.026	0.195	-0.165
-88.728	-0.333	-0.094	0.066
-87.713	-39.303	-0.034	0.017
-86.699	80.145	-0.095	0.100
-85.684	44.430	-0.227	0.204
-84.670	-88.079	0.067	0.020
-83.655	-4.447	0.084	-0.056
-82.640	242.643	-0.146	-0.240
-81.626	412.845	0.051	0.107
-80.611	-200.000	0.033	0.293
-79.597	88.991	-0.177	-0.193
-78.582	53.753	0.146	-0.137
-77.567	76.411	-0.225	-0.233
-76.553	-200.000	0.048	-0.434
-75.538	164.870	-0.293	-0.404
-74.524	102.786	-0.104	-0.119
-73.509	164.191	0.226	-0.311
-72.494	800.000	0.049	0.160
-71.480	-192.868	0.283	0.003
-70.465	-108.201	0.114	-0.024
-69.451	655.225	0.051	-0.128
-68.436	134.115	-0.092	0.117
-67.422	-155.571	-0.113	0.007
-66.407	123.020	0.080	-0.097
-65.392	131.971	0.073	-0.092
-64.378	-5.166	-0.030	-0.020
-63.363	541.721	0.098	0.228
-62.349	-200.000	0.016	0.134
-61.334	88.962	-1.131	-1.230
-60.319	-19.301	0.824	0.500
-59.305	373.858	-0.465	-0.924
-58.290	664.957	0.587	1.481
-57.276	388.611	0.708	1.432
-56.261	-200.000	116.873	658.892
-55.246	525.828	1535.983	3532.792
-54.232	176.347	2708.208	3843.138
-53.217	107.696	2182.195	2537.802
-52.203	37.755	1701.322	1475.837
-51.188	30.071	1516.949	1263.684
-50.173	27.730	1492.497	1227.538
-49.159	52.041	1551.430	1443.384
-48.144	50.101	1566.515	1444.080
-47.130	30.189	1522.377	1268.814
-46.115	27.190	1506.822	1235.456
-45.100	26.975	1503.522	1231.244
-44.086	26.887	1501.551	1228.986
-43.071	26.873	1499.389	1227.066
-42.057	26.850	1498.168	1225.867
-41.042	26.866	1496.311	1224.405
-40.027	26.913	1495.144	1223.723
-39.013	26.878	1493.635	1222.198
-37.998	26.763	1492.803	1220.699
-36.984	26.928	1491.127	1220.386
-35.969	26.768	1490.078	1218.402
-34.954	26.859	1488.863	1217.973
-33.940	26.818	1487.457	1216.498
-32.925	26.814	1486.080	1215.301
-31.911	26.859	1484.488	1214.248
-30.896	26.863	1483.366	1213.310
-29.881	26.969	1481.705	1212.615
-28.867	26.907	1480.602	1211.249
-27.852	26.961	1479.798	1210.900
-26.838	26.904	1478.551	1209.454
-25.823	26.897	1477.079	1208.159
-24.809	27.038	1474.661	1207.065
-23.794	26.917	1473.806	1205.515
-22.779	26.816	1472.889	1204.048
-21.765	26.946	1471.444	1203.680
-20.750	26.945	1470.571	1202.914
-19.736	27.025	1468.888	1202.018
-18.721	27.067	1467.559	1201.163
-17.706	26.960	1466.992	1199.937
-16.692	26.900	1466.124	1198.789
-15.677	26.914	1464.851	1197.791
-14.663	26.884	1464.009	1196.853
-13.648	26.754	1463.300	1195.371
-12.633	26.892	1461.936	1195.116
-11.619	26.846	1461.874	1194.717
-10.604	26.810	1460.896	1193.635
-9.590	26.923	1459.465	1193.160
-8.575	26.615	1459.045	1190.743
-7.560	26.770	1458.363	1191.163
-6.546	26.834	1456.862	1190.305
-5.531	26.946	1455.897	1190.204
-4.517	26.896	1455.620	1189.602
-3.502	26.852	1454.158	1188.077
-2.487	26.880	1452.983	1187.251
-1.473	26.857	1452.187	1186.402
-0.458	26.844	1450.934	1185.245
0.556	27.049	1440.768	1173.667
1.571	23.924	1415.344	1132.984
2.586	20.329	1354.715	1062.389
3.600	18.738	1271.197	987.662
4.615	17.361	1226.668	945.332
5.629	14.947	1170.040	888.798
6.644	8.643	1088.749	795.717
7.659	4.091	1052.558	747.276
8.673	3.340	1047.823	740.243
9.688	3.419	1044.025	737.869
10.702	3.365	1042.532	736.492
11.717	3.476	1040.855	735.774
12.731	5.078	1041.955	744.130
13.746	11.419	1050.506	780.583
14.761	17.774	1058.147	816.717
15.775	19.452	1060.481	826.491
16.790	19.087	1058.783	823.350
17.804	18.183	1056.660	817.310
18.819	17.168	1054.877	811.013
19.834	16.706	1054.042	808.094
20.848	16.547	1052.903	806.393
21.863	16.335	1052.640	805.111
22.877	16.038	1051.921	803.074
23.892	16.023	1050.537	801.874
24.907	15.891	1050.186	800.905
25.921	15.917	1049.137	800.157
26.936	16.067	1048.126	800.032
27.950	16.032	1047.245	799.119
28.965	15.986	1046.061	797.929
29.980	16.214	1044.922	798.068
30.994	16.227	1044.078	797.414
32.009	16.364	1043.192	797.312
33.023	16.340	1042.508	796.608
34.038	16.346	1041.681	795.934
35.053	16.238	1040.520	794.465
36.067	16.179	1039.428	793.285
37.082	16.166	1038.630	792.544
38.096	16.153	1038.287	792.154
39.111	16.199	1037.664	791.821
40.126	16.301	1036.502	791.343
41.140	16.191	1035.505	789.995
42.155	15.952	1034.131	787.762
43.169	15.840	1033.132	786.408
44.184	15.900	1031.865	785.652
45.199	15.864	1030.489	784.367
46.213	15.815	1030.348	783.964
47.228	15.909	1029.164	783.431
48.242	16.057	1028.111	783.247
49.257	16.163	1027.127	782.921
50.271	16.148	1026.467	782.279
51.286	15.945	1025.838	780.790
52.301	16.239	1024.644	781.173
53.315	16.103	1023.780	779.816
54.330	16.065	1023.238	779.156
55.344	16.051	1022.221	778.251
56.359	15.983	1020.771	776.765
57.374	16.033	1020.373	776.624
58.388	16.070	1019.366	775.957
59.403	15.879	1018.758	774.548
60.417	15.796	1018.060	773.567
61.432	15.831	1017.339	773.111
62.447	15.760	1016.848	772.344
63.461	15.733	1015.785	771.344
64.476	15.739	1014.652	770.444
65.490	15.752	1013.604	769.641
66.505	15.719	1013.096	769.035
67.520	15.607	1012.660	768.122
68.534	15.722	1011.955	768.048
69.549	15.882	1010.633	767.706
70.563	15.862	1010.138	767.171
71.578	15.751	1009.292	765.953
72.593	15.751	1008.646	765.396
73.607	15.592	1007.259	763.552
74.622	15.667	1006.593	763.321
75.636	15.599	1005.486	762.106
76.651	15.704	1004.714	761.927
77.666	15.767	1003.717	761.389
78.680	15.719	1002.848	760.446
79.695	15.681	1002.824	760.190
80.709	15.803	1002.116	760.138
81.724	15.856	1001.271	759.669
82.739	15.892	1000.712	759.338
83.753	15.974	1000.051	759.140
84.768	16.060	999.557	759.084
85.782	16.231	998.729	759.159
86.797	16.357	997.984	759.089
87.812	16.341	997.273	758.410
88.826	16.218	996.065	756.875
89.841	16.263	995.463	756.552
90.855	16.282	994.771	756.042
91.870	16.232	994.243	755.353
92.884	16.283	993.410	754.878
93.899	16.219	992.902	754.140
94.914	16.250	991.545	753.180
95.928	16.330	991.120	753.149
96.943	16.314	990.433	752.487
97.957	16.257	989.451	751.422
98.972	16.305	988.274	750.677
99.987	16.318	987.748	750.267
101.001	16.156	987.535	749.320
102.016	16.300	985.972	748.706
103.030	16.302	985.358	748.183
104.045	16.363	984.325	747.603
105.060	16.293	983.684	746.739
106.074	16.214	982.495	745.423
107.089	15.938	981.632	743.481
108.103	15.887	980.657	742.454
109.118	15.890	979.865	741.800
110.133	15.887	978.596	740.761
111.147	15.848	977.949	740.035
112.162	15.734	977.346	739.014
113.176	15.769	976.528	738.483
114.191	15.897	975.527	738.222
115.206	15.951	974.624	737.709
116.220	15.945	973.827	737.014
117.235	16.058	972.749	736.627
118.249	15.870	972.321	735.418
119.264	15.932	971.196	734.771
120.279	15.771	970.930	733.802
121.293	15.872	969.931	733.424
122.308	15.759	969.064	732.210
123.322	15.818	967.973	731.578
124.337	15.749	966.926	730.420
125.352	15.703	965.674	729.213
126.366	15.586	964.856	728.022
127.381	15.704	963.543	727.478
128.395	15.838	962.240	727.010
129.410	15.751	961.771	726.213
130.424	15.818	960.761	725.675
131.439	15.812	959.912	724.945
132.454	15.815	959.298	724.431
133.468	15.807	958.550	723.767
134.483	15.909	958.163	723.851
135.497	15.877	957.184	722.910
136.512	15.890	956.671	722.515
137.527	15.929	955.884	722.021
138.541	15.897	955.263	721.353
139.556	15.946	954.405	720.851
140.570	15.901	954.018	720.303
141.585	15.992	952.793	719.700
142.600	16.103	952.386	719.806
143.614	16.272	951.682	719.931
144.629	16.228	951.272	719.367
145.643	16.342	950.180	718.964
146.658	16.437	948.702	718.184
147.673	16.108	948.382	716.482
148.687	16.194	947.316	715.978
149.702	16.035	946.646	714.734
150.716	16.018	945.629	713.830
151.731	15.915	945.024	712.877
152.746	15.952	944.171	712.327
153.760	16.012	943.704	712.165
154.775	16.143	942.597	711.819
155.789	16.291	941.712	711.711
156.804	16.211	941.414	711.086
157.819	16.215	940.431	710.296
158.833	16.222	940.011	709.946
159.848	16.266	939.250	709.496
160.862	16.513	938.605	709.982
161.877	16.407	937.942	708.973
162.892	16.213	936.958	707.351
163.906	16.199	935.693	706.278
164.921	16.002	935.153	704.980
165.935	16.044	934.199	704.376
166.950	16.089	933.197	703.744
167.964	16.335	932.091	703.876
168.979	16.152	931.165	702.350
169.994	16.177	930.309	701.746
171.008	16.074	929.690	700.791
172.023	16.075	929.202	700.366
173.037	16.364	927.980	700.581
174.052	16.448	927.152	700.243
175.067	16.455	926.489	699.708
176.081	16.179	925.746	697.941
177.096	16.107	924.898	696.946
178.110	16.198	923.857	696.473
179.125	16.272	923.353	696.337
180.140	16.306	922.276	695.606
181.154	16.302	921.567	694.993
182.169	16.204	921.419	694.413
183.183	16.407	921.109	694.956
184.198	16.439	920.205	694.341
185.213	16.446	919.358	693.672
186.227	16.588	918.744	693.728
187.242	16.551	918.640	693.436
188.256	16.621	917.734	692.977
189.271	16.710	916.843	692.609
190.286	16.632	916.360	691.865
191.300	16.497	915.219	690.389
192.315	16.246	914.456	688.729
193.329	15.986	914.055	687.307
194.344	16.054	912.899	686.650
195.359	16.256	912.542	687.147
196.373	16.341	911.833	686.897
197.388	16.330	911.858	686.809
198.402	16.619	911.245	687.463
199.417	16.768	910.828	687.689
200.432	16.857	910.575	687.799
201.446	16.663	910.347	686.779
202.461	16.996	909.436	687.382
203.475	17.052	909.006	687.221
204.490	16.971	908.393	686.370
205.504	16.785	907.302	684.736
206.519	16.703	906.509	683.745
207.534	16.703	905.687	683.063
208.548	16.664	905.224	682.496
209.563	16.723	904.333	682.002
210.577	16.740	903.511	681.390
211.592	16.708	902.895	680.738
212.607	16.807	902.830	681.025
213.621	16.992	901.811	680.940
214.636	16.991	901.387	680.556
215.650	16.934	900.662	679.720
216.665	16.891	900.229	679.159
217.680	16.966	899.807	679.082
218.694	16.891	899.377	678.397
219.709	17.139	898.658	678.786
220.723	17.086	898.041	678.046
221.738	17.054	897.263	677.272
222.753	16.979	896.691	676.481
223.767	16.957	896.053	675.855
224.782	16.908	895.451	675.144
225.796	17.162	894.550	675.416
226.811	17.262	893.698	675.107
227.826	17.099	893.175	674.006
228.840	16.902	892.936	672.985
229.855	17.030	891.726	672.522
230.869	16.975	891.352	671.962
231.884	17.019	890.560	671.480
232.899	17.110	889.479	670.963
233.913	17.058	889.246	670.526
234.928	16.998	888.563	669.711
235.942	16.903	887.500	668.476
236.957	16.758	886.891	667.387
237.972	16.917	886.605	667.742
238.986	16.913	885.793	667.053
240.001	16.948	884.963	666.506
241.015	17.042	884.122	666.184
242.030	16.910	884.001	665.514
243.045	17.152	883.156	665.769
244.059	17.164	882.361	665.159
245.074	17.050	882.056	664.422
246.088	16.954	881.635	663.672
247.103	17.216	880.795	664.006
248.117	17.287	880.396	663.922
249.132	17.290	880.087	663.645
250.147	17.545	879.350	664.021
251.161	17.582	879.087	663.909
252.176	17.666	878.337	663.612
253.190	17.788	877.694	663.541
254.205	17.655	877.213	662.601
255.220	17.753	876.346	662.271
256.234	17.737	875.721	661.675
257.249	17.704	875.371	661.224
258.263	17.831	874.901	661.304
259.278	17.677	874.086	660.033
260.293	17.784	873.348	659.832
261.307	17.830	873.023	659.704
262.322	17.776	872.633	659.142
263.336	17.826	872.124	658.894
264.351	18.026	871.320	659.000
265.366	17.954	870.545	658.079
266.380	17.920	870.051	657.517
267.395	17.878	869.592	656.950
268.409	17.903	868.594	656.231
269.424	17.998	867.352	655.599
270.439	17.907	867.132	655.026
271.453	17.917	866.109	654.236
272.468	17.839	865.835	653.671
273.482	17.754	865.052	652.696
274.497	17.704	864.613	652.116
275.512	17.762	863.589	651.509
276.526	17.820	862.978	651.212
277.541	17.839	862.421	650.805
278.555	17.807	861.883	650.218
279.570	17.844	861.756	650.208
280.585	18.086	860.890	650.416
281.599	18.141	860.451	650.238
282.614	18.072	859.503	649.202
283.628	17.972	858.986	648.375
284.643	17.948	858.740	648.040
285.657	17.945	858.115	647.500
286.672	17.928	857.321	646.777
287.687	18.074	856.801	646.884
288.701	17.879	856.768	646.063
289.716	18.155	855.864	646.366
290.730	18.014	855.194	645.271
291.745	18.110	854.654	645.169
292.760	18.107	854.059	644.651
293.774	18.055	853.445	643.936
294.789	18.171	852.901	643.902
295.803	18.191	852.548	643.655
296.818	18.142	851.740	642.802
297.833	18.051	851.041	641.879
298.847	18.109	850.054	641.295
299.862	18.057	849.754	640.817
300.876	18.135	849.089	640.552
301.891	18.138	848.169	639.810
302.906	18.132	847.896	639.525
303.920	18.338	846.963	639.535
304.935	18.450	846.623	639.639
305.949	18.551	845.826	639.358
306.964	18.586	845.052	638.846
307.979	18.370	844.692	637.712
308.993	18.331	844.524	637.384
310.008	18.579	843.679	637.614
311.022	18.550	843.372	637.218
312.037	18.489	842.704	636.429
313.052	18.347	842.406	635.620
314.066	18.294	841.536	634.713
315.081	18.275	840.610	633.886
316.095	18.269	840.123	633.443
317.110	18.293	839.766	633.204
318.125	18.335	839.177	632.858
319.139	18.383	838.783	632.683
320.154	18.351	838.157	632.038
321.168	18.259	837.684	631.287
322.183	18.302	837.058	630.917
323.197	18.434	836.696	631.074
324.212	18.378	836.373	630.568
325.227	18.304	835.730	629.754
326.241	18.298	835.424	629.447
327.256	18.438	834.552	629.250
328.270	18.388	833.931	628.541
329.285	18.339	833.189	627.748
330.300	18.418	832.845	627.721
331.314	18.437	832.299	627.324
332.329	18.340	831.562	626.358
333.343	18.540	830.932	626.558
334.358	18.687	830.561	626.760
335.373	18.614	830.008	626.023
336.387	18.535	829.634	625.395
337.402	18.668	829.086	625.413
338.416	18.633	828.369	624.688
339.431	18.825	828.131	625.154
340.446	18.956	827.206	624.875
341.460	18.845	827.205	624.416
342.475	18.973	826.317	624.157
343.489	18.866	826.089	623.541
344.504	19.095	825.433	623.818
345.519	19.080	825.082	623.444
346.533	19.150	824.411	623.135
347.548	19.170	824.146	622.951
348.562	18.963	823.388	621.575
349.577	19.003	822.750	621.186
350.592	18.840	822.217	620.139
351.606	18.754	821.461	619.205
352.621	18.733	821.230	618.898
353.635	18.869	820.889	619.075
354.650	18.938	820.295	618.822
355.665	18.821	820.172	618.255
356.679	18.788	819.711	617.732
357.694	18.870	819.083	617.501
358.708	18.892	818.815	617.320
359.723	18.981	818.003	616.975
360.738	19.002	817.282	616.453
361.752	18.783	816.814	615.259
362.767	18.910	816.823	615.666
363.781	18.922	816.421	615.351
364.796	19.147	815.732	615.582
365.810	19.165	815.627	615.513
366.825	19.407	815.065	615.898
367.840	19.500	814.595	615.822
368.854	19.482	814.486	615.619
369.869	19.249	813.869	614.267
370.883	19.334	812.678	613.617
371.898	19.419	811.854	613.242
372.913	19.300	811.816	612.738
373.927	19.381	811.625	612.829
374.942	19.330	810.619	611.833
375.956	19.389	810.111	611.606
376.971	19.502	809.506	611.494
377.986	19.568	809.091	611.360
379.000	19.648	808.567	611.195
380.015	19.696	807.957	610.847
381.029	19.522	808.047	610.247
382.044	19.484	807.253	609.458
383.059	19.511	806.474	608.912
384.073	19.610	805.902	608.774
385.088	19.607	805.491	608.402
386.102	19.523	804.971	607.658
387.117	19.453	804.111	606.709
388.132	19.508	803.671	606.515
389.146	19.358	803.380	605.717
390.161	19.553	802.966	606.035
391.175	19.602	802.687	605.942
392.190	19.546	802.286	605.391
393.205	19.419	802.143	604.784
394.219	19.423	801.365	604.157
395.234	19.636	800.789	604.415
396.248	19.479	800.486	603.584
397.263	19.355	799.508	602.360
398.278	19.321	799.201	601.956
399.292	19.284	798.678	601.381
400.307	19.364	798.202	601.248
401.321	19.433	797.937	601.236
402.336	19.334	797.578	600.565
403.350	19.361	797.721	600.713
404.365	19.508	796.920	600.571
405.380	19.684	796.471	600.789
406.394	19.781	796.110	600.802
407.409	19.821	795.655	600.545
408.423	19.892	795.261	600.440
409.438	19.863	795.171	600.219
410.453	20.051	794.382	600.221
411.467	19.968	793.715	599.375
412.482	20.070	793.280	599.347
413.496	19.961	793.134	598.807
414.511	20.116	792.906	599.120
415.526	20.031	792.280	598.300
416.540	20.054	792.167	598.241
417.555	20.186	791.172	597.891
418.569	20.069	790.974	597.285
419.584	20.099	790.430	596.923
420.599	19.946	790.052	596.060
421.613	161.851	1371.347	1797.221
422.628	140.187	1456.027	1797.295
