DTS Sentinel unit serial number:	SN413079Multiplexer serial number:	ORYXHardware model number:	OX4-SRSoftware version number:	ORYX F/W v4.00 Oryx Data Collector v3.7.2.0data status	okinstallation	princeton_trtdifferential loss correction	single-endedforward channel	channel 3reverse channel	N/Adate	2019/09/13time	01:32:35forward acquisition time	60.00reverse acquisition time	0.00gamma	496.2192k internal	0.2333k external	0.2333temperature offset calibration	1.0122default loss term (dB/km)	0.3790temperature slope calibration	1.0000multiplexer offset coefficient	1.0000multiplexer slope coefficient	1.0000fibre end	0.00T internal ref (°C)	27.80T ext. ref 1 (°C)	3.75T ext. ref 2 (°C)	22.46length (m)	temperature (°C)	Stokes	anti-Stokes-747.200	-97.341	0.213	-0.056
-746.185	-80.892	0.118	-0.039
-745.171	31.790	-0.134	0.116
-744.156	-132.478	-0.195	0.025
-743.142	302.946	0.078	-0.146
-742.127	-15.522	-0.277	0.178
-741.112	-37.018	0.307	-0.165
-740.098	739.768	-0.105	-0.282
-739.083	800.000	0.054	-0.191
-738.069	115.765	-0.125	0.154
-737.054	12.013	0.346	-0.267
-736.039	-121.637	-0.193	0.032
-735.025	3.842	-0.103	-0.076
-734.010	-157.867	-0.532	-0.032
-732.996	-94.476	-0.438	-0.120
-731.981	800.000	-0.011	-0.038
-730.966	-13.904	-0.111	-0.072
-729.952	93.529	-0.119	-0.136
-728.937	-200.000	-0.197	-0.000
-727.923	10.340	-0.370	-0.283
-726.908	-36.696	0.163	-0.088
-725.894	42.794	-0.072	0.066
-724.879	5.969	0.116	0.086
-723.864	-159.669	-0.078	-0.004
-722.850	-6.954	-0.202	-0.138
-721.835	-200.000	0.003	0.156
-720.821	-111.503	0.233	0.048
-719.806	-200.000	0.028	0.333
-718.791	722.437	0.006	-0.015
-717.777	800.000	0.042	0.148
-716.762	-148.490	-0.204	0.017
-715.748	-76.716	-0.207	0.073
-714.733	-7.793	-0.417	0.283
-713.718	-123.411	-0.404	0.065
-712.704	389.898	0.143	0.298
-711.689	262.623	0.023	-0.040
-710.675	-159.125	0.149	-0.008
-709.660	-33.827	0.174	-0.096
-708.645	-128.659	-0.339	0.048
-707.631	-200.000	0.045	0.434
-706.616	-110.899	0.212	0.044
-705.602	-48.557	0.202	-0.098
-704.587	22.660	0.136	-0.112
-703.572	-200.000	0.016	-0.081
-702.558	800.000	0.032	-0.096
-701.543	613.738	0.032	0.079
-700.529	257.937	-0.114	-0.197
-699.514	128.573	0.167	-0.214
-698.499	490.970	0.169	0.388
-697.485	152.871	-0.048	-0.065
-696.470	378.914	0.041	-0.084
-695.456	-9.104	0.142	0.095
-694.441	-92.565	-0.264	0.074
-693.426	195.526	0.188	-0.286
-692.412	-55.143	-0.316	-0.143
-691.397	42.947	-0.103	-0.095
-690.383	82.245	-0.250	-0.272
-689.368	128.061	-0.031	-0.039
-688.354	-11.248	-0.249	-0.165
-687.339	30.122	-0.084	-0.072
-686.324	31.115	-0.058	0.050
-685.310	583.692	-0.047	-0.117
-684.295	-200.000	0.016	0.078
-683.281	-79.741	-0.029	0.010
-682.266	-200.000	0.008	-0.201
-681.251	732.831	-0.168	-0.451
-680.237	-200.000	-0.046	-0.289
-679.222	245.102	-0.184	-0.311
-678.208	-83.225	-0.055	-0.018
-677.193	-114.724	0.278	-0.053
-676.178	-58.048	-0.475	0.208
-675.164	-91.001	-0.193	-0.056
-674.149	-43.788	-0.101	-0.051
-673.135	-180.085	0.393	-0.008
-672.120	800.000	-0.132	0.367
-671.105	269.206	-0.034	0.059
-670.091	-116.995	0.154	0.028
-669.076	-200.000	-0.037	0.162
-668.062	-200.000	-0.018	0.131
-667.047	75.770	0.146	0.155
-666.032	209.867	-0.053	0.083
-665.018	-177.628	0.306	-0.007
-664.003	-45.061	0.187	-0.093
-662.989	800.000	0.019	-0.058
-661.974	-25.000	-0.253	-0.150
-660.959	17.007	-0.081	-0.064
-659.945	356.424	-0.079	0.159
-658.930	800.000	-0.063	-0.250
-657.916	-121.664	-0.323	0.054
-656.901	-200.000	0.030	-0.281
-655.886	62.576	0.287	-0.288
-654.872	-200.000	0.031	-0.481
-653.857	800.000	0.099	-0.319
-652.843	-200.000	0.029	-0.151
-651.828	-200.000	-0.018	0.293
-650.814	19.587	-0.127	-0.102
-649.799	-29.500	-0.377	-0.216
-648.784	72.038	0.276	-0.288
-647.770	-191.786	-0.211	-0.002
-646.755	-8.891	0.139	0.093
-645.741	87.775	0.080	0.089
-644.726	-115.863	-0.122	0.023
-643.711	-152.139	0.078	-0.006
-642.697	49.026	0.324	-0.305
-641.682	176.487	-0.024	-0.034
-640.668	714.434	-0.083	-0.221
-639.653	-144.211	-0.276	-0.026
-638.638	12.613	0.117	0.091
-637.624	193.348	-0.040	-0.061
-636.609	-200.000	-0.054	0.320
-635.595	-137.946	-0.398	0.044
-634.580	93.913	0.277	0.315
-633.565	142.553	0.167	-0.222
-632.551	-200.000	-0.075	0.337
-631.536	-200.000	-0.087	-0.410
-630.522	204.524	0.036	-0.056
-629.507	-77.933	-0.131	0.045
-628.492	-92.886	-0.066	0.018
-627.478	-37.308	-0.093	-0.050
-626.463	-200.000	0.038	0.233
-625.449	-162.372	-0.337	-0.017
-624.434	-26.457	-0.472	-0.277
-623.419	467.878	-0.068	0.153
-622.405	23.024	-0.033	0.027
-621.390	194.508	-0.055	-0.083
-620.376	191.046	0.147	-0.221
-619.361	-54.314	0.057	0.026
-618.346	800.000	0.078	0.308
-617.332	-107.123	0.061	-0.014
-616.317	800.000	0.135	-0.374
-615.303	-73.710	0.123	0.045
-614.288	-83.831	0.072	0.023
-613.273	800.000	0.022	0.074
-612.259	119.643	0.043	-0.054
-611.244	56.150	0.095	-0.092
-610.230	800.000	-0.070	-0.232
-609.215	-11.658	0.158	-0.104
-608.201	-89.781	0.293	0.086
-607.186	800.000	-0.085	0.323
-606.171	-30.618	0.150	0.085
-605.157	344.733	-0.063	0.124
-604.142	800.000	-0.012	0.050
-603.128	88.376	-0.071	-0.078
-602.113	-58.423	-0.171	0.074
-601.098	-9.657	-0.099	-0.066
-600.084	348.458	0.102	-0.201
-599.069	55.037	-0.248	-0.240
-598.055	-200.000	0.062	0.278
-597.040	-44.840	-0.390	0.194
-596.025	800.000	0.066	-0.188
-595.011	24.172	0.136	0.112
-593.996	291.393	0.029	-0.053
-592.982	-38.828	-0.092	0.049
-591.967	45.610	-0.121	-0.111
-590.952	-200.000	-0.025	-0.215
-589.938	49.764	0.072	-0.068
-588.923	67.564	0.205	0.210
-587.909	-149.507	-0.137	-0.011
-586.894	-63.139	-0.069	-0.028
-585.879	800.000	-0.062	0.179
-584.865	-200.000	-0.004	-0.042
-583.850	343.089	0.141	0.275
-582.836	45.933	0.115	0.106
-581.821	-98.980	-0.133	0.034
-580.806	354.440	-0.169	-0.336
-579.792	800.000	0.044	-0.174
-578.777	-200.000	-0.061	0.522
-577.763	-62.740	0.184	-0.076
-576.748	800.000	-0.062	-0.220
-575.733	-116.332	0.371	-0.069
-574.719	236.798	-0.159	0.264
-573.704	-47.206	0.206	-0.100
-572.690	-40.616	0.192	0.099
-571.675	-55.048	-0.151	0.068
-570.661	-200.000	0.016	-0.178
-569.646	20.201	-0.175	-0.141
-568.631	-64.111	-0.155	0.063
-567.617	25.492	-0.103	-0.085
-566.602	800.000	0.072	-0.223
-565.588	327.932	-0.031	0.059
-564.573	-200.000	0.002	-0.013
-563.558	-92.308	0.433	0.122
-562.544	-71.281	0.131	-0.049
-561.529	46.441	0.322	-0.298
-560.515	800.000	0.063	0.182
-559.500	-45.309	-0.310	0.153
-558.485	-200.000	-0.017	-0.209
-557.471	-112.026	0.182	0.037
-556.456	42.352	0.073	0.066
-555.442	-87.882	-0.080	0.024
-554.427	-80.258	-0.172	-0.058
-553.412	339.598	0.046	0.090
-552.398	697.172	0.107	-0.281
-551.383	44.927	-0.202	0.186
-550.369	448.841	0.069	-0.151
-549.354	-85.454	0.246	0.077
-548.339	11.633	-0.172	0.131
-547.325	-200.000	-0.000	0.223
-546.310	-122.972	-0.102	-0.016
-545.296	-62.307	-0.277	-0.115
-544.281	-141.703	-0.121	0.012
-543.266	29.405	0.119	0.101
-542.252	-139.031	-0.070	0.008
-541.237	800.000	0.051	-0.162
-540.223	11.689	-0.081	-0.062
-539.208	191.775	0.084	-0.126
-538.193	-162.170	-0.466	-0.023
-537.179	-200.000	-0.040	-0.226
-536.164	800.000	0.121	-0.366
-535.150	128.116	0.121	-0.154
-534.135	15.551	-0.281	0.220
-533.121	-49.640	0.264	0.125
-532.106	559.243	-0.082	0.198
-531.091	-200.000	-0.009	-0.143
-530.077	-126.861	0.099	0.015
-529.062	-200.000	-0.025	0.202
-528.048	163.412	-0.106	-0.148
-527.033	-200.000	-0.003	-0.283
-526.018	800.000	-0.088	-0.306
-525.004	25.482	0.107	-0.089
-523.989	800.000	-0.085	0.299
-522.975	-200.000	0.003	0.175
-521.960	765.508	-0.039	0.107
-520.945	284.385	-0.127	0.228
-519.931	800.000	-0.049	0.186
-518.916	-89.398	-0.190	0.056
-517.902	-31.432	0.116	-0.065
-516.887	448.502	0.033	0.072
-515.872	101.113	0.313	-0.363
-514.858	-103.956	0.371	-0.086
-513.843	-0.736	-0.293	-0.207
-512.829	-41.126	-0.129	0.066
-511.814	800.000	-0.081	-0.323
-510.799	-100.256	0.373	0.092
-509.785	96.708	-0.214	0.244
-508.770	-51.956	-0.227	-0.105
-507.756	-200.000	0.010	0.073
-506.741	492.057	0.096	-0.219
-505.726	-65.652	-0.468	-0.187
-504.712	-38.750	-0.294	-0.155
-503.697	800.000	0.089	0.330
-502.683	351.197	-0.154	-0.303
-501.668	-106.869	-0.266	-0.059
-500.653	-8.306	0.044	-0.029
-499.639	179.114	0.219	0.320
-498.624	142.825	-0.150	-0.198
-497.610	-105.780	-0.229	0.052
-496.595	21.176	-0.264	-0.213
-495.581	-200.000	-0.008	-0.100
-494.566	122.023	-0.129	-0.160
-493.551	-63.177	-0.139	-0.057
-492.537	-176.525	0.143	0.004
-491.522	-200.000	-0.037	-0.484
-490.508	800.000	0.087	-0.366
-489.493	-39.074	0.149	0.078
-488.478	-64.592	-0.083	-0.033
-487.464	538.599	0.079	-0.188
-486.449	800.000	-0.049	0.213
-485.435	-200.000	0.016	0.200
-484.420	800.000	0.030	0.094
-483.405	-18.586	0.067	0.042
-482.391	-13.592	-0.227	-0.146
-481.376	-77.373	0.189	0.065
-480.362	800.000	0.103	0.391
-479.347	-1.042	0.122	0.086
-478.332	-200.000	-0.001	-0.412
-477.318	-200.000	-0.029	0.186
-476.303	-121.415	0.307	-0.051
-475.289	300.754	-0.165	-0.302
-474.274	-200.000	0.056	-0.410
-473.259	-200.000	-0.018	0.089
-472.245	324.749	0.121	0.230
-471.230	-200.000	0.008	-0.084
-470.216	-143.699	-0.092	-0.009
-469.201	-116.681	0.047	-0.009
-468.186	326.793	0.061	-0.115
-467.172	-77.695	-0.141	-0.049
-466.157	-113.505	-0.145	0.028
-465.143	222.516	0.096	-0.153
-464.128	561.653	0.110	0.264
-463.113	466.200	-0.116	0.259
-462.099	-200.000	-0.064	-0.364
-461.084	-45.889	0.229	-0.112
-460.070	800.000	0.034	-0.112
-459.055	-5.486	-0.178	-0.121
-458.040	-200.000	0.006	-0.080
-457.026	-200.000	-0.020	-0.187
-456.011	78.024	-0.064	0.068
-454.997	-200.000	0.051	0.381
-453.982	193.167	-0.123	0.185
-452.968	-81.997	-0.148	0.048
-451.953	113.529	0.082	-0.099
-450.938	-200.000	-0.005	0.173
-449.924	-65.439	0.313	0.125
-448.909	4.226	0.417	0.304
-447.895	72.458	0.053	-0.055
-446.880	6.411	0.092	0.068
-445.865	-200.000	-0.004	-0.192
-444.851	-200.000	-0.012	0.113
-443.836	144.706	-0.038	0.051
-442.822	-113.178	-0.054	0.011
-441.807	-78.793	-0.162	-0.055
-440.792	218.447	0.122	0.194
-439.778	51.866	-0.256	0.242
-438.763	800.000	-0.046	0.168
-437.749	21.412	-0.183	0.147
-436.734	-30.107	-0.232	-0.131
-435.719	150.303	0.054	-0.072
-434.705	-100.388	0.433	-0.107
-433.690	-75.085	0.131	-0.047
-432.676	-33.301	0.211	0.116
-431.661	136.893	-0.289	-0.375
-430.646	323.841	-0.130	0.247
-429.632	-88.434	-0.177	-0.052
-428.617	800.000	0.074	0.212
-427.603	-14.723	0.158	0.101
-426.588	-151.690	-0.152	0.011
-425.573	800.000	-0.079	-0.272
-424.559	-56.081	-0.197	-0.087
-423.544	77.969	-0.081	0.086
-422.530	-88.090	-0.164	0.049
-421.515	8.667	-0.285	-0.213
-420.500	-72.848	0.198	-0.072
-419.486	-19.098	-0.216	0.133
-418.471	-78.123	0.074	0.025
-417.457	-200.000	0.008	-0.102
-416.442	-173.457	0.396	0.012
-415.428	-200.000	-0.011	0.253
-414.413	-200.000	-0.004	-0.204
-413.398	-22.680	0.191	-0.114
-412.384	-53.751	0.140	0.063
-411.369	38.882	0.096	0.085
-410.355	-200.000	0.001	-0.059
-409.340	594.002	0.147	-0.360
-408.325	-114.269	-0.303	-0.058
-407.311	-62.039	0.048	-0.020
-406.296	146.198	-0.044	-0.058
-405.282	-48.304	-0.182	-0.087
-404.267	30.844	0.033	0.028
-403.252	-44.889	0.236	-0.116
-402.238	756.072	-0.087	0.232
-401.223	800.000	0.122	-0.425
-400.209	-111.342	0.590	0.119
-399.194	-168.378	0.219	-0.008
-398.179	-35.147	-0.196	0.106
-397.165	-80.320	-0.159	-0.053
-396.150	-68.390	0.365	0.141
-395.136	-37.956	0.353	0.186
-394.121	-85.708	-0.243	-0.075
-393.106	-126.976	0.471	0.069
-392.092	-183.163	0.152	0.003
-391.077	-200.000	0.014	-0.127
-390.063	-98.063	0.322	0.082
-389.048	296.208	-0.144	0.262
-388.033	800.000	-0.016	-0.058
-387.019	800.000	-0.009	0.029
-386.004	100.437	0.182	-0.210
-384.990	267.727	0.081	0.140
-383.975	-200.000	0.079	0.390
-382.960	0.366	-0.141	0.099
-381.946	-81.296	0.302	0.099
-380.931	175.843	0.114	0.163
-379.917	-30.287	-0.063	-0.036
-378.902	-62.229	0.068	0.028
-377.888	187.207	-0.118	-0.174
-376.873	346.656	0.059	0.116
-375.858	67.969	0.048	-0.049
-374.844	-200.000	0.000	0.089
-373.829	-88.340	-0.386	0.114
-372.815	-0.791	-0.043	-0.030
-371.800	800.000	0.077	0.303
-370.785	-34.218	0.054	-0.029
-369.771	99.309	-0.103	0.119
-368.756	74.779	-0.156	0.163
-367.742	185.461	0.079	-0.116
-366.727	-200.000	-0.006	-0.035
-365.712	-3.176	-0.167	-0.115
-364.698	103.351	-0.056	-0.065
-363.683	447.086	0.059	0.128
-362.669	-108.248	0.146	0.031
-361.654	601.803	-0.179	-0.439
-360.639	-141.536	0.227	0.023
-359.625	-200.000	0.008	-0.354
-358.610	-64.294	0.119	0.048
-357.596	-200.000	0.050	-0.564
-356.581	-1.320	-0.394	0.275
-355.566	22.741	0.229	-0.186
-354.552	800.000	-0.122	0.404
-353.537	-200.000	0.015	0.210
-352.523	-25.506	-0.091	0.053
-351.508	-93.708	0.103	0.028
-350.493	143.739	-0.269	0.354
-349.479	-167.258	0.233	0.009
-348.464	-14.541	-0.209	0.133
-347.450	50.217	0.117	-0.110
-346.435	-164.180	-0.157	-0.007
-345.420	-46.139	0.357	0.174
-344.406	-80.844	0.083	0.027
-343.391	-193.893	-0.108	-0.001
-342.377	-200.000	-0.242	0.001
-341.362	-200.000	-0.006	-0.118
-340.348	-90.946	0.263	-0.075
-339.333	-200.000	0.000	-0.132
-338.318	-44.882	-0.305	-0.150
-337.304	389.229	-0.114	-0.233
-336.289	231.402	0.094	0.152
-335.275	139.461	0.155	0.202
-334.260	-139.536	0.325	0.034
-333.245	70.519	-0.325	-0.333
-332.231	275.038	-0.166	0.291
-331.216	192.451	0.060	-0.089
-330.202	-106.178	-0.125	-0.028
-329.187	-200.000	-0.007	-0.155
-328.172	-163.070	-0.099	0.005
-327.158	700.641	0.080	0.207
-326.143	-89.195	-0.188	-0.055
-325.129	-0.169	-0.021	0.015
-324.114	-22.391	0.244	0.146
-323.099	800.000	0.054	0.170
-322.085	-113.185	0.352	0.068
-321.070	-106.904	0.203	0.044
-320.056	191.048	-0.177	-0.263
-319.041	-200.000	0.041	-0.183
-318.026	662.303	0.091	0.231
-317.012	-83.051	-0.211	-0.067
-315.997	432.453	-0.089	0.191
-314.983	800.000	-0.022	0.077
-313.968	11.959	0.152	0.116
-312.953	-157.539	-0.050	-0.003
-311.939	800.000	0.082	-0.253
-310.924	-141.499	0.384	0.038
-309.910	-200.000	-0.021	-0.120
-308.895	-111.718	0.135	0.027
-307.880	159.637	-0.059	0.081
-306.866	-72.498	-0.302	-0.110
-305.851	-178.025	0.099	0.002
-304.837	-200.000	-0.023	0.213
-303.822	-7.133	-0.353	0.237
-302.807	-83.695	0.104	0.033
-301.793	-86.014	0.122	0.037
-300.778	146.502	-0.071	0.094
-299.764	58.850	-0.092	0.089
-298.749	263.237	-0.081	0.139
-297.735	424.158	-0.092	0.196
-296.720	654.045	0.094	0.239
-295.705	-200.000	0.055	0.373
-294.691	777.008	0.021	-0.058
-293.676	27.528	0.514	-0.427
-292.662	-173.024	-0.239	-0.007
-291.647	-87.242	0.276	0.083
-290.632	800.000	-0.133	-0.549
-289.618	800.000	0.086	0.252
-288.603	24.213	-0.307	0.250
-287.589	390.839	-0.043	0.089
-286.574	22.734	0.340	-0.275
-285.559	800.000	-0.052	-0.198
-284.545	-3.894	0.107	-0.073
-283.530	-64.713	-0.184	-0.073
-282.516	-196.778	0.067	0.000
-281.501	-200.000	0.003	0.153
-280.486	-15.939	0.031	-0.019
-279.472	-54.455	-0.168	-0.075
-278.457	-25.146	0.178	-0.104
-277.443	800.000	-0.024	-0.072
-276.428	194.063	-0.150	-0.224
-275.413	-50.901	-0.218	-0.101
-274.399	800.000	0.113	0.314
-273.384	-200.000	-0.004	0.191
-272.370	612.532	-0.062	0.153
-271.355	228.863	0.071	-0.114
-270.340	800.000	-0.114	-0.316
-269.326	113.570	-0.158	0.189
-268.311	-62.743	0.077	-0.031
-267.297	-15.103	-0.092	-0.058
-266.282	21.559	0.150	-0.120
-265.267	-18.038	-0.271	-0.167
-264.253	226.045	0.066	-0.105
-263.238	31.736	0.051	-0.043
-262.224	-98.916	-0.183	-0.046
-261.209	388.640	0.156	-0.319
-260.195	-78.080	0.089	0.030
-259.180	-108.227	0.366	0.078
-258.165	-200.000	0.028	0.157
-257.151	-38.261	-0.258	0.135
-256.136	800.000	0.077	-0.216
-255.122	-159.035	-0.156	0.009
-254.107	-200.000	0.017	-0.203
-253.092	60.735	0.117	0.114
-252.078	13.368	-0.124	-0.095
-251.063	-59.335	-0.202	0.086
-250.049	-200.000	-0.208	0.000
-249.034	39.157	-0.153	0.135
-248.019	223.026	-0.195	-0.310
-247.005	-125.083	-0.173	0.026
-245.990	-153.332	-0.436	-0.030
-244.976	-200.000	-0.024	0.325
-243.961	800.000	0.019	-0.058
-242.946	46.161	0.246	-0.225
-241.932	21.405	0.262	0.210
-240.917	-200.000	0.059	-0.386
-239.903	-120.567	0.119	0.020
-238.888	300.862	0.126	0.229
-237.873	-83.565	0.117	0.037
-236.859	11.571	0.195	0.148
-235.844	-133.803	0.169	-0.021
-234.830	164.601	0.071	0.098
-233.815	-184.876	-0.266	-0.004
-232.800	32.285	-0.277	-0.236
-231.786	-91.869	0.173	0.048
-230.771	361.212	-0.094	-0.186
-229.757	-109.768	0.291	-0.060
-228.742	-83.682	0.233	0.073
-227.727	-17.076	-0.102	-0.063
-226.713	-111.142	-0.075	-0.015
-225.698	-3.757	0.044	0.030
-224.684	48.700	-0.138	0.127
-223.669	578.911	-0.056	-0.135
-222.655	233.506	-0.083	-0.134
-221.640	-128.053	-0.181	-0.026
-220.625	-200.000	0.006	-0.128
-219.611	-42.631	0.231	0.116
-218.596	-50.056	0.151	0.071
-217.582	-51.427	0.147	-0.067
-216.567	-200.000	0.025	0.130
-215.552	-200.000	-0.021	0.358
-214.538	800.000	0.070	0.283
-213.523	-67.911	0.268	-0.103
-212.509	134.277	-0.091	-0.116
-211.494	-86.256	0.535	-0.162
-210.479	231.931	0.168	0.271
-209.465	-11.669	0.119	0.077
-208.450	-200.000	0.006	0.233
-207.436	118.783	0.107	0.131
-206.421	508.559	0.096	-0.219
-205.406	-148.225	-0.329	-0.027
-204.392	-57.776	-0.142	0.061
-203.377	-200.000	0.004	-0.195
-202.363	467.977	-0.093	0.206
-201.348	119.451	0.126	0.153
-200.333	-200.000	-0.022	0.202
-199.319	-90.410	-0.386	0.110
-198.304	-200.000	-0.031	-0.219
-197.290	220.413	-0.109	0.172
-196.275	-93.864	0.048	0.013
-195.260	575.001	0.059	-0.141
-194.246	704.310	0.105	-0.273
-193.231	-119.878	0.254	-0.043
-192.217	-200.000	-0.027	-0.290
-191.202	48.104	-0.044	0.040
-190.187	68.078	-0.217	0.218
-189.173	-118.470	-0.351	0.061
-188.158	-165.558	0.295	-0.013
-187.144	-99.803	-0.335	-0.082
-186.129	-57.615	-0.209	0.090
-185.114	95.178	0.154	0.173
-184.100	-1.568	0.045	-0.031
-183.085	225.498	-0.224	0.357
-182.071	-123.659	-0.221	0.034
-181.056	136.317	0.097	0.124
-180.042	-6.267	0.156	0.105
-179.027	276.997	-0.147	0.258
-178.012	-200.000	-0.048	-0.216
-176.998	-200.000	0.008	-0.061
-175.983	121.527	-0.082	0.100
-174.969	105.957	0.117	0.136
-173.954	-125.767	-0.166	-0.025
-172.939	91.195	0.290	-0.320
-171.925	-200.000	-0.021	0.251
-170.910	800.000	-0.131	0.422
-169.896	-167.495	-0.463	0.018
-168.881	52.279	0.262	0.246
-167.866	-200.000	-0.066	-0.455
-166.852	-49.751	0.047	0.022
-165.837	-127.842	0.145	-0.021
-164.823	-67.781	-0.192	0.074
-163.808	62.897	-0.098	0.097
-162.793	-126.479	0.315	-0.046
-161.779	800.000	0.045	-0.137
-160.764	25.250	0.046	-0.037
-159.750	-200.000	0.000	0.074
-158.735	32.055	0.430	0.364
-157.720	217.739	-0.075	0.118
-156.706	800.000	0.091	0.320
-155.691	103.301	-0.221	-0.255
-154.677	-58.286	0.290	-0.124
-153.662	-61.743	-0.374	-0.154
-152.647	-180.442	0.138	0.003
-151.633	-93.160	0.156	0.043
-150.618	-187.593	-0.330	0.004
-149.604	-30.115	-0.139	-0.078
-148.589	-110.781	-0.245	0.050
-147.574	209.988	-0.101	-0.155
-146.560	800.000	0.044	-0.136
-145.545	-200.000	-0.042	-0.306
-144.531	0.234	0.205	0.144
-143.516	235.538	-0.262	-0.425
-142.502	42.651	-0.145	-0.129
-141.487	-52.824	-0.245	-0.111
-140.472	-103.866	-0.154	0.035
-139.458	-32.667	-0.033	0.018
-138.443	800.000	-0.041	-0.130
-137.429	3.600	-0.221	-0.158
-136.414	169.751	0.206	0.289
-135.399	-80.979	0.114	-0.037
-134.385	-144.683	-0.126	-0.011
-133.370	-200.000	-0.006	0.358
-132.356	-101.233	0.357	-0.086
-131.341	-72.444	0.184	-0.067
-130.326	-200.000	0.032	0.163
-129.312	353.380	-0.166	0.324
-128.297	-200.000	-0.073	0.335
-127.283	-200.000	0.049	-0.381
-126.268	-200.000	-0.019	-0.120
-125.253	-180.794	-0.210	-0.004
-124.239	88.073	-0.219	-0.238
-123.224	13.087	0.183	-0.139
-122.210	-92.009	-0.219	0.061
-121.195	341.198	0.098	0.188
-120.180	-90.667	0.398	0.113
-119.166	800.000	-0.039	-0.122
-118.151	381.997	-0.116	-0.234
-117.137	-200.000	-0.089	0.474
-116.122	-200.000	0.032	0.177
-115.107	118.545	0.070	0.085
-114.093	-75.386	-0.144	0.050
-113.078	800.000	0.055	0.231
-112.064	139.618	0.089	0.115
-111.049	160.375	0.115	0.157
-110.034	-11.071	0.153	-0.099
-109.020	-200.000	-0.038	-0.289
-108.005	-17.839	-0.127	0.078
-106.991	158.657	0.173	-0.236
-105.976	-195.964	0.407	-0.003
-104.962	-182.513	0.031	0.001
-103.947	61.051	0.226	0.220
-102.932	216.038	0.118	0.184
-101.918	-200.000	-0.050	0.249
-100.903	-165.129	0.016	0.001
-99.889	103.667	0.202	0.232
-98.874	-200.000	-0.004	0.327
-97.859	-14.041	-0.214	-0.136
-96.845	-110.402	0.278	-0.057
-95.830	-200.000	0.030	0.168
-94.816	239.021	-0.135	-0.220
-93.801	-61.344	0.269	0.111
-92.786	-41.810	0.355	-0.179
-91.772	-200.000	0.021	0.290
-90.757	-107.947	0.219	-0.047
-89.743	-132.331	0.312	0.039
-88.728	-51.730	-0.243	0.111
-87.713	-200.000	0.028	-0.150
-86.699	-99.012	-0.135	-0.034
-85.684	800.000	0.030	0.104
-84.670	43.354	0.190	-0.170
-83.655	42.544	-0.178	-0.159
-82.640	9.347	0.337	0.250
-81.626	193.117	0.142	0.211
-80.611	-200.000	0.008	0.136
-79.597	-162.481	-0.349	0.017
-78.582	301.143	-0.014	0.025
-77.567	-30.775	-0.344	-0.191
-76.553	145.046	0.236	0.310
-75.538	-116.816	0.132	-0.024
-74.524	-6.422	-0.066	-0.044
-73.509	-45.290	0.051	-0.025
-72.494	31.019	0.178	-0.149
-71.480	800.000	0.086	0.256
-70.465	-26.501	-0.227	0.130
-69.451	-52.076	0.322	0.146
-68.436	-8.264	0.301	0.198
-67.422	-59.686	-0.364	-0.153
-66.407	-26.033	0.258	0.149
-65.392	76.580	-0.095	0.099
-64.378	-53.616	0.241	0.108
-63.363	-140.429	-0.096	-0.010
-62.349	-157.565	-0.151	0.009
-61.334	227.300	-0.849	-1.351
-60.319	34.551	0.506	0.433
-59.305	-200.000	-0.217	-1.159
-58.290	156.535	0.666	0.900
-57.276	800.000	0.525	1.421
-56.261	-200.000	113.207	646.479
-55.246	542.594	1517.879	3542.525
-54.232	179.607	2683.022	3844.863
-53.217	109.797	2169.491	2545.812
-52.203	38.349	1698.326	1480.453
-51.188	30.923	1517.904	1272.637
-50.173	28.655	1493.637	1236.980
-49.159	52.422	1551.736	1448.920
-48.144	51.473	1567.380	1456.963
-47.130	31.061	1524.254	1278.703
-46.115	28.102	1508.825	1245.593
-45.100	27.920	1505.884	1241.877
-44.086	27.875	1503.518	1239.576
-43.071	27.741	1501.698	1237.118
-42.057	27.790	1500.231	1236.187
-41.042	27.873	1498.583	1235.343
-40.027	27.736	1497.421	1233.410
-39.013	27.748	1495.959	1232.241
-37.998	27.745	1494.924	1231.321
-36.984	27.750	1493.426	1230.069
-35.969	27.777	1492.615	1229.531
-34.954	27.838	1490.466	1228.127
-33.940	27.714	1489.725	1226.635
-32.925	27.682	1487.969	1224.920
-31.911	27.785	1486.500	1224.354
-30.896	27.807	1485.118	1223.313
-29.881	27.805	1484.377	1222.642
-28.867	27.904	1482.443	1221.664
-27.852	27.840	1481.589	1220.485
-26.838	27.847	1480.464	1219.558
-25.823	27.785	1479.030	1217.915
-24.809	27.951	1476.502	1216.886
-23.794	27.892	1475.782	1215.857
-22.779	27.826	1474.328	1214.166
-21.765	27.850	1473.498	1213.595
-20.750	27.861	1472.423	1212.737
-19.736	27.844	1471.263	1211.619
-18.721	27.757	1470.170	1210.097
-17.706	27.813	1469.359	1209.752
-16.692	27.875	1467.776	1208.812
-15.677	27.813	1467.062	1207.760
-14.663	27.792	1466.132	1206.809
-13.648	27.801	1465.214	1206.068
-12.633	27.774	1465.063	1205.716
-11.619	27.752	1463.532	1204.262
-10.604	27.779	1462.800	1203.791
-9.590	27.829	1461.819	1203.264
-8.575	27.794	1461.433	1202.667
-7.560	27.769	1460.185	1201.430
-6.546	27.738	1459.633	1200.727
-5.531	27.785	1458.849	1200.338
-4.517	27.799	1457.632	1199.384
-3.502	27.722	1456.630	1198.004
-2.487	27.755	1456.118	1197.755
-1.473	27.744	1454.206	1196.063
-0.458	27.844	1453.149	1195.802
0.556	29.285	1443.384	1184.493
1.571	26.193	1419.214	1144.981
2.586	22.665	1361.440	1076.772
3.600	20.992	1279.507	1002.275
4.615	19.764	1233.153	959.070
5.629	17.251	1176.621	901.707
6.644	10.172	1094.027	803.297
7.659	4.588	1057.279	749.391
8.673	4.011	1051.601	742.533
9.688	3.673	1048.400	738.591
10.702	3.732	1045.996	737.113
11.717	3.584	1044.680	735.413
12.731	6.070	1046.601	748.558
13.746	13.776	1056.818	792.746
14.761	20.675	1066.035	832.725
15.775	22.717	1067.694	843.725
16.790	22.423	1065.963	840.878
17.804	21.486	1064.485	835.170
18.819	20.715	1063.260	830.453
19.834	20.311	1062.007	827.477
20.848	20.352	1061.300	827.047
21.863	20.470	1060.639	827.022
22.877	20.304	1060.346	825.932
23.892	20.167	1059.270	824.370
24.907	19.990	1058.751	823.049
25.921	19.970	1057.445	821.868
26.936	19.870	1056.794	820.816
27.950	19.886	1055.872	820.101
28.965	19.912	1054.648	819.203
29.980	19.882	1053.922	818.425
30.994	20.071	1052.634	818.244
32.009	20.316	1052.045	818.869
33.023	20.316	1051.053	818.025
34.038	20.396	1050.268	817.719
35.053	20.238	1049.235	816.097
36.067	20.071	1048.183	814.420
37.082	19.919	1047.690	813.251
38.096	20.051	1046.578	812.937
39.111	20.175	1046.291	813.224
40.126	20.301	1045.476	813.110
41.140	20.122	1044.014	811.063
42.155	19.796	1042.745	808.481
43.169	19.444	1041.774	806.015
44.184	19.535	1040.223	805.164
45.199	19.448	1039.039	803.772
46.213	19.451	1038.850	803.569
47.228	19.625	1037.837	803.524
48.242	19.905	1037.331	804.362
49.257	20.140	1036.569	804.791
50.271	20.006	1036.171	803.791
51.286	19.969	1035.282	802.856
52.301	20.134	1034.180	802.695
53.315	20.144	1033.911	802.462
54.330	19.980	1032.762	800.742
55.344	19.834	1031.634	799.120
56.359	19.806	1030.274	797.868
57.374	19.799	1029.816	797.412
58.388	19.741	1028.967	796.417
59.403	19.471	1028.348	794.624
60.417	19.423	1027.621	793.771
61.432	19.433	1026.766	793.084
62.447	19.370	1026.454	792.484
63.461	19.301	1025.449	791.320
64.476	19.250	1024.694	790.435
65.490	19.172	1023.585	789.153
66.505	19.208	1022.653	788.527
67.520	19.183	1021.961	787.812
68.534	19.195	1021.809	787.681
69.549	19.244	1020.499	786.821
70.563	19.353	1019.339	786.357
71.578	19.141	1018.867	784.954
72.593	18.941	1017.940	783.260
73.607	18.886	1016.573	781.892
74.622	18.918	1015.581	781.204
75.636	18.940	1014.853	780.676
76.651	18.965	1014.568	780.502
77.666	19.112	1013.324	780.140
78.680	19.165	1012.607	779.761
79.695	19.128	1012.525	779.459
80.709	19.148	1011.671	778.825
81.724	19.276	1011.152	778.934
82.739	19.430	1010.450	779.018
83.753	19.432	1010.090	778.682
84.768	19.792	1009.688	779.925
85.782	20.134	1009.079	780.927
86.797	20.570	1008.440	782.329
87.812	20.631	1007.517	781.817
88.826	20.247	1006.412	779.166
89.841	20.137	1005.905	778.208
90.855	20.274	1005.130	778.155
91.870	20.344	1004.701	778.069
92.884	20.543	1003.523	777.981
93.899	20.265	1003.381	776.556
94.914	20.245	1002.075	775.385
95.928	20.406	1001.324	775.457
96.943	20.507	1000.412	775.133
97.957	20.315	999.422	773.442
98.972	20.287	998.547	772.568
99.987	20.195	998.045	771.706
101.001	20.318	997.206	771.534
102.016	20.283	996.074	770.436
103.030	20.088	995.585	769.122
104.045	20.321	994.345	769.127
105.060	20.398	993.286	768.582
106.074	20.199	992.483	767.013
107.089	19.875	991.441	764.709
108.103	19.595	990.131	762.393
109.118	19.469	989.367	761.185
110.133	19.376	988.662	760.165
111.147	19.141	987.957	758.520
112.162	19.143	986.341	757.220
113.176	19.344	985.787	757.613
114.191	19.411	985.043	757.268
115.206	19.531	984.261	757.126
116.220	19.527	983.523	756.473
117.235	19.433	982.576	755.265
118.249	19.546	981.702	755.022
119.264	19.350	981.073	753.616
120.279	19.150	980.069	751.904
121.293	19.120	979.198	751.038
122.308	19.205	978.363	750.700
123.322	18.962	977.349	748.797
124.337	18.890	976.664	747.894
125.352	18.888	975.304	746.779
126.366	18.797	974.211	745.479
127.381	18.743	973.697	744.788
128.395	18.880	972.610	744.482
129.410	18.879	972.028	743.965
130.424	19.035	970.894	743.706
131.439	19.133	970.249	743.570
132.454	19.358	969.600	743.980
133.468	19.404	969.064	743.700
134.483	19.462	968.100	743.143
135.497	19.454	967.380	742.490
136.512	19.459	966.890	742.073
137.527	19.621	965.643	741.746
138.541	19.512	965.031	740.740
139.556	19.591	964.537	740.635
140.570	19.672	963.532	740.145
141.585	19.505	963.494	739.336
142.600	19.941	963.038	740.787
143.614	20.054	962.076	740.462
144.629	20.032	961.791	740.082
145.643	20.359	960.970	740.781
146.658	20.385	960.045	740.114
147.673	20.089	958.644	737.708
148.687	19.759	957.942	735.700
149.702	19.585	957.008	734.175
150.716	19.542	955.477	732.753
151.731	19.569	954.781	732.273
152.746	19.627	954.007	731.857
153.760	19.554	953.283	730.930
154.775	19.690	952.483	730.826
155.789	19.746	952.308	730.865
156.804	19.791	951.296	730.213
157.819	19.774	951.077	729.908
158.833	19.890	950.173	729.640
159.848	20.164	949.390	730.126
160.862	20.247	949.011	730.119
161.877	20.209	948.469	729.478
162.892	19.814	946.651	726.360
163.906	19.462	945.777	724.146
164.921	19.476	944.772	723.371
165.935	19.517	943.927	722.831
166.950	19.412	942.977	721.603
167.964	19.643	941.915	721.691
168.979	19.773	941.020	721.483
169.994	19.652	939.895	720.052
171.008	19.516	939.248	718.925
172.023	19.573	938.588	718.597
173.037	19.730	938.022	718.752
174.052	20.170	937.511	720.125
175.067	20.122	936.422	719.024
176.081	19.801	935.167	716.668
177.096	19.466	934.281	714.538
178.110	19.360	933.169	713.186
179.125	19.330	933.222	713.041
180.140	19.545	931.832	712.802
181.154	19.594	931.565	712.737
182.169	19.835	931.075	713.293
183.183	19.937	931.185	713.734
184.198	20.174	930.016	713.749
185.213	20.075	929.382	712.795
186.227	19.989	929.127	712.180
187.242	20.039	928.487	711.834
188.256	20.185	927.875	711.900
189.271	20.333	927.096	711.846
190.286	20.337	926.694	711.494
191.300	20.231	925.172	709.827
192.315	19.664	923.907	706.476
193.329	19.295	923.073	704.269
194.344	19.341	922.521	703.972
195.359	19.461	922.328	704.251
196.373	19.703	922.094	704.999
197.388	19.893	921.346	705.140
198.402	20.073	921.085	705.610
199.417	20.228	920.954	706.077
200.432	20.502	920.305	706.634
201.446	20.515	920.546	706.806
202.461	20.794	920.079	707.521
203.475	20.688	919.424	706.524
204.490	20.700	918.702	705.956
205.504	20.296	917.560	703.376
206.519	20.169	916.280	701.822
207.534	20.049	916.023	701.077
208.548	20.133	914.769	700.393
209.563	19.924	914.693	699.428
210.577	20.110	913.545	699.242
211.592	20.199	912.862	699.015
212.607	20.321	913.189	699.696
213.621	20.358	912.738	699.435
214.636	20.549	912.106	699.660
215.650	20.392	911.356	698.391
216.665	20.241	910.868	697.348
217.680	20.535	909.975	697.783
218.694	20.688	909.835	698.229
219.709	20.633	909.367	697.585
220.723	20.547	908.697	696.664
221.738	20.648	907.641	696.200
222.753	20.594	906.639	695.153
223.767	20.299	906.143	693.531
224.782	20.426	905.723	693.656
225.796	20.588	905.445	694.028
226.811	20.698	904.774	693.892
227.826	20.758	903.835	693.350
228.840	20.430	902.604	691.038
229.855	20.252	902.285	690.027
230.869	20.355	901.201	689.546
231.884	20.322	900.532	688.840
232.899	20.201	900.026	687.914
233.913	20.005	899.471	686.652
234.928	20.077	898.439	686.086
235.942	19.947	897.701	684.948
236.957	19.965	896.822	684.289
237.972	19.886	896.109	683.372
238.986	19.930	895.316	682.881
240.001	19.891	895.081	682.487
241.015	20.026	893.847	682.015
242.030	20.020	893.683	681.810
243.045	20.146	893.066	681.772
244.059	20.323	892.732	682.153
245.074	20.276	891.897	681.268
246.088	20.344	891.217	680.956
247.103	20.339	891.337	680.970
248.117	20.661	890.442	681.486
249.132	20.762	890.691	682.013
250.147	21.167	890.161	683.133
251.161	21.393	890.068	683.884
252.176	21.601	889.139	683.921
253.190	21.556	888.686	683.339
254.205	21.470	888.166	682.541
255.220	21.695	887.400	682.771
256.234	21.677	886.485	681.935
257.249	21.443	885.947	680.549
258.263	21.429	885.617	680.184
259.278	21.559	884.588	679.838
260.293	21.467	884.230	679.145
261.307	21.583	883.799	679.202
262.322	21.622	883.255	678.876
263.336	21.648	882.708	678.495
264.351	21.592	882.310	677.915
265.366	21.710	881.650	677.804
266.380	21.594	880.845	676.674
267.395	21.684	880.421	676.637
268.409	21.478	879.661	675.199
269.424	21.461	878.634	674.286
270.439	21.299	877.940	673.071
271.453	21.394	876.945	672.614
272.468	21.187	876.080	671.095
273.482	21.103	875.673	670.399
274.497	21.061	875.219	669.832
275.512	21.216	874.386	669.729
276.526	21.232	873.811	669.293
277.541	21.268	873.077	668.809
278.555	21.272	872.486	668.311
279.570	21.432	872.484	668.861
280.585	21.607	871.968	669.076
281.599	21.737	871.573	669.211
282.614	21.700	870.459	668.155
283.628	21.383	869.861	666.428
284.643	21.125	869.782	665.326
285.657	21.175	869.053	664.901
286.672	21.323	868.529	665.002
287.687	21.158	867.941	663.868
288.701	21.334	867.439	664.094
289.716	21.343	866.754	663.545
290.730	21.403	865.935	663.086
291.745	21.327	865.469	662.383
292.760	21.450	864.880	662.340
293.774	21.483	864.560	662.158
294.789	21.713	864.003	662.543
295.803	21.799	863.603	662.505
296.818	21.527	862.812	660.809
297.833	21.310	862.012	659.323
298.847	21.275	861.277	658.571
299.862	21.452	860.395	658.505
300.876	21.355	860.389	658.074
301.891	21.411	859.627	657.646
302.906	21.696	859.049	658.217
303.920	21.868	858.981	658.751
304.935	22.084	857.910	658.681
305.949	22.282	857.525	659.068
306.964	22.086	857.201	658.028
307.979	21.796	856.327	656.215
308.993	21.750	855.422	655.290
310.008	21.893	855.200	655.595
311.022	21.959	854.763	655.450
312.037	21.860	854.398	654.742
313.052	21.795	853.424	653.694
314.066	21.568	852.386	651.999
315.081	21.205	851.994	650.290
316.095	21.294	851.391	650.101
317.110	21.194	851.131	649.473
318.125	21.281	850.450	649.218
319.139	21.285	849.778	648.665
320.154	21.284	849.197	648.161
321.168	21.077	848.524	646.820
322.183	21.499	848.095	648.002
323.197	21.531	847.620	647.699
324.212	21.565	846.936	647.244
325.227	21.431	846.626	646.454
326.241	21.401	846.210	645.968
327.256	21.455	845.328	645.437
328.270	21.234	844.750	644.123
329.285	21.341	844.014	643.899
330.300	21.237	843.750	643.259
331.314	21.183	843.474	642.795
332.329	21.380	842.263	642.536
333.343	21.510	841.964	642.730
334.358	21.698	841.852	643.277
335.373	21.840	840.950	643.053
336.387	21.745	840.553	642.342
337.402	21.799	840.108	642.144
338.416	21.835	839.561	641.803
339.431	22.037	839.338	642.313
340.446	22.246	838.912	642.692
341.460	22.431	838.253	642.808
342.475	22.553	837.837	642.877
343.489	22.494	837.290	642.186
344.504	22.566	836.866	642.065
345.519	22.640	836.768	642.204
346.533	22.763	836.061	642.052
347.548	22.564	835.696	640.989
348.562	22.434	834.625	639.642
349.577	22.055	833.807	637.581
350.592	21.857	833.216	636.355
351.606	21.979	832.577	636.254
352.621	21.764	832.185	635.118
353.635	21.836	831.508	634.804
354.650	21.988	830.884	634.822
355.665	21.962	830.823	634.625
356.679	22.145	830.158	634.722
357.694	22.057	829.912	634.162
358.708	22.198	829.632	634.400
359.723	22.097	829.186	633.637
360.738	22.071	828.449	632.926
361.752	22.084	827.866	632.470
362.767	22.277	827.098	632.523
363.781	22.346	827.351	632.907
364.796	22.571	826.620	633.100
365.810	22.670	826.709	633.470
366.825	22.788	826.363	633.570
367.840	22.795	826.296	633.489
368.854	22.976	825.135	633.192
369.869	22.581	824.856	631.507
370.883	22.680	823.910	631.078
371.898	22.466	823.857	630.218
372.913	22.709	822.793	630.216
373.927	22.750	822.428	630.027
374.942	22.742	821.661	629.355
375.956	22.537	821.043	628.097
376.971	22.738	820.711	628.504
377.986	22.847	820.247	628.481
379.000	23.246	819.767	629.475
380.015	23.117	819.195	628.523
381.029	23.146	818.359	627.928
382.044	23.022	817.907	627.084
383.059	23.007	817.698	626.817
384.073	22.963	817.240	626.255
385.088	22.902	816.207	625.190
386.102	22.681	815.265	623.632
387.117	22.462	814.484	622.207
388.132	22.415	814.245	621.803
389.146	22.447	813.733	621.471
390.161	22.492	813.629	621.494
391.175	22.660	813.288	621.771
392.190	23.010	812.821	622.593
393.205	22.745	812.638	621.464
394.219	22.689	811.910	620.655
395.234	22.436	811.283	619.231
396.248	22.398	810.546	618.481
397.263	22.272	810.024	617.584
398.278	22.113	809.662	616.697
399.292	22.249	808.648	616.348
400.307	22.014	808.360	615.248
401.321	21.998	808.125	614.958
402.336	22.236	807.603	615.339
403.350	22.387	807.205	615.511
404.365	22.385	807.037	615.323
405.380	22.571	806.894	615.809
406.394	22.935	806.790	616.944
407.409	23.159	806.088	617.137
408.423	23.211	805.957	617.163
409.438	23.307	805.376	616.997
410.453	23.239	804.790	616.258
411.467	23.286	804.928	616.473
412.482	23.282	804.175	615.825
413.496	23.476	803.303	615.777
414.511	23.391	803.371	615.481
415.526	23.671	802.861	616.007
416.540	23.402	802.698	614.895
417.555	23.192	802.344	613.840
418.569	23.308	801.608	613.623
419.584	23.283	801.156	613.137
420.599	23.307	800.478	612.649
421.613	164.072	1371.095	1798.579
422.628	142.559	1454.221	1798.648
