DTS Sentinel unit serial number:	SN413079Multiplexer serial number:	ORYXHardware model number:	OX4-SRSoftware version number:	ORYX F/W v4.00 Oryx Data Collector v3.7.2.0data status	okinstallation	princeton_trtdifferential loss correction	single-endedforward channel	channel 3reverse channel	N/Adate	2019/09/14time	06:20:35forward acquisition time	60.00reverse acquisition time	0.00gamma	496.2192k internal	0.2339k external	0.2339temperature offset calibration	1.0058default loss term (dB/km)	0.3790temperature slope calibration	1.0000multiplexer offset coefficient	1.0000multiplexer slope coefficient	1.0000fibre end	0.00T internal ref (°C)	26.62T ext. ref 1 (°C)	3.42T ext. ref 2 (°C)	20.59length (m)	temperature (°C)	Stokes	anti-Stokes-747.200	141.838	0.085	-0.112
-746.185	-90.208	-0.315	0.092
-745.171	101.139	0.037	-0.043
-744.156	135.644	-0.134	0.175
-743.142	162.495	-0.109	0.153
-742.127	800.000	-0.033	0.146
-741.112	-173.311	0.084	-0.003
-740.098	-200.000	0.021	-0.253
-739.083	-54.640	-0.150	-0.068
-738.069	32.594	-0.119	0.103
-737.054	312.035	-0.074	0.140
-736.039	-61.306	-0.212	-0.089
-735.025	320.984	0.180	-0.343
-734.010	171.768	-0.065	-0.093
-732.996	800.000	-0.054	-0.201
-731.981	-48.537	0.231	-0.112
-730.966	-113.844	-0.218	-0.042
-729.952	-142.939	-0.433	-0.042
-728.937	-89.144	-0.236	-0.070
-727.923	-200.000	-0.011	-0.090
-726.908	-186.810	-0.336	0.005
-725.894	-160.469	-0.182	0.010
-724.879	-133.951	0.272	0.034
-723.864	800.000	0.069	-0.242
-722.850	-82.865	0.150	-0.049
-721.835	-200.000	-0.019	-0.292
-720.821	590.728	0.075	-0.186
-719.806	-52.317	0.100	0.047
-718.791	-58.424	0.190	0.083
-717.777	42.005	0.169	-0.154
-716.762	187.167	-0.039	0.058
-715.748	-20.627	-0.072	-0.044
-714.733	-200.000	-0.013	0.243
-713.718	200.226	-0.126	-0.194
-712.704	46.911	-0.083	-0.077
-711.689	-8.967	-0.120	0.081
-710.675	-76.777	0.173	0.061
-709.660	-91.040	0.204	-0.059
-708.645	7.369	-0.294	0.220
-707.631	11.558	-0.136	-0.104
-706.616	-6.990	-0.203	0.138
-705.602	670.135	-0.078	0.202
-704.587	706.836	-0.070	0.184
-703.572	800.000	-0.094	-0.274
-702.558	-185.497	0.007	0.000
-701.543	-145.813	0.330	0.029
-700.529	-76.363	0.315	-0.111
-699.514	-33.739	-0.160	-0.089
-698.499	-50.736	-0.144	0.068
-697.485	145.133	0.138	0.185
-696.470	791.486	-0.044	0.122
-695.456	166.109	0.079	-0.113
-694.441	-153.365	-0.207	-0.014
-693.426	-200.000	-0.031	-0.307
-692.412	-156.538	-0.169	0.010
-691.397	-200.000	0.018	-0.271
-690.383	-200.000	-0.005	-0.198
-689.368	484.891	-0.034	0.077
-688.354	155.414	-0.021	-0.029
-687.339	-75.001	-0.355	-0.127
-686.324	-8.924	-0.417	0.280
-685.310	580.537	-0.086	-0.211
-684.295	-200.000	0.004	-0.100
-683.281	129.950	0.147	0.188
-682.266	-17.139	-0.119	0.075
-681.251	-200.000	-0.009	-0.299
-680.237	502.451	-0.092	0.212
-679.222	147.154	-0.204	-0.274
-678.208	-109.252	0.097	-0.021
-677.193	-20.835	0.140	-0.086
-676.178	26.799	0.143	0.120
-675.164	409.561	0.199	-0.421
-674.149	40.978	-0.210	-0.189
-673.135	-72.073	-0.139	0.052
-672.120	511.550	0.069	-0.160
-671.105	-200.000	0.027	-0.369
-670.091	800.000	-0.097	-0.354
-669.076	-64.335	0.484	-0.197
-668.062	58.001	0.192	-0.188
-667.047	-200.000	-0.034	-0.211
-666.032	-200.000	0.075	-0.397
-665.018	44.147	-0.137	-0.125
-664.003	-77.408	0.262	-0.091
-662.989	40.359	-0.177	0.159
-661.974	-54.535	0.188	-0.085
-660.959	3.253	-0.290	-0.211
-659.945	-200.000	0.011	-0.188
-658.930	-2.434	-0.356	-0.249
-657.916	-200.000	-0.040	-0.336
-656.901	-25.555	-0.256	0.151
-655.886	51.825	-0.159	-0.151
-654.872	62.952	-0.189	0.189
-653.857	301.088	0.031	-0.058
-652.843	43.656	-0.224	-0.205
-651.828	18.087	-0.223	-0.178
-650.814	-22.330	0.327	-0.198
-649.799	350.874	-0.098	0.194
-648.784	800.000	-0.027	-0.114
-647.770	779.059	-0.013	0.036
-646.755	-200.000	0.051	0.281
-645.741	51.530	-0.288	-0.274
-644.726	-169.444	0.049	0.002
-643.711	800.000	-0.083	-0.268
-642.697	232.986	-0.109	0.179
-641.682	78.807	0.220	-0.235
-640.668	-67.373	0.350	0.137
-639.653	-200.000	0.005	-0.284
-638.638	-84.461	-0.314	-0.099
-637.624	30.494	0.261	0.223
-636.609	800.000	0.099	0.286
-635.595	241.797	-0.097	0.162
-634.580	-56.284	-0.175	-0.078
-633.565	-46.342	-0.121	0.059
-632.551	-200.000	0.009	-0.159
-631.536	30.228	-0.282	-0.240
-630.522	210.864	0.050	-0.078
-629.507	-30.266	-0.252	-0.143
-628.492	700.249	0.165	-0.435
-627.478	-200.000	0.043	-0.522
-626.463	111.153	-0.062	-0.074
-625.449	386.071	-0.280	-0.577
-624.434	210.092	-0.024	-0.038
-623.419	-143.368	0.170	-0.016
-622.405	14.130	0.222	-0.173
-621.390	94.538	0.114	-0.129
-620.376	800.000	-0.052	0.180
-619.361	-67.982	-0.327	-0.127
-618.346	251.370	-0.057	-0.097
-617.332	-37.238	-0.108	0.058
-616.317	33.486	0.043	0.037
-615.303	-200.000	-0.033	0.235
-614.288	800.000	0.057	0.187
-613.273	-200.000	0.075	0.411
-612.259	-168.254	-0.169	0.007
-611.244	-72.425	0.231	-0.085
-610.230	800.000	-0.052	-0.191
-609.215	42.738	0.089	0.081
-608.201	102.597	-0.074	0.087
-607.186	9.921	-0.113	0.086
-606.171	-38.960	-0.190	-0.100
-605.157	79.127	0.121	-0.129
-604.142	-60.003	0.082	0.035
-603.128	-200.000	0.078	0.432
-602.113	-81.194	0.095	-0.031
-601.098	-19.269	0.164	-0.101
-600.084	214.158	0.131	0.207
-599.069	-147.495	-0.170	0.014
-598.055	696.956	0.111	-0.291
-597.040	-142.360	0.192	-0.019
-596.025	800.000	0.039	-0.129
-595.011	800.000	0.100	-0.298
-593.996	40.649	0.077	0.069
-592.982	-10.098	0.201	0.133
-591.967	-165.792	-0.121	0.005
-590.952	-162.424	0.142	-0.007
-589.938	37.209	0.092	0.081
-588.923	166.834	-0.200	0.283
-587.909	32.552	-0.352	0.303
-586.894	66.799	0.217	0.220
-585.879	423.583	-0.149	-0.319
-584.865	-20.240	-0.076	-0.047
-583.850	72.486	0.119	0.124
-582.836	643.379	-0.044	0.113
-581.821	800.000	0.091	0.306
-580.806	-133.931	0.234	-0.029
-579.792	-151.034	0.041	0.003
-578.777	-111.171	-0.267	0.055
-577.763	-159.714	-0.103	-0.006
-576.748	574.424	-0.080	0.195
-575.733	800.000	-0.071	0.252
-574.719	370.276	-0.115	0.233
-573.704	-133.393	0.273	-0.034
-572.690	202.235	0.109	0.167
-571.675	-98.496	0.271	-0.069
-570.661	131.783	0.106	0.135
-569.646	48.924	0.177	-0.165
-568.631	-200.000	-0.005	0.143
-567.617	-97.313	-0.187	0.049
-566.602	800.000	0.121	0.356
-565.588	-200.000	-0.022	0.201
-564.573	-9.078	0.203	-0.135
-563.558	-200.000	-0.005	0.302
-562.544	-19.639	0.215	-0.132
-561.529	-29.275	-0.202	-0.115
-560.515	-80.708	0.231	-0.077
-559.500	45.815	-0.175	0.161
-558.485	-197.184	-0.367	0.002
-557.471	-195.605	0.081	0.001
-556.456	-42.976	0.174	-0.088
-555.442	-30.856	-0.275	0.155
-554.427	-200.000	0.241	0.000
-553.412	594.427	0.077	-0.190
-552.398	-10.837	-0.156	0.102
-551.383	508.503	0.131	-0.304
-550.369	-10.933	0.287	0.189
-549.354	-200.000	0.163	0.000
-548.339	-99.707	-0.195	0.049
-547.325	800.000	0.014	-0.050
-546.310	-25.863	0.150	0.088
-545.296	44.546	-0.122	-0.112
-544.281	-200.000	0.048	-0.257
-543.266	-112.844	-0.127	0.025
-542.252	-59.799	0.058	0.025
-541.237	-200.000	0.050	0.361
-540.223	-70.396	0.068	-0.026
-539.208	38.837	-0.074	0.066
-538.193	-57.884	0.231	-0.100
-537.179	-200.000	0.029	-0.174
-536.164	473.236	0.196	-0.439
-535.150	-72.086	0.092	0.034
-534.135	-200.000	0.019	-0.114
-533.121	-200.000	-0.025	0.230
-532.106	-200.000	0.003	-0.346
-531.091	-75.906	-0.162	-0.057
-530.077	-200.000	-0.003	0.116
-529.062	52.858	-0.195	-0.186
-528.048	-200.000	-0.029	0.367
-527.033	800.000	0.031	0.120
-526.018	800.000	-0.029	0.092
-525.004	-200.000	-0.103	0.503
-523.989	-87.746	0.065	0.020
-522.975	397.743	-0.157	-0.327
-521.960	-200.000	0.000	-0.181
-520.945	-19.461	-0.257	-0.158
-519.931	-200.000	0.052	0.249
-518.916	-9.876	-0.180	0.119
-517.902	-36.244	-0.164	-0.088
-516.887	247.282	0.168	-0.281
-515.872	3.165	-0.413	0.299
-514.858	-180.505	-0.390	-0.008
-513.843	-93.317	0.318	-0.088
-512.829	-132.041	-0.040	0.005
-511.814	800.000	0.094	-0.396
-510.799	52.328	-0.247	0.234
-509.785	-200.000	-0.031	-0.191
-508.770	161.099	0.060	0.084
-507.756	229.253	-0.090	0.145
-506.741	161.952	0.118	0.165
-505.726	140.917	-0.234	-0.307
-504.712	-190.230	-0.095	-0.001
-503.697	800.000	0.105	0.316
-502.683	-156.754	0.131	-0.008
-501.668	256.842	-0.075	-0.128
-500.653	72.945	-0.215	-0.223
-499.639	89.259	-0.113	-0.126
-498.624	800.000	-0.045	0.174
-497.610	327.390	0.071	-0.135
-496.595	609.500	0.147	0.364
-495.581	-189.433	0.316	0.004
-494.566	-200.000	-0.003	0.098
-493.551	-200.000	-0.002	-0.127
-492.537	-200.000	0.015	0.201
-491.522	39.118	-0.341	-0.303
-490.508	800.000	0.063	-0.246
-489.493	67.630	-0.142	-0.144
-488.478	-158.860	-0.134	0.008
-487.464	800.000	-0.010	0.040
-486.449	29.539	-0.268	-0.226
-485.435	-200.000	0.039	-0.205
-484.420	-81.680	-0.173	-0.056
-483.405	105.170	-0.050	0.059
-482.391	-200.000	-0.027	-0.247
-481.376	77.267	-0.188	0.198
-480.362	-37.443	-0.211	-0.112
-479.347	-174.579	-0.072	0.002
-478.332	94.654	-0.156	-0.175
-477.318	-69.363	-0.216	0.082
-476.303	37.069	0.220	-0.193
-475.289	19.171	0.211	0.168
-474.274	161.895	0.084	0.117
-473.259	-138.169	-0.242	0.027
-472.245	-200.000	-0.040	-0.217
-471.230	800.000	-0.061	0.196
-470.216	-186.584	0.021	0.000
-469.201	-200.000	-0.010	-0.121
-468.186	-145.068	-0.276	0.025
-467.172	-45.912	-0.192	-0.094
-466.157	214.734	-0.263	0.414
-465.143	145.596	-0.226	0.301
-464.128	-44.955	0.168	0.083
-463.113	800.000	-0.106	0.305
-462.099	-42.918	0.092	0.046
-461.084	-23.407	0.136	-0.081
-460.070	-144.883	-0.211	-0.019
-459.055	-23.248	-0.091	-0.054
-458.040	2.128	0.044	-0.031
-457.026	81.922	0.188	-0.202
-456.011	-114.005	0.021	-0.004
-454.997	-20.390	-0.298	0.182
-453.982	135.156	-0.036	-0.047
-452.968	-200.000	-0.024	-0.110
-451.953	-98.346	0.300	-0.076
-450.938	-27.674	-0.115	0.066
-449.924	-59.239	-0.206	-0.088
-448.909	-92.806	-0.208	0.058
-447.895	-85.242	0.353	-0.109
-446.880	-182.987	0.296	-0.005
-445.865	369.548	-0.089	0.179
-444.851	-200.000	0.024	0.350
-443.836	654.932	0.009	0.022
-442.822	380.613	-0.079	0.161
-441.807	-4.026	-0.275	-0.189
-440.792	125.373	0.172	0.214
-439.778	800.000	0.067	-0.218
-438.763	118.774	-0.215	-0.263
-437.749	-18.963	0.337	-0.208
-436.734	-29.850	-0.257	-0.145
-435.719	-200.000	0.006	-0.424
-434.705	800.000	-0.010	0.039
-433.690	-200.000	-0.017	0.300
-432.676	137.176	-0.158	0.204
-431.661	169.663	0.106	-0.150
-430.646	800.000	-0.021	0.066
-429.632	1.583	0.339	-0.242
-428.617	178.807	0.105	-0.151
-427.603	-6.661	0.110	-0.074
-426.588	-85.066	0.084	0.026
-425.573	-117.094	0.040	-0.007
-424.559	800.000	0.028	-0.106
-423.544	234.538	-0.226	0.369
-422.530	789.851	-0.065	0.178
-421.515	158.582	0.179	-0.246
-420.500	800.000	-0.087	-0.269
-419.486	-200.000	-0.094	0.000
-418.471	128.967	-0.025	0.032
-417.457	-82.304	0.162	-0.052
-416.442	-200.000	0.022	0.184
-415.428	1.676	-0.167	0.119
-414.413	-71.080	-0.070	-0.026
-413.398	155.995	-0.060	-0.082
-412.384	-200.000	-0.032	-0.189
-411.369	-200.000	0.007	-0.119
-410.355	11.908	-0.365	-0.278
-409.340	-54.459	-0.171	0.077
-408.325	-16.042	0.269	-0.169
-407.311	497.150	0.126	-0.286
-406.296	57.606	0.101	-0.097
-405.282	-200.000	0.037	0.385
-404.267	-122.153	0.525	0.085
-403.252	-121.609	-0.733	-0.120
-402.238	-200.000	-0.026	-0.381
-401.223	-23.256	0.240	0.143
-400.209	725.710	0.054	-0.144
-399.194	66.622	0.196	0.197
-398.179	-92.995	-0.115	0.032
-397.165	800.000	-0.070	-0.233
-396.150	359.782	-0.113	-0.224
-395.136	-162.452	0.118	0.006
-394.121	-86.109	-0.499	-0.152
-393.106	136.513	-0.091	0.117
-392.092	800.000	-0.073	-0.222
-391.077	-27.061	-0.423	0.244
-390.063	-47.526	0.091	0.044
-389.048	196.719	0.257	-0.388
-388.033	-21.771	-0.071	-0.043
-387.019	353.775	-0.146	-0.288
-386.004	-145.349	0.084	0.008
-384.990	-128.735	-0.190	-0.027
-383.975	209.193	-0.115	-0.179
-382.960	-54.765	0.159	-0.071
-381.946	136.056	0.101	0.130
-380.931	-67.575	0.173	-0.067
-379.917	-200.000	0.011	0.048
-378.902	65.010	-0.151	-0.151
-377.888	-97.586	0.088	0.023
-376.873	235.804	-0.107	-0.175
-375.858	85.825	0.104	0.113
-374.844	121.504	-0.092	0.114
-373.829	84.202	-0.090	-0.097
-372.815	-169.712	-0.407	0.015
-371.800	-65.853	-0.181	0.072
-370.785	-118.520	-0.259	0.045
-369.771	800.000	-0.078	0.231
-368.756	108.234	0.069	0.082
-367.742	800.000	-0.090	0.340
-366.727	323.589	0.133	0.251
-365.712	-45.425	-0.331	-0.162
-364.698	800.000	-0.097	0.270
-363.683	-200.000	0.023	0.123
-362.669	-31.032	-0.242	-0.135
-361.654	157.148	-0.081	0.110
-360.639	168.264	-0.118	-0.166
-359.625	-157.305	-0.040	-0.002
-358.610	-200.000	-0.019	-0.226
-357.596	-200.000	0.001	-0.084
-356.581	24.051	-0.064	-0.052
-355.566	-200.000	-0.003	-0.264
-354.552	-52.943	-0.167	0.076
-353.537	-200.000	-0.028	0.245
-352.523	-101.754	-0.099	0.024
-351.508	-108.811	0.279	0.059
-350.493	800.000	-0.032	-0.136
-349.479	-81.768	-0.059	0.019
-348.464	800.000	0.027	0.109
-347.450	-200.000	0.055	-0.292
-346.435	27.951	0.183	0.152
-345.420	-69.693	-0.038	0.014
-344.406	800.000	0.076	-0.260
-343.391	-63.216	0.156	-0.064
-342.377	-51.127	0.372	-0.172
-341.362	-122.784	-0.129	0.021
-340.348	79.198	-0.130	0.137
-339.333	50.967	-0.170	0.159
-338.318	-200.000	-0.016	0.149
-337.304	-200.000	-0.006	-0.054
-336.289	3.440	-0.227	-0.163
-335.275	-54.504	0.341	0.153
-334.260	800.000	0.049	0.204
-333.245	141.271	0.096	0.126
-332.231	206.958	-0.199	0.306
-331.216	134.355	0.193	-0.246
-330.202	-200.000	0.010	-0.240
-329.187	147.023	-0.122	0.163
-328.172	-97.251	-0.227	0.058
-327.158	164.260	0.182	0.253
-326.143	-200.000	-0.042	-0.232
-325.129	-119.925	0.265	0.045
-324.114	-200.000	0.008	-0.223
-323.099	800.000	0.067	0.256
-322.085	-83.445	-0.227	-0.072
-321.070	296.974	0.225	-0.408
-320.056	-147.318	0.251	-0.021
-319.041	142.464	-0.271	0.355
-318.026	-122.788	-0.097	0.015
-317.012	-136.227	0.250	-0.029
-315.997	-11.168	0.060	-0.039
-314.983	20.236	0.216	-0.172
-313.968	-154.054	-0.472	-0.032
-312.953	-84.807	0.282	0.087
-311.939	-1.289	0.285	-0.198
-310.924	20.446	-0.191	0.152
-309.910	-200.000	0.006	-0.194
-308.895	-163.377	0.286	0.013
-307.880	-20.831	0.182	-0.110
-306.866	-63.555	-0.224	0.091
-305.851	-200.000	-0.030	-0.249
-304.837	-64.174	-0.052	0.021
-303.822	800.000	-0.048	-0.187
-302.807	-72.066	0.183	0.067
-301.793	199.034	0.181	0.273
-300.778	12.343	0.289	0.219
-299.764	48.374	-0.118	0.109
-298.749	186.955	-0.039	0.057
-297.735	-75.231	-0.225	-0.079
-296.720	800.000	0.031	-0.118
-295.705	-200.000	-0.001	0.040
-294.691	-131.705	-0.445	-0.058
-293.676	9.963	-0.030	0.022
-292.662	183.211	-0.225	0.328
-291.647	800.000	0.059	-0.228
-290.632	800.000	0.045	-0.151
-289.618	-5.214	0.059	0.040
-288.603	-61.162	0.154	-0.064
-287.589	-19.670	-0.121	0.074
-286.574	-180.118	0.440	0.009
-285.559	-55.834	-0.087	-0.038
-284.545	529.102	0.035	0.080
-283.530	-199.484	0.290	-0.001
-282.516	-66.002	0.173	0.068
-281.501	21.947	0.250	0.201
-280.486	800.000	-0.171	0.487
-279.472	22.234	0.413	0.332
-278.457	146.160	-0.030	0.039
-277.443	153.713	-0.178	-0.240
-276.428	39.855	-0.265	-0.234
-275.413	-64.931	-0.121	0.048
-274.399	-121.956	-0.329	-0.053
-273.384	135.707	-0.118	0.151
-272.370	-26.861	0.329	0.189
-271.355	-4.717	-0.197	0.134
-270.340	-200.000	-0.046	0.257
-269.326	173.349	-0.077	0.109
-268.311	526.382	-0.103	-0.239
-267.297	800.000	0.040	0.169
-266.282	-47.810	-0.173	-0.083
-265.267	-131.789	0.353	0.046
-264.253	345.266	0.116	-0.225
-263.238	327.723	-0.046	0.088
-262.224	-164.494	-0.213	-0.010
-261.209	-159.615	0.079	0.004
-260.195	-142.052	0.115	0.011
-259.180	169.914	-0.025	0.035
-258.165	137.984	0.132	-0.170
-257.151	800.000	-0.030	-0.097
-256.136	-142.328	-0.320	0.031
-255.122	-200.000	-0.002	0.253
-254.107	15.498	0.221	0.171
-253.092	226.171	0.065	0.104
-252.078	311.147	-0.124	-0.229
-251.063	-130.746	0.110	-0.015
-250.049	-200.000	-0.011	-0.088
-249.034	174.233	-0.034	-0.049
-248.019	-117.033	0.208	0.037
-247.005	-89.167	-0.076	0.022
-245.990	-108.806	0.463	-0.097
-244.976	-34.547	-0.203	-0.109
-243.961	-13.698	0.167	-0.106
-242.946	-200.000	-0.068	0.353
-241.932	9.521	-0.137	-0.102
-240.917	448.405	0.052	0.112
-239.903	-119.831	-0.389	0.066
-238.888	110.101	0.252	0.298
-237.873	382.740	0.075	0.151
-236.859	49.801	-0.041	0.038
-235.844	-62.296	-0.249	-0.102
-234.830	3.873	0.053	0.038
-233.815	305.703	0.094	0.172
-232.800	380.369	0.216	-0.435
-231.786	800.000	0.039	-0.126
-230.771	800.000	0.067	-0.251
-229.757	42.653	0.059	0.053
-228.742	50.196	0.168	-0.156
-227.727	66.974	0.040	0.040
-226.713	-38.730	-0.086	-0.045
-225.698	108.783	0.068	0.080
-224.684	27.050	-0.109	-0.090
-223.669	-90.928	0.256	-0.072
-222.655	-200.000	-0.015	-0.350
-221.640	-104.066	-0.129	-0.029
-220.625	-200.000	0.001	-0.077
-219.611	-200.000	-0.209	-0.000
-218.596	-109.680	0.548	0.113
-217.582	-159.664	0.290	-0.016
-216.567	-200.000	0.009	0.286
-215.552	-200.000	-0.007	-0.166
-214.538	694.590	0.035	0.089
-213.523	-168.798	0.147	0.005
-212.509	375.124	0.154	0.308
-211.494	-200.000	-0.407	0.000
-210.479	-200.000	-0.025	0.411
-209.465	-134.269	0.206	0.025
-208.450	-42.868	0.227	0.113
-207.436	-30.780	0.280	-0.155
-206.421	-200.000	0.023	0.147
-205.406	-54.985	0.155	-0.068
-204.392	48.779	0.236	-0.217
-203.377	-49.339	-0.305	0.143
-202.363	-71.916	0.181	0.066
-201.348	-18.331	-0.101	-0.062
-200.333	607.064	0.184	0.450
-199.319	800.000	0.042	0.123
-198.304	-171.414	0.199	0.007
-197.290	-0.951	0.235	-0.163
-196.275	52.958	-0.230	0.216
-195.260	83.243	-0.074	0.079
-194.246	-148.798	-0.080	0.006
-193.231	-116.345	0.124	-0.023
-192.217	-52.913	0.183	-0.082
-191.202	0.817	-0.163	-0.115
-190.187	17.252	0.094	-0.073
-189.173	-59.523	-0.346	0.146
-188.158	-200.000	-0.026	0.154
-187.144	258.118	0.145	0.245
-186.129	-70.355	0.160	-0.059
-185.114	351.861	-0.143	0.278
-184.100	-200.000	-0.005	0.102
-183.085	-13.038	0.147	-0.094
-182.071	-200.000	0.076	0.373
-181.056	30.318	-0.084	0.070
-180.042	-110.262	0.280	-0.057
-179.027	-40.920	-0.373	-0.189
-178.012	-63.846	-0.061	0.025
-176.998	-200.000	-0.040	-0.274
-175.983	-111.648	0.398	-0.079
-174.969	361.918	0.084	-0.166
-173.954	-93.012	0.268	0.073
-172.939	-200.000	-0.059	0.262
-171.925	-114.617	0.208	-0.039
-170.910	46.457	0.123	-0.112
-169.896	-12.399	0.316	-0.202
-168.881	-63.838	0.232	-0.093
-167.866	800.000	0.083	-0.252
-166.852	-3.329	-0.243	0.166
-165.837	27.885	-0.270	-0.223
-164.823	125.154	0.066	0.082
-163.808	-16.923	-0.208	-0.129
-162.793	517.421	-0.077	0.177
-161.779	2.789	-0.146	-0.104
-160.764	51.653	-0.132	-0.123
-159.750	-146.147	-0.045	-0.004
-158.735	198.487	0.203	0.304
-157.720	94.910	0.157	0.176
-156.706	94.395	0.090	-0.100
-155.691	-148.732	0.134	0.011
-154.677	-1.043	0.097	-0.067
-153.662	-114.043	0.329	0.062
-152.647	-33.297	0.105	0.057
-151.633	110.099	-0.111	-0.130
-150.618	170.856	0.181	0.254
-149.604	23.618	-0.207	-0.167
-148.589	-157.624	-0.096	0.006
-147.574	-19.390	0.292	0.178
-146.560	-2.682	0.367	-0.251
-145.545	111.551	0.181	-0.214
-144.531	2.458	-0.033	-0.024
-143.516	800.000	0.046	-0.186
-142.502	800.000	-0.125	-0.459
-141.487	48.350	0.153	-0.140
-140.472	-35.216	0.409	0.218
-139.458	221.535	0.079	-0.124
-138.443	641.119	-0.053	-0.133
-137.429	-93.296	0.366	-0.099
-136.414	13.944	0.167	0.127
-135.399	-10.476	-0.132	-0.086
-134.385	764.992	0.051	-0.135
-133.370	70.372	-0.081	-0.082
-132.356	420.307	0.104	-0.218
-131.341	-102.507	0.297	0.070
-130.326	-200.000	0.029	-0.202
-129.312	-53.898	0.179	-0.080
-128.297	-15.051	0.157	-0.098
-127.283	800.000	-0.069	0.191
-126.268	72.091	0.077	-0.078
-125.253	-141.748	-0.442	-0.043
-124.239	-29.208	0.114	0.064
-123.224	301.788	0.231	-0.418
-122.210	-95.090	-0.277	0.073
-121.195	-74.436	0.227	-0.080
-120.180	-200.000	-0.032	0.197
-119.166	186.568	-0.046	0.066
-118.151	642.530	-0.165	-0.413
-117.137	321.324	-0.097	0.180
-116.122	-128.013	0.201	0.028
-115.107	284.151	0.105	-0.185
-114.093	13.083	0.008	0.006
-113.078	-200.000	-0.037	0.307
-112.064	56.420	0.069	0.066
-111.049	-100.392	-0.007	-0.002
-110.034	-123.473	0.121	-0.019
-109.020	-101.408	-0.133	0.032
-108.005	800.000	0.105	0.431
-106.991	-2.976	0.294	0.201
-105.976	-80.750	0.192	0.063
-104.962	122.701	-0.257	-0.314
-103.947	1.312	0.114	0.080
-102.932	-175.020	0.310	0.008
-101.918	24.682	-0.194	0.157
-100.903	-69.976	0.237	-0.088
-99.889	-26.988	-0.373	0.213
-98.874	-200.000	0.064	-0.384
-97.859	-30.835	0.228	0.126
-96.845	-49.800	0.162	0.075
-95.830	263.409	0.031	0.052
-94.816	-22.695	0.185	0.109
-93.801	-147.936	0.289	0.024
-92.786	46.641	-0.200	-0.181
-91.772	409.238	-0.127	-0.263
-90.757	215.846	0.043	-0.066
-89.743	800.000	-0.014	-0.039
-88.728	-0.005	0.220	-0.154
-87.713	-200.000	0.040	0.262
-86.699	16.239	0.272	-0.209
-85.684	-88.345	0.225	-0.066
-84.670	-75.572	-0.117	-0.041
-83.655	-145.015	-0.559	0.050
-82.640	260.981	-0.121	-0.205
-81.626	-200.000	-0.005	-0.299
-80.611	-79.586	0.177	0.058
-79.597	377.028	-0.160	0.320
-78.582	250.373	0.052	-0.086
-77.567	-108.644	0.178	-0.037
-76.553	-67.562	-0.224	-0.086
-75.538	-10.758	-0.094	-0.061
-74.524	787.871	0.065	0.173
-73.509	-200.000	-0.007	0.218
-72.494	101.199	0.119	0.136
-71.480	-115.016	-0.180	0.033
-70.465	46.182	-0.091	0.082
-69.451	-154.415	0.178	0.012
-68.436	-200.000	0.001	0.358
-67.422	-200.000	0.026	0.183
-66.407	213.767	-0.241	0.373
-65.392	508.542	-0.014	0.031
-64.378	22.147	0.139	0.110
-63.363	111.177	0.157	0.185
-62.349	228.204	-0.116	-0.185
-61.334	80.958	-1.205	-1.269
-60.319	537.348	0.340	0.788
-59.305	-200.000	-0.074	-1.305
-58.290	251.517	0.697	1.159
-57.276	348.174	0.617	1.187
-56.261	-200.000	116.637	645.533
-55.246	504.776	1541.411	3483.943
-54.232	175.618	2715.237	3843.730
-53.217	105.641	2181.594	2517.608
-52.203	37.470	1697.461	1469.382
-51.188	29.783	1512.305	1257.047
-50.173	27.503	1487.807	1221.368
-49.159	50.158	1547.733	1426.289
-48.144	48.630	1562.376	1429.270
-47.130	29.902	1517.642	1262.097
-46.115	26.851	1502.323	1228.678
-45.100	26.693	1498.934	1224.787
-44.086	26.688	1497.299	1223.373
-43.071	26.559	1495.467	1220.951
-42.057	26.565	1494.058	1219.799
-41.042	26.613	1492.344	1218.670
-40.027	26.639	1490.913	1217.627
-39.013	26.583	1489.395	1215.968
-37.998	26.578	1488.385	1215.060
-36.984	26.561	1487.223	1213.949
-35.969	26.566	1486.210	1213.105
-34.954	26.600	1484.709	1212.063
-33.940	26.530	1483.327	1210.415
-32.925	26.565	1481.723	1209.295
-31.911	26.720	1480.385	1209.186
-30.896	26.660	1479.170	1207.745
-29.881	26.644	1477.478	1206.214
-28.867	26.670	1476.457	1205.503
-27.852	26.645	1475.491	1204.500
-26.838	26.653	1473.993	1203.281
-25.823	26.692	1472.440	1202.227
-24.809	26.728	1470.458	1200.797
-23.794	26.634	1469.127	1199.044
-22.779	26.680	1468.312	1198.631
-21.765	26.719	1466.936	1197.719
-20.750	26.692	1466.238	1196.922
-19.736	26.654	1465.071	1195.673
-18.721	26.657	1463.911	1194.698
-17.706	26.564	1462.824	1193.152
-16.692	26.603	1461.536	1192.311
-15.677	26.622	1460.498	1191.543
-14.663	26.710	1459.410	1191.184
-13.648	26.626	1458.789	1190.077
-12.633	26.669	1457.582	1189.331
-11.619	26.660	1456.826	1188.608
-10.604	26.576	1456.044	1187.367
-9.590	26.617	1455.461	1187.115
-8.575	26.589	1454.056	1185.737
-7.560	26.622	1453.467	1185.429
-6.546	26.678	1452.598	1185.036
-5.531	26.522	1451.849	1183.364
-4.517	26.596	1450.951	1183.063
-3.502	26.595	1449.761	1182.044
-2.487	26.526	1449.028	1180.949
-1.473	26.576	1447.852	1180.266
-0.458	26.653	1446.592	1179.695
0.556	26.798	1436.414	1167.343
1.571	23.590	1410.731	1126.051
2.586	19.910	1349.913	1055.021
3.600	18.184	1267.936	980.976
4.615	16.876	1223.528	939.292
5.629	14.482	1167.280	883.362
6.644	8.575	1086.012	792.591
7.659	4.120	1050.347	745.104
8.673	3.365	1045.295	737.843
9.688	3.409	1042.168	735.782
10.702	3.392	1040.764	734.642
11.717	3.504	1038.567	733.558
12.731	5.124	1039.175	741.626
13.746	11.212	1047.853	776.852
14.761	17.499	1055.837	812.813
15.775	19.486	1057.870	823.801
16.790	19.201	1056.602	821.382
17.804	18.132	1054.637	814.691
18.819	17.281	1052.489	808.912
19.834	16.813	1051.515	805.865
20.848	16.531	1051.019	804.075
21.863	16.539	1049.504	802.881
22.877	16.279	1049.276	801.403
23.892	16.094	1048.431	799.808
24.907	16.074	1047.275	798.759
25.921	16.027	1046.844	798.140
26.936	16.143	1045.755	797.787
27.950	16.109	1044.645	796.707
28.965	16.158	1043.941	796.335
29.980	16.164	1042.454	795.157
30.994	16.366	1041.323	795.173
32.009	16.420	1040.499	794.728
33.023	16.460	1040.007	794.472
34.038	16.499	1039.195	793.961
35.053	16.311	1038.192	792.243
36.067	16.350	1037.056	791.491
37.082	16.221	1036.878	790.679
38.096	16.146	1035.875	789.496
39.111	16.216	1035.625	789.563
40.126	16.249	1034.567	788.840
41.140	16.293	1032.899	787.705
42.155	16.162	1031.592	786.027
43.169	15.957	1030.489	784.162
44.184	15.982	1029.900	783.760
45.199	15.976	1028.361	782.490
46.213	15.874	1027.659	781.417
47.228	15.968	1026.558	780.947
48.242	16.173	1025.937	781.354
49.257	16.205	1025.216	780.883
50.271	16.115	1024.261	779.669
51.286	16.154	1023.620	779.295
52.301	16.274	1022.372	778.828
53.315	16.337	1021.613	778.473
54.330	16.170	1021.244	777.351
55.344	16.012	1020.515	775.999
56.359	16.007	1018.730	774.552
57.374	16.026	1018.122	774.110
58.388	16.100	1016.689	773.288
59.403	15.950	1016.173	772.143
60.417	15.944	1015.654	771.653
61.432	15.912	1015.062	770.986
62.447	16.000	1013.916	770.450
63.461	15.756	1013.527	768.973
64.476	15.802	1012.693	768.479
65.490	15.783	1011.582	767.484
66.505	15.774	1010.981	766.918
67.520	15.820	1009.871	766.216
68.534	15.798	1009.445	765.727
69.549	15.890	1008.562	765.408
70.563	15.997	1007.677	765.152
71.578	15.816	1007.369	764.030
72.593	15.691	1006.418	762.672
73.607	15.720	1005.076	761.719
74.622	15.526	1004.351	760.226
75.636	15.783	1003.161	760.418
76.651	15.753	1002.561	759.764
77.666	15.759	1001.977	759.282
78.680	15.640	1001.579	758.374
79.695	15.760	1000.707	758.186
80.709	15.830	1000.075	757.958
81.724	15.960	999.003	757.660
82.739	15.992	998.160	757.099
83.753	15.902	997.837	756.385
84.768	16.165	997.317	757.103
85.782	16.239	996.791	756.968
86.797	16.580	995.455	757.414
87.812	16.281	995.257	755.856
88.826	16.266	994.271	754.974
89.841	16.110	993.692	753.772
90.855	16.260	992.573	753.527
91.870	16.288	991.781	752.980
92.884	16.364	991.214	752.826
93.899	16.294	990.532	751.929
94.914	16.479	989.267	751.724
95.928	16.383	989.150	751.141
96.943	16.569	988.029	751.049
97.957	16.273	987.284	749.104
98.972	16.397	986.398	748.914
99.987	16.399	985.718	748.341
101.001	16.307	985.279	747.535
102.016	16.419	984.047	747.028
103.030	16.323	983.333	745.997
104.045	16.323	982.724	745.469
105.060	16.417	981.253	744.700
106.074	16.301	980.669	743.680
107.089	16.160	979.253	741.923
108.103	15.987	978.358	740.415
109.118	15.873	977.971	739.559
110.133	16.009	976.706	739.134
111.147	15.911	976.077	738.160
112.162	15.947	975.033	737.464
113.176	15.951	974.501	737.014
114.191	15.925	973.760	736.274
115.206	16.050	972.956	736.150
116.220	16.124	971.960	735.652
117.235	16.199	971.063	735.235
118.249	15.985	970.682	733.948
119.264	16.069	969.568	733.409
120.279	15.971	968.961	732.455
121.293	15.992	967.958	731.726
122.308	15.952	966.981	730.750
123.322	15.808	966.430	729.642
124.337	15.800	965.155	728.582
125.352	15.846	964.037	727.874
126.366	15.785	962.998	726.761
127.381	15.828	961.973	726.108
128.395	15.772	961.338	725.323
129.410	15.804	960.397	724.685
130.424	15.833	959.619	724.158
131.439	16.007	958.505	724.001
132.454	15.788	957.805	722.468
133.468	15.997	957.085	722.761
134.483	16.092	956.394	722.579
135.497	16.175	955.559	722.242
136.512	16.058	955.139	721.361
137.527	15.869	954.813	720.242
138.541	15.936	953.699	719.620
139.556	16.010	952.881	719.256
140.570	16.044	952.221	718.843
141.585	16.244	951.416	719.021
142.600	16.218	951.402	718.838
143.614	16.364	950.013	718.346
144.629	16.336	949.589	717.842
145.643	16.533	948.578	717.850
146.658	16.493	947.720	716.968
147.673	16.346	946.773	715.565
148.687	16.035	946.239	713.783
149.702	15.999	945.175	712.763
150.716	16.162	944.156	712.619
151.731	16.293	942.990	712.232
152.746	16.010	942.960	710.953
153.760	16.107	941.561	710.242
154.775	16.065	940.996	709.575
155.789	16.335	940.211	710.058
156.804	16.379	939.796	709.866
157.819	16.397	938.979	709.259
158.833	16.460	937.943	708.681
159.848	16.339	937.762	707.973
160.862	16.575	936.813	708.181
161.877	16.450	936.540	707.387
162.892	16.274	935.353	705.694
163.906	16.163	934.149	704.262
164.921	16.076	933.728	703.517
165.935	16.243	932.217	703.012
166.950	16.061	932.106	702.110
167.964	16.351	930.797	702.265
168.979	16.377	929.790	701.553
169.994	16.275	928.933	700.420
171.008	16.204	927.735	699.160
172.023	16.336	927.246	699.279
173.037	16.306	926.806	698.762
174.052	16.553	926.133	699.212
175.067	16.522	925.122	698.259
176.081	16.265	924.328	696.538
177.096	16.265	923.479	695.837
178.110	16.287	922.504	695.130
179.125	16.265	921.792	694.440
180.140	16.386	921.223	694.450
181.154	16.316	921.029	693.955
182.169	16.244	920.091	692.889
183.183	16.505	919.786	693.671
184.198	16.667	918.771	693.506
185.213	16.588	918.145	692.647
186.227	16.643	917.666	692.453
187.242	16.567	917.632	692.052
188.256	16.590	917.011	691.620
189.271	16.750	916.037	691.476
190.286	16.798	914.990	690.821
191.300	16.560	914.373	689.322
192.315	16.411	913.083	687.682
193.329	16.093	912.619	685.979
194.344	16.141	911.930	685.595
195.359	16.253	911.285	685.504
196.373	16.582	910.707	686.344
197.388	16.629	910.348	686.204
198.402	16.651	910.170	686.099
199.417	16.789	909.365	685.990
200.432	16.881	909.461	686.372
201.446	16.973	908.706	686.116
202.461	17.005	908.460	685.999
203.475	17.072	907.344	685.365
204.490	17.165	906.546	685.077
205.504	16.777	906.050	683.077
206.519	16.829	905.551	682.850
207.534	16.679	904.608	681.475
208.548	16.753	903.658	680.995
209.563	16.690	903.379	680.472
210.577	16.726	902.830	680.146
211.592	16.717	901.940	679.378
212.607	16.985	901.413	679.994
213.621	17.164	900.902	680.266
214.636	16.945	899.920	678.587
215.650	17.047	899.404	678.546
216.665	16.974	898.758	677.707
217.680	17.019	898.345	677.517
218.694	17.043	898.166	677.418
219.709	17.115	897.615	677.229
220.723	17.184	896.465	676.577
221.738	17.062	895.916	675.616
222.753	17.176	895.049	675.354
223.767	17.144	894.524	674.773
224.782	17.136	893.680	674.045
225.796	17.208	893.259	673.953
226.811	17.361	892.829	674.174
227.826	17.288	891.438	672.775
228.840	17.152	891.052	671.889
229.855	17.078	890.391	671.038
230.869	17.195	889.771	670.972
231.884	17.179	889.244	670.455
232.899	17.007	888.708	669.309
233.913	17.074	887.854	668.874
234.928	17.024	886.969	667.951
235.942	16.985	886.366	667.282
236.957	16.910	885.443	666.234
237.972	16.975	884.757	665.914
238.986	17.075	884.021	665.696
240.001	17.050	883.518	665.159
241.015	17.231	882.817	665.282
242.030	17.161	882.790	664.928
243.045	17.219	882.022	664.516
244.059	17.240	881.151	663.883
245.074	17.204	880.633	663.295
246.088	17.302	880.111	663.224
247.103	17.349	879.536	662.915
248.117	17.374	879.414	662.863
249.132	17.359	878.553	662.097
250.147	17.639	877.904	662.637
251.161	17.718	877.477	662.566
252.176	17.758	876.834	662.177
253.190	17.821	876.185	661.870
254.205	17.842	875.864	661.650
255.220	17.928	875.146	661.382
256.234	17.936	874.155	660.608
257.249	17.782	873.691	659.603
258.263	17.856	873.541	659.716
259.278	17.905	872.761	659.259
260.293	17.820	872.272	658.502
261.307	17.896	871.732	658.330
262.322	17.894	870.998	657.712
263.336	18.038	870.422	657.773
264.351	18.141	869.408	657.343
265.366	18.049	869.043	656.656
266.380	18.121	868.205	656.242
267.395	18.065	867.802	655.664
268.409	18.067	866.749	654.818
269.424	17.986	866.366	654.159
270.439	17.922	865.983	653.568
271.453	17.902	864.918	652.629
272.468	17.870	864.134	651.857
273.482	17.826	863.711	651.314
274.497	17.860	863.014	650.859
275.512	17.866	862.152	650.174
276.526	17.892	861.532	649.747
277.541	17.941	860.787	649.315
278.555	17.996	860.198	649.024
279.570	18.080	859.769	648.960
280.585	18.193	859.816	649.367
281.599	18.246	858.839	648.773
282.614	18.066	858.288	647.617
283.628	17.988	857.716	646.836
284.643	17.963	856.865	646.039
285.657	18.012	856.747	646.080
286.672	18.216	855.906	646.158
287.687	17.999	855.442	644.933
288.701	18.043	855.044	644.743
289.716	18.069	854.536	644.398
290.730	18.147	853.743	644.036
291.745	18.173	853.155	643.633
292.760	18.063	852.678	642.805
293.774	18.158	852.256	642.785
294.789	18.244	851.550	642.520
295.803	18.322	850.919	642.278
296.818	18.127	850.270	641.003
297.833	18.127	849.867	640.641
298.847	18.176	849.423	640.433
299.862	18.219	848.406	639.771
300.876	18.172	847.686	638.995
301.891	18.395	846.989	639.247
302.906	18.247	847.001	638.647
303.920	18.519	845.944	638.806
304.935	18.649	845.160	638.640
305.949	18.497	844.950	637.861
306.964	18.558	844.201	637.467
307.979	18.569	843.282	636.757
308.993	18.539	842.508	636.004
310.008	18.495	842.587	635.843
311.022	18.769	841.805	636.214
312.037	18.527	841.828	635.279
313.052	18.460	841.010	634.357
314.066	18.491	839.933	633.602
315.081	18.366	839.549	632.793
316.095	18.252	839.012	631.911
317.110	18.450	838.330	632.075
318.125	18.246	838.327	631.262
319.139	18.379	837.706	631.229
320.154	18.408	836.961	630.720
321.168	18.454	836.449	630.448
322.183	18.485	835.856	630.060
323.197	18.364	835.755	629.483
324.212	18.516	834.887	629.330
325.227	18.493	834.633	628.999
326.241	18.590	833.769	628.646
327.256	18.424	833.383	627.692
328.270	18.426	832.789	627.196
329.285	18.398	831.907	626.374
330.300	18.500	831.184	626.146
331.314	18.385	830.712	625.318
332.329	18.496	830.385	625.421
333.343	18.490	830.008	625.058
334.358	18.548	829.508	624.841
335.373	18.716	828.921	624.953
336.387	18.724	828.365	624.507
337.402	18.750	827.887	624.185
338.416	18.779	827.357	623.836
339.431	18.819	826.678	623.416
340.446	18.900	826.292	623.361
341.460	19.057	825.636	623.381
342.475	19.133	825.304	623.351
343.489	19.170	824.752	623.011
344.504	19.287	824.051	622.852
345.519	19.283	823.641	622.472
346.533	19.300	823.300	622.220
347.548	19.330	822.458	621.635
348.562	19.038	822.093	620.252
349.577	18.965	821.250	619.299
350.592	18.911	820.788	618.703
351.606	18.959	820.219	618.390
352.621	18.747	819.982	617.397
353.635	18.864	819.667	617.523
354.650	18.905	819.277	617.321
355.665	18.932	818.730	616.951
356.679	19.022	818.298	616.896
357.694	19.083	818.052	616.873
358.708	19.134	817.354	616.476
359.723	19.044	816.795	615.679
360.738	19.038	816.395	615.301
361.752	19.125	815.711	615.042
362.767	19.215	815.100	614.845
363.781	19.122	815.002	614.386
364.796	19.297	814.245	614.386
365.810	19.368	814.182	614.538
366.825	19.515	813.901	614.794
367.840	19.755	813.283	615.128
368.854	19.556	812.766	613.975
369.869	19.463	812.334	613.261
370.883	19.550	811.617	612.976
371.898	19.470	810.922	612.112
372.913	19.536	810.374	611.880
373.927	19.412	810.213	611.264
374.942	19.367	809.299	610.362
375.956	19.542	808.863	610.597
376.971	19.509	808.455	610.119
377.986	19.578	808.100	610.041
379.000	19.634	807.373	609.636
380.015	19.778	806.616	609.516
381.029	19.750	806.515	609.289
382.044	19.765	805.721	608.687
383.059	19.744	805.190	608.158
384.073	19.683	804.770	607.572
385.088	19.657	804.190	606.990
386.102	19.686	803.323	606.384
387.117	19.604	802.893	605.720
388.132	19.670	802.183	605.360
389.146	19.542	801.810	604.577
390.161	19.464	802.153	604.508
391.175	19.665	801.314	604.527
392.190	19.599	801.317	604.243
393.205	19.811	800.798	604.541
394.219	19.712	800.055	603.579
395.234	19.589	799.745	602.864
396.248	19.517	798.958	601.965
397.263	19.614	798.576	601.962
398.278	19.537	797.825	601.077
399.292	19.729	796.928	601.015
400.307	19.441	796.949	599.976
401.321	19.402	796.762	599.646
402.336	19.476	796.168	599.402
403.350	19.589	795.949	599.576
404.365	19.575	795.560	599.183
405.380	19.645	795.052	598.989
406.394	19.774	794.675	599.100
407.409	19.900	793.829	598.844
408.423	19.945	793.858	598.971
409.438	19.915	793.200	598.315
410.453	20.124	793.009	598.839
411.467	20.062	792.818	598.431
412.482	20.212	791.816	598.140
413.496	20.210	791.415	597.777
414.511	20.264	790.939	597.549
415.526	20.206	791.146	597.452
416.540	20.287	790.662	597.312
417.555	20.120	789.829	596.058
418.569	20.174	789.552	595.980
419.584	20.069	789.390	595.445
420.599	20.068	788.894	595.014
421.613	162.502	1371.333	1798.483
422.628	140.737	1456.170	1798.555
