DTS Sentinel unit serial number:	SN413079Multiplexer serial number:	ORYXHardware model number:	OX4-SRSoftware version number:	ORYX F/W v4.00 Oryx Data Collector v3.7.2.0data status	okinstallation	princeton_trtdifferential loss correction	single-endedforward channel	channel 3reverse channel	N/Adate	2019/09/19time	10:52:35forward acquisition time	60.00reverse acquisition time	0.00gamma	496.2192k internal	0.2342k external	0.2342temperature offset calibration	0.9984default loss term (dB/km)	0.3790temperature slope calibration	1.0000multiplexer offset coefficient	1.0000multiplexer slope coefficient	1.0000fibre end	0.00T internal ref (°C)	24.75T ext. ref 1 (°C)	0.74T ext. ref 2 (°C)	20.16length (m)	temperature (°C)	Stokes	anti-Stokes-747.200	139.642	0.252	-0.333
-746.185	92.947	0.076	0.086
-745.171	-200.000	0.018	0.095
-744.156	800.000	-0.145	0.555
-743.142	41.734	-0.039	0.036
-742.127	-200.000	-0.003	0.099
-741.112	-200.000	0.024	0.112
-740.098	-90.657	-0.477	-0.138
-739.083	-147.294	0.301	-0.026
-738.069	486.552	0.201	0.458
-737.054	142.805	0.169	0.225
-736.039	-130.568	-0.364	-0.049
-735.025	-70.734	0.272	-0.103
-734.010	-200.000	-0.035	-0.288
-732.996	-137.766	-0.187	0.021
-731.981	98.481	-0.044	0.051
-730.966	155.384	0.231	0.319
-729.952	-92.522	-0.160	-0.045
-728.937	-88.436	-0.261	-0.078
-727.923	-96.475	-0.186	0.049
-726.908	-165.028	0.136	-0.006
-725.894	-200.000	-0.017	0.104
-724.879	20.008	-0.180	0.145
-723.864	800.000	0.021	-0.075
-722.850	-154.657	-0.134	0.009
-721.835	505.170	0.102	-0.237
-720.821	2.609	-0.223	0.162
-719.806	-32.371	0.272	0.152
-718.791	111.165	-0.125	-0.151
-717.777	800.000	0.032	-0.126
-716.762	-44.425	-0.165	0.083
-715.748	280.149	-0.106	-0.190
-714.733	-200.000	0.179	-0.000
-713.718	-23.053	-0.037	-0.022
-712.704	26.345	0.100	-0.084
-711.689	-62.949	0.141	0.058
-710.675	150.842	0.065	-0.089
-709.660	-200.000	-0.028	-0.130
-708.645	101.798	0.162	-0.188
-707.631	158.895	-0.053	-0.074
-706.616	9.055	-0.344	0.260
-705.602	-7.117	0.081	0.055
-704.587	178.142	-0.181	-0.264
-703.572	-187.242	0.313	-0.004
-702.558	-81.308	-0.633	0.209
-701.543	-61.041	0.225	-0.095
-700.529	110.246	0.106	0.128
-699.514	-53.825	-0.372	0.170
-698.499	-83.935	0.576	-0.183
-697.485	436.550	-0.161	0.350
-696.470	-135.888	0.021	-0.002
-695.456	427.815	0.139	0.300
-694.441	-91.381	0.095	0.027
-693.426	12.174	0.224	-0.172
-692.412	-86.310	-0.091	-0.028
-691.397	-200.000	0.031	0.201
-690.383	507.999	-0.103	-0.239
-689.368	-93.903	-0.273	0.075
-688.354	800.000	-0.036	-0.119
-687.339	800.000	0.057	-0.202
-686.324	362.971	-0.156	-0.314
-685.310	-200.000	-0.016	0.130
-684.295	2.909	0.158	0.115
-683.281	-179.922	-0.141	0.003
-682.266	-200.000	-0.013	-0.310
-681.251	-95.591	0.239	-0.064
-680.237	-29.831	0.318	0.181
-679.222	-200.000	-0.027	-0.139
-678.208	208.053	0.072	0.113
-677.193	505.908	0.028	-0.065
-676.178	800.000	0.047	0.148
-675.164	-140.365	-0.203	0.021
-674.149	-107.301	-0.053	-0.012
-673.135	-60.465	-0.323	-0.137
-672.120	-200.000	-0.003	-0.314
-671.105	-200.000	0.081	0.000
-670.091	-200.000	-0.031	0.426
-669.076	800.000	-0.022	-0.076
-668.062	-200.000	-0.065	-0.307
-667.047	3.763	-0.282	-0.206
-666.032	241.909	-0.070	-0.117
-665.018	-140.281	-0.226	0.024
-664.003	-76.136	-0.483	-0.170
-662.989	248.375	-0.173	-0.293
-661.974	147.745	-0.077	0.103
-660.959	800.000	-0.062	-0.182
-659.945	800.000	0.048	-0.199
-658.930	22.894	0.119	-0.097
-657.916	489.361	0.143	-0.327
-656.901	-200.000	-0.013	0.323
-655.886	-200.000	0.012	0.207
-654.872	-115.926	0.078	0.014
-653.857	-16.074	-0.383	-0.243
-652.843	62.822	0.108	-0.108
-651.828	53.475	0.168	-0.161
-650.814	623.097	-0.123	0.309
-649.799	42.608	0.130	-0.118
-648.784	112.475	0.199	-0.240
-647.770	-200.000	0.019	0.094
-646.755	332.644	-0.141	0.272
-645.741	-178.225	-0.096	0.002
-644.726	305.611	0.080	0.148
-643.711	-56.726	0.227	-0.100
-642.697	121.817	0.155	0.193
-641.682	-136.577	-0.252	0.029
-640.668	-114.748	-0.184	0.035
-639.653	800.000	-0.020	-0.083
-638.638	-25.111	0.095	0.056
-637.624	-200.000	-0.039	0.244
-636.609	259.687	0.140	-0.242
-635.595	7.907	-0.142	-0.106
-634.580	800.000	0.040	-0.164
-633.565	57.127	0.272	0.264
-632.551	-200.000	-0.044	-0.399
-631.536	-1.992	0.073	-0.051
-630.522	-200.000	0.017	0.252
-629.507	46.362	-0.173	-0.160
-628.492	74.876	-0.049	-0.051
-627.478	-8.197	-0.178	-0.120
-626.463	800.000	0.009	-0.033
-625.449	-138.747	0.120	-0.013
-624.434	-97.295	-0.390	-0.101
-623.419	-200.000	-0.030	-0.221
-622.405	551.498	0.095	-0.228
-621.390	-46.275	-0.266	0.131
-620.376	-5.317	-0.140	0.096
-619.361	22.814	-0.112	-0.092
-618.346	494.622	0.114	-0.262
-617.332	-166.453	-0.223	-0.009
-616.317	-200.000	-0.013	-0.124
-615.303	-200.000	-0.014	0.221
-614.288	676.779	-0.010	0.027
-613.273	-60.779	0.177	-0.075
-612.259	377.228	0.078	0.159
-611.244	-40.008	0.242	0.126
-610.230	-200.000	-0.018	-0.156
-609.215	-200.000	0.082	-0.376
-608.201	-47.814	-0.342	-0.165
-607.186	-108.095	-0.051	-0.011
-606.171	-87.807	-0.270	-0.081
-605.157	0.586	0.472	0.336
-604.142	800.000	-0.066	-0.251
-603.128	800.000	-0.046	0.128
-602.113	800.000	0.052	0.225
-601.098	800.000	-0.057	0.161
-600.084	-68.989	-0.091	-0.035
-599.069	230.154	-0.147	-0.240
-598.055	-79.391	0.084	-0.028
-597.040	-147.470	-0.130	-0.011
-596.025	-200.000	0.013	0.088
-595.011	-200.000	-0.017	-0.333
-593.996	-200.000	-0.021	-0.103
-592.982	14.825	-0.303	0.236
-591.967	703.338	0.167	-0.437
-590.952	253.340	-0.190	-0.322
-589.938	800.000	0.104	0.352
-588.923	118.842	-0.259	-0.318
-587.909	136.719	0.022	-0.029
-586.894	-200.000	-0.045	0.535
-585.879	92.536	-0.340	0.381
-584.865	-200.000	-0.016	-0.139
-583.850	-43.671	-0.380	-0.191
-582.836	221.914	-0.132	-0.212
-581.821	-200.000	0.002	0.086
-580.806	-200.000	-0.010	-0.220
-579.792	800.000	-0.044	-0.137
-578.777	-20.192	0.106	-0.065
-577.763	-57.343	0.118	-0.052
-576.748	-107.623	-0.244	0.053
-575.733	481.822	0.077	0.174
-574.719	-170.677	-0.163	-0.006
-573.704	800.000	-0.144	-0.514
-572.690	800.000	0.067	-0.202
-571.675	-200.000	-0.004	0.182
-570.661	-150.309	-0.284	-0.022
-569.646	-26.142	0.304	-0.178
-568.631	240.717	0.131	0.217
-567.617	304.883	-0.121	0.223
-566.602	-31.442	0.208	0.116
-565.588	379.490	-0.064	-0.130
-564.573	-1.407	-0.221	-0.155
-563.558	371.526	0.245	-0.495
-562.544	2.238	-0.247	0.178
-561.529	26.040	-0.181	-0.150
-560.515	-200.000	0.012	0.304
-559.500	-200.000	-0.031	-0.181
-558.485	-200.000	0.064	-0.502
-557.471	-98.360	-0.033	-0.008
-556.456	-32.320	-0.454	0.252
-555.442	-101.044	-0.064	0.016
-554.427	-75.045	0.343	-0.122
-553.412	-146.647	-0.052	0.005
-552.398	-107.372	0.092	-0.020
-551.383	277.662	0.037	-0.066
-550.369	-138.167	-0.093	0.010
-549.354	-113.368	-0.227	0.044
-548.339	128.566	0.047	-0.059
-547.325	800.000	-0.036	-0.110
-546.310	800.000	0.062	-0.225
-545.296	-40.322	0.121	-0.063
-544.281	442.540	0.050	-0.108
-543.266	-200.000	-0.056	0.561
-542.252	-79.994	-0.141	-0.047
-541.237	-200.000	0.034	0.452
-540.223	-64.747	-0.175	0.070
-539.208	3.438	-0.025	-0.018
-538.193	14.167	0.041	0.032
-537.179	-200.000	0.004	-0.027
-536.164	-200.000	0.001	-0.071
-535.150	343.281	-0.246	0.478
-534.135	192.846	0.267	-0.401
-533.121	120.765	0.260	-0.321
-532.106	645.514	0.101	0.255
-531.091	-135.242	0.160	-0.019
-530.077	-200.000	-0.041	-0.218
-529.062	-155.992	-0.357	0.022
-528.048	185.678	0.120	-0.177
-527.033	-35.378	0.115	-0.062
-526.018	-103.956	-0.358	0.083
-525.004	-156.130	0.139	-0.009
-523.989	-200.000	0.015	0.131
-522.975	-191.128	0.038	-0.000
-521.960	31.862	-0.097	0.083
-520.945	24.313	-0.146	0.120
-519.931	-129.431	-0.058	0.008
-518.916	-200.000	-0.014	-0.107
-517.902	14.062	0.107	-0.083
-516.887	-200.000	-0.052	0.284
-515.872	28.708	-0.173	0.146
-514.858	341.883	0.076	0.147
-513.843	800.000	-0.051	0.193
-512.829	46.112	0.236	0.217
-511.814	-59.552	-0.255	0.109
-510.799	-4.003	-0.199	-0.137
-509.785	-100.509	0.101	-0.025
-508.770	353.454	-0.089	0.175
-507.756	160.446	0.183	-0.253
-506.741	-200.000	0.021	0.094
-505.726	800.000	-0.041	0.120
-504.712	800.000	-0.049	-0.180
-503.697	-144.861	0.281	0.026
-502.683	-66.928	0.362	-0.142
-501.668	14.858	-0.098	0.076
-500.653	-5.310	-0.351	0.239
-499.639	442.386	0.107	0.233
-498.624	60.323	-0.313	0.307
-497.610	-84.582	-0.154	0.048
-496.595	800.000	0.099	-0.319
-495.581	92.837	0.047	0.052
-494.566	80.078	-0.145	0.155
-493.551	129.061	-0.076	-0.096
-492.537	-101.353	0.051	-0.012
-491.522	215.183	0.173	-0.273
-490.508	86.931	-0.117	0.128
-489.493	110.198	0.113	-0.135
-488.478	149.288	-0.149	-0.200
-487.464	92.057	-0.196	0.218
-486.449	-82.832	-0.192	-0.061
-485.435	-122.800	0.217	0.035
-484.420	-200.000	-0.008	-0.085
-483.405	-33.330	-0.244	0.134
-482.391	-200.000	-0.004	0.065
-481.376	7.370	-0.175	-0.129
-480.362	-20.653	-0.279	0.170
-479.347	-200.000	0.064	-0.300
-478.332	20.961	-0.023	0.018
-477.318	-200.000	-0.092	0.407
-476.303	-14.312	-0.150	0.096
-475.289	-29.500	-0.189	-0.107
-474.274	-200.000	0.006	-0.139
-473.259	-61.752	0.158	-0.066
-472.245	-48.358	-0.066	-0.032
-471.230	-200.000	0.049	-0.348
-470.216	800.000	-0.064	-0.197
-469.201	-116.531	0.170	0.031
-468.186	-48.612	-0.233	0.111
-467.172	-200.000	-0.040	0.234
-466.157	-200.000	0.402	0.001
-465.143	-47.636	-0.167	0.080
-464.128	-148.398	-0.322	0.026
-463.113	650.403	0.104	0.263
-462.099	-200.000	-0.019	-0.237
-461.084	128.490	-0.148	0.186
-460.070	-100.212	0.397	0.098
-459.055	180.350	0.143	0.208
-458.040	214.131	0.068	0.106
-457.026	25.094	0.164	0.135
-456.011	-200.000	0.050	0.216
-454.997	-64.713	-0.415	-0.166
-453.982	-200.000	0.042	-0.255
-452.968	-98.234	-0.099	-0.025
-451.953	-119.127	-0.417	-0.072
-450.938	-141.163	0.265	0.027
-449.924	-144.878	0.132	-0.012
-448.909	-200.000	0.013	0.090
-447.895	-64.024	0.330	-0.134
-446.880	89.154	-0.060	0.066
-445.865	109.107	-0.151	0.179
-444.851	800.000	0.039	-0.143
-443.836	-200.000	-0.018	-0.184
-442.822	221.845	-0.160	0.255
-441.807	-5.479	-0.154	-0.105
-440.792	261.889	0.325	-0.557
-439.778	135.290	0.092	0.119
-438.763	51.352	-0.124	0.117
-437.749	800.000	-0.084	-0.230
-436.734	78.708	0.230	-0.244
-435.719	319.910	-0.085	0.160
-434.705	-1.019	-0.030	-0.021
-433.690	248.740	0.121	0.203
-432.676	-45.656	0.126	0.062
-431.661	-59.007	0.230	0.098
-430.646	39.289	-0.128	0.113
-429.632	197.911	-0.100	0.152
-428.617	-105.209	-0.155	0.035
-427.603	800.000	0.058	0.185
-426.588	158.123	-0.033	-0.046
-425.573	433.719	0.047	0.101
-424.559	210.360	0.051	0.079
-423.544	-108.053	0.139	-0.030
-422.530	-67.081	0.293	0.114
-421.515	220.462	0.086	0.136
-420.500	800.000	0.062	-0.228
-419.486	347.864	-0.043	-0.084
-418.471	4.136	-0.045	-0.033
-417.457	800.000	-0.023	-0.099
-416.442	-101.453	0.065	-0.016
-415.428	25.976	0.131	-0.108
-414.413	-103.415	-0.192	0.045
-413.398	-200.000	0.016	0.410
-412.384	-144.335	0.192	-0.018
-411.369	31.137	-0.185	-0.157
-410.355	-200.000	0.004	-0.354
-409.340	-56.286	0.205	-0.090
-408.325	300.538	0.117	0.214
-407.311	-154.432	0.156	-0.010
-406.296	-58.996	-0.338	0.144
-405.282	-57.832	0.351	0.152
-404.267	202.199	0.044	-0.067
-403.252	601.959	0.103	0.254
-402.238	-115.577	-0.180	0.033
-401.223	-123.005	0.181	0.029
-400.209	-47.263	-0.096	0.046
-399.194	132.503	0.240	0.305
-398.179	276.403	-0.288	-0.505
-397.165	-75.822	-0.205	0.072
-396.150	112.142	0.134	-0.160
-395.136	-103.369	0.187	-0.043
-394.121	-4.409	-0.199	-0.136
-393.106	174.911	0.120	-0.172
-392.092	-173.675	-0.225	-0.007
-391.077	-200.000	0.024	-0.109
-390.063	-20.383	-0.425	-0.258
-389.048	647.444	0.081	0.206
-388.033	166.223	0.253	0.354
-387.019	800.000	0.047	-0.145
-386.004	32.990	-0.092	-0.079
-384.990	72.458	-0.197	-0.203
-383.975	-86.072	0.173	-0.053
-382.960	-17.244	-0.180	0.112
-381.946	-64.074	-0.302	-0.122
-380.931	641.977	0.012	-0.031
-379.917	-133.729	-0.114	-0.014
-378.902	-200.000	-0.049	0.222
-377.888	529.280	-0.062	0.145
-376.873	-44.794	0.221	-0.109
-375.858	-173.092	-0.175	-0.005
-374.844	-163.559	0.202	-0.009
-373.829	81.272	0.105	0.112
-372.815	-143.885	0.225	0.021
-371.800	5.695	-0.134	0.098
-370.785	-46.489	0.057	0.028
-369.771	168.600	0.196	-0.276
-368.756	-173.370	-0.405	-0.012
-367.742	-61.236	0.257	0.107
-366.727	62.450	0.129	0.127
-365.712	-71.259	0.193	-0.072
-364.698	-47.135	-0.396	-0.191
-363.683	800.000	0.049	0.157
-362.669	445.651	0.074	0.161
-361.654	227.035	-0.081	-0.130
-360.639	45.282	-0.095	-0.086
-359.625	111.719	0.126	0.150
-358.610	-200.000	-0.011	-0.359
-357.596	-107.781	-0.351	-0.076
-356.581	-147.092	-0.277	0.023
-355.566	-182.862	0.124	-0.002
-354.552	4.282	-0.120	-0.086
-353.537	196.646	-0.137	-0.205
-352.523	-200.000	-0.003	0.106
-351.508	102.922	-0.058	-0.066
-350.493	800.000	-0.052	0.215
-349.479	800.000	-0.066	0.248
-348.464	177.255	-0.095	0.136
-347.450	-200.000	-0.142	0.623
-346.435	-93.015	-0.112	0.031
-345.420	-200.000	0.089	-0.399
-344.406	-1.918	0.260	0.180
-343.391	-200.000	0.018	0.098
-342.377	708.534	-0.088	-0.230
-341.362	-148.623	0.445	-0.036
-340.348	686.987	-0.127	-0.328
-339.333	-132.476	0.189	0.024
-338.318	-200.000	-0.020	-0.125
-337.304	-49.157	-0.151	0.071
-336.289	-79.891	-0.407	-0.135
-335.275	-113.139	0.128	-0.025
-334.260	168.488	-0.206	-0.290
-333.245	113.608	0.094	-0.112
-332.231	800.000	0.084	0.259
-331.216	64.429	-0.229	-0.227
-330.202	-67.628	-0.125	0.048
-329.187	-90.667	0.162	0.046
-328.172	77.390	0.172	-0.180
-327.158	-14.127	-0.105	0.067
-326.143	-65.343	0.247	0.098
-325.129	-38.725	0.157	0.082
-324.114	123.711	0.044	0.055
-323.099	-184.801	0.234	-0.004
-322.085	-200.000	-0.041	-0.366
-321.070	316.751	0.032	0.059
-320.056	-115.335	0.165	0.031
-319.041	-28.629	0.267	0.152
-318.026	800.000	-0.048	0.148
-317.012	190.813	-0.077	0.114
-315.997	361.315	-0.109	-0.214
-314.983	24.579	0.115	-0.094
-313.968	-97.192	-0.037	0.010
-312.953	-44.389	0.247	0.122
-311.939	274.697	0.160	-0.278
-310.924	-106.233	0.118	0.026
-309.910	124.919	0.241	0.299
-308.895	71.999	-0.154	0.158
-307.880	157.102	-0.193	-0.262
-306.866	0.486	-0.339	0.239
-305.851	-64.895	-0.205	0.082
-304.837	-107.239	0.574	-0.124
-303.822	26.256	-0.221	0.182
-302.807	-114.943	0.581	-0.109
-301.793	104.227	0.173	0.201
-300.778	-200.000	-0.024	-0.221
-299.764	-57.734	0.149	-0.064
-298.749	-172.474	-0.348	0.011
-297.735	55.419	0.076	0.072
-296.720	-200.000	0.044	0.219
-295.705	-188.276	0.219	0.003
-294.691	22.040	0.424	-0.340
-293.676	-100.860	0.154	-0.037
-292.662	-200.000	0.051	0.368
-291.647	42.517	0.132	-0.118
-290.632	632.697	0.055	0.138
-289.618	-90.450	-0.257	-0.073
-288.603	-200.000	0.032	0.266
-287.589	49.649	0.223	-0.207
-286.574	149.212	0.146	0.195
-285.559	-200.000	-0.042	0.206
-284.545	-118.881	-0.338	-0.058
-283.530	-87.976	-0.088	0.026
-282.516	41.458	-0.122	0.109
-281.501	88.399	-0.121	-0.132
-280.486	49.953	0.255	0.237
-279.472	19.691	0.113	-0.089
-278.457	51.746	-0.082	0.076
-277.443	363.281	-0.254	0.502
-276.428	7.056	0.120	0.088
-275.413	117.863	0.105	-0.128
-274.399	-42.429	0.206	-0.103
-273.384	162.484	-0.265	-0.366
-272.370	-95.310	0.219	-0.058
-271.355	-200.000	0.019	-0.147
-270.340	-57.182	0.377	0.163
-269.326	221.419	-0.107	-0.169
-268.311	800.000	-0.083	0.268
-267.297	-37.494	0.180	-0.095
-266.282	-128.578	0.264	-0.037
-265.267	-40.896	-0.296	-0.151
-264.253	800.000	-0.030	0.111
-263.238	520.922	-0.039	-0.090
-262.224	329.589	-0.046	0.087
-261.209	-200.000	-0.013	0.083
-260.195	-200.000	-0.012	-0.166
-259.180	370.231	-0.219	-0.435
-258.165	62.656	0.204	0.200
-257.151	30.184	-0.199	0.167
-256.136	282.274	-0.148	0.261
-255.122	68.629	0.196	0.198
-254.107	-200.000	0.017	0.214
-253.092	-19.621	-0.189	-0.115
-252.078	-124.479	0.264	0.040
-251.063	-200.000	0.030	0.240
-250.049	-20.002	0.072	0.044
-249.034	689.240	-0.097	0.248
-248.019	381.461	0.145	0.293
-247.005	800.000	-0.042	0.121
-245.990	-200.000	0.011	0.061
-244.976	800.000	0.099	-0.329
-243.961	-183.645	0.174	-0.003
-242.946	-200.000	0.039	-0.249
-241.932	40.148	0.182	-0.161
-240.917	-118.947	-0.417	-0.072
-239.903	-200.000	-0.039	-0.175
-238.888	800.000	0.118	-0.363
-237.873	364.782	-0.092	-0.182
-236.859	172.459	0.087	0.123
-235.844	-167.383	-0.309	0.012
-234.830	24.860	0.122	0.100
-233.815	-2.215	-0.153	-0.105
-232.800	-141.369	0.080	0.008
-231.786	253.888	-0.037	0.063
-230.771	-180.662	-0.167	-0.003
-229.757	-122.600	-0.229	0.036
-228.742	-5.818	0.160	0.108
-227.727	-200.000	0.030	0.213
-226.713	-82.074	-0.208	-0.067
-225.698	128.902	0.293	-0.366
-224.684	165.950	-0.068	0.094
-223.669	75.333	-0.040	0.042
-222.655	96.869	-0.085	-0.096
-221.640	800.000	-0.138	-0.376
-220.625	233.408	0.092	-0.148
-219.611	328.641	0.028	-0.053
-218.596	-200.000	0.031	-0.354
-217.582	-200.000	0.008	-0.331
-216.567	-47.338	0.342	-0.163
-215.552	365.009	0.213	0.422
-214.538	-200.000	-0.006	0.100
-213.523	236.858	-0.169	-0.275
-212.509	800.000	-0.103	0.285
-211.494	-6.342	-0.475	0.318
-210.479	-200.000	0.120	0.525
-209.465	95.311	-0.231	-0.258
-208.450	-28.220	0.307	0.174
-207.436	-58.755	0.229	0.097
-206.421	-114.504	0.164	0.031
-205.406	-53.638	0.083	0.037
-204.392	800.000	-0.105	0.393
-203.377	29.794	-0.195	-0.163
-202.363	-200.000	-0.013	-0.060
-201.348	189.064	0.147	-0.216
-200.333	-132.494	-0.329	0.041
-199.319	-152.030	0.338	-0.024
-198.304	314.805	0.092	-0.170
-197.290	150.235	0.142	-0.188
-196.275	-200.000	0.029	-0.212
-195.260	800.000	-0.075	0.261
-194.246	-118.311	0.069	-0.012
-193.231	416.822	-0.091	-0.190
-192.217	52.217	0.205	0.192
-191.202	-122.561	-0.093	0.015
-190.187	-87.797	0.324	-0.096
-189.173	-48.141	-0.500	-0.237
-188.158	303.703	-0.159	0.289
-187.144	800.000	0.082	-0.314
-186.129	75.378	0.253	-0.261
-185.114	-126.227	-0.354	0.052
-184.100	-2.175	0.237	0.163
-183.085	-200.000	-0.016	-0.197
-182.071	-29.248	0.229	-0.129
-181.056	173.848	0.127	0.180
-180.042	245.730	0.136	0.224
-179.027	386.897	0.075	-0.151
-178.012	124.015	0.227	-0.280
-176.998	-71.768	0.035	0.013
-175.983	-200.000	-0.004	0.502
-174.969	390.527	-0.124	0.253
-173.954	-200.000	0.011	0.218
-172.939	496.261	0.085	-0.191
-171.925	-44.241	0.033	0.016
-170.910	-200.000	0.007	-0.260
-169.896	-200.000	0.054	-0.449
-168.881	232.656	0.229	0.368
-167.866	-82.596	0.247	0.078
-166.852	198.682	0.039	0.058
-165.837	1.776	-0.205	0.144
-164.823	-200.000	0.015	-0.172
-163.808	198.765	0.110	0.165
-162.793	-130.651	0.262	-0.035
-161.779	800.000	-0.018	-0.048
-160.764	800.000	0.100	0.425
-159.750	-200.000	0.026	0.273
-158.735	800.000	-0.016	-0.063
-157.720	-72.199	0.219	-0.079
-156.706	-18.132	-0.135	-0.083
-155.691	569.031	-0.136	0.324
-154.677	223.865	-0.122	0.192
-153.662	452.032	0.047	0.102
-152.647	800.000	0.022	0.079
-151.633	-100.411	0.322	-0.078
-150.618	3.257	0.131	-0.093
-149.604	800.000	0.054	-0.159
-148.589	92.309	0.065	0.071
-147.574	800.000	-0.071	0.216
-146.560	800.000	0.060	0.180
-145.545	650.275	0.047	0.117
-144.531	800.000	0.038	0.159
-143.516	-77.662	0.151	-0.051
-142.502	92.221	-0.046	0.050
-141.487	-95.053	0.319	0.084
-140.472	36.569	-0.126	0.108
-139.458	-200.000	0.030	-0.138
-138.443	-200.000	-0.008	-0.088
-137.429	138.533	0.096	0.123
-136.414	-123.565	-0.135	-0.021
-135.399	658.956	-0.038	0.096
-134.385	316.180	-0.157	0.291
-133.370	-153.286	0.402	-0.027
-132.356	-170.438	0.164	-0.006
-131.341	-81.545	-0.281	-0.090
-130.326	-141.886	0.107	0.010
-129.312	800.000	-0.044	0.141
-128.297	800.000	0.066	0.235
-127.283	-105.930	-0.191	-0.042
-126.268	-109.478	0.291	0.060
-125.253	550.702	0.069	0.162
-124.239	158.007	0.206	0.279
-123.224	-200.000	0.015	0.366
-122.210	278.867	0.073	-0.127
-121.195	-200.000	-0.004	-0.064
-120.180	-65.492	0.075	-0.030
-119.166	104.054	0.153	-0.176
-118.151	-135.616	0.268	0.031
-117.137	63.527	0.233	-0.228
-116.122	-200.000	-0.059	0.271
-115.107	-200.000	-0.012	-0.147
-114.093	-200.000	-0.070	-0.378
-113.078	131.500	0.102	0.128
-112.064	26.074	0.061	0.050
-111.049	-11.177	0.481	0.310
-110.034	33.093	-0.206	-0.175
-109.020	566.116	0.071	0.169
-108.005	-153.467	0.113	-0.008
-106.991	163.864	0.073	0.101
-105.976	-88.541	0.241	0.070
-104.962	-134.698	-0.323	0.038
-103.947	235.125	0.145	-0.234
-102.932	800.000	-0.037	-0.107
-101.918	-3.125	0.267	-0.182
-100.903	-200.000	0.004	0.235
-99.889	-25.463	0.174	0.101
-98.874	-200.000	0.068	0.339
-97.859	-200.000	0.104	0.518
-96.845	-200.000	-0.052	0.423
-95.830	-64.005	0.160	-0.064
-94.816	800.000	0.087	-0.250
-93.801	800.000	0.085	0.274
-92.786	168.490	0.107	-0.149
-91.772	267.235	0.107	-0.182
-90.757	-24.467	-0.370	0.215
-89.743	-81.663	0.360	0.115
-88.728	-200.000	-0.052	-0.235
-87.713	-58.895	-0.209	0.088
-86.699	-19.003	-0.170	0.103
-85.684	-132.116	0.459	0.058
-84.670	-200.000	-0.027	0.134
-83.655	-128.533	0.257	0.036
-82.640	-33.290	0.066	0.036
-81.626	396.794	0.124	0.253
-80.611	253.617	0.199	0.331
-79.597	85.901	0.030	0.032
-78.582	-17.424	-0.069	0.043
-77.567	-23.404	0.299	-0.175
-76.553	10.150	-0.291	0.216
-75.538	800.000	0.144	-0.455
-74.524	178.736	0.150	-0.214
-73.509	-136.582	0.211	-0.024
-72.494	-200.000	0.261	0.000
-71.480	-140.760	-0.128	-0.013
-70.465	-92.966	-0.141	0.038
-69.451	800.000	-0.103	0.342
-68.436	-200.000	-0.039	0.192
-67.422	-25.498	0.228	-0.131
-66.407	-110.789	-0.155	-0.031
-65.392	219.171	-0.081	0.127
-64.378	3.822	-0.173	0.123
-63.363	-152.975	-0.283	0.019
-62.349	41.413	0.241	0.213
-61.334	-6.813	-1.344	-0.891
-60.319	32.901	0.954	0.806
-59.305	799.281	-0.398	-1.071
-58.290	364.587	0.637	1.250
-57.276	800.000	0.489	1.694
-56.261	-200.000	121.549	614.790
-55.246	378.989	1583.841	3161.325
-54.232	139.394	2753.018	3532.061
-53.217	94.568	2209.021	2447.492
-52.203	35.366	1720.007	1470.870
-51.188	27.830	1534.584	1260.456
-50.173	25.737	1510.336	1226.250
-49.159	47.876	1576.461	1435.140
-48.144	46.027	1591.578	1435.932
-47.130	27.839	1542.432	1266.762
-46.115	25.111	1525.701	1234.220
-45.100	24.795	1522.549	1229.447
-44.086	24.787	1520.682	1227.841
-43.071	24.690	1518.536	1225.391
-42.057	24.781	1516.726	1224.504
-41.042	24.851	1515.518	1223.961
-40.027	24.800	1514.133	1222.446
-39.013	24.792	1512.660	1221.150
-37.998	24.676	1511.538	1219.407
-36.984	24.750	1510.256	1218.828
-35.969	24.762	1508.600	1217.526
-34.954	24.681	1507.440	1215.992
-33.940	24.786	1505.745	1215.285
-32.925	24.756	1504.453	1213.992
-31.911	24.742	1503.273	1212.895
-30.896	24.801	1502.143	1212.335
-29.881	24.794	1501.322	1211.581
-28.867	24.769	1499.832	1210.163
-27.852	24.762	1498.363	1208.880
-26.838	24.806	1496.734	1207.815
-25.823	24.749	1495.456	1206.351
-24.809	24.804	1493.245	1204.890
-23.794	24.719	1491.909	1203.190
-22.779	24.731	1491.382	1202.797
-21.765	24.816	1489.707	1201.972
-20.750	24.742	1488.996	1200.855
-19.736	24.836	1487.625	1200.332
-18.721	24.839	1486.674	1199.536
-17.706	24.815	1486.004	1198.790
-16.692	24.785	1484.544	1197.363
-15.677	24.742	1483.613	1196.276
-14.663	24.820	1482.515	1195.863
-13.648	24.685	1482.189	1194.649
-12.633	24.635	1481.378	1193.614
-11.619	24.704	1480.145	1193.037
-10.604	24.759	1479.397	1192.752
-9.590	24.751	1478.333	1191.790
-8.575	24.680	1477.915	1190.936
-7.560	24.804	1476.665	1190.710
-6.546	24.755	1475.572	1189.451
-5.531	24.685	1475.136	1188.585
-4.517	24.703	1473.422	1187.283
-3.502	24.680	1472.962	1186.707
-2.487	24.598	1472.112	1185.436
-1.473	24.858	1469.946	1185.365
-0.458	24.735	1469.439	1184.094
0.556	23.858	1459.764	1174.191
1.571	20.859	1435.227	1134.846
2.586	17.632	1372.371	1064.916
3.600	16.103	1287.259	989.813
4.615	14.833	1242.988	948.481
5.629	12.946	1186.362	894.967
6.644	6.629	1102.995	800.047
7.659	1.479	1066.396	748.133
8.673	0.879	1060.577	741.045
9.688	0.662	1057.502	737.772
10.702	0.657	1056.118	736.718
11.717	0.742	1054.176	735.712
12.731	2.747	1055.301	746.191
13.746	9.235	1064.399	784.307
14.761	15.111	1071.598	818.338
15.775	17.086	1073.466	829.349
16.790	17.046	1072.317	828.193
17.804	15.954	1070.020	821.025
18.819	15.153	1068.250	815.696
19.834	14.670	1067.048	812.353
20.848	14.422	1066.184	810.421
21.863	14.193	1065.090	808.406
22.877	13.900	1064.177	806.216
23.892	13.552	1064.073	804.375
24.907	13.608	1062.639	803.494
25.921	13.569	1062.204	802.908
26.936	13.750	1061.117	802.889
27.950	13.699	1060.361	801.996
28.965	13.692	1060.222	801.790
29.980	13.741	1058.543	800.684
30.994	13.794	1057.822	800.322
32.009	13.794	1057.071	799.687
33.023	13.784	1056.660	799.256
34.038	13.837	1055.225	798.353
35.053	13.829	1054.611	797.779
36.067	13.846	1053.769	797.154
37.082	13.782	1052.555	795.861
38.096	13.720	1052.264	795.273
39.111	13.817	1051.413	795.024
40.126	13.857	1050.309	794.309
41.140	13.830	1049.075	793.175
42.155	13.638	1048.419	791.691
43.169	13.737	1047.339	791.280
44.184	13.568	1046.281	789.603
45.199	13.576	1045.065	788.657
46.213	13.620	1044.718	788.535
47.228	13.559	1043.695	787.400
48.242	13.666	1042.201	786.714
49.257	13.631	1041.569	786.001
50.271	13.704	1040.417	785.405
51.286	13.727	1039.590	784.820
52.301	13.710	1039.113	784.312
53.315	13.865	1037.896	784.057
54.330	13.665	1037.517	782.756
55.344	13.822	1036.328	782.529
56.359	13.828	1035.258	781.679
57.374	13.861	1034.335	781.071
58.388	13.667	1034.045	779.870
59.403	13.692	1032.911	779.062
60.417	13.676	1032.752	778.797
61.432	13.761	1031.938	778.514
62.447	13.618	1031.150	777.179
63.461	13.563	1030.260	776.185
64.476	13.651	1028.957	775.547
65.490	13.649	1028.401	775.050
66.505	13.613	1027.565	774.184
67.520	13.745	1026.292	773.771
68.534	13.645	1025.967	772.991
69.549	13.542	1025.344	771.970
70.563	13.671	1024.163	771.613
71.578	13.609	1023.843	771.016
72.593	13.694	1022.777	770.542
73.607	13.670	1021.718	769.562
74.622	13.623	1021.193	768.880
75.636	13.508	1020.494	767.757
76.651	13.557	1019.202	766.944
77.666	13.482	1018.792	766.218
78.680	13.507	1018.020	765.685
79.695	13.536	1017.281	765.195
80.709	13.445	1017.264	764.693
81.724	13.586	1015.884	764.239
82.739	13.677	1014.810	763.783
83.753	13.768	1014.049	763.563
84.768	13.732	1013.309	762.773
85.782	13.821	1012.664	762.627
86.797	13.833	1011.987	762.106
87.812	13.857	1011.147	761.516
88.826	13.555	1010.485	759.563
89.841	13.629	1009.487	759.087
90.855	13.777	1008.797	759.180
91.870	13.814	1008.009	758.687
92.884	13.797	1007.316	758.021
93.899	13.882	1006.269	757.556
94.914	13.886	1005.803	757.153
95.928	13.952	1005.114	756.869
96.943	13.973	1004.478	756.418
97.957	13.977	1003.195	755.403
98.972	13.935	1002.520	754.639
99.987	13.938	1001.967	754.169
101.001	13.870	1000.966	753.041
102.016	13.768	1000.378	752.068
103.030	13.859	999.486	751.742
104.045	13.881	998.565	751.086
105.060	13.927	997.140	750.153
106.074	13.790	996.889	749.277
107.089	13.875	996.102	749.006
108.103	13.826	995.314	748.126
109.118	13.649	994.518	746.666
110.133	13.784	993.357	746.335
111.147	13.700	992.485	745.237
112.162	13.759	991.412	744.628
113.176	13.894	990.946	744.818
114.191	13.836	989.963	743.755
115.206	13.846	988.931	742.956
116.220	13.940	988.201	742.765
117.235	13.984	987.212	742.151
118.249	13.780	986.961	740.984
119.264	13.869	985.447	740.179
120.279	13.728	984.985	739.139
121.293	13.770	984.320	738.762
122.308	13.811	983.545	738.297
123.322	13.802	982.791	737.627
124.337	13.752	981.740	736.550
125.352	13.676	980.652	735.333
126.366	13.811	979.446	734.958
127.381	13.779	978.293	733.886
128.395	13.836	977.074	733.162
129.410	13.850	976.189	732.493
130.424	13.769	975.284	731.391
131.439	13.789	974.305	730.683
132.454	13.817	973.521	730.152
133.468	13.833	972.866	729.668
134.483	13.892	972.256	729.404
135.497	13.839	971.245	728.348
136.512	13.827	970.742	727.854
137.527	13.876	969.972	727.427
138.541	13.821	969.364	726.667
139.556	13.884	968.243	726.035
140.570	13.871	967.709	725.516
141.585	13.854	966.934	724.795
142.600	14.116	966.067	725.226
143.614	14.008	965.377	724.172
144.629	13.902	964.604	723.065
145.643	14.053	963.472	722.809
146.658	13.926	962.625	721.558
147.673	13.990	961.935	721.257
148.687	13.938	960.991	720.258
149.702	13.890	959.971	719.222
150.716	13.881	959.496	718.765
151.731	14.032	958.247	718.420
152.746	13.924	957.643	717.436
153.760	14.058	956.570	717.144
154.775	13.966	956.163	716.380
155.789	14.053	955.428	716.142
156.804	14.057	954.435	715.349
157.819	14.029	953.672	714.597
158.833	14.060	953.446	714.495
159.848	14.043	952.863	713.925
160.862	14.121	951.785	713.389
161.877	14.272	950.782	713.221
162.892	14.059	950.325	711.902
163.906	14.134	949.422	711.481
164.921	14.084	948.549	710.551
165.935	14.118	947.470	709.827
166.950	14.174	946.238	709.076
167.964	14.082	945.647	708.179
168.979	14.100	944.437	707.288
169.994	14.085	943.778	706.669
171.008	14.147	942.823	706.153
172.023	14.211	941.683	705.510
173.037	14.338	941.352	705.737
174.052	14.110	941.159	704.562
175.067	14.231	939.940	704.102
176.081	14.221	939.370	703.570
177.096	14.210	938.095	702.506
178.110	14.283	937.255	702.121
179.125	14.387	936.294	701.781
180.140	14.346	935.842	701.206
181.154	14.219	935.126	700.073
182.169	14.363	934.556	700.189
183.183	14.269	933.969	699.292
184.198	14.305	933.109	698.737
185.213	14.209	932.955	698.158
186.227	14.322	931.735	697.658
187.242	14.384	931.470	697.659
188.256	14.499	930.424	697.291
189.271	14.559	929.687	696.929
190.286	14.316	929.180	695.473
191.300	14.214	928.462	694.449
192.315	14.295	927.806	694.234
193.329	14.251	927.335	693.635
194.344	14.293	926.664	693.246
195.359	14.282	926.103	692.723
196.373	14.428	925.309	692.672
197.388	14.461	925.092	692.587
198.402	14.390	924.576	691.842
199.417	14.483	923.921	691.679
200.432	14.628	923.306	691.755
201.446	14.566	923.079	691.268
202.461	14.585	922.616	690.941
203.475	14.513	922.612	690.579
204.490	14.539	921.250	689.606
205.504	14.541	920.125	688.712
206.519	14.557	919.637	688.350
207.534	14.623	918.886	687.998
208.548	14.692	918.013	687.569
209.563	14.634	917.467	686.860
210.577	14.659	916.722	686.344
211.592	14.779	915.919	686.174
212.607	14.834	915.409	685.958
213.621	14.772	915.076	685.394
214.636	14.852	914.108	684.934
215.650	14.881	913.178	684.296
216.665	14.782	913.059	683.741
217.680	14.907	912.529	683.797
218.694	14.869	911.940	683.139
219.709	15.027	911.108	683.101
220.723	14.756	910.838	681.732
221.738	14.927	909.532	681.391
222.753	14.910	909.215	681.024
223.767	14.891	908.267	680.175
224.782	14.960	907.737	679.998
225.796	14.846	907.186	679.064
226.811	15.028	906.501	679.230
227.826	14.976	905.611	678.292
228.840	15.057	905.116	678.190
229.855	14.902	904.438	676.992
230.869	14.978	903.859	676.806
231.884	15.068	902.655	676.209
232.899	14.985	902.283	675.537
233.913	14.950	901.544	674.783
234.928	14.899	901.026	674.130
235.942	14.906	900.196	673.475
236.957	14.962	899.341	673.001
237.972	15.004	898.551	672.519
238.986	15.012	898.178	672.214
240.001	14.899	897.509	671.201
241.015	15.038	897.073	671.372
242.030	15.121	895.970	670.821
243.045	15.057	895.819	670.392
244.059	15.110	894.739	669.734
245.074	15.077	894.612	669.448
246.088	15.193	893.953	669.360
247.103	15.251	893.429	669.140
248.117	15.247	892.620	668.459
249.132	15.247	891.865	667.833
250.147	15.368	891.180	667.743
251.161	15.352	890.644	667.219
252.176	15.328	889.991	666.576
253.190	15.296	889.405	665.951
254.205	15.398	888.910	665.926
255.220	15.588	887.858	665.834
256.234	15.545	886.905	664.890
257.249	15.482	886.621	664.369
258.263	15.511	886.059	664.001
259.278	15.417	885.714	663.312
260.293	15.503	884.966	663.033
261.307	15.569	884.649	662.998
262.322	15.592	883.887	662.459
263.336	15.594	883.274	661.950
264.351	15.601	882.722	661.505
265.366	15.674	882.032	661.217
266.380	15.645	881.415	660.582
267.395	15.690	881.019	660.402
268.409	15.578	879.963	659.112
269.424	15.754	879.108	659.104
270.439	15.719	878.426	658.396
271.453	15.806	877.568	658.036
272.468	15.718	876.946	657.167
273.482	15.641	876.350	656.363
274.497	15.631	876.030	656.026
275.512	15.642	875.116	655.326
276.526	15.812	874.534	655.494
277.541	15.558	874.184	654.185
278.555	15.753	873.440	654.329
279.570	15.654	873.038	653.587
280.585	15.894	872.189	653.824
281.599	15.906	871.794	653.518
282.614	15.944	871.169	653.136
283.628	15.766	870.409	651.820
284.643	15.939	869.979	652.112
285.657	15.861	869.379	651.303
286.672	15.887	868.695	650.831
287.687	15.988	868.069	650.696
288.701	15.939	867.816	650.259
289.716	15.949	867.381	649.912
290.730	15.989	866.458	649.321
291.745	16.029	865.631	648.797
292.760	16.009	865.234	648.363
293.774	16.048	864.756	648.099
294.789	15.949	864.348	647.355
295.803	16.094	863.595	647.291
296.818	15.968	862.955	646.270
297.833	16.124	861.905	646.024
298.847	16.150	861.574	645.819
299.862	16.047	861.008	644.944
300.876	16.114	860.625	644.856
301.891	16.271	859.267	644.381
302.906	16.224	858.869	643.844
303.920	16.274	858.279	643.536
304.935	16.407	857.215	643.190
305.949	16.456	856.373	642.687
306.964	16.302	856.372	642.041
307.979	16.350	855.520	641.531
308.993	16.369	855.086	641.221
310.008	16.466	854.739	641.269
311.022	16.396	854.300	640.618
312.037	16.363	853.885	640.125
313.052	16.575	852.911	640.140
314.066	16.395	852.523	639.114
315.081	16.404	851.833	638.573
316.095	16.400	851.304	638.105
317.110	16.261	850.890	637.214
318.125	16.344	850.108	636.883
319.139	16.476	849.605	636.948
320.154	16.423	849.362	636.512
321.168	16.368	848.905	635.906
322.183	16.554	847.691	635.638
323.197	16.444	847.693	635.171
324.212	16.438	846.971	634.551
325.227	16.429	846.540	634.140
326.241	16.387	846.192	633.664
327.256	16.585	845.358	633.725
328.270	16.516	844.855	633.032
329.285	16.672	844.257	633.111
330.300	16.654	843.744	632.603
331.314	16.527	843.017	631.528
332.329	16.656	842.402	631.494
333.343	16.610	842.077	631.021
334.358	16.670	841.385	630.670
335.373	16.677	840.799	630.202
336.387	16.608	840.552	629.705
337.402	16.771	839.759	629.662
338.416	16.658	839.112	628.700
339.431	16.531	838.856	627.981
340.446	16.666	838.161	627.908
341.460	16.798	837.703	627.997
342.475	16.745	837.002	627.218
343.489	16.826	836.507	627.095
344.504	16.861	835.901	626.714
345.519	16.912	835.132	626.268
346.533	16.820	835.098	625.847
347.548	16.869	834.480	625.510
348.562	16.794	833.956	624.788
349.577	16.928	833.482	624.869
350.592	16.964	832.608	624.290
351.606	16.842	832.442	623.663
352.621	16.999	831.780	623.691
353.635	16.858	831.694	623.053
354.650	16.940	831.082	622.839
355.665	16.939	830.533	622.368
356.679	17.009	830.234	622.346
357.694	17.008	829.551	621.774
358.708	16.963	829.174	621.272
359.723	17.103	827.968	620.828
360.738	16.920	827.656	619.868
361.752	17.043	827.042	619.804
362.767	16.893	826.957	619.136
363.781	17.077	826.494	619.406
364.796	17.166	825.994	619.302
365.810	17.235	825.260	618.948
366.825	17.161	825.041	618.458
367.840	17.275	824.809	618.645
368.854	17.223	824.515	618.180
369.869	17.346	823.837	618.065
370.883	17.203	823.680	617.375
371.898	17.320	822.714	617.020
372.913	17.206	822.211	616.174
373.927	17.279	821.368	615.751
374.942	17.479	820.486	615.759
375.956	17.367	820.075	614.992
376.971	17.406	819.788	614.862
377.986	17.285	819.250	613.970
379.000	17.383	818.578	613.765
380.015	17.511	818.125	613.830
381.029	17.611	817.527	613.689
382.044	17.427	817.268	612.778
383.059	17.565	816.443	612.602
384.073	17.654	815.751	612.348
385.088	17.664	815.329	612.014
386.102	17.386	815.200	610.864
387.117	17.360	814.452	610.156
388.132	17.490	813.831	610.102
389.146	17.523	813.860	610.189
390.161	17.477	813.623	609.792
391.175	17.528	812.644	609.185
392.190	17.686	812.154	609.332
393.205	17.637	812.274	609.191
394.219	17.601	811.657	608.546
395.234	17.640	811.120	608.228
396.248	17.530	810.629	607.416
397.263	17.750	809.891	607.591
398.278	17.644	809.317	606.731
399.292	17.647	808.877	606.357
400.307	17.577	808.987	606.137
401.321	17.597	808.595	605.860
402.336	17.620	807.882	605.356
403.350	17.567	807.625	604.919
404.365	17.865	806.746	605.266
405.380	17.589	806.771	604.251
406.394	17.709	806.193	604.190
407.409	17.812	805.648	604.095
408.423	17.920	805.055	603.979
409.438	17.910	804.556	603.513
410.453	17.975	804.033	603.298
411.467	17.906	803.806	602.832
412.482	17.934	803.299	602.497
413.496	17.932	803.105	602.290
414.511	17.976	802.497	601.934
415.526	17.979	802.310	601.752
416.540	18.067	801.610	601.484
417.555	18.050	801.416	601.225
418.569	17.998	801.042	600.708
419.584	18.058	800.444	600.419
420.599	17.981	799.832	599.634
421.613	114.241	1296.931	1484.918
422.628	98.524	1369.302	1484.986
