DTS Sentinel unit serial number:	SN413079Multiplexer serial number:	ORYXHardware model number:	OX4-SRSoftware version number:	ORYX F/W v4.00 Oryx Data Collector v3.7.2.0data status	okinstallation	princeton_trtdifferential loss correction	single-endedforward channel	channel 3reverse channel	N/Adate	2019/09/16time	02:52:34forward acquisition time	60.00reverse acquisition time	0.00gamma	496.2192k internal	0.2334k external	0.2334temperature offset calibration	0.9952default loss term (dB/km)	0.3790temperature slope calibration	1.0000multiplexer offset coefficient	1.0000multiplexer slope coefficient	1.0000fibre end	0.00T internal ref (°C)	27.75T ext. ref 1 (°C)	10.39T ext. ref 2 (°C)	22.18length (m)	temperature (°C)	Stokes	anti-Stokes-747.200	332.778	0.071	0.138
-746.185	565.746	-0.134	-0.326
-745.171	-149.951	-0.092	-0.007
-744.156	11.504	-0.376	0.289
-743.142	-74.625	0.226	-0.082
-742.127	-165.160	-0.150	-0.007
-741.112	-200.000	-0.023	0.242
-740.098	268.059	0.092	0.162
-739.083	-170.678	-0.227	0.008
-738.069	-16.146	0.293	0.187
-737.054	250.606	0.165	0.283
-736.039	-143.379	-0.267	0.026
-735.025	93.913	0.040	-0.046
-734.010	-33.960	-0.162	-0.090
-732.996	142.226	0.214	-0.285
-731.981	10.160	-0.196	0.150
-730.966	39.655	0.181	-0.163
-729.952	-52.560	-0.209	0.097
-728.937	-43.608	-0.360	-0.183
-727.923	-135.810	-0.267	0.032
-726.908	-54.188	0.095	-0.044
-725.894	166.247	-0.175	0.250
-724.879	732.271	-0.027	-0.072
-723.864	-74.063	-0.353	-0.129
-722.850	319.206	-0.050	0.095
-721.835	800.000	-0.032	-0.099
-720.821	-133.371	-0.319	-0.040
-719.806	159.773	0.082	0.114
-718.791	-200.000	-0.010	-0.052
-717.777	6.110	-0.065	-0.048
-716.762	40.201	0.360	0.325
-715.748	127.375	-0.149	0.189
-714.733	-119.538	-0.390	-0.068
-713.718	-99.790	0.141	0.035
-712.704	38.749	-0.113	-0.101
-711.689	227.124	-0.112	0.182
-710.675	-30.893	-0.124	0.070
-709.660	-200.000	0.018	-0.236
-708.645	-75.161	-0.281	-0.101
-707.631	-127.929	0.466	-0.067
-706.616	39.213	0.118	-0.106
-705.602	-90.562	0.297	0.086
-704.587	-33.551	0.180	-0.100
-703.572	-153.048	-0.021	0.001
-702.558	-52.011	0.221	0.103
-701.543	328.551	0.029	-0.055
-700.529	-110.382	0.176	0.037
-699.514	-89.856	-0.153	0.045
-698.499	-9.025	0.231	0.155
-697.485	334.888	0.153	0.298
-696.470	194.945	0.168	-0.257
-695.456	-200.000	0.020	-0.355
-694.441	-200.000	-0.075	-0.388
-693.426	-12.867	0.051	0.034
-692.412	232.248	-0.124	0.204
-691.397	190.617	0.125	-0.188
-690.383	-75.365	-0.145	0.052
-689.368	-177.448	-0.066	-0.002
-688.354	-99.477	-0.285	0.072
-687.339	67.858	0.238	-0.244
-686.324	93.869	-0.265	-0.301
-685.310	-130.322	-0.241	-0.033
-684.295	688.889	-0.080	-0.210
-683.281	-91.312	0.324	-0.093
-682.266	-40.272	0.047	-0.025
-681.251	-10.244	-0.438	0.291
-680.237	610.852	-0.087	-0.218
-679.222	-200.000	0.026	-0.230
-678.208	-200.000	-0.099	-0.457
-677.193	800.000	-0.048	-0.155
-676.178	73.556	-0.178	-0.187
-675.164	81.379	-0.094	0.102
-674.149	-200.000	-0.094	0.449
-673.135	-37.767	0.297	-0.158
-672.120	-139.766	0.213	0.023
-671.105	1.265	-0.044	-0.032
-670.091	141.397	0.163	-0.216
-669.076	-60.402	0.065	-0.028
-668.062	-200.000	0.074	-0.363
-667.047	617.839	-0.098	-0.247
-666.032	-179.210	0.159	-0.004
-665.018	-127.221	0.024	0.004
-664.003	-66.081	0.381	-0.152
-662.989	-70.850	0.179	-0.068
-661.974	-188.892	0.413	-0.005
-660.959	9.710	-0.123	-0.094
-659.945	513.517	-0.138	-0.323
-658.930	-152.259	0.451	-0.033
-657.916	-200.000	-0.050	0.517
-656.901	232.935	0.118	0.194
-655.886	-168.184	0.305	-0.012
-654.872	-200.000	-0.023	0.358
-653.857	-90.233	0.506	0.147
-652.843	-79.236	-0.283	-0.096
-651.828	-16.690	-0.233	-0.148
-650.814	7.661	-0.192	0.144
-649.799	232.533	-0.220	0.361
-648.784	492.448	-0.067	-0.153
-647.770	800.000	0.046	-0.157
-646.755	176.019	-0.089	0.130
-645.741	-200.000	0.050	0.241
-644.726	-66.270	-0.038	0.015
-643.711	-129.303	0.178	-0.025
-642.697	161.529	0.102	-0.143
-641.682	72.578	0.127	-0.133
-640.668	509.377	-0.110	-0.256
-639.653	-53.226	0.159	-0.073
-638.638	-200.000	-0.010	-0.063
-637.624	-73.707	-0.284	-0.104
-636.609	28.765	-0.144	-0.122
-635.595	-43.166	0.094	-0.048
-634.580	130.451	-0.132	-0.170
-633.565	-18.863	-0.072	0.045
-632.551	-200.000	0.007	0.066
-631.536	218.775	0.023	-0.036
-630.522	-165.561	-0.160	0.007
-629.507	190.637	-0.144	0.216
-628.492	-148.267	0.095	0.008
-627.478	20.035	-0.171	-0.138
-626.463	120.825	0.235	0.292
-625.449	-200.000	-0.010	-0.158
-624.434	160.194	-0.058	-0.081
-623.419	524.119	-0.102	0.240
-622.405	180.437	0.009	-0.014
-621.390	57.424	-0.032	0.031
-620.376	-128.881	0.218	-0.031
-619.361	800.000	0.021	0.069
-618.346	-167.627	-0.190	-0.008
-617.332	-60.556	0.132	-0.056
-616.317	373.190	0.127	-0.259
-615.303	438.826	-0.109	0.239
-614.288	73.117	0.088	-0.092
-613.273	-176.123	0.051	0.001
-612.259	-126.421	-0.381	-0.057
-611.244	348.660	-0.022	0.044
-610.230	-84.993	-0.107	-0.034
-609.215	-200.000	-0.008	0.139
-608.201	-200.000	0.016	-0.186
-607.186	-114.351	-0.185	-0.036
-606.171	-24.511	-0.037	0.022
-605.157	-200.000	-0.362	-0.001
-604.142	-200.000	-0.010	-0.121
-603.128	43.434	0.122	-0.111
-602.113	-76.540	0.109	0.038
-601.098	800.000	0.050	-0.193
-600.084	-200.000	-0.016	-0.080
-599.069	-48.585	-0.015	0.007
-598.055	-123.294	-0.166	0.027
-597.040	480.165	-0.092	0.209
-596.025	-130.887	0.168	0.023
-595.011	800.000	-0.100	-0.349
-593.996	79.414	-0.062	0.067
-592.982	-108.175	0.360	-0.078
-591.967	736.406	0.059	-0.159
-590.952	8.026	-0.072	-0.054
-589.938	800.000	-0.094	-0.318
-588.923	72.487	0.025	-0.026
-587.909	-137.871	-0.101	-0.011
-586.894	800.000	-0.030	-0.128
-585.879	-44.854	-0.185	-0.092
-584.865	-23.812	-0.247	0.148
-583.850	-23.170	-0.209	-0.126
-582.836	-97.830	-0.305	0.079
-581.821	-86.676	0.183	-0.056
-580.806	800.000	0.046	0.176
-579.792	-13.154	-0.142	0.092
-578.777	242.908	-0.030	0.050
-577.763	-200.000	-0.010	0.322
-576.748	234.539	0.118	0.194
-575.733	-61.501	0.092	-0.039
-574.719	800.000	-0.055	0.231
-573.704	-197.239	0.164	0.001
-572.690	210.946	0.129	0.203
-571.675	111.106	0.046	0.055
-570.661	-26.858	-0.501	-0.292
-569.646	800.000	-0.050	-0.154
-568.631	-23.414	0.242	0.145
-567.617	-78.297	0.148	-0.051
-566.602	-133.497	-0.141	0.018
-565.588	237.389	0.207	0.343
-564.573	-200.000	0.009	0.111
-563.558	-49.945	0.104	-0.049
-562.544	-126.668	-0.035	-0.005
-561.529	40.282	-0.122	0.109
-560.515	24.568	0.202	-0.167
-559.500	-75.069	0.289	-0.103
-558.485	212.710	-0.281	-0.442
-557.471	-200.000	0.008	0.119
-556.456	-162.672	-0.167	0.008
-555.442	95.399	0.142	-0.162
-554.427	-91.747	-0.460	0.130
-553.412	-197.465	-0.119	-0.001
-552.398	-118.210	-0.158	0.028
-551.383	240.306	0.188	0.313
-550.369	-55.640	0.044	0.020
-549.354	-28.569	-0.135	-0.078
-548.339	-89.399	0.307	0.090
-547.325	-67.818	0.097	0.038
-546.310	800.000	0.086	-0.276
-545.296	800.000	-0.142	0.451
-544.281	-135.148	0.270	0.032
-543.266	-148.626	-0.093	0.008
-542.252	-193.733	0.454	-0.004
-541.237	-150.824	-0.059	0.004
-540.223	-74.372	-0.232	0.084
-539.208	-128.425	0.305	0.043
-538.193	-200.000	-0.002	0.363
-537.179	155.407	-0.238	0.326
-536.164	800.000	-0.068	-0.203
-535.150	112.408	0.125	-0.151
-534.135	85.592	-0.079	-0.086
-533.121	-145.872	-0.370	-0.033
-532.106	-115.830	0.413	-0.077
-531.091	-25.571	0.362	-0.213
-530.077	-10.051	-0.193	-0.128
-529.062	4.024	-0.173	-0.126
-528.048	-137.075	0.244	0.028
-527.033	-38.571	0.237	-0.125
-526.018	-152.500	-0.283	0.020
-525.004	-22.452	0.234	0.141
-523.989	60.009	-0.174	0.171
-522.975	230.780	-0.029	0.047
-521.960	-200.000	-0.075	0.337
-520.945	-125.085	0.400	0.061
-519.931	-53.891	0.174	0.079
-518.916	-73.586	-0.169	-0.061
-517.902	-200.000	0.059	-0.400
-516.887	78.124	-0.212	0.225
-515.872	-32.327	0.369	-0.205
-514.858	68.592	0.074	-0.076
-513.843	800.000	-0.074	-0.287
-512.829	283.454	-0.137	0.245
-511.814	800.000	-0.058	0.174
-510.799	513.688	0.119	0.275
-509.785	-94.790	-0.203	-0.055
-508.770	79.392	-0.048	0.051
-507.756	800.000	-0.048	0.138
-506.741	-126.761	0.169	0.025
-505.726	203.683	0.141	0.218
-504.712	166.339	-0.061	-0.086
-503.697	57.973	0.355	-0.346
-502.683	-99.451	-0.342	0.086
-501.668	800.000	-0.070	0.224
-500.653	-146.037	-0.180	-0.016
-499.639	-180.311	-0.393	0.008
-498.624	-123.061	0.103	-0.016
-497.610	308.880	0.010	0.019
-496.595	-81.263	0.156	-0.051
-495.581	-48.487	-0.072	-0.035
-494.566	111.582	0.172	0.207
-493.551	-38.722	-0.193	-0.101
-492.537	230.087	0.154	0.251
-491.522	116.034	0.031	0.037
-490.508	100.205	-0.083	-0.095
-489.493	6.846	0.214	0.158
-488.478	-60.179	-0.118	-0.050
-487.464	-81.552	-0.501	0.164
-486.449	753.112	-0.096	0.257
-485.435	65.659	0.060	0.061
-484.420	-55.283	0.194	0.087
-483.405	-25.255	0.130	-0.077
-482.391	-47.800	0.038	-0.018
-481.376	186.101	0.191	0.283
-480.362	329.525	-0.168	-0.321
-479.347	-128.446	-0.214	-0.030
-478.332	-176.966	0.296	0.007
-477.318	-200.000	-0.002	-0.226
-476.303	-200.000	0.016	0.123
-475.289	-11.494	-0.423	0.277
-474.274	-200.000	0.003	0.068
-473.259	800.000	-0.112	-0.336
-472.245	-200.000	0.028	-0.423
-471.230	-138.521	0.187	-0.020
-470.216	-189.478	-0.243	-0.003
-469.201	800.000	0.022	0.066
-468.186	2.414	-0.111	0.080
-467.172	206.783	-0.125	-0.194
-466.157	-85.886	-0.171	0.053
-465.143	800.000	-0.078	-0.290
-464.128	-38.972	-0.060	0.032
-463.113	494.199	0.087	0.199
-462.099	743.197	0.111	0.297
-461.084	-45.639	0.028	-0.014
-460.070	-96.721	0.408	0.107
-459.055	-75.611	-0.210	-0.074
-458.040	236.522	0.044	-0.072
-457.026	-200.000	-0.076	-0.468
-456.011	-198.532	0.131	-0.001
-454.997	800.000	-0.098	0.282
-453.982	91.725	-0.226	-0.252
-452.968	161.999	-0.084	0.117
-451.953	224.950	0.139	0.223
-450.938	-200.000	-0.008	-0.189
-449.924	357.696	-0.034	0.067
-448.909	198.481	-0.157	0.238
-447.895	93.179	-0.129	0.144
-446.880	50.710	-0.087	0.082
-445.865	-143.642	0.261	-0.025
-444.851	-43.219	-0.128	0.064
-443.836	-119.198	-0.439	-0.076
-442.822	-125.291	-0.465	-0.071
-441.807	-57.835	0.227	0.099
-440.792	386.003	0.193	-0.395
-439.778	800.000	-0.101	0.315
-438.763	42.510	-0.248	0.224
-437.749	800.000	0.042	-0.145
-436.734	-88.584	0.265	-0.078
-435.719	-200.000	0.023	0.260
-434.705	219.349	0.020	-0.032
-433.690	-31.180	0.166	0.093
-432.676	-29.396	0.236	-0.134
-431.661	169.295	-0.113	0.160
-430.646	-28.858	0.178	-0.102
-429.632	42.790	0.090	-0.082
-428.617	-162.171	0.253	-0.013
-427.603	683.754	0.081	-0.209
-426.588	189.541	-0.116	0.172
-425.573	-200.000	-0.012	-0.115
-424.559	-131.400	0.178	-0.023
-423.544	-115.946	-0.368	0.068
-422.530	-109.478	0.047	-0.010
-421.515	28.621	-0.150	0.126
-420.500	-146.032	-0.105	0.009
-419.486	-104.766	0.244	0.056
-418.471	23.686	0.017	-0.014
-417.457	800.000	0.072	-0.211
-416.442	40.232	0.247	-0.221
-415.428	235.767	-0.117	-0.191
-414.413	-14.040	0.127	-0.081
-413.398	-47.290	-0.216	-0.104
-412.384	-53.199	0.167	-0.076
-411.369	154.140	0.216	-0.294
-410.355	34.242	0.185	0.160
-409.340	243.400	-0.179	-0.298
-408.325	48.595	-0.205	-0.191
-407.311	82.458	-0.097	-0.104
-406.296	800.000	-0.084	0.285
-405.282	-200.000	-0.025	0.196
-404.267	376.540	0.109	0.221
-403.252	800.000	0.036	-0.149
-402.238	311.502	-0.123	0.228
-401.223	800.000	-0.100	-0.328
-400.209	-58.160	-0.141	-0.061
-399.194	-103.589	0.339	-0.079
-398.179	730.372	0.177	-0.468
-397.165	-200.000	0.002	0.074
-396.150	-86.575	-0.264	-0.080
-395.136	165.756	0.113	0.158
-394.121	403.780	-0.161	-0.336
-393.106	-72.082	0.265	0.098
-392.092	134.514	-0.261	-0.336
-391.077	116.342	-0.292	-0.355
-390.063	-200.000	0.004	-0.018
-389.048	-200.000	-0.001	0.103
-388.033	-200.000	-0.002	-0.074
-387.019	800.000	-0.053	0.162
-386.004	175.466	-0.127	0.182
-384.990	-30.904	-0.056	-0.031
-383.975	-114.575	-0.076	0.014
-382.960	-62.749	-0.451	-0.185
-381.946	-200.000	0.043	-0.389
-380.931	265.844	0.144	0.248
-379.917	800.000	0.153	-0.504
-378.902	239.377	0.136	0.225
-377.888	-102.252	-0.142	0.034
-376.873	-200.000	0.013	0.172
-375.858	-28.936	0.088	0.050
-374.844	-200.000	-0.027	0.121
-373.829	346.595	-0.068	-0.133
-372.815	-200.000	-0.049	0.236
-371.800	-200.000	-0.006	-0.090
-370.785	111.062	-0.317	-0.378
-369.771	180.788	0.147	-0.214
-368.756	355.381	0.178	-0.350
-367.742	-83.520	-0.036	0.011
-366.727	-60.709	-0.226	0.095
-365.712	-80.604	0.239	-0.079
-364.698	-6.450	0.041	0.028
-363.683	-200.000	-0.058	0.345
-362.669	127.998	0.193	0.243
-361.654	-200.000	0.048	-0.234
-360.639	-200.000	0.045	-0.559
-359.625	18.166	-0.167	0.132
-358.610	36.315	-0.191	-0.167
-357.596	74.419	-0.164	0.171
-356.581	-67.112	-0.143	0.056
-355.566	-13.986	0.158	0.101
-354.552	-200.000	-0.003	-0.204
-353.537	105.981	-0.248	-0.290
-352.523	-84.228	-0.199	-0.062
-351.508	-121.554	0.420	0.069
-350.493	117.476	0.103	0.125
-349.479	-149.177	-0.107	-0.008
-348.464	-37.391	0.348	-0.184
-347.450	78.303	0.065	-0.069
-346.435	-174.536	-0.157	0.004
-345.420	-57.135	0.155	0.067
-344.406	128.988	-0.138	-0.174
-343.391	-49.136	0.146	0.069
-342.377	-156.758	0.034	-0.002
-341.362	-86.454	-0.402	-0.122
-340.348	294.665	0.190	0.345
-339.333	280.321	0.180	0.318
-338.318	800.000	0.098	0.303
-337.304	446.547	-0.045	-0.099
-336.289	170.483	-0.078	-0.110
-335.275	11.027	0.485	-0.367
-334.260	332.579	0.152	-0.291
-333.245	-45.064	-0.116	-0.057
-332.231	-140.594	-0.165	-0.017
-331.216	-65.538	-0.389	-0.155
-330.202	-7.906	-0.421	-0.281
-329.187	-200.000	0.026	0.261
-328.172	-200.000	0.007	0.053
-327.158	-200.000	-0.007	0.318
-326.143	-16.693	-0.042	-0.027
-325.129	-36.216	-0.180	-0.096
-324.114	-200.000	-0.001	0.102
-323.099	800.000	-0.035	0.114
-322.085	421.654	-0.076	0.161
-321.070	49.817	0.163	0.152
-320.056	-34.849	-0.256	-0.138
-319.041	35.735	0.338	0.294
-318.026	-200.000	0.024	-0.190
-317.012	200.070	-0.135	-0.205
-315.997	193.902	-0.213	-0.319
-314.983	100.080	0.278	-0.319
-313.968	68.126	-0.202	0.204
-312.953	14.466	-0.182	0.141
-311.939	800.000	-0.091	-0.324
-310.924	-200.000	-0.035	-0.175
-309.910	-200.000	0.004	-0.469
-308.895	506.925	0.111	-0.254
-307.880	111.028	0.124	-0.148
-306.866	-137.191	-0.193	0.022
-305.851	800.000	-0.059	-0.170
-304.837	775.720	0.114	0.309
-303.822	800.000	-0.010	0.041
-302.807	12.960	-0.153	0.117
-301.793	-61.293	0.107	-0.044
-300.778	-22.570	0.155	-0.093
-299.764	800.000	-0.136	0.526
-298.749	-198.656	0.244	0.001
-297.735	-12.533	-0.306	0.198
-296.720	-95.470	-0.180	0.048
-295.705	404.829	-0.062	-0.129
-294.691	362.481	0.092	-0.182
-293.676	43.151	0.056	0.050
-292.662	52.960	0.234	-0.221
-291.647	158.415	-0.199	-0.273
-290.632	295.248	0.194	0.350
-289.618	-197.875	0.274	-0.002
-288.603	350.412	-0.059	0.116
-287.589	-35.345	0.167	0.090
-286.574	21.200	-0.129	-0.104
-285.559	-181.708	-0.289	0.005
-284.545	32.585	0.370	-0.316
-283.530	17.137	0.123	-0.096
-282.516	-63.971	0.204	-0.082
-281.501	723.448	-0.022	0.058
-280.486	125.766	-0.228	0.284
-279.472	-23.008	-0.069	0.041
-278.457	800.000	0.010	0.044
-277.443	800.000	-0.097	-0.414
-276.428	800.000	0.043	-0.142
-275.413	-94.459	-0.165	0.044
-274.399	-14.255	-0.110	0.070
-273.384	225.457	0.111	-0.177
-272.370	800.000	0.062	0.174
-271.355	-200.000	-0.013	0.088
-270.340	-200.000	-0.198	-0.000
-269.326	-77.029	-0.113	0.039
-268.311	91.059	-0.128	0.141
-267.297	76.498	0.094	-0.098
-266.282	800.000	-0.069	0.230
-265.267	-105.628	-0.067	0.015
-264.253	800.000	0.060	-0.171
-263.238	210.148	-0.105	0.163
-262.224	-33.214	0.084	0.046
-261.209	800.000	0.073	-0.273
-260.195	122.862	-0.152	-0.188
-259.180	-162.097	0.341	0.017
-258.165	800.000	-0.094	0.271
-257.151	205.286	-0.031	0.047
-256.136	139.910	-0.200	-0.260
-255.122	140.974	0.200	0.261
-254.107	800.000	-0.120	0.326
-253.092	-46.625	-0.234	0.113
-252.078	-51.427	0.032	0.015
-251.063	535.363	-0.181	0.423
-250.049	98.944	0.218	0.248
-249.034	800.000	-0.087	-0.276
-248.019	-200.000	-0.003	0.014
-247.005	-200.000	-0.012	-0.299
-245.990	302.866	0.165	0.301
-244.976	227.486	-0.201	0.322
-243.961	-63.306	0.190	-0.077
-242.946	-67.159	0.262	-0.102
-241.932	271.079	-0.101	-0.175
-240.917	800.000	0.014	0.060
-239.903	-39.558	-0.254	0.131
-238.888	336.479	0.130	0.249
-237.873	30.900	0.167	-0.141
-236.859	295.069	-0.060	-0.109
-235.844	158.280	-0.069	0.094
-234.830	132.819	0.111	-0.141
-233.815	-40.160	0.202	-0.104
-232.800	-9.220	-0.277	0.183
-231.786	224.948	0.069	-0.109
-230.771	-200.000	-0.009	0.061
-229.757	-42.318	0.284	0.143
-228.742	-129.383	-0.218	-0.030
-227.727	-11.588	0.099	0.064
-226.713	322.684	0.161	0.303
-225.698	-92.713	0.401	0.111
-224.684	-176.902	0.167	0.004
-223.669	-66.852	-0.131	0.051
-222.655	-130.356	0.392	-0.052
-221.640	-2.803	-0.116	0.080
-220.625	-119.934	0.089	0.015
-219.611	800.000	0.056	0.190
-218.596	427.578	-0.137	0.292
-217.582	14.183	-0.233	-0.179
-216.567	527.414	-0.028	0.064
-215.552	-28.352	-0.078	0.045
-214.538	800.000	0.018	0.056
-213.523	328.853	-0.153	-0.289
-212.509	51.355	-0.380	-0.355
-211.494	-200.000	0.017	0.189
-210.479	306.469	0.149	0.274
-209.465	70.367	0.053	0.054
-208.450	-112.180	-0.165	0.033
-207.436	800.000	0.087	-0.347
-206.421	-20.360	-0.073	-0.044
-205.406	-200.000	0.009	0.173
-204.392	561.965	-0.108	0.258
-203.377	-51.489	-0.037	-0.017
-202.363	-13.680	-0.065	-0.041
-201.348	67.309	-0.116	0.116
-200.333	482.634	0.176	0.395
-199.319	30.322	0.134	0.112
-198.304	800.000	0.038	0.163
-197.290	10.406	-0.348	0.261
-196.275	477.921	-0.158	0.351
-195.260	-200.000	0.219	0.000
-194.246	800.000	0.060	-0.253
-193.231	35.087	0.134	-0.116
-192.217	-200.000	0.013	0.283
-191.202	-68.885	0.230	-0.087
-190.187	34.560	0.260	-0.224
-189.173	-89.728	0.378	-0.109
-188.158	800.000	-0.071	0.214
-187.144	19.367	-0.276	-0.218
-186.129	96.392	0.158	-0.177
-185.114	-200.000	-0.075	0.349
-184.100	800.000	0.121	0.471
-183.085	299.321	0.151	0.274
-182.071	35.911	0.236	0.204
-181.056	-57.418	-0.185	-0.080
-180.042	-25.673	0.272	0.158
-179.027	-106.131	0.158	-0.035
-178.012	-136.036	-0.135	-0.016
-176.998	375.314	-0.033	0.065
-175.983	-66.105	0.367	-0.144
-174.969	269.944	-0.114	0.197
-173.954	-99.523	0.156	0.039
-172.939	-165.480	0.349	0.015
-171.925	800.000	-0.093	-0.352
-170.910	-154.768	0.253	-0.016
-169.896	36.503	-0.090	0.078
-168.881	800.000	-0.037	0.133
-167.866	-146.133	-0.231	-0.020
-166.852	163.263	-0.158	-0.219
-165.837	-79.399	0.113	0.038
-164.823	-111.040	0.100	0.020
-163.808	-45.359	0.243	-0.118
-162.793	166.309	0.215	0.299
-161.779	100.027	-0.100	0.114
-160.764	-51.856	0.174	-0.079
-159.750	-60.390	0.218	0.091
-158.735	-55.990	0.032	-0.014
-157.720	125.596	0.177	-0.219
-156.706	800.000	0.047	-0.171
-155.691	252.972	0.148	-0.248
-154.677	-200.000	-0.055	0.427
-153.662	-85.306	0.415	-0.127
-152.647	173.543	0.223	-0.316
-151.633	34.635	0.113	0.097
-150.618	-200.000	0.016	-0.091
-149.604	-155.195	-0.213	0.014
-148.589	704.808	-0.113	0.292
-147.574	795.485	0.093	0.251
-146.560	17.336	0.165	0.129
-145.545	140.823	-0.076	0.098
-144.531	800.000	0.090	0.249
-143.516	800.000	-0.048	0.187
-142.502	800.000	-0.077	-0.244
-141.487	-16.829	0.195	-0.121
-140.472	-96.616	-0.282	0.073
-139.458	182.696	-0.241	0.348
-138.443	510.571	-0.184	0.420
-137.429	110.094	-0.072	-0.085
-136.414	-56.918	0.173	-0.075
-135.399	126.649	0.044	-0.055
-134.385	21.387	-0.063	0.050
-133.370	40.971	0.122	-0.108
-132.356	-84.279	-0.288	-0.090
-131.341	710.276	-0.052	-0.136
-130.326	-22.979	0.089	0.052
-129.312	-68.393	-0.083	-0.032
-128.297	-200.000	-0.031	-0.311
-127.283	800.000	-0.097	0.276
-126.268	41.507	0.093	0.082
-125.253	103.062	-0.067	0.078
-124.239	-13.047	0.192	0.123
-123.224	-13.352	-0.161	-0.102
-122.210	-58.995	-0.278	0.118
-121.195	-33.000	-0.160	0.087
-120.180	201.040	-0.043	-0.065
-119.166	-153.090	0.121	0.008
-118.151	-134.125	0.307	-0.037
-117.137	104.694	-0.113	-0.131
-116.122	-128.507	0.113	0.016
-115.107	52.627	0.214	-0.200
-114.093	-135.328	0.232	-0.027
-113.078	-200.000	-0.002	0.112
-112.064	-200.000	0.041	-0.323
-111.049	-2.346	-0.104	-0.071
-110.034	800.000	0.027	-0.093
-109.020	73.209	0.210	-0.215
-108.005	-29.484	-0.064	0.036
-106.991	-145.029	0.365	0.033
-105.976	173.243	-0.168	0.237
-104.962	682.780	0.024	0.061
-103.947	-181.581	0.422	0.008
-102.932	37.489	0.274	-0.238
-101.918	-200.000	-0.016	-0.105
-100.903	106.177	-0.208	-0.242
-99.889	-107.249	0.195	-0.042
-98.874	-78.840	0.197	-0.066
-97.859	-46.605	0.601	0.289
-96.845	67.624	0.129	-0.129
-95.830	49.053	0.123	-0.113
-94.816	-90.074	-0.164	-0.047
-93.801	4.577	-0.312	-0.224
-92.786	-200.000	-0.019	0.210
-91.772	269.771	0.120	-0.206
-90.757	237.425	-0.058	-0.095
-89.743	-154.648	0.296	0.019
-88.728	-18.866	0.318	-0.194
-87.713	-1.286	-0.120	0.083
-86.699	262.448	0.090	-0.153
-85.684	-35.053	0.355	-0.190
-84.670	764.867	0.098	0.261
-83.655	3.715	0.170	0.121
-82.640	800.000	-0.043	0.177
-81.626	140.951	0.107	0.138
-80.611	-79.455	0.069	-0.023
-79.597	225.001	-0.061	0.097
-78.582	800.000	0.121	0.398
-77.567	-115.123	-0.300	-0.056
-76.553	118.836	0.051	0.062
-75.538	-51.114	0.179	0.082
-74.524	-200.000	-0.063	-0.281
-73.509	-200.000	-0.041	-0.374
-72.494	-38.407	-0.229	-0.119
-71.480	-200.000	-0.036	0.207
-70.465	-13.945	-0.115	0.073
-69.451	-92.397	-0.060	-0.017
-68.436	-106.566	-0.023	0.005
-67.422	-99.055	0.271	-0.067
-66.407	131.304	-0.123	-0.154
-65.392	800.000	-0.064	-0.186
-64.378	800.000	-0.073	-0.234
-63.363	102.037	0.192	-0.220
-62.349	453.803	0.061	-0.133
-61.334	34.299	-1.373	-1.172
-60.319	205.726	0.309	0.470
-59.305	800.000	-0.337	-0.971
-58.290	364.305	0.609	1.198
-57.276	184.376	0.954	1.383
-56.261	-200.000	111.392	630.841
-55.246	472.772	1497.691	3301.265
-54.232	148.709	2664.028	3522.439
-53.217	103.472	2172.865	2494.370
-52.203	38.074	1705.187	1484.036
-51.188	30.803	1524.165	1276.805
-50.173	28.626	1499.453	1241.342
-49.159	52.403	1556.348	1452.797
-48.144	51.332	1572.390	1460.350
-47.130	31.103	1529.283	1282.948
-46.115	28.011	1514.731	1249.593
-45.100	27.829	1511.490	1245.623
-44.086	27.781	1509.587	1243.682
-43.071	27.720	1507.666	1241.632
-42.057	27.735	1505.760	1240.115
-41.042	27.733	1504.673	1239.161
-40.027	27.738	1502.843	1237.636
-39.013	27.752	1501.321	1236.431
-37.998	27.726	1500.053	1235.158
-36.984	27.764	1499.009	1234.505
-35.969	27.703	1497.145	1232.514
-34.954	27.760	1495.873	1231.802
-33.940	27.673	1494.773	1230.259
-32.925	27.721	1493.285	1229.306
-31.911	27.759	1492.123	1228.563
-30.896	27.795	1490.715	1227.592
-29.881	27.802	1489.523	1226.612
-28.867	27.799	1488.374	1225.596
-27.852	27.742	1486.798	1223.868
-26.838	27.765	1486.164	1223.453
-25.823	27.802	1484.337	1222.148
-24.809	27.802	1482.590	1220.659
-23.794	27.875	1480.751	1219.583
-22.779	27.673	1480.318	1217.831
-21.765	27.842	1478.643	1217.534
-20.750	27.812	1477.786	1216.579
-19.736	27.809	1476.640	1215.563
-18.721	27.804	1475.520	1214.559
-17.706	27.811	1474.640	1213.834
-16.692	27.753	1473.431	1212.410
-15.677	27.750	1471.947	1211.121
-14.663	27.736	1471.827	1210.877
-13.648	27.768	1470.497	1209.948
-12.633	27.731	1469.859	1209.129
-11.619	27.739	1469.026	1208.450
-10.604	27.743	1467.920	1207.520
-9.590	27.675	1467.490	1206.669
-8.575	27.742	1466.028	1205.860
-7.560	27.727	1465.402	1205.201
-6.546	27.681	1464.680	1204.250
-5.531	27.702	1463.665	1203.508
-4.517	27.675	1462.832	1202.595
-3.502	27.702	1461.409	1201.561
-2.487	27.857	1460.279	1201.603
-1.473	27.701	1459.435	1199.834
-0.458	27.692	1458.160	1198.676
0.556	26.138	1448.013	1187.630
1.571	23.218	1423.239	1148.298
2.586	19.997	1362.938	1079.501
3.600	18.444	1279.761	1004.439
4.615	17.386	1234.278	962.670
5.629	16.567	1181.547	917.022
6.644	13.463	1105.696	842.305
7.659	10.887	1071.178	803.227
8.673	10.570	1066.137	797.816
9.688	10.317	1062.893	794.077
10.702	10.374	1061.096	792.945
11.717	10.290	1059.075	790.953
12.731	11.456	1058.819	796.382
13.746	14.694	1062.693	815.057
14.761	17.194	1066.038	829.778
15.775	17.776	1065.965	832.489
16.790	16.976	1063.806	826.832
17.804	15.953	1061.451	819.949
18.819	15.050	1059.581	814.045
19.834	14.565	1057.972	810.380
20.848	14.255	1057.122	808.149
21.863	14.048	1056.648	806.712
22.877	13.755	1055.856	804.617
23.892	13.670	1054.681	803.237
24.907	13.405	1054.272	801.571
25.921	13.509	1053.336	801.294
26.936	13.520	1052.720	800.807
27.950	13.585	1051.380	800.029
28.965	13.484	1050.465	798.776
29.980	13.683	1049.322	798.796
30.994	13.711	1048.152	797.970
32.009	13.737	1047.410	797.459
33.023	13.825	1046.645	797.230
34.038	13.770	1045.861	796.295
35.053	13.659	1045.207	795.197
36.067	13.606	1044.210	794.109
37.082	13.714	1043.120	793.728
38.096	13.749	1041.920	792.912
39.111	13.589	1041.654	791.878
40.126	13.707	1040.660	791.614
41.140	13.775	1039.288	790.824
42.155	13.421	1038.556	788.510
43.169	13.527	1037.360	788.037
44.184	13.462	1036.348	786.888
45.199	13.439	1035.477	786.051
46.213	13.475	1034.128	785.126
47.228	13.466	1033.260	784.358
48.242	13.563	1032.458	784.138
49.257	13.539	1031.586	783.293
50.271	13.644	1030.749	783.084
51.286	13.681	1029.278	782.072
52.301	13.668	1029.028	781.750
53.315	13.704	1028.080	781.131
54.330	13.614	1027.254	780.009
55.344	13.583	1026.784	779.441
56.359	13.521	1025.345	777.985
57.374	13.643	1024.686	777.991
58.388	13.597	1023.818	777.049
59.403	13.577	1022.730	776.060
60.417	13.519	1021.990	775.156
61.432	13.512	1021.583	774.748
62.447	13.445	1020.800	773.773
63.461	13.381	1019.866	772.698
64.476	13.436	1018.756	772.043
65.490	13.358	1017.913	770.971
66.505	13.400	1017.082	770.470
67.520	13.419	1016.656	770.170
68.534	13.385	1015.858	769.335
69.549	13.414	1014.972	768.733
70.563	13.427	1014.382	768.281
71.578	13.400	1013.599	767.492
72.593	13.407	1012.442	766.583
73.607	13.365	1011.861	765.879
74.622	13.293	1011.001	764.829
75.636	13.345	1009.851	764.127
76.651	13.363	1009.350	763.767
77.666	13.438	1008.494	763.396
78.680	13.391	1007.630	762.458
79.695	13.389	1007.347	762.167
80.709	13.372	1006.695	761.528
81.724	13.418	1005.718	760.933
82.739	13.450	1005.115	760.555
83.753	13.459	1004.433	760.017
84.768	13.552	1003.815	759.907
85.782	13.625	1003.058	759.600
86.797	13.633	1002.351	759.034
87.812	13.699	1001.394	758.543
88.826	13.576	1000.730	757.412
89.841	13.627	999.613	756.733
90.855	13.759	998.341	756.304
91.870	13.720	998.177	755.935
92.884	13.712	997.474	755.303
93.899	13.683	996.632	754.466
94.914	13.840	995.684	754.395
95.928	13.839	995.144	753.914
96.943	13.743	994.389	752.837
97.957	13.764	993.466	752.167
98.972	13.803	992.266	751.369
99.987	13.712	991.753	750.503
101.001	13.707	991.166	749.969
102.016	13.799	990.166	749.563
103.030	13.701	989.080	748.233
104.045	13.726	988.224	747.631
105.060	13.841	986.986	747.145
106.074	13.843	985.800	746.189
107.089	13.684	985.306	745.036
108.103	13.583	984.994	744.281
109.118	13.516	983.790	743.003
110.133	13.472	983.236	742.325
111.147	13.520	982.400	741.843
112.162	13.551	981.630	741.333
113.176	13.364	980.666	739.704
114.191	13.484	979.789	739.512
115.206	13.716	979.005	739.889
116.220	13.611	977.952	738.563
117.235	13.533	977.248	737.617
118.249	13.496	976.357	736.716
119.264	13.703	975.172	736.676
120.279	13.612	974.324	735.564
121.293	13.593	973.498	734.791
122.308	13.599	972.969	734.353
123.322	13.528	972.307	733.475
124.337	13.550	971.038	732.552
125.352	13.508	969.829	731.391
126.366	13.474	968.925	730.491
127.381	13.416	967.853	729.362
128.395	13.462	966.924	728.801
129.410	13.575	965.985	728.526
130.424	13.494	965.412	727.673
131.439	13.476	964.353	726.731
132.454	13.608	963.461	726.575
133.468	13.663	962.967	726.380
134.483	13.558	962.342	725.382
135.497	13.653	961.663	725.222
136.512	13.543	960.630	723.897
137.527	13.646	959.678	723.566
138.541	13.649	959.342	723.262
139.556	13.652	958.379	722.488
140.570	13.742	957.240	721.957
141.585	13.744	956.753	721.535
142.600	13.804	956.082	721.223
143.614	13.838	955.406	720.797
144.629	13.808	954.642	720.028
145.643	13.848	954.151	719.765
146.658	13.898	952.973	719.029
147.673	13.799	952.211	717.962
148.687	13.657	951.413	716.684
149.702	13.706	950.175	715.900
150.716	13.635	949.551	715.060
151.731	13.653	948.571	714.338
152.746	13.655	947.909	713.784
153.760	13.750	947.297	713.669
154.775	13.703	946.495	712.799
155.789	13.844	945.927	712.912
156.804	13.744	945.218	711.887
157.819	13.879	944.140	711.590
158.833	13.889	943.860	711.361
159.848	13.901	943.150	710.811
160.862	13.907	942.402	710.214
161.877	13.916	941.577	709.565
162.892	13.917	940.350	708.585
163.906	13.736	939.866	707.383
164.921	13.744	939.224	706.872
165.935	13.730	938.353	706.094
166.950	13.873	937.106	705.702
167.964	13.908	936.709	705.488
168.979	13.959	935.266	704.555
169.994	13.989	934.015	703.679
171.008	13.896	933.473	702.816
172.023	14.024	932.641	702.667
173.037	14.037	932.014	702.186
174.052	13.959	931.561	701.456
175.067	14.045	930.688	701.097
176.081	13.999	929.989	700.316
177.096	13.932	928.759	699.044
178.110	13.927	928.174	698.521
179.125	13.958	927.610	698.167
180.140	13.938	926.550	697.220
181.154	13.995	925.807	696.842
182.169	14.014	925.407	696.560
183.183	14.079	924.842	696.343
184.198	14.180	924.337	696.323
185.213	14.143	923.358	695.371
186.227	14.109	922.833	694.772
187.242	14.098	922.566	694.461
188.256	14.049	921.817	693.634
189.271	14.265	920.902	693.786
190.286	14.280	920.193	693.252
191.300	14.179	919.190	692.015
192.315	13.974	918.726	690.749
193.329	13.959	918.151	690.195
194.344	13.883	917.490	689.322
195.359	13.961	916.757	689.034
196.373	14.190	915.879	689.260
197.388	14.103	915.842	688.812
198.402	14.115	915.526	688.564
199.417	14.380	914.647	688.936
200.432	14.331	914.333	688.438
201.446	14.375	914.044	688.340
202.461	14.467	913.442	688.205
203.475	14.442	913.187	687.849
204.490	14.486	912.124	687.170
205.504	14.381	911.843	686.462
206.519	14.465	910.590	685.807
207.534	14.364	910.093	684.957
208.548	14.316	909.031	683.897
209.563	14.365	908.665	683.763
210.577	14.355	907.990	683.153
211.592	14.348	907.393	682.614
212.607	14.459	906.989	682.706
213.621	14.578	906.286	682.605
214.636	14.611	905.300	681.937
215.650	14.526	904.747	681.113
216.665	14.503	904.377	680.680
217.680	14.509	904.148	680.470
218.694	14.603	903.674	680.437
219.709	14.759	902.704	680.282
220.723	14.637	902.259	679.390
221.738	14.497	901.515	678.202
222.753	14.638	900.582	678.012
223.767	14.606	899.728	677.178
224.782	14.782	899.078	677.344
225.796	14.715	898.646	676.686
226.811	14.740	897.769	676.068
227.826	14.745	897.030	675.472
228.840	14.724	896.382	674.838
229.855	14.606	895.583	673.702
230.869	14.643	895.291	673.572
231.884	14.726	894.307	673.106
232.899	14.817	893.286	672.641
233.913	14.756	892.840	672.003
234.928	14.502	892.266	670.490
235.942	14.757	891.553	670.918
236.957	14.750	890.929	670.362
237.972	14.714	890.154	669.577
238.986	14.553	889.718	668.543
240.001	14.604	889.147	668.261
241.015	14.718	888.278	668.004
242.030	14.802	887.309	667.550
243.045	14.876	886.845	667.437
244.059	14.907	886.201	667.018
245.074	14.894	885.604	666.456
246.088	14.789	885.172	665.656
247.103	14.756	884.911	665.271
248.117	14.984	884.129	665.528
249.132	15.000	883.593	665.130
250.147	15.093	882.837	664.871
251.161	15.255	881.883	664.735
252.176	15.314	881.436	664.576
253.190	15.168	880.744	663.416
254.205	15.338	879.879	663.377
255.220	15.316	879.554	662.987
256.234	15.269	879.345	662.585
257.249	15.211	878.865	661.937
258.263	15.278	877.873	661.397
259.278	15.369	877.232	661.214
260.293	15.409	876.729	660.930
261.307	15.381	876.182	660.352
262.322	15.487	875.616	660.283
263.336	15.378	875.091	659.401
264.351	15.489	874.467	659.308
265.366	15.477	873.619	658.564
266.380	15.522	873.107	658.294
267.395	15.511	872.328	657.607
268.409	15.472	871.467	656.748
269.424	15.430	870.921	656.111
270.439	15.496	870.327	655.866
271.453	15.385	869.738	654.929
272.468	15.431	868.541	654.152
273.482	15.391	867.889	653.445
274.497	15.617	867.158	653.716
275.512	15.557	866.832	653.180
276.526	15.463	866.001	652.130
277.541	15.463	865.501	651.696
278.555	15.515	865.209	651.619
279.570	15.452	864.845	651.044
280.585	15.647	863.969	651.084
281.599	15.623	863.489	650.572
282.614	15.644	863.043	650.256
283.628	15.687	861.653	649.318
284.643	15.506	861.764	648.646
285.657	15.618	861.287	648.664
286.672	15.681	860.824	648.498
287.687	15.669	859.999	647.773
288.701	15.669	859.561	647.387
289.716	15.842	858.651	647.309
290.730	15.816	858.521	647.054
291.745	15.728	857.665	646.012
292.760	15.790	856.958	645.661
293.774	15.855	856.460	645.480
294.789	15.852	855.870	644.965
295.803	15.932	855.058	644.601
296.818	15.714	854.554	643.331
297.833	15.701	854.049	642.847
298.847	15.746	853.210	642.327
299.862	15.643	852.736	641.522
300.876	15.897	851.773	641.708
301.891	15.836	851.194	640.986
302.906	15.991	850.359	640.889
303.920	16.045	849.842	640.648
304.935	15.918	849.400	639.774
305.949	16.090	848.531	639.716
306.964	16.069	847.718	638.965
307.979	16.014	847.626	638.631
308.993	15.799	847.659	637.787
310.008	16.086	846.777	638.152
311.022	16.085	846.042	637.538
312.037	16.259	845.434	637.683
313.052	16.133	845.203	636.974
314.066	15.986	844.516	635.845
315.081	16.120	843.474	635.508
316.095	16.072	843.007	634.922
317.110	16.062	842.458	634.415
318.125	15.963	842.068	633.691
319.139	16.200	841.431	634.048
320.154	16.051	840.924	633.048
321.168	16.068	840.723	632.905
322.183	16.001	840.620	632.521
323.197	16.200	839.364	632.263
324.212	16.173	838.912	631.769
325.227	16.154	838.352	631.217
326.241	16.255	837.679	631.035
327.256	16.205	836.869	630.182
328.270	15.985	836.734	629.203
329.285	16.209	836.003	629.432
330.300	16.069	835.871	628.757
331.314	16.131	835.116	628.362
332.329	16.266	834.445	628.306
333.343	16.361	833.486	627.881
334.358	16.348	833.273	627.616
335.373	16.372	832.586	627.132
336.387	16.395	832.071	626.775
337.402	16.237	831.647	625.815
338.416	16.512	830.880	626.200
339.431	16.509	830.367	625.747
340.446	16.442	829.945	625.126
341.460	16.586	829.299	625.117
342.475	16.690	828.467	624.818
343.489	16.550	828.363	624.167
344.504	16.433	828.207	623.562
345.519	16.745	827.303	623.974
346.533	16.642	827.101	623.389
347.548	16.761	826.258	623.135
348.562	16.735	825.695	622.562
349.577	16.622	825.203	621.721
350.592	16.550	824.454	620.835
351.606	16.527	824.094	620.425
352.621	16.461	823.922	620.000
353.635	16.457	823.513	619.621
354.650	16.498	823.230	619.505
355.665	16.608	822.577	619.360
356.679	16.613	822.113	618.975
357.694	16.715	821.540	618.860
358.708	16.871	820.544	618.625
359.723	16.866	820.088	618.210
360.738	16.827	819.384	617.482
361.752	16.723	819.449	617.099
362.767	16.768	819.151	616.984
363.781	16.881	818.422	616.790
364.796	16.998	817.907	616.774
365.810	16.920	817.466	616.102
366.825	16.974	817.241	616.074
367.840	17.022	816.996	616.008
368.854	16.940	816.619	615.371
369.869	16.928	816.252	614.998
370.883	17.130	815.029	614.754
371.898	16.948	815.011	614.027
372.913	16.943	814.428	613.516
373.927	17.122	813.518	613.421
374.942	17.247	812.748	613.238
375.956	16.977	812.562	612.068
376.971	17.087	811.754	611.803
377.986	17.163	811.233	611.632
379.000	17.192	810.967	611.481
380.015	17.258	810.748	611.498
381.029	17.169	810.251	610.749
382.044	17.229	809.353	610.235
383.059	17.255	808.767	609.829
384.073	17.281	807.866	609.190
385.088	17.131	807.952	608.663
386.102	17.067	807.142	607.771
387.117	17.139	807.042	607.900
388.132	17.190	806.454	607.583
389.146	17.192	805.932	607.147
390.161	17.217	805.328	606.727
391.175	17.234	804.884	606.399
392.190	17.328	804.712	606.552
393.205	17.252	804.304	605.918
394.219	17.414	803.472	605.814
395.234	17.385	803.125	605.395
396.248	17.086	802.868	604.085
397.263	17.176	802.097	603.773
398.278	17.202	801.682	603.499
399.292	17.287	801.072	603.288
400.307	17.339	800.712	603.146
401.321	17.135	800.944	602.546
402.336	17.348	799.937	602.487
403.350	17.264	799.398	601.732
404.365	17.388	798.999	601.818
405.380	17.193	799.129	601.173
406.394	17.396	798.602	601.438
407.409	17.485	797.980	601.234
408.423	17.577	797.426	601.086
409.438	17.596	797.088	600.846
410.453	17.584	796.467	600.281
411.467	17.630	796.208	600.196
412.482	17.685	795.286	599.642
413.496	17.686	795.362	599.650
414.511	17.767	794.720	599.398
415.526	17.773	794.380	599.107
416.540	17.684	794.180	598.590
417.555	17.695	793.467	598.039
418.569	17.828	792.899	598.026
419.584	17.782	792.509	597.516
420.599	17.812	792.198	597.334
421.613	111.055	1293.019	1474.695
422.628	95.441	1365.944	1474.794
