DTS Sentinel unit serial number:	SN413079Multiplexer serial number:	ORYXHardware model number:	OX4-SRSoftware version number:	ORYX F/W v4.00 Oryx Data Collector v3.7.2.0data status	okinstallation	princeton_trtdifferential loss correction	single-endedforward channel	channel 3reverse channel	N/Adate	2019/09/19time	00:24:35forward acquisition time	60.00reverse acquisition time	0.00gamma	496.2192k internal	0.2346k external	0.2346temperature offset calibration	0.9991default loss term (dB/km)	0.3790temperature slope calibration	1.0000multiplexer offset coefficient	1.0000multiplexer slope coefficient	1.0000fibre end	0.00T internal ref (°C)	22.56T ext. ref 1 (°C)	0.73T ext. ref 2 (°C)	15.57length (m)	temperature (°C)	Stokes	anti-Stokes-747.200	-98.262	0.167	0.043
-746.185	-115.544	-0.321	-0.060
-745.171	63.145	0.184	0.185
-744.156	432.180	0.088	0.190
-743.142	-200.000	0.001	0.037
-742.127	-71.147	-0.248	0.093
-741.112	-96.558	0.371	-0.098
-740.098	81.928	-0.273	0.295
-739.083	343.323	0.018	-0.036
-738.069	372.653	0.317	0.643
-737.054	-200.000	0.004	-0.265
-736.039	29.749	-0.133	-0.113
-735.025	-183.012	0.208	0.004
-734.010	-200.000	-0.024	0.180
-732.996	-200.000	-0.036	-0.268
-731.981	-54.711	-0.066	0.030
-730.966	-200.000	-0.037	-0.311
-729.952	-31.095	0.307	0.173
-728.937	254.458	-0.153	-0.261
-727.923	-67.865	-0.182	-0.071
-726.908	-161.809	-0.126	0.006
-725.894	-200.000	-0.019	0.233
-724.879	-130.153	0.377	0.051
-723.864	800.000	-0.052	-0.206
-722.850	156.055	-0.212	-0.292
-721.835	-78.213	0.464	-0.159
-720.821	4.440	0.399	-0.292
-719.806	-200.000	-0.001	-0.046
-718.791	-63.041	0.137	-0.057
-717.777	42.846	0.239	-0.218
-716.762	234.843	0.024	0.039
-715.748	98.483	-0.032	-0.037
-714.733	20.958	-0.128	-0.104
-713.718	-200.000	-0.004	-0.120
-712.704	-8.233	0.052	-0.035
-711.689	800.000	0.072	-0.223
-710.675	-200.000	-0.025	-0.454
-709.660	-182.326	-0.126	0.002
-708.645	-200.000	0.012	-0.139
-707.631	-200.000	0.005	-0.077
-706.616	197.169	-0.107	0.163
-705.602	9.434	-0.112	0.085
-704.587	-200.000	-0.017	-0.174
-703.572	-189.238	0.249	0.003
-702.558	-65.560	-0.321	-0.129
-701.543	-55.557	0.127	0.057
-700.529	-107.832	-0.359	-0.078
-699.514	179.628	0.132	-0.193
-698.499	-64.646	-0.266	-0.108
-697.485	155.595	-0.112	0.153
-696.470	-200.000	0.012	0.080
-695.456	11.690	-0.200	0.153
-694.441	-121.907	-0.099	-0.016
-693.426	-69.839	0.127	0.048
-692.412	800.000	-0.127	0.415
-691.397	-116.079	0.229	0.043
-690.383	28.054	0.129	-0.109
-689.368	-83.694	0.092	0.029
-688.354	546.942	0.099	-0.237
-687.339	442.075	-0.068	0.148
-686.324	361.920	0.106	-0.213
-685.310	-200.000	-0.012	-0.349
-684.295	562.216	0.163	0.393
-683.281	67.448	-0.162	-0.165
-682.266	-108.370	-0.055	-0.012
-681.251	-200.000	-0.002	-0.054
-680.237	-115.524	-0.094	-0.018
-679.222	265.092	0.128	-0.223
-678.208	-117.352	0.327	0.059
-677.193	112.761	0.162	-0.196
-676.178	-57.564	-0.078	0.034
-675.164	259.947	0.068	0.117
-674.149	-51.496	0.392	0.183
-673.135	-200.000	0.018	0.377
-672.120	-29.975	0.175	-0.099
-671.105	-105.812	0.230	-0.052
-670.091	-118.256	-0.229	-0.041
-669.076	22.387	-0.277	0.225
-668.062	-105.486	0.126	0.028
-667.047	445.560	-0.064	0.141
-666.032	58.520	0.052	-0.051
-665.018	800.000	-0.040	-0.119
-664.003	19.094	-0.075	0.060
-662.989	107.613	-0.295	0.350
-661.974	-138.951	0.333	0.036
-660.959	5.120	0.176	-0.129
-659.945	-200.000	-0.013	-0.086
-658.930	-177.944	-0.092	0.002
-657.916	35.746	-0.063	0.055
-656.901	99.725	0.047	0.055
-655.886	-200.000	-0.022	-0.109
-654.872	127.337	-0.232	-0.294
-653.857	800.000	0.037	0.130
-652.843	61.269	-0.121	-0.120
-651.828	800.000	-0.071	0.229
-650.814	-148.937	-0.421	0.034
-649.799	142.246	-0.108	-0.142
-648.784	-120.069	0.190	0.032
-647.770	52.247	-0.281	0.267
-646.755	68.198	0.085	-0.087
-645.741	800.000	0.172	-0.596
-644.726	192.222	0.261	0.392
-643.711	77.799	0.079	-0.083
-642.697	800.000	0.055	-0.223
-641.682	191.737	0.108	0.162
-640.668	-200.000	0.049	0.271
-639.653	-121.275	-0.190	0.032
-638.638	-187.264	-0.376	-0.005
-637.624	-200.000	0.083	0.369
-636.609	112.833	-0.229	0.276
-635.595	-200.000	-0.007	0.323
-634.580	-153.819	0.071	0.005
-633.565	724.581	0.067	-0.178
-632.551	-52.093	0.256	-0.118
-631.536	201.789	0.192	-0.295
-630.522	-200.000	0.052	-0.325
-629.507	-200.000	0.027	0.258
-628.492	567.396	-0.098	0.238
-627.478	6.873	-0.022	-0.016
-626.463	0.156	0.170	0.121
-625.449	-138.862	-0.155	-0.017
-624.434	-200.000	0.034	-0.235
-623.419	546.082	0.121	-0.287
-622.405	-126.093	0.157	0.023
-621.390	211.678	-0.096	0.150
-620.376	-200.000	0.041	0.197
-619.361	115.467	-0.268	-0.326
-618.346	13.824	-0.084	0.065
-617.332	180.688	-0.195	0.284
-616.317	-200.000	-0.038	-0.178
-615.303	-134.988	0.035	-0.004
-614.288	31.395	0.127	-0.109
-613.273	2.512	-0.225	-0.162
-612.259	-200.000	-0.001	-0.047
-611.244	84.144	-0.189	0.205
-610.230	483.339	0.116	-0.263
-609.215	-71.376	0.230	-0.086
-608.201	30.045	0.095	-0.081
-607.186	141.744	-0.054	0.072
-606.171	-200.000	0.073	-0.381
-605.157	-200.000	-0.026	-0.178
-604.142	800.000	0.085	-0.315
-603.128	18.941	-0.069	0.055
-602.113	-26.443	-0.150	0.088
-601.098	-200.000	-0.043	0.193
-600.084	345.055	-0.096	0.188
-599.069	-115.268	-0.247	0.046
-598.055	-164.725	-0.136	-0.006
-597.040	-41.752	-0.205	0.105
-596.025	307.842	0.090	-0.167
-595.011	352.349	0.171	-0.337
-593.996	-180.905	0.275	-0.006
-592.982	-200.000	0.090	-0.407
-591.967	-160.276	-0.468	-0.025
-590.952	-200.000	-0.032	0.442
-589.938	317.646	-0.118	-0.223
-588.923	-144.946	0.248	0.023
-587.909	273.124	-0.020	0.035
-586.894	304.314	-0.010	-0.019
-585.879	2.050	-0.104	0.075
-584.865	264.150	-0.063	0.109
-583.850	-29.201	0.283	-0.161
-582.836	-47.434	-0.165	-0.080
-581.821	273.722	0.079	0.138
-580.806	-200.000	0.058	-0.337
-579.792	643.640	-0.112	0.284
-578.777	-41.339	0.208	0.107
-577.763	266.294	0.112	-0.195
-576.748	-66.947	-0.290	-0.114
-575.733	-9.149	0.198	-0.131
-574.719	800.000	0.022	0.073
-573.704	-82.793	-0.185	-0.059
-572.690	-200.000	-0.024	-0.192
-571.675	-32.726	0.226	0.125
-570.661	-200.000	-0.017	-0.145
-569.646	-200.000	0.053	-0.318
-568.631	800.000	-0.109	-0.413
-567.617	-200.000	0.015	0.163
-566.602	-23.772	0.303	0.180
-565.588	-200.000	0.014	0.236
-564.573	-64.876	-0.388	0.156
-563.558	0.117	0.247	0.175
-562.544	-140.292	-0.207	0.022
-561.529	-200.000	-0.023	0.219
-560.515	-200.000	-0.009	-0.134
-559.500	-47.529	0.118	0.057
-558.485	503.611	-0.069	0.158
-557.471	22.181	-0.127	0.103
-556.456	-200.000	-0.003	0.251
-555.442	-200.000	-0.007	0.036
-554.427	-0.855	0.140	0.098
-553.412	-200.000	0.032	-0.511
-552.398	-200.000	-0.008	-0.254
-551.383	800.000	0.095	-0.349
-550.369	-135.483	0.108	0.013
-549.354	302.499	-0.151	0.278
-548.339	386.726	-0.060	-0.123
-547.325	23.266	-0.064	-0.052
-546.310	450.642	-0.042	-0.093
-545.296	-19.512	-0.334	-0.205
-544.281	378.628	-0.156	0.317
-543.266	-200.000	-0.027	0.254
-542.252	-103.507	0.381	0.089
-541.237	-200.000	0.015	0.239
-540.223	-79.170	0.068	-0.023
-539.208	-186.608	-0.361	-0.005
-538.193	-61.903	-0.278	0.115
-537.179	800.000	0.034	-0.097
-536.164	27.570	-0.048	0.040
-535.150	-183.661	-0.430	-0.007
-534.135	-21.449	-0.054	0.033
-533.121	264.533	0.178	0.307
-532.106	-32.187	-0.281	0.156
-531.091	205.876	0.057	-0.088
-530.077	-200.000	0.009	-0.418
-529.062	383.291	-0.054	-0.110
-528.048	-200.000	-0.036	0.214
-527.033	-28.421	0.187	-0.107
-526.018	-137.972	-0.093	0.010
-525.004	-77.552	-0.111	0.038
-523.989	800.000	-0.062	0.267
-522.975	31.128	0.147	-0.125
-521.960	30.077	-0.132	0.112
-520.945	-63.249	0.104	-0.042
-519.931	6.300	-0.244	0.179
-518.916	-200.000	0.038	-0.258
-517.902	3.766	0.004	0.003
-516.887	293.020	0.094	-0.171
-515.872	440.353	0.133	-0.288
-514.858	-200.000	0.020	-0.262
-513.843	36.806	-0.237	-0.208
-512.829	800.000	-0.057	0.218
-511.814	168.140	-0.042	0.059
-510.799	-44.464	0.217	-0.108
-509.785	67.720	0.147	-0.149
-508.770	-200.000	-0.015	0.215
-507.756	-200.000	0.022	-0.187
-506.741	-68.593	-0.188	-0.072
-505.726	28.915	0.122	-0.102
-504.712	97.077	0.171	0.194
-503.697	-200.000	-0.031	0.363
-502.683	800.000	0.084	0.357
-501.668	143.840	-0.159	-0.210
-500.653	800.000	-0.054	-0.149
-499.639	112.358	0.076	-0.091
-498.624	800.000	0.019	-0.053
-497.610	22.620	-0.119	-0.096
-496.595	-139.516	0.225	0.024
-495.581	-38.444	-0.039	-0.021
-494.566	-200.000	0.022	-0.398
-493.551	507.239	-0.093	-0.215
-492.537	93.279	-0.127	-0.143
-491.522	221.711	0.161	-0.257
-490.508	-158.706	-0.170	-0.010
-489.493	800.000	-0.071	0.220
-488.478	209.545	0.157	0.243
-487.464	-200.000	-0.058	0.354
-486.449	753.246	0.034	0.092
-485.435	-46.582	0.139	-0.068
-484.420	800.000	0.044	-0.191
-483.405	-121.917	0.135	0.022
-482.391	-200.000	0.057	-0.353
-481.376	-35.873	-0.344	0.184
-480.362	-113.868	-0.297	-0.057
-479.347	-200.000	-0.016	-0.137
-478.332	11.851	-0.130	-0.099
-477.318	-200.000	-0.047	0.602
-476.303	0.047	0.081	0.057
-475.289	-53.421	-0.327	-0.148
-474.274	769.585	-0.099	-0.266
-473.259	41.675	0.147	-0.132
-472.245	17.797	-0.266	-0.210
-471.230	-42.240	-0.063	-0.032
-470.216	438.531	0.143	0.308
-469.201	328.850	-0.150	-0.285
-468.186	85.920	0.208	-0.226
-467.172	-200.000	0.002	-0.076
-466.157	18.011	0.072	0.056
-465.143	-200.000	0.019	-0.168
-464.128	190.361	-0.127	-0.189
-463.113	-200.000	0.018	-0.287
-462.099	-200.000	-0.020	-0.120
-461.084	-200.000	0.017	0.139
-460.070	88.241	-0.080	0.088
-459.055	-33.710	-0.115	-0.063
-458.040	-94.347	0.096	-0.026
-457.026	395.796	0.138	0.284
-456.011	554.165	0.039	0.093
-454.997	-200.000	0.029	-0.491
-453.982	-87.554	0.302	-0.090
-452.968	800.000	0.052	-0.186
-451.953	800.000	0.016	-0.045
-450.938	-185.233	-0.301	-0.005
-449.924	119.362	-0.075	-0.092
-448.909	282.052	-0.210	0.373
-447.895	800.000	0.013	0.044
-446.880	800.000	0.081	0.261
-445.865	359.367	0.054	0.107
-444.851	-200.000	0.011	-0.131
-443.836	-127.070	0.309	0.045
-442.822	800.000	0.063	-0.178
-441.807	-67.522	0.157	-0.061
-440.792	-46.567	0.190	-0.092
-439.778	596.187	-0.042	-0.102
-438.763	-200.000	0.016	0.136
-437.749	-174.954	-0.300	0.008
-436.734	22.128	-0.320	-0.258
-435.719	116.825	0.092	0.112
-434.705	-200.000	0.030	0.245
-433.690	-200.000	0.001	0.209
-432.676	203.927	0.136	-0.208
-431.661	199.918	0.129	-0.196
-430.646	525.302	-0.107	0.250
-429.632	-101.277	0.266	-0.064
-428.617	355.749	-0.047	-0.093
-427.603	79.557	-0.136	-0.144
-426.588	-103.810	0.149	-0.034
-425.573	-101.165	0.137	-0.033
-424.559	-200.000	0.002	0.179
-423.544	-200.000	-0.002	-0.229
-422.530	-184.445	0.286	-0.005
-421.515	167.062	0.095	0.134
-420.500	180.637	0.133	-0.193
-419.486	784.208	0.066	-0.177
-418.471	75.113	0.093	0.097
-417.457	800.000	-0.075	0.239
-416.442	800.000	0.097	0.349
-415.428	-23.073	-0.217	-0.129
-414.413	116.612	-0.113	-0.137
-413.398	-91.143	0.098	-0.028
-412.384	-165.113	-0.126	-0.006
-411.369	173.255	-0.109	0.156
-410.355	-134.181	0.342	-0.042
-409.340	800.000	-0.026	-0.096
-408.325	-49.532	-0.254	-0.120
-407.311	479.715	-0.130	0.290
-406.296	321.730	-0.081	0.153
-405.282	-50.896	0.221	0.103
-404.267	-200.000	-0.009	-0.136
-403.252	-33.873	-0.106	-0.058
-402.238	-44.702	0.105	-0.052
-401.223	-45.320	0.109	0.053
-400.209	267.743	0.021	-0.036
-399.194	392.029	0.002	-0.005
-398.179	-61.375	0.197	-0.082
-397.165	-20.379	-0.380	-0.230
-396.150	-59.983	-0.414	-0.175
-395.136	93.893	-0.115	0.128
-394.121	-125.720	-0.295	0.044
-393.106	-80.650	-0.132	-0.043
-392.092	-47.348	0.341	0.163
-391.077	157.988	-0.151	0.207
-390.063	-105.563	0.159	0.036
-389.048	106.275	0.160	0.186
-388.033	-100.948	0.340	0.082
-387.019	800.000	0.092	0.317
-386.004	40.305	-0.239	-0.212
-384.990	-200.000	0.012	-0.217
-383.975	-200.000	-0.004	0.133
-382.960	-126.149	-0.166	-0.025
-381.946	9.860	0.397	-0.297
-380.931	245.462	0.073	-0.122
-379.917	-200.000	-0.010	0.256
-378.902	800.000	0.095	-0.324
-377.888	464.858	-0.059	0.129
-376.873	285.824	0.063	0.112
-375.858	800.000	0.077	-0.308
-374.844	123.941	0.242	0.299
-373.829	414.545	0.140	0.293
-372.815	90.120	-0.159	-0.175
-371.800	68.699	-0.126	-0.127
-370.785	-32.212	0.173	-0.095
-369.771	40.227	-0.122	-0.108
-368.756	-200.000	0.038	0.571
-367.742	450.322	-0.065	-0.141
-366.727	352.362	0.086	-0.168
-365.712	246.061	0.035	-0.058
-364.698	-200.000	-0.022	-0.130
-363.683	-124.520	0.119	0.018
-362.669	94.609	0.126	0.142
-361.654	487.490	0.161	0.363
-360.639	172.799	-0.041	0.059
-359.625	-11.233	-0.130	0.084
-358.610	131.709	0.088	0.112
-357.596	61.831	-0.240	0.236
-356.581	26.950	0.213	0.176
-355.566	-200.000	-0.004	-0.083
-354.552	-200.000	-0.051	0.246
-353.537	105.934	-0.122	-0.142
-352.523	541.095	0.022	-0.052
-351.508	39.411	0.226	0.199
-350.493	195.840	-0.174	0.261
-349.479	-18.021	-0.094	0.058
-348.464	-55.001	-0.292	-0.130
-347.450	-61.547	-0.163	0.067
-346.435	-42.851	-0.060	-0.030
-345.420	-172.964	0.209	0.006
-344.406	218.847	-0.026	0.041
-343.391	800.000	0.040	-0.127
-342.377	-131.852	0.170	-0.022
-341.362	-200.000	0.051	0.311
-340.348	219.206	-0.093	-0.146
-339.333	-89.894	0.491	0.141
-338.318	-79.971	-0.296	0.098
-337.304	-113.068	0.247	-0.048
-336.289	-133.793	-0.186	-0.023
-335.275	-200.000	0.017	0.125
-334.260	559.146	-0.120	0.286
-333.245	73.108	0.194	-0.200
-332.231	-20.626	0.124	0.075
-331.216	49.678	-0.324	-0.300
-330.202	800.000	0.056	-0.242
-329.187	-170.649	0.192	0.007
-328.172	44.302	-0.198	-0.178
-327.158	91.541	0.043	0.047
-326.143	-64.229	-0.214	0.086
-325.129	131.847	-0.095	0.120
-324.114	-200.000	-0.032	0.171
-323.099	-200.000	0.055	-0.348
-322.085	-200.000	-0.031	-0.466
-321.070	424.991	-0.038	0.081
-320.056	149.154	-0.168	-0.224
-319.041	146.617	0.163	0.215
-318.026	51.566	0.193	0.181
-317.012	800.000	-0.041	-0.132
-315.997	-200.000	0.080	-0.449
-314.983	73.558	-0.302	-0.311
-313.968	62.477	-0.126	-0.124
-312.953	-193.061	0.322	-0.003
-311.939	4.998	-0.246	0.178
-310.924	-116.542	0.061	0.011
-309.910	-200.000	-0.038	0.181
-308.895	-154.744	-0.230	0.015
-307.880	-200.000	-0.014	-0.180
-306.866	800.000	0.160	-0.502
-305.851	-76.861	0.169	0.058
-304.837	800.000	-0.025	-0.070
-303.822	-121.530	-0.234	0.038
-302.807	800.000	0.064	0.247
-301.793	121.154	0.280	0.342
-300.778	-200.000	-0.072	-0.345
-299.764	-140.707	-0.264	0.027
-298.749	234.105	-0.065	0.105
-297.735	-52.140	-0.170	0.077
-296.720	800.000	0.111	0.307
-295.705	-90.555	0.149	-0.042
-294.691	-66.489	-0.193	0.075
-293.676	401.329	-0.075	-0.154
-292.662	-17.487	0.044	-0.027
-291.647	800.000	-0.055	0.231
-290.632	0.042	0.352	-0.246
-289.618	232.908	0.125	0.201
-288.603	-200.000	-0.015	0.183
-287.589	-139.824	0.315	0.033
-286.574	43.223	0.086	0.077
-285.559	-123.943	0.204	-0.032
-284.545	-96.851	-0.260	0.067
-283.530	-3.242	-0.088	0.060
-282.516	-59.790	-0.156	0.066
-281.501	800.000	-0.011	-0.036
-280.486	-48.109	0.346	-0.164
-279.472	-67.671	-0.191	0.074
-278.457	-96.509	-0.172	-0.045
-277.443	371.836	-0.196	0.391
-276.428	72.622	0.118	0.121
-275.413	-23.969	0.163	-0.096
-274.399	-126.417	0.132	-0.019
-273.384	-200.000	0.030	0.231
-272.370	-200.000	-0.020	-0.129
-271.355	-200.000	0.005	0.162
-270.340	25.593	0.072	-0.059
-269.326	-143.460	-0.351	0.033
-268.311	-129.128	-0.267	0.037
-267.297	319.136	-0.135	0.251
-266.282	800.000	-0.052	0.199
-265.267	20.429	-0.059	0.046
-264.253	183.480	-0.310	-0.449
-263.238	-135.167	0.066	-0.008
-262.224	-200.000	-0.025	0.429
-261.209	160.420	0.069	0.094
-260.195	-106.355	0.202	0.044
-259.180	800.000	0.100	0.425
-258.165	74.550	0.124	-0.128
-257.151	217.654	0.202	-0.316
-256.136	-49.441	0.109	-0.051
-255.122	800.000	0.097	0.323
-254.107	7.720	-0.090	0.066
-253.092	-45.893	-0.158	0.077
-252.078	539.142	0.089	0.208
-251.063	-200.000	0.023	0.272
-250.049	24.770	0.081	0.066
-249.034	-200.000	0.060	-0.291
-248.019	-144.614	-0.098	0.009
-247.005	113.185	0.069	-0.082
-245.990	-200.000	-0.002	0.169
-244.976	-57.760	-0.310	-0.133
-243.961	800.000	0.037	-0.109
-242.946	159.226	-0.172	-0.235
-241.932	-132.802	0.468	0.059
-240.917	-67.700	-0.192	0.074
-239.903	-60.748	-0.209	-0.087
-238.888	-200.000	-0.002	-0.251
-237.873	-200.000	-0.037	-0.166
-236.859	-89.461	0.365	-0.105
-235.844	316.627	0.058	0.108
-234.830	19.901	0.088	0.070
-233.815	215.939	-0.044	0.068
-232.800	46.848	0.148	-0.134
-231.786	184.060	-0.107	-0.156
-230.771	179.590	0.100	-0.144
-229.757	620.989	0.102	-0.252
-228.742	-200.000	0.101	-0.576
-227.727	-35.580	0.162	0.086
-226.713	90.777	-0.060	0.066
-225.698	-57.994	-0.235	-0.100
-224.684	800.000	-0.128	-0.387
-223.669	14.259	0.229	0.175
-222.655	-117.318	-0.450	-0.080
-221.640	-34.920	-0.093	-0.050
-220.625	43.393	0.191	0.171
-219.611	800.000	0.075	0.260
-218.596	216.276	0.094	0.146
-217.582	-200.000	0.025	0.152
-216.567	800.000	-0.035	-0.110
-215.552	18.613	0.219	-0.172
-214.538	-62.343	-0.210	-0.086
-213.523	28.480	-0.048	-0.040
-212.509	61.966	0.414	-0.404
-211.494	-43.178	0.124	0.062
-210.479	-200.000	0.010	0.144
-209.465	-46.529	0.430	-0.206
-208.450	-21.088	-0.254	0.152
-207.436	-41.065	0.249	0.126
-206.421	-136.681	-0.184	0.021
-205.406	-50.552	-0.086	-0.040
-204.392	-200.000	0.057	-0.282
-203.377	231.643	0.070	0.112
-202.363	59.548	-0.148	0.143
-201.348	198.550	-0.135	0.203
-200.333	-152.679	0.201	-0.014
-199.319	-39.136	0.134	0.069
-198.304	-142.540	-0.161	-0.015
-197.290	-88.015	0.276	0.081
-196.275	-200.000	0.001	0.262
-195.260	-200.000	-0.004	-0.030
-194.246	-200.000	0.021	0.473
-193.231	-130.749	-0.329	-0.043
-192.217	-105.481	0.132	0.029
-191.202	341.678	-0.143	0.274
-190.187	-200.000	0.005	-0.184
-189.173	338.262	0.183	-0.349
-188.158	74.214	0.168	0.172
-187.144	568.872	-0.078	0.186
-186.129	-131.222	-0.509	-0.066
-185.114	218.183	0.061	-0.095
-184.100	-81.265	0.106	0.034
-183.085	182.760	-0.039	0.056
-182.071	800.000	-0.038	0.107
-181.056	-200.000	-0.091	0.431
-180.042	115.382	-0.166	-0.198
-179.027	440.117	-0.040	-0.086
-178.012	-200.000	0.038	0.307
-176.998	281.279	-0.074	-0.130
-175.983	-38.112	0.106	0.055
-174.969	135.096	-0.133	0.169
-173.954	474.429	-0.060	-0.133
-172.939	-133.940	0.196	0.024
-171.925	-74.277	-0.013	0.004
-170.910	151.723	-0.157	-0.210
-169.896	64.483	0.131	0.129
-168.881	-120.767	0.387	-0.064
-167.866	688.212	-0.007	0.017
-166.852	163.789	-0.203	0.280
-165.837	800.000	0.046	0.139
-164.823	-200.000	0.010	0.099
-163.808	-10.916	-0.244	-0.158
-162.793	800.000	-0.066	0.234
-161.779	-200.000	0.026	0.190
-160.764	74.668	0.244	-0.251
-159.750	800.000	0.036	-0.103
-158.735	-66.931	-0.190	0.073
-157.720	3.602	-0.287	0.205
-156.706	-167.808	0.146	0.006
-155.691	-1.608	0.175	0.121
-154.677	302.638	0.053	-0.095
-153.662	-55.935	0.327	0.143
-152.647	198.993	-0.124	0.185
-151.633	-33.517	0.216	-0.116
-150.618	-200.000	-0.008	-0.305
-149.604	800.000	0.061	-0.202
-148.589	350.246	0.212	-0.408
-147.574	-200.000	0.029	0.149
-146.560	6.283	-0.207	-0.150
-145.545	2.776	0.208	-0.147
-144.531	-200.000	0.018	0.382
-143.516	115.614	-0.251	-0.300
-142.502	627.810	0.009	0.022
-141.487	13.012	-0.178	-0.135
-140.472	-5.678	-0.090	0.061
-139.458	-36.787	0.130	-0.068
-138.443	183.232	0.086	-0.124
-137.429	-63.858	0.258	-0.103
-136.414	-8.429	0.167	0.109
-135.399	444.127	0.062	-0.134
-134.385	800.000	-0.114	-0.330
-133.370	-105.844	0.210	-0.046
-132.356	800.000	0.100	-0.418
-131.341	-29.636	0.370	0.206
-130.326	-139.767	-0.090	-0.009
-129.312	-53.491	-0.407	-0.182
-128.297	-200.000	0.293	-0.001
-127.283	37.038	0.270	-0.233
-126.268	-200.000	0.001	0.075
-125.253	90.905	0.120	-0.132
-124.239	-155.357	-0.345	0.022
-123.224	800.000	-0.085	0.235
-122.210	-200.000	0.003	-0.116
-121.195	800.000	-0.128	0.365
-120.180	261.239	0.130	0.220
-119.166	29.158	0.200	-0.166
-118.151	-200.000	-0.035	0.312
-117.137	22.129	0.107	0.085
-116.122	-69.545	0.044	0.017
-115.107	-44.683	0.117	-0.057
-114.093	-61.080	0.129	0.053
-113.078	800.000	0.081	0.324
-112.064	17.538	0.163	-0.126
-111.049	-105.559	-0.151	0.034
-110.034	161.829	0.073	-0.099
-109.020	-86.165	0.053	-0.016
-108.005	-91.561	-0.138	0.038
-106.991	-200.000	0.000	-0.026
-105.976	-50.070	-0.072	0.033
-104.962	800.000	-0.182	-0.508
-103.947	126.741	0.293	-0.363
-102.932	31.043	0.072	0.060
-101.918	3.099	0.104	0.074
-100.903	-23.839	-0.226	0.132
-99.889	-44.260	0.317	0.155
-98.874	800.000	0.040	0.154
-97.859	-114.489	0.198	-0.037
-96.845	-1.715	0.145	-0.099
-95.830	800.000	0.005	0.018
-94.816	238.221	0.059	0.096
-93.801	-200.000	-0.022	-0.339
-92.786	800.000	0.147	-0.420
-91.772	800.000	0.108	0.296
-90.757	588.248	0.135	-0.324
-89.743	90.321	0.362	0.394
-88.728	-78.579	-0.166	0.055
-87.713	547.677	-0.059	0.137
-86.699	-200.000	-0.025	0.267
-85.684	15.723	0.094	-0.072
-84.670	92.126	-0.181	-0.199
-83.655	-100.597	0.203	0.049
-82.640	-200.000	0.009	-0.098
-81.626	346.976	-0.139	-0.267
-80.611	-200.000	-0.033	0.202
-79.597	406.884	0.076	0.157
-78.582	0.336	-0.117	-0.081
-77.567	76.043	-0.157	-0.162
-76.553	800.000	0.092	-0.260
-75.538	-167.395	0.034	0.001
-74.524	-200.000	-0.009	-0.040
-73.509	-162.893	0.511	0.024
-72.494	398.387	-0.043	0.088
-71.480	-145.495	0.326	0.028
-70.465	-200.000	-0.002	0.210
-69.451	800.000	-0.075	-0.238
-68.436	-137.586	0.522	0.057
-67.422	-109.310	0.345	-0.071
-66.407	800.000	0.026	-0.093
-65.392	-200.000	0.026	0.132
-64.378	660.660	0.065	-0.163
-63.363	-13.995	-0.026	-0.016
-62.349	14.906	-0.293	0.224
-61.334	13.157	-1.533	-1.156
-60.319	26.264	0.872	0.710
-59.305	596.800	-0.436	-1.051
-58.290	180.614	0.915	1.308
-57.276	800.000	0.472	1.314
-56.261	-200.000	131.739	705.561
-55.246	381.451	1650.228	3298.044
-54.232	135.434	2794.907	3538.627
-53.217	94.229	2185.818	2414.939
-52.203	33.206	1697.403	1432.895
-51.188	25.635	1515.979	1228.236
-50.173	23.735	1493.481	1197.166
-49.159	48.931	1567.381	1431.847
-48.144	45.307	1578.620	1416.996
-47.130	25.736	1527.055	1237.704
-46.115	22.866	1510.861	1204.979
-45.100	22.579	1506.952	1199.857
-44.086	22.619	1504.817	1198.383
-43.071	22.553	1503.404	1196.762
-42.057	22.585	1501.170	1195.153
-41.042	22.433	1500.407	1193.472
-40.027	22.522	1498.645	1192.622
-39.013	22.509	1496.648	1190.899
-37.998	22.507	1495.650	1190.043
-36.984	22.479	1494.827	1189.151
-35.969	22.456	1493.661	1188.020
-34.954	22.531	1491.979	1187.140
-33.940	22.583	1490.333	1186.133
-32.925	22.489	1489.697	1184.953
-31.911	22.524	1488.417	1184.122
-30.896	22.664	1486.451	1183.449
-29.881	22.704	1485.648	1183.033
-28.867	22.659	1483.959	1181.335
-27.852	22.705	1482.930	1180.776
-26.838	22.652	1481.846	1179.515
-25.823	22.622	1479.992	1177.790
-24.809	22.626	1478.269	1176.403
-23.794	22.597	1477.204	1175.312
-22.779	22.606	1475.879	1174.275
-21.765	22.565	1475.080	1173.317
-20.750	22.585	1473.760	1172.351
-19.736	22.527	1472.796	1171.157
-18.721	22.590	1471.458	1170.464
-17.706	22.543	1470.618	1169.435
-16.692	22.562	1468.940	1168.182
-15.677	22.545	1468.213	1167.446
-14.663	22.600	1467.593	1167.269
-13.648	22.457	1466.908	1165.734
-12.633	22.564	1465.416	1165.203
-11.619	22.623	1464.659	1164.946
-10.604	22.539	1464.251	1164.024
-9.590	22.527	1463.210	1163.072
-8.575	22.510	1462.658	1162.469
-7.560	22.590	1461.771	1162.246
-6.546	22.601	1460.460	1161.231
-5.531	22.499	1459.719	1159.925
-4.517	22.599	1458.202	1159.334
-3.502	22.577	1457.586	1158.651
-2.487	22.590	1456.542	1157.864
-1.473	22.593	1455.597	1157.086
-0.458	22.603	1453.913	1155.766
0.556	21.503	1443.703	1143.273
1.571	18.112	1419.187	1101.939
2.586	14.133	1357.874	1029.651
3.600	12.601	1273.623	956.781
4.615	11.640	1230.603	918.982
5.629	10.302	1174.502	869.823
6.644	5.319	1095.195	786.007
7.659	1.330	1059.970	741.211
8.673	0.781	1054.643	734.754
9.688	0.641	1051.692	731.957
10.702	0.760	1050.071	731.337
11.717	0.738	1047.549	729.410
12.731	2.356	1047.914	737.405
13.746	7.885	1055.875	769.737
14.761	14.104	1064.108	805.897
15.775	16.988	1067.381	822.306
16.790	17.025	1065.960	821.316
17.804	15.949	1064.176	814.666
18.819	15.067	1062.606	809.131
19.834	14.696	1060.647	805.779
20.848	14.395	1059.637	803.489
21.863	14.237	1059.279	802.386
22.877	14.014	1057.701	800.044
23.892	13.807	1057.235	798.625
24.907	13.684	1056.519	797.422
25.921	13.672	1055.778	796.734
26.936	13.739	1055.197	796.546
27.950	13.758	1054.304	795.896
28.965	13.804	1053.746	795.623
29.980	13.723	1052.514	794.235
30.994	13.918	1051.698	794.484
32.009	13.967	1050.966	794.095
33.023	13.870	1050.498	793.204
34.038	13.929	1049.748	792.848
35.053	13.818	1048.898	791.609
36.067	13.883	1047.454	790.759
37.082	13.861	1047.357	790.512
38.096	13.879	1046.029	789.524
39.111	13.948	1045.310	789.238
40.126	13.939	1043.991	788.130
41.140	13.922	1043.119	787.324
42.155	13.766	1042.237	785.846
43.169	13.745	1041.768	785.325
44.184	13.744	1040.519	784.310
45.199	13.771	1039.356	783.491
46.213	13.775	1038.273	782.623
47.228	13.707	1037.504	781.657
48.242	13.848	1036.221	781.281
49.257	13.723	1035.572	780.139
50.271	13.865	1034.574	779.981
51.286	13.862	1033.694	779.236
52.301	13.841	1032.732	778.344
53.315	13.955	1031.853	778.147
54.330	13.818	1031.155	776.910
55.344	13.813	1030.650	776.435
56.359	13.896	1029.379	775.799
57.374	13.748	1028.863	774.650
58.388	13.807	1027.856	774.099
59.403	13.818	1026.917	773.375
60.417	13.711	1026.339	772.370
61.432	13.802	1025.477	772.078
62.447	13.653	1025.027	770.978
63.461	13.693	1023.835	770.201
64.476	13.754	1022.996	769.784
65.490	13.826	1022.336	769.551
66.505	13.723	1021.608	768.459
67.520	13.606	1021.278	767.600
68.534	13.735	1020.062	767.214
69.549	13.788	1019.156	766.711
70.563	13.722	1018.287	765.686
71.578	13.773	1017.864	765.533
72.593	13.731	1016.942	764.581
73.607	13.442	1016.367	762.749
74.622	13.625	1015.236	762.674
75.636	13.647	1014.002	761.781
76.651	13.667	1013.013	761.063
77.666	13.622	1012.279	760.239
78.680	13.690	1011.539	759.926
79.695	13.751	1010.930	759.683
80.709	13.711	1010.465	759.079
81.724	13.715	1009.738	758.487
82.739	13.711	1008.869	757.749
83.753	13.735	1008.682	757.649
84.768	13.742	1007.356	756.619
85.782	13.883	1006.698	756.699
86.797	14.007	1005.622	756.388
87.812	13.857	1005.165	755.298
88.826	13.864	1004.514	754.771
89.841	13.864	1003.201	753.718
90.855	13.838	1002.745	753.192
91.870	13.830	1002.331	752.776
92.884	13.925	1001.317	752.379
93.899	13.963	1000.624	751.964
94.914	13.979	999.285	750.965
95.928	14.047	998.749	750.804
96.943	14.040	997.805	749.994
97.957	13.950	997.468	749.269
98.972	14.062	996.239	748.786
99.987	13.869	995.832	747.542
101.001	13.990	995.293	747.615
102.016	14.099	994.327	747.315
103.030	13.907	993.801	745.990
104.045	13.945	992.422	745.060
105.060	14.064	991.402	744.760
106.074	13.977	990.176	743.384
107.089	13.945	989.385	742.584
108.103	13.951	989.025	742.272
109.118	13.851	987.977	740.974
110.133	13.869	987.097	740.329
111.147	13.872	986.130	739.552
112.162	13.807	985.534	738.750
113.176	13.786	984.947	738.150
114.191	13.832	984.031	737.604
115.206	13.888	983.162	737.136
116.220	13.893	981.838	736.102
117.235	13.838	981.460	735.509
118.249	13.808	980.392	734.511
119.264	13.887	979.407	734.059
120.279	13.842	979.121	733.580
121.293	13.899	978.009	732.933
122.308	13.898	977.402	732.407
123.322	13.915	976.339	731.620
124.337	13.816	975.332	730.368
125.352	13.846	974.305	729.666
126.366	13.819	973.920	729.191
127.381	13.832	972.236	727.924
128.395	13.870	970.882	727.012
129.410	13.960	969.708	726.465
130.424	13.927	969.158	725.844
131.439	13.868	968.716	725.190
132.454	13.845	967.713	724.276
133.468	13.820	966.899	723.493
134.483	14.025	966.190	723.789
135.497	13.849	966.036	722.844
136.512	13.831	964.947	721.889
137.527	13.751	964.466	721.117
138.541	13.852	963.402	720.694
139.556	13.942	962.744	720.530
140.570	14.014	961.898	720.146
141.585	13.914	961.376	719.258
142.600	13.973	960.770	718.996
143.614	13.978	959.748	718.190
144.629	13.933	959.388	717.659
145.643	13.935	958.402	716.869
146.658	14.007	957.552	716.482
147.673	14.037	956.566	715.809
148.687	14.023	955.658	715.006
149.702	13.896	954.906	713.834
150.716	13.949	953.882	713.234
151.731	13.938	953.151	712.575
152.746	14.007	952.526	712.341
153.760	14.105	951.838	712.183
154.775	13.997	951.388	711.323
155.789	14.153	949.897	710.811
156.804	14.176	949.572	710.602
157.819	14.045	949.158	709.669
158.833	14.259	947.577	709.337
159.848	14.170	947.461	708.809
160.862	14.264	946.872	708.706
161.877	14.226	945.779	707.662
162.892	14.106	944.864	706.409
163.906	14.125	944.242	705.959
164.921	14.106	943.510	705.268
165.935	14.211	942.299	704.745
166.950	14.133	941.582	703.816
167.964	14.186	940.565	703.221
168.979	14.222	939.534	702.537
169.994	14.298	938.139	701.754
171.008	14.174	938.061	701.108
172.023	14.228	937.025	700.501
173.037	14.104	936.462	699.497
174.052	14.286	935.580	699.539
175.067	14.310	934.724	698.938
176.081	14.239	933.985	698.025
177.096	14.139	933.518	697.197
178.110	14.264	932.416	696.835
179.125	14.280	931.774	696.363
180.140	14.378	930.757	695.950
181.154	14.214	930.234	694.811
182.169	14.305	929.696	694.729
183.183	14.340	929.025	694.313
184.198	14.469	928.117	694.108
185.213	14.410	927.746	693.526
186.227	14.439	927.122	693.117
187.242	14.483	926.340	692.652
188.256	14.381	925.938	691.867
189.271	14.405	925.106	691.283
190.286	14.458	924.277	690.826
191.300	14.486	923.335	690.174
192.315	14.425	922.635	689.338
193.329	14.428	922.029	688.834
194.344	14.366	921.424	688.067
195.359	14.461	920.835	687.959
196.373	14.453	920.303	687.469
197.388	14.577	919.637	687.421
198.402	14.587	919.254	687.116
199.417	14.484	919.369	686.717
200.432	14.639	918.613	686.727
201.446	14.570	917.945	685.882
202.461	14.606	917.461	685.608
203.475	14.769	917.081	685.936
204.490	14.741	916.080	685.009
205.504	14.737	915.353	684.391
206.519	14.724	914.776	683.842
207.534	14.708	914.097	683.209
208.548	14.764	913.172	682.689
209.563	14.718	912.654	682.053
210.577	14.719	912.080	681.565
211.592	14.871	910.969	681.295
212.607	14.778	910.429	680.451
213.621	14.946	909.964	680.727
214.636	14.853	909.283	679.781
215.650	14.842	908.685	679.228
216.665	14.732	908.256	678.400
217.680	14.903	907.664	678.592
218.694	14.960	907.099	678.342
219.709	15.038	906.144	677.883
220.723	14.852	906.082	677.024
221.738	14.998	905.054	676.789
222.753	14.911	904.641	676.067
223.767	15.019	903.727	675.758
224.782	15.009	902.867	675.016
225.796	15.097	902.098	674.736
226.811	14.940	901.481	673.581
227.826	15.078	900.690	673.487
228.840	15.062	900.440	673.176
229.855	15.091	899.404	672.460
230.869	14.977	898.998	671.637
231.884	15.070	898.037	671.234
232.899	15.016	897.699	670.704
233.913	15.002	897.018	670.083
234.928	15.112	896.166	669.824
235.942	15.066	895.353	668.973
236.957	15.169	894.572	668.744
237.972	15.090	894.508	668.319
238.986	15.015	893.864	667.481
240.001	15.096	893.014	667.112
241.015	14.926	892.528	666.012
242.030	15.204	891.568	666.340
243.045	15.271	891.137	666.228
244.059	15.144	890.752	665.375
245.074	15.234	889.612	664.822
246.088	15.091	889.389	664.031
247.103	15.088	888.791	663.513
248.117	15.186	888.006	663.255
249.132	15.266	887.116	662.850
250.147	15.357	886.580	662.750
251.161	15.370	885.962	662.280
252.176	15.468	885.180	662.021
253.190	15.396	884.782	661.384
254.205	15.563	884.061	661.443
255.220	15.603	883.411	661.057
256.234	15.489	882.894	660.162
257.249	15.653	881.905	660.009
258.263	15.589	881.744	659.580
259.278	15.654	881.045	659.251
260.293	15.613	880.519	658.638
261.307	15.702	879.702	658.319
262.322	15.840	878.685	658.037
263.336	15.678	878.627	657.304
264.351	15.626	878.377	656.854
265.366	15.797	877.661	656.929
266.380	15.687	877.351	656.211
267.395	15.707	876.751	655.782
268.409	15.821	875.532	655.255
269.424	15.741	874.731	654.287
270.439	15.779	874.113	653.916
271.453	15.862	872.912	653.280
272.468	15.967	872.159	653.066
273.482	15.768	871.725	651.911
274.497	15.781	871.416	651.674
275.512	15.777	870.367	650.817
276.526	15.786	869.882	650.429
277.541	15.971	869.154	650.545
278.555	15.791	868.969	649.651
279.570	15.929	868.456	649.743
280.585	16.085	867.745	649.754
281.599	15.949	867.243	648.799
282.614	15.965	866.283	648.084
283.628	16.041	865.891	648.024
284.643	15.975	865.411	647.355
285.657	16.032	864.747	647.021
286.672	16.089	863.904	646.550
287.687	16.091	863.915	646.510
288.701	15.987	863.413	645.680
289.716	16.143	862.786	645.748
290.730	16.161	861.805	645.027
291.745	16.064	861.222	644.163
292.760	16.187	860.542	644.066
293.774	16.169	860.032	643.561
294.789	16.303	859.141	643.345
295.803	16.163	859.108	642.731
296.818	16.240	858.193	642.285
297.833	16.092	857.891	641.436
298.847	16.307	856.799	641.381
299.862	16.253	856.454	640.861
300.876	16.316	855.561	640.374
301.891	16.309	854.786	639.713
302.906	16.330	854.400	639.445
303.920	16.341	853.723	638.923
304.935	16.247	853.487	638.335
305.949	16.429	852.525	638.248
306.964	16.303	851.908	637.253
307.979	16.481	851.036	637.215
308.993	16.517	850.190	636.663
310.008	16.303	850.539	636.062
311.022	16.430	849.869	635.979
312.037	16.424	848.977	635.233
313.052	16.548	848.481	635.273
314.066	16.477	848.315	634.827
315.081	16.422	847.304	633.808
316.095	16.498	846.842	633.688
317.110	16.469	846.221	633.061
318.125	16.457	845.636	632.521
319.139	16.280	845.996	632.073
320.154	16.301	845.322	631.590
321.168	16.582	844.279	631.805
322.183	16.526	843.804	631.185
323.197	16.502	843.502	630.814
324.212	16.468	842.710	630.038
325.227	16.565	841.942	629.770
326.241	16.569	841.594	629.469
327.256	16.745	840.646	629.360
328.270	16.618	840.556	628.765
329.285	16.526	840.134	628.051
330.300	16.535	839.327	627.424
331.314	16.612	838.963	627.382
332.329	16.692	838.122	626.994
333.343	16.589	837.554	626.135
334.358	16.639	837.114	625.934
335.373	16.734	836.393	625.691
336.387	16.832	835.830	625.577
337.402	16.625	835.377	624.417
338.416	16.708	835.177	624.519
339.431	16.845	834.006	624.094
340.446	16.830	833.840	623.860
341.460	16.947	832.989	623.596
342.475	16.940	832.568	623.201
343.489	16.930	831.698	622.456
344.504	16.928	831.497	622.244
345.519	17.175	830.853	622.614
346.533	17.061	830.340	621.755
347.548	16.999	830.187	621.361
348.562	17.000	829.051	620.458
349.577	17.071	828.860	620.519
350.592	17.016	828.042	619.652
351.606	16.756	828.285	618.829
352.621	16.829	827.879	618.736
353.635	17.048	827.491	619.191
354.650	16.972	826.965	618.466
355.665	16.993	826.013	617.775
356.679	16.985	825.923	617.623
357.694	17.109	825.283	617.542
358.708	17.036	824.616	616.723
359.723	17.078	824.146	616.469
360.738	17.100	823.403	615.941
361.752	17.123	822.918	615.606
362.767	17.080	822.972	615.435
363.781	17.189	822.196	615.195
364.796	17.105	822.137	614.794
365.810	17.140	821.247	614.200
366.825	17.424	820.875	614.892
367.840	17.484	820.496	614.771
368.854	17.307	820.344	613.965
369.869	17.391	819.647	613.693
370.883	17.352	818.732	612.810
371.898	17.293	818.700	612.521
372.913	17.372	817.856	612.120
373.927	17.318	817.428	611.551
374.942	17.318	816.520	610.819
375.956	17.459	815.905	610.811
376.971	17.411	815.530	610.301
377.986	17.480	815.019	610.114
379.000	17.527	814.509	609.845
380.015	17.578	814.341	609.848
381.029	17.609	813.462	609.248
382.044	17.551	812.744	608.448
383.059	17.547	812.125	607.916
384.073	17.749	811.471	608.093
385.088	17.795	810.892	607.770
386.102	17.615	810.845	607.039
387.117	17.618	809.941	606.320
388.132	17.655	809.616	606.156
389.146	17.571	809.131	605.438
390.161	17.687	808.988	605.692
391.175	17.664	808.721	605.357
392.190	17.804	808.136	605.360
393.205	17.681	808.117	604.857
394.219	17.623	807.391	604.053
395.234	17.595	806.918	603.548
396.248	17.717	806.482	603.599
397.263	17.709	806.082	603.218
398.278	17.536	805.182	601.881
399.292	17.692	804.932	602.191
400.307	17.676	804.738	601.937
401.321	17.745	804.041	601.606
402.336	17.698	803.696	601.128
403.350	17.850	803.000	601.091
404.365	17.826	802.785	600.790
405.380	17.852	802.274	600.448
406.394	17.807	802.048	600.068
407.409	17.948	801.332	599.972
408.423	17.931	800.946	599.573
409.438	17.947	800.360	599.138
410.453	17.959	800.202	599.009
411.467	18.003	799.809	598.815
412.482	18.061	798.881	598.270
413.496	18.141	798.397	598.135
414.511	18.159	798.040	597.875
415.526	18.076	797.943	597.460
416.540	18.092	797.472	597.111
417.555	18.101	796.993	596.732
418.569	18.090	796.528	596.292
419.584	18.076	796.390	596.087
420.599	18.098	795.751	595.633
421.613	115.878	1298.446	1491.300
422.628	99.880	1371.653	1491.384
