DTS Sentinel unit serial number:	SN413079Multiplexer serial number:	ORYXHardware model number:	OX4-SRSoftware version number:	ORYX F/W v4.00 Oryx Data Collector v3.7.2.0data status	okinstallation	princeton_trtdifferential loss correction	single-endedforward channel	channel 3reverse channel	N/Adate	2019/09/12time	18:38:04forward acquisition time	15.00reverse acquisition time	0.00gamma	496.2192k internal	0.2318k external	0.2318temperature offset calibration	1.0096default loss term (dB/km)	0.3790temperature slope calibration	1.0000multiplexer offset coefficient	1.0000multiplexer slope coefficient	1.0000fibre end	0.00T internal ref (°C)	33.12T ext. ref 1 (°C)	2.97T ext. ref 2 (°C)	27.67length (m)	temperature (°C)	Stokes	anti-Stokes-747.200	127.918	0.484	0.623
-746.185	-53.725	-0.085	-0.039
-745.171	313.223	-0.204	0.388
-744.156	-87.817	0.846	0.258
-743.142	101.441	0.199	-0.235
-742.127	282.277	-0.370	-0.672
-741.112	100.263	0.363	0.426
-740.098	-98.165	0.593	-0.154
-739.083	2.046	-0.564	0.412
-738.069	172.007	-0.243	0.354
-737.054	-87.425	0.241	0.074
-736.039	321.149	-0.356	-0.685
-735.025	-63.767	0.339	-0.140
-734.010	800.000	-0.100	-0.356
-732.996	-200.000	-0.039	-0.475
-731.981	-200.000	0.023	0.174
-730.966	-200.000	0.069	-0.647
-729.952	-200.000	0.019	0.343
-728.937	131.196	-0.579	0.752
-727.923	-136.802	-0.352	-0.041
-726.908	256.528	-0.264	-0.459
-725.894	-79.014	-0.826	-0.284
-724.879	-7.535	0.292	-0.200
-723.864	-172.497	-0.746	0.024
-722.850	-19.503	0.420	-0.263
-721.835	305.711	0.121	0.228
-720.821	-106.207	0.389	0.088
-719.806	268.160	0.320	-0.567
-718.791	221.290	0.374	0.607
-717.777	157.530	0.158	-0.221
-716.762	800.000	-0.180	-0.689
-715.748	-200.000	-0.103	-1.077
-714.733	178.786	-0.294	-0.434
-713.718	174.091	-0.451	0.659
-712.704	-184.846	-1.006	0.016
-711.689	43.426	-0.434	0.401
-710.675	24.042	0.638	0.532
-709.660	-200.000	-0.099	-0.505
-708.645	-150.208	-0.958	0.075
-707.631	159.398	0.300	-0.421
-706.616	39.973	0.172	-0.156
-705.602	-37.543	-0.774	-0.417
-704.587	104.623	-0.188	-0.224
-703.572	358.567	0.274	-0.553
-702.558	-74.296	0.298	-0.109
-701.543	98.397	-0.113	0.131
-700.529	-198.102	0.120	0.001
-699.514	166.224	-0.088	-0.126
-698.499	-200.000	0.122	-0.643
-697.485	-73.759	-0.241	-0.089
-696.470	-76.762	0.493	-0.174
-695.456	27.686	0.345	-0.293
-694.441	-200.000	-0.010	0.302
-693.426	-13.484	-0.473	-0.310
-692.412	-200.000	-0.177	-0.960
-691.397	24.814	-0.390	-0.326
-690.383	-130.015	-0.707	0.098
-689.368	-200.000	0.002	-0.216
-688.354	-88.749	0.291	0.087
-687.339	-72.563	-0.430	-0.160
-686.324	-72.089	-0.825	0.309
-685.310	-94.358	0.362	-0.100
-684.295	800.000	-0.095	0.285
-683.281	-200.000	-0.078	-0.370
-682.266	109.986	-0.486	-0.589
-681.251	90.530	-0.232	-0.263
-680.237	-200.000	0.008	0.595
-679.222	-95.902	-0.688	-0.185
-678.208	253.534	-0.326	-0.562
-677.193	-200.000	-0.012	-0.392
-676.178	125.748	0.313	-0.399
-675.164	80.626	-0.442	0.481
-674.149	62.605	-0.327	-0.330
-673.135	-8.196	0.089	0.061
-672.120	-10.951	0.301	0.201
-671.105	800.000	-0.216	0.745
-670.091	-200.000	0.067	0.544
-669.076	-200.000	0.058	-0.308
-668.062	-200.000	-0.021	0.123
-667.047	-200.000	0.058	0.806
-666.032	800.000	-0.284	-0.944
-665.018	-70.745	-0.724	-0.276
-664.003	-58.789	-1.530	-0.668
-662.989	-106.532	-0.769	0.173
-661.974	-169.058	0.258	-0.010
-660.959	339.257	-0.339	0.666
-659.945	-173.072	0.632	0.020
-658.930	-200.000	-0.061	-0.361
-657.916	-200.000	0.033	-0.211
-656.901	-173.749	-0.554	0.017
-655.886	-131.087	0.219	0.029
-654.872	-134.263	-0.171	0.021
-653.857	389.264	0.562	-1.175
-652.843	-200.000	-0.375	-0.000
-651.828	-31.554	0.281	-0.159
-650.814	290.646	0.168	0.308
-649.799	-101.758	0.575	0.141
-648.784	676.039	0.156	-0.408
-647.770	95.431	-0.212	-0.243
-646.755	-43.104	-0.362	0.185
-645.741	194.052	0.198	-0.303
-644.726	15.379	0.079	0.063
-643.711	207.520	-0.166	-0.261
-642.697	-126.045	0.450	-0.068
-641.682	-133.452	-0.349	-0.044
-640.668	-92.228	-0.492	-0.140
-639.653	101.314	-0.160	-0.188
-638.638	-36.120	-0.133	0.072
-637.624	-200.000	-0.033	0.387
-636.609	503.898	0.282	-0.657
-635.595	291.393	0.302	0.554
-634.580	386.847	0.108	-0.225
-633.565	28.802	0.643	0.549
-632.551	800.000	-0.006	-0.026
-631.536	-195.707	0.471	-0.003
-630.522	-153.577	0.096	0.007
-629.507	-41.832	-0.220	0.114
-628.492	-200.000	0.112	-0.575
-627.478	157.003	-0.589	-0.820
-626.463	128.261	0.086	-0.111
-625.449	800.000	-0.167	0.550
-624.434	-123.837	-0.107	-0.017
-623.419	800.000	-0.067	-0.200
-622.405	145.119	-0.407	0.549
-621.390	-77.383	0.608	0.213
-620.376	-84.047	0.489	0.156
-619.361	26.435	-0.700	0.589
-618.346	428.920	0.197	-0.430
-617.332	-61.991	-0.545	-0.229
-616.317	45.417	-0.900	0.837
-615.303	78.382	0.599	-0.645
-614.288	800.000	0.208	-0.737
-613.273	294.120	0.061	-0.111
-612.259	-71.706	1.418	0.533
-611.244	-200.000	-0.010	-0.262
-610.230	-81.401	-0.429	-0.142
-609.215	-94.421	0.480	0.132
-608.201	800.000	0.171	0.673
-607.186	-200.000	-0.036	0.691
-606.171	-145.966	0.386	-0.034
-605.157	89.456	0.455	-0.510
-604.142	18.895	0.380	-0.307
-603.128	430.499	0.432	-0.942
-602.113	132.323	-0.301	0.390
-601.098	63.263	-0.815	0.822
-600.084	-114.088	-0.736	-0.143
-599.069	800.000	-0.093	-0.262
-598.055	-56.181	-0.657	0.294
-597.040	70.714	0.387	-0.403
-596.025	28.035	0.130	0.110
-595.011	-41.797	-0.766	0.396
-593.996	-81.275	-0.242	0.080
-592.982	800.000	0.137	0.568
-591.967	30.175	0.480	0.412
-590.952	346.775	0.367	0.726
-589.938	585.713	0.184	0.455
-588.923	0.071	0.667	0.478
-587.909	-44.059	-0.671	0.339
-586.894	-89.176	-0.793	-0.235
-585.879	-43.930	-0.328	-0.166
-584.865	644.882	-0.109	0.281
-583.850	-78.282	1.071	0.370
-582.836	-81.095	-0.675	-0.225
-581.821	800.000	-0.274	0.952
-580.806	-78.341	0.721	0.249
-579.792	133.784	-0.255	0.331
-578.777	-101.386	-0.490	0.120
-577.763	800.000	0.166	0.508
-576.748	-200.000	-0.054	-0.325
-575.733	308.410	0.331	0.621
-574.719	800.000	0.139	-0.457
-573.704	800.000	0.087	0.339
-572.690	280.818	0.156	0.281
-571.675	-146.329	0.684	0.060
-570.661	181.077	-0.139	-0.205
-569.646	800.000	0.173	0.616
-568.631	-200.000	-0.002	-0.321
-567.617	79.569	0.737	0.794
-566.602	316.866	0.177	0.336
-565.588	-200.000	-0.147	-0.735
-564.573	544.667	0.172	-0.413
-563.558	157.319	-0.468	0.651
-562.544	-200.000	-0.062	-0.829
-561.529	395.703	0.328	-0.687
-560.515	-200.000	0.066	-0.313
-559.500	-200.000	-0.129	0.657
-558.485	93.409	-0.827	-0.941
-557.471	-200.000	0.209	-0.995
-556.456	-34.993	0.573	-0.314
-555.442	-83.698	-1.118	0.359
-554.427	40.049	0.335	0.302
-553.412	-47.370	0.145	-0.071
-552.398	800.000	-0.057	-0.236
-551.383	-53.880	1.095	0.501
-550.369	-132.758	0.383	-0.049
-549.354	-180.440	-0.663	0.014
-548.339	-9.201	-0.515	-0.346
-547.325	-116.824	-0.878	-0.162
-546.310	14.563	-0.594	-0.466
-545.296	-21.181	-0.482	-0.296
-544.281	-72.202	-0.717	0.267
-543.266	506.720	0.188	-0.437
-542.252	-162.249	-0.732	-0.037
-541.237	-81.150	-0.350	0.116
-540.223	-200.000	-0.076	0.571
-539.208	138.416	-0.291	0.383
-538.193	-200.000	0.036	-0.174
-537.179	-76.406	-0.340	-0.120
-536.164	100.401	-0.526	-0.613
-535.150	-200.000	-0.047	-0.683
-534.135	800.000	0.293	-1.055
-533.121	-124.236	0.552	-0.087
-532.106	-31.627	0.940	0.530
-531.091	-119.607	0.150	-0.026
-530.077	-40.337	-0.626	-0.326
-529.062	-25.967	-0.326	0.193
-528.048	-117.722	0.651	0.118
-527.033	-116.258	0.389	-0.072
-526.018	54.563	-0.511	-0.494
-525.004	-171.203	0.935	0.032
-523.989	800.000	0.234	-0.951
-522.975	740.902	-0.511	1.377
-521.960	379.266	0.202	0.416
-520.945	-119.654	0.509	-0.088
-519.931	-8.336	0.085	0.057
-518.916	234.946	0.334	-0.552
-517.902	202.609	-0.401	-0.621
-516.887	-153.085	-0.968	-0.068
-515.872	-200.000	-0.020	0.524
-514.858	-200.000	-0.050	-0.259
-513.843	107.796	0.093	0.111
-512.829	-37.166	-0.695	-0.373
-511.814	174.037	-0.229	0.332
-510.799	-186.054	0.072	0.001
-509.785	87.597	0.488	-0.542
-508.770	212.566	0.357	-0.564
-507.756	35.679	-0.163	0.144
-506.741	-200.000	0.002	-0.252
-505.726	-200.000	-0.037	0.211
-504.712	599.673	0.251	0.624
-503.697	-200.000	-0.028	0.381
-502.683	-155.488	-0.482	0.031
-501.668	90.430	-0.395	0.443
-500.653	-200.000	0.024	-0.189
-499.639	-200.000	0.019	-0.400
-498.624	371.141	0.246	0.500
-497.610	-200.000	0.054	-0.342
-496.595	800.000	0.043	0.164
-495.581	800.000	0.176	0.709
-494.566	-200.000	-0.022	0.250
-493.551	184.190	-0.297	0.441
-492.537	-200.000	1.630	-0.005
-491.522	256.112	-0.117	0.202
-490.508	-80.077	0.201	-0.068
-489.493	800.000	-0.030	-0.117
-488.478	-83.718	0.904	0.289
-487.464	-200.000	0.085	1.143
-486.449	800.000	-0.084	-0.301
-485.435	-200.000	0.019	-0.350
-484.420	-200.000	0.061	-0.288
-483.405	-200.000	-0.033	1.041
-482.391	21.046	-0.781	-0.634
-481.376	240.953	-0.371	0.620
-480.362	-200.000	0.116	-0.889
-479.347	-65.946	0.049	0.019
-478.332	800.000	0.235	0.685
-477.318	-200.000	0.014	-0.217
-476.303	81.264	0.537	0.581
-475.289	29.888	-0.385	-0.329
-474.274	31.100	-0.371	-0.319
-473.259	-35.834	0.433	0.235
-472.245	-200.000	0.045	-0.880
-471.230	-77.865	0.905	-0.313
-470.216	63.873	0.217	-0.219
-469.201	-131.925	0.507	0.066
-468.186	172.329	-0.269	-0.388
-467.172	111.688	-0.566	-0.684
-466.157	-200.000	0.018	0.535
-465.143	471.068	-0.283	-0.637
-464.128	-25.923	0.443	-0.261
-463.113	7.255	-0.479	0.358
-462.099	-192.716	0.373	-0.003
-461.084	-157.274	-0.282	-0.017
-460.070	325.808	-0.203	0.388
-459.055	745.336	-0.146	0.394
-458.040	191.085	-0.289	0.435
-457.026	-109.739	0.526	-0.111
-456.011	-200.000	0.019	-0.363
-454.997	-15.957	-0.488	-0.311
-453.982	-90.900	0.679	0.196
-452.968	546.740	-0.098	-0.234
-451.953	-106.772	-0.248	0.055
-450.938	-75.632	0.974	0.346
-449.924	172.002	-0.176	-0.252
-448.909	198.947	0.316	-0.484
-447.895	-200.000	0.133	-0.796
-446.880	-199.096	-0.423	0.002
-445.865	187.238	-0.345	0.514
-444.851	-200.000	0.045	0.645
-443.836	800.000	0.075	-0.215
-442.822	-55.023	-0.249	-0.112
-441.807	196.109	0.397	-0.605
-440.792	-44.859	0.251	0.125
-439.778	-64.498	0.350	-0.142
-438.763	-2.529	-0.277	-0.194
-437.749	-200.000	0.022	0.369
-436.734	-83.885	-1.081	-0.344
-435.719	-142.852	0.419	0.041
-434.705	128.066	-0.072	-0.092
-433.690	800.000	-0.073	-0.257
-432.676	47.953	-0.266	-0.248
-431.661	-200.000	0.592	0.001
-430.646	159.888	-0.590	0.822
-429.632	175.294	-0.201	0.292
-428.617	-151.806	-0.027	0.002
-427.603	29.891	0.269	0.229
-426.588	-200.000	-0.056	-0.416
-425.573	-200.000	0.023	-0.143
-424.559	-50.217	0.541	-0.256
-423.544	174.330	0.425	-0.613
-422.530	800.000	-0.062	-0.241
-421.515	610.156	-0.136	0.340
-420.500	-200.000	0.028	0.436
-419.486	-200.000	0.041	0.279
-418.471	9.165	0.492	0.372
-417.457	-40.375	-0.537	-0.279
-416.442	800.000	-0.158	-0.565
-415.428	-102.924	0.458	-0.109
-414.413	5.789	-0.905	-0.669
-413.398	183.845	-0.554	0.819
-412.384	75.950	0.260	-0.275
-411.369	800.000	-0.205	-0.635
-410.355	-157.880	0.518	0.031
-409.340	-86.420	0.392	0.120
-408.325	-99.057	0.781	0.198
-407.311	254.500	-0.283	0.483
-406.296	-200.000	0.083	0.671
-405.282	-82.185	0.352	-0.115
-404.267	61.111	-0.597	0.592
-403.252	277.175	-0.257	-0.457
-402.238	149.786	-0.352	-0.477
-401.223	208.311	-0.170	-0.265
-400.209	-46.625	0.058	-0.028
-399.194	-200.000	0.050	-0.226
-398.179	11.436	-0.311	-0.238
-397.165	-129.022	0.337	0.047
-396.150	800.000	-0.080	-0.223
-395.136	-200.000	-0.055	0.794
-394.121	116.655	0.656	0.803
-393.106	7.181	0.352	-0.263
-392.092	-14.763	0.140	-0.090
-391.077	-127.808	-0.532	0.077
-390.063	161.632	0.401	0.561
-389.048	800.000	0.094	0.365
-388.033	-44.748	0.056	-0.028
-387.019	800.000	-0.083	0.234
-386.004	528.631	0.063	-0.148
-384.990	15.430	-0.177	0.139
-383.975	-200.000	0.018	-0.090
-382.960	-149.189	0.197	0.016
-381.946	-200.000	-0.044	-0.218
-380.931	396.925	0.380	-0.793
-379.917	-53.096	-0.496	-0.227
-378.902	95.305	-0.591	0.672
-377.888	350.102	-0.282	-0.556
-376.873	543.439	-0.109	-0.260
-375.858	730.854	-0.207	0.552
-374.844	-83.698	-0.495	-0.158
-373.829	-116.438	0.182	-0.034
-372.815	648.041	-0.286	-0.730
-371.800	6.967	-0.471	0.350
-370.785	-200.000	-0.070	0.623
-369.771	-200.000	-0.018	0.777
-368.756	-69.011	-0.511	0.196
-367.742	-104.395	0.849	-0.196
-366.727	-200.000	0.029	0.233
-365.712	-119.166	-0.195	-0.034
-364.698	254.829	0.469	0.801
-363.683	416.207	-0.172	0.365
-362.669	-61.919	-0.744	-0.310
-361.654	800.000	-0.083	-0.257
-360.639	18.732	-0.031	-0.025
-359.625	-200.000	0.084	0.473
-358.610	100.195	-0.369	0.427
-357.596	85.311	0.360	0.394
-356.581	104.655	-0.696	-0.817
-355.566	800.000	0.225	0.647
-354.552	-60.718	-0.857	-0.362
-353.537	-151.677	0.415	0.031
-352.523	-200.000	-0.040	-0.182
-351.508	181.074	-0.547	-0.802
-350.493	-30.953	-0.165	-0.093
-349.479	-200.000	-0.039	0.254
-348.464	378.636	0.206	-0.419
-347.450	118.776	-0.845	-1.041
-346.435	262.732	-0.557	0.964
-345.420	-200.000	-0.025	-0.403
-344.406	-52.908	-0.948	-0.435
-343.391	-53.243	-0.573	0.262
-342.377	197.780	0.699	-1.063
-341.362	-30.114	0.467	0.265
-340.348	-39.244	0.306	-0.160
-339.333	-98.900	0.936	0.237
-338.318	-34.411	0.236	-0.129
-337.304	114.344	-0.265	0.322
-336.289	-107.600	0.431	0.094
-335.275	107.916	0.425	-0.504
-334.260	-200.000	-0.014	0.184
-333.245	-122.446	0.278	-0.045
-332.231	-64.731	0.706	0.285
-331.216	-200.000	-0.140	0.862
-330.202	130.353	-0.178	0.227
-329.187	-45.582	0.091	0.045
-328.172	-132.017	0.538	-0.070
-327.158	-137.030	-0.371	0.042
-326.143	84.756	-0.220	0.240
-325.129	319.638	-0.100	0.189
-324.114	-58.596	0.314	-0.135
-323.099	-26.945	0.078	0.045
-322.085	675.752	-0.131	-0.339
-321.070	-79.727	1.081	-0.363
-320.056	-69.878	0.503	-0.191
-319.041	-0.834	0.207	0.146
-318.026	-200.000	0.031	-0.273
-317.012	-79.665	0.161	-0.054
-315.997	-200.000	0.209	0.975
-314.983	800.000	0.143	-0.487
-313.968	-155.830	-0.181	0.011
-312.953	-156.810	0.142	-0.009
-311.939	-200.000	0.027	0.756
-310.924	-164.627	0.926	-0.042
-309.910	-200.000	0.129	-0.596
-308.895	-173.179	0.446	0.014
-307.880	-27.394	0.350	0.203
-306.866	112.309	-0.710	0.854
-305.851	48.543	-0.703	0.655
-304.837	800.000	-0.115	0.465
-303.822	57.120	0.495	0.480
-302.807	-129.226	0.362	0.050
-301.793	-61.379	0.348	-0.146
-300.778	-200.000	-0.140	0.645
-299.764	-200.000	-0.008	-0.776
-298.749	-130.022	0.402	-0.055
-297.735	272.446	0.180	-0.315
-296.720	241.903	0.329	0.547
-295.705	-200.000	0.111	-0.490
-294.691	-102.544	-0.598	-0.142
-293.676	-200.000	0.010	0.666
-292.662	-86.731	-1.070	-0.325
-291.647	-125.113	1.501	0.229
-290.632	-45.267	0.267	-0.132
-289.618	800.000	-0.169	0.498
-288.603	127.690	-0.189	0.239
-287.589	-94.117	-0.598	0.163
-286.574	800.000	0.103	0.332
-285.559	149.062	-0.228	0.306
-284.545	599.743	-0.271	-0.668
-283.530	-119.579	1.004	0.173
-282.516	59.062	-0.819	-0.801
-281.501	33.448	-0.398	-0.344
-280.486	-200.000	0.057	-0.703
-279.472	-200.000	-0.057	0.490
-278.457	613.692	0.265	0.660
-277.443	800.000	0.109	0.398
-276.428	-200.000	0.093	-0.556
-275.413	-196.186	-0.967	-0.007
-274.399	389.463	0.351	0.724
-273.384	800.000	-0.175	0.504
-272.370	-172.366	0.818	0.026
-271.355	119.512	-0.460	0.566
-270.340	-200.000	-0.022	0.187
-269.326	54.755	-0.311	0.298
-268.311	-200.000	-0.039	0.721
-267.297	800.000	-0.086	-0.239
-266.282	127.273	-0.494	0.622
-265.267	-200.000	0.045	0.899
-264.253	430.043	0.486	-1.045
-263.238	-170.008	-0.571	-0.020
-262.224	-200.000	0.007	0.204
-261.209	-200.000	0.099	0.712
-260.195	146.989	-0.425	-0.568
-259.180	-9.851	1.295	0.856
-258.165	527.332	0.250	0.585
-257.151	147.409	0.197	0.264
-256.136	0.777	-0.180	0.128
-255.122	-97.884	0.675	-0.173
-254.107	-3.448	0.197	-0.136
-253.092	-200.000	-0.095	-1.046
-252.078	-34.507	0.426	-0.231
-251.063	-200.000	-0.096	0.713
-250.049	-200.000	-0.072	-0.488
-249.034	-200.000	0.147	-1.129
-248.019	701.745	-0.131	0.342
-247.005	40.281	-0.704	-0.628
-245.990	78.904	0.306	-0.325
-244.976	-129.878	0.703	-0.096
-243.961	191.831	0.397	-0.594
-242.946	-16.271	0.287	-0.181
-241.932	-12.621	-0.386	0.250
-240.917	172.842	-0.602	0.860
-239.903	312.859	-0.070	-0.131
-238.888	-92.264	-0.788	-0.220
-237.873	-200.000	0.049	-0.603
-236.859	-129.627	0.941	0.129
-235.844	-125.404	0.643	-0.097
-234.830	618.330	-0.353	-0.879
-233.815	-200.000	0.028	0.670
-232.800	800.000	-0.222	-0.716
-231.786	3.197	-0.408	-0.294
-230.771	-67.583	-0.928	0.361
-229.757	236.242	-0.081	-0.133
-228.742	5.468	-0.482	0.353
-227.727	236.327	0.074	-0.122
-226.713	12.185	0.600	-0.458
-225.698	800.000	0.180	0.507
-224.684	-106.239	0.149	-0.033
-223.669	-96.851	-0.250	-0.065
-222.655	182.321	0.405	-0.592
-221.640	359.001	-0.290	-0.575
-220.625	-200.000	0.086	-1.281
-219.611	-1.827	0.513	-0.358
-218.596	-42.867	-0.371	0.187
-217.582	-200.000	0.020	0.785
-216.567	15.204	-0.307	-0.239
-215.552	-200.000	0.123	0.603
-214.538	-200.000	-0.029	-0.591
-213.523	-198.887	0.198	-0.001
-212.509	80.828	0.286	-0.306
-211.494	-45.830	-0.436	-0.214
-210.479	242.248	-0.307	0.510
-209.465	800.000	-0.149	-0.414
-208.450	-67.168	-0.374	-0.146
-207.436	399.016	-0.381	-0.791
-206.421	-153.604	-0.513	0.035
-205.406	146.671	-0.116	-0.155
-204.392	-109.650	-0.407	-0.085
-203.377	118.425	0.138	0.169
-202.363	-161.764	-0.199	-0.010
-201.348	340.173	-0.191	0.370
-200.333	-64.234	-0.352	0.142
-199.319	-36.847	0.472	0.251
-198.304	-200.000	-0.091	-0.592
-197.290	-4.942	-0.285	0.195
-196.275	16.987	0.337	-0.264
-195.260	-200.000	-0.025	-0.110
-194.246	736.022	-0.236	-0.626
-193.231	196.442	0.163	0.247
-192.217	51.988	0.177	-0.167
-191.202	-81.242	-0.661	0.216
-190.187	-200.000	0.033	0.443
-189.173	-76.559	-0.088	-0.031
-188.158	7.433	-0.742	-0.549
-187.144	131.485	0.206	-0.262
-186.129	-200.000	-0.430	-0.002
-185.114	141.642	0.202	0.265
-184.100	-21.113	-0.267	0.162
-183.085	-200.000	0.030	0.158
-182.071	15.384	0.220	-0.171
-181.056	-102.162	0.407	0.097
-180.042	158.976	0.204	0.281
-179.027	-196.911	-0.821	0.005
-178.012	275.770	-0.082	-0.145
-176.998	-31.234	-0.207	-0.116
-175.983	-200.000	0.011	0.705
-174.969	-173.874	0.462	-0.014
-173.954	28.201	-0.444	-0.371
-172.939	79.998	-0.441	-0.469
-171.925	-200.000	0.078	-0.415
-170.910	-0.451	0.614	0.431
-169.896	446.218	0.154	-0.335
-168.881	-90.781	0.977	0.279
-167.866	-200.000	0.014	0.731
-166.852	-135.836	-0.183	0.021
-165.837	-90.715	0.638	-0.182
-164.823	800.000	0.151	0.554
-163.808	800.000	0.044	-0.175
-162.793	702.674	-0.185	-0.482
-161.779	-79.986	-0.750	-0.249
-160.764	273.918	0.360	0.629
-159.750	-97.927	0.714	-0.182
-158.735	2.885	0.053	0.038
-157.720	157.084	0.040	-0.055
-156.706	36.616	-0.649	-0.567
-155.691	-200.000	-0.037	-0.594
-154.677	43.109	-0.506	-0.457
-153.662	-129.941	-0.828	-0.112
-152.647	-127.181	0.473	-0.068
-151.633	-54.904	0.408	0.182
-150.618	452.444	-0.182	-0.398
-149.604	-177.978	-1.385	0.033
-148.589	-200.000	0.001	0.039
-147.574	202.815	-0.050	-0.076
-146.560	-44.157	0.921	0.457
-145.545	-80.951	1.157	0.379
-144.531	175.212	0.259	0.370
-143.516	-200.000	0.005	-0.035
-142.502	-124.715	-0.231	0.035
-141.487	-200.000	-0.036	0.450
-140.472	-95.202	0.784	0.209
-139.458	-200.000	-0.044	-0.228
-138.443	710.268	-0.034	0.089
-137.429	10.661	-0.644	0.485
-136.414	-115.067	0.354	0.066
-135.399	59.808	-0.181	0.177
-134.385	800.000	0.199	-0.587
-133.370	-66.875	0.324	0.127
-132.356	11.578	-0.460	0.349
-131.341	444.992	0.260	-0.565
-130.326	49.522	-0.199	-0.185
-129.312	-200.000	0.080	-0.770
-128.297	-103.071	-0.194	-0.045
-127.283	-75.182	0.429	0.151
-126.268	-200.000	0.129	-1.028
-125.253	-55.004	-0.335	-0.149
-124.239	-112.115	-0.623	-0.124
-123.224	-120.885	-0.538	-0.089
-122.210	-150.310	0.123	0.009
-121.195	592.650	-0.354	0.864
-120.180	-200.000	-0.014	-0.355
-119.166	303.027	0.272	-0.498
-118.151	-200.000	-0.033	0.407
-117.137	52.430	0.218	0.205
-116.122	-99.234	-0.401	-0.100
-115.107	32.275	-0.741	-0.631
-114.093	-164.709	0.737	0.033
-113.078	294.567	-0.377	0.680
-112.064	-18.525	0.632	-0.389
-111.049	48.823	-0.314	0.291
-110.034	469.317	-0.217	-0.482
-109.020	800.000	-0.337	0.937
-108.005	91.072	0.275	0.305
-106.991	103.554	-0.561	-0.650
-105.976	-124.118	-0.446	0.069
-104.962	397.467	0.380	0.784
-103.947	-22.678	-0.466	0.278
-102.932	201.321	-0.024	-0.037
-101.918	-110.649	-0.524	0.107
-100.903	123.626	-0.560	-0.694
-99.889	-200.000	0.002	0.650
-98.874	-85.646	1.030	0.316
-97.859	105.328	-0.311	-0.362
-96.845	-19.472	-0.513	0.314
-95.830	-132.768	0.825	-0.104
-94.816	-200.000	-0.072	-0.573
-93.801	-78.082	-1.235	-0.419
-92.786	-200.000	-0.075	0.542
-91.772	-68.264	-0.091	0.035
-90.757	-118.501	-0.539	-0.094
-89.743	-200.000	0.058	-0.424
-88.728	-200.000	0.064	-0.393
-87.713	-96.655	0.722	-0.188
-86.699	28.277	-0.203	0.169
-85.684	13.985	0.453	-0.348
-84.670	26.940	0.269	0.223
-83.655	-177.675	0.386	0.009
-82.640	6.136	0.536	0.392
-81.626	607.305	0.153	-0.376
-80.611	-133.457	0.869	-0.108
-79.597	49.493	-0.484	-0.449
-78.582	-77.618	-0.670	-0.229
-77.567	-78.612	-0.110	-0.037
-76.553	-77.367	-0.365	0.125
-75.538	800.000	-0.166	0.544
-74.524	-103.637	0.949	-0.219
-73.509	-69.775	0.112	0.042
-72.494	-88.175	0.486	0.143
-71.480	-12.261	0.520	-0.335
-70.465	-200.000	-0.096	0.696
-69.451	-99.853	-0.773	0.191
-68.436	-200.000	0.279	1.213
-67.422	800.000	-0.236	0.742
-66.407	-186.541	-1.153	0.016
-65.392	127.369	0.539	-0.674
-64.378	-23.589	-0.644	0.381
-63.363	-125.390	1.256	0.189
-62.349	-45.956	0.380	0.184
-61.334	193.612	-0.841	-1.254
-60.319	800.000	0.229	0.729
-59.305	105.946	-0.495	-0.578
-58.290	-200.000	0.216	1.132
-57.276	-200.000	-0.209	1.819
-56.261	-200.000	95.799	571.283
-55.246	636.043	1369.567	3425.381
-54.232	200.759	2533.972	3838.833
-53.217	115.999	2148.597	2591.132
-52.203	43.423	1697.518	1528.175
-51.188	36.408	1511.745	1313.390
-50.173	33.918	1486.794	1274.981
-49.159	53.854	1537.239	1454.665
-48.144	54.670	1554.739	1476.733
-47.130	36.153	1514.632	1313.951
-46.115	33.285	1498.565	1280.590
-45.100	33.437	1494.600	1278.171
-44.086	33.201	1493.827	1275.872
-43.071	33.165	1491.554	1273.636
-42.057	33.183	1489.924	1272.315
-41.042	33.301	1488.725	1272.035
-40.027	33.236	1487.213	1270.252
-39.013	32.943	1486.077	1267.270
-37.998	33.162	1484.432	1267.280
-36.984	33.297	1482.972	1266.887
-35.969	33.269	1481.875	1265.717
-34.954	33.305	1480.484	1264.719
-33.940	32.954	1480.695	1262.500
-32.925	33.071	1478.696	1261.529
-31.911	33.006	1476.688	1259.333
-30.896	33.272	1475.660	1260.178
-29.881	33.251	1474.338	1258.861
-28.867	33.355	1471.666	1257.215
-27.852	33.042	1471.267	1254.748
-26.838	33.125	1469.981	1254.152
-25.823	33.124	1468.338	1252.691
-24.809	33.222	1467.177	1252.306
-23.794	33.107	1465.090	1249.709
-22.779	33.219	1463.728	1249.241
-21.765	33.297	1462.895	1248.996
-20.750	33.367	1461.353	1248.091
-19.736	33.196	1460.281	1245.999
-18.721	33.058	1459.597	1244.455
-17.706	33.092	1458.762	1243.916
-16.692	33.124	1458.416	1243.783
-15.677	33.174	1456.336	1242.293
-14.663	33.039	1456.601	1241.578
-13.648	33.153	1454.631	1240.598
-12.633	33.072	1453.588	1239.129
-11.619	32.929	1453.468	1238.042
-10.604	33.224	1452.131	1238.782
-9.590	32.996	1451.475	1236.682
-8.575	32.979	1450.467	1235.665
-7.560	33.166	1449.505	1236.020
-6.546	32.958	1448.677	1233.906
-5.531	32.946	1447.888	1233.102
-4.517	33.018	1447.001	1232.768
-3.502	33.216	1445.556	1232.783
-2.487	32.877	1445.172	1230.193
-1.473	33.056	1443.235	1229.664
-0.458	33.076	1442.259	1228.910
0.556	34.065	1432.940	1217.562
1.571	30.921	1406.943	1175.570
2.586	27.310	1348.258	1104.556
3.600	25.702	1266.287	1028.132
4.615	24.069	1220.421	981.807
5.629	20.847	1163.536	918.992
6.644	11.390	1078.741	805.469
7.659	4.311	1037.613	740.978
8.673	3.292	1031.052	731.387
9.688	2.896	1028.891	727.915
10.702	3.008	1026.835	726.926
11.717	2.685	1025.956	724.712
12.731	6.092	1028.396	742.488
13.746	15.323	1040.952	795.460
14.761	22.878	1050.598	838.788
15.775	24.848	1053.027	850.017
16.790	25.129	1051.809	850.292
17.804	24.799	1052.471	849.188
18.819	24.709	1050.550	847.135
19.834	24.885	1049.996	847.448
20.848	25.286	1050.265	849.486
21.863	25.215	1049.209	848.223
22.877	24.955	1049.910	847.485
23.892	25.080	1048.354	846.744
24.907	24.912	1046.951	844.741
25.921	25.158	1045.882	844.965
26.936	24.999	1045.177	843.572
27.950	24.773	1044.831	842.155
28.965	24.963	1042.815	841.345
29.980	24.567	1042.750	839.360
30.994	24.434	1041.506	837.659
32.009	25.139	1039.351	839.155
33.023	25.053	1039.787	839.027
34.038	24.752	1039.237	837.104
35.053	24.698	1038.738	836.372
36.067	24.533	1037.828	834.794
37.082	24.806	1036.917	835.262
38.096	24.576	1037.257	834.387
39.111	24.771	1035.886	834.124
40.126	25.436	1033.951	835.585
41.140	24.850	1033.402	832.341
42.155	24.892	1031.471	830.906
43.169	24.342	1031.402	828.228
44.184	24.437	1030.353	827.748
45.199	24.743	1029.546	828.446
46.213	24.473	1028.887	826.593
47.228	24.793	1026.353	825.964
48.242	25.088	1026.916	827.705
49.257	24.962	1025.990	826.306
50.271	25.328	1024.445	826.670
51.286	25.339	1023.443	825.840
52.301	25.034	1023.303	824.251
53.315	25.023	1023.208	824.051
54.330	25.105	1022.955	824.154
55.344	24.987	1021.867	822.663
56.359	24.743	1021.471	821.151
57.374	24.992	1020.879	821.745
58.388	24.759	1020.311	820.144
59.403	24.767	1019.132	819.161
60.417	25.070	1017.466	819.136
61.432	24.791	1017.587	817.886
62.447	24.700	1016.701	816.686
63.461	24.692	1016.744	816.610
64.476	24.754	1015.597	815.901
65.490	24.813	1014.423	815.152
66.505	24.541	1014.290	813.733
67.520	24.615	1014.127	813.866
68.534	25.076	1011.310	813.628
69.549	24.657	1011.049	811.446
70.563	24.486	1010.053	809.800
71.578	24.394	1009.735	809.055
72.593	24.362	1008.883	808.158
73.607	24.351	1007.623	807.025
74.622	23.994	1007.785	805.468
75.636	24.490	1005.951	806.169
76.651	24.397	1006.543	806.154
77.666	24.951	1004.052	806.582
78.680	24.688	1003.239	804.674
79.695	24.813	1002.801	804.813
80.709	24.434	1003.420	803.536
81.724	24.729	1002.132	803.757
82.739	24.550	1002.100	802.856
83.753	24.497	1000.239	801.058
84.768	25.182	998.838	802.931
85.782	25.001	1000.506	803.390
86.797	25.356	998.943	803.652
87.812	25.576	997.764	803.616
88.826	25.378	997.830	802.713
89.841	25.656	996.187	802.560
90.855	25.249	995.421	800.058
91.870	25.531	994.789	800.738
92.884	25.584	993.418	799.797
93.899	25.331	991.816	797.313
94.914	25.337	992.292	797.653
95.928	25.533	991.400	797.734
96.943	25.305	991.743	796.928
97.957	25.144	989.852	794.625
98.972	24.855	989.549	793.032
99.987	24.955	987.826	792.024
101.001	25.087	988.177	792.816
102.016	25.152	986.912	792.021
103.030	25.164	986.480	791.655
104.045	25.220	985.072	790.705
105.060	25.263	983.349	789.439
106.074	24.912	983.880	788.252
107.089	25.178	982.481	788.231
108.103	25.229	981.239	787.385
109.118	25.153	981.020	786.807
110.133	24.646	980.522	784.113
111.147	24.976	977.843	783.348
112.162	24.819	977.697	782.473
113.176	24.480	977.349	780.644
114.191	25.001	975.044	781.007
115.206	25.021	975.091	781.061
116.220	24.692	974.355	778.972
117.235	24.398	974.366	777.629
118.249	24.602	972.993	777.352
119.264	24.543	972.073	776.292
120.279	24.498	971.745	775.766
121.293	24.821	969.797	775.541
122.308	24.564	969.666	774.256
123.322	24.629	969.431	774.281
124.337	24.825	968.070	773.970
125.352	24.477	966.693	771.300
126.366	24.151	965.621	768.969
127.381	24.257	964.013	768.076
128.395	24.733	964.290	770.283
129.410	24.883	964.390	770.938
130.424	24.954	962.828	769.927
131.439	24.991	962.328	769.619
132.454	25.164	960.767	769.042
133.468	25.154	959.908	768.245
134.483	25.111	960.125	768.165
135.497	25.001	959.306	766.972
136.512	25.338	958.309	767.550
137.527	25.309	956.754	766.110
138.541	25.209	956.544	765.447
139.556	25.202	956.886	765.625
140.570	25.292	955.291	764.664
141.585	25.244	954.331	763.623
142.600	25.344	954.665	764.250
143.614	25.167	952.606	761.781
144.629	25.226	952.063	761.529
145.643	25.457	951.736	762.183
146.658	25.621	950.074	761.479
147.673	25.282	949.009	759.123
148.687	25.110	948.168	757.656
149.702	25.302	946.517	757.078
150.716	25.062	946.612	756.075
151.731	24.929	945.650	754.679
152.746	25.512	944.815	756.403
153.760	25.540	943.566	755.454
154.775	25.304	944.064	754.794
155.789	25.360	942.995	754.105
156.804	25.240	942.215	752.910
157.819	25.494	940.093	752.215
158.833	25.311	940.210	751.475
159.848	25.746	939.137	752.369
160.862	25.752	938.519	751.832
161.877	25.358	938.586	750.171
162.892	25.639	937.222	750.188
163.906	25.492	936.006	748.538
164.921	25.261	935.169	746.838
165.935	25.249	933.703	745.553
166.950	25.184	933.636	745.162
167.964	25.466	933.145	745.878
168.979	25.228	932.172	744.044
169.994	25.431	930.225	743.266
171.008	25.451	929.890	743.014
172.023	25.595	929.449	743.194
173.037	25.665	928.762	742.867
174.052	25.685	927.267	741.686
175.067	25.345	925.862	739.100
176.081	25.101	926.717	738.709
177.096	25.275	924.652	737.714
178.110	25.239	923.673	736.720
179.125	24.723	924.035	734.824
180.140	24.746	922.331	733.499
181.154	24.953	921.835	733.885
182.169	25.033	921.301	733.723
183.183	25.179	921.091	734.091
184.198	25.428	919.888	734.083
185.213	24.985	920.938	733.045
186.227	25.011	920.211	732.507
187.242	25.713	917.998	733.542
188.256	25.617	918.003	733.090
189.271	25.425	917.368	731.736
190.286	25.578	917.180	732.145
191.300	25.252	915.993	729.805
192.315	24.786	915.873	727.750
193.329	24.468	912.818	723.968
194.344	24.245	912.346	722.628
195.359	24.489	912.301	723.518
196.373	25.302	912.140	726.617
197.388	25.209	913.109	726.950
198.402	25.603	911.683	727.343
199.417	25.736	911.225	727.450
200.432	25.595	911.426	726.975
201.446	25.762	911.168	727.381
202.461	25.528	910.352	725.721
203.475	25.519	909.752	725.141
204.490	25.156	908.704	722.781
205.504	24.439	906.155	717.807
206.519	24.533	906.385	718.304
207.534	25.343	905.491	720.782
208.548	25.399	906.258	721.553
209.563	25.501	905.017	720.911
210.577	25.443	904.043	719.840
211.592	25.227	904.336	719.142
212.607	25.689	903.617	720.357
213.621	26.022	902.520	720.752
214.636	25.826	902.378	719.789
215.650	25.785	901.361	718.752
216.665	25.840	901.253	718.822
217.680	25.553	901.385	717.718
218.694	25.591	900.549	717.140
219.709	25.887	898.529	716.647
220.723	25.287	898.984	714.559
221.738	25.627	897.826	714.925
222.753	25.557	897.247	714.124
223.767	25.307	897.592	713.342
224.782	25.535	894.920	712.058
225.796	25.333	896.210	712.221
226.811	25.892	895.423	713.747
227.826	25.717	893.363	711.350
228.840	25.228	892.337	708.539
229.855	25.117	891.188	707.127
230.869	25.160	891.561	707.529
231.884	24.618	891.483	705.265
232.899	24.931	890.055	705.308
233.913	25.471	890.082	707.393
234.928	25.595	889.805	707.597
235.942	25.039	889.032	704.736
236.957	24.850	888.690	703.657
237.972	24.904	888.213	703.430
238.986	25.071	886.669	702.800
240.001	25.614	885.167	703.673
241.015	25.197	885.493	702.235
242.030	25.406	884.100	701.887
243.045	25.543	884.055	702.323
244.059	25.596	884.348	702.700
245.074	25.633	883.940	702.459
246.088	25.500	882.670	700.868
247.103	25.512	882.518	700.735
248.117	25.527	882.016	700.332
249.132	25.778	880.328	699.905
250.147	26.242	880.973	702.161
251.161	26.290	881.081	702.372
252.176	26.507	880.455	702.651
253.190	26.341	879.546	701.222
254.205	26.456	878.991	701.161
255.220	26.265	879.400	700.687
256.234	26.397	878.444	700.374
257.249	26.679	877.079	700.315
258.263	25.863	877.453	697.392
259.278	26.101	877.966	698.660
260.293	26.000	876.399	696.962
261.307	26.209	875.808	697.236
262.322	26.284	875.051	696.860
263.336	26.752	874.085	697.834
264.351	26.287	873.059	695.164
265.366	25.170	872.575	690.418
266.380	25.563	870.134	689.936
267.395	25.785	871.472	691.789
268.409	26.274	870.676	692.971
269.424	25.929	870.432	691.392
270.439	26.110	870.340	691.951
271.453	25.974	869.379	690.606
272.468	25.919	868.310	689.486
273.482	25.961	868.532	689.761
274.497	26.431	867.144	690.391
275.512	26.257	866.500	689.154
276.526	26.173	865.485	687.966
277.541	25.868	865.660	686.883
278.555	26.126	865.373	687.579
279.570	26.333	864.321	687.468
280.585	26.223	863.399	686.254
281.599	26.329	864.075	687.135
282.614	26.324	863.142	686.313
283.628	25.544	862.283	682.608
284.643	25.544	861.751	682.130
285.657	25.926	861.593	683.392
286.672	25.994	860.850	682.999
287.687	25.821	859.166	680.950
288.701	25.834	858.510	680.417
289.716	26.188	858.637	681.795
290.730	25.940	857.942	680.249
291.745	25.626	857.112	678.345
292.760	26.119	855.932	679.209
293.774	25.820	855.375	677.582
294.789	26.429	856.180	680.450
295.803	26.577	855.818	680.659
296.818	26.576	856.133	680.843
297.833	26.421	854.868	679.195
298.847	26.375	853.360	677.765
299.862	26.009	852.848	675.929
300.876	26.249	852.251	676.292
301.891	26.529	851.771	676.901
302.906	26.355	852.259	676.577
303.920	26.587	850.385	675.894
304.935	26.248	849.826	674.125
305.949	26.882	850.165	676.702
306.964	26.638	849.428	675.148
307.979	26.189	848.500	672.677
308.993	26.025	848.097	671.684
310.008	26.331	847.156	672.019
311.022	26.265	847.373	671.888
312.037	26.639	846.771	672.738
313.052	26.420	845.862	671.144
314.066	26.639	844.366	670.709
315.081	25.865	844.097	667.570
316.095	25.613	843.385	666.015
317.110	26.191	842.272	667.215
318.125	26.583	842.461	668.754
319.139	26.230	842.005	667.030
320.154	25.276	841.339	662.921
321.168	25.003	839.553	660.450
322.183	25.529	839.565	662.339
323.197	26.136	839.894	664.776
324.212	25.909	840.289	664.190
325.227	26.163	838.837	663.921
326.241	26.344	839.060	664.701
327.256	25.894	838.968	662.918
328.270	25.897	837.978	662.086
329.285	25.730	837.366	660.933
330.300	25.857	835.856	660.145
331.314	25.661	835.392	659.005
332.329	25.509	835.722	658.650
333.343	25.804	835.447	659.455
334.358	26.327	834.467	660.533
335.373	26.623	833.156	660.519
336.387	26.400	833.454	659.880
337.402	26.743	832.589	660.388
338.416	26.433	832.492	659.124
339.431	26.768	832.240	660.088
340.446	26.889	831.781	660.104
341.460	26.732	831.815	659.502
342.475	27.045	830.344	659.412
343.489	27.115	829.894	659.253
344.504	26.921	829.386	658.087
345.519	26.850	829.070	657.520
346.533	27.032	828.262	657.481
347.548	26.967	828.639	657.484
348.562	26.970	827.763	656.742
349.577	26.793	826.550	655.083
350.592	26.634	825.619	653.715
351.606	26.803	825.771	654.385
352.621	26.544	825.038	652.814
353.635	26.702	824.169	652.638
354.650	26.103	825.158	651.202
355.665	26.651	823.068	651.467
356.679	26.038	823.299	649.388
357.694	26.087	822.006	648.485
358.708	26.381	821.773	649.299
359.723	26.326	821.144	648.546
360.738	26.386	820.668	648.331
361.752	26.320	820.838	648.170
362.767	26.208	820.949	647.797
363.781	26.913	819.584	649.188
364.796	27.050	818.590	648.832
365.810	27.241	818.281	649.210
366.825	26.933	818.521	648.245
367.840	27.135	817.947	648.452
368.854	27.030	817.253	647.472
369.869	26.888	816.176	646.054
370.883	26.427	815.929	644.160
371.898	26.670	815.763	644.838
372.913	26.598	815.359	644.206
373.927	26.870	814.949	644.790
374.942	26.724	814.025	643.485
375.956	26.647	814.155	643.257
376.971	26.770	812.700	642.488
377.986	26.892	812.276	642.527
379.000	27.087	811.744	642.741
380.015	27.507	811.035	643.606
381.029	27.046	810.379	641.399
382.044	27.066	810.030	641.138
383.059	27.261	809.119	641.046
384.073	26.956	809.969	640.588
385.088	27.365	808.963	641.178
386.102	27.105	807.729	639.226
387.117	26.251	807.602	636.065
388.132	26.308	806.349	635.222
389.146	26.468	806.347	635.728
390.161	26.276	805.098	634.012
391.175	26.516	805.747	635.310
392.190	27.123	805.253	636.993
393.205	26.813	805.323	635.903
394.219	26.428	803.753	633.261
395.234	25.209	802.082	627.625
396.248	24.789	800.722	625.039
397.263	25.507	801.790	628.327
398.278	26.139	802.250	630.843
399.292	25.917	802.028	629.835
400.307	26.155	800.526	629.433
401.321	25.708	800.197	627.560
402.336	25.979	799.633	628.007
403.350	26.159	799.980	628.850
404.365	26.908	799.946	631.375
405.380	26.629	800.413	630.714
406.394	27.127	798.334	630.752
407.409	27.284	799.002	631.769
408.423	27.190	797.346	630.077
409.438	27.543	797.493	631.361
410.453	27.375	796.660	630.064
411.467	27.092	796.816	629.151
412.482	26.659	796.994	627.737
413.496	26.682	796.820	627.622
414.511	26.681	795.226	626.310
415.526	27.252	795.600	628.522
416.540	27.256	793.633	626.928
417.555	27.393	793.571	627.295
418.569	27.218	793.569	626.635
419.584	27.139	793.317	626.108
420.599	27.234	792.705	625.895
421.613	159.527	1370.347	1792.840
422.628	138.218	1454.425	1792.929
