DTS Sentinel unit serial number:	SN413079Multiplexer serial number:	ORYXHardware model number:	OX4-SRSoftware version number:	ORYX F/W v4.00 Oryx Data Collector v3.7.2.0data status	okinstallation	princeton_trtdifferential loss correction	single-endedforward channel	channel 3reverse channel	N/Adate	2019/09/18time	19:08:34forward acquisition time	60.00reverse acquisition time	0.00gamma	496.2192k internal	0.2313k external	0.2313temperature offset calibration	1.0015default loss term (dB/km)	0.3790temperature slope calibration	1.0000multiplexer offset coefficient	1.0000multiplexer slope coefficient	1.0000fibre end	0.00T internal ref (°C)	35.16T ext. ref 1 (°C)	1.21T ext. ref 2 (°C)	24.18length (m)	temperature (°C)	Stokes	anti-Stokes-747.200	176.439	0.199	0.293
-746.185	-200.000	0.062	0.472
-745.171	-65.099	-0.309	-0.127
-744.156	149.137	0.261	0.358
-743.142	-162.999	-0.355	-0.017
-742.127	172.521	0.109	0.159
-741.112	-107.829	0.143	-0.032
-740.098	800.000	-0.085	-0.283
-739.083	800.000	0.100	0.301
-738.069	193.453	0.196	0.301
-737.054	-141.103	-0.362	-0.037
-736.039	129.078	-0.133	0.172
-735.025	-48.464	0.243	0.119
-734.010	737.276	-0.054	-0.148
-732.996	3.993	-0.278	-0.206
-731.981	-200.000	0.017	0.144
-730.966	259.191	0.118	0.207
-729.952	-200.000	0.001	-0.015
-728.937	-16.732	-0.241	0.154
-727.923	-52.367	-0.178	-0.084
-726.908	10.800	-0.196	0.152
-725.894	800.000	0.094	-0.387
-724.879	476.622	0.041	-0.093
-723.864	280.943	0.102	-0.185
-722.850	392.272	-0.064	-0.135
-721.835	-200.000	-0.003	0.081
-720.821	-92.981	-0.244	0.069
-719.806	298.518	-0.117	-0.218
-718.791	3.934	-0.129	-0.096
-717.777	-45.120	0.041	-0.021
-716.762	156.808	-0.103	0.144
-715.748	638.937	0.023	0.058
-714.733	-91.851	0.138	0.040
-713.718	-97.196	0.304	-0.080
-712.704	226.512	0.259	0.425
-711.689	-37.073	0.130	0.070
-710.675	197.232	0.215	-0.333
-709.660	404.064	-0.054	-0.115
-708.645	-159.026	-0.324	0.019
-707.631	-25.118	-0.209	-0.125
-706.616	282.394	0.146	-0.264
-705.602	-121.761	-0.116	-0.019
-704.587	221.191	-0.144	0.234
-703.572	694.275	-0.076	0.202
-702.558	-100.385	0.297	-0.074
-701.543	-80.676	0.091	-0.031
-700.529	57.756	0.177	0.175
-699.514	67.022	-0.081	0.084
-698.499	-77.271	0.184	-0.065
-697.485	61.000	0.059	-0.059
-696.470	754.229	-0.061	-0.168
-695.456	370.421	-0.080	0.164
-694.441	-200.000	0.010	0.365
-693.426	-145.936	-0.242	-0.022
-692.412	800.000	0.118	0.375
-691.397	162.436	-0.181	-0.257
-690.383	-44.484	0.409	-0.207
-689.368	-200.000	-0.034	0.209
-688.354	-7.379	0.111	0.076
-687.339	-186.336	-0.094	-0.001
-686.324	-82.218	-0.119	-0.039
-685.310	98.798	-0.143	0.167
-684.295	-74.637	0.243	0.089
-683.281	800.000	-0.045	-0.171
-682.266	-107.435	-0.280	0.062
-681.251	505.638	0.132	0.310
-680.237	19.921	0.077	-0.062
-679.222	346.167	-0.045	0.090
-678.208	-200.000	0.006	-0.113
-677.193	49.804	0.211	-0.201
-676.178	-200.000	-0.022	-0.201
-675.164	-99.892	0.249	0.063
-674.149	-137.359	0.342	-0.039
-673.135	-177.466	0.070	0.002
-672.120	92.639	0.188	-0.214
-671.105	343.749	0.068	0.135
-670.091	139.866	-0.050	-0.066
-669.076	176.525	0.075	0.111
-668.062	800.000	-0.058	0.189
-667.047	176.620	-0.064	0.094
-666.032	-71.869	-0.135	0.051
-665.018	94.440	0.295	-0.338
-664.003	-200.000	0.011	0.152
-662.989	-200.000	-0.006	-0.121
-661.974	102.563	-0.082	0.098
-660.959	177.165	-0.153	-0.225
-659.945	-126.029	0.184	0.028
-658.930	-97.737	0.186	0.049
-657.916	-200.000	0.021	-0.599
-656.901	-200.000	0.078	-0.355
-655.886	-94.337	0.358	0.099
-654.872	21.218	-0.306	0.251
-653.857	-175.674	-0.042	-0.001
-652.843	370.168	-0.082	-0.168
-651.828	422.401	-0.198	-0.429
-650.814	800.000	0.036	-0.127
-649.799	115.640	-0.167	0.206
-648.784	214.456	-0.073	-0.117
-647.770	157.048	-0.076	0.106
-646.755	105.907	0.113	-0.135
-645.741	19.726	0.190	0.154
-644.726	-105.512	-0.177	-0.041
-643.711	128.520	0.272	-0.349
-642.697	205.551	-0.130	-0.204
-641.682	317.481	-0.220	-0.421
-640.668	658.750	0.047	-0.122
-639.653	-128.849	-0.112	-0.016
-638.638	-200.000	0.003	-0.016
-637.624	-200.000	0.057	-0.345
-636.609	289.424	-0.088	0.162
-635.595	95.118	-0.221	-0.255
-634.580	29.612	-0.075	0.064
-633.565	9.665	-0.208	-0.159
-632.551	-87.064	0.130	0.040
-631.536	72.092	-0.191	-0.201
-630.522	84.908	0.213	-0.236
-629.507	-200.000	0.057	-0.426
-628.492	-90.941	-0.198	-0.057
-627.478	347.110	0.192	-0.382
-626.463	800.000	0.041	-0.180
-625.449	168.345	-0.146	0.210
-624.434	800.000	0.074	-0.244
-623.419	-99.117	-0.127	-0.032
-622.405	102.876	0.194	-0.229
-621.390	-143.372	-0.275	0.027
-620.376	-200.000	0.018	-0.215
-619.361	-59.768	-0.310	0.134
-618.346	-200.000	-0.015	-0.134
-617.332	-115.342	-0.133	0.025
-616.317	144.307	0.045	0.061
-615.303	-47.586	-0.225	-0.110
-614.288	-93.603	0.079	-0.022
-613.273	154.153	-0.240	0.332
-612.259	15.081	0.165	0.131
-611.244	65.896	0.041	0.042
-610.230	800.000	0.054	0.156
-609.215	-56.232	0.059	-0.026
-608.201	-147.531	-0.245	-0.021
-607.186	800.000	0.135	-0.438
-606.171	63.943	0.167	-0.169
-605.157	197.796	-0.067	0.103
-604.142	800.000	0.023	0.072
-603.128	-111.727	0.073	0.015
-602.113	-200.000	-0.027	0.247
-601.098	-200.000	-0.016	0.201
-600.084	-200.000	-0.001	-0.069
-599.069	-34.601	-0.075	-0.041
-598.055	-200.000	0.012	0.170
-597.040	131.900	-0.050	-0.064
-596.025	-65.046	0.289	-0.118
-595.011	753.724	0.077	0.211
-593.996	-102.093	0.293	0.071
-592.982	-111.520	0.257	0.053
-591.967	100.578	-0.101	-0.118
-590.952	111.684	-0.057	0.069
-589.938	483.328	0.074	0.170
-588.923	36.225	-0.081	-0.072
-587.909	183.723	-0.103	-0.154
-586.894	800.000	-0.098	-0.336
-585.879	-110.510	0.043	-0.009
-584.865	412.214	-0.192	0.412
-583.850	-100.495	0.086	0.021
-582.836	800.000	0.008	-0.024
-581.821	11.266	0.224	0.173
-580.806	228.161	0.178	0.292
-579.792	756.196	0.156	-0.424
-578.777	91.802	-0.184	-0.209
-577.763	800.000	0.056	0.216
-576.748	347.212	-0.103	-0.203
-575.733	-84.908	-0.066	-0.021
-574.719	-114.297	-0.145	0.028
-573.704	-62.398	0.270	-0.113
-572.690	587.306	0.067	-0.167
-571.675	93.124	0.228	-0.259
-570.661	-0.520	-0.182	-0.130
-569.646	332.589	0.018	-0.035
-568.631	-62.121	-0.439	-0.184
-567.617	-200.000	-0.017	-0.223
-566.602	800.000	-0.081	0.259
-565.588	-160.479	-0.276	-0.015
-564.573	-87.164	0.222	0.068
-563.558	-63.203	0.176	-0.073
-562.544	-41.470	0.194	-0.100
-561.529	175.229	-0.137	-0.199
-560.515	558.449	0.078	0.189
-559.500	563.276	0.041	-0.100
-558.485	-84.653	-0.241	-0.077
-557.471	145.434	-0.118	0.159
-556.456	-53.428	0.134	-0.062
-555.442	-200.000	0.034	0.227
-554.427	-200.000	0.009	0.418
-553.412	800.000	-0.046	0.139
-552.398	-34.203	0.065	-0.036
-551.383	430.675	0.070	-0.152
-550.369	106.643	-0.021	0.025
-549.354	-57.735	-0.109	-0.048
-548.339	-93.477	0.259	-0.072
-547.325	140.602	0.086	0.114
-546.310	-117.412	-0.123	-0.022
-545.296	800.000	0.030	-0.115
-544.281	-79.718	-0.132	-0.045
-543.266	305.917	-0.110	0.206
-542.252	-50.783	0.246	0.116
-541.237	591.917	0.087	-0.215
-540.223	-200.000	0.122	-0.542
-539.208	274.567	0.132	-0.235
-538.193	340.165	-0.074	0.145
-537.179	-152.387	0.169	-0.012
-536.164	-106.168	-0.269	-0.061
-535.150	-9.278	-0.146	0.098
-534.135	-200.000	0.007	-0.081
-533.121	-200.000	0.008	0.287
-532.106	176.931	0.060	-0.087
-531.091	736.600	0.104	-0.281
-530.077	45.841	-0.080	0.074
-529.062	-155.644	-0.144	0.009
-528.048	219.921	0.116	-0.187
-527.033	707.267	0.151	-0.400
-526.018	40.455	-0.084	-0.076
-525.004	33.694	-0.153	0.134
-523.989	-173.382	0.334	-0.010
-522.975	164.387	0.112	0.158
-521.960	184.367	-0.038	-0.056
-520.945	202.952	0.170	0.264
-519.931	239.555	0.096	0.161
-518.916	173.795	-0.216	-0.313
-517.902	43.757	0.269	0.247
-516.887	38.273	0.083	0.074
-515.872	72.127	-0.088	0.092
-514.858	-200.000	-0.063	0.308
-513.843	97.323	-0.249	0.288
-512.829	-162.749	-0.281	-0.014
-511.814	-200.000	0.030	-0.250
-510.799	-151.034	-0.119	0.009
-509.785	322.999	0.112	0.214
-508.770	-162.485	-0.119	0.006
-507.756	-69.221	0.263	-0.102
-506.741	151.726	-0.095	0.131
-505.726	77.892	-0.123	-0.132
-504.712	-200.000	-0.267	0.000
-503.697	635.383	0.112	0.286
-502.683	800.000	0.039	0.163
-501.668	-200.000	0.020	0.181
-500.653	-41.416	0.117	0.060
-499.639	-11.433	0.206	0.136
-498.624	-42.030	-0.016	-0.008
-497.610	81.047	0.147	0.159
-496.595	118.720	0.159	-0.197
-495.581	800.000	0.005	-0.020
-494.566	124.845	0.295	-0.373
-493.551	41.125	0.304	-0.276
-492.537	-171.321	-0.036	-0.001
-491.522	-35.363	0.041	-0.022
-490.508	800.000	0.050	-0.168
-489.493	-200.000	-0.051	-0.247
-488.478	352.532	0.118	-0.234
-487.464	-60.255	-0.176	0.075
-486.449	505.693	0.010	-0.023
-485.435	12.469	-0.141	-0.109
-484.420	24.203	-0.166	0.138
-483.405	800.000	-0.087	0.310
-482.391	-82.804	0.391	-0.127
-481.376	633.797	0.084	-0.213
-480.362	-97.863	-0.074	-0.019
-479.347	-200.000	-0.032	0.208
-478.332	-95.254	-0.057	0.016
-477.318	-1.127	0.178	-0.126
-476.303	625.405	-0.057	0.143
-475.289	125.820	-0.066	0.084
-474.274	-98.607	-0.099	0.025
-473.259	232.844	-0.058	-0.096
-472.245	75.255	0.146	0.155
-471.230	-68.723	-0.297	-0.115
-470.216	-116.985	0.198	0.036
-469.201	-200.000	-0.015	-0.166
-468.186	-55.982	0.140	0.062
-467.172	-52.549	-0.256	-0.118
-466.157	-139.147	-0.160	0.017
-465.143	112.019	0.096	-0.116
-464.128	-200.000	-0.050	-0.452
-463.113	-200.000	-0.003	0.026
-462.099	800.000	-0.155	-0.504
-461.084	-78.723	-0.417	-0.143
-460.070	-18.722	0.245	0.153
-459.055	800.000	-0.067	-0.199
-458.040	171.644	-0.195	-0.281
-457.026	632.513	-0.069	-0.176
-456.011	167.810	0.186	0.265
-454.997	-77.668	0.177	0.061
-453.982	-3.577	-0.379	-0.264
-452.968	-200.000	-0.015	-0.071
-451.953	-64.393	0.261	-0.107
-450.938	353.751	-0.072	0.144
-449.924	48.671	-0.213	-0.200
-448.909	-198.108	-0.243	-0.001
-447.895	-200.000	0.075	-0.396
-446.880	-200.000	0.023	0.117
-445.865	-200.000	0.053	0.371
-444.851	-200.000	-0.006	-0.285
-443.836	-65.689	-0.084	0.034
-442.822	-200.000	-0.006	-0.117
-441.807	-180.045	0.326	0.007
-440.792	182.390	0.205	-0.303
-439.778	-59.012	-0.162	-0.070
-438.763	-200.000	0.015	-0.067
-437.749	-68.810	-0.195	0.075
-436.734	800.000	-0.046	0.145
-435.719	-56.188	0.361	-0.161
-434.705	-102.917	-0.182	-0.043
-433.690	85.275	-0.309	0.340
-432.676	-200.000	0.017	-0.137
-431.661	8.894	-0.023	-0.017
-430.646	325.932	0.087	0.167
-429.632	-48.317	0.191	0.092
-428.617	-148.704	0.033	0.003
-427.603	61.634	0.359	0.358
-426.588	-200.000	0.005	-0.113
-425.573	-200.000	-0.030	-0.305
-424.559	-39.497	-0.202	-0.106
-423.544	663.869	-0.034	-0.089
-422.530	-78.987	0.141	0.048
-421.515	-88.688	-0.142	-0.042
-420.500	-195.551	-0.095	-0.001
-419.486	272.490	-0.071	-0.125
-418.471	-200.000	-0.003	-0.069
-417.457	-200.000	0.013	0.194
-416.442	-132.337	0.221	0.029
-415.428	196.775	0.152	0.232
-414.413	-200.000	-0.003	0.032
-413.398	1.623	-0.149	0.108
-412.384	800.000	0.033	0.097
-411.369	-152.626	-0.100	-0.007
-410.355	-124.183	-0.243	0.038
-409.340	800.000	0.037	-0.132
-408.325	457.545	0.051	0.113
-407.311	-75.082	0.316	0.113
-406.296	-72.885	0.155	0.057
-405.282	677.485	0.067	0.173
-404.267	-200.000	0.010	-0.214
-403.252	800.000	0.018	0.059
-402.238	-55.712	-0.113	0.051
-401.223	800.000	-0.116	0.344
-400.209	-200.000	0.002	-0.216
-399.194	16.634	0.094	-0.074
-398.179	-200.000	0.054	0.266
-397.165	800.000	0.024	0.071
-396.150	-77.477	-0.144	0.050
-395.136	44.456	0.154	-0.141
-394.121	-36.267	0.312	-0.169
-393.106	265.646	-0.186	-0.325
-392.092	-12.831	-0.247	0.161
-391.077	279.447	0.060	0.106
-390.063	-200.000	-0.018	0.575
-389.048	137.440	-0.195	-0.255
-388.033	461.727	-0.206	0.460
-387.019	-200.000	0.043	0.495
-386.004	616.202	0.021	-0.053
-384.990	58.674	0.080	0.079
-383.975	208.106	-0.035	-0.055
-382.960	-99.847	0.284	0.071
-381.946	794.949	-0.111	0.305
-380.931	-200.000	-0.024	0.146
-379.917	-48.782	-0.162	0.078
-378.902	-67.956	-0.152	0.059
-377.888	-115.011	-0.463	0.088
-376.873	-200.000	0.015	-0.123
-375.858	110.765	-0.180	-0.216
-374.844	-200.000	-0.006	-0.104
-373.829	800.000	-0.110	0.425
-372.815	471.480	-0.068	0.154
-371.800	-200.000	-0.036	0.220
-370.785	-200.000	0.014	-0.168
-369.771	133.253	-0.191	0.247
-368.756	519.387	0.116	0.271
-367.742	50.841	0.159	-0.151
-366.727	-154.012	0.236	-0.016
-365.712	-200.000	0.057	-0.252
-364.698	277.380	-0.183	-0.325
-363.683	-200.000	-0.001	0.338
-362.669	-70.815	-0.097	-0.037
-361.654	800.000	0.067	-0.201
-360.639	-184.794	-0.179	-0.003
-359.625	114.323	0.023	0.028
-358.610	800.000	-0.040	0.142
-357.596	-27.098	0.320	-0.186
-356.581	800.000	0.045	0.181
-355.566	-37.812	0.241	0.128
-354.552	-100.654	0.161	-0.040
-353.537	75.433	0.067	0.070
-352.523	-98.147	-0.340	-0.087
-351.508	-170.694	0.298	0.010
-350.493	120.392	0.145	0.180
-349.479	-153.402	-0.341	-0.024
-348.464	-145.091	-0.325	0.029
-347.450	-200.000	-0.003	0.113
-346.435	119.704	0.049	-0.061
-345.420	110.164	-0.124	-0.149
-344.406	800.000	0.107	0.414
-343.391	754.103	-0.106	-0.287
-342.377	-100.353	-0.161	-0.040
-341.362	-200.000	-0.004	0.162
-340.348	800.000	0.078	-0.330
-339.333	-25.811	0.255	0.150
-338.318	268.575	0.057	0.100
-337.304	-111.248	0.371	-0.076
-336.289	35.866	-0.243	-0.213
-335.275	-41.721	0.208	0.107
-334.260	-134.447	0.274	0.033
-333.245	59.467	-0.229	-0.225
-332.231	-170.311	-0.472	0.017
-331.216	107.482	0.233	-0.276
-330.202	-200.000	0.004	0.242
-329.187	-102.572	-0.143	0.034
-328.172	800.000	-0.041	-0.140
-327.158	92.576	0.042	-0.047
-326.143	262.745	0.047	-0.081
-325.129	800.000	-0.117	0.328
-324.114	127.296	-0.133	0.169
-323.099	-133.867	0.045	0.006
-322.085	-86.652	-0.029	0.009
-321.070	-129.127	0.148	-0.021
-320.056	45.492	-0.147	-0.135
-319.041	-40.007	0.145	-0.075
-318.026	-71.047	0.324	-0.121
-317.012	-200.000	0.009	0.379
-315.997	-16.468	0.365	0.231
-314.983	212.821	-0.212	-0.334
-313.968	-114.348	-0.107	0.021
-312.953	-200.000	-0.012	-0.055
-311.939	-31.159	-0.128	-0.072
-310.924	-145.752	0.136	0.012
-309.910	-101.138	0.208	-0.051
-308.895	85.149	-0.101	-0.110
-307.880	271.337	0.131	0.230
-306.866	-135.811	0.259	0.030
-305.851	-200.000	0.021	-0.242
-304.837	406.932	-0.064	0.134
-303.822	56.770	-0.190	0.185
-302.807	800.000	0.066	0.215
-301.793	243.438	-0.105	0.175
-300.778	-63.068	0.213	0.088
-299.764	800.000	0.049	-0.141
-298.749	309.096	0.093	0.174
-297.735	-200.000	-0.091	0.437
-296.720	-200.000	-0.007	-0.285
-295.705	-85.979	-0.342	0.105
-294.691	-56.455	-0.365	0.161
-293.676	-80.061	-0.040	0.013
-292.662	800.000	-0.029	-0.096
-291.647	-95.432	-0.179	-0.048
-290.632	58.137	-0.023	0.022
-289.618	345.965	0.159	-0.312
-288.603	85.448	0.143	-0.157
-287.589	-72.647	-0.186	-0.068
-286.574	470.631	-0.101	-0.226
-285.559	59.908	-0.098	0.097
-284.545	123.024	0.247	0.309
-283.530	-97.358	-0.334	-0.087
-282.516	157.084	0.253	0.349
-281.501	800.000	-0.039	0.123
-280.486	-103.779	0.200	-0.047
-279.472	478.705	-0.145	0.326
-278.457	-200.000	0.024	0.268
-277.443	-200.000	-0.008	-0.199
-276.428	445.419	-0.092	0.200
-275.413	-200.000	-0.064	0.346
-274.399	412.127	0.068	-0.144
-273.384	-131.264	-0.143	-0.019
-272.370	800.000	0.120	-0.342
-271.355	140.318	-0.305	0.401
-270.340	-91.116	-0.250	-0.071
-269.326	-45.546	-0.126	-0.062
-268.311	144.631	0.184	0.244
-267.297	800.000	0.040	0.162
-266.282	-71.935	-0.108	0.040
-265.267	49.133	0.036	0.034
-264.253	-55.020	0.209	-0.094
-263.238	-124.130	0.227	0.035
-262.224	83.845	0.063	-0.069
-261.209	208.709	-0.038	0.059
-260.195	-200.000	0.001	-0.191
-259.180	-200.000	-0.009	-0.144
-258.165	258.082	-0.130	0.223
-257.151	10.117	0.195	0.147
-256.136	-117.350	-0.042	-0.008
-255.122	-200.000	-0.044	-0.273
-254.107	228.708	-0.118	0.191
-253.092	-47.300	-0.081	-0.039
-252.078	16.057	0.286	0.224
-251.063	163.142	-0.099	0.139
-250.049	-31.336	0.182	-0.102
-249.034	187.941	-0.176	-0.261
-248.019	-125.162	0.161	-0.025
-247.005	-200.000	-0.031	-0.178
-245.990	-92.698	0.192	-0.053
-244.976	509.608	0.091	0.210
-243.961	-80.983	-0.100	-0.033
-242.946	-200.000	0.011	0.119
-241.932	-29.277	0.091	-0.052
-240.917	-97.568	-0.277	0.071
-239.903	5.895	0.338	-0.249
-238.888	13.573	-0.249	-0.192
-237.873	-200.000	0.012	0.098
-236.859	-200.000	-0.075	-0.349
-235.844	-37.448	-0.184	0.097
-234.830	-112.516	0.576	0.114
-233.815	95.888	-0.151	0.171
-232.800	44.360	-0.133	-0.121
-231.786	-200.000	-0.001	-0.323
-230.771	-200.000	-0.035	0.300
-229.757	-131.595	-0.249	0.033
-228.742	800.000	0.120	0.347
-227.727	25.699	-0.129	0.107
-226.713	800.000	0.030	-0.114
-225.698	316.568	0.172	0.323
-224.684	-200.000	0.031	0.206
-223.669	800.000	0.061	-0.175
-222.655	202.573	-0.191	0.294
-221.640	-122.616	-0.135	0.022
-220.625	-173.075	-0.069	-0.002
-219.611	131.383	-0.155	0.198
-218.596	-178.843	0.379	0.009
-217.582	228.184	-0.087	-0.140
-216.567	35.472	-0.087	-0.076
-215.552	-3.496	-0.166	-0.115
-214.538	800.000	-0.050	-0.136
-213.523	-200.000	-0.041	-0.184
-212.509	36.217	0.260	0.227
-211.494	-121.145	0.076	0.013
-210.479	64.797	0.224	0.224
-209.465	140.349	-0.082	-0.108
-208.450	309.782	0.149	-0.278
-207.436	-179.595	-0.135	-0.003
-206.421	-138.737	-0.254	0.028
-205.406	-200.000	-0.026	-0.169
-204.392	5.187	-0.034	0.025
-203.377	37.005	0.133	-0.117
-202.363	-200.000	0.052	-0.253
-201.348	-115.050	0.413	-0.078
-200.333	800.000	0.093	-0.267
-199.319	415.499	0.110	0.234
-198.304	-24.357	0.175	-0.104
-197.290	280.320	-0.142	-0.251
-196.275	83.227	0.074	0.080
-195.260	-110.279	0.145	-0.030
-194.246	-200.000	0.005	0.128
-193.231	800.000	0.107	-0.405
-192.217	105.173	-0.088	0.103
-191.202	22.827	0.145	0.118
-190.187	463.022	-0.085	-0.188
-189.173	-200.000	-0.009	0.215
-188.158	131.033	-0.229	0.292
-187.144	-101.563	0.227	-0.055
-186.129	287.577	0.056	-0.100
-185.114	21.250	0.214	-0.173
-184.100	403.572	0.049	0.101
-183.085	134.711	0.062	-0.079
-182.071	800.000	-0.083	0.291
-181.056	-200.000	0.019	0.206
-180.042	384.556	0.070	0.144
-179.027	506.364	-0.102	0.235
-178.012	-6.245	-0.256	0.174
-176.998	179.710	0.164	0.238
-175.983	800.000	-0.107	-0.394
-174.969	358.733	-0.109	0.216
-173.954	-78.488	0.141	0.048
-172.939	49.836	0.065	0.061
-171.925	-122.021	0.052	-0.008
-170.910	-70.055	-0.073	0.027
-169.896	-39.892	0.093	-0.048
-168.881	-44.562	-0.074	0.037
-167.866	5.011	0.272	0.198
-166.852	-200.000	-0.008	-0.034
-165.837	-145.474	-0.125	-0.011
-164.823	5.787	0.079	0.058
-163.808	-40.012	-0.009	-0.004
-162.793	-67.201	0.222	0.087
-161.779	-104.356	-0.420	-0.096
-160.764	-200.000	0.030	0.170
-159.750	32.330	0.215	-0.184
-158.735	24.819	-0.102	-0.084
-157.720	364.739	0.062	0.124
-156.706	92.108	0.143	0.160
-155.691	-186.160	-0.305	0.004
-154.677	800.000	-0.054	0.176
-153.662	481.915	0.080	0.180
-152.647	-200.000	-0.008	-0.186
-151.633	110.141	-0.016	0.019
-150.618	800.000	-0.060	0.258
-149.604	-177.154	0.146	-0.004
-148.589	-69.683	0.187	-0.071
-147.574	648.834	0.059	0.150
-146.560	661.295	0.107	-0.273
-145.545	-128.375	-0.103	0.015
-144.531	-70.388	0.389	0.146
-143.516	-142.619	0.251	-0.024
-142.502	180.200	-0.113	0.164
-141.487	574.729	-0.124	0.299
-140.472	-50.307	-0.104	-0.049
-139.458	-113.617	-0.271	0.052
-138.443	-22.726	-0.187	0.112
-137.429	180.346	0.063	-0.091
-136.414	-82.815	0.126	0.040
-135.399	25.910	-0.236	-0.195
-134.385	-43.698	0.127	-0.063
-133.370	40.682	-0.136	0.122
-132.356	-138.202	0.410	0.045
-131.341	71.749	-0.200	0.206
-130.326	-200.000	-0.027	0.125
-129.312	800.000	-0.043	-0.181
-128.297	-200.000	-0.017	0.092
-127.283	-125.759	0.143	0.021
-126.268	128.237	0.099	0.125
-125.253	161.559	-0.088	-0.122
-124.239	-104.795	0.089	0.020
-123.224	-27.564	-0.166	-0.096
-122.210	-200.000	-0.035	-0.286
-121.195	800.000	-0.071	-0.204
-120.180	-200.000	-0.006	-0.282
-119.166	-113.073	0.133	0.026
-118.151	1.411	0.055	-0.039
-117.137	-200.000	0.032	0.323
-116.122	62.163	0.294	0.290
-115.107	384.933	-0.002	0.005
-114.093	-143.741	0.221	0.021
-113.078	32.044	0.208	0.178
-112.064	161.972	0.168	0.233
-111.049	109.905	-0.107	-0.127
-110.034	-55.084	0.279	0.124
-109.020	-139.265	0.161	-0.017
-108.005	16.114	0.186	0.145
-106.991	-123.874	-0.300	-0.047
-105.976	800.000	0.073	0.264
-104.962	800.000	-0.020	-0.058
-103.947	27.107	0.166	0.137
-102.932	-37.476	0.064	0.034
-101.918	-200.000	0.005	-0.147
-100.903	800.000	-0.031	0.105
-99.889	-57.548	0.378	-0.164
-98.874	145.387	0.019	0.025
-97.859	-200.000	-0.019	0.296
-96.845	-77.809	-0.466	0.159
-95.830	-108.590	0.401	-0.085
-94.816	81.632	-0.088	0.094
-93.801	170.022	0.197	0.279
-92.786	-29.384	-0.195	0.110
-91.772	-78.942	0.331	-0.111
-90.757	228.612	0.239	-0.384
-89.743	-63.576	0.137	0.055
-88.728	-3.576	0.206	-0.142
-87.713	-200.000	0.031	0.237
-86.699	91.892	-0.108	-0.120
-85.684	135.493	0.095	0.122
-84.670	-21.420	-0.124	0.075
-83.655	443.426	-0.051	-0.110
-82.640	42.672	-0.110	-0.099
-81.626	800.000	0.070	0.200
-80.611	-192.847	0.095	0.001
-79.597	215.869	-0.112	-0.175
-78.582	25.908	-0.090	-0.074
-77.567	-3.950	-0.118	-0.081
-76.553	77.180	0.182	0.191
-75.538	-162.386	0.155	0.008
-74.524	-115.721	0.235	0.043
-73.509	-49.404	0.425	0.200
-72.494	234.169	0.223	0.363
-71.480	-200.000	-0.022	0.472
-70.465	21.608	-0.214	-0.172
-69.451	244.337	0.120	0.200
-68.436	800.000	-0.095	0.346
-67.422	137.106	-0.170	-0.220
-66.407	432.710	0.210	0.451
-65.392	-71.554	-0.080	0.030
-64.378	-200.000	0.062	0.276
-63.363	202.276	-0.137	-0.209
-62.349	800.000	0.029	0.105
-61.334	75.806	-0.816	-0.852
-60.319	95.957	0.465	0.524
-59.305	-200.000	0.134	-0.907
-58.290	214.262	0.587	0.918
-57.276	354.983	0.694	1.363
-56.261	-200.000	94.439	567.288
-55.246	548.414	1379.708	3261.903
-54.232	155.727	2570.692	3495.745
-53.217	112.937	2191.560	2621.418
-52.203	45.528	1728.832	1575.610
-51.188	38.455	1538.183	1353.121
-50.173	35.809	1511.002	1311.149
-49.159	54.880	1557.338	1483.563
-48.144	57.699	1575.728	1520.495
-47.130	38.521	1535.780	1351.249
-46.115	35.404	1520.530	1316.433
-45.100	35.252	1517.246	1312.493
-44.086	35.138	1515.251	1309.940
-43.071	35.147	1513.261	1308.228
-42.057	35.063	1511.974	1306.489
-41.042	35.147	1511.006	1306.174
-40.027	35.117	1509.168	1304.333
-39.013	35.104	1507.579	1302.819
-37.998	35.057	1506.757	1301.736
-36.984	35.044	1505.890	1300.844
-35.969	35.157	1504.196	1300.099
-34.954	35.087	1502.532	1298.131
-33.940	35.115	1501.252	1297.168
-32.925	35.151	1499.980	1296.261
-31.911	35.211	1498.723	1295.529
-30.896	35.157	1497.145	1293.750
-29.881	35.278	1495.797	1293.344
-28.867	35.166	1494.429	1291.359
-27.852	35.275	1492.790	1290.626
-26.838	35.165	1491.819	1288.995
-25.823	35.146	1489.936	1287.190
-24.809	35.220	1488.328	1286.243
-23.794	35.232	1486.529	1284.717
-22.779	35.198	1485.853	1283.857
-21.765	35.183	1484.673	1282.686
-20.750	35.209	1483.204	1281.540
-19.736	35.222	1482.688	1281.128
-18.721	35.110	1481.406	1279.224
-17.706	35.240	1480.125	1278.934
-16.692	35.104	1479.207	1277.179
-15.677	35.190	1478.037	1276.693
-14.663	35.183	1476.847	1275.566
-13.648	35.049	1477.201	1274.930
-12.633	35.116	1475.652	1273.988
-11.619	35.148	1474.959	1273.555
-10.604	35.050	1474.354	1272.329
-9.590	35.154	1472.826	1271.652
-8.575	35.093	1472.298	1270.736
-7.560	35.211	1471.078	1270.416
-6.546	35.280	1469.880	1269.788
-5.531	35.251	1469.249	1269.003
-4.517	35.150	1468.538	1267.667
-3.502	35.127	1467.231	1266.340
-2.487	35.101	1466.924	1265.850
-1.473	35.111	1465.750	1264.855
-0.458	35.067	1464.090	1263.080
0.556	34.014	1453.603	1247.121
1.571	29.075	1424.272	1190.012
2.586	23.131	1358.687	1098.330
3.600	19.988	1272.812	1010.513
4.615	18.184	1225.854	962.995
5.629	15.710	1171.780	907.109
6.644	8.704	1087.743	806.782
7.659	2.418	1046.912	745.864
8.673	1.346	1040.897	736.318
9.688	1.259	1037.862	733.685
10.702	1.049	1037.118	732.076
11.717	1.196	1035.045	731.261
12.731	3.334	1036.945	742.854
13.746	10.603	1045.878	784.438
14.761	16.710	1053.340	819.611
15.775	17.929	1054.634	826.451
16.790	17.573	1053.270	823.587
17.804	16.565	1050.986	816.863
18.819	15.650	1049.678	811.362
19.834	15.155	1048.012	807.616
20.848	14.963	1046.916	805.774
21.863	14.657	1046.030	803.549
22.877	14.347	1045.806	801.812
23.892	14.212	1044.404	800.018
24.907	13.986	1043.705	798.325
25.921	14.102	1042.805	798.123
26.936	14.101	1042.252	797.623
27.950	14.181	1042.056	797.790
28.965	14.345	1040.678	797.448
29.980	14.225	1040.029	796.306
30.994	14.288	1038.947	795.707
32.009	14.234	1038.443	794.993
33.023	14.292	1037.983	794.849
34.038	14.384	1036.721	794.249
35.053	14.341	1036.182	793.562
36.067	14.226	1035.584	792.486
37.082	14.375	1034.193	792.061
38.096	14.323	1033.335	791.086
39.111	14.392	1032.894	791.004
40.126	14.358	1032.223	790.258
41.140	14.358	1030.655	788.988
42.155	14.073	1030.371	787.353
43.169	14.199	1028.957	786.797
44.184	14.248	1028.038	786.259
45.199	14.211	1027.112	785.305
46.213	14.112	1026.285	784.139
47.228	14.165	1025.112	783.421
48.242	14.091	1024.564	782.586
49.257	14.192	1023.070	781.850
50.271	14.107	1022.574	781.003
51.286	14.175	1021.659	780.553
52.301	14.232	1020.672	779.996
53.315	14.277	1019.608	779.323
54.330	14.240	1018.891	778.536
55.344	14.227	1017.826	777.591
56.359	14.181	1016.752	776.489
57.374	14.222	1016.028	776.060
58.388	14.184	1015.552	775.449
59.403	14.215	1014.684	774.860
60.417	14.119	1014.328	774.072
61.432	14.135	1013.471	773.425
62.447	14.049	1012.708	772.373
63.461	14.109	1011.586	771.731
64.476	14.139	1010.802	771.201
65.490	14.262	1009.832	770.965
66.505	14.154	1009.054	769.801
67.520	14.221	1007.993	769.236
68.534	14.163	1007.512	768.531
69.549	14.151	1006.571	767.690
70.563	14.122	1006.226	767.225
71.578	14.145	1005.891	767.008
72.593	14.148	1004.568	765.945
73.607	14.177	1003.572	765.251
74.622	14.012	1003.233	764.165
75.636	14.064	1001.800	763.244
76.651	14.051	1001.323	762.755
77.666	14.151	1000.623	762.614
78.680	13.991	1000.097	761.410
79.695	14.150	999.155	761.355
80.709	14.192	998.348	760.863
81.724	14.110	997.618	759.865
82.739	14.134	996.736	759.237
83.753	14.070	996.223	758.487
84.768	14.180	995.407	758.301
85.782	14.283	994.260	757.827
86.797	14.316	993.808	757.567
87.812	14.347	992.619	756.734
88.826	14.090	992.440	755.361
89.841	14.255	991.299	755.177
90.855	14.306	990.481	754.717
91.870	14.253	989.872	753.948
92.884	14.312	989.189	753.629
93.899	14.328	988.533	753.131
94.914	14.224	987.853	752.077
95.928	14.417	986.741	752.037
96.943	14.403	986.279	751.554
97.957	14.432	985.639	751.129
98.972	14.303	984.989	749.989
99.987	14.264	983.991	748.988
101.001	14.323	982.903	748.356
102.016	14.338	982.173	747.801
103.030	14.317	981.405	747.055
104.045	14.387	980.500	746.617
105.060	14.411	979.541	745.926
106.074	14.370	978.439	744.837
107.089	14.440	977.669	744.500
108.103	14.247	977.207	743.220
109.118	14.275	976.004	742.363
110.133	14.359	975.263	742.108
111.147	14.187	974.581	740.758
112.162	14.251	973.574	740.213
113.176	14.225	972.875	739.501
114.191	14.343	971.851	739.180
115.206	14.209	970.968	737.850
116.220	14.373	970.353	738.041
117.235	14.297	969.200	736.763
118.249	14.391	968.260	736.400
119.264	14.251	967.813	735.377
120.279	14.235	966.878	734.529
121.293	14.160	966.369	733.747
122.308	14.245	965.666	733.522
123.322	14.261	964.804	732.873
124.337	14.214	963.893	731.909
125.352	14.116	962.946	730.694
126.366	14.163	961.784	729.954
127.381	13.985	961.426	728.841
128.395	14.189	959.885	728.498
129.410	14.257	958.666	727.809
130.424	14.260	957.587	726.938
131.439	14.318	956.821	726.543
132.454	14.393	955.856	726.072
133.468	14.383	955.456	725.662
134.483	14.357	954.924	725.083
135.497	14.395	954.286	724.698
136.512	14.395	953.094	723.729
137.527	14.329	952.884	723.217
138.541	14.224	952.003	722.030
139.556	14.348	951.299	721.970
140.570	14.376	950.085	721.105
141.585	14.332	949.848	720.672
142.600	14.447	948.996	720.456
143.614	14.429	948.116	719.647
144.629	14.512	947.461	719.446
145.643	14.513	946.381	718.567
146.658	14.408	945.623	717.477
147.673	14.392	945.056	716.912
148.687	14.407	943.689	715.879
149.702	14.466	943.064	715.593
150.716	14.371	942.073	714.371
151.731	14.471	941.102	713.999
152.746	14.401	940.728	713.351
153.760	14.442	940.258	713.107
154.775	14.397	939.529	712.301
155.789	14.429	938.393	711.511
156.804	14.436	937.805	711.033
157.819	14.424	936.990	710.300
158.833	14.612	936.070	710.343
159.848	14.481	935.863	709.566
160.862	14.401	935.323	708.750
161.877	14.539	934.363	708.548
162.892	14.398	933.565	707.280
163.906	14.475	932.653	706.853
164.921	14.405	931.759	705.818
165.935	14.482	930.763	705.329
166.950	14.470	930.042	704.670
167.964	14.636	929.160	704.636
168.979	14.581	928.007	703.467
169.994	14.608	927.074	702.814
171.008	14.519	926.617	702.031
172.023	14.796	925.663	702.411
173.037	14.626	925.066	701.179
174.052	14.635	924.295	700.574
175.067	14.719	923.434	700.208
176.081	14.682	922.804	699.515
177.096	14.652	921.424	698.283
178.110	14.638	921.254	698.032
179.125	14.591	920.272	697.030
180.140	14.552	919.608	696.301
181.154	14.713	919.027	696.472
182.169	14.808	918.417	696.346
183.183	14.712	917.748	695.375
184.198	14.680	917.034	694.640
185.213	14.675	916.410	694.087
186.227	14.818	915.714	694.090
187.242	14.774	915.071	693.358
188.256	14.868	914.801	693.485
189.271	14.843	914.066	692.759
190.286	14.851	913.329	692.174
191.300	14.756	912.694	691.240
192.315	14.782	911.735	690.557
193.329	14.591	911.318	689.394
194.344	14.574	910.528	688.665
195.359	14.684	910.190	688.801
196.373	14.861	909.355	688.837
197.388	14.855	908.561	688.150
198.402	14.894	907.781	687.662
199.417	14.907	907.574	687.494
200.432	14.885	907.287	687.129
201.446	14.957	906.998	687.144
202.461	15.072	906.389	687.091
203.475	15.109	905.987	686.879
204.490	15.079	905.353	686.215
205.504	15.202	904.091	685.702
206.519	15.054	903.597	684.658
207.534	15.073	902.887	684.138
208.548	15.264	902.001	684.186
209.563	14.928	901.700	682.526
210.577	15.087	900.906	682.516
211.592	15.168	900.041	682.127
212.607	15.153	899.971	681.954
213.621	15.202	899.093	681.427
214.636	15.241	898.490	681.069
215.650	15.234	897.529	680.252
216.665	15.219	897.038	679.760
217.680	15.265	896.660	679.599
218.694	15.303	896.335	679.447
219.709	15.231	895.743	678.645
220.723	15.069	895.244	677.552
221.738	15.393	894.089	677.926
222.753	15.367	893.508	677.323
223.767	15.352	892.652	676.553
224.782	15.342	892.291	676.177
225.796	15.325	891.136	675.175
226.811	15.320	890.780	674.827
227.826	15.331	890.250	674.409
228.840	15.416	889.366	674.018
229.855	15.369	888.875	673.401
230.869	15.363	888.477	673.015
231.884	15.352	887.518	672.187
232.899	15.394	886.676	671.657
233.913	15.394	886.137	671.188
234.928	15.410	885.336	670.587
235.942	15.489	884.471	670.185
236.957	15.531	883.912	669.871
237.972	15.325	883.486	668.666
238.986	15.383	882.707	668.250
240.001	15.347	882.193	667.658
241.015	15.440	881.426	667.389
242.030	15.497	880.748	667.042
243.045	15.503	879.985	666.431
244.059	15.343	880.207	665.902
245.074	15.708	878.964	666.352
246.088	15.523	878.331	665.079
247.103	15.572	877.853	664.852
248.117	15.626	877.315	664.600
249.132	15.684	876.860	664.426
250.147	15.800	875.782	664.009
251.161	15.664	875.540	663.230
252.176	15.710	874.855	662.832
253.190	15.909	873.768	662.734
254.205	15.840	873.311	662.056
255.220	15.959	872.724	662.021
256.234	15.988	872.039	661.559
257.249	15.817	871.565	660.468
258.263	16.001	871.206	660.858
259.278	15.864	870.479	659.713
260.293	16.012	869.909	659.802
261.307	15.976	869.291	659.135
262.322	15.919	868.688	658.395
263.336	16.076	867.957	658.395
264.351	16.009	867.316	657.589
265.366	16.078	866.542	657.214
266.380	16.206	865.781	657.076
267.395	16.090	865.474	656.336
268.409	16.018	864.702	655.411
269.424	15.977	864.717	655.203
270.439	16.158	863.133	654.648
271.453	16.133	862.546	654.050
272.468	16.150	862.136	653.747
273.482	16.135	861.200	652.920
274.497	16.110	860.758	652.430
275.512	16.199	860.252	652.335
276.526	16.161	859.292	651.403
277.541	16.132	858.907	650.939
278.555	16.132	858.225	650.367
279.570	16.270	858.177	650.804
280.585	16.273	857.090	649.934
281.599	16.328	856.715	649.803
282.614	16.202	856.094	648.791
283.628	16.401	855.383	648.961
284.643	16.327	855.018	648.341
285.657	16.322	854.630	647.968
286.672	16.239	854.156	647.234
287.687	16.302	853.488	646.914
288.701	16.477	852.495	646.773
289.716	16.451	852.119	646.330
290.730	16.318	851.731	645.469
291.745	16.455	850.808	645.237
292.760	16.471	850.194	644.776
293.774	16.335	849.941	644.005
294.789	16.499	849.302	644.092
295.803	16.552	848.659	643.750
296.818	16.492	848.008	642.969
297.833	16.449	847.381	642.275
298.847	16.499	847.026	642.136
299.862	16.708	845.868	641.996
300.876	16.574	845.377	641.060
301.891	16.576	844.996	640.721
302.906	16.566	844.155	639.986
303.920	16.664	843.216	639.588
304.935	16.592	843.070	639.150
305.949	16.718	842.189	638.902
306.964	16.812	841.305	638.530
307.979	16.701	840.832	637.697
308.993	16.606	840.724	637.199
310.008	16.678	840.372	637.146
311.022	16.762	839.743	636.930
312.037	16.854	838.870	636.556
313.052	16.672	838.548	635.573
314.066	16.931	837.509	635.699
315.081	16.609	837.261	634.249
316.095	16.669	836.763	634.041
317.110	16.723	836.305	633.840
318.125	16.809	835.705	633.648
319.139	16.697	835.125	632.737
320.154	16.727	834.623	632.413
321.168	16.845	834.001	632.324
322.183	16.869	833.639	632.083
323.197	16.782	833.303	631.448
324.212	16.881	832.508	631.160
325.227	16.793	832.406	630.700
326.241	16.912	831.518	630.413
327.256	16.797	831.251	629.727
328.270	16.862	830.686	629.484
329.285	16.973	829.842	629.201
330.300	16.819	829.582	628.377
331.314	16.923	828.815	628.125
332.329	16.905	828.252	627.574
333.343	17.000	827.354	627.190
334.358	17.079	826.715	626.941
335.373	17.152	826.128	626.713
336.387	16.984	826.125	626.035
337.402	17.018	825.291	625.472
338.416	17.120	824.958	625.539
339.431	17.222	824.310	625.370
340.446	17.147	823.623	624.517
341.460	17.090	823.235	623.959
342.475	17.150	822.962	623.916
343.489	17.284	821.902	623.550
344.504	17.302	821.212	623.036
345.519	17.292	820.974	622.764
346.533	17.385	820.209	622.468
347.548	17.287	820.371	622.179
348.562	17.359	819.506	621.729
349.577	17.298	818.879	620.977
350.592	17.222	818.538	620.387
351.606	17.139	818.347	619.883
352.621	17.256	817.933	619.942
353.635	17.250	817.127	619.254
354.650	17.332	816.950	619.362
355.665	17.255	816.808	618.919
356.679	17.296	816.293	618.625
357.694	17.415	815.509	618.406
358.708	17.397	815.122	617.996
359.723	17.448	814.284	617.491
360.738	17.414	813.526	616.738
361.752	17.485	813.185	616.683
362.767	17.490	812.842	616.383
363.781	17.529	812.303	616.061
364.796	17.522	812.096	615.826
365.810	17.521	811.834	615.568
366.825	17.679	811.292	615.676
367.840	17.596	810.677	614.852
368.854	17.524	810.576	614.462
369.869	17.674	809.850	614.400
370.883	17.632	809.130	613.648
371.898	17.692	808.586	613.398
372.913	17.821	807.730	613.157
373.927	17.777	807.452	612.734
374.942	17.759	806.890	612.188
375.956	17.841	806.107	611.833
376.971	17.833	805.790	611.508
377.986	17.889	805.336	611.313
379.000	17.834	804.808	610.658
380.015	17.933	804.170	610.477
381.029	17.943	803.759	610.144
382.044	17.862	803.054	609.268
383.059	17.816	802.533	608.654
384.073	17.882	802.033	608.455
385.088	17.865	801.888	608.233
386.102	17.808	801.143	607.410
387.117	17.872	800.452	607.061
388.132	17.939	800.059	606.945
389.146	17.912	799.632	606.474
390.161	17.981	799.107	606.267
391.175	17.829	799.565	606.019
392.190	17.922	798.965	605.841
393.205	17.865	798.490	605.224
394.219	17.838	798.276	604.914
395.234	17.916	797.574	604.604
396.248	17.986	796.432	603.933
397.263	18.067	796.167	603.964
398.278	17.864	795.680	602.825
399.292	17.869	795.573	602.708
400.307	17.931	794.880	602.348
401.321	18.209	794.298	602.834
402.336	17.964	794.067	601.741
403.350	18.075	793.660	601.772
404.365	18.202	793.032	601.688
405.380	18.235	792.612	601.432
406.394	18.158	792.225	600.815
407.409	18.280	791.665	600.765
408.423	18.285	791.670	600.733
409.438	18.165	791.145	599.863
410.453	18.323	790.796	600.099
411.467	18.208	790.112	599.123
412.482	18.353	789.754	599.304
413.496	18.402	789.444	599.190
414.511	18.378	789.114	598.802
415.526	18.439	788.715	598.660
416.540	18.529	788.213	598.538
417.555	18.294	788.107	597.586
418.569	18.292	787.630	597.163
419.584	18.360	786.832	596.744
420.599	18.517	786.466	596.960
421.613	107.010	1283.699	1447.718
422.628	91.719	1356.108	1447.838
