DTS Sentinel unit serial number:	SN413079Multiplexer serial number:	ORYXHardware model number:	OX4-SRSoftware version number:	ORYX F/W v4.00 Oryx Data Collector v3.7.2.0data status	okinstallation	princeton_trtdifferential loss correction	single-endedforward channel	channel 3reverse channel	N/Adate	2019/09/11time	08:14:11forward acquisition time	60.00reverse acquisition time	0.00gamma	496.2192k internal	0.2318k external	0.2318temperature offset calibration	0.9952default loss term (dB/km)	0.3790temperature slope calibration	1.0000multiplexer offset coefficient	1.0000multiplexer slope coefficient	1.0000fibre end	0.00T internal ref (°C)	32.52T ext. ref 1 (°C)	0.22T ext. ref 2 (°C)	29.46length (m)	temperature (°C)	Stokes	anti-Stokes-747.200	-178.072	-0.100	-0.002
-746.185	-50.688	-0.095	-0.045
-745.171	52.071	-0.202	0.195
-744.156	62.530	-0.213	0.216
-743.142	-149.758	0.323	-0.026
-742.127	66.709	-0.116	0.119
-741.112	-69.186	0.310	-0.121
-740.098	-8.004	0.147	0.101
-739.083	-129.633	0.167	0.023
-738.069	800.000	0.081	0.240
-737.054	-58.551	0.106	0.047
-736.039	-200.000	-0.005	-0.146
-735.025	-199.943	0.378	0.002
-734.010	191.567	-0.106	-0.161
-732.996	-200.000	-0.019	-0.357
-731.981	-200.000	0.058	-0.330
-730.966	794.739	-0.120	-0.334
-729.952	-138.418	-0.106	0.012
-728.937	800.000	-0.067	-0.210
-727.923	-200.000	0.024	-0.329
-726.908	800.000	-0.095	-0.365
-725.894	800.000	0.084	-0.264
-724.879	-200.000	0.031	-0.241
-723.864	424.112	-0.263	0.573
-722.850	55.119	-0.158	-0.154
-721.835	-95.662	-0.343	0.093
-720.821	131.135	-0.177	-0.230
-719.806	-45.926	-0.208	0.104
-718.791	-173.856	-0.248	-0.007
-717.777	-94.983	-0.123	-0.034
-716.762	-123.315	-0.225	0.036
-715.748	-12.271	0.295	-0.195
-714.733	19.738	-0.251	0.205
-713.718	-52.075	-0.182	-0.085
-712.704	-200.000	-0.007	0.121
-711.689	-147.387	-0.088	0.008
-710.675	325.739	-0.082	-0.158
-709.660	-61.354	-0.050	-0.021
-708.645	7.116	-0.157	-0.118
-707.631	-35.125	0.094	-0.051
-706.616	-12.124	-0.309	-0.204
-705.602	-110.219	-0.136	-0.029
-704.587	209.487	0.273	-0.433
-703.572	322.937	0.051	0.098
-702.558	493.323	0.103	0.239
-701.543	-101.224	0.094	-0.023
-700.529	158.930	-0.167	-0.235
-699.514	-200.000	-0.052	0.254
-698.499	-200.000	0.025	-0.160
-697.485	-62.059	-0.360	-0.152
-696.470	140.585	0.246	-0.328
-695.456	-95.384	-0.066	0.018
-694.441	-27.106	-0.129	0.076
-693.426	-145.356	0.249	-0.023
-692.412	44.407	0.131	0.122
-691.397	107.857	0.033	-0.039
-690.383	-200.000	-0.050	-0.362
-689.368	-200.000	-0.035	-0.273
-688.354	-200.000	0.044	0.253
-687.339	-4.172	0.097	0.068
-686.324	-200.000	-0.005	-0.029
-685.310	-200.000	0.003	0.047
-684.295	800.000	0.043	-0.152
-683.281	229.269	-0.103	-0.170
-682.266	70.136	-0.160	-0.167
-681.251	800.000	-0.124	-0.380
-680.237	-41.780	-0.247	-0.128
-679.222	-29.814	0.199	0.114
-678.208	69.828	-0.024	0.025
-677.193	-46.959	-0.053	0.026
-676.178	800.000	0.033	-0.134
-675.164	800.000	0.029	-0.096
-674.149	-200.000	-0.023	-0.199
-673.135	-78.204	-0.289	-0.100
-672.120	-170.046	-0.239	0.009
-671.105	-146.465	0.120	-0.011
-670.091	408.813	0.079	-0.169
-669.076	-118.000	-0.342	-0.062
-668.062	395.144	-0.206	0.434
-667.047	-200.000	0.002	-0.263
-666.032	114.912	-0.089	-0.109
-665.018	-200.000	0.006	0.208
-664.003	-38.039	-0.200	0.107
-662.989	0.096	-0.113	0.082
-661.974	-111.910	-0.141	-0.029
-660.959	-200.000	0.047	-0.333
-659.945	-78.785	0.237	-0.081
-658.930	236.733	-0.078	-0.130
-657.916	721.117	0.098	-0.262
-656.901	352.629	0.120	-0.241
-655.886	-200.000	-0.016	-0.282
-654.872	140.241	-0.053	-0.070
-653.857	10.772	-0.295	0.227
-652.843	288.964	0.075	0.136
-651.828	51.339	0.184	-0.176
-650.814	800.000	-0.069	0.193
-649.799	70.935	0.276	0.288
-648.784	116.833	-0.141	-0.174
-647.770	100.837	0.408	0.478
-646.755	285.472	-0.170	0.309
-645.741	96.099	0.008	-0.009
-644.726	16.724	-0.047	0.038
-643.711	-101.041	0.255	-0.063
-642.697	55.808	0.143	0.140
-641.682	-44.660	-0.086	-0.043
-640.668	-38.447	0.234	0.125
-639.653	54.401	-0.256	-0.248
-638.638	-93.914	0.224	-0.062
-637.624	34.784	0.149	-0.131
-636.609	-200.000	-0.030	0.157
-635.595	-75.906	0.103	0.037
-634.580	-94.293	-0.126	0.035
-633.565	800.000	-0.078	-0.236
-632.551	199.076	-0.024	0.037
-631.536	38.166	-0.175	0.157
-630.522	270.958	-0.120	-0.213
-629.507	-106.752	0.186	-0.042
-628.492	41.922	0.287	-0.262
-627.478	800.000	0.019	0.061
-626.463	-81.931	-0.385	-0.127
-625.449	32.524	-0.218	0.190
-624.434	-200.000	0.014	0.343
-623.419	153.965	-0.073	-0.100
-622.405	24.660	0.118	-0.099
-621.390	-200.000	-0.019	0.312
-620.376	-53.274	-0.179	-0.083
-619.361	-119.164	0.123	-0.022
-618.346	17.622	-0.142	-0.114
-617.332	-200.000	0.005	-0.037
-616.317	-83.672	0.061	0.020
-615.303	800.000	-0.046	-0.165
-614.288	-91.585	-0.147	0.042
-613.273	-105.163	0.151	-0.035
-612.259	9.631	-0.223	0.170
-611.244	86.736	-0.185	-0.206
-610.230	83.187	0.053	-0.059
-609.215	-200.000	0.016	-0.232
-608.201	-13.014	0.172	0.113
-607.186	86.025	-0.163	-0.181
-606.171	800.000	0.097	-0.294
-605.157	-126.736	-0.394	-0.059
-604.142	-141.498	0.454	-0.046
-603.128	800.000	-0.105	0.335
-602.113	-200.000	-0.008	0.072
-601.098	-45.742	-0.298	-0.148
-600.084	120.710	-0.066	0.083
-599.069	501.997	-0.082	0.191
-598.055	55.757	-0.079	-0.077
-597.040	-51.642	-0.071	0.033
-596.025	-159.778	0.375	-0.021
-595.011	-200.000	-0.000	-0.061
-593.996	-29.536	-0.235	0.135
-592.982	2.935	-0.233	-0.170
-591.967	-166.810	0.214	0.009
-590.952	79.925	-0.092	0.100
-589.938	-109.923	-0.402	0.085
-588.923	139.004	-0.070	-0.093
-587.909	800.000	0.079	-0.280
-586.894	36.125	-0.275	-0.243
-585.879	-200.000	-0.010	-0.103
-584.865	800.000	0.047	-0.205
-583.850	-200.000	0.000	-0.038
-582.836	-33.226	0.268	-0.149
-581.821	-53.901	-0.112	-0.051
-580.806	-200.000	-0.007	-0.064
-579.792	44.326	-0.290	-0.268
-578.777	99.964	0.099	-0.115
-577.763	467.826	0.065	0.146
-576.748	800.000	0.047	0.191
-575.733	-154.831	-0.267	0.018
-574.719	182.436	-0.205	-0.304
-573.704	800.000	0.108	-0.358
-572.690	-90.815	0.247	-0.072
-571.675	-39.394	-0.049	0.026
-570.661	-16.318	0.301	-0.192
-569.646	139.793	-0.151	-0.200
-568.631	-200.000	0.012	0.103
-567.617	-123.257	-0.117	0.019
-566.602	-13.485	-0.157	-0.102
-565.588	-17.457	0.275	-0.174
-564.573	274.834	-0.142	-0.252
-563.558	399.027	0.045	-0.095
-562.544	-69.640	-0.073	0.028
-561.529	458.531	-0.095	-0.212
-560.515	-18.838	0.257	0.161
-559.500	-10.457	-0.128	-0.085
-558.485	-19.553	-0.176	0.109
-557.471	-200.000	0.015	0.252
-556.456	205.276	0.112	0.175
-555.442	-109.882	-0.490	0.103
-554.427	479.699	0.072	-0.165
-553.412	196.591	0.263	-0.402
-552.398	-69.143	-0.112	-0.043
-551.383	800.000	0.234	0.671
-550.369	-35.679	0.269	0.146
-549.354	-33.585	0.171	0.095
-548.339	88.544	0.146	-0.163
-547.325	16.829	0.267	0.212
-546.310	341.798	0.071	-0.140
-545.296	4.252	0.149	0.110
-544.281	-94.672	-0.324	0.088
-543.266	-96.011	0.272	0.073
-542.252	-200.000	0.040	0.199
-541.237	327.823	0.165	0.319
-540.223	99.176	-0.185	0.214
-539.208	-0.243	-0.201	0.143
-538.193	6.561	-0.195	0.146
-537.179	800.000	-0.054	0.167
-536.164	800.000	-0.123	0.413
-535.150	756.388	-0.096	0.261
-534.135	-164.136	0.195	0.009
-533.121	-70.562	0.144	-0.055
-532.106	-121.957	0.347	-0.057
-531.091	-2.160	0.035	0.025
-530.077	-153.412	0.368	0.026
-529.062	666.207	-0.104	-0.269
-528.048	-51.747	-0.123	-0.058
-527.033	-86.838	0.092	-0.028
-526.018	-41.855	-0.252	0.129
-525.004	97.013	0.069	-0.080
-523.989	279.016	0.139	-0.248
-522.975	64.604	0.090	0.091
-521.960	182.216	-0.220	-0.326
-520.945	28.430	0.123	-0.105
-519.931	34.942	0.214	0.188
-518.916	32.232	0.138	-0.120
-517.902	380.964	0.087	0.178
-516.887	-52.403	0.025	0.012
-515.872	-64.250	0.157	-0.064
-514.858	343.049	0.178	0.350
-513.843	-180.931	0.168	0.003
-512.829	-200.000	-0.006	-0.039
-511.814	137.087	-0.141	-0.185
-510.799	-38.790	-0.195	0.103
-509.785	66.971	-0.109	-0.111
-508.770	-42.389	-0.159	-0.081
-507.756	228.883	-0.129	-0.211
-506.741	-200.000	-0.012	-0.150
-505.726	123.068	0.180	-0.227
-504.712	245.510	-0.113	0.190
-503.697	456.056	-0.084	-0.187
-502.683	-200.000	-0.007	0.218
-501.668	217.438	0.021	-0.034
-500.653	-151.691	-0.152	0.011
-499.639	-17.583	-0.046	-0.029
-498.624	-200.000	0.028	-0.243
-497.610	-200.000	-0.000	-0.130
-496.595	473.663	0.021	-0.046
-495.581	800.000	0.015	0.048
-494.566	305.723	0.084	-0.156
-493.551	800.000	0.051	0.175
-492.537	-65.174	0.246	0.099
-491.522	688.628	-0.080	-0.210
-490.508	800.000	-0.053	-0.211
-489.493	800.000	-0.054	0.227
-488.478	80.211	0.100	-0.108
-487.464	-52.079	-0.219	0.102
-486.449	-81.871	0.254	0.083
-485.435	237.105	-0.202	0.336
-484.420	-200.000	0.098	-0.436
-483.405	379.928	0.165	-0.339
-482.391	178.420	-0.215	0.315
-481.376	-149.402	0.559	0.044
-480.362	62.258	-0.096	-0.096
-479.347	-200.000	0.013	-0.061
-478.332	-200.000	-0.008	0.037
-477.318	147.206	-0.238	0.321
-476.303	67.627	0.199	0.204
-475.289	7.200	0.361	0.270
-474.274	800.000	-0.074	-0.263
-473.259	-78.404	-0.106	0.036
-472.245	24.784	0.052	0.043
-471.230	-68.136	0.434	-0.169
-470.216	-8.154	-0.040	0.027
-469.201	91.993	-0.317	-0.357
-468.186	-116.641	-0.093	0.017
-467.172	-200.000	0.039	-0.329
-466.157	25.112	-0.050	0.041
-465.143	-200.000	-0.023	-0.132
-464.128	-165.788	-0.082	0.004
-463.113	-200.000	0.009	-0.214
-462.099	186.495	0.063	0.094
-461.084	707.025	0.086	-0.228
-460.070	-2.810	-0.111	-0.077
-459.055	-32.729	-0.336	-0.187
-458.040	800.000	-0.099	-0.366
-457.026	-142.046	-0.758	0.075
-456.011	-51.747	-0.151	-0.071
-454.997	-81.770	-0.101	-0.033
-453.982	-200.000	-0.004	-0.109
-452.968	800.000	-0.079	-0.260
-451.953	144.736	-0.095	0.127
-450.938	74.504	0.218	-0.229
-449.924	-30.133	-0.120	-0.069
-448.909	311.884	-0.105	0.196
-447.895	-122.577	-0.174	-0.028
-446.880	492.808	-0.121	0.279
-445.865	260.553	-0.063	0.108
-444.851	-200.000	0.001	0.354
-443.836	-200.000	0.009	0.413
-442.822	145.027	0.003	-0.004
-441.807	404.340	-0.017	-0.036
-440.792	-75.216	0.189	-0.068
-439.778	647.879	-0.133	0.340
-438.763	-99.567	-0.123	-0.031
-437.749	-20.065	-0.357	-0.220
-436.734	155.382	-0.130	-0.179
-435.719	-40.670	-0.137	0.071
-434.705	800.000	-0.051	-0.206
-433.690	444.585	0.030	-0.065
-432.676	260.513	-0.131	0.226
-431.661	-66.676	0.211	0.084
-430.646	800.000	0.045	-0.198
-429.632	-200.000	0.025	0.113
-428.617	-145.111	0.090	-0.008
-427.603	800.000	0.038	-0.131
-426.588	326.652	0.057	0.110
-425.573	44.800	0.250	-0.230
-424.559	-14.108	0.089	-0.058
-423.544	-45.261	0.288	0.143
-422.530	390.869	-0.093	0.192
-421.515	-86.041	0.128	0.039
-420.500	306.264	0.141	0.263
-419.486	247.847	-0.332	0.562
-418.471	-200.000	0.052	-0.289
-417.457	800.000	0.103	-0.296
-416.442	261.049	0.076	0.132
-415.428	-200.000	0.002	-0.137
-414.413	800.000	0.029	0.111
-413.398	-200.000	-0.005	-0.309
-412.384	-200.000	0.017	-0.116
-411.369	-155.353	-0.321	-0.021
-410.355	-89.251	0.204	-0.060
-409.340	-200.000	0.004	0.399
-408.325	-8.121	0.115	-0.077
-407.311	12.697	-0.052	0.040
-406.296	800.000	-0.072	-0.220
-405.282	-47.789	-0.088	0.043
-404.267	310.004	0.126	-0.236
-403.252	39.940	0.202	-0.181
-402.238	-200.000	0.022	0.251
-401.223	426.015	0.152	-0.328
-400.209	-8.406	-0.051	-0.034
-399.194	221.564	0.092	0.147
-398.179	93.039	0.193	0.218
-397.165	170.454	-0.133	0.191
-396.150	-168.761	-0.259	0.010
-395.136	-200.000	0.403	-0.000
-394.121	56.263	0.059	0.057
-393.106	-123.218	-0.180	0.029
-392.092	154.964	0.159	0.219
-391.077	-75.391	-0.235	0.084
-390.063	610.873	-0.152	-0.379
-389.048	-114.047	-0.215	-0.042
-388.033	-200.000	-0.019	0.287
-387.019	389.877	-0.033	-0.069
-386.004	-200.000	-0.024	0.164
-384.990	-66.394	-0.086	-0.034
-383.975	-110.210	0.116	0.024
-382.960	69.827	0.226	0.232
-381.946	405.247	-0.036	0.076
-380.931	48.396	-0.348	-0.325
-379.917	-1.352	0.141	0.100
-378.902	256.591	0.135	0.232
-377.888	439.246	0.131	0.285
-376.873	88.855	0.132	0.147
-375.858	-57.208	0.330	-0.145
-374.844	-5.325	0.121	0.083
-373.829	68.963	0.161	0.165
-372.815	354.037	-0.112	0.223
-371.800	40.278	0.125	-0.112
-370.785	-200.000	-0.012	0.149
-369.771	-89.482	-0.134	-0.039
-368.756	-119.636	0.345	0.059
-367.742	-86.846	0.260	0.079
-366.727	-16.371	0.206	-0.130
-365.712	298.071	0.124	-0.227
-364.698	-108.851	0.101	0.022
-363.683	800.000	-0.041	0.118
-362.669	23.477	-0.185	-0.152
-361.654	-10.294	-0.144	-0.095
-360.639	-200.000	-0.021	-0.287
-359.625	-200.000	0.009	0.214
-358.610	-117.343	0.040	0.007
-357.596	-128.390	-0.221	0.031
-356.581	-30.863	0.083	0.047
-355.566	-200.000	-0.012	-0.316
-354.552	-1.179	-0.428	-0.302
-353.537	782.225	-0.077	-0.210
-352.523	-16.084	0.085	-0.054
-351.508	-87.536	0.476	-0.144
-350.493	-200.000	-0.003	0.032
-349.479	-47.607	0.080	-0.039
-348.464	-61.405	-0.097	0.041
-347.450	210.573	0.092	-0.143
-346.435	126.359	-0.104	-0.132
-345.420	-97.560	0.339	0.088
-344.406	232.786	-0.194	0.317
-343.391	-38.916	-0.225	0.118
-342.377	404.274	0.047	-0.098
-341.362	21.331	-0.126	0.102
-340.348	157.117	-0.124	0.171
-339.333	-137.151	0.132	0.015
-338.318	-200.000	-0.020	0.303
-337.304	360.764	0.216	0.432
-336.289	-110.969	0.519	-0.106
-335.275	-69.229	-0.181	-0.069
-334.260	-200.000	-0.056	-0.357
-333.245	10.275	0.361	0.274
-332.231	-200.000	0.048	-0.258
-331.216	-150.273	-0.247	0.019
-330.202	367.485	-0.052	0.104
-329.187	-54.298	-0.162	-0.073
-328.172	-100.580	0.165	-0.041
-327.158	-200.000	-0.026	0.382
-326.143	-136.620	-0.474	-0.055
-325.129	-200.000	0.052	0.230
-324.114	800.000	-0.024	0.094
-323.099	193.917	0.165	0.248
-322.085	-75.503	0.363	-0.129
-321.070	139.452	0.086	-0.112
-320.056	-86.178	-0.297	0.091
-319.041	80.758	-0.218	0.234
-318.026	183.966	-0.040	-0.060
-317.012	-28.116	0.135	-0.078
-315.997	-200.000	-0.019	0.339
-314.983	-176.108	-0.118	0.003
-313.968	800.000	-0.147	0.418
-312.953	-20.477	0.315	-0.193
-311.939	705.743	-0.062	0.162
-310.924	-45.355	0.184	-0.091
-309.910	-137.696	0.132	-0.015
-308.895	-79.652	0.106	0.036
-307.880	-21.314	0.188	-0.115
-306.866	-119.921	-0.191	-0.033
-305.851	-1.113	-0.231	0.163
-304.837	198.868	0.117	0.179
-303.822	-55.527	0.281	0.125
-302.807	0.610	0.069	-0.049
-301.793	-200.000	0.022	-0.232
-300.778	360.505	0.105	0.209
-299.764	-200.000	-0.038	0.181
-298.749	-200.000	-0.018	0.309
-297.735	658.727	0.082	0.211
-296.720	-149.277	-0.192	0.015
-295.705	-49.536	-0.036	-0.017
-294.691	-200.000	0.012	0.135
-293.676	44.678	-0.060	0.055
-292.662	-104.923	-0.203	-0.046
-291.647	-63.753	0.210	0.086
-290.632	136.757	-0.326	0.423
-289.618	12.923	-0.247	-0.190
-288.603	55.692	-0.385	-0.371
-287.589	-135.326	-0.387	-0.046
-286.574	-174.071	0.137	0.004
-285.559	-48.765	-0.117	-0.056
-284.545	-31.679	-0.201	0.112
-283.530	-141.854	0.479	-0.048
-282.516	-200.000	0.040	-0.206
-281.501	800.000	-0.091	0.310
-280.486	683.550	-0.148	-0.384
-279.472	-16.883	-0.252	0.158
-278.457	-23.577	-0.173	0.103
-277.443	800.000	-0.052	-0.200
-276.428	457.931	0.080	-0.176
-275.413	31.493	0.091	-0.078
-274.399	800.000	0.006	0.023
-273.384	107.658	-0.053	-0.062
-272.370	-49.183	-0.059	-0.028
-271.355	-119.174	-0.098	0.017
-270.340	-98.416	0.268	-0.068
-269.326	68.018	0.104	-0.106
-268.311	800.000	-0.014	-0.042
-267.297	84.336	0.124	0.135
-266.282	-58.220	-0.080	-0.035
-265.267	74.927	-0.325	0.340
-264.253	-200.000	-0.020	0.120
-263.238	309.039	0.143	-0.265
-262.224	-112.073	0.320	-0.064
-261.209	-200.000	0.013	0.180
-260.195	-43.541	0.198	-0.099
-259.180	-106.061	0.306	-0.068
-258.165	-109.986	0.332	0.069
-257.151	-71.251	-0.440	-0.164
-256.136	326.156	0.187	0.356
-255.122	-138.348	-0.385	0.042
-254.107	-93.657	-0.202	0.055
-253.092	-40.128	0.291	0.151
-252.078	37.124	-0.180	-0.158
-251.063	-149.704	0.343	0.027
-250.049	-200.000	-0.047	-0.228
-249.034	-200.000	-0.052	0.231
-248.019	513.464	-0.098	0.227
-247.005	-134.682	-0.192	-0.023
-245.990	-17.826	0.094	-0.058
-244.976	-161.797	-0.339	-0.017
-243.961	-200.000	-0.022	-0.116
-242.946	184.381	-0.096	-0.141
-241.932	-115.583	-0.303	0.056
-240.917	54.143	-0.143	0.137
-239.903	800.000	0.031	0.104
-238.888	-200.000	0.037	0.196
-237.873	174.685	-0.241	0.346
-236.859	-63.004	-0.282	0.115
-235.844	39.549	-0.253	-0.225
-234.830	131.351	-0.045	-0.057
-233.815	-141.814	0.206	-0.020
-232.800	-98.621	0.459	0.116
-231.786	351.306	-0.018	-0.034
-230.771	-200.000	-0.007	0.200
-229.757	163.363	0.134	0.187
-228.742	118.919	0.227	-0.278
-227.727	-26.546	-0.187	0.109
-226.713	504.114	-0.062	-0.143
-225.698	-71.831	0.122	-0.045
-224.684	149.951	-0.189	0.254
-223.669	441.384	-0.123	0.266
-222.655	23.196	0.118	0.096
-221.640	800.000	0.027	0.095
-220.625	-200.000	-0.021	-0.190
-219.611	208.377	0.145	0.224
-218.596	600.003	-0.060	-0.148
-217.582	19.172	-0.131	-0.105
-216.567	-126.852	-0.241	0.035
-215.552	-71.090	-0.103	0.039
-214.538	4.151	0.184	0.134
-213.523	-200.000	0.072	0.419
-212.509	194.983	-0.065	-0.098
-211.494	214.856	0.211	-0.332
-210.479	-49.178	0.213	-0.101
-209.465	-200.000	-0.011	0.260
-208.450	24.445	0.301	-0.247
-207.436	51.878	-0.168	-0.159
-206.421	-200.000	-0.046	-0.298
-205.406	126.848	0.029	-0.036
-204.392	28.020	0.023	0.020
-203.377	-24.602	-0.205	-0.121
-202.363	402.605	-0.107	-0.224
-201.348	52.250	-0.167	-0.158
-200.333	93.591	0.060	-0.068
-199.319	-16.203	-0.118	-0.074
-198.304	-49.301	-0.057	-0.027
-197.290	584.542	-0.021	0.050
-196.275	63.743	-0.051	0.051
-195.260	58.064	-0.047	0.045
-194.246	-110.882	0.186	-0.038
-193.231	-6.700	-0.094	0.063
-192.217	353.071	-0.155	-0.305
-191.202	-55.927	-0.212	-0.094
-190.187	-1.549	0.143	-0.100
-189.173	188.176	-0.045	0.066
-188.158	15.755	-0.091	-0.071
-187.144	210.744	0.263	-0.410
-186.129	-155.219	0.150	-0.010
-185.114	-105.731	-0.234	-0.053
-184.100	-146.893	0.108	-0.009
-183.085	-104.974	-0.130	0.029
-182.071	-170.136	-0.257	0.009
-181.056	-200.000	0.029	-0.170
-180.042	231.515	0.052	0.084
-179.027	-48.229	0.173	0.083
-178.012	108.711	0.263	-0.311
-176.998	40.722	0.168	-0.150
-175.983	-26.843	0.325	-0.188
-174.969	-93.806	0.468	-0.128
-173.954	-87.420	0.229	0.069
-172.939	4.152	-0.308	-0.224
-171.925	302.762	0.160	0.294
-170.910	328.232	-0.094	0.180
-169.896	-77.173	0.345	0.119
-168.881	-200.000	0.001	0.249
-167.866	-4.919	0.170	0.116
-166.852	-151.278	0.255	-0.019
-165.837	-11.302	0.126	0.082
-164.823	-62.332	-0.045	-0.019
-163.808	-123.657	-0.327	0.051
-162.793	-56.464	-0.370	0.163
-161.779	-167.403	-0.195	-0.008
-160.764	-110.590	0.270	0.055
-159.750	-200.000	0.023	0.153
-158.735	91.516	0.163	0.182
-157.720	27.368	0.136	-0.113
-156.706	-40.472	-0.217	-0.111
-155.691	143.684	-0.224	-0.296
-154.677	-200.000	-0.022	0.132
-153.662	-200.000	0.072	-0.319
-152.647	533.462	-0.086	-0.202
-151.633	-200.000	0.056	-0.255
-150.618	42.796	0.292	0.263
-149.604	-200.000	0.044	0.401
-148.589	-14.903	0.221	0.140
-147.574	-147.991	0.148	-0.012
-146.560	480.029	-0.116	-0.261
-145.545	-126.579	0.305	-0.045
-144.531	-200.000	0.002	-0.105
-143.516	-34.297	0.190	-0.103
-142.502	-79.568	-0.258	-0.086
-141.487	25.132	0.272	-0.224
-140.472	207.017	-0.136	-0.210
-139.458	800.000	0.092	0.263
-138.443	800.000	-0.052	0.204
-137.429	-181.699	-0.177	0.003
-136.414	111.733	-0.102	0.122
-135.399	-5.479	0.284	0.193
-134.385	-35.619	0.261	0.140
-133.370	-92.108	-0.279	0.078
-132.356	389.297	0.149	-0.305
-131.341	69.022	0.107	0.108
-130.326	202.041	0.209	0.318
-129.312	800.000	0.081	0.277
-128.297	-120.851	-0.158	0.026
-127.283	-148.098	0.275	0.023
-126.268	-101.535	0.164	-0.039
-125.253	-200.000	0.016	0.159
-124.239	-200.000	0.005	-0.305
-123.224	126.694	0.166	-0.207
-122.210	5.153	0.205	0.149
-121.195	-123.883	-0.525	0.082
-120.180	-49.950	0.164	-0.077
-119.166	270.824	-0.059	-0.103
-118.151	-200.000	0.003	0.305
-117.137	800.000	-0.044	0.163
-116.122	-138.141	0.158	0.017
-115.107	-51.369	0.132	-0.061
-114.093	100.069	-0.147	-0.169
-113.078	-149.619	0.375	-0.029
-112.064	30.796	-0.095	0.081
-111.049	-74.813	0.308	0.109
-110.034	414.014	-0.115	-0.242
-109.020	-84.649	-0.077	-0.024
-108.005	-163.335	0.186	-0.009
-106.991	-83.955	0.273	0.086
-105.976	33.203	-0.125	0.107
-104.962	-200.000	0.009	0.240
-103.947	-200.000	-0.039	-0.201
-102.932	37.830	-0.174	0.153
-101.918	116.017	0.044	0.053
-100.903	800.000	-0.081	0.228
-99.889	116.845	0.082	-0.099
-98.874	-54.054	0.213	-0.096
-97.859	-131.632	-0.136	-0.018
-96.845	237.316	-0.094	0.154
-95.830	-23.880	-0.049	0.029
-94.816	143.844	0.122	0.160
-93.801	-127.053	0.056	-0.008
-92.786	353.159	-0.132	-0.258
-91.772	114.901	0.259	-0.312
-90.757	-16.273	-0.199	-0.125
-89.743	-196.428	-0.174	0.001
-88.728	-96.152	0.110	-0.029
-87.713	-44.070	0.474	0.235
-86.699	-127.751	0.500	0.071
-85.684	-134.371	-0.331	-0.040
-84.670	368.858	0.047	0.093
-83.655	-200.000	0.028	0.140
-82.640	-200.000	-0.026	0.188
-81.626	411.815	0.116	-0.242
-80.611	800.000	0.049	0.165
-79.597	-17.226	-0.183	0.114
-78.582	-200.000	0.033	0.234
-77.567	-114.165	0.140	0.027
-76.553	-200.000	-0.074	0.355
-75.538	104.295	-0.131	-0.152
-74.524	-136.718	0.161	-0.018
-73.509	764.790	0.110	-0.294
-72.494	344.271	0.054	-0.104
-71.480	-200.000	-0.009	0.300
-70.465	-88.711	0.149	0.044
-69.451	-10.477	0.040	0.026
-68.436	-155.688	0.070	0.004
-67.422	800.000	-0.030	-0.115
-66.407	-200.000	0.016	0.255
-65.392	-200.000	-0.025	-0.370
-64.378	-200.000	-0.035	-0.276
-63.363	168.307	-0.061	0.085
-62.349	-63.102	-0.408	0.166
-61.334	85.324	-0.958	-1.036
-60.319	171.112	0.447	0.632
-59.305	-200.000	-0.047	-1.092
-58.290	110.513	0.816	0.966
-57.276	258.582	0.714	1.212
-56.261	-200.000	102.588	659.629
-55.246	633.091	1459.722	3644.717
-54.232	177.580	2676.377	3842.380
-53.217	119.868	2211.766	2701.250
-52.203	43.606	1738.064	1566.239
-51.188	35.674	1550.662	1342.203
-50.173	33.399	1523.697	1303.178
-49.159	55.470	1577.635	1504.211
-48.144	57.420	1594.647	1533.979
-47.130	36.123	1549.717	1344.306
-46.115	32.788	1534.462	1307.940
-45.100	32.630	1530.797	1303.673
-44.086	32.581	1529.027	1301.775
-43.071	32.482	1527.837	1300.025
-42.057	32.518	1525.863	1298.544
-41.042	32.596	1524.369	1297.756
-40.027	32.557	1522.638	1295.962
-39.013	32.571	1521.157	1294.745
-37.998	32.501	1520.467	1293.625
-36.984	32.502	1519.216	1292.518
-35.969	32.523	1517.990	1291.568
-34.954	32.517	1516.227	1289.978
-33.940	32.550	1515.183	1289.263
-32.925	32.576	1513.458	1287.919
-31.911	32.518	1512.344	1286.525
-30.896	32.567	1510.846	1285.532
-29.881	32.654	1509.571	1284.989
-28.867	32.574	1508.551	1283.526
-27.852	32.533	1506.817	1281.719
-26.838	32.520	1505.815	1280.731
-25.823	32.590	1504.041	1279.648
-24.809	32.554	1502.524	1278.059
-23.794	32.595	1500.610	1276.662
-22.779	32.492	1499.852	1275.265
-21.765	32.514	1498.895	1274.548
-20.750	32.569	1497.206	1273.438
-19.736	32.514	1496.530	1272.440
-18.721	32.586	1494.923	1271.511
-17.706	32.462	1494.384	1270.164
-16.692	32.458	1493.116	1269.005
-15.677	32.552	1491.865	1268.530
-14.663	32.497	1491.404	1267.713
-13.648	32.490	1490.276	1266.659
-12.633	32.550	1488.824	1265.776
-11.619	32.464	1488.706	1265.047
-10.604	32.458	1487.138	1263.624
-9.590	32.479	1486.220	1262.934
-8.575	32.455	1485.988	1262.526
-7.560	32.458	1484.896	1261.569
-6.546	32.445	1483.855	1260.551
-5.531	32.483	1482.937	1259.974
-4.517	32.326	1482.088	1258.148
-3.502	32.362	1481.150	1257.549
-2.487	32.392	1480.260	1256.943
-1.473	32.440	1479.013	1256.155
-0.458	32.492	1477.484	1255.149
0.556	31.033	1468.399	1245.638
1.571	28.568	1442.704	1207.531
2.586	25.686	1382.043	1138.456
3.600	24.258	1300.935	1063.039
4.615	22.781	1255.294	1017.145
5.629	18.616	1195.847	945.978
6.644	8.716	1107.183	824.980
7.659	1.362	1065.049	756.956
8.673	0.394	1059.603	748.218
9.688	0.261	1056.345	745.198
10.702	0.132	1055.034	743.565
11.717	0.074	1052.982	741.768
12.731	3.567	1056.866	761.704
13.746	13.141	1070.804	819.374
14.761	20.221	1080.822	862.288
15.775	21.923	1081.444	871.170
16.790	22.120	1081.373	872.009
17.804	22.011	1080.263	870.498
18.819	21.772	1079.329	868.486
19.834	21.869	1078.951	868.583
20.848	21.913	1078.583	868.427
21.863	22.020	1077.904	868.334
22.877	21.960	1077.855	867.921
23.892	21.914	1077.046	866.967
24.907	21.782	1076.158	865.521
25.921	21.843	1075.638	865.328
26.936	21.934	1074.801	865.028
27.950	21.840	1073.513	863.453
28.965	21.846	1072.138	862.297
29.980	21.801	1070.607	860.770
30.994	21.815	1069.230	859.657
32.009	21.967	1068.576	859.799
33.023	22.067	1068.023	859.767
34.038	21.933	1066.558	857.855
35.053	21.698	1066.303	856.428
36.067	21.873	1065.676	856.704
37.082	21.986	1064.510	856.242
38.096	21.963	1063.951	855.606
39.111	22.067	1063.203	855.435
40.126	22.275	1062.033	855.425
41.140	22.199	1061.069	854.208
42.155	21.916	1059.447	851.452
43.169	21.510	1058.468	848.622
44.184	21.518	1057.021	847.427
45.199	21.610	1056.015	846.989
46.213	21.595	1055.232	846.213
47.228	21.584	1054.154	845.220
48.242	21.710	1053.188	844.976
49.257	21.791	1053.024	845.163
50.271	21.851	1052.008	844.560
51.286	22.005	1051.086	844.489
52.301	21.894	1050.383	843.313
53.315	22.092	1049.821	843.739
54.330	21.927	1049.015	842.226
55.344	21.921	1048.103	841.389
56.359	21.992	1047.354	841.054
57.374	21.904	1046.600	839.952
58.388	21.695	1045.635	838.107
59.403	21.702	1044.798	837.391
60.417	21.780	1044.129	837.156
61.432	21.543	1043.450	835.406
62.447	21.579	1042.475	834.721
63.461	21.671	1042.280	834.929
64.476	21.823	1041.147	834.671
65.490	21.625	1040.500	833.139
66.505	21.606	1038.904	831.697
67.520	21.657	1038.414	831.471
68.534	21.813	1037.684	831.555
69.549	21.709	1036.350	829.920
70.563	21.323	1035.507	827.345
71.578	21.296	1034.362	826.227
72.593	21.290	1033.978	825.819
73.607	21.231	1032.355	824.173
74.622	21.192	1031.256	823.038
75.636	21.470	1030.842	823.944
76.651	21.695	1029.908	824.186
77.666	21.429	1028.839	822.006
78.680	21.387	1028.449	821.426
79.695	21.345	1028.038	820.827
80.709	21.572	1027.353	821.273
81.724	21.565	1026.495	820.482
82.739	21.499	1025.207	819.068
83.753	21.534	1024.783	818.820
84.768	21.834	1024.060	819.574
85.782	22.051	1023.618	820.161
86.797	22.221	1022.959	820.352
87.812	22.201	1021.986	819.408
88.826	22.065	1021.055	817.954
89.841	22.120	1020.649	817.816
90.855	22.272	1019.439	817.477
91.870	22.286	1018.886	817.027
92.884	22.223	1018.125	816.055
93.899	22.164	1016.621	814.501
94.914	22.038	1015.832	813.216
95.928	22.119	1015.269	813.065
96.943	22.157	1014.479	812.538
97.957	21.841	1013.309	810.071
98.972	21.609	1012.133	807.986
99.987	21.359	1011.150	805.978
101.001	21.658	1010.128	806.469
102.016	21.902	1009.928	807.363
103.030	21.783	1008.696	805.758
104.045	21.869	1007.700	805.284
105.060	21.800	1005.952	803.500
106.074	21.470	1005.482	801.544
107.089	21.514	1004.611	800.978
108.103	21.861	1003.983	801.994
109.118	22.029	1002.985	801.896
110.133	21.729	1002.107	799.753
111.147	21.619	1001.337	798.566
112.162	21.519	1000.078	797.035
113.176	21.364	998.613	795.092
114.191	21.436	998.023	794.880
115.206	21.615	997.212	794.975
116.220	21.246	995.853	792.148
117.235	21.132	994.788	790.713
118.249	21.247	994.373	790.834
119.264	21.323	993.549	790.455
120.279	21.239	992.481	789.154
121.293	21.300	991.344	788.457
122.308	21.425	991.136	788.787
123.322	21.501	990.323	788.412
124.337	21.514	988.978	787.327
125.352	21.290	987.857	785.359
126.366	20.838	986.508	782.190
127.381	20.574	984.781	779.569
128.395	21.195	984.799	782.297
129.410	21.664	984.228	783.871
130.424	21.747	983.901	783.914
131.439	21.943	982.187	783.353
132.454	21.707	981.377	781.587
133.468	21.763	980.732	781.251
134.483	21.643	980.205	780.231
135.497	21.851	978.800	779.969
136.512	22.080	978.427	780.618
137.527	22.074	978.100	780.261
138.541	22.212	976.469	779.504
139.556	22.238	975.548	778.814
140.570	21.929	975.204	777.104
141.585	22.112	973.977	776.866
142.600	22.237	973.302	776.808
143.614	22.115	972.467	775.536
144.629	22.138	971.914	775.128
145.643	22.316	971.448	775.475
146.658	22.177	970.319	773.893
147.673	22.079	968.550	771.982
148.687	22.048	967.456	770.907
149.702	21.922	966.692	769.675
150.716	21.745	966.246	768.476
151.731	21.924	964.249	767.604
152.746	21.862	964.022	767.086
153.760	22.138	962.914	767.338
154.775	22.209	962.619	767.347
155.789	22.234	961.957	766.858
156.804	22.310	960.566	766.015
157.819	22.202	959.494	764.620
158.833	22.209	959.040	764.221
159.848	22.232	958.525	763.845
160.862	22.433	957.054	763.478
161.877	22.145	956.292	761.552
162.892	22.062	955.392	760.409
163.906	22.244	954.481	760.403
164.921	22.263	953.419	759.571
165.935	22.184	952.424	758.371
166.950	22.229	951.557	757.811
167.964	22.231	950.641	757.021
168.979	22.252	949.170	755.875
169.994	22.243	948.274	755.053
171.008	22.083	947.316	753.539
172.023	22.169	946.637	753.300
173.037	22.300	946.020	753.303
174.052	22.039	944.975	751.288
175.067	21.872	943.988	749.722
176.081	21.874	943.053	748.921
177.096	22.125	942.015	749.104
178.110	22.093	941.275	748.313
179.125	21.829	940.384	746.415
180.140	21.624	939.359	744.661
181.154	21.583	938.887	744.048
182.169	21.593	938.303	743.563
183.183	22.010	937.859	744.914
184.198	22.154	937.492	745.168
185.213	22.112	936.760	744.340
186.227	22.020	936.016	743.292
187.242	22.011	935.530	742.804
188.256	22.199	934.561	742.763
189.271	22.262	933.611	742.211
190.286	22.195	933.259	741.583
191.300	22.190	931.944	740.448
192.315	21.688	930.535	737.154
193.329	21.016	929.408	733.370
194.344	20.557	928.236	730.450
195.359	21.039	928.704	732.782
196.373	21.992	929.038	736.984
197.388	22.109	928.620	737.077
198.402	22.184	927.501	736.437
199.417	21.926	927.298	735.130
200.432	22.091	926.639	735.233
201.446	21.930	925.867	733.882
202.461	21.716	924.882	732.145
203.475	21.731	924.543	731.875
204.490	21.227	922.991	728.477
205.504	20.197	920.707	722.324
206.519	20.596	920.960	724.117
207.534	21.659	921.429	728.848
208.548	21.558	920.862	727.919
209.563	21.968	920.859	729.555
210.577	22.204	919.365	729.285
211.592	21.889	918.803	727.469
212.607	22.144	918.734	728.408
213.621	22.342	917.982	728.566
214.636	22.160	917.701	727.524
215.650	22.262	917.076	727.386
216.665	22.269	916.266	726.710
217.680	22.163	915.781	725.822
218.694	22.383	915.165	726.177
219.709	21.898	914.159	723.318
220.723	21.596	913.348	721.368
221.738	22.010	912.744	722.529
222.753	22.064	912.296	722.335
223.767	21.902	911.582	721.039
224.782	22.332	910.249	721.684
225.796	22.265	910.321	721.404
226.811	22.503	909.916	721.993
227.826	22.055	908.481	718.958
228.840	21.276	906.983	714.524
229.855	21.072	906.590	713.316
230.869	21.430	906.011	714.263
231.884	21.053	905.001	711.865
232.899	21.104	904.902	711.929
233.913	21.930	905.107	715.397
234.928	22.149	904.589	715.815
235.942	22.021	903.537	714.401
236.957	22.012	902.757	713.682
237.972	21.719	902.047	711.869
238.986	21.651	901.152	710.824
240.001	21.776	901.143	711.260
241.015	21.792	900.155	710.482
242.030	21.915	899.318	710.257
243.045	21.930	899.064	710.054
244.059	22.001	898.786	710.060
245.074	22.202	898.161	710.317
246.088	22.274	897.112	709.712
247.103	21.802	896.160	706.995
248.117	21.826	895.794	706.742
249.132	22.361	895.614	708.690
250.147	22.760	895.169	709.881
251.161	22.760	894.496	709.285
252.176	22.919	894.199	709.624
253.190	22.882	893.874	709.158
254.205	22.952	893.038	708.710
255.220	23.077	892.650	708.843
256.234	22.979	892.266	708.080
257.249	23.006	891.182	707.266
258.263	22.844	890.488	706.006
259.278	22.969	889.734	705.845
260.293	23.027	889.461	705.799
261.307	23.095	888.854	705.524
262.322	22.946	888.248	704.388
263.336	22.913	887.298	703.440
264.351	22.272	886.207	699.964
265.366	21.206	884.045	693.959
266.380	20.879	882.867	691.674
267.395	21.774	883.380	695.569
268.409	22.440	883.947	698.596
269.424	22.575	883.058	698.367
270.439	22.757	882.569	698.638
271.453	22.894	881.478	698.256
272.468	22.819	881.135	697.627
273.482	22.793	881.324	697.610
274.497	23.007	880.785	697.968
275.512	22.813	879.674	696.262
276.526	22.239	877.921	692.553
277.541	22.287	877.654	692.470
278.555	22.818	877.485	694.364
279.570	22.720	876.696	693.293
280.585	22.442	875.719	691.368
281.599	22.582	875.274	691.504
282.614	22.740	875.107	691.930
283.628	22.108	874.110	688.605
284.643	21.982	873.180	687.319
285.657	22.251	873.055	688.212
286.672	22.163	872.257	687.179
287.687	21.788	871.351	684.938
288.701	21.998	871.242	685.612
289.716	22.468	870.752	687.000
290.730	22.016	870.058	684.630
291.745	22.015	868.773	683.555
292.760	21.891	867.812	682.256
293.774	21.824	867.120	681.392
294.789	22.625	868.178	685.274
295.803	23.318	868.019	687.782
296.818	23.239	867.970	687.375
297.833	23.374	867.269	687.282
298.847	22.879	866.374	684.595
299.862	22.764	865.186	683.150
300.876	23.046	864.634	683.743
301.891	23.172	864.250	683.866
302.906	23.184	864.220	683.829
303.920	22.826	862.340	680.901
304.935	22.892	861.557	680.475
305.949	23.048	861.605	681.057
306.964	23.143	861.313	681.128
307.979	23.096	860.259	680.056
308.993	22.958	859.934	679.208
310.008	23.199	859.909	680.055
311.022	23.449	859.419	680.565
312.037	23.319	858.670	679.416
313.052	23.180	857.636	678.003
314.066	22.931	857.273	676.703
315.081	22.306	855.882	673.156
316.095	21.714	854.058	669.402
317.110	22.063	854.641	671.131
318.125	23.004	855.095	675.023
319.139	22.381	854.033	671.748
320.154	21.356	852.172	666.320
321.168	21.078	851.184	664.431
322.183	21.700	851.559	667.034
323.197	22.663	851.718	670.763
324.212	22.820	851.513	671.140
325.227	22.974	851.157	671.384
326.241	23.001	851.267	671.516
327.256	23.003	849.901	670.384
328.270	22.861	849.312	669.324
329.285	22.837	848.649	668.650
330.300	22.708	847.623	667.294
331.314	22.393	847.036	665.582
332.329	22.416	846.470	665.165
333.343	23.000	846.298	667.179
334.358	23.227	845.741	667.536
335.373	23.186	845.215	666.907
336.387	23.170	844.997	666.616
337.402	23.408	844.377	666.965
338.416	23.628	844.130	667.536
339.431	23.564	843.182	666.487
340.446	23.556	842.776	666.078
341.460	23.716	842.316	666.255
342.475	23.758	841.539	665.738
343.489	23.403	840.990	663.915
344.504	23.513	840.125	663.586
345.519	23.728	840.111	664.321
346.533	24.048	839.296	664.812
347.548	24.130	839.009	664.832
348.562	24.153	838.865	664.744
349.577	24.036	838.375	663.862
350.592	23.823	837.784	662.542
351.606	23.870	837.377	662.337
352.621	23.891	837.156	662.182
353.635	23.976	835.796	661.362
354.650	23.724	835.272	659.953
355.665	23.332	834.859	658.113
356.679	22.477	832.756	653.227
357.694	22.258	832.767	652.365
358.708	22.948	832.530	654.681
359.723	22.945	831.576	653.861
360.738	22.978	831.567	653.919
361.752	23.457	831.291	655.413
362.767	23.783	830.683	656.081
363.781	23.886	830.931	656.600
364.796	24.107	830.887	657.321
365.810	24.205	830.349	657.201
366.825	24.404	829.776	657.422
367.840	24.378	829.499	657.046
368.854	24.162	828.672	655.540
369.869	23.781	828.034	653.574
370.883	23.567	827.365	652.203
371.898	23.861	826.818	652.793
372.913	23.608	826.227	651.340
373.927	23.492	825.579	650.349
374.942	23.654	825.124	650.526
375.956	23.964	824.513	651.121
376.971	23.908	824.208	650.617
377.986	23.902	823.428	649.923
379.000	24.236	822.816	650.600
380.015	24.311	822.467	650.541
381.029	24.245	821.666	649.608
382.044	24.088	821.066	648.505
383.059	24.189	820.678	648.509
384.073	24.256	820.171	648.294
385.088	24.384	819.631	648.278
386.102	24.329	819.219	647.695
387.117	24.050	818.496	646.050
388.132	24.065	817.895	645.575
389.146	23.975	817.343	644.754
390.161	23.331	816.245	641.502
391.175	23.397	815.921	641.427
392.190	23.834	816.152	643.136
393.205	23.953	815.414	642.926
394.219	22.940	814.036	638.127
395.234	21.334	811.568	630.347
396.248	20.729	810.527	627.303
397.263	21.849	811.119	631.743
398.278	23.473	812.711	638.783
399.292	23.909	812.436	640.082
400.307	23.557	812.020	638.427
401.321	23.542	811.285	637.741
402.336	23.648	810.857	637.728
403.350	23.970	810.985	638.932
404.365	24.207	811.155	639.860
405.380	24.623	810.816	641.029
406.394	24.951	810.403	641.818
407.409	25.003	810.013	641.641
408.423	24.937	809.587	641.010
409.438	24.807	809.070	640.079
410.453	24.976	808.413	640.108
411.467	25.074	807.632	639.781
412.482	24.884	807.365	638.834
413.496	24.979	806.671	638.566
414.511	24.929	806.685	638.345
415.526	25.195	805.896	638.612
416.540	24.939	805.928	637.668
417.555	24.783	805.156	636.444
418.569	24.445	804.564	634.721
419.584	24.746	803.691	635.043
420.599	24.707	803.406	634.625
421.613	155.914	1365.480	1795.059
422.628	135.394	1447.379	1795.188
