DTS Sentinel unit serial number:	SN413079Multiplexer serial number:	ORYXHardware model number:	OX4-SRSoftware version number:	ORYX F/W v4.00 Oryx Data Collector v3.7.2.0data status	okinstallation	princeton_trtdifferential loss correction	single-endedforward channel	channel 3reverse channel	N/Adate	2019/09/16time	19:36:34forward acquisition time	60.00reverse acquisition time	0.00gamma	496.2192k internal	0.2316k external	0.2316temperature offset calibration	0.9942default loss term (dB/km)	0.3790temperature slope calibration	1.0000multiplexer offset coefficient	1.0000multiplexer slope coefficient	1.0000fibre end	0.00T internal ref (°C)	34.25T ext. ref 1 (°C)	0.12T ext. ref 2 (°C)	27.21length (m)	temperature (°C)	Stokes	anti-Stokes-747.200	3.406	-0.015	-0.011
-746.185	-101.119	-0.278	-0.069
-745.171	-75.893	-0.121	-0.044
-744.156	-200.000	0.044	0.212
-743.142	15.620	0.117	0.093
-742.127	551.768	0.090	0.220
-741.112	65.748	0.017	-0.018
-740.098	1.544	0.209	0.152
-739.083	335.153	-0.106	-0.207
-738.069	-4.778	-0.252	-0.176
-737.054	800.000	-0.029	-0.115
-736.039	800.000	-0.112	-0.321
-735.025	800.000	0.069	-0.298
-734.010	25.100	-0.051	-0.043
-732.996	-13.881	-0.361	-0.236
-731.981	-94.037	-0.247	0.069
-730.966	-39.283	0.306	0.162
-729.952	-200.000	-0.036	-0.213
-728.937	-75.882	-0.210	-0.075
-727.923	180.625	-0.138	0.205
-726.908	-64.432	0.156	-0.064
-725.894	-38.367	0.098	-0.052
-724.879	-42.635	-0.178	-0.092
-723.864	-43.347	-0.036	0.018
-722.850	17.882	-0.121	-0.097
-721.835	-12.477	-0.241	-0.160
-720.821	2.877	-0.097	0.072
-719.806	800.000	0.068	0.209
-718.791	-200.000	0.008	-0.153
-717.777	19.029	-0.248	-0.201
-716.762	-135.390	-0.165	-0.020
-715.748	200.344	-0.048	0.075
-714.733	-200.000	0.021	-0.257
-713.718	-200.000	-0.005	-0.063
-712.704	304.922	0.095	-0.178
-711.689	122.422	-0.215	0.272
-710.675	-73.643	-0.226	-0.083
-709.660	-200.000	0.028	-0.256
-708.645	-154.806	-0.254	-0.017
-707.631	800.000	0.053	-0.183
-706.616	-76.216	0.256	-0.091
-705.602	-11.572	-0.163	0.108
-704.587	210.216	0.111	-0.177
-703.572	94.089	0.134	-0.154
-702.558	56.234	0.143	-0.140
-701.543	732.446	0.064	-0.173
-700.529	-7.240	0.174	-0.119
-699.514	4.581	-0.297	-0.220
-698.499	-75.569	-0.206	-0.074
-697.485	174.194	-0.069	-0.102
-696.470	35.439	-0.095	0.084
-695.456	-144.280	0.206	-0.019
-694.441	-200.000	-0.038	0.259
-693.426	-1.892	-0.097	-0.069
-692.412	-6.571	-0.200	-0.138
-691.397	-200.000	-0.009	0.590
-690.383	15.996	0.225	0.179
-689.368	800.000	-0.041	0.172
-688.354	253.778	-0.083	0.143
-687.339	456.328	-0.039	0.087
-686.324	290.044	0.112	-0.205
-685.310	-124.179	-0.335	0.053
-684.295	-200.000	0.034	0.176
-683.281	-34.388	-0.238	0.132
-682.266	-31.235	-0.450	0.256
-681.251	1.790	0.102	0.074
-680.237	-31.439	-0.038	-0.021
-679.222	72.005	0.209	-0.219
-678.208	369.640	-0.130	0.267
-677.193	227.743	-0.250	0.412
-676.178	-200.000	-0.017	-0.407
-675.164	295.765	-0.252	-0.466
-674.149	-81.532	-0.115	-0.038
-673.135	-90.158	-0.371	0.109
-672.120	-200.000	0.034	-0.255
-671.105	800.000	-0.155	-0.467
-670.091	-200.000	0.020	-0.122
-669.076	-122.122	-0.202	0.033
-668.062	-87.337	0.222	0.068
-667.047	140.528	-0.169	-0.225
-666.032	-117.815	-0.125	-0.023
-665.018	-122.910	0.438	0.071
-664.003	271.437	-0.050	-0.089
-662.989	-151.276	0.179	0.014
-661.974	618.909	-0.072	-0.183
-660.959	505.837	0.138	0.324
-659.945	-48.322	-0.111	0.054
-658.930	432.244	0.053	-0.117
-657.916	-200.000	0.051	-0.286
-656.901	-99.229	-0.194	-0.050
-655.886	-185.464	-0.148	0.002
-654.872	800.000	-0.030	0.131
-653.857	800.000	0.050	0.150
-652.843	-46.488	0.130	0.064
-651.828	-200.000	-0.073	-0.333
-650.814	-73.747	-0.316	-0.116
-649.799	-113.085	0.165	-0.033
-648.784	-200.000	-0.033	-0.175
-647.770	67.954	0.229	-0.236
-646.755	-23.896	-0.148	0.089
-645.741	512.969	0.040	-0.094
-644.726	186.397	-0.030	-0.045
-643.711	-88.672	0.217	-0.065
-642.697	-94.711	-0.164	-0.045
-641.682	651.151	0.138	-0.357
-640.668	293.469	-0.114	-0.209
-639.653	34.043	0.016	-0.014
-638.638	-200.000	-0.194	0.001
-637.624	-4.079	-0.272	-0.191
-636.609	-114.128	0.268	-0.052
-635.595	288.512	-0.036	0.065
-634.580	800.000	0.046	0.147
-633.565	591.745	0.052	0.131
-632.551	-200.000	0.033	-0.359
-631.536	-52.514	-0.363	-0.169
-630.522	-70.188	0.058	0.022
-629.507	136.472	-0.060	-0.079
-628.492	-1.504	0.232	0.165
-627.478	-1.623	-0.328	0.233
-626.463	96.297	-0.127	0.147
-625.449	-122.622	0.132	-0.022
-624.434	-9.611	0.167	0.112
-623.419	-38.040	-0.250	0.134
-622.405	188.275	0.118	-0.178
-621.390	113.229	-0.099	0.121
-620.376	9.029	-0.118	-0.090
-619.361	-200.000	-0.041	-0.181
-618.346	-170.787	-0.180	0.006
-617.332	800.000	-0.096	-0.385
-616.317	-69.340	-0.403	0.156
-615.303	-108.997	-0.213	0.046
-614.288	-93.796	0.284	-0.079
-613.273	-200.000	0.006	-0.069
-612.259	-84.208	-0.079	0.025
-611.244	800.000	-0.064	-0.210
-610.230	317.569	-0.137	-0.261
-609.215	124.355	-0.203	-0.257
-608.201	-87.261	-0.127	0.039
-607.186	-74.341	-0.156	-0.057
-606.171	-46.723	-0.283	0.140
-605.157	-98.785	-0.259	-0.067
-604.142	-200.000	-0.043	-0.423
-603.128	43.274	0.119	-0.109
-602.113	800.000	0.046	-0.201
-601.098	-16.379	-0.283	-0.181
-600.084	-200.000	0.061	0.564
-599.069	800.000	0.038	-0.157
-598.055	54.498	0.089	-0.086
-597.040	-22.584	0.189	0.115
-596.025	-32.141	0.156	0.088
-595.011	-91.117	-0.424	-0.123
-593.996	-51.107	0.187	0.088
-592.982	-45.576	-0.146	0.073
-591.967	800.000	0.107	-0.303
-590.952	-117.169	-0.289	-0.053
-589.938	-104.483	0.389	0.091
-588.923	-200.000	0.022	-0.447
-587.909	-167.906	-0.616	0.024
-586.894	-136.016	0.224	-0.026
-585.879	-52.274	-0.197	-0.092
-584.865	-200.000	0.017	0.206
-583.850	-128.729	-0.240	0.034
-582.836	-2.206	-0.093	0.066
-581.821	-91.525	-0.108	0.031
-580.806	423.165	0.129	-0.279
-579.792	263.390	-0.050	-0.087
-578.777	800.000	-0.089	-0.332
-577.763	230.960	-0.039	0.064
-576.748	-151.740	0.262	-0.019
-575.733	166.124	0.027	0.039
-574.719	-200.000	-0.010	-0.092
-573.704	-200.000	0.008	-0.406
-572.690	365.312	0.035	0.070
-571.675	-200.000	0.025	0.189
-570.661	181.299	0.168	-0.248
-569.646	-1.292	0.246	-0.175
-568.631	-63.795	-0.256	0.105
-567.617	-80.098	-0.111	-0.037
-566.602	107.136	-0.067	0.081
-565.588	-200.000	-0.014	0.169
-564.573	63.316	-0.140	-0.141
-563.558	-27.957	-0.111	-0.065
-562.544	-26.779	-0.157	0.092
-561.529	-56.491	0.161	0.072
-560.515	174.958	0.028	-0.040
-559.500	-64.205	0.393	0.161
-558.485	-200.000	0.040	0.206
-557.471	191.720	-0.146	0.222
-556.456	800.000	0.043	0.130
-555.442	-143.083	0.097	-0.009
-554.427	-119.258	-0.070	-0.012
-553.412	-31.812	-0.067	0.038
-552.398	-68.756	0.240	0.093
-551.383	800.000	-0.042	0.118
-550.369	-200.000	-0.002	-0.133
-549.354	800.000	0.030	0.132
-548.339	-10.202	0.392	-0.262
-547.325	-97.671	-0.278	0.073
-546.310	-52.647	0.157	-0.073
-545.296	61.246	0.182	-0.181
-544.281	-90.898	-0.114	0.033
-543.266	-0.644	0.184	0.131
-542.252	211.747	-0.153	0.243
-541.237	551.770	0.111	-0.269
-540.223	39.596	-0.300	0.270
-539.208	117.803	0.228	0.282
-538.193	800.000	-0.062	0.177
-537.179	-164.223	0.267	0.012
-536.164	-200.000	-0.005	0.269
-535.150	-200.000	0.081	0.407
-534.135	509.957	-0.196	0.457
-533.121	78.000	0.148	-0.159
-532.106	54.603	-0.108	-0.105
-531.091	-4.668	-0.095	-0.066
-530.077	-54.993	-0.331	-0.150
-529.062	-53.027	0.093	-0.043
-528.048	-173.784	0.376	-0.011
-527.033	-146.082	-0.260	0.023
-526.018	800.000	0.068	-0.232
-525.004	-66.287	-0.166	0.066
-523.989	-200.000	-0.041	-0.397
-522.975	-200.000	-0.042	-0.310
-521.960	195.463	0.079	0.121
-520.945	800.000	-0.059	-0.233
-519.931	21.074	-0.056	0.046
-518.916	-137.385	0.307	-0.035
-517.902	303.434	-0.085	0.158
-516.887	-200.000	-0.027	0.156
-515.872	251.736	-0.040	-0.068
-514.858	-200.000	-0.006	-0.132
-513.843	-200.000	-0.046	0.386
-512.829	-88.233	-0.193	-0.058
-511.814	800.000	0.045	0.179
-510.799	-107.175	0.142	-0.031
-509.785	-19.687	0.283	0.176
-508.770	262.891	-0.104	-0.181
-507.756	-78.522	-0.147	-0.051
-506.741	-136.645	-0.050	0.006
-505.726	-81.062	-0.308	0.102
-504.712	800.000	0.083	-0.309
-503.697	6.735	0.059	-0.044
-502.683	800.000	0.077	0.239
-501.668	-200.000	-0.001	0.139
-500.653	800.000	-0.010	0.037
-499.639	-33.378	0.011	0.006
-498.624	424.536	0.073	-0.157
-497.610	83.343	-0.250	0.274
-496.595	263.955	-0.086	-0.150
-495.581	800.000	-0.083	-0.350
-494.566	197.951	0.079	0.121
-493.551	28.646	-0.085	-0.072
-492.537	32.599	-0.036	-0.031
-491.522	656.179	0.096	-0.247
-490.508	113.386	0.154	0.187
-489.493	181.093	-0.237	0.349
-488.478	-200.000	-0.006	-0.051
-487.464	-101.721	-0.183	0.045
-486.449	44.434	0.198	0.182
-485.435	10.111	0.145	-0.111
-484.420	415.674	-0.139	-0.298
-483.405	-100.615	-0.235	0.058
-482.391	-163.721	0.268	0.013
-481.376	103.679	0.258	-0.303
-480.362	-27.844	0.225	-0.131
-479.347	-60.689	0.382	-0.162
-478.332	800.000	0.070	-0.243
-477.318	657.636	0.156	-0.403
-476.303	90.906	-0.025	0.028
-475.289	66.303	0.177	0.181
-474.274	-200.000	-0.001	-0.069
-473.259	-55.167	0.344	0.155
-472.245	-72.510	-0.100	-0.037
-471.230	-30.913	0.211	-0.120
-470.216	458.869	-0.071	0.158
-469.201	31.457	0.054	0.046
-468.186	4.671	0.318	-0.234
-467.172	13.887	-0.078	0.061
-466.157	-67.041	0.140	0.055
-465.143	73.350	0.119	0.124
-464.128	-200.000	-0.084	0.599
-463.113	50.430	0.203	-0.192
-462.099	-83.714	0.325	0.104
-461.084	518.285	0.064	0.150
-460.070	-79.224	0.247	0.084
-459.055	-180.023	0.185	-0.004
-458.040	-67.660	0.198	0.078
-457.026	-115.687	-0.226	0.042
-456.011	-104.994	-0.371	0.085
-454.997	-200.000	0.003	-0.128
-453.982	25.690	-0.125	0.104
-452.968	-200.000	-0.032	-0.213
-451.953	-192.727	0.164	0.002
-450.938	-200.000	-0.002	-0.092
-449.924	120.693	-0.068	0.084
-448.909	-69.193	0.116	-0.045
-447.895	-179.896	-0.289	-0.006
-446.880	317.159	-0.038	-0.072
-445.865	275.223	0.153	-0.272
-444.851	-62.878	-0.197	-0.082
-443.836	-200.000	0.005	-0.168
-442.822	749.325	0.011	-0.031
-441.807	-169.889	0.301	-0.011
-440.792	-68.352	0.264	-0.103
-439.778	-37.190	-0.242	-0.130
-438.763	-126.448	0.225	0.034
-437.749	-82.366	0.232	-0.075
-436.734	-104.163	-0.516	0.120
-435.719	173.037	0.095	0.137
-434.705	800.000	-0.029	-0.098
-433.690	92.597	-0.294	0.332
-432.676	-200.000	0.022	-0.102
-431.661	41.971	0.189	0.172
-430.646	-115.353	-0.169	-0.032
-429.632	-93.906	-0.470	-0.129
-428.617	13.350	-0.226	-0.175
-427.603	800.000	-0.032	-0.119
-426.588	800.000	0.063	0.180
-425.573	-155.129	0.193	0.013
-424.559	52.867	-0.044	-0.042
-423.544	-38.953	0.142	-0.075
-422.530	-75.807	-0.087	-0.031
-421.515	87.418	-0.165	-0.183
-420.500	73.840	-0.227	0.238
-419.486	257.460	0.206	-0.354
-418.471	800.000	0.059	-0.191
-417.457	61.235	0.036	-0.036
-416.442	80.923	0.301	0.325
-415.428	427.981	-0.072	-0.156
-414.413	-135.757	0.458	-0.054
-413.398	-101.393	0.170	0.042
-412.384	-2.737	-0.326	-0.228
-411.369	800.000	0.028	-0.098
-410.355	-20.876	-0.057	-0.035
-409.340	-89.052	-0.506	0.150
-408.325	-62.076	0.173	0.072
-407.311	-62.522	0.252	-0.105
-406.296	-100.975	0.267	0.065
-405.282	-200.000	0.009	-0.111
-404.267	-200.000	-0.018	-0.134
-403.252	-200.000	0.011	0.086
-402.238	-136.557	-0.120	-0.014
-401.223	-109.428	0.281	0.059
-400.209	693.470	-0.015	0.039
-399.194	800.000	-0.071	-0.226
-398.179	-200.000	0.043	-0.300
-397.165	-200.000	0.035	0.179
-396.150	-14.591	0.027	-0.017
-395.136	-91.943	0.072	0.020
-394.121	-200.000	0.043	0.232
-393.106	-15.014	-0.092	-0.059
-392.092	-3.093	0.268	0.187
-391.077	-78.630	0.273	0.093
-390.063	508.880	-0.050	0.115
-389.048	196.465	-0.206	0.313
-388.033	-45.205	0.599	-0.297
-387.019	-98.189	-0.121	0.031
-386.004	63.615	0.093	0.093
-384.990	741.306	-0.053	0.143
-383.975	21.795	0.210	0.171
-382.960	-200.000	0.037	0.256
-381.946	504.027	-0.027	0.063
-380.931	-200.000	-0.017	0.132
-379.917	218.889	0.008	-0.013
-378.902	-59.735	-0.137	0.059
-377.888	195.349	0.309	0.469
-376.873	-118.433	0.115	-0.020
-375.858	74.535	-0.155	-0.162
-374.844	184.598	-0.079	0.117
-373.829	-200.000	0.015	0.075
-372.815	156.230	0.041	-0.057
-371.800	800.000	0.030	-0.093
-370.785	-94.290	-0.143	-0.039
-369.771	800.000	-0.026	0.108
-368.756	-137.299	-0.201	-0.023
-367.742	-144.946	0.266	0.024
-366.727	309.410	-0.078	0.145
-365.712	357.444	0.112	0.224
-364.698	10.277	0.201	-0.153
-363.683	-200.000	0.025	-0.167
-362.669	-20.559	-0.097	-0.059
-361.654	800.000	0.053	0.185
-360.639	107.546	-0.168	0.199
-359.625	-79.823	-0.232	-0.078
-358.610	-92.517	0.187	0.053
-357.596	-200.000	-0.034	-0.306
-356.581	131.258	-0.349	-0.447
-355.566	142.283	-0.113	-0.150
-354.552	788.118	-0.056	-0.154
-353.537	253.561	0.089	0.152
-352.523	-200.000	0.039	0.237
-351.508	800.000	-0.060	-0.189
-350.493	146.938	-0.193	-0.259
-349.479	-62.736	-0.137	0.057
-348.464	137.927	0.074	-0.096
-347.450	137.815	-0.009	-0.012
-346.435	-200.000	-0.029	0.237
-345.420	269.057	-0.071	0.124
-344.406	442.874	0.049	0.107
-343.391	-35.012	-0.267	0.145
-342.377	-56.552	0.476	-0.210
-341.362	-52.484	0.154	0.071
-340.348	391.521	-0.049	-0.102
-339.333	-200.000	0.086	-0.433
-338.318	-200.000	-0.011	0.144
-337.304	-200.000	0.011	0.100
-336.289	-125.135	-0.096	0.015
-335.275	-164.964	0.025	0.001
-334.260	-143.960	0.217	0.020
-333.245	2.953	-0.109	0.079
-332.231	-200.000	0.064	-0.334
-331.216	-200.000	-0.012	0.055
-330.202	29.081	0.166	0.141
-329.187	-16.945	0.090	-0.056
-328.172	-102.500	-0.009	0.002
-327.158	-200.000	-0.044	0.195
-326.143	296.782	0.120	-0.219
-325.129	800.000	0.099	-0.322
-324.114	78.822	0.117	-0.125
-323.099	241.432	0.094	-0.156
-322.085	420.273	-0.187	0.399
-321.070	200.549	-0.196	-0.301
-320.056	-61.150	-0.207	-0.087
-319.041	-200.000	0.015	0.247
-318.026	19.168	-0.200	-0.160
-317.012	-29.029	-0.419	-0.240
-315.997	140.814	-0.109	-0.143
-314.983	-134.877	-0.277	-0.033
-313.968	-200.000	-0.001	-0.205
-312.953	-200.000	-0.011	0.302
-311.939	-200.000	-0.026	0.261
-310.924	205.760	0.121	0.187
-309.910	-109.950	-0.290	-0.060
-308.895	26.566	-0.243	0.203
-307.880	-200.000	-0.010	0.231
-306.866	-37.977	-0.319	-0.169
-305.851	-77.924	0.161	0.055
-304.837	-200.000	-0.003	-0.464
-303.822	-118.894	-0.164	-0.029
-302.807	-200.000	0.013	0.167
-301.793	800.000	-0.165	0.509
-300.778	800.000	-0.106	0.340
-299.764	377.225	-0.139	0.282
-298.749	-75.191	0.388	-0.138
-297.735	67.991	0.243	-0.248
-296.720	58.059	0.185	0.181
-295.705	4.275	0.151	0.110
-294.691	-200.000	-0.026	0.141
-293.676	-200.000	0.019	-0.180
-292.662	85.094	0.213	0.233
-291.647	180.955	-0.230	-0.337
-290.632	-114.551	0.278	-0.053
-289.618	27.451	0.106	-0.089
-288.603	-200.000	-0.053	0.324
-287.589	-8.029	0.078	-0.052
-286.574	29.118	0.445	0.376
-285.559	-114.656	0.300	0.057
-284.545	-125.554	0.161	0.024
-283.530	-139.472	-0.269	-0.029
-282.516	31.107	0.178	0.152
-281.501	562.012	-0.112	-0.270
-280.486	-88.603	-0.083	-0.025
-279.472	90.267	0.169	0.189
-278.457	-102.187	-0.365	0.087
-277.443	-200.000	-0.002	0.240
-276.428	800.000	-0.043	-0.142
-275.413	-200.000	0.065	0.342
-274.399	-13.992	0.148	0.095
-273.384	-200.000	-0.014	-0.120
-272.370	-114.788	-0.186	0.035
-271.355	-110.711	0.157	0.032
-270.340	-110.484	0.197	-0.041
-269.326	92.842	-0.236	-0.266
-268.311	73.293	0.170	-0.177
-267.297	710.649	0.115	0.301
-266.282	-121.776	-0.355	-0.058
-265.267	55.972	0.101	0.098
-264.253	238.111	-0.184	0.304
-263.238	-200.000	0.044	0.266
-262.224	800.000	0.079	0.236
-261.209	338.588	0.138	-0.267
-260.195	-200.000	-0.005	-0.138
-259.180	800.000	-0.119	0.408
-258.165	234.378	-0.063	0.104
-257.151	-2.427	-0.260	0.181
-256.136	800.000	-0.062	0.229
-255.122	-171.583	0.253	0.008
-254.107	54.783	-0.231	-0.221
-253.092	235.352	-0.127	-0.208
-252.078	640.049	0.107	-0.270
-251.063	-38.001	0.220	-0.116
-250.049	-49.885	0.236	-0.111
-249.034	-109.165	-0.136	0.029
-248.019	276.492	0.176	0.311
-247.005	800.000	0.049	-0.156
-245.990	800.000	0.087	-0.244
-244.976	97.544	-0.146	0.167
-243.961	721.346	-0.145	0.384
-242.946	-21.863	0.256	-0.155
-241.932	0.206	-0.230	-0.163
-240.917	-157.683	-0.371	0.022
-239.903	-102.511	-0.346	0.082
-238.888	-98.282	0.101	0.026
-237.873	741.347	0.052	0.140
-236.859	-144.093	0.154	-0.014
-235.844	111.436	-0.312	-0.373
-234.830	114.168	-0.240	-0.290
-233.815	-106.726	0.301	0.066
-232.800	85.838	0.200	-0.219
-231.786	-127.720	-0.561	-0.080
-230.771	134.497	0.219	-0.282
-229.757	421.656	0.200	-0.427
-228.742	-64.157	-0.191	0.077
-227.727	517.260	-0.058	0.134
-226.713	62.753	-0.164	-0.163
-225.698	-61.255	0.333	0.139
-224.684	-156.651	0.197	-0.012
-223.669	116.020	-0.093	0.113
-222.655	251.162	0.025	0.041
-221.640	631.129	0.078	0.197
-220.625	270.478	-0.118	0.207
-219.611	445.710	0.193	0.421
-218.596	-115.247	-0.108	0.020
-217.582	33.137	-0.094	0.081
-216.567	236.876	-0.093	-0.153
-215.552	-116.171	-0.088	0.016
-214.538	-16.689	-0.252	0.158
-213.523	29.805	0.107	-0.091
-212.509	-23.377	-0.215	0.128
-211.494	800.000	0.060	0.218
-210.479	800.000	0.009	0.033
-209.465	-200.000	-0.064	0.374
-208.450	7.190	-0.064	-0.047
-207.436	78.508	0.030	-0.032
-206.421	800.000	-0.152	-0.506
-205.406	-82.238	-0.360	-0.116
-204.392	-200.000	0.029	-0.188
-203.377	54.708	0.383	-0.367
-202.363	-200.000	-0.007	0.272
-201.348	112.345	-0.190	-0.228
-200.333	-91.555	0.116	0.033
-199.319	-125.875	0.355	0.053
-198.304	-200.000	0.001	-0.059
-197.290	80.375	-0.116	0.124
-196.275	-200.000	0.031	-0.149
-195.260	434.613	-0.044	-0.094
-194.246	-61.313	0.370	0.155
-193.231	-105.604	0.161	-0.036
-192.217	-186.968	-0.193	-0.003
-191.202	-61.980	-0.313	-0.130
-190.187	95.719	0.201	-0.228
-189.173	11.443	-0.119	0.091
-188.158	-85.388	0.438	0.135
-187.144	-200.000	-0.013	-0.066
-186.129	-200.000	-0.014	-0.112
-185.114	41.814	0.244	0.220
-184.100	-200.000	0.043	0.307
-183.085	84.297	0.138	0.150
-182.071	-200.000	-0.066	0.303
-181.056	-200.000	-0.003	-0.182
-180.042	-200.000	0.046	-0.413
-179.027	800.000	-0.115	-0.316
-178.012	-200.000	0.007	0.495
-176.998	85.499	-0.173	0.188
-175.983	602.455	-0.185	0.456
-174.969	-23.859	-0.234	-0.139
-173.954	-43.673	-0.304	0.152
-172.939	-1.687	0.234	0.163
-171.925	221.518	-0.117	0.187
-170.910	-79.333	0.291	0.098
-169.896	-25.320	-0.030	0.018
-168.881	35.447	0.103	0.090
-167.866	32.442	0.128	0.109
-166.852	-100.506	0.089	-0.022
-165.837	800.000	-0.099	-0.368
-164.823	501.983	0.072	0.165
-163.808	-50.534	0.148	-0.069
-162.793	4.463	0.116	0.084
-161.779	-165.030	-0.425	0.019
-160.764	-200.000	0.048	0.274
-159.750	-156.511	0.154	0.010
-158.735	-160.800	0.172	-0.009
-157.720	722.080	-0.104	0.274
-156.706	15.847	0.270	-0.210
-155.691	-106.257	-0.154	0.034
-154.677	-187.560	0.083	0.001
-153.662	800.000	-0.022	-0.067
-152.647	51.506	-0.253	0.238
-151.633	-9.000	0.067	-0.044
-150.618	-38.374	-0.318	-0.167
-149.604	-59.347	-0.413	0.176
-148.589	75.305	0.179	-0.187
-147.574	-44.257	-0.330	-0.164
-146.560	-168.475	0.175	-0.007
-145.545	-163.864	-0.198	-0.009
-144.531	698.411	0.132	-0.344
-143.516	-166.768	0.178	0.007
-142.502	-35.344	-0.266	-0.143
-141.487	800.000	0.122	-0.400
-140.472	800.000	-0.089	0.299
-139.458	800.000	0.075	0.245
-138.443	-126.723	0.012	-0.002
-137.429	800.000	0.064	0.236
-136.414	92.002	0.110	-0.122
-135.399	-200.000	-0.052	0.401
-134.385	398.852	-0.109	0.226
-133.370	800.000	-0.037	0.135
-132.356	620.881	-0.081	-0.201
-131.341	-200.000	-0.012	-0.286
-130.326	431.222	0.117	-0.251
-129.312	-200.000	0.008	0.445
-128.297	208.550	0.179	0.277
-127.283	497.957	0.133	0.303
-126.268	20.355	0.057	-0.045
-125.253	-72.833	-0.191	0.069
-124.239	-54.443	-0.125	-0.056
-123.224	-92.343	0.114	-0.032
-122.210	800.000	0.124	0.351
-121.195	-200.000	-0.001	-0.024
-120.180	-78.941	-0.439	-0.148
-119.166	-105.299	0.234	-0.053
-118.151	79.852	0.224	0.238
-117.137	-200.000	0.011	-0.056
-116.122	800.000	0.068	0.203
-115.107	800.000	0.091	-0.257
-114.093	-149.716	0.079	-0.006
-113.078	-90.270	0.073	-0.021
-112.064	-200.000	-0.004	-0.206
-111.049	-200.000	0.017	-0.142
-110.034	15.817	-0.308	0.240
-109.020	-75.362	0.125	-0.044
-108.005	-200.000	0.045	0.422
-106.991	221.930	-0.066	0.105
-105.976	62.773	-0.091	0.089
-104.962	-200.000	0.055	-0.370
-103.947	-91.132	0.144	-0.041
-102.932	-200.000	0.015	0.302
-101.918	800.000	0.041	-0.131
-100.903	127.241	-0.246	-0.309
-99.889	800.000	0.084	-0.257
-98.874	-8.990	0.107	-0.071
-97.859	-179.608	0.032	-0.001
-96.845	800.000	-0.152	0.419
-95.830	-45.768	0.291	0.142
-94.816	794.231	0.047	-0.128
-93.801	-81.787	0.422	-0.137
-92.786	-200.000	0.014	0.090
-91.772	-149.430	-0.446	-0.035
-90.757	-200.000	-0.079	0.345
-89.743	-200.000	-0.026	-0.152
-88.728	-59.854	0.250	0.105
-87.713	-200.000	-0.242	0.000
-86.699	-65.854	-0.065	-0.026
-85.684	661.251	-0.048	0.122
-84.670	-200.000	-0.014	0.325
-83.655	-200.000	-0.052	-0.348
-82.640	62.706	0.191	-0.189
-81.626	643.665	-0.073	0.185
-80.611	-121.592	-0.206	0.034
-79.597	-167.840	0.266	-0.010
-78.582	232.417	-0.051	0.083
-77.567	800.000	-0.010	0.030
-76.553	336.897	0.091	0.174
-75.538	800.000	0.084	0.255
-74.524	266.322	-0.087	-0.150
-73.509	-57.649	-0.183	-0.079
-72.494	-119.992	0.254	0.043
-71.480	466.263	-0.067	0.147
-70.465	49.365	0.063	-0.059
-69.451	35.958	0.331	0.287
-68.436	-34.880	-0.183	0.099
-67.422	-200.000	-0.005	0.087
-66.407	-68.834	0.453	0.172
-65.392	-200.000	-0.020	0.508
-64.378	240.316	-0.267	0.438
-63.363	733.496	0.045	0.119
-62.349	-200.000	-0.036	0.165
-61.334	146.760	-0.653	-0.866
-60.319	-200.000	0.098	0.650
-59.305	-200.000	0.029	-0.757
-58.290	260.647	0.533	0.910
-57.276	-200.000	0.302	1.694
-56.261	-200.000	94.207	555.686
-55.246	541.274	1370.817	3220.703
-54.232	158.596	2553.137	3495.351
-53.217	111.264	2175.323	2585.022
-52.203	44.243	1715.925	1552.536
-51.188	37.494	1526.868	1335.292
-50.173	35.017	1500.249	1295.228
-49.159	54.529	1546.897	1469.833
-48.144	56.888	1565.451	1503.590
-47.130	37.757	1524.939	1335.198
-46.115	34.510	1510.098	1300.068
-45.100	34.256	1507.406	1295.969
-44.086	34.295	1505.126	1294.227
-43.071	34.126	1503.743	1291.833
-42.057	34.150	1502.190	1290.615
-41.042	34.165	1500.584	1289.286
-40.027	34.230	1499.011	1288.322
-39.013	34.348	1497.103	1287.425
-37.998	34.271	1496.127	1286.018
-36.984	34.225	1495.289	1284.938
-35.969	34.215	1493.931	1283.647
-34.954	34.224	1492.209	1282.178
-33.940	34.208	1491.089	1281.056
-32.925	34.224	1489.819	1280.025
-31.911	34.186	1488.728	1278.783
-30.896	34.306	1487.413	1278.405
-29.881	34.407	1485.202	1277.134
-28.867	34.222	1484.615	1275.341
-27.852	34.345	1482.987	1274.714
-26.838	34.312	1481.415	1273.091
-25.823	34.314	1479.954	1271.794
-24.809	34.299	1478.617	1270.494
-23.794	34.258	1477.161	1268.920
-22.779	34.300	1475.342	1267.587
-21.765	34.296	1474.819	1267.065
-20.750	34.310	1473.590	1266.051
-19.736	34.262	1472.666	1264.885
-18.721	34.291	1471.566	1264.081
-17.706	34.251	1470.543	1262.890
-16.692	34.100	1469.932	1261.317
-15.677	34.185	1469.120	1261.129
-14.663	34.275	1467.620	1260.385
-13.648	34.227	1466.663	1259.201
-12.633	34.239	1465.889	1258.564
-11.619	34.295	1464.957	1258.086
-10.604	34.244	1464.062	1256.928
-9.590	34.163	1463.078	1255.498
-8.575	34.232	1462.302	1255.237
-7.560	34.268	1461.003	1254.312
-6.546	34.239	1460.791	1253.890
-5.531	34.208	1460.216	1253.139
-4.517	34.250	1458.376	1251.789
-3.502	34.268	1457.311	1250.942
-2.487	34.130	1457.360	1250.028
-1.473	34.062	1456.074	1248.427
-0.458	34.194	1454.391	1247.805
0.556	32.171	1444.506	1235.142
1.571	28.606	1417.442	1188.846
2.586	24.382	1354.529	1109.761
3.600	22.315	1272.072	1030.026
4.615	20.928	1225.978	984.785
5.629	18.149	1169.792	924.567
6.644	9.237	1084.026	811.860
7.659	1.559	1040.950	742.170
8.673	0.267	1035.460	731.918
9.688	0.052	1032.320	728.588
10.702	0.034	1030.528	727.177
11.717	0.117	1028.903	726.363
12.731	2.777	1032.259	741.537
13.746	11.488	1044.119	792.424
14.761	17.754	1050.723	827.877
15.775	17.732	1049.534	826.761
16.790	16.637	1047.558	819.829
17.804	15.315	1045.611	811.839
18.819	14.618	1043.451	806.719
19.834	14.109	1042.244	803.260
20.848	13.867	1040.998	801.056
21.863	13.673	1040.427	799.612
22.877	13.482	1039.583	797.974
23.892	13.093	1038.998	795.582
24.907	13.120	1038.145	794.985
25.921	13.191	1037.052	794.418
26.936	13.120	1036.698	793.740
27.950	13.269	1036.267	794.054
28.965	13.146	1035.365	792.702
29.980	13.203	1034.775	792.450
30.994	13.222	1033.953	791.845
32.009	13.292	1032.960	791.349
33.023	13.486	1032.029	791.493
34.038	13.390	1031.660	790.679
35.053	13.372	1030.673	789.768
36.067	13.287	1029.412	788.325
37.082	13.365	1028.774	788.141
38.096	13.271	1027.918	786.966
39.111	13.335	1027.195	786.647
40.126	13.490	1025.992	786.392
41.140	13.358	1024.853	784.827
42.155	13.158	1024.350	783.421
43.169	12.993	1023.603	782.002
44.184	13.069	1022.452	781.412
45.199	13.207	1021.258	781.080
46.213	13.114	1020.240	779.796
47.228	12.989	1020.318	779.196
48.242	13.201	1018.766	778.940
49.257	13.258	1017.522	778.191
50.271	13.218	1016.889	777.446
51.286	13.254	1016.164	776.994
52.301	13.199	1015.237	775.958
53.315	13.231	1014.622	775.571
54.330	13.256	1013.592	774.832
55.344	13.112	1012.990	773.630
56.359	13.106	1011.775	772.602
57.374	13.063	1010.931	771.687
58.388	13.158	1010.365	771.634
59.403	13.037	1009.466	770.314
60.417	13.088	1008.558	769.790
61.432	12.937	1008.271	768.798
62.447	13.121	1007.116	768.708
63.461	13.077	1006.317	767.822
64.476	13.030	1005.545	766.950
65.490	13.123	1004.577	766.575
66.505	13.059	1003.447	765.346
67.520	13.031	1003.109	764.892
68.534	13.091	1002.142	764.363
69.549	13.107	1001.451	763.842
70.563	12.926	1001.023	762.615
71.578	13.054	1000.266	762.560
72.593	13.047	999.121	761.590
73.607	12.884	998.290	760.134
74.622	13.043	997.342	760.077
75.636	12.920	996.393	758.722
76.651	12.902	995.731	758.068
77.666	12.947	994.936	757.602
78.680	12.970	994.381	757.220
79.695	13.031	993.834	757.015
80.709	13.028	993.319	756.544
81.724	13.008	992.623	755.854
82.739	13.196	991.688	755.934
83.753	13.256	990.942	755.574
84.768	13.308	989.921	754.965
85.782	13.263	990.034	754.781
86.797	13.226	989.127	753.853
87.812	13.384	987.793	753.488
88.826	13.257	987.378	752.529
89.841	13.254	986.406	751.706
90.855	13.302	985.788	751.388
91.870	13.261	984.686	750.293
92.884	13.288	984.302	750.057
93.899	13.384	983.727	749.990
94.914	13.338	982.534	748.804
95.928	13.458	982.398	749.176
96.943	13.394	981.188	747.901
97.957	13.305	980.636	747.010
98.972	13.519	979.599	747.122
99.987	13.266	979.264	745.659
101.001	13.381	978.594	745.599
102.016	13.384	977.490	744.706
103.030	13.423	976.315	743.919
104.045	13.295	975.896	742.958
105.060	13.271	975.159	742.224
106.074	13.306	973.713	741.215
107.089	13.300	972.948	740.541
108.103	13.255	972.264	739.753
109.118	13.115	971.421	738.420
110.133	13.247	970.745	738.432
111.147	13.060	969.929	736.910
112.162	13.136	968.873	736.383
113.176	13.120	968.296	735.807
114.191	13.237	966.795	735.122
115.206	13.229	966.330	734.666
116.220	13.252	965.604	734.155
117.235	13.280	964.681	733.509
118.249	13.292	963.464	732.574
119.264	13.303	962.925	732.149
120.279	13.247	962.333	731.386
121.293	13.101	961.771	730.246
122.308	13.328	960.468	730.198
123.322	13.043	960.028	728.537
124.337	13.034	959.014	727.665
125.352	13.095	958.208	727.259
126.366	13.154	957.123	726.631
127.381	13.087	956.255	725.611
128.395	13.300	954.782	725.364
129.410	13.282	954.083	724.692
130.424	13.140	953.659	723.680
131.439	13.203	952.641	723.121
132.454	13.252	951.778	722.614
133.468	13.184	950.895	721.584
134.483	13.280	950.458	721.611
135.497	13.266	949.696	720.905
136.512	13.350	948.965	720.651
137.527	13.293	947.933	719.557
138.541	13.212	947.118	718.525
139.556	13.237	946.642	718.205
140.570	13.243	945.686	717.443
141.585	13.357	945.266	717.556
142.600	13.357	944.996	717.287
143.614	13.396	943.702	716.410
144.629	13.482	942.874	716.090
145.643	13.492	942.295	715.630
146.658	13.418	941.196	714.415
147.673	13.351	940.281	713.365
148.687	13.555	939.588	713.658
149.702	13.316	938.982	712.107
150.716	13.249	938.325	711.254
151.731	13.239	937.387	710.437
152.746	13.195	936.685	709.653
153.760	13.251	936.068	709.366
154.775	13.392	934.913	709.031
155.789	13.521	934.069	708.879
156.804	13.529	933.031	708.062
157.819	13.422	932.628	707.240
158.833	13.371	932.290	706.699
159.848	13.562	931.376	706.760
160.862	13.500	930.868	706.048
161.877	13.694	929.549	705.814
162.892	13.535	928.998	704.653
163.906	13.409	928.448	703.638
164.921	13.499	927.348	703.126
165.935	13.375	926.452	701.859
166.950	13.325	925.615	700.947
167.964	13.577	924.987	701.478
168.979	13.446	924.081	700.175
169.994	13.430	922.962	699.201
171.008	13.462	922.240	698.723
172.023	13.551	921.321	698.344
173.037	13.623	920.745	698.145
174.052	13.526	920.481	697.478
175.067	13.609	919.378	696.927
176.081	13.538	918.588	695.971
177.096	13.484	917.858	695.127
178.110	13.511	916.662	694.274
179.125	13.467	916.539	693.933
180.140	13.584	915.934	693.904
181.154	13.432	915.101	692.576
182.169	13.518	914.400	692.343
183.183	13.631	913.763	692.273
184.198	13.682	912.845	691.727
185.213	13.651	912.192	691.042
186.227	13.766	911.447	690.896
187.242	13.740	911.089	690.457
188.256	13.670	910.412	689.591
189.271	13.750	909.835	689.426
190.286	13.787	908.963	688.858
191.300	13.812	908.188	688.312
192.315	13.680	907.102	686.884
193.329	13.622	906.767	686.327
194.344	13.534	906.285	685.540
195.359	13.568	905.729	685.199
196.373	13.762	905.009	685.395
197.388	13.723	904.339	684.666
198.402	13.794	903.951	684.602
199.417	13.956	903.233	684.667
200.432	13.972	903.035	684.522
201.446	13.996	903.056	684.576
202.461	13.917	902.450	683.733
203.475	13.982	902.095	683.668
204.490	14.049	900.746	682.861
205.504	14.024	900.043	682.166
206.519	14.115	899.426	682.010
207.534	13.942	898.499	680.537
208.548	13.969	897.620	679.922
209.563	14.047	897.413	680.024
210.577	13.961	896.996	679.298
211.592	14.089	895.808	678.861
212.607	14.200	895.036	678.669
213.621	14.188	894.869	678.434
214.636	14.273	893.873	677.965
215.650	14.105	893.212	676.719
216.665	14.021	893.418	676.474
217.680	14.166	892.891	676.603
218.694	14.285	891.862	676.248
219.709	14.259	891.621	675.901
220.723	14.129	891.097	674.915
221.738	14.171	890.311	674.430
222.753	14.174	889.404	673.694
223.767	14.230	888.840	673.435
224.782	14.247	888.143	672.915
225.796	14.368	887.082	672.541
226.811	14.293	886.562	671.786
227.826	14.372	885.822	671.482
228.840	14.307	884.924	670.482
229.855	14.274	884.866	670.246
230.869	14.366	883.876	669.807
231.884	14.310	883.464	669.207
232.899	14.223	882.986	668.439
233.913	14.315	881.984	667.989
234.928	14.266	881.076	667.048
235.942	14.155	880.958	666.455
236.957	14.284	879.975	666.168
237.972	14.335	879.208	665.733
238.986	14.338	879.019	665.542
240.001	14.253	878.356	664.640
241.015	14.252	877.742	664.113
242.030	14.268	876.921	663.496
243.045	14.446	876.276	663.659
244.059	14.415	875.670	663.019
245.074	14.464	875.007	662.653
246.088	14.445	874.339	662.015
247.103	14.440	873.966	661.654
248.117	14.485	873.181	661.178
249.132	14.514	872.653	660.837
250.147	14.759	871.750	661.063
251.161	14.734	871.353	660.604
252.176	14.784	870.744	660.283
253.190	14.689	870.291	659.503
254.205	14.812	869.399	659.255
255.220	14.699	868.793	658.293
256.234	14.789	868.217	658.151
257.249	14.860	867.342	657.708
258.263	14.760	867.501	657.377
259.278	14.946	866.540	657.325
260.293	14.928	866.015	656.795
261.307	14.953	865.703	656.599
262.322	14.869	864.808	655.532
263.336	15.083	864.198	655.850
264.351	14.948	863.870	655.014
265.366	15.149	863.107	655.164
266.380	14.919	862.460	653.715
267.395	15.094	861.576	653.674
268.409	15.123	860.992	653.284
269.424	14.960	860.447	652.179
270.439	15.182	859.294	652.110
271.453	15.076	858.732	651.213
272.468	15.050	857.984	650.489
273.482	15.090	857.355	650.110
274.497	14.994	856.871	649.312
275.512	14.939	856.629	648.858
276.526	15.062	855.472	648.399
277.541	15.197	854.620	648.218
278.555	15.054	854.395	647.438
279.570	15.084	854.181	647.335
280.585	15.306	853.267	647.443
281.599	15.196	852.911	646.690
282.614	15.118	852.193	645.788
283.628	15.145	851.730	645.484
284.643	15.210	851.314	645.363
285.657	15.280	850.462	644.927
286.672	15.259	849.836	644.317
287.687	15.132	849.658	643.637
288.701	15.200	849.025	643.359
289.716	15.082	848.840	642.710
290.730	15.256	847.942	642.639
291.745	15.334	847.618	642.637
292.760	15.397	846.499	641.973
293.774	15.436	846.054	641.727
294.789	15.437	845.799	641.483
295.803	15.298	845.055	640.330
296.818	15.539	843.956	640.360
297.833	15.427	843.691	639.674
298.847	15.498	842.930	639.310
299.862	15.522	841.867	638.542
300.876	15.196	841.918	637.284
301.891	15.595	840.693	637.813
302.906	15.601	840.041	637.287
303.920	15.636	839.497	636.949
304.935	15.726	838.962	636.828
305.949	15.606	838.796	636.190
306.964	15.641	837.796	635.508
307.979	15.512	837.266	634.563
308.993	15.660	836.829	634.735
310.008	15.626	836.232	634.095
311.022	15.760	835.631	634.090
312.037	15.648	835.524	633.531
313.052	15.539	835.096	632.739
314.066	15.652	834.139	632.385
315.081	15.567	833.599	631.600
316.095	15.577	833.228	631.299
317.110	15.720	832.505	631.232
318.125	15.634	832.077	630.530
319.139	15.530	831.701	629.799
320.154	15.563	831.107	629.415
321.168	15.647	830.415	629.150
322.183	15.749	829.689	628.926
323.197	15.647	829.706	628.503
324.212	15.709	829.051	628.184
325.227	15.697	828.444	627.623
326.241	15.759	828.004	627.466
327.256	15.731	827.489	626.914
328.270	15.626	827.011	626.106
329.285	15.699	826.134	625.656
330.300	15.793	825.367	625.370
331.314	15.749	825.122	624.968
332.329	15.917	824.187	624.826
333.343	15.855	823.825	624.267
334.358	16.024	822.947	624.173
335.373	15.975	822.464	623.570
336.387	16.025	822.153	623.464
337.402	16.054	821.442	622.975
338.416	15.985	821.069	622.384
339.431	15.930	820.665	621.821
340.446	16.302	819.574	622.309
341.460	16.058	819.314	621.158
342.475	16.187	818.846	621.224
343.489	16.286	818.089	620.959
344.504	16.202	817.624	620.240
345.519	16.259	817.293	620.143
346.533	16.298	816.705	619.785
347.548	16.302	816.342	619.472
348.562	16.091	815.867	618.281
349.577	16.187	815.307	618.155
350.592	16.229	814.503	617.645
351.606	16.030	814.234	616.658
352.621	16.288	813.494	616.986
353.635	15.980	813.626	615.906
354.650	16.127	812.994	615.909
355.665	16.289	812.093	615.764
356.679	16.308	811.782	615.541
357.694	16.428	811.172	615.461
358.708	16.282	811.368	615.023
359.723	16.413	810.519	614.804
360.738	16.350	809.920	614.066
361.752	16.329	809.788	613.833
362.767	16.308	809.220	613.274
363.781	16.460	808.906	613.531
364.796	16.478	808.332	613.110
365.810	16.439	808.140	612.769
366.825	16.522	807.638	612.633
367.840	16.619	807.250	612.635
368.854	16.643	806.402	612.024
369.869	16.498	806.211	611.302
370.883	16.551	805.588	610.968
371.898	16.668	804.822	610.754
372.913	16.551	804.593	610.103
373.927	16.567	804.009	609.663
374.942	16.644	803.102	609.201
375.956	16.563	802.346	608.281
376.971	16.584	802.134	608.142
377.986	16.744	801.487	608.174
379.000	16.788	801.112	607.993
380.015	16.671	800.820	607.297
381.029	16.866	799.809	607.174
382.044	16.792	799.715	606.787
383.059	16.811	798.941	606.211
384.073	16.851	798.339	605.844
385.088	16.886	797.840	605.539
386.102	16.804	797.396	604.855
387.117	16.828	796.695	604.357
388.132	16.811	796.132	603.813
389.146	16.755	796.314	603.699
390.161	16.843	796.064	603.770
391.175	16.835	795.453	603.225
392.190	16.914	795.323	603.352
393.205	16.862	794.809	602.724
394.219	16.964	793.792	602.261
395.234	16.975	793.435	601.978
396.248	16.798	793.099	601.041
397.263	16.887	792.531	600.873
398.278	16.819	791.874	600.080
399.292	16.694	791.789	599.520
400.307	16.796	791.646	599.721
401.321	16.714	791.231	599.064
402.336	16.875	790.432	598.973
403.350	17.037	789.738	598.965
404.365	16.833	789.565	598.063
405.380	17.063	788.666	598.140
406.394	17.043	788.442	597.845
407.409	17.133	788.126	597.872
408.423	17.150	787.603	597.480
409.438	17.205	787.444	597.500
410.453	17.218	786.723	596.946
411.467	17.181	786.794	596.817
412.482	17.240	786.166	596.494
413.496	17.225	786.025	596.281
414.511	17.317	785.374	596.059
415.526	17.178	785.072	595.289
416.540	17.204	784.865	595.172
417.555	17.322	784.402	595.180
418.569	17.241	783.816	594.399
419.584	17.267	783.196	593.970
420.599	17.350	782.798	593.902
421.613	104.976	1284.241	1447.393
422.628	89.723	1357.302	1447.512
