DTS Sentinel unit serial number:	SN413079Multiplexer serial number:	ORYXHardware model number:	OX4-SRSoftware version number:	ORYX F/W v4.00 Oryx Data Collector v3.7.2.0data status	okinstallation	princeton_trtdifferential loss correction	single-endedforward channel	channel 3reverse channel	N/Adate	2019/09/17time	08:32:35forward acquisition time	60.00reverse acquisition time	0.00gamma	496.2192k internal	0.2332k external	0.2332temperature offset calibration	0.9935default loss term (dB/km)	0.3790temperature slope calibration	1.0000multiplexer offset coefficient	1.0000multiplexer slope coefficient	1.0000fibre end	0.00T internal ref (°C)	27.58T ext. ref 1 (°C)	0.13T ext. ref 2 (°C)	23.10length (m)	temperature (°C)	Stokes	anti-Stokes-747.200	72.814	0.233	0.244
-746.185	304.553	0.137	0.256
-745.171	175.243	-0.341	0.498
-744.156	-91.267	0.179	0.052
-743.142	214.103	0.089	0.142
-742.127	129.365	-0.146	0.188
-741.112	-129.374	0.249	-0.035
-740.098	111.197	0.320	0.388
-739.083	617.421	0.034	-0.085
-738.069	100.918	-0.138	0.161
-737.054	-141.606	0.142	0.014
-736.039	-60.924	-0.165	-0.070
-735.025	-60.621	0.400	0.171
-734.010	-143.167	-0.175	0.017
-732.996	-33.631	-0.134	-0.074
-731.981	72.766	0.158	-0.166
-730.966	-105.226	-0.202	0.046
-729.952	-92.938	-0.231	0.065
-728.937	614.913	-0.017	-0.044
-727.923	-200.000	-0.015	0.124
-726.908	-200.000	-0.016	-0.077
-725.894	244.117	-0.175	0.295
-724.879	632.818	-0.105	0.269
-723.864	41.826	0.083	0.076
-722.850	-200.000	0.309	0.000
-721.835	-126.004	0.111	0.017
-720.821	800.000	0.039	0.130
-719.806	-200.000	-0.051	-0.237
-718.791	-123.840	-0.183	-0.029
-717.777	191.034	-0.105	0.158
-716.762	-90.575	-0.179	-0.052
-715.748	-87.621	0.234	-0.071
-714.733	-200.000	0.004	0.075
-713.718	30.607	-0.073	-0.063
-712.704	-82.257	-0.029	0.009
-711.689	-200.000	-0.105	-0.506
-710.675	185.739	0.155	-0.232
-709.660	176.110	0.086	0.126
-708.645	170.762	0.026	-0.037
-707.631	278.039	-0.080	0.143
-706.616	800.000	0.071	-0.286
-705.602	-38.115	-0.310	-0.165
-704.587	205.123	-0.119	-0.186
-703.572	-19.637	0.219	-0.136
-702.558	61.929	-0.204	-0.204
-701.543	-200.000	-0.043	0.222
-700.529	-161.496	-0.249	0.013
-699.514	-98.133	-0.333	-0.086
-698.499	-160.137	-0.342	0.019
-697.485	134.353	0.027	0.035
-696.470	658.289	-0.129	0.333
-695.456	218.923	0.046	-0.073
-694.441	-171.225	-0.187	0.006
-693.426	673.569	0.008	0.020
-692.412	800.000	0.068	-0.197
-691.397	-200.000	0.041	-0.588
-690.383	105.990	0.145	-0.172
-689.368	-200.000	-0.095	0.448
-688.354	-200.000	-0.047	-0.345
-687.339	-200.000	-0.003	-0.386
-686.324	189.122	-0.125	-0.188
-685.310	-200.000	-0.030	0.296
-684.295	-200.000	0.007	0.099
-683.281	122.088	-0.021	0.026
-682.266	-200.000	-0.056	0.322
-681.251	177.207	-0.298	-0.435
-680.237	-200.000	-0.030	-0.311
-679.222	249.503	0.158	-0.269
-678.208	65.883	0.182	0.185
-677.193	-161.694	-0.159	-0.008
-676.178	185.842	-0.016	0.024
-675.164	127.775	0.135	-0.172
-674.149	-145.202	0.206	-0.019
-673.135	-82.870	0.139	0.045
-672.120	-183.839	0.207	0.004
-671.105	-54.000	0.079	-0.036
-670.091	-197.190	0.179	0.001
-669.076	-64.924	-0.109	-0.044
-668.062	-200.000	-0.196	0.001
-667.047	-81.832	0.167	0.055
-666.032	-85.953	0.384	0.119
-665.018	638.094	-0.091	-0.232
-664.003	800.000	0.032	0.140
-662.989	472.629	0.130	-0.293
-661.974	-200.000	0.029	-0.180
-660.959	-28.289	-0.183	0.106
-659.945	-200.000	-0.009	-0.255
-658.930	-13.108	-0.251	-0.163
-657.916	89.188	0.094	0.105
-656.901	-128.997	-0.095	0.013
-655.886	54.616	0.065	0.063
-654.872	56.359	0.032	0.031
-653.857	2.628	-0.190	-0.138
-652.843	-16.564	-0.065	0.041
-651.828	-200.000	0.023	0.117
-650.814	163.285	0.192	0.271
-649.799	23.698	0.243	-0.201
-648.784	-106.154	0.232	-0.052
-647.770	-200.000	-0.002	-0.021
-646.755	800.000	0.078	0.253
-645.741	-45.620	-0.062	0.031
-644.726	-200.000	0.045	0.256
-643.711	-8.398	-0.072	0.049
-642.697	-14.438	0.139	-0.090
-641.682	-200.000	-0.030	0.182
-640.668	174.112	-0.032	0.047
-639.653	237.055	-0.184	-0.305
-638.638	-135.151	-0.197	0.024
-637.624	-105.211	0.183	0.042
-636.609	-200.000	0.014	0.174
-635.595	476.313	0.090	0.205
-634.580	-20.582	-0.295	0.181
-633.565	800.000	0.021	0.059
-632.551	800.000	0.054	0.172
-631.536	70.354	-0.151	0.157
-630.522	383.913	0.009	0.019
-629.507	-200.000	0.023	-0.141
-628.492	368.945	-0.053	0.107
-627.478	99.098	-0.125	-0.145
-626.463	800.000	-0.087	-0.334
-625.449	26.023	-0.040	0.033
-624.434	-200.000	0.016	-0.434
-623.419	-114.725	0.366	-0.070
-622.405	-63.707	0.345	-0.141
-621.390	-158.471	0.346	-0.020
-620.376	146.829	0.166	0.223
-619.361	12.042	0.133	0.103
-618.346	-98.637	0.135	-0.034
-617.332	78.844	-0.156	0.167
-616.317	-69.659	0.379	-0.145
-615.303	-153.875	0.227	0.016
-614.288	800.000	-0.041	-0.139
-613.273	-118.325	-0.215	0.038
-612.259	202.800	-0.170	0.263
-611.244	167.763	-0.014	0.020
-610.230	-129.389	-0.144	0.020
-609.215	-200.000	-0.069	0.425
-608.201	134.016	0.147	-0.191
-607.186	-200.000	-0.000	0.037
-606.171	-200.000	-0.049	-0.331
-605.157	-143.231	0.343	0.033
-604.142	800.000	0.055	-0.214
-603.128	-53.017	-0.265	0.122
-602.113	427.013	-0.120	-0.259
-601.098	-200.000	-0.032	0.242
-600.084	-36.661	0.259	-0.139
-599.069	592.543	-0.066	0.162
-598.055	36.389	-0.264	-0.233
-597.040	-176.791	-0.439	-0.011
-596.025	778.880	-0.122	0.334
-595.011	176.948	-0.144	-0.210
-593.996	438.844	0.050	0.109
-592.982	-16.546	-0.182	0.115
-591.967	-43.065	0.101	0.051
-590.952	125.451	0.086	0.108
-589.938	-53.976	-0.306	-0.139
-588.923	-75.541	0.176	-0.062
-587.909	-11.513	-0.176	-0.116
-586.894	-200.000	0.005	-0.315
-585.879	-200.000	-0.025	0.207
-584.865	598.706	0.194	0.482
-583.850	-200.000	0.003	0.227
-582.836	484.675	-0.088	-0.200
-581.821	-8.937	-0.286	-0.191
-580.806	-113.747	0.034	-0.007
-579.792	442.701	0.048	-0.105
-578.777	164.978	-0.065	-0.092
-577.763	-77.766	-0.154	0.053
-576.748	-200.000	0.007	0.122
-575.733	800.000	-0.128	0.355
-574.719	117.709	0.135	-0.166
-573.704	797.075	0.044	0.121
-572.690	334.408	-0.138	-0.267
-571.675	80.434	0.181	-0.195
-570.661	-56.374	0.259	0.115
-569.646	292.622	-0.251	0.457
-568.631	131.167	-0.142	-0.182
-567.617	-129.823	-0.143	0.020
-566.602	359.898	-0.061	-0.122
-565.588	179.067	0.196	-0.286
-564.573	-61.560	0.112	-0.047
-563.558	57.613	-0.147	0.144
-562.544	-68.213	0.252	0.098
-561.529	-200.000	-0.004	0.286
-560.515	157.354	0.264	0.364
-559.500	5.297	-0.131	0.097
-558.485	800.000	0.091	0.295
-557.471	123.069	0.244	0.305
-556.456	15.292	-0.181	0.142
-555.442	-46.981	-0.183	0.089
-554.427	157.495	0.129	-0.179
-553.412	-32.026	-0.192	-0.107
-552.398	140.541	-0.054	0.071
-551.383	-38.511	0.145	0.077
-550.369	-200.000	-0.005	-0.118
-549.354	134.880	-0.082	0.107
-548.339	-200.000	0.023	0.117
-547.325	-56.554	-0.180	0.080
-546.310	-155.926	0.053	0.003
-545.296	53.073	0.186	0.178
-544.281	521.432	-0.066	-0.154
-543.266	704.608	-0.100	0.263
-542.252	-79.971	-0.185	-0.062
-541.237	310.537	0.101	0.189
-540.223	523.254	0.077	-0.181
-539.208	33.896	0.123	0.107
-538.193	-30.986	-0.035	0.020
-537.179	152.182	-0.172	0.234
-536.164	-69.761	0.178	0.068
-535.150	7.592	0.163	-0.122
-534.135	-76.632	-0.399	-0.140
-533.121	-28.820	-0.106	-0.061
-532.106	-137.256	0.175	-0.020
-531.091	800.000	-0.033	0.098
-530.077	-63.268	-0.048	-0.020
-529.062	54.460	-0.255	-0.245
-528.048	-46.655	-0.307	-0.150
-527.033	-200.000	0.049	-0.229
-526.018	112.584	-0.147	-0.177
-525.004	-100.499	0.281	0.069
-523.989	530.630	-0.196	-0.463
-522.975	-200.000	0.000	0.205
-521.960	525.496	0.099	0.233
-520.945	800.000	-0.022	-0.067
-519.931	679.031	-0.053	0.137
-518.916	-200.000	0.064	0.299
-517.902	333.324	-0.052	-0.101
-516.887	336.148	-0.186	-0.359
-515.872	-67.948	-0.220	0.086
-514.858	-54.017	0.170	-0.077
-513.843	-200.000	-0.001	0.022
-512.829	310.085	-0.035	0.065
-511.814	122.927	0.185	-0.230
-510.799	39.680	0.019	0.017
-509.785	109.893	-0.180	-0.215
-508.770	61.165	0.253	-0.251
-507.756	42.991	0.436	-0.396
-506.741	-40.868	0.143	0.074
-505.726	-27.695	-0.210	-0.121
-504.712	-5.290	-0.088	0.060
-503.697	136.080	-0.100	-0.130
-502.683	-19.099	0.240	0.149
-501.668	-200.000	0.038	-0.323
-500.653	-57.067	-0.229	0.101
-499.639	212.971	-0.175	0.275
-498.624	255.157	-0.041	0.070
-497.610	-106.490	0.020	0.005
-496.595	-170.493	0.252	0.009
-495.581	800.000	-0.042	0.145
-494.566	-83.494	-0.172	0.055
-493.551	-61.141	0.294	0.123
-492.537	-64.767	-0.253	0.102
-491.522	800.000	-0.044	-0.141
-490.508	-177.212	-0.418	-0.010
-489.493	800.000	0.027	0.080
-488.478	38.938	-0.157	-0.140
-487.464	-109.641	0.131	0.027
-486.449	-83.052	-0.063	0.020
-485.435	130.492	0.159	-0.203
-484.420	-200.000	0.049	0.247
-483.405	43.255	0.101	0.092
-482.391	-15.345	-0.156	0.099
-481.376	105.476	0.193	0.228
-480.362	130.346	0.016	0.021
-479.347	-200.000	0.045	-0.235
-478.332	-140.636	0.149	-0.015
-477.318	-200.000	0.037	0.298
-476.303	209.426	0.023	-0.036
-475.289	27.222	-0.041	-0.034
-474.274	-58.616	0.135	0.058
-473.259	86.414	-0.132	0.145
-472.245	-12.271	0.101	0.066
-471.230	-54.017	-0.287	0.130
-470.216	290.765	0.052	-0.095
-469.201	-17.008	-0.281	0.177
-468.186	128.535	-0.188	-0.239
-467.172	-52.122	-0.266	-0.123
-466.157	-200.000	0.025	0.157
-465.143	-125.935	0.387	0.058
-464.128	-200.000	0.001	0.018
-463.113	126.229	0.253	-0.319
-462.099	-200.000	-0.021	-0.180
-461.084	-118.539	0.217	-0.038
-460.070	-67.645	-0.208	-0.081
-459.055	800.000	0.037	-0.157
-458.040	-48.228	-0.153	0.073
-457.026	-54.461	-0.379	0.171
-456.011	-200.000	-0.005	0.081
-454.997	-91.301	-0.392	0.111
-453.982	3.033	-0.224	0.162
-452.968	800.000	-0.060	0.182
-451.953	89.858	0.211	0.234
-450.938	-68.261	-0.460	-0.178
-449.924	758.964	-0.100	0.268
-448.909	8.408	-0.211	0.158
-447.895	-184.228	0.092	0.002
-446.880	-200.000	0.019	0.330
-445.865	-18.489	0.290	-0.180
-444.851	202.163	0.106	-0.163
-443.836	-61.949	0.278	0.115
-442.822	-118.795	0.197	-0.034
-441.807	-54.388	0.168	0.076
-440.792	-200.000	0.061	-0.273
-439.778	-163.087	0.106	0.005
-438.763	-160.946	0.263	0.014
-437.749	651.514	-0.068	-0.172
-436.734	124.045	0.211	0.263
-435.719	-165.332	0.248	0.011
-434.705	-112.025	-0.066	-0.013
-433.690	-9.284	-0.166	-0.110
-432.676	-44.670	-0.436	0.217
-431.661	-90.913	0.224	-0.064
-430.646	143.034	0.214	0.283
-429.632	-11.109	0.309	-0.202
-428.617	-58.503	-0.120	-0.052
-427.603	-200.000	0.009	-0.125
-426.588	-39.439	0.220	0.115
-425.573	63.151	0.197	-0.196
-424.559	-170.897	-0.228	-0.008
-423.544	-122.508	0.263	-0.043
-422.530	5.786	-0.119	0.088
-421.515	-58.976	-0.071	0.031
-420.500	-200.000	0.049	-0.476
-419.486	-158.003	-0.190	0.011
-418.471	-58.147	-0.229	-0.099
-417.457	800.000	-0.031	0.087
-416.442	293.899	0.200	-0.362
-415.428	-130.533	0.182	-0.024
-414.413	-200.000	0.035	0.218
-413.398	-134.950	0.332	-0.040
-412.384	118.156	-0.101	-0.124
-411.369	73.073	-0.205	-0.212
-410.355	173.593	0.183	-0.262
-409.340	43.279	0.068	0.061
-408.325	80.972	-0.100	-0.108
-407.311	529.975	-0.040	-0.095
-406.296	-124.184	-0.225	-0.035
-405.282	59.155	-0.296	0.289
-404.267	87.007	0.072	-0.079
-403.252	800.000	0.097	0.293
-402.238	-200.000	0.086	0.476
-401.223	620.731	-0.060	0.149
-400.209	646.601	0.069	-0.174
-399.194	47.564	0.153	-0.142
-398.179	-4.761	0.253	-0.174
-397.165	513.093	-0.073	-0.170
-396.150	-81.294	0.143	0.047
-395.136	-74.072	-0.192	0.069
-394.121	25.089	0.058	0.048
-393.106	-7.717	-0.086	-0.058
-392.092	30.737	0.088	-0.074
-391.077	14.687	0.178	-0.138
-390.063	291.843	-0.140	-0.253
-389.048	800.000	0.028	0.087
-388.033	45.900	0.071	0.066
-387.019	104.832	0.122	0.143
-386.004	-89.579	-0.540	-0.157
-384.990	-200.000	0.007	0.110
-383.975	122.849	0.107	-0.133
-382.960	258.796	-0.143	0.244
-381.946	-15.345	0.192	0.122
-380.931	-200.000	-0.061	-0.333
-379.917	136.787	0.093	-0.120
-378.902	-200.000	0.046	0.260
-377.888	-34.104	0.309	0.168
-376.873	-8.604	-0.018	0.012
-375.858	-200.000	-0.036	-0.301
-374.844	161.161	0.176	-0.243
-373.829	372.368	-0.180	-0.364
-372.815	-78.076	0.201	0.069
-371.800	-73.215	-0.146	0.053
-370.785	-200.000	-0.031	-0.162
-369.771	-39.220	0.218	-0.113
-368.756	58.362	-0.256	-0.249
-367.742	-200.000	-0.050	-0.375
-366.727	-46.014	-0.278	0.136
-365.712	-46.593	0.200	-0.097
-364.698	-35.988	0.176	0.094
-363.683	224.720	0.077	-0.124
-362.669	592.979	-0.012	0.030
-361.654	167.014	-0.234	0.329
-360.639	-91.007	-0.365	0.104
-359.625	-106.384	0.354	0.078
-358.610	-200.000	0.005	-0.347
-357.596	800.000	-0.074	0.302
-356.581	-146.712	-0.277	0.024
-355.566	800.000	0.144	0.396
-354.552	-134.306	-0.300	0.037
-353.537	22.851	0.069	-0.056
-352.523	-35.620	0.018	-0.010
-351.508	16.219	0.170	0.133
-350.493	-200.000	-0.010	0.082
-349.479	-60.726	-0.133	-0.056
-348.464	272.482	0.180	0.315
-347.450	-200.000	-0.052	0.226
-346.435	201.727	0.216	-0.330
-345.420	-200.000	0.008	-0.266
-344.406	-109.465	-0.139	-0.029
-343.391	-24.948	0.164	-0.096
-342.377	-200.000	0.028	0.213
-341.362	131.671	0.104	0.132
-340.348	-13.232	0.332	-0.214
-339.333	-40.231	0.202	0.104
-338.318	618.811	-0.052	0.128
-337.304	-80.363	-0.245	0.081
-336.289	-152.367	-0.291	0.021
-335.275	-5.495	-0.097	-0.066
-334.260	800.000	0.046	-0.148
-333.245	-200.000	-0.013	-0.106
-332.231	-45.344	-0.043	0.021
-331.216	-50.457	-0.282	-0.132
-330.202	-20.134	-0.215	0.131
-329.187	14.582	0.104	0.081
-328.172	-75.031	-0.259	-0.092
-327.158	157.178	0.068	-0.092
-326.143	342.262	-0.036	0.070
-325.129	-200.000	0.004	0.159
-324.114	-200.000	-0.036	0.190
-323.099	800.000	0.093	-0.356
-322.085	-55.411	0.166	0.074
-321.070	-66.714	-0.073	0.029
-320.056	-83.858	-0.144	0.046
-319.041	-88.802	-0.247	0.073
-318.026	122.128	0.164	0.203
-317.012	133.698	0.141	0.180
-315.997	23.633	0.005	-0.004
-314.983	-78.951	-0.029	-0.010
-313.968	-116.362	0.146	-0.027
-312.953	-64.504	0.409	0.164
-311.939	-200.000	0.017	0.168
-310.924	-200.000	0.009	0.054
-309.910	800.000	-0.119	-0.326
-308.895	-110.756	-0.119	-0.024
-307.880	-200.000	-0.041	-0.279
-306.866	17.919	0.274	0.216
-305.851	79.064	-0.244	-0.258
-304.837	-116.009	0.251	-0.046
-303.822	172.884	0.108	0.154
-302.807	90.625	0.228	0.253
-301.793	-70.043	-0.225	0.085
-300.778	485.379	-0.131	-0.296
-299.764	-169.963	0.197	-0.007
-298.749	-77.854	0.128	0.044
-297.735	220.253	0.043	-0.068
-296.720	106.422	-0.197	-0.231
-295.705	-56.973	0.222	0.097
-294.691	205.630	-0.112	0.172
-293.676	140.175	-0.197	-0.257
-292.662	64.609	-0.325	0.324
-291.647	-200.000	-0.002	0.125
-290.632	-134.957	0.185	0.022
-289.618	-71.319	0.232	0.086
-288.603	-103.005	0.093	-0.022
-287.589	703.654	-0.093	0.242
-286.574	296.395	-0.150	0.271
-285.559	238.265	0.065	0.107
-284.545	-112.655	-0.188	0.037
-283.530	15.056	0.083	-0.064
-282.516	-163.194	0.194	-0.009
-281.501	-101.949	0.355	-0.085
-280.486	2.807	-0.199	0.143
-279.472	44.775	0.231	-0.210
-278.457	800.000	0.050	-0.158
-277.443	-111.533	-0.280	0.056
-276.428	268.697	0.107	-0.185
-275.413	-200.000	0.031	-0.216
-274.399	800.000	0.040	0.126
-273.384	-9.496	0.175	0.115
-272.370	31.496	-0.249	0.211
-271.355	-116.293	-0.186	0.034
-270.340	43.845	-0.073	0.066
-269.326	6.186	0.237	0.174
-268.311	59.175	0.136	0.132
-267.297	154.993	0.304	0.412
-266.282	328.312	0.306	0.579
-265.267	-8.616	-0.083	-0.055
-264.253	-84.338	-0.142	-0.044
-263.238	-124.998	-0.243	0.037
-262.224	35.176	-0.244	-0.211
-261.209	-84.810	0.360	-0.112
-260.195	-97.275	-0.095	0.024
-259.180	-200.000	0.044	-0.213
-258.165	179.122	-0.137	-0.198
-257.151	-84.151	0.354	0.111
-256.136	460.388	0.070	-0.154
-255.122	-75.171	-0.283	-0.100
-254.107	-163.666	0.434	-0.020
-253.092	112.717	0.042	-0.050
-252.078	-200.000	0.089	0.425
-251.063	-115.394	-0.244	-0.046
-250.049	-30.556	-0.263	-0.147
-249.034	-200.000	0.049	-0.272
-248.019	-109.267	0.133	-0.028
-247.005	800.000	-0.088	0.241
-245.990	-21.525	-0.143	0.086
-244.976	-126.215	0.028	-0.004
-243.961	0.669	0.365	-0.258
-242.946	-200.000	0.037	-0.181
-241.932	526.566	-0.045	0.105
-240.917	-31.583	-0.230	-0.128
-239.903	-200.000	-0.009	0.094
-238.888	35.930	0.279	0.242
-237.873	-200.000	0.008	0.090
-236.859	-96.920	0.088	-0.023
-235.844	-200.000	0.013	-0.219
-234.830	-57.722	-0.488	0.211
-233.815	74.555	0.205	0.213
-232.800	-100.001	-0.271	-0.067
-231.786	-200.000	0.012	-0.503
-230.771	116.010	0.070	-0.085
-229.757	0.516	-0.101	0.071
-228.742	-107.909	0.280	-0.060
-227.727	-137.678	0.236	0.026
-226.713	-126.302	0.147	-0.022
-225.698	408.164	-0.113	0.236
-224.684	174.115	-0.092	-0.131
-223.669	-200.000	0.001	0.234
-222.655	-34.050	0.100	0.054
-221.640	288.239	-0.017	-0.030
-220.625	800.000	0.080	-0.233
-219.611	-168.716	-0.406	-0.015
-218.596	-109.671	0.197	0.041
-217.582	-50.644	-0.134	-0.062
-216.567	-62.908	0.336	-0.137
-215.552	138.964	0.316	0.410
-214.538	158.360	-0.132	-0.181
-213.523	-38.289	-0.302	-0.158
-212.509	-83.482	0.356	0.112
-211.494	112.513	0.088	-0.105
-210.479	-200.000	-0.008	-0.091
-209.465	800.000	0.093	0.333
-208.450	-88.090	0.167	0.049
-207.436	800.000	0.079	-0.232
-206.421	581.129	-0.041	0.098
-205.406	15.965	-0.100	0.078
-204.392	-200.000	0.018	0.135
-203.377	-200.000	0.090	-0.500
-202.363	-79.858	-0.262	0.087
-201.348	117.761	0.238	-0.288
-200.333	160.428	-0.204	-0.280
-199.319	33.953	-0.138	0.118
-198.304	800.000	-0.054	0.209
-197.290	-39.545	0.151	-0.078
-196.275	-155.612	-0.412	-0.026
-195.260	-16.256	-0.115	0.072
-194.246	-1.997	0.138	0.096
-193.231	-47.413	0.090	-0.043
-192.217	-200.000	-0.009	-0.057
-191.202	-62.510	0.160	0.066
-190.187	-75.812	-0.101	-0.035
-189.173	56.197	-0.081	0.078
-188.158	-63.009	0.079	-0.032
-187.144	-64.424	-0.217	0.087
-186.129	-65.617	-0.052	0.020
-185.114	154.988	0.049	-0.066
-184.100	86.559	0.257	0.279
-183.085	-65.090	-0.478	-0.190
-182.071	41.200	-0.173	-0.154
-181.056	800.000	0.044	0.144
-180.042	-170.142	-0.230	0.008
-179.027	394.019	-0.123	0.252
-178.012	86.602	0.026	-0.029
-176.998	713.503	-0.083	0.216
-175.983	-118.967	-0.204	-0.035
-174.969	264.868	0.055	-0.094
-173.954	89.187	0.156	-0.171
-172.939	-23.363	0.120	0.071
-171.925	287.123	-0.157	-0.279
-170.910	-86.371	0.092	0.028
-169.896	-200.000	0.007	-0.237
-168.881	-159.361	-0.056	0.003
-167.866	-160.613	0.068	0.004
-166.852	10.637	-0.274	-0.206
-165.837	-200.000	0.005	-0.217
-164.823	800.000	-0.074	-0.275
-163.808	316.225	-0.088	-0.163
-162.793	-200.000	-0.176	0.000
-161.779	442.463	-0.039	0.084
-160.764	-42.662	0.190	-0.095
-159.750	-200.000	0.002	-0.078
-158.735	-200.000	-0.005	-0.156
-157.720	-16.631	-0.256	0.160
-156.706	348.089	-0.251	-0.487
-155.691	74.455	0.275	-0.284
-154.677	574.840	0.128	0.308
-153.662	475.534	0.189	-0.419
-152.647	800.000	-0.051	0.193
-151.633	800.000	-0.058	-0.180
-150.618	-150.839	-0.139	0.010
-149.604	-59.109	0.060	0.025
-148.589	154.388	0.427	-0.577
-147.574	-88.890	-0.104	-0.030
-146.560	-171.574	0.065	-0.002
-145.545	-32.935	-0.135	-0.074
-144.531	122.324	0.170	-0.209
-143.516	-200.000	0.005	0.154
-142.502	800.000	0.070	0.258
-141.487	-97.146	-0.311	0.080
-140.472	-101.560	0.393	0.094
-139.458	107.100	-0.173	-0.202
-138.443	15.543	0.040	-0.031
-137.429	365.910	0.024	0.047
-136.414	245.457	-0.158	0.262
-135.399	-120.011	-0.231	0.039
-134.385	800.000	-0.059	-0.208
-133.370	74.590	-0.239	-0.246
-132.356	-110.950	0.172	0.035
-131.341	-61.229	-0.129	0.054
-130.326	86.052	0.109	0.117
-129.312	-200.000	0.010	0.047
-128.297	15.541	0.109	-0.084
-127.283	308.331	-0.266	-0.487
-126.268	28.894	-0.118	0.098
-125.253	160.039	-0.268	0.367
-124.239	-91.576	-0.265	0.074
-123.224	-10.204	0.080	0.052
-122.210	19.616	0.185	0.146
-121.195	-200.000	0.036	0.261
-120.180	-11.208	0.223	0.145
-119.166	-100.301	0.078	-0.019
-118.151	800.000	0.112	-0.398
-117.137	-148.880	0.077	0.006
-116.122	-200.000	-0.024	0.301
-115.107	-93.333	0.212	-0.058
-114.093	-135.039	-0.337	-0.040
-113.078	-200.000	0.006	0.110
-112.064	6.179	-0.150	0.109
-111.049	144.279	0.202	-0.265
-110.034	247.229	0.074	0.122
-109.020	168.761	-0.198	0.276
-108.005	-200.000	-0.014	0.153
-106.991	-173.670	0.181	-0.005
-105.976	800.000	0.032	0.089
-104.962	-115.569	0.426	-0.079
-103.947	-200.000	0.004	0.089
-102.932	54.085	-0.165	-0.156
-101.918	50.589	-0.044	0.040
-100.903	573.607	0.146	0.349
-99.889	800.000	0.028	0.107
-98.874	800.000	-0.074	0.260
-97.859	432.247	-0.016	-0.034
-96.845	-200.000	0.053	0.282
-95.830	-77.896	0.419	0.142
-94.816	800.000	0.084	0.244
-93.801	-64.436	0.505	0.201
-92.786	800.000	0.055	-0.165
-91.772	-124.736	-0.132	0.020
-90.757	-2.698	-0.358	-0.246
-89.743	800.000	-0.032	-0.095
-88.728	112.457	-0.045	0.054
-87.713	56.141	0.394	-0.375
-86.699	800.000	0.088	-0.278
-85.684	-200.000	0.073	-0.383
-84.670	-200.000	-0.040	0.214
-83.655	11.310	-0.133	-0.100
-82.640	-142.555	0.412	-0.040
-81.626	45.313	-0.175	-0.158
-80.611	-200.000	0.036	-0.170
-79.597	361.973	-0.250	-0.491
-78.582	53.091	-0.386	0.363
-77.567	800.000	0.106	-0.293
-76.553	297.285	0.087	0.156
-75.538	621.736	0.095	0.235
-74.524	187.861	0.211	-0.309
-73.509	44.291	0.203	0.183
-72.494	86.886	0.155	-0.168
-71.480	-132.392	0.154	-0.019
-70.465	-44.492	0.129	-0.063
-69.451	184.881	0.083	-0.120
-68.436	649.038	-0.074	-0.185
-67.422	-191.359	-0.071	0.001
-66.407	-162.586	0.212	0.010
-65.392	800.000	-0.032	-0.109
-64.378	423.758	-0.047	0.098
-63.363	-24.462	-0.430	0.251
-62.349	-200.000	0.002	0.067
-61.334	28.367	-1.048	-0.868
-60.319	74.958	0.603	0.622
-59.305	800.000	-0.352	-1.069
-58.290	169.178	0.808	1.129
-57.276	800.000	0.562	1.531
-56.261	-200.000	111.772	633.512
-55.246	470.364	1501.932	3306.867
-54.232	148.195	2666.918	3524.811
-53.217	103.543	2175.390	2500.447
-52.203	37.957	1706.032	1485.402
-51.188	30.693	1523.436	1276.747
-50.173	28.445	1499.650	1241.557
-49.159	51.882	1556.272	1450.666
-48.144	50.779	1571.769	1457.459
-47.130	30.868	1529.466	1282.799
-46.115	27.933	1513.841	1249.599
-45.100	27.650	1510.574	1244.925
-44.086	27.622	1508.954	1243.347
-43.071	27.631	1506.950	1241.710
-42.057	27.546	1505.352	1239.764
-41.042	27.669	1503.786	1239.259
-40.027	27.530	1502.544	1237.243
-39.013	27.604	1500.373	1235.907
-37.998	27.496	1499.362	1234.297
-36.984	27.527	1497.998	1233.336
-35.969	27.663	1496.563	1233.024
-34.954	27.561	1495.182	1231.151
-33.940	27.553	1494.172	1230.214
-32.925	27.588	1492.410	1228.952
-31.911	27.650	1490.792	1227.984
-30.896	27.547	1490.305	1226.844
-29.881	27.549	1488.975	1225.714
-28.867	27.649	1487.289	1224.949
-27.852	27.583	1486.572	1223.867
-26.838	27.593	1484.813	1222.435
-25.823	27.525	1483.387	1220.760
-24.809	27.642	1481.442	1219.889
-23.794	27.605	1480.281	1218.640
-22.779	27.649	1479.337	1218.109
-21.765	27.584	1478.408	1216.863
-20.750	27.624	1476.868	1215.812
-19.736	27.601	1476.327	1215.166
-18.721	27.561	1474.988	1213.750
-17.706	27.691	1473.614	1213.436
-16.692	27.592	1472.748	1212.018
-15.677	27.508	1472.086	1210.863
-14.663	27.604	1470.889	1210.466
-13.648	27.557	1469.776	1209.192
-12.633	27.542	1469.137	1208.523
-11.619	27.495	1468.408	1207.559
-10.604	27.642	1466.767	1207.137
-9.590	27.580	1466.234	1206.239
-8.575	27.594	1465.281	1205.502
-7.560	27.568	1464.594	1204.716
-6.546	27.579	1463.678	1203.987
-5.531	27.575	1462.900	1203.275
-4.517	27.527	1462.008	1202.173
-3.502	27.508	1460.930	1201.114
-2.487	27.591	1459.970	1200.828
-1.473	27.445	1458.969	1198.992
-0.458	27.584	1457.630	1198.758
0.556	25.662	1448.108	1187.805
1.571	22.954	1422.762	1149.321
2.586	19.680	1360.051	1078.176
3.600	17.971	1276.526	1001.857
4.615	16.760	1232.223	960.141
5.629	14.721	1175.699	904.976
6.644	7.276	1091.601	802.587
7.659	1.307	1052.280	744.403
8.673	0.393	1046.366	735.693
9.688	0.145	1043.200	732.198
10.702	-0.022	1042.090	730.543
11.717	-0.006	1040.139	729.187
12.731	2.306	1042.355	741.900
13.746	10.005	1052.672	786.787
14.761	16.029	1059.897	821.570
15.775	17.082	1060.027	826.730
16.790	16.224	1058.769	821.499
17.804	15.320	1056.133	814.991
18.819	14.556	1054.399	809.872
19.834	14.043	1053.043	806.271
20.848	13.913	1051.972	804.751
21.863	13.613	1051.350	802.749
22.877	13.347	1050.938	801.077
23.892	13.061	1049.906	798.835
24.907	12.951	1048.800	797.394
25.921	12.871	1048.674	796.839
26.936	13.057	1047.492	796.770
27.950	13.089	1046.859	796.370
28.965	13.014	1046.241	795.467
29.980	13.094	1045.326	795.087
30.994	13.163	1044.445	794.677
32.009	13.255	1043.786	794.551
33.023	13.430	1042.655	794.458
34.038	13.290	1042.079	793.275
35.053	13.194	1041.273	792.135
36.067	13.225	1039.878	791.151
37.082	13.129	1039.641	790.439
38.096	13.193	1038.510	789.817
39.111	13.246	1037.893	789.532
40.126	13.314	1037.102	789.183
41.140	13.211	1036.185	787.924
42.155	13.101	1035.154	786.546
43.169	13.011	1034.456	785.519
44.184	13.162	1032.874	784.965
45.199	13.021	1032.134	783.664
46.213	12.940	1030.953	782.315
47.228	13.047	1030.532	782.432
48.242	13.105	1029.096	781.548
49.257	13.181	1027.899	780.929
50.271	13.002	1027.705	779.866
51.286	13.092	1026.265	779.130
52.301	13.180	1025.527	778.914
53.315	13.153	1024.596	778.012
54.330	13.181	1023.761	777.439
55.344	13.086	1023.174	776.479
56.359	13.026	1022.006	775.241
57.374	13.126	1021.362	775.155
58.388	13.044	1020.170	773.797
59.403	13.070	1019.420	773.283
60.417	13.020	1018.888	772.575
61.432	12.959	1018.438	771.880
62.447	12.958	1017.824	771.340
63.461	13.009	1016.442	770.463
64.476	12.913	1015.744	769.419
65.490	13.005	1014.616	768.926
66.505	12.949	1014.141	768.236
67.520	13.059	1013.185	767.955
68.534	13.094	1012.523	767.551
69.549	13.144	1011.719	767.107
70.563	13.051	1011.204	766.216
71.578	13.011	1010.554	765.471
72.593	12.880	1009.428	763.939
73.607	12.886	1008.107	762.903
74.622	12.885	1007.396	762.291
75.636	12.914	1006.666	761.806
76.651	12.921	1005.754	761.082
77.666	12.955	1005.079	760.661
78.680	13.045	1003.914	760.125
79.695	12.920	1003.584	759.232
80.709	13.088	1002.907	759.427
81.724	12.974	1002.456	758.493
82.739	13.133	1001.738	758.614
83.753	13.034	1001.275	757.738
84.768	13.085	1000.204	757.096
85.782	13.128	999.517	756.707
86.797	13.160	998.589	756.084
87.812	13.223	997.653	755.598
88.826	13.110	996.952	754.480
89.841	12.945	996.285	753.157
90.855	13.122	995.001	752.927
91.870	13.179	994.330	752.613
92.884	13.203	993.734	752.205
93.899	13.196	993.229	751.725
94.914	13.230	992.256	751.075
95.928	13.317	991.486	750.819
96.943	13.265	990.899	750.074
97.957	13.311	989.611	749.242
98.972	13.210	989.146	748.365
99.987	13.171	988.393	747.554
101.001	13.160	987.640	746.867
102.016	13.273	986.694	746.596
103.030	13.223	985.756	745.593
104.045	13.220	985.065	744.991
105.060	13.244	984.330	744.479
106.074	13.164	983.286	743.264
107.089	13.105	982.451	742.301
108.103	13.006	981.992	741.442
109.118	13.074	980.388	740.471
110.133	13.153	979.648	740.202
111.147	13.161	978.597	739.378
112.162	13.030	978.033	738.302
113.176	13.036	977.502	737.861
114.191	13.111	976.245	737.184
115.206	13.175	975.148	736.573
116.220	13.067	974.635	735.642
117.235	13.142	973.944	735.386
118.249	13.229	972.984	734.985
119.264	13.154	971.869	733.743
120.279	13.107	971.413	733.124
121.293	13.085	970.351	732.160
122.308	13.015	970.055	731.564
123.322	13.077	968.747	730.787
124.337	13.072	967.732	729.934
125.352	13.099	966.596	729.131
126.366	13.079	965.701	728.305
127.381	13.094	964.315	727.259
128.395	13.049	963.388	726.300
129.410	12.954	962.864	725.420
130.424	13.112	961.489	725.016
131.439	13.013	961.007	724.153
132.454	13.119	960.215	723.959
133.468	13.163	959.113	723.258
134.483	13.142	958.941	722.969
135.497	13.158	958.188	722.409
136.512	13.023	957.584	721.299
137.527	13.211	956.631	721.339
138.541	13.299	955.594	720.875
139.556	13.106	954.949	719.483
140.570	13.105	954.260	718.900
141.585	13.199	953.500	718.668
142.600	13.101	953.018	717.817
143.614	13.316	951.797	717.767
144.629	13.308	951.018	717.080
145.643	13.356	950.341	716.715
146.658	13.273	949.588	715.727
147.673	13.275	948.744	715.032
148.687	13.249	947.999	714.298
149.702	13.362	946.632	713.692
150.716	13.224	945.929	712.504
151.731	13.233	945.481	712.141
152.746	13.138	944.905	711.238
153.760	13.158	943.738	710.380
154.775	13.418	942.632	710.603
155.789	13.461	942.158	710.366
156.804	13.410	941.587	709.652
157.819	13.233	941.406	708.696
158.833	13.349	940.575	708.504
159.848	13.345	939.789	707.835
160.862	13.431	938.935	707.494
161.877	13.387	938.115	706.625
162.892	13.342	937.333	705.783
163.906	13.432	936.235	705.277
164.921	13.342	935.701	704.428
165.935	13.369	934.338	703.457
166.950	13.306	933.548	702.530
167.964	13.495	932.749	702.672
168.979	13.376	931.846	701.424
169.994	13.334	931.088	700.613
171.008	13.369	930.059	699.925
172.023	13.416	929.238	699.443
173.037	13.592	927.986	699.182
174.052	13.508	927.751	698.590
175.067	13.461	927.037	697.791
176.081	13.484	926.515	697.431
177.096	13.531	925.292	696.650
178.110	13.458	924.905	695.989
179.125	13.446	924.076	695.251
180.140	13.546	923.407	695.109
181.154	13.557	922.625	694.505
182.169	13.588	921.889	694.019
183.183	13.601	921.235	693.518
184.198	13.587	920.732	693.021
185.213	13.606	919.781	692.323
186.227	13.519	919.368	691.588
187.242	13.658	919.158	691.946
188.256	13.571	918.712	691.187
189.271	13.578	917.291	690.088
190.286	13.762	916.703	690.349
191.300	13.583	916.016	689.028
192.315	13.545	915.112	688.129
193.329	13.503	914.398	687.355
194.344	13.547	913.766	687.002
195.359	13.457	913.135	686.095
196.373	13.631	912.687	686.416
197.388	13.592	912.312	685.912
198.402	13.765	911.849	686.217
199.417	13.712	911.668	685.803
200.432	13.817	911.009	685.681
201.446	13.905	910.366	685.499
202.461	13.979	910.058	685.513
203.475	14.012	909.570	685.221
204.490	13.863	908.729	683.913
205.504	13.939	907.772	683.446
206.519	13.869	906.683	682.277
207.534	13.857	906.452	681.994
208.548	13.905	905.754	681.603
209.563	13.924	905.080	681.114
210.577	13.902	903.726	679.944
211.592	13.800	904.103	679.749
212.607	14.020	902.963	679.736
213.621	13.976	902.755	679.336
214.636	14.024	901.678	678.663
215.650	14.119	900.995	678.477
216.665	14.008	900.570	677.644
217.680	14.035	899.807	677.118
218.694	14.205	899.534	677.548
219.709	14.109	898.753	676.509
220.723	14.069	898.226	675.887
221.738	14.158	897.315	675.504
222.753	14.256	896.579	675.288
223.767	14.050	896.411	674.268
224.782	14.129	895.442	673.796
225.796	14.132	894.862	673.316
226.811	14.239	893.962	673.011
227.826	14.170	893.454	672.288
228.840	14.204	893.041	672.057
229.855	14.210	892.061	671.282
230.869	14.222	891.623	670.943
231.884	14.191	890.652	670.028
232.899	14.168	889.899	669.308
233.913	14.266	889.205	669.122
234.928	14.173	888.593	668.230
235.942	14.292	887.815	668.063
236.957	14.264	887.032	667.303
237.972	14.124	886.890	666.576
238.986	14.231	886.065	666.322
240.001	14.240	885.357	665.770
241.015	14.292	884.712	665.434
242.030	14.249	884.047	664.704
243.045	14.223	883.345	664.010
244.059	14.355	882.702	663.997
245.074	14.415	882.197	663.795
246.088	14.258	881.915	662.900
247.103	14.414	880.890	662.690
248.117	14.501	879.788	662.149
249.132	14.498	879.717	662.025
250.147	14.543	879.068	661.657
251.161	14.557	878.720	661.392
252.176	14.731	877.695	661.251
253.190	14.719	877.001	660.621
254.205	14.702	876.740	660.299
255.220	14.765	875.773	659.761
256.234	14.759	875.199	659.247
257.249	14.692	874.674	658.528
258.263	14.812	874.219	658.602
259.278	14.753	873.671	657.899
260.293	14.769	872.968	657.373
261.307	14.950	872.550	657.714
262.322	14.925	871.720	656.931
263.336	14.902	871.098	656.312
264.351	14.858	871.067	656.060
265.366	14.924	870.211	655.614
266.380	15.086	869.417	655.594
267.395	14.824	868.842	654.078
268.409	14.884	868.150	653.733
269.424	14.985	867.274	653.411
270.439	14.837	866.973	652.547
271.453	14.902	865.961	651.982
272.468	14.794	865.470	651.132
273.482	14.967	864.531	651.043
274.497	15.013	864.142	650.871
275.512	15.033	863.508	650.411
276.526	15.059	862.595	649.768
277.541	14.863	862.218	648.665
278.555	15.027	861.423	648.648
279.570	15.067	860.855	648.315
280.585	15.063	860.631	648.075
281.599	15.156	859.946	647.863
282.614	15.030	859.168	646.730
283.628	15.121	858.506	646.526
284.643	15.136	858.176	646.278
285.657	15.190	857.811	646.155
286.672	15.216	857.112	645.671
287.687	15.180	856.928	645.337
288.701	15.083	856.279	644.419
289.716	15.197	855.790	644.432
290.730	15.115	854.999	643.464
291.745	15.094	854.699	643.102
292.760	15.265	853.326	642.665
293.774	15.163	853.018	641.987
294.789	15.369	852.131	642.051
295.803	15.427	851.625	641.836
296.818	15.214	851.272	640.699
297.833	15.360	850.616	640.704
298.847	15.334	849.485	639.698
299.862	15.377	848.942	639.397
300.876	15.258	848.431	638.501
301.891	15.356	847.697	638.263
302.906	15.379	847.132	637.871
303.920	15.471	846.470	637.665
304.935	15.456	846.023	637.216
305.949	15.684	845.223	637.420
306.964	15.673	844.617	636.864
307.979	15.693	843.838	636.298
308.993	15.597	843.842	635.879
310.008	15.623	842.951	635.249
311.022	15.502	842.743	634.582
312.037	15.618	842.156	634.520
313.052	15.619	841.738	634.155
314.066	15.484	841.229	633.204
315.081	15.736	840.034	633.200
316.095	15.580	839.794	632.373
317.110	15.590	839.146	631.869
318.125	15.626	838.445	631.418
319.139	15.649	838.076	631.173
320.154	15.531	837.771	630.444
321.168	15.527	837.345	630.052
322.183	15.740	836.650	630.271
323.197	15.639	836.074	629.405
324.212	15.600	835.551	628.808
325.227	15.651	835.039	628.557
326.241	15.604	834.595	627.991
327.256	15.634	833.824	627.471
328.270	15.783	833.072	627.404
329.285	15.583	833.071	626.602
330.300	15.736	832.126	626.405
331.314	15.655	831.863	625.849
332.329	15.818	830.605	625.453
333.343	15.773	829.960	624.747
334.358	15.867	829.888	624.986
335.373	15.723	829.440	624.056
336.387	15.808	828.679	623.746
337.402	15.845	828.243	623.499
338.416	15.898	827.802	623.309
339.431	15.929	827.344	623.024
340.446	16.142	826.117	622.830
341.460	16.051	825.912	622.286
342.475	16.149	825.162	622.026
343.489	16.017	824.973	621.340
344.504	16.068	824.544	621.152
345.519	16.194	823.829	621.022
346.533	16.137	823.043	620.164
347.548	16.303	822.334	620.188
348.562	16.299	822.206	620.020
349.577	16.074	821.560	618.650
350.592	16.119	821.050	618.379
351.606	16.018	821.085	617.981
352.621	16.032	820.319	617.399
353.635	16.135	819.873	617.388
354.650	16.025	819.604	616.728
355.665	16.096	819.071	616.530
356.679	16.220	818.655	616.617
357.694	16.230	817.817	615.968
358.708	16.160	817.589	615.486
359.723	16.275	816.895	615.329
360.738	16.362	816.134	615.016
361.752	16.466	816.026	615.261
362.767	16.278	815.449	614.086
363.781	16.391	815.004	614.108
364.796	16.302	814.395	613.272
365.810	16.365	814.201	613.299
366.825	16.495	813.888	613.480
367.840	16.358	813.476	612.619
368.854	16.465	812.660	612.338
369.869	16.537	812.169	612.177
370.883	16.532	811.767	611.800
371.898	16.432	811.641	611.289
372.913	16.454	810.673	610.586
373.927	16.591	809.832	610.392
374.942	16.580	809.389	609.964
375.956	16.423	808.876	608.957
376.971	16.655	808.077	609.139
377.986	16.645	807.597	608.686
379.000	16.596	807.224	608.174
380.015	16.631	806.866	607.975
381.029	16.752	805.901	607.629
382.044	16.679	805.951	607.351
383.059	16.666	805.252	606.724
384.073	16.787	804.619	606.627
385.088	16.827	803.956	606.217
386.102	16.711	803.603	605.484
387.117	16.705	803.349	605.218
388.132	16.569	803.210	604.571
389.146	16.755	802.174	604.402
390.161	16.911	801.673	604.529
391.175	16.833	801.290	603.909
392.190	17.051	800.776	604.243
393.205	16.721	800.828	603.052
394.219	16.804	800.167	602.799
395.234	16.780	799.818	602.397
396.248	16.795	799.268	601.982
397.263	16.777	798.531	601.309
398.278	16.681	798.145	600.626
399.292	16.808	797.828	600.783
400.307	16.661	797.383	599.876
401.321	16.878	796.698	600.074
402.336	16.897	796.586	600.004
403.350	16.915	796.100	599.648
404.365	16.907	795.664	599.238
405.380	17.058	795.081	599.281
406.394	16.917	794.962	598.639
407.409	17.054	794.324	598.591
408.423	17.138	793.923	598.531
409.438	17.090	793.679	598.125
410.453	17.046	793.044	597.438
411.467	17.105	792.709	597.342
412.482	17.077	792.500	597.032
413.496	17.317	791.668	597.194
414.511	17.271	791.071	596.531
415.526	17.187	790.656	595.870
416.540	17.139	790.781	595.745
417.555	17.469	789.686	596.023
418.569	17.283	789.642	595.285
419.584	17.213	789.195	594.648
420.599	17.342	788.415	594.462
421.613	110.736	1292.928	1477.029
422.628	95.030	1366.434	1477.126
