DTS Sentinel unit serial number:	SN413079Multiplexer serial number:	ORYXHardware model number:	OX4-SRSoftware version number:	ORYX F/W v4.00 Oryx Data Collector v3.7.2.0data status	okinstallation	princeton_trtdifferential loss correction	single-endedforward channel	channel 3reverse channel	N/Adate	2019/09/19time	15:44:35forward acquisition time	60.00reverse acquisition time	0.00gamma	496.2192k internal	0.2305k external	0.2305temperature offset calibration	1.0010default loss term (dB/km)	0.3790temperature slope calibration	1.0000multiplexer offset coefficient	1.0000multiplexer slope coefficient	1.0000fibre end	0.00T internal ref (°C)	34.73T ext. ref 1 (°C)	1.15T ext. ref 2 (°C)	33.18length (m)	temperature (°C)	Stokes	anti-Stokes-747.200	127.012	0.039	-0.050
-746.185	29.762	0.135	0.117
-745.171	-81.678	-0.103	-0.034
-744.156	800.000	-0.049	0.152
-743.142	66.496	-0.216	0.223
-742.127	-200.000	-0.056	0.457
-741.112	305.161	0.039	0.073
-740.098	3.720	-0.194	-0.144
-739.083	-70.192	0.187	0.072
-738.069	-200.000	-0.023	0.231
-737.054	-135.924	0.246	-0.029
-736.039	27.585	-0.237	-0.203
-735.025	-111.767	0.400	0.082
-734.010	-104.377	0.199	-0.047
-732.996	236.385	-0.134	0.225
-731.981	220.085	0.114	-0.185
-730.966	-54.989	0.499	0.229
-729.952	58.924	-0.221	-0.221
-728.937	159.355	-0.138	-0.195
-727.923	415.107	-0.100	-0.216
-726.908	251.435	-0.242	-0.419
-725.894	800.000	0.058	0.173
-724.879	14.799	-0.101	0.080
-723.864	-8.708	0.228	-0.156
-722.850	-134.409	-0.151	-0.019
-721.835	128.698	-0.098	-0.127
-720.821	-6.789	-0.392	-0.271
-719.806	-137.950	-0.215	-0.024
-718.791	-64.812	0.134	0.055
-717.777	800.000	0.018	0.076
-716.762	-65.287	0.348	-0.143
-715.748	594.685	-0.042	-0.107
-714.733	44.717	0.236	-0.221
-713.718	332.532	-0.164	0.322
-712.704	-20.316	0.217	0.136
-711.689	-55.019	-0.254	0.116
-710.675	38.417	0.013	0.012
-709.660	-41.071	-0.166	-0.087
-708.645	164.982	-0.047	-0.067
-707.631	-200.000	-0.068	0.357
-706.616	-19.195	-0.377	0.238
-705.602	-200.000	0.069	-0.515
-704.587	-132.522	0.108	-0.014
-703.572	-84.347	-0.056	0.018
-702.558	187.705	0.062	0.093
-701.543	-86.515	0.132	0.041
-700.529	-200.000	-0.037	-0.194
-699.514	-61.284	0.029	0.012
-698.499	-149.155	-0.107	-0.009
-697.485	-23.711	-0.086	-0.053
-696.470	800.000	0.033	0.141
-695.456	166.517	-0.116	0.167
-694.441	170.141	0.134	-0.195
-693.426	-15.335	0.124	0.081
-692.412	279.548	-0.090	-0.164
-691.397	14.028	-0.310	0.245
-690.383	183.977	0.027	0.041
-689.368	-200.000	-0.051	-0.232
-688.354	398.223	-0.074	-0.157
-687.339	-200.000	0.009	-0.097
-686.324	-200.000	0.013	-0.555
-685.310	-200.000	0.001	-0.014
-684.295	68.323	0.145	0.151
-683.281	-45.872	-0.234	0.117
-682.266	-200.000	-0.065	-0.362
-681.251	-145.649	0.525	0.048
-680.237	-94.141	0.337	0.094
-679.222	-125.296	-0.185	-0.029
-678.208	134.092	-0.059	0.078
-677.193	-171.374	-0.172	-0.006
-676.178	200.516	0.075	-0.118
-675.164	-73.223	-0.248	-0.092
-674.149	289.535	0.091	0.168
-673.135	-200.000	-0.008	-0.062
-672.120	1.157	-0.301	-0.219
-671.105	800.000	-0.074	0.218
-670.091	411.610	-0.091	0.195
-669.076	69.644	-0.180	-0.188
-668.062	-200.000	-0.015	-0.252
-667.047	800.000	-0.020	-0.089
-666.032	0.691	-0.095	0.069
-665.018	800.000	0.090	0.268
-664.003	449.552	0.078	-0.176
-662.989	-200.000	-0.001	0.165
-661.974	800.000	-0.026	-0.075
-660.959	205.738	-0.103	0.162
-659.945	104.898	-0.135	0.161
-658.930	-142.296	-0.430	-0.043
-657.916	-200.000	0.005	0.060
-656.901	4.965	-0.072	0.053
-655.886	-200.000	-0.035	-0.272
-654.872	800.000	0.066	-0.225
-653.857	-5.119	0.094	0.066
-652.843	-143.189	0.352	-0.034
-651.828	-73.926	0.300	0.111
-650.814	-200.000	-0.045	-0.259
-649.799	244.363	-0.054	0.092
-648.784	66.081	0.249	0.256
-647.770	-0.035	0.140	0.101
-646.755	800.000	-0.133	-0.407
-645.741	-150.871	0.098	-0.007
-644.726	-200.000	0.060	-0.310
-643.711	800.000	-0.050	0.162
-642.697	797.897	0.069	-0.193
-641.682	-200.000	0.015	-0.133
-640.668	-200.000	-0.000	-0.148
-639.653	800.000	0.038	-0.150
-638.638	-108.174	-0.357	0.078
-637.624	-200.000	0.013	0.063
-636.609	-200.000	-0.008	-0.272
-635.595	442.101	0.118	0.262
-634.580	42.249	0.100	0.092
-633.565	65.377	-0.185	0.189
-632.551	788.756	0.043	0.120
-631.536	-158.273	-0.059	-0.003
-630.522	-37.680	0.039	-0.021
-629.507	24.519	0.031	0.026
-628.492	-79.969	-0.190	0.065
-627.478	72.879	0.111	0.118
-626.463	800.000	0.055	0.191
-625.449	-2.046	0.358	0.254
-624.434	685.109	0.110	0.291
-623.419	-200.000	-0.032	-0.224
-622.405	-200.000	0.027	-0.174
-621.390	34.092	0.179	0.158
-620.376	422.250	0.112	0.244
-619.361	4.409	-0.352	-0.261
-618.346	-48.712	0.273	-0.133
-617.332	753.533	-0.069	-0.189
-616.317	-137.612	-0.111	-0.013
-615.303	223.660	-0.131	0.215
-614.288	261.788	-0.138	-0.243
-613.273	-46.538	0.090	0.045
-612.259	-171.876	0.357	-0.012
-611.244	-2.657	-0.164	-0.116
-610.230	278.429	-0.104	-0.188
-609.215	275.370	0.158	-0.283
-608.201	-77.045	0.171	0.060
-607.186	-61.743	0.119	0.051
-606.171	240.260	0.079	0.133
-605.157	-98.690	0.111	0.029
-604.142	-200.000	-0.004	0.217
-603.128	-109.259	-0.196	-0.042
-602.113	800.000	-0.034	0.102
-601.098	-115.802	-0.453	0.086
-600.084	-131.709	0.192	-0.025
-599.069	800.000	-0.092	0.272
-598.055	-166.892	0.152	0.006
-597.040	-187.551	-0.259	0.003
-596.025	-38.818	-0.057	-0.030
-595.011	201.074	-0.080	-0.125
-593.996	463.293	0.126	-0.286
-592.982	539.860	-0.142	0.343
-591.967	-17.640	-0.302	0.192
-590.952	339.908	-0.214	-0.422
-589.938	21.737	-0.141	-0.116
-588.923	55.823	-0.035	0.035
-587.909	-93.662	-0.099	-0.028
-586.894	-10.047	0.190	0.128
-585.879	369.062	0.053	0.109
-584.865	-113.853	-0.282	0.056
-583.850	104.370	0.184	0.219
-582.836	169.259	-0.127	0.183
-581.821	47.871	0.419	-0.396
-580.806	36.827	0.278	-0.248
-579.792	-165.891	-0.265	-0.011
-578.777	10.217	0.354	-0.272
-577.763	-94.285	0.254	0.070
-576.748	-83.573	-0.221	0.072
-575.733	-71.218	0.311	-0.118
-574.719	-11.019	-0.271	0.181
-573.704	-43.718	0.370	0.188
-572.690	-200.000	0.037	-0.196
-571.675	-92.639	-0.190	-0.054
-570.661	-171.328	-0.059	0.002
-569.646	21.142	-0.173	0.142
-568.631	190.896	-0.022	-0.033
-567.617	656.324	-0.079	0.206
-566.602	-41.952	-0.146	-0.075
-565.588	-200.000	0.017	-0.227
-564.573	-119.242	0.104	-0.018
-563.558	800.000	0.119	0.348
-562.544	19.683	-0.242	0.197
-561.529	200.390	0.113	0.175
-560.515	800.000	0.057	0.220
-559.500	-200.000	-0.033	0.294
-558.485	-200.000	-0.068	0.485
-557.471	680.386	-0.137	-0.360
-556.456	-140.592	0.182	0.019
-555.442	54.423	0.052	0.051
-554.427	112.270	-0.492	0.601
-553.412	-157.443	0.324	0.020
-552.398	74.925	0.154	-0.164
-551.383	43.812	0.035	-0.032
-550.369	-43.875	-0.233	0.118
-549.354	-200.000	0.068	-0.362
-548.339	39.982	-0.273	-0.248
-547.325	-200.000	-0.100	0.000
-546.310	-26.441	0.103	-0.061
-545.296	-200.000	0.025	0.204
-544.281	-171.952	-0.115	0.004
-543.266	-47.204	0.112	0.055
-542.252	107.273	0.086	0.103
-541.237	54.243	0.229	0.222
-540.223	-107.469	-0.073	0.016
-539.208	-200.000	0.004	-0.246
-538.193	108.123	-0.155	-0.186
-537.179	-83.572	-0.073	0.024
-536.164	194.157	0.095	0.145
-535.150	-19.937	0.248	-0.154
-534.135	-200.000	-0.010	-0.225
-533.121	-121.602	0.154	0.026
-532.106	261.838	-0.209	0.365
-531.091	260.785	0.222	0.388
-530.077	20.799	0.281	0.230
-529.062	-82.168	-0.216	-0.071
-528.048	-118.755	0.081	-0.014
-527.033	-69.646	-0.505	0.195
-526.018	71.532	-0.119	0.124
-525.004	98.608	0.182	-0.212
-523.989	-69.017	-0.250	-0.097
-522.975	-54.684	-0.216	0.099
-521.960	800.000	0.039	0.141
-520.945	96.929	0.247	0.286
-519.931	533.475	0.037	-0.088
-518.916	447.779	-0.079	-0.176
-517.902	195.438	-0.249	-0.381
-516.887	15.965	0.215	-0.171
-515.872	192.139	0.083	0.127
-514.858	63.434	-0.278	-0.282
-513.843	-30.601	0.049	-0.028
-512.829	-139.220	-0.193	0.021
-511.814	43.428	0.113	-0.104
-510.799	-179.931	-0.134	-0.003
-509.785	-64.939	-0.253	0.103
-508.770	800.000	-0.030	-0.117
-507.756	11.196	0.263	0.203
-506.741	133.473	0.057	0.075
-505.726	-200.000	-0.009	0.130
-504.712	-110.522	-0.357	-0.075
-503.697	-56.851	0.232	0.103
-502.683	-200.000	0.051	0.237
-501.668	-155.667	-0.107	-0.007
-500.653	121.022	-0.208	0.261
-499.639	-40.318	-0.271	0.142
-498.624	43.026	-0.055	-0.050
-497.610	66.432	-0.124	-0.127
-496.595	-200.000	-0.053	-0.336
-495.581	-24.987	0.065	0.039
-494.566	-200.000	-0.033	-0.242
-493.551	122.761	0.088	-0.111
-492.537	-105.947	0.109	0.025
-491.522	800.000	-0.054	0.181
-490.508	-169.487	-0.103	0.004
-489.493	800.000	0.064	-0.271
-488.478	-130.245	-0.139	-0.019
-487.464	800.000	0.120	-0.348
-486.449	486.794	0.064	0.147
-485.435	800.000	-0.072	0.241
-484.420	-200.000	-0.062	0.338
-483.405	169.138	-0.139	-0.200
-482.391	-200.000	-0.001	-0.243
-481.376	-200.000	-0.008	-0.114
-480.362	-200.000	-0.103	-0.566
-479.347	684.649	-0.095	-0.249
-478.332	-200.000	-0.001	0.099
-477.318	-200.000	-0.035	-0.330
-476.303	36.277	-0.170	0.151
-475.289	-200.000	-0.068	0.586
-474.274	80.499	-0.212	-0.230
-473.259	193.997	0.033	-0.050
-472.245	292.309	-0.048	-0.088
-471.230	-150.511	-0.197	0.015
-470.216	-20.523	0.185	-0.114
-469.201	-200.000	0.044	-0.197
-468.186	-140.579	0.114	-0.012
-467.172	-136.873	-0.205	-0.024
-466.157	434.345	0.184	0.402
-465.143	122.929	-0.265	0.334
-464.128	140.774	-0.152	0.202
-463.113	-37.579	0.198	-0.106
-462.099	708.865	0.033	0.088
-461.084	800.000	0.026	-0.087
-460.070	800.000	0.049	-0.154
-459.055	800.000	-0.050	0.193
-458.040	129.422	0.188	0.241
-457.026	-200.000	0.032	0.355
-456.011	-107.447	-0.444	-0.098
-454.997	-53.545	-0.297	-0.137
-453.982	-58.070	-0.055	-0.024
-452.968	143.487	-0.179	0.240
-451.953	388.640	-0.036	-0.075
-450.938	800.000	0.089	0.318
-449.924	51.403	-0.136	0.130
-448.909	89.398	0.071	0.080
-447.895	800.000	0.129	-0.413
-446.880	800.000	-0.048	0.151
-445.865	-7.375	-0.300	-0.204
-444.851	-151.963	0.294	0.022
-443.836	-200.000	0.023	0.162
-442.822	177.824	-0.185	-0.271
-441.807	27.115	0.150	-0.127
-440.792	-67.501	0.202	-0.080
-439.778	-48.479	0.247	-0.120
-438.763	280.853	0.097	-0.175
-437.749	-22.946	-0.166	-0.100
-436.734	214.310	-0.121	-0.192
-435.719	-9.288	-0.179	-0.121
-434.705	11.294	0.271	-0.209
-433.690	170.414	-0.122	-0.175
-432.676	205.995	0.129	-0.201
-431.661	21.552	-0.247	-0.202
-430.646	124.226	0.233	-0.294
-429.632	-200.000	-0.027	0.380
-428.617	-200.000	0.012	-0.257
-427.603	-142.527	0.171	-0.017
-426.588	-200.000	0.028	-0.281
-425.573	-32.624	-0.123	-0.069
-424.559	393.448	-0.028	-0.059
-423.544	800.000	-0.062	-0.173
-422.530	-200.000	-0.043	-0.283
-421.515	-53.826	0.422	0.194
-420.500	91.130	0.111	-0.125
-419.486	154.317	-0.163	0.225
-418.471	-200.000	0.017	0.075
-417.457	396.980	0.049	0.102
-416.442	800.000	-0.074	-0.208
-415.428	-64.554	-0.082	-0.034
-414.413	-48.166	-0.194	-0.094
-413.398	48.775	-0.056	-0.053
-412.384	-200.000	-0.013	0.138
-411.369	42.746	-0.059	-0.054
-410.355	-92.590	0.275	0.078
-409.340	307.079	0.050	-0.094
-408.325	-22.831	0.173	-0.105
-407.311	6.698	-0.485	0.363
-406.296	-151.573	0.077	0.006
-405.282	-3.184	-0.285	-0.200
-404.267	800.000	-0.145	-0.438
-403.252	91.822	-0.104	0.118
-402.238	-67.302	0.275	0.109
-401.223	31.860	-0.299	-0.259
-400.209	800.000	-0.088	0.281
-399.194	-200.000	0.031	0.139
-398.179	-200.000	-0.004	-0.089
-397.165	208.775	-0.107	0.168
-396.150	125.736	0.215	-0.272
-395.136	-78.192	0.133	0.046
-394.121	-136.845	-0.184	0.021
-393.106	-27.868	0.226	0.132
-392.092	486.386	0.108	-0.246
-391.077	350.301	-0.092	0.182
-390.063	-109.945	0.192	0.040
-389.048	-20.557	0.205	-0.126
-388.033	236.813	0.047	0.078
-387.019	460.629	-0.097	0.217
-386.004	293.253	0.208	0.381
-384.990	-200.000	-0.098	-0.481
-383.975	-183.242	0.349	-0.006
-382.960	142.103	-0.153	-0.204
-381.946	-118.328	-0.142	0.025
-380.931	-200.000	-0.005	-0.198
-379.917	40.370	0.226	-0.204
-378.902	-0.362	0.012	0.008
-377.888	-200.000	-0.021	-0.143
-376.873	251.859	-0.025	-0.042
-375.858	495.405	0.221	0.510
-374.844	-178.155	0.323	0.008
-373.829	-142.211	-0.416	0.041
-372.815	18.551	-0.356	-0.286
-371.800	-9.143	-0.039	0.026
-370.785	-67.881	0.133	-0.052
-369.771	235.309	0.072	0.120
-368.756	-72.664	0.242	0.090
-367.742	800.000	-0.110	0.471
-366.727	-58.815	0.135	0.058
-365.712	-82.622	-0.050	-0.016
-364.698	-133.511	0.258	-0.032
-363.683	415.431	0.115	0.246
-362.669	-148.980	-0.306	0.025
-361.654	800.000	0.080	-0.222
-360.639	800.000	0.020	-0.088
-359.625	-48.038	0.431	0.209
-358.610	572.455	0.077	0.189
-357.596	-91.571	0.293	-0.084
-356.581	-200.000	-0.009	0.152
-355.566	42.890	0.018	-0.016
-354.552	-200.000	-0.007	-0.203
-353.537	-14.872	-0.142	0.091
-352.523	-40.461	-0.097	0.051
-351.508	368.680	-0.090	-0.182
-350.493	800.000	-0.047	0.149
-349.479	-149.962	-0.149	-0.012
-348.464	372.407	-0.125	-0.255
-347.450	72.106	-0.132	0.138
-346.435	-137.068	-0.265	-0.030
-345.420	339.315	0.017	0.033
-344.406	-96.871	0.242	-0.064
-343.391	-106.244	-0.442	-0.099
-342.377	-55.296	-0.146	-0.066
-341.362	178.031	-0.116	0.170
-340.348	-200.000	-0.039	0.282
-339.333	-16.351	-0.098	0.063
-338.318	-75.281	0.327	0.117
-337.304	-200.000	0.043	-0.198
-336.289	-94.897	-0.176	0.048
-335.275	-200.000	0.026	-0.235
-334.260	-200.000	0.003	-0.125
-333.245	800.000	-0.032	0.130
-332.231	-111.727	0.433	-0.088
-331.216	172.819	0.162	-0.233
-330.202	-108.142	-0.254	0.055
-329.187	-27.575	0.255	-0.148
-328.172	396.961	-0.137	0.287
-327.158	474.680	0.097	-0.220
-326.143	-105.241	-0.209	0.048
-325.129	19.081	-0.041	0.033
-324.114	-200.000	0.053	-0.250
-323.099	63.498	0.146	-0.147
-322.085	58.455	-0.231	0.227
-321.070	89.712	-0.084	-0.094
-320.056	732.877	0.093	0.250
-319.041	533.699	-0.096	0.229
-318.026	-200.000	0.091	0.403
-317.012	41.598	-0.198	0.179
-315.997	-200.000	-0.077	-0.383
-314.983	-144.319	0.381	-0.036
-313.968	121.423	0.052	0.065
-312.953	108.654	0.160	0.191
-311.939	-200.000	0.008	-0.281
-310.924	-200.000	0.094	-0.597
-309.910	-200.000	-0.006	0.125
-308.895	-200.000	-0.073	-0.335
-307.880	44.480	-0.273	-0.251
-306.866	-29.987	-0.260	-0.148
-305.851	80.256	0.044	-0.047
-304.837	255.969	0.159	0.272
-303.822	-104.387	0.198	0.046
-302.807	-48.380	-0.235	0.113
-301.793	-65.800	0.155	0.062
-300.778	-13.982	0.149	-0.097
-299.764	577.033	0.112	-0.273
-298.749	-29.380	-0.208	-0.119
-297.735	27.813	-0.280	0.236
-296.720	-23.782	0.081	0.048
-295.705	800.000	-0.063	0.261
-294.691	-127.831	-0.158	0.023
-293.676	-43.507	0.410	0.207
-292.662	-153.064	-0.246	-0.017
-291.647	-87.524	0.300	-0.091
-290.632	177.864	0.115	0.167
-289.618	268.754	-0.166	0.291
-288.603	45.058	0.157	-0.145
-287.589	55.789	0.195	-0.189
-286.574	232.392	0.061	-0.101
-285.559	-200.000	0.039	-0.265
-284.545	190.795	0.123	-0.185
-283.530	-200.000	-0.095	0.450
-282.516	39.366	0.060	0.054
-281.501	730.776	0.206	-0.551
-280.486	31.517	0.101	0.086
-279.472	53.761	-0.294	-0.282
-278.457	196.736	0.125	0.190
-277.443	-200.000	0.044	0.252
-276.428	27.808	0.327	-0.275
-275.413	49.973	0.164	0.155
-274.399	800.000	-0.021	-0.065
-273.384	800.000	-0.024	0.100
-272.370	-102.378	-0.092	-0.022
-271.355	-78.193	0.192	-0.066
-270.340	-99.286	0.321	-0.081
-269.326	38.114	-0.069	-0.061
-268.311	218.079	0.152	0.243
-267.297	-128.657	-0.189	-0.027
-266.282	-41.546	0.249	0.128
-265.267	-200.000	-0.047	-0.264
-264.253	96.266	0.049	0.055
-263.238	-37.750	0.258	0.137
-262.224	800.000	-0.044	-0.126
-261.209	367.648	0.073	-0.148
-260.195	124.144	-0.101	0.127
-259.180	141.657	0.128	0.170
-258.165	222.497	0.075	-0.121
-257.151	-129.527	0.131	-0.018
-256.136	91.493	-0.065	-0.073
-255.122	-18.634	0.371	-0.231
-254.107	296.030	0.057	0.104
-253.092	-85.783	0.289	-0.089
-252.078	371.011	-0.163	0.331
-251.063	-200.000	-0.014	-0.111
-250.049	228.501	0.026	0.043
-249.034	407.962	-0.117	0.246
-248.019	64.470	-0.086	0.086
-247.005	247.399	0.056	0.095
-245.990	433.975	0.026	0.057
-244.976	72.253	0.115	0.119
-243.961	-200.000	0.018	-0.220
-242.946	182.159	-0.111	0.163
-241.932	800.000	0.063	0.202
-240.917	332.150	-0.038	-0.073
-239.903	-176.117	-0.251	0.007
-238.888	-200.000	-0.023	-0.163
-237.873	-3.889	0.105	0.073
-236.859	-90.618	-0.325	0.094
-235.844	129.085	0.092	-0.117
-234.830	800.000	0.116	0.484
-233.815	-78.388	0.353	0.121
-232.800	256.540	0.157	0.269
-231.786	6.850	0.413	-0.307
-230.771	11.684	-0.297	-0.227
-229.757	68.934	-0.171	-0.175
-228.742	-32.453	-0.174	-0.097
-227.727	800.000	-0.068	-0.190
-226.713	106.476	-0.134	-0.158
-225.698	-61.914	0.192	-0.080
-224.684	74.135	0.384	0.402
-223.669	-53.403	0.216	-0.099
-222.655	-83.583	-0.283	-0.090
-221.640	181.924	-0.085	-0.125
-220.625	8.219	0.228	-0.171
-219.611	11.064	0.259	0.197
-218.596	427.568	0.150	-0.323
-217.582	-60.706	-0.052	-0.022
-216.567	286.093	-0.101	0.183
-215.552	475.636	-0.116	0.261
-214.538	-166.243	0.565	0.024
-213.523	-200.000	0.005	-0.067
-212.509	-200.000	0.071	0.509
-211.494	-200.000	0.006	0.045
-210.479	162.812	-0.124	0.173
-209.465	310.996	-0.126	0.236
-208.450	-64.403	0.171	0.070
-207.436	38.301	-0.064	-0.057
-206.421	-86.881	-0.260	-0.079
-205.406	-103.899	-0.140	0.033
-204.392	-92.043	-0.437	0.123
-203.377	800.000	0.026	-0.071
-202.363	-200.000	0.023	-0.349
-201.348	-87.869	-0.268	-0.080
-200.333	800.000	0.062	0.226
-199.319	-60.482	0.022	0.009
-198.304	-68.789	0.112	-0.043
-197.290	34.765	-0.288	0.250
-196.275	277.528	0.111	-0.197
-195.260	-97.525	0.220	-0.057
-194.246	-4.583	0.083	0.057
-193.231	-200.000	0.042	-0.264
-192.217	136.965	-0.177	-0.231
-191.202	800.000	-0.093	0.358
-190.187	1.923	-0.311	0.224
-189.173	-97.346	-0.247	-0.064
-188.158	-95.830	-0.274	-0.073
-187.144	62.607	0.046	-0.046
-186.129	19.108	0.173	0.138
-185.114	86.266	-0.007	-0.007
-184.100	800.000	-0.055	0.152
-183.085	-200.000	0.035	-0.204
-182.071	558.042	0.034	0.082
-181.056	-85.594	0.209	-0.065
-180.042	800.000	-0.065	-0.207
-179.027	-77.745	0.030	0.010
-178.012	800.000	0.069	0.298
-176.998	800.000	-0.083	-0.323
-175.983	-67.991	-0.314	0.122
-174.969	392.192	-0.061	0.126
-173.954	-29.667	0.098	0.056
-172.939	34.387	0.125	-0.108
-171.925	61.236	0.256	0.253
-170.910	-27.041	-0.053	0.031
-169.896	5.069	-0.126	-0.092
-168.881	168.481	-0.078	0.110
-167.866	71.672	-0.063	0.065
-166.852	55.427	-0.094	-0.091
-165.837	-200.000	0.035	0.220
-164.823	103.074	-0.109	0.127
-163.808	-70.564	0.219	-0.082
-162.793	-200.000	-0.022	0.117
-161.779	-1.433	-0.385	-0.270
-160.764	54.130	0.247	0.236
-159.750	731.474	0.132	-0.351
-158.735	490.729	-0.028	-0.063
-157.720	-200.000	0.035	0.178
-156.706	561.058	-0.034	-0.082
-155.691	-185.033	-0.261	-0.004
-154.677	-200.000	0.008	0.257
-153.662	-200.000	0.012	-0.151
-152.647	35.308	-0.093	-0.082
-151.633	106.106	0.226	-0.266
-150.618	800.000	0.016	0.050
-149.604	-42.718	0.373	0.189
-148.589	316.274	0.155	0.292
-147.574	118.304	0.160	0.196
-146.560	283.433	0.102	0.183
-145.545	573.623	-0.055	-0.132
-144.531	-117.795	-0.323	-0.058
-143.516	800.000	-0.044	0.169
-142.502	800.000	-0.061	-0.169
-141.487	-200.000	0.039	0.257
-140.472	-69.546	-0.333	0.127
-139.458	427.810	0.060	-0.128
-138.443	-200.000	0.010	0.080
-137.429	66.002	0.227	0.229
-136.414	-127.002	0.118	-0.017
-135.399	-163.392	0.205	0.010
-134.385	352.554	-0.083	0.163
-133.370	800.000	0.103	0.310
-132.356	288.584	-0.193	0.347
-131.341	793.230	-0.083	0.227
-130.326	-25.970	-0.236	0.138
-129.312	73.665	-0.182	0.190
-128.297	284.082	0.172	-0.308
-127.283	652.802	0.022	-0.057
-126.268	164.713	-0.183	0.256
-125.253	228.787	0.157	0.254
-124.239	94.600	0.174	0.196
-123.224	250.584	0.071	0.120
-122.210	681.510	0.052	-0.136
-121.195	470.350	-0.127	0.284
-120.180	26.083	0.222	-0.184
-119.166	-131.881	0.445	-0.058
-118.151	114.663	0.202	0.244
-117.137	769.518	-0.096	0.260
-116.122	-69.564	-0.450	-0.171
-115.107	330.106	0.115	0.219
-114.093	89.744	0.224	-0.248
-113.078	65.687	0.113	-0.114
-112.064	-200.000	-0.053	0.246
-111.049	-87.291	0.097	-0.029
-110.034	-91.307	0.209	-0.059
-109.020	45.107	0.090	-0.082
-108.005	-200.000	-0.003	-0.044
-106.991	-95.091	-0.218	0.059
-105.976	-37.426	0.245	-0.130
-104.962	-20.410	0.321	0.196
-103.947	37.019	0.172	-0.151
-102.932	11.069	0.115	0.087
-101.918	-200.000	-0.006	0.130
-100.903	-105.858	0.380	0.085
-99.889	245.072	-0.221	-0.369
-98.874	-78.446	0.195	-0.066
-97.859	4.148	0.294	0.213
-96.845	-61.186	0.062	-0.026
-95.830	-38.560	0.116	-0.061
-94.816	-112.960	-0.357	0.070
-93.801	-112.077	-0.058	0.011
-92.786	-98.807	-0.185	0.047
-91.772	-200.000	0.017	0.093
-90.757	-200.000	0.012	0.103
-89.743	145.302	-0.071	0.095
-88.728	43.736	0.217	0.197
-87.713	-136.826	0.508	0.058
-86.699	29.893	0.162	-0.137
-85.684	-38.707	-0.142	-0.074
-84.670	800.000	-0.030	-0.087
-83.655	800.000	-0.074	-0.261
-82.640	99.777	-0.100	-0.115
-81.626	158.230	0.079	0.109
-80.611	196.281	0.203	-0.306
-79.597	-21.602	-0.146	-0.088
-78.582	-200.000	0.040	-0.278
-77.567	249.394	-0.190	0.320
-76.553	4.888	0.332	-0.242
-75.538	800.000	-0.009	-0.025
-74.524	39.737	0.143	0.127
-73.509	117.533	0.070	0.085
-72.494	-60.649	-0.182	0.076
-71.480	-122.741	0.387	-0.062
-70.465	344.405	0.251	0.488
-69.451	-35.102	0.024	0.013
-68.436	67.865	0.017	-0.017
-67.422	-69.337	-0.192	0.073
-66.407	-61.484	-0.069	0.029
-65.392	637.860	-0.046	-0.116
-64.378	146.128	-0.055	-0.073
-63.363	81.453	0.260	0.279
-62.349	-200.000	-0.002	0.033
-61.334	1.438	-0.837	-0.597
-60.319	656.494	0.155	0.395
-59.305	-200.000	-0.104	-0.918
-58.290	104.442	0.717	0.837
-57.276	550.077	0.558	1.325
-56.261	-200.000	93.293	549.212
-55.246	510.852	1405.681	3240.499
-54.232	142.818	2649.772	3489.102
-53.217	110.456	2257.516	2687.892
-52.203	45.068	1779.327	1623.988
-51.188	37.836	1585.303	1395.316
-50.173	35.444	1556.848	1353.377
-49.159	53.241	1606.482	1524.436
-48.144	56.245	1626.303	1564.729
-47.130	38.207	1581.458	1394.359
-46.115	35.022	1565.649	1357.818
-45.100	34.843	1562.302	1353.593
-44.086	34.777	1561.162	1352.086
-43.071	34.671	1559.220	1349.596
-42.057	34.788	1557.252	1348.668
-41.042	34.742	1556.037	1347.235
-40.027	34.720	1554.418	1345.630
-39.013	34.634	1552.926	1343.679
-37.998	34.678	1551.708	1342.878
-36.984	34.730	1550.546	1342.190
-35.969	34.792	1548.823	1341.075
-34.954	34.755	1547.357	1339.496
-33.940	34.663	1546.241	1337.827
-32.925	34.703	1544.448	1336.508
-31.911	34.652	1543.219	1335.033
-30.896	34.815	1541.466	1334.604
-29.881	34.840	1540.193	1333.618
-28.867	34.820	1538.434	1331.904
-27.852	34.865	1537.137	1331.045
-26.838	34.847	1535.457	1329.408
-25.823	34.726	1534.311	1327.527
-24.809	34.935	1532.059	1326.974
-23.794	34.847	1531.123	1325.502
-22.779	34.854	1529.792	1324.347
-21.765	34.774	1529.353	1323.354
-20.750	34.909	1527.201	1322.379
-19.736	34.755	1526.836	1320.945
-18.721	34.658	1525.941	1319.449
-17.706	34.737	1524.459	1318.656
-16.692	34.775	1523.278	1317.843
-15.677	34.785	1522.322	1317.032
-14.663	34.771	1521.198	1315.914
-13.648	34.615	1520.458	1314.148
-12.633	34.642	1519.512	1313.461
-11.619	34.722	1518.087	1312.732
-10.604	34.656	1517.773	1311.951
-9.590	34.694	1516.665	1311.205
-8.575	34.683	1515.829	1310.356
-7.560	34.641	1514.929	1309.235
-6.546	34.592	1514.754	1308.693
-5.531	34.646	1513.409	1307.850
-4.517	34.723	1512.229	1307.307
-3.502	34.676	1511.104	1305.963
-2.487	34.674	1510.264	1305.168
-1.473	34.662	1508.898	1303.853
-0.458	34.700	1507.825	1303.133
0.556	34.688	1499.557	1296.588
1.571	32.742	1474.071	1261.437
2.586	29.341	1408.296	1183.262
3.600	26.563	1319.989	1092.233
4.615	24.134	1270.951	1037.435
5.629	19.600	1210.248	962.589
6.644	9.858	1119.412	839.800
7.659	2.439	1075.743	769.763
8.673	1.371	1070.069	760.291
9.688	1.083	1066.870	756.515
10.702	1.055	1065.716	755.489
11.717	1.092	1063.726	754.193
12.731	3.364	1066.270	767.258
13.746	10.689	1076.728	811.433
14.761	16.423	1082.979	844.817
15.775	17.648	1083.731	851.455
16.790	17.390	1082.074	848.789
17.804	16.288	1080.295	841.828
18.819	15.410	1078.624	836.080
19.834	14.965	1077.253	832.729
20.848	14.576	1076.001	829.750
21.863	14.408	1075.091	828.141
22.877	14.113	1074.563	826.196
23.892	13.940	1073.227	824.235
24.907	13.899	1072.518	823.419
25.921	13.857	1071.623	822.448
26.936	13.876	1071.445	822.332
27.950	13.919	1070.382	821.658
28.965	13.902	1069.981	821.193
29.980	13.975	1068.699	820.496
30.994	14.049	1067.597	819.945
32.009	14.004	1066.629	818.905
33.023	14.203	1065.974	819.309
34.038	14.029	1065.775	818.230
35.053	14.107	1064.347	817.442
36.067	14.148	1063.267	816.744
37.082	14.038	1062.500	815.542
38.096	14.007	1061.961	814.903
39.111	14.028	1061.249	814.388
40.126	14.133	1060.099	813.946
41.140	13.989	1059.164	812.452
42.155	13.911	1058.051	811.149
43.169	13.839	1056.904	809.842
44.184	13.932	1056.010	809.540
45.199	13.882	1054.613	808.154
46.213	13.814	1053.644	807.011
47.228	13.853	1052.723	806.423
48.242	13.962	1051.645	806.053
49.257	13.835	1051.122	804.968
50.271	13.856	1050.182	804.278
51.286	14.026	1049.027	804.142
52.301	13.898	1048.529	803.071
53.315	13.996	1047.591	802.756
54.330	13.993	1046.590	801.902
55.344	13.994	1045.671	801.132
56.359	13.926	1044.676	799.973
57.374	14.018	1043.678	799.580
58.388	13.831	1043.417	798.409
59.403	13.859	1042.266	797.595
60.417	13.930	1041.377	797.184
61.432	13.943	1040.720	796.674
62.447	13.795	1040.542	795.756
63.461	13.777	1039.539	794.831
64.476	13.855	1038.166	794.086
65.490	13.832	1037.512	793.404
66.505	13.773	1036.442	792.235
67.520	13.738	1036.075	791.715
68.534	13.769	1035.339	791.232
69.549	13.810	1034.458	790.684
70.563	13.844	1033.276	789.870
71.578	13.892	1032.622	789.532
72.593	13.924	1031.711	788.917
73.607	13.889	1030.662	787.878
74.622	13.838	1029.900	786.986
75.636	13.610	1029.078	785.204
76.651	13.813	1027.948	785.234
77.666	13.748	1027.775	784.726
78.680	13.757	1027.171	784.236
79.695	13.820	1026.477	783.938
80.709	13.683	1025.855	782.747
81.724	13.829	1024.807	782.563
82.739	13.850	1024.240	782.163
83.753	13.917	1022.957	781.426
84.768	13.821	1022.769	780.765
85.782	13.980	1021.290	780.314
86.797	14.026	1020.746	780.043
87.812	13.990	1020.105	779.315
88.826	13.932	1019.333	778.383
89.841	13.860	1018.410	777.273
90.855	13.939	1017.169	776.627
91.870	14.001	1016.587	776.406
92.884	14.096	1016.002	776.331
93.899	13.931	1015.326	774.975
94.914	14.121	1014.013	774.794
95.928	13.876	1014.025	773.593
96.943	14.015	1012.923	773.330
97.957	14.022	1011.987	772.577
98.972	13.936	1011.188	771.501
99.987	14.002	1010.602	771.293
101.001	14.029	1009.459	770.477
102.016	14.003	1009.161	770.061
103.030	13.991	1007.830	768.922
104.045	14.035	1007.058	768.467
105.060	14.060	1005.826	767.573
106.074	13.948	1004.728	766.153
107.089	14.006	1003.884	765.709
108.103	14.005	1002.997	764.961
109.118	13.924	1002.256	763.955
110.133	13.930	1001.711	763.498
111.147	13.917	1000.848	762.712
112.162	13.908	999.784	761.793
113.176	13.931	998.584	760.919
114.191	13.948	998.070	760.537
115.206	13.951	997.206	759.824
116.220	13.923	996.729	759.265
117.235	13.944	995.889	758.653
118.249	13.977	994.349	757.566
119.264	13.955	993.599	756.827
120.279	13.868	992.867	755.806
121.293	13.879	992.196	755.277
122.308	13.981	991.494	755.142
123.322	13.941	990.685	754.277
124.337	14.011	989.486	753.615
125.352	13.899	987.970	751.886
126.366	14.028	986.742	751.468
127.381	13.977	986.041	750.638
128.395	13.919	985.434	749.847
129.410	13.865	984.459	748.795
130.424	13.918	983.442	748.195
131.439	13.981	982.280	747.528
132.454	13.986	981.295	746.733
133.468	14.046	980.947	746.672
134.483	13.986	980.406	745.925
135.497	14.029	979.448	745.325
136.512	13.916	979.255	744.602
137.527	14.018	977.923	743.981
138.541	13.937	977.136	742.955
139.556	14.051	976.158	742.657
140.570	14.154	975.206	742.323
141.585	13.929	974.920	741.038
142.600	14.201	973.923	741.426
143.614	14.077	973.393	740.406
144.629	14.150	972.372	739.886
145.643	14.142	971.502	739.125
146.658	14.214	970.547	738.651
147.673	14.082	970.025	737.606
148.687	14.163	968.856	737.006
149.702	14.158	967.666	736.016
150.716	14.006	967.101	734.848
151.731	14.046	966.081	734.185
152.746	14.083	965.220	733.630
153.760	14.137	964.613	733.343
154.775	14.061	964.012	732.486
155.789	14.082	963.633	732.226
156.804	14.231	962.540	731.985
157.819	14.182	961.546	730.948
158.833	14.087	961.127	730.147
159.848	14.125	960.477	729.756
160.862	14.082	959.942	729.095
161.877	14.278	959.033	729.201
162.892	14.123	958.523	728.071
163.906	14.171	957.500	727.439
164.921	14.145	956.440	726.457
165.935	14.214	955.596	726.052
166.950	14.069	954.834	724.776
167.964	14.275	953.644	724.705
168.979	14.155	952.879	723.536
169.994	14.302	951.642	723.171
171.008	14.259	950.941	722.389
172.023	14.197	950.309	721.575
173.037	14.233	949.449	721.018
174.052	14.294	948.408	720.424
175.067	14.274	947.775	719.796
176.081	14.277	946.891	719.072
177.096	14.282	946.049	718.393
178.110	14.312	945.281	717.874
179.125	14.241	944.962	717.260
180.140	14.337	944.011	716.890
181.154	14.281	943.286	716.037
182.169	14.326	942.072	715.244
183.183	14.324	942.028	715.138
184.198	14.419	941.037	714.729
185.213	14.422	940.385	714.184
186.227	14.370	939.858	713.498
187.242	14.473	939.359	713.499
188.256	14.661	938.401	713.508
189.271	14.375	938.149	712.032
190.286	14.615	937.195	712.272
191.300	14.490	936.424	711.090
192.315	14.309	935.985	709.922
193.329	14.338	934.800	709.084
194.344	14.469	934.100	709.046
195.359	14.429	933.708	708.516
196.373	14.451	933.226	708.182
197.388	14.555	932.519	708.024
198.402	14.648	931.983	707.945
199.417	14.548	931.449	707.055
200.432	14.645	930.969	707.041
201.446	14.625	930.513	706.545
202.461	14.649	930.344	706.455
203.475	14.617	929.811	705.854
204.490	14.759	928.538	705.425
205.504	14.726	927.816	704.675
206.519	14.645	927.270	703.855
207.534	14.798	926.488	703.845
208.548	14.777	925.466	702.918
209.563	14.784	924.660	702.275
210.577	14.627	924.369	701.331
211.592	14.785	923.644	701.381
212.607	14.967	922.662	701.335
213.621	14.823	922.151	700.282
214.636	14.761	921.959	699.814
215.650	14.941	920.732	699.576
216.665	14.805	920.601	698.847
217.680	14.855	920.163	698.660
218.694	14.979	919.273	698.441
219.709	15.027	918.788	698.210
220.723	14.949	918.300	697.452
221.738	14.913	917.446	696.593
222.753	14.977	916.764	696.278
223.767	14.972	915.973	695.595
224.782	14.873	915.745	694.949
225.796	14.984	914.738	694.583
226.811	15.005	914.043	694.083
227.826	15.068	913.273	693.699
228.840	14.997	912.879	693.041
229.855	15.023	912.131	692.519
230.869	14.957	911.541	691.740
231.884	15.030	910.816	691.428
232.899	15.014	910.136	690.785
233.913	14.934	909.291	689.753
234.928	15.120	908.502	689.861
235.942	15.036	907.951	689.032
236.957	15.041	907.294	688.496
237.972	14.990	906.651	687.739
238.986	15.051	905.451	687.017
240.001	15.068	905.365	686.958
241.015	15.150	904.610	686.663
242.030	15.056	904.111	685.840
243.045	15.145	902.912	685.231
244.059	15.220	902.413	685.100
245.074	15.169	901.899	684.440
246.088	15.213	901.209	684.035
247.103	15.225	900.779	683.696
248.117	15.236	900.024	683.111
249.132	15.266	899.423	682.713
250.147	15.378	898.985	682.779
251.161	15.250	898.474	681.808
252.176	15.400	897.396	681.540
253.190	15.266	897.036	680.659
254.205	15.494	896.138	680.844
255.220	15.539	895.558	680.526
256.234	15.512	895.086	679.997
257.249	15.465	894.160	679.043
258.263	15.527	893.657	678.851
259.278	15.535	893.142	678.434
260.293	15.649	892.519	678.359
261.307	15.587	891.847	677.541
262.322	15.567	891.420	677.073
263.336	15.619	890.486	676.515
264.351	15.721	890.368	676.776
265.366	15.758	889.472	676.185
266.380	15.762	888.686	675.543
267.395	15.839	887.653	675.007
268.409	15.737	887.148	674.153
269.424	15.662	886.704	673.456
270.439	15.799	885.808	673.263
271.453	15.783	885.125	672.621
272.468	15.629	884.603	671.548
273.482	15.796	883.731	671.496
274.497	15.865	883.000	671.155
275.512	15.793	882.390	670.347
276.526	15.762	881.663	669.609
277.541	15.842	881.021	669.381
278.555	15.889	880.766	669.314
279.570	15.923	880.291	669.032
280.585	15.926	879.513	668.393
281.599	16.080	878.857	668.444
282.614	15.883	878.477	667.317
283.628	15.892	877.705	666.707
284.643	15.910	877.172	666.312
285.657	15.832	876.980	665.801
286.672	16.099	876.052	666.090
287.687	15.969	875.905	665.407
288.701	16.078	875.437	665.422
289.716	16.035	874.353	664.371
290.730	16.076	873.850	664.090
291.745	16.051	873.666	663.792
292.760	16.158	872.315	663.129
293.774	16.030	872.112	662.415
294.789	16.117	871.590	662.301
295.803	16.191	870.384	661.616
296.818	16.239	869.950	661.416
297.833	16.050	869.565	660.323
298.847	16.061	868.945	659.836
299.862	16.286	867.948	659.902
300.876	16.116	867.512	658.846
301.891	16.220	866.716	658.589
302.906	16.236	866.143	658.161
303.920	16.265	865.334	657.601
304.935	16.322	864.512	657.140
305.949	16.307	864.332	656.887
306.964	16.483	863.480	656.865
307.979	16.329	863.295	656.068
308.993	16.397	862.452	655.630
310.008	16.587	861.476	655.569
311.022	16.558	861.211	655.195
312.037	16.580	860.509	654.688
313.052	16.555	860.403	654.455
314.066	16.512	859.478	653.527
315.081	16.493	858.950	652.993
316.095	16.521	858.373	652.603
317.110	16.405	858.089	651.885
318.125	16.418	857.650	651.541
319.139	16.372	857.181	650.950
320.154	16.376	856.499	650.393
321.168	16.525	855.781	650.361
322.183	16.544	855.695	650.312
323.197	16.453	854.877	649.283
324.212	16.726	854.022	649.623
325.227	16.576	853.857	648.865
326.241	16.419	853.404	647.860
327.256	16.595	852.502	647.795
328.270	16.556	852.149	647.319
329.285	16.605	851.781	647.171
330.300	16.495	851.129	646.197
331.314	16.557	850.664	646.023
332.329	16.503	850.190	645.398
333.343	16.663	849.083	645.114
334.358	16.620	848.568	644.500
335.373	16.659	848.312	644.399
336.387	16.666	847.413	643.684
337.402	16.711	846.749	643.292
338.416	16.620	846.320	642.565
339.431	16.767	845.878	642.731
340.446	16.858	844.993	642.347
341.460	16.729	844.761	641.623
342.475	16.907	843.878	641.570
343.489	16.820	843.823	641.141
344.504	16.808	843.033	640.440
345.519	16.902	842.662	640.457
346.533	16.940	842.001	640.043
347.548	17.005	841.523	639.868
348.562	17.072	840.542	639.318
349.577	16.983	840.261	638.709
350.592	16.984	839.615	638.166
351.606	17.073	839.204	638.133
352.621	16.882	839.186	637.345
353.635	16.951	838.350	636.912
354.650	16.939	838.268	636.749
355.665	16.979	838.060	636.684
356.679	16.902	837.428	635.858
357.694	17.103	836.498	635.847
358.708	17.073	835.803	635.154
359.723	17.195	835.260	635.141
360.738	17.058	835.457	634.721
361.752	17.193	834.498	634.442
362.767	17.187	833.938	633.935
363.781	17.040	833.664	633.123
364.796	17.179	833.289	633.301
365.810	17.184	832.558	632.707
366.825	17.258	832.242	632.688
367.840	17.277	831.970	632.494
368.854	17.288	831.559	632.169
369.869	17.373	830.734	631.802
370.883	17.324	829.836	630.879
371.898	17.262	829.737	630.521
372.913	17.249	828.934	629.803
373.927	17.288	828.373	629.466
374.942	17.310	827.847	629.092
375.956	17.346	827.475	628.889
376.971	17.565	826.591	628.968
377.986	17.513	826.014	628.284
379.000	17.528	825.777	628.103
380.015	17.579	825.061	627.689
381.029	17.617	824.510	627.357
382.044	17.475	823.961	626.359
383.059	17.588	823.293	626.212
384.073	17.599	822.880	625.883
385.088	17.641	822.463	625.664
386.102	17.504	821.976	624.734
387.117	17.607	821.501	624.697
388.132	17.643	820.839	624.270
389.146	17.479	820.732	623.534
390.161	17.560	820.266	623.421
391.175	17.447	820.177	622.882
392.190	17.598	819.383	622.780
393.205	17.747	819.080	623.039
394.219	17.650	818.582	622.250
395.234	17.729	817.848	621.924
396.248	17.806	817.307	621.740
397.263	17.584	816.576	620.320
398.278	17.628	816.439	620.320
399.292	17.589	815.928	619.734
400.307	17.680	815.754	619.878
401.321	17.718	815.033	619.415
402.336	17.751	814.796	619.300
403.350	17.788	814.258	618.971
404.365	17.906	813.554	618.807
405.380	17.669	813.323	617.719
406.394	17.765	813.053	617.805
407.409	17.749	812.450	617.234
408.423	17.890	812.104	617.427
409.438	17.826	811.400	616.608
410.453	17.857	810.853	616.247
411.467	17.933	810.592	616.271
412.482	17.995	809.981	615.975
413.496	17.934	809.894	615.636
414.511	17.941	809.426	615.249
415.526	17.958	808.918	614.870
416.540	18.044	808.524	614.826
417.555	18.001	808.179	614.354
418.569	18.035	807.819	614.149
419.584	18.029	807.202	613.604
420.599	18.107	806.605	613.375
421.613	104.401	1283.885	1441.018
422.628	89.882	1353.425	1441.156
