DTS Sentinel unit serial number:	SN413079Multiplexer serial number:	ORYXHardware model number:	OX4-SRSoftware version number:	ORYX F/W v4.00 Oryx Data Collector v3.7.2.0data status	okinstallation	princeton_trtdifferential loss correction	single-endedforward channel	channel 3reverse channel	N/Adate	2019/09/14time	04:32:34forward acquisition time	60.00reverse acquisition time	0.00gamma	496.2192k internal	0.2338k external	0.2338temperature offset calibration	1.0056default loss term (dB/km)	0.3790temperature slope calibration	1.0000multiplexer offset coefficient	1.0000multiplexer slope coefficient	1.0000fibre end	0.00T internal ref (°C)	26.75T ext. ref 1 (°C)	3.35T ext. ref 2 (°C)	21.99length (m)	temperature (°C)	Stokes	anti-Stokes-747.200	-91.954	0.310	-0.088
-746.185	-12.063	-0.400	0.263
-745.171	9.314	0.155	0.118
-744.156	752.760	-0.106	0.286
-743.142	-200.000	0.073	-0.324
-742.127	676.831	-0.118	0.308
-741.112	63.345	-0.245	-0.247
-740.098	800.000	0.098	0.280
-739.083	-200.000	-0.026	0.228
-738.069	41.256	-0.124	0.112
-737.054	-92.433	0.166	-0.047
-736.039	163.472	-0.259	-0.365
-735.025	-200.000	0.035	0.228
-734.010	173.060	-0.238	-0.345
-732.996	800.000	0.018	0.052
-731.981	-84.296	-0.294	-0.093
-730.966	36.729	0.136	0.121
-729.952	90.928	-0.280	-0.315
-728.937	-155.132	-0.404	-0.027
-727.923	197.973	0.019	0.030
-726.908	37.650	0.152	0.135
-725.894	-200.000	0.025	0.203
-724.879	116.376	-0.213	0.262
-723.864	-165.755	0.096	-0.004
-722.850	27.866	-0.192	-0.162
-721.835	702.731	0.010	-0.027
-720.821	56.662	-0.086	0.084
-719.806	-144.078	-0.077	0.007
-718.791	-4.815	-0.095	-0.066
-717.777	-58.297	0.332	-0.145
-716.762	257.999	-0.237	-0.410
-715.748	-59.561	0.115	-0.050
-714.733	-67.081	-0.151	-0.060
-713.718	36.060	0.217	-0.191
-712.704	147.053	-0.149	0.201
-711.689	138.137	0.215	-0.283
-710.675	-132.113	-0.094	-0.012
-709.660	47.161	-0.169	-0.158
-708.645	345.877	-0.160	0.316
-707.631	-5.262	0.225	-0.155
-706.616	0.550	-0.053	-0.038
-705.602	108.678	-0.086	-0.103
-704.587	285.041	-0.112	-0.203
-703.572	-101.639	-0.168	-0.041
-702.558	250.524	0.110	-0.187
-701.543	423.772	0.028	0.060
-700.529	-156.576	-0.122	0.008
-699.514	12.661	0.119	0.092
-698.499	101.691	0.175	0.205
-697.485	37.558	0.061	-0.054
-696.470	-73.691	-0.208	-0.076
-695.456	414.426	0.047	0.100
-694.441	15.584	0.069	-0.054
-693.426	467.218	-0.069	-0.155
-692.412	13.905	-0.129	-0.100
-691.397	122.948	-0.090	-0.112
-690.383	463.038	-0.170	0.380
-689.368	-125.436	0.153	0.023
-688.354	-32.463	0.184	0.103
-687.339	-24.687	-0.263	-0.156
-686.324	406.171	0.038	0.080
-685.310	-44.075	-0.322	-0.162
-684.295	98.823	0.138	0.159
-683.281	167.159	-0.013	-0.018
-682.266	-25.831	0.143	0.085
-681.251	-62.784	0.117	-0.048
-680.237	-200.000	-0.008	-0.066
-679.222	66.137	0.198	-0.201
-678.208	791.904	-0.089	-0.246
-677.193	800.000	0.021	-0.062
-676.178	31.243	0.397	-0.341
-675.164	4.238	0.272	-0.200
-674.149	-161.924	0.125	-0.006
-673.135	-87.364	-0.196	-0.059
-672.120	152.397	0.008	-0.011
-671.105	-30.032	-0.266	-0.151
-670.091	-200.000	0.012	-0.217
-669.076	608.979	-0.112	-0.280
-668.062	361.094	-0.061	-0.122
-667.047	168.930	-0.112	-0.160
-666.032	-70.399	-0.206	-0.078
-665.018	-84.325	0.215	-0.068
-664.003	-200.000	-0.039	0.195
-662.989	85.830	0.168	-0.185
-661.974	3.274	0.151	-0.110
-660.959	800.000	-0.086	0.284
-659.945	164.625	-0.244	0.345
-658.930	16.080	0.217	-0.171
-657.916	-169.627	0.387	-0.014
-656.901	-199.827	0.117	-0.001
-655.886	-170.618	-0.386	0.013
-654.872	81.471	0.207	0.224
-653.857	-62.141	-0.192	0.080
-652.843	-157.358	-0.256	-0.015
-651.828	103.862	-0.360	-0.423
-650.814	-163.766	-0.123	0.006
-649.799	-200.000	-0.020	0.104
-648.784	-9.740	0.279	0.186
-647.770	-79.215	-0.056	0.019
-646.755	43.672	-0.273	-0.249
-645.741	-89.950	-0.499	0.146
-644.726	-35.984	0.470	-0.254
-643.711	800.000	-0.057	-0.214
-642.697	187.773	0.105	-0.157
-641.682	64.027	-0.302	0.304
-640.668	-30.224	-0.284	-0.161
-639.653	-135.019	-0.174	-0.021
-638.638	800.000	0.053	0.177
-637.624	-36.426	-0.449	0.242
-636.609	-50.334	-0.028	-0.013
-635.595	-200.000	-0.024	0.120
-634.580	800.000	0.102	0.311
-633.565	-28.954	-0.145	-0.083
-632.551	800.000	0.058	0.212
-631.536	-200.000	0.162	-0.000
-630.522	800.000	0.099	0.333
-629.507	186.254	0.108	-0.160
-628.492	-25.766	-0.269	-0.158
-627.478	-108.858	0.236	0.050
-626.463	33.808	-0.140	0.122
-625.449	-200.000	0.032	-0.289
-624.434	-55.992	-0.275	-0.123
-623.419	-169.533	-0.319	0.012
-622.405	-55.259	-0.123	-0.055
-621.390	30.392	0.097	-0.083
-620.376	611.919	-0.102	0.256
-619.361	131.863	0.107	-0.137
-618.346	-45.507	0.220	-0.109
-617.332	800.000	-0.024	-0.089
-616.317	-192.029	-0.262	0.003
-615.303	-75.778	0.300	0.106
-614.288	-151.231	0.341	0.026
-613.273	18.324	0.134	-0.107
-612.259	-125.206	-0.062	-0.009
-611.244	-200.000	-0.002	-0.056
-610.230	69.405	-0.201	0.207
-609.215	390.963	0.192	-0.398
-608.201	127.399	0.145	-0.183
-607.186	800.000	-0.070	0.248
-606.171	800.000	-0.035	0.114
-605.157	-94.118	-0.383	-0.105
-604.142	-35.815	-0.087	0.047
-603.128	51.834	0.068	-0.065
-602.113	53.900	0.372	0.356
-601.098	-70.455	0.073	0.028
-600.084	-200.000	-0.063	0.335
-599.069	-200.000	-0.072	-0.327
-598.055	800.000	-0.056	0.218
-597.040	-200.000	0.003	-0.096
-596.025	198.102	0.095	-0.144
-595.011	77.438	0.213	0.226
-593.996	8.780	0.308	-0.232
-592.982	-114.120	-0.173	0.033
-591.967	-88.391	0.050	-0.015
-590.952	-200.000	-0.001	-0.152
-589.938	-31.578	-0.208	-0.117
-588.923	-65.289	0.226	-0.091
-587.909	568.613	-0.098	-0.238
-586.894	-200.000	-0.007	0.069
-585.879	-200.000	0.033	-0.214
-584.865	-7.991	0.189	-0.127
-583.850	-79.670	0.163	0.055
-582.836	-200.000	0.069	0.376
-581.821	-127.012	0.179	0.026
-580.806	800.000	0.015	0.051
-579.792	-200.000	-0.060	-0.478
-578.777	-36.172	-0.186	-0.100
-577.763	1.106	-0.046	0.033
-576.748	37.899	0.240	0.213
-575.733	312.391	-0.078	0.145
-574.719	-200.000	-0.030	0.157
-573.704	187.512	0.243	-0.362
-572.690	-93.720	0.103	0.028
-571.675	200.152	-0.030	-0.046
-570.661	168.975	-0.229	0.325
-569.646	476.209	-0.052	0.116
-568.631	-114.388	-0.096	-0.018
-567.617	-15.591	0.311	0.198
-566.602	249.960	0.044	-0.074
-565.588	-15.460	-0.291	0.185
-564.573	-200.000	0.059	0.268
-563.558	670.368	0.135	-0.347
-562.544	39.180	0.050	0.044
-561.529	90.039	0.176	-0.195
-560.515	-89.226	-0.121	-0.036
-559.500	-130.960	0.159	-0.021
-558.485	800.000	-0.087	0.242
-557.471	471.326	0.238	-0.534
-556.456	-101.507	-0.298	0.072
-555.442	9.144	0.217	0.164
-554.427	-200.000	0.045	-0.252
-553.412	-166.603	-0.104	0.004
-552.398	-82.038	0.330	-0.107
-551.383	227.463	-0.135	-0.218
-550.369	210.529	-0.139	0.217
-549.354	-73.605	0.480	-0.174
-548.339	-200.000	-0.044	0.258
-547.325	51.469	-0.343	0.325
-546.310	-200.000	0.035	0.205
-545.296	-70.773	0.131	0.049
-544.281	-121.835	-0.083	-0.014
-543.266	-200.000	-0.021	0.148
-542.252	106.892	-0.108	-0.127
-541.237	-126.575	-0.246	0.036
-540.223	-15.270	-0.222	0.142
-539.208	-200.000	0.017	-0.213
-538.193	364.890	0.101	0.202
-537.179	82.566	-0.129	0.139
-536.164	501.889	0.070	-0.160
-535.150	21.710	0.130	0.105
-534.135	800.000	-0.088	-0.275
-533.121	-122.878	-0.381	-0.061
-532.106	-200.000	-0.263	-0.001
-531.091	-98.413	-0.163	-0.042
-530.077	69.985	-0.022	0.022
-529.062	-101.390	-0.127	0.031
-528.048	-200.000	-0.018	0.173
-527.033	-200.000	-0.065	-0.309
-526.018	-200.000	0.002	-0.095
-525.004	67.452	-0.203	-0.206
-523.989	-29.547	-0.288	-0.164
-522.975	302.493	0.085	0.156
-521.960	25.849	-0.235	0.195
-520.945	-91.762	0.027	0.008
-519.931	206.345	0.135	-0.208
-518.916	-200.000	-0.049	-0.298
-517.902	-188.965	-0.374	0.004
-516.887	534.855	-0.087	0.206
-515.872	288.082	0.222	-0.399
-514.858	108.656	-0.090	0.107
-513.843	-22.785	-0.093	-0.056
-512.829	517.483	-0.070	-0.164
-511.814	73.486	-0.271	-0.282
-510.799	-200.000	-0.018	-0.418
-509.785	-200.000	-0.048	0.227
-508.770	-136.795	0.133	-0.015
-507.756	179.668	0.044	-0.063
-506.741	800.000	0.068	-0.215
-505.726	216.932	-0.222	-0.352
-504.712	329.333	0.064	0.122
-503.697	561.717	0.137	0.330
-502.683	2.820	-0.132	0.095
-501.668	-68.745	-0.335	-0.129
-500.653	326.322	-0.057	-0.109
-499.639	-200.000	-0.036	-0.199
-498.624	-200.000	-0.001	-0.210
-497.610	-40.529	-0.145	-0.075
-496.595	-200.000	0.008	0.189
-495.581	-162.191	-0.408	-0.020
-494.566	296.618	-0.163	0.297
-493.551	-54.985	0.225	0.101
-492.537	-29.291	-0.119	0.067
-491.522	-15.178	-0.454	0.289
-490.508	-104.228	0.072	0.017
-489.493	2.974	-0.102	0.074
-488.478	-200.000	-0.004	-0.031
-487.464	-3.899	0.132	-0.091
-486.449	-58.656	-0.074	-0.032
-485.435	-92.024	0.119	0.034
-484.420	38.529	-0.171	-0.151
-483.405	314.708	-0.119	0.223
-482.391	224.796	0.108	-0.173
-481.376	-200.000	0.003	0.023
-480.362	-78.056	0.127	-0.043
-479.347	105.358	-0.016	-0.018
-478.332	-165.178	-0.429	0.019
-477.318	-200.000	-0.017	-0.101
-476.303	-50.680	0.343	0.160
-475.289	94.959	0.229	0.259
-474.274	-14.837	0.183	0.117
-473.259	800.000	-0.086	0.240
-472.245	-42.067	-0.304	0.155
-471.230	800.000	-0.056	0.201
-470.216	-200.000	-0.048	0.217
-469.201	-200.000	0.044	0.270
-468.186	66.596	0.130	0.131
-467.172	-6.391	-0.115	0.078
-466.157	-15.727	0.129	0.081
-465.143	-200.000	-0.047	-0.367
-464.128	622.649	0.112	-0.281
-463.113	48.699	0.120	-0.112
-462.099	800.000	-0.058	-0.222
-461.084	19.356	0.248	-0.198
-460.070	800.000	-0.022	0.067
-459.055	-16.658	0.075	-0.047
-458.040	-103.566	-0.414	-0.097
-457.026	-81.366	-0.175	-0.057
-456.011	-77.539	-0.182	-0.063
-454.997	498.215	-0.077	-0.176
-453.982	249.027	0.136	-0.228
-452.968	-2.937	-0.246	0.171
-451.953	-31.532	-0.227	-0.127
-450.938	-74.809	0.141	0.050
-449.924	-51.681	0.165	0.076
-448.909	-200.000	0.001	0.108
-447.895	27.517	-0.182	0.152
-446.880	800.000	0.038	-0.136
-445.865	-13.282	0.118	-0.076
-444.851	413.280	0.087	-0.184
-443.836	510.727	-0.169	0.390
-442.822	36.432	0.317	-0.277
-441.807	-195.359	0.141	0.001
-440.792	-100.652	0.147	-0.036
-439.778	183.543	0.058	0.085
-438.763	26.034	-0.151	-0.125
-437.749	236.499	-0.077	-0.126
-436.734	-93.737	-0.315	0.086
-435.719	168.636	0.296	-0.418
-434.705	-129.642	0.274	0.038
-433.690	-200.000	0.006	-0.049
-432.676	800.000	-0.039	0.145
-431.661	-177.950	-0.038	0.001
-430.646	171.031	-0.133	0.190
-429.632	800.000	-0.132	0.400
-428.617	-200.000	0.070	-0.308
-427.603	-200.000	0.011	-0.355
-426.588	800.000	0.073	0.209
-425.573	115.986	0.176	0.213
-424.559	395.449	0.118	0.245
-423.544	96.679	-0.162	0.184
-422.530	16.768	0.128	-0.100
-421.515	662.570	-0.071	0.180
-420.500	249.143	-0.030	-0.050
-419.486	-106.116	0.259	-0.058
-418.471	-143.415	-0.150	-0.014
-417.457	-61.704	0.324	0.135
-416.442	-200.000	0.021	0.100
-415.428	-98.992	-0.237	-0.059
-414.413	48.307	0.091	0.084
-413.398	-12.887	-0.235	0.152
-412.384	-89.254	-0.200	0.058
-411.369	171.951	0.209	-0.298
-410.355	-119.140	-0.441	0.076
-409.340	-66.232	-0.146	-0.058
-408.325	101.794	0.313	0.361
-407.311	-200.000	0.159	0.001
-406.296	533.622	0.036	-0.085
-405.282	43.764	-0.315	0.286
-404.267	633.808	0.089	0.224
-403.252	-181.308	0.463	-0.009
-402.238	-150.004	0.139	0.011
-401.223	-32.930	0.377	-0.207
-400.209	562.354	0.103	0.247
-399.194	27.138	0.221	0.184
-398.179	800.000	-0.095	-0.267
-397.165	82.438	0.063	0.067
-396.150	63.052	0.297	-0.294
-395.136	-33.412	-0.144	-0.079
-394.121	-200.000	-0.000	0.124
-393.106	7.044	0.244	0.180
-392.092	-174.585	-0.311	0.009
-391.077	391.901	-0.068	0.140
-390.063	-66.295	0.277	0.109
-389.048	12.397	-0.228	-0.174
-388.033	244.107	-0.033	-0.055
-387.019	-21.549	0.041	0.024
-386.004	800.000	-0.012	-0.038
-384.990	-20.179	-0.143	-0.087
-383.975	89.150	-0.092	-0.101
-382.960	-113.455	-0.042	-0.008
-381.946	-146.020	0.423	-0.037
-380.931	-200.000	0.056	0.267
-379.917	-200.000	-0.025	-0.334
-378.902	47.918	-0.040	0.037
-377.888	22.782	-0.134	-0.108
-376.873	-51.065	0.154	0.071
-375.858	800.000	-0.081	0.223
-374.844	665.209	-0.067	-0.172
-373.829	-200.000	-0.058	0.415
-372.815	800.000	-0.037	-0.134
-371.800	509.044	0.060	-0.138
-370.785	-10.836	0.118	-0.077
-369.771	238.558	-0.052	-0.085
-368.756	-159.164	0.216	0.012
-367.742	150.276	0.140	-0.187
-366.727	428.828	0.113	0.241
-365.712	-40.533	0.038	-0.019
-364.698	800.000	0.029	0.117
-363.683	-115.015	0.165	0.031
-362.669	-65.519	-0.278	0.110
-361.654	-72.332	0.117	-0.043
-360.639	-36.163	-0.082	-0.044
-359.625	-200.000	0.050	-0.244
-358.610	-3.389	-0.270	0.186
-357.596	66.811	-0.140	0.141
-356.581	-168.613	0.150	0.006
-355.566	-63.745	0.173	-0.070
-354.552	-44.914	-0.152	0.075
-353.537	579.030	0.102	-0.247
-352.523	124.774	-0.125	-0.156
-351.508	-131.447	0.149	0.019
-350.493	-71.357	0.367	-0.136
-349.479	122.889	0.135	-0.167
-348.464	-186.589	0.180	-0.003
-347.450	115.918	0.077	-0.093
-346.435	193.588	-0.024	0.035
-345.420	-189.477	-0.267	-0.003
-344.406	184.303	-0.191	-0.279
-343.391	-200.000	-0.009	0.299
-342.377	497.628	-0.010	-0.022
-341.362	639.470	-0.123	0.310
-340.348	425.289	-0.038	0.082
-339.333	-179.892	0.233	0.005
-338.318	-59.185	0.257	-0.109
-337.304	-200.000	0.027	0.268
-336.289	393.207	-0.147	0.303
-335.275	-50.512	-0.224	0.104
-334.260	-95.842	0.130	-0.034
-333.245	-58.205	-0.200	0.086
-332.231	146.661	0.219	-0.291
-331.216	-60.283	0.132	-0.055
-330.202	15.471	0.398	0.309
-329.187	-200.000	0.002	-0.285
-328.172	-45.274	0.041	0.020
-327.158	-200.000	0.004	0.048
-326.143	-62.582	0.381	0.156
-325.129	76.542	0.076	-0.080
-324.114	143.741	-0.078	0.103
-323.099	107.923	-0.072	-0.084
-322.085	-25.030	0.189	-0.110
-321.070	18.317	-0.108	0.085
-320.056	208.320	0.167	-0.258
-319.041	741.964	-0.086	-0.229
-318.026	-10.986	0.092	-0.060
-317.012	-200.000	0.024	-0.166
-315.997	55.620	-0.295	0.282
-314.983	368.242	0.165	-0.329
-313.968	-122.306	-0.223	-0.036
-312.953	510.650	0.117	0.269
-311.939	394.102	-0.027	0.055
-310.924	37.552	-0.217	-0.190
-309.910	-200.000	0.019	-0.201
-308.895	110.324	-0.061	-0.072
-307.880	-108.780	-0.224	0.047
-306.866	58.667	0.193	0.187
-305.851	105.989	-0.095	-0.111
-304.837	-18.073	-0.333	0.206
-303.822	-200.000	-0.017	-0.145
-302.807	800.000	0.058	0.196
-301.793	-62.320	-0.205	-0.084
-300.778	122.716	-0.089	0.109
-299.764	83.083	0.175	-0.188
-298.749	-32.156	-0.039	-0.022
-297.735	-47.340	-0.362	0.174
-296.720	-112.515	0.327	0.064
-295.705	125.818	-0.190	-0.236
-294.691	179.156	0.012	0.018
-293.676	213.242	-0.069	0.107
-292.662	800.000	-0.050	0.154
-291.647	-112.485	-0.101	-0.020
-290.632	42.599	0.199	-0.179
-289.618	104.195	-0.013	-0.016
-288.603	-42.934	0.297	0.149
-287.589	-33.107	-0.142	0.078
-286.574	-85.353	0.317	-0.098
-285.559	-188.869	-0.247	-0.003
-284.545	-27.399	0.087	0.050
-283.530	207.652	0.037	-0.057
-282.516	-112.103	0.158	0.031
-281.501	-194.162	0.073	-0.001
-280.486	-11.263	-0.110	0.072
-279.472	-200.000	-0.003	0.092
-278.457	-109.564	0.340	-0.071
-277.443	290.051	-0.108	-0.194
-276.428	-145.543	0.197	0.017
-275.413	-142.114	0.168	0.016
-274.399	189.331	-0.020	0.030
-273.384	-34.116	0.452	0.245
-272.370	60.163	0.249	0.243
-271.355	-200.000	-0.037	-0.160
-270.340	-100.529	-0.456	-0.111
-269.326	-95.699	-0.374	0.098
-268.311	-200.000	-0.053	0.346
-267.297	-21.530	0.062	-0.037
-266.282	-178.090	-0.246	-0.006
-265.267	757.499	0.121	0.323
-264.253	-135.342	0.238	-0.028
-263.238	125.048	0.052	0.065
-262.224	39.291	0.231	0.204
-261.209	146.730	-0.082	-0.108
-260.195	-200.000	-0.037	-0.197
-259.180	-130.223	-0.110	-0.015
-258.165	34.771	0.153	-0.131
-257.151	-102.351	0.178	0.042
-256.136	636.075	-0.039	-0.097
-255.122	-55.599	-0.162	-0.072
-254.107	279.111	0.142	-0.249
-253.092	-200.000	-0.028	-0.146
-252.078	-0.670	-0.228	0.159
-251.063	159.984	0.222	-0.305
-250.049	0.709	0.090	-0.063
-249.034	-64.065	0.062	-0.025
-248.019	-200.000	-0.037	0.249
-247.005	800.000	0.019	-0.060
-245.990	434.216	0.273	0.584
-244.976	-125.120	-0.137	-0.021
-243.961	-200.000	0.029	-0.193
-242.946	-28.596	-0.340	-0.193
-241.932	-1.475	-0.098	-0.068
-240.917	190.897	-0.191	0.282
-239.903	-121.731	-0.260	0.042
-238.888	-200.000	0.022	-0.112
-237.873	-28.720	-0.368	0.208
-236.859	75.491	-0.221	0.229
-235.844	4.252	0.226	-0.163
-234.830	46.385	-0.136	0.124
-233.815	15.634	0.289	-0.223
-232.800	-11.972	0.095	0.061
-231.786	-102.940	-0.231	-0.054
-230.771	-188.835	-0.123	-0.001
-229.757	-120.320	0.406	0.068
-228.742	-200.000	0.037	0.267
-227.727	-132.737	0.120	-0.015
-226.713	-200.000	0.028	0.222
-225.698	39.584	-0.157	-0.139
-224.684	-111.842	-0.458	-0.091
-223.669	47.844	0.035	0.032
-222.655	800.000	-0.100	0.289
-221.640	800.000	0.039	0.126
-220.625	-5.315	0.398	-0.269
-219.611	-148.951	-0.186	0.015
-218.596	-112.991	0.364	-0.071
-217.582	56.082	0.436	0.416
-216.567	800.000	0.049	-0.198
-215.552	-200.000	0.031	-0.248
-214.538	-196.402	-0.132	-0.001
-213.523	-4.138	-0.435	-0.296
-212.509	-113.549	0.156	-0.030
-211.494	-47.064	-0.189	0.091
-210.479	-168.457	-0.418	0.016
-209.465	566.009	0.076	0.181
-208.450	291.354	0.036	-0.064
-207.436	-63.949	0.119	0.048
-206.421	-148.370	-0.061	-0.005
-205.406	-19.358	-0.056	-0.034
-204.392	746.924	-0.157	-0.417
-203.377	-200.000	0.110	-0.477
-202.363	-157.265	0.095	-0.006
-201.348	800.000	0.021	-0.076
-200.333	28.802	-0.173	0.144
-199.319	13.760	-0.200	-0.153
-198.304	759.836	0.133	0.355
-197.290	262.381	-0.039	-0.067
-196.275	-106.153	0.281	-0.062
-195.260	-123.770	0.436	0.068
-194.246	-94.413	0.069	0.019
-193.231	-124.245	0.369	0.057
-192.217	-53.729	-0.262	0.118
-191.202	-42.349	0.388	-0.195
-190.187	-126.167	0.082	-0.012
-189.173	65.157	0.180	-0.178
-188.158	-160.773	-0.100	-0.005
-187.144	-133.109	-0.207	-0.026
-186.129	-200.000	-0.037	0.197
-185.114	66.100	0.168	-0.167
-184.100	188.432	0.170	-0.249
-183.085	-121.384	-0.159	-0.026
-182.071	504.811	0.139	-0.317
-181.056	800.000	0.024	0.080
-180.042	165.365	-0.168	0.232
-179.027	-200.000	-0.018	-0.393
-178.012	-185.801	0.252	-0.004
-176.998	-200.000	0.034	-0.262
-175.983	632.176	0.008	-0.020
-174.969	-29.390	0.092	-0.052
-173.954	800.000	0.012	-0.045
-172.939	62.470	0.117	0.114
-171.925	-102.138	0.222	0.052
-170.910	12.128	-0.151	0.114
-169.896	-200.000	-0.025	0.420
-168.881	431.812	0.071	-0.150
-167.866	-164.718	0.191	-0.008
-166.852	-200.000	-0.017	0.075
-165.837	-200.000	0.039	0.254
-164.823	-24.877	0.090	0.052
-163.808	-16.083	0.191	-0.119
-162.793	248.113	-0.149	-0.247
-161.779	-195.913	-0.170	-0.001
-160.764	613.177	-0.135	-0.333
-159.750	238.367	-0.120	-0.195
-158.735	-62.953	-0.317	-0.129
-157.720	-101.410	0.171	-0.041
-156.706	800.000	0.093	0.263
-155.691	412.905	0.155	0.324
-154.677	-200.000	-0.001	0.448
-153.662	47.775	-0.122	0.112
-152.647	-200.000	-0.021	0.153
-151.633	-114.855	-0.205	0.038
-150.618	-56.145	-0.104	-0.045
-149.604	21.424	0.125	-0.099
-148.589	122.524	-0.064	0.078
-147.574	-200.000	0.003	-0.098
-146.560	-81.686	0.036	-0.012
-145.545	-200.000	-0.029	0.151
-144.531	-170.291	0.079	0.003
-143.516	-63.776	0.641	0.257
-142.502	-30.227	0.092	-0.051
-141.487	233.610	0.179	0.289
-140.472	-200.000	0.061	0.361
-139.458	198.670	-0.096	-0.143
-138.443	554.458	-0.165	-0.389
-137.429	800.000	0.074	0.251
-136.414	51.812	0.351	0.327
-135.399	-162.048	0.267	-0.013
-134.385	-200.000	0.079	0.375
-133.370	800.000	-0.104	0.322
-132.356	285.083	-0.088	-0.155
-131.341	-132.931	0.356	-0.044
-130.326	36.428	0.258	-0.223
-129.312	-62.301	0.226	0.092
-128.297	-200.000	0.052	-0.255
-127.283	369.340	0.078	-0.155
-126.268	-200.000	-0.005	0.231
-125.253	800.000	0.094	0.380
-124.239	-200.000	-0.041	-0.207
-123.224	159.625	-0.135	-0.184
-122.210	-33.700	-0.341	-0.184
-121.195	-177.202	0.049	0.001
-120.180	-200.000	-0.035	-0.221
-119.166	-200.000	0.016	0.301
-118.151	-200.000	-0.038	0.300
-117.137	-71.013	-0.230	-0.085
-116.122	75.262	-0.199	0.205
-115.107	-68.563	0.106	-0.040
-114.093	-200.000	-0.034	0.169
-113.078	181.827	0.035	0.050
-112.064	-112.529	0.210	-0.041
-111.049	-65.635	-0.069	-0.027
-110.034	-60.922	-0.481	-0.199
-109.020	201.545	-0.105	0.159
-108.005	-200.000	-0.034	0.275
-106.991	-82.901	-0.294	0.093
-105.976	-95.116	0.297	0.078
-104.962	-63.694	0.089	-0.036
-103.947	218.335	0.160	0.251
-102.932	-5.917	0.148	0.099
-101.918	-49.497	-0.211	-0.099
-100.903	118.034	-0.083	0.100
-99.889	290.173	0.127	-0.227
-98.874	324.657	0.150	-0.281
-97.859	190.258	0.143	-0.210
-96.845	-104.252	-0.140	-0.032
-95.830	182.133	-0.167	-0.241
-94.816	800.000	0.073	0.253
-93.801	205.377	-0.051	0.077
-92.786	800.000	-0.057	-0.223
-91.772	-64.815	0.251	-0.099
-90.757	-139.332	0.238	-0.025
-89.743	47.535	-0.170	-0.155
-88.728	319.876	0.093	0.172
-87.713	90.681	-0.254	0.278
-86.699	-200.000	0.014	0.146
-85.684	179.466	0.164	-0.235
-84.670	800.000	-0.094	0.291
-83.655	-200.000	0.048	-0.304
-82.640	129.671	-0.096	0.120
-81.626	-36.689	-0.061	-0.032
-80.611	-85.756	-0.461	0.140
-79.597	-44.098	0.273	-0.134
-78.582	800.000	0.056	-0.192
-77.567	117.248	-0.256	0.308
-76.553	-155.509	0.174	-0.011
-75.538	314.939	-0.165	-0.303
-74.524	-200.000	0.003	0.068
-73.509	123.262	0.074	-0.090
-72.494	104.282	-0.084	-0.097
-71.480	152.344	0.197	-0.263
-70.465	-123.107	0.216	-0.034
-69.451	82.943	0.131	0.139
-68.436	-117.871	0.193	0.034
-67.422	-200.000	0.014	0.087
-66.407	-173.341	-0.075	-0.002
-65.392	4.475	-0.284	-0.204
-64.378	373.161	0.219	-0.435
-63.363	-90.335	-0.214	-0.061
-62.349	273.288	-0.014	0.023
-61.334	65.898	-1.026	-1.017
-60.319	-3.654	0.832	0.565
-59.305	237.526	-0.502	-0.813
-58.290	800.000	0.599	1.617
-57.276	425.327	0.477	1.004
-56.261	-200.000	116.219	656.113
-55.246	523.005	1535.818	3525.037
-54.232	176.134	2709.081	3842.794
-53.217	107.243	2182.052	2533.980
-52.203	37.702	1699.350	1473.892
-51.188	29.821	1514.933	1260.445
-50.173	27.649	1489.911	1225.002
-49.159	52.101	1549.406	1442.071
-48.144	50.039	1565.211	1442.612
-47.130	30.084	1520.226	1266.450
-46.115	27.032	1505.012	1233.036
-45.100	26.883	1501.172	1228.834
-44.086	26.889	1499.592	1227.528
-43.071	26.774	1497.686	1225.148
-42.057	26.709	1496.501	1223.685
-41.042	26.769	1494.558	1222.458
-40.027	26.688	1493.665	1221.131
-39.013	26.755	1491.523	1219.782
-37.998	26.626	1490.819	1218.290
-36.984	26.662	1489.575	1217.468
-35.969	26.702	1487.943	1216.355
-34.954	26.726	1486.775	1215.512
-33.940	26.722	1485.049	1214.021
-32.925	26.702	1483.932	1212.929
-31.911	26.777	1482.531	1212.235
-30.896	26.811	1481.355	1211.458
-29.881	26.907	1480.158	1211.068
-28.867	26.767	1478.846	1209.016
-27.852	26.767	1477.632	1207.973
-26.838	26.776	1476.284	1206.883
-25.823	26.757	1475.069	1205.718
-24.809	26.830	1472.971	1204.437
-23.794	26.796	1471.889	1203.278
-22.779	26.772	1470.548	1201.976
-21.765	26.876	1469.446	1201.719
-20.750	26.863	1467.816	1200.251
-19.736	26.704	1467.421	1198.828
-18.721	26.733	1466.278	1198.038
-17.706	26.786	1464.833	1197.156
-16.692	26.808	1463.717	1196.344
-15.677	26.853	1462.708	1195.770
-14.663	26.773	1462.186	1194.767
-13.648	26.701	1461.041	1193.311
-12.633	26.749	1460.017	1192.741
-11.619	26.718	1459.698	1192.230
-10.604	26.671	1458.459	1190.864
-9.590	26.729	1457.582	1190.484
-8.575	26.793	1456.369	1189.860
-7.560	26.690	1455.804	1188.679
-6.546	26.732	1455.145	1188.370
-5.531	26.705	1454.333	1187.481
-4.517	26.725	1453.159	1186.604
-3.502	26.778	1452.354	1186.249
-2.487	26.673	1451.209	1184.579
-1.473	26.696	1450.145	1183.816
-0.458	26.775	1449.064	1183.401
0.556	27.064	1438.939	1172.258
1.571	24.130	1414.492	1133.595
2.586	20.803	1352.966	1063.905
3.600	19.220	1269.886	989.398
4.615	17.904	1226.346	948.088
5.629	15.399	1169.646	890.888
6.644	8.885	1087.856	796.257
7.659	3.987	1051.343	745.904
8.673	3.347	1046.084	739.038
9.688	3.234	1042.754	736.077
10.702	3.368	1041.228	735.574
11.717	3.462	1038.812	734.251
12.731	5.190	1040.118	743.344
13.746	11.670	1049.504	781.028
14.761	17.899	1057.857	817.081
15.775	19.579	1058.537	825.571
16.790	19.186	1056.784	822.258
17.804	18.091	1055.130	815.673
18.819	17.161	1053.324	809.777
19.834	16.765	1051.993	806.794
20.848	16.575	1051.414	805.372
21.863	16.582	1050.336	804.512
22.877	16.280	1049.547	802.401
23.892	16.134	1048.848	801.103
24.907	16.009	1048.406	800.100
25.921	16.101	1047.118	799.480
26.936	16.129	1046.380	798.979
27.950	16.033	1045.867	798.061
28.965	16.063	1044.690	797.236
29.980	16.151	1043.241	796.475
30.994	16.374	1042.179	796.647
32.009	16.524	1041.209	796.540
33.023	16.401	1040.869	795.629
34.038	16.355	1039.680	794.433
35.053	16.256	1039.116	793.466
36.067	16.290	1037.793	792.550
37.082	16.169	1036.962	791.274
38.096	16.112	1036.432	790.533
39.111	16.339	1035.363	790.711
40.126	16.402	1034.672	790.407
41.140	16.230	1033.660	788.760
42.155	15.986	1032.085	786.350
43.169	15.907	1031.500	785.469
44.184	15.980	1029.715	784.376
45.199	15.878	1029.096	783.364
46.213	15.707	1028.554	782.088
47.228	15.851	1027.435	781.835
48.242	16.078	1026.035	781.754
49.257	16.084	1025.756	781.501
50.271	16.166	1024.259	780.670
51.286	16.131	1023.507	779.866
52.301	16.285	1022.721	779.909
53.315	16.208	1022.108	779.015
54.330	16.058	1021.410	777.724
55.344	16.059	1020.224	776.756
56.359	15.940	1019.495	775.586
57.374	15.981	1018.608	775.029
58.388	16.002	1017.650	774.331
59.403	15.923	1017.257	773.597
60.417	16.001	1015.769	772.757
61.432	15.932	1015.309	772.020
62.447	15.835	1014.620	770.987
63.461	15.799	1014.102	770.357
64.476	15.769	1012.648	769.048
65.490	15.754	1011.722	768.208
66.505	15.773	1010.912	767.614
67.520	15.838	1010.167	767.277
68.534	15.845	1009.315	766.590
69.549	15.836	1008.728	766.036
70.563	15.902	1007.758	765.534
71.578	15.795	1007.380	764.691
72.593	15.741	1006.098	763.407
73.607	15.518	1005.556	761.915
74.622	15.658	1004.519	761.698
75.636	15.588	1003.751	760.732
76.651	15.685	1003.138	760.638
77.666	15.564	1002.189	759.303
78.680	15.662	1001.708	759.314
79.695	15.716	1001.038	758.982
80.709	15.842	1000.203	758.851
81.724	15.970	999.664	758.952
82.739	15.927	998.897	758.109
83.753	16.093	997.918	758.045
84.768	16.022	997.788	757.559
85.782	16.119	997.047	757.367
86.797	16.351	996.450	757.886
87.812	16.311	995.787	757.138
88.826	16.242	994.777	755.991
89.841	16.235	993.544	754.955
90.855	16.248	992.794	754.380
91.870	16.206	992.278	753.734
92.884	16.270	991.767	753.565
93.899	16.402	990.934	753.451
94.914	16.288	990.288	752.384
95.928	16.455	989.384	752.375
96.943	16.446	988.682	751.735
97.957	16.361	987.533	750.419
98.972	16.326	986.803	749.640
99.987	16.353	986.052	749.127
101.001	16.259	985.908	748.533
102.016	16.314	984.960	747.990
103.030	16.158	983.971	746.481
104.045	16.354	982.891	746.462
105.060	16.359	981.583	745.427
106.074	16.308	980.697	744.462
107.089	16.089	979.538	742.552
108.103	15.910	978.930	741.235
109.118	15.775	977.640	739.599
110.133	15.851	976.963	739.357
111.147	15.971	975.609	738.792
112.162	15.827	975.587	738.079
113.176	15.953	974.615	737.833
114.191	15.982	973.526	737.068
115.206	16.032	972.978	736.807
116.220	15.934	972.302	735.801
117.235	15.941	971.424	735.104
118.249	15.898	970.797	734.377
119.264	15.855	969.627	733.240
120.279	15.830	968.946	732.551
121.293	15.921	968.011	732.173
122.308	15.746	967.467	730.936
123.322	15.658	966.561	729.809
124.337	15.663	965.378	728.870
125.352	15.728	964.318	728.287
126.366	15.676	963.323	727.247
127.381	15.783	961.924	726.586
128.395	15.789	961.170	725.979
129.410	15.781	959.952	724.961
130.424	15.709	959.091	723.938
131.439	15.819	958.309	723.755
132.454	15.882	957.721	723.517
133.468	16.019	957.030	723.520
134.483	16.165	956.277	723.515
135.497	16.107	955.287	722.452
136.512	16.025	954.849	721.706
137.527	15.992	954.162	720.983
138.541	15.964	953.561	720.344
139.556	15.967	952.727	719.661
140.570	15.877	952.220	718.833
141.585	16.083	951.490	719.098
142.600	16.298	950.847	719.461
143.614	16.269	950.161	718.758
144.629	16.307	949.907	718.663
145.643	16.312	948.900	717.857
146.658	16.483	948.153	717.955
147.673	16.251	947.393	716.332
148.687	16.184	945.886	714.844
149.702	16.245	945.008	714.376
150.716	15.911	944.409	712.448
151.731	16.060	943.552	712.368
152.746	15.980	942.717	711.336
153.760	16.017	942.382	711.179
154.775	16.164	941.267	710.893
155.789	16.252	940.966	710.974
156.804	16.313	939.892	710.357
157.819	16.163	939.586	709.429
158.833	16.356	938.561	709.403
159.848	16.351	938.096	708.967
160.862	16.388	937.604	708.691
161.877	16.389	936.681	707.934
162.892	16.216	935.863	706.528
163.906	16.123	934.925	705.369
164.921	16.154	933.466	704.334
165.935	16.192	932.954	704.047
166.950	16.143	932.125	703.154
167.964	16.117	931.351	702.399
168.979	16.223	930.294	701.982
169.994	16.164	929.385	700.986
171.008	16.248	928.269	700.433
172.023	16.216	927.701	699.808
173.037	16.387	927.108	700.009
174.052	16.418	926.323	699.482
175.067	16.402	925.632	698.834
176.081	16.124	924.839	697.021
177.096	16.152	924.102	696.520
178.110	15.997	923.506	695.373
179.125	16.129	922.510	695.104
180.140	16.251	921.788	694.999
181.154	16.140	921.130	693.986
182.169	16.378	920.131	694.150
183.183	16.379	919.767	693.820
184.198	16.577	919.128	694.086
185.213	16.529	918.562	693.400
186.227	16.667	918.068	693.531
187.242	16.545	917.865	692.819
188.256	16.611	917.061	692.419
189.271	16.614	916.550	691.983
190.286	16.777	915.641	691.903
191.300	16.558	914.844	690.347
192.315	16.259	913.803	688.282
193.329	16.144	912.912	687.080
194.344	16.189	912.175	686.649
195.359	16.287	912.195	687.002
196.373	16.353	911.164	686.431
197.388	16.509	911.124	686.976
198.402	16.715	910.471	687.256
199.417	16.739	910.050	686.975
200.432	16.681	910.022	686.658
201.446	16.940	909.311	687.111
202.461	16.970	908.901	686.861
203.475	17.056	908.312	686.704
204.490	17.069	907.490	686.074
205.504	16.888	906.520	684.550
206.519	16.747	905.967	683.502
207.534	16.573	905.510	682.398
208.548	16.653	904.543	681.929
209.563	16.768	903.141	681.276
210.577	16.708	902.984	680.855
211.592	16.786	902.926	681.062
212.607	16.951	902.052	681.008
213.621	17.015	901.636	680.889
214.636	17.021	900.658	680.117
215.650	17.015	899.672	679.285
216.665	16.997	899.356	678.917
217.680	17.101	898.897	678.925
218.694	17.015	898.930	678.546
219.709	17.291	897.678	678.644
220.723	16.997	897.631	677.373
221.738	17.099	896.537	676.894
222.753	16.992	896.252	676.192
223.767	16.970	895.443	675.436
224.782	17.220	894.373	675.562
225.796	17.182	893.742	674.877
226.811	17.289	892.923	674.620
227.826	17.124	892.401	673.514
228.840	17.054	891.984	672.861
229.855	16.981	891.188	671.912
230.869	17.064	890.586	671.729
231.884	17.076	890.071	671.325
232.899	16.919	889.285	670.055
233.913	17.017	888.252	669.602
234.928	16.941	887.671	668.808
235.942	16.826	887.225	667.959
236.957	16.844	886.443	667.383
237.972	16.946	885.462	666.984
238.986	16.887	885.330	666.593
240.001	16.955	884.290	666.019
241.015	17.008	883.545	665.608
242.030	17.149	883.022	665.705
243.045	17.121	882.211	664.927
244.059	17.128	881.801	664.587
245.074	17.197	881.166	664.318
246.088	17.229	880.816	664.121
247.103	17.362	880.146	664.075
248.117	17.219	879.974	663.329
249.132	17.444	879.045	663.450
250.147	17.497	879.066	663.614
251.161	17.580	878.470	663.426
252.176	17.816	877.665	663.680
253.190	17.803	876.653	662.805
254.205	17.801	876.551	662.660
255.220	17.891	875.733	662.333
256.234	17.781	875.307	661.526
257.249	17.729	874.757	660.849
258.263	17.769	874.122	660.464
259.278	17.768	873.864	660.210
260.293	17.662	873.165	659.214
261.307	17.916	872.827	659.880
262.322	17.859	872.254	659.170
263.336	17.962	871.210	658.719
264.351	17.913	870.925	658.256
265.366	18.049	870.137	658.127
266.380	17.963	869.679	657.390
267.395	17.964	869.161	656.944
268.409	17.814	868.241	655.613
269.424	17.745	867.385	654.645
270.439	17.832	866.670	654.382
271.453	17.960	865.491	653.926
272.468	17.861	864.931	653.066
273.482	17.790	864.387	652.324
274.497	17.868	864.091	652.341
275.512	17.855	862.949	651.373
276.526	17.828	862.360	650.767
277.541	17.806	862.084	650.419
278.555	17.828	861.325	649.869
279.570	17.985	860.670	649.914
280.585	18.091	860.277	649.966
281.599	18.068	860.063	649.658
282.614	17.996	859.475	648.883
283.628	17.983	858.640	648.146
284.643	18.003	857.752	647.495
285.657	17.914	857.587	646.976
286.672	17.965	857.062	646.713
287.687	17.963	856.369	646.128
288.701	18.090	855.530	645.917
289.716	18.003	855.343	645.391
290.730	17.927	855.024	644.806
291.745	18.106	853.998	644.649
292.760	17.997	853.517	643.817
293.774	18.199	852.408	643.685
294.789	18.257	852.056	643.581
295.803	18.183	851.977	643.188
296.818	18.209	851.203	642.642
297.833	18.080	850.453	641.535
298.847	18.019	849.913	640.841
299.862	18.118	849.064	640.516
300.876	18.065	848.676	639.967
301.891	18.214	848.153	640.075
302.906	18.356	847.364	639.955
303.920	18.408	847.010	639.823
304.935	18.502	846.423	639.675
305.949	18.518	845.535	639.006
306.964	18.445	844.886	638.188
307.979	18.447	844.486	637.836
308.993	18.281	844.336	637.050
310.008	18.410	843.525	636.859
311.022	18.539	842.800	636.734
312.037	18.561	842.361	636.430
313.052	18.400	841.999	635.500
314.066	18.302	840.886	634.242
315.081	18.154	840.634	633.447
316.095	18.273	839.567	633.027
317.110	18.355	839.033	632.874
318.125	18.227	838.902	632.245
319.139	18.287	838.638	632.210
320.154	18.345	837.742	631.696
321.168	18.500	837.003	631.653
322.183	18.453	836.624	631.137
323.197	18.339	836.362	630.466
324.212	18.452	835.460	630.143
325.227	18.511	834.924	629.902
326.241	18.335	834.777	629.089
327.256	18.440	833.874	628.736
328.270	18.422	833.425	628.277
329.285	18.428	832.813	627.783
330.300	18.467	832.174	627.387
331.314	18.491	831.564	626.958
332.329	18.425	831.059	626.284
333.343	18.590	830.424	626.352
334.358	18.649	830.153	626.307
335.373	18.540	829.584	625.426
336.387	18.530	829.215	625.053
337.402	18.813	828.563	625.538
338.416	18.716	828.108	624.784
339.431	18.955	827.111	624.848
340.446	18.918	826.925	624.518
341.460	18.971	826.565	624.381
342.475	18.913	825.797	623.536
343.489	19.044	825.379	623.641
344.504	18.955	825.348	623.238
345.519	19.144	824.309	623.083
346.533	19.079	823.780	622.394
347.548	19.113	823.554	622.292
348.562	19.039	822.674	621.304
349.577	18.873	822.332	620.392
350.592	18.777	821.609	619.446
351.606	18.705	821.261	618.868
352.621	18.775	820.746	618.678
353.635	18.926	820.112	618.687
354.650	18.842	819.972	618.227
355.665	18.953	819.311	618.072
356.679	18.812	819.114	617.362
357.694	18.941	818.549	617.344
358.708	19.002	817.762	616.916
359.723	19.020	816.992	616.345
360.738	18.999	816.668	615.969
361.752	19.034	815.946	615.495
362.767	19.093	815.770	615.519
363.781	19.277	815.515	615.930
364.796	19.211	815.219	615.417
365.810	19.339	814.946	615.612
366.825	19.445	814.562	615.645
367.840	19.414	814.018	615.072
368.854	19.388	813.565	614.580
369.869	19.255	813.310	613.861
370.883	19.288	812.294	613.157
371.898	19.320	812.112	613.079
372.913	19.541	811.216	613.134
373.927	19.492	810.620	612.456
374.942	19.449	810.047	611.816
375.956	19.333	809.650	611.051
376.971	19.315	809.471	610.795
377.986	19.441	808.817	610.693
379.000	19.596	808.212	610.734
380.015	19.633	807.639	610.377
381.029	19.596	807.319	609.948
382.044	19.512	806.507	608.984
383.059	19.632	805.839	608.852
384.073	19.635	805.525	608.571
385.088	19.686	804.694	608.068
386.102	19.481	804.219	606.935
387.117	19.338	803.473	605.814
388.132	19.397	803.288	605.828
389.146	19.409	803.023	605.617
390.161	19.410	802.513	605.184
391.175	19.381	802.532	605.041
392.190	19.647	802.359	605.790
393.205	19.643	801.589	605.142
394.219	19.592	800.801	604.316
395.234	19.448	799.939	603.107
396.248	19.379	799.929	602.807
397.263	19.477	798.870	602.295
398.278	19.340	798.660	601.606
399.292	19.319	798.030	601.004
400.307	19.339	797.721	600.790
401.321	19.393	797.567	600.807
402.336	19.270	797.233	600.077
403.350	19.478	796.777	600.402
404.365	19.543	796.163	600.112
405.380	19.538	795.917	599.857
406.394	19.768	795.939	600.620
407.409	19.811	795.157	600.126
408.423	19.777	794.642	599.567
409.438	19.978	794.267	599.925
410.453	20.032	793.738	599.660
411.467	20.008	793.426	599.288
412.482	20.016	793.231	599.115
413.496	20.025	792.524	598.561
414.511	20.096	792.384	598.648
415.526	20.121	791.849	598.277
416.540	20.129	791.390	597.906
417.555	19.915	791.295	597.042
418.569	20.200	790.202	597.144
419.584	20.061	789.716	596.245
420.599	20.131	789.500	596.271
421.613	161.871	1371.114	1796.987
422.628	140.192	1455.852	1797.081
