DTS Sentinel unit serial number:	SN413079Multiplexer serial number:	ORYXHardware model number:	OX4-SRSoftware version number:	ORYX F/W v4.00 Oryx Data Collector v3.7.2.0data status	okinstallation	princeton_trtdifferential loss correction	single-endedforward channel	channel 3reverse channel	N/Adate	2019/09/18time	23:48:35forward acquisition time	60.00reverse acquisition time	0.00gamma	496.2192k internal	0.2346k external	0.2346temperature offset calibration	0.9991default loss term (dB/km)	0.3790temperature slope calibration	1.0000multiplexer offset coefficient	1.0000multiplexer slope coefficient	1.0000fibre end	0.00T internal ref (°C)	23.33T ext. ref 1 (°C)	0.77T ext. ref 2 (°C)	16.18length (m)	temperature (°C)	Stokes	anti-Stokes-747.200	476.877	0.015	-0.035
-746.185	47.905	0.152	0.142
-745.171	568.194	0.168	-0.408
-744.156	-123.022	-0.212	-0.034
-743.142	-69.720	-0.261	0.100
-742.127	800.000	-0.120	0.345
-741.112	646.113	-0.136	-0.348
-740.098	-200.000	0.003	0.203
-739.083	-200.000	0.044	0.454
-738.069	96.676	0.088	-0.100
-737.054	205.997	0.196	-0.304
-736.039	-140.764	0.279	-0.029
-735.025	41.876	-0.134	-0.121
-734.010	218.081	0.051	-0.082
-732.996	-108.446	0.046	-0.010
-731.981	-126.138	-0.370	-0.055
-730.966	-101.166	0.361	-0.088
-729.952	-14.442	0.329	-0.211
-728.937	-105.183	-0.354	-0.081
-727.923	-200.000	-0.005	-0.101
-726.908	3.731	-0.101	-0.074
-725.894	-115.299	-0.182	-0.034
-724.879	446.268	-0.135	-0.297
-723.864	-7.081	-0.129	0.088
-722.850	-131.252	-0.239	-0.032
-721.835	-56.944	-0.266	-0.117
-720.821	-200.000	0.004	0.163
-719.806	-13.694	0.380	-0.246
-718.791	-115.909	-0.239	-0.045
-717.777	-139.192	-0.158	-0.017
-716.762	-79.512	-0.149	0.050
-715.748	25.830	-0.243	-0.202
-714.733	102.430	-0.231	-0.270
-713.718	197.154	-0.127	-0.194
-712.704	289.036	-0.115	-0.208
-711.689	-55.746	-0.285	-0.127
-710.675	-36.442	0.290	-0.156
-709.660	-149.425	-0.180	0.014
-708.645	-58.275	-0.066	-0.029
-707.631	737.621	-0.091	-0.245
-706.616	-46.691	-0.126	-0.062
-705.602	354.890	-0.114	0.227
-704.587	800.000	0.073	-0.221
-703.572	72.427	0.107	-0.112
-702.558	175.759	-0.171	-0.248
-701.543	-151.202	-0.057	-0.004
-700.529	-24.040	-0.085	-0.051
-699.514	-44.072	0.182	-0.091
-698.499	111.589	-0.196	-0.236
-697.485	-200.000	-0.025	-0.179
-696.470	-172.663	0.164	-0.005
-695.456	-86.643	-0.198	-0.060
-694.441	158.214	-0.176	-0.243
-693.426	-200.000	-0.017	-0.099
-692.412	800.000	0.098	0.296
-691.397	-179.367	0.208	-0.005
-690.383	17.905	0.088	0.070
-689.368	107.212	-0.051	-0.061
-688.354	-84.528	0.062	0.020
-687.339	-19.606	-0.105	-0.065
-686.324	-139.156	-0.245	0.026
-685.310	-167.304	0.093	0.004
-684.295	180.200	-0.181	-0.265
-683.281	-54.585	-0.145	-0.066
-682.266	243.923	0.125	-0.210
-681.251	-70.020	0.304	0.116
-680.237	800.000	0.071	-0.281
-679.222	-200.000	0.008	0.216
-678.208	659.045	0.112	0.287
-677.193	-133.408	-0.161	0.020
-676.178	11.873	-0.221	-0.170
-675.164	-33.567	0.226	-0.124
-674.149	-118.108	-0.206	0.037
-673.135	800.000	-0.017	-0.068
-672.120	-85.000	0.197	-0.062
-671.105	-200.000	0.057	0.271
-670.091	499.308	-0.147	-0.339
-669.076	-146.329	-0.393	-0.034
-668.062	164.496	-0.151	-0.213
-667.047	-71.072	0.119	0.045
-666.032	72.643	-0.073	-0.076
-665.018	-132.082	-0.069	-0.009
-664.003	800.000	0.017	-0.066
-662.989	113.141	0.076	0.092
-661.974	-63.482	-0.257	-0.105
-660.959	-86.416	0.559	0.171
-659.945	137.649	-0.111	0.145
-658.930	-200.000	0.005	-0.252
-657.916	55.366	0.136	-0.131
-656.901	-83.478	-0.105	0.034
-655.886	31.961	-0.080	-0.069
-654.872	190.965	0.101	-0.151
-653.857	-31.426	-0.084	0.047
-652.843	-200.000	0.005	0.031
-651.828	-151.271	-0.182	0.014
-650.814	214.089	0.112	0.177
-649.799	149.600	-0.120	-0.162
-648.784	-67.256	0.163	-0.064
-647.770	523.596	0.063	-0.148
-646.755	402.093	-0.188	-0.394
-645.741	170.180	0.095	0.136
-644.726	-24.613	-0.157	0.093
-643.711	397.619	-0.049	-0.101
-642.697	-41.917	-0.339	0.173
-641.682	126.817	-0.110	0.139
-640.668	63.333	-0.058	0.058
-639.653	-69.761	-0.361	0.137
-638.638	-200.000	0.004	0.151
-637.624	-1.831	0.239	0.168
-636.609	-150.654	-0.092	-0.007
-635.595	111.283	-0.136	-0.163
-634.580	-33.980	-0.125	-0.069
-633.565	-200.000	-0.006	-0.080
-632.551	800.000	-0.010	-0.031
-631.536	456.594	0.131	0.289
-630.522	152.418	-0.258	-0.351
-629.507	-50.011	0.098	-0.046
-628.492	176.302	0.137	0.199
-627.478	-200.000	-0.070	0.361
-626.463	-162.055	0.220	0.011
-625.449	123.943	-0.050	0.063
-624.434	-200.000	-0.017	-0.178
-623.419	102.287	-0.031	0.036
-622.405	-41.493	-0.392	0.201
-621.390	51.784	-0.157	-0.149
-620.376	-200.000	0.015	-0.304
-619.361	-200.000	-0.030	0.152
-618.346	-9.808	-0.152	0.101
-617.332	-161.757	0.125	-0.006
-616.317	118.056	0.223	0.273
-615.303	-42.446	-0.125	-0.063
-614.288	134.889	0.169	0.219
-613.273	-77.726	-0.295	-0.101
-612.259	-85.345	-0.238	0.074
-611.244	-200.000	-0.022	-0.190
-610.230	197.565	0.225	-0.342
-609.215	563.483	-0.060	-0.144
-608.201	38.502	0.189	0.168
-607.186	-105.028	0.225	-0.051
-606.171	95.782	0.192	0.218
-605.157	243.442	-0.102	-0.170
-604.142	172.716	0.061	0.087
-603.128	-50.194	-0.660	0.310
-602.113	-200.000	-0.010	0.177
-601.098	367.512	0.068	0.136
-600.084	560.267	-0.049	0.117
-599.069	607.345	0.134	-0.333
-598.055	-200.000	0.007	0.389
-597.040	285.148	-0.198	-0.355
-596.025	-200.000	-0.001	-0.077
-595.011	28.165	0.308	0.258
-593.996	39.878	-0.290	-0.259
-592.982	-200.000	0.005	0.449
-591.967	-113.447	-0.172	0.033
-590.952	-42.873	0.069	0.035
-589.938	-36.619	-0.225	0.120
-588.923	585.565	-0.177	-0.434
-587.909	-200.000	-0.030	-0.240
-586.894	800.000	-0.022	-0.061
-585.879	-10.732	0.122	-0.080
-584.865	-65.345	-0.093	-0.037
-583.850	-13.964	0.258	-0.166
-582.836	-200.000	0.037	-0.316
-581.821	312.438	-0.257	-0.480
-580.806	603.487	-0.099	-0.245
-579.792	800.000	0.117	0.391
-578.777	-70.182	0.182	-0.069
-577.763	-200.000	-0.024	0.133
-576.748	-200.000	-0.024	-0.120
-575.733	40.348	-0.134	0.120
-574.719	-101.520	0.168	-0.041
-573.704	356.929	-0.064	-0.127
-572.690	330.599	0.070	-0.134
-571.675	-200.000	-0.001	-0.127
-570.661	-200.000	0.188	0.000
-569.646	-20.247	-0.164	0.100
-568.631	-76.388	0.282	0.099
-567.617	-200.000	-0.003	-0.164
-566.602	538.300	-0.047	0.112
-565.588	-142.501	0.287	0.028
-564.573	192.094	-0.040	0.061
-563.558	289.900	-0.023	0.041
-562.544	-89.819	-0.433	-0.126
-561.529	268.073	-0.171	-0.298
-560.515	-27.032	-0.333	0.193
-559.500	800.000	0.104	0.314
-558.485	-200.000	0.130	0.000
-557.471	-161.272	-0.127	0.007
-556.456	367.099	-0.045	-0.090
-555.442	65.322	-0.300	-0.301
-554.427	-200.000	-0.015	0.078
-553.412	-200.000	-0.008	-0.372
-552.398	224.547	0.067	-0.107
-551.383	255.846	-0.110	-0.188
-550.369	-102.233	-0.071	0.017
-549.354	-1.806	-0.089	-0.062
-548.339	-200.000	0.013	0.150
-547.325	-200.000	-0.024	-0.223
-546.310	800.000	0.043	0.167
-545.296	-186.535	-0.306	0.004
-544.281	98.091	-0.054	-0.062
-543.266	-43.160	0.114	0.057
-542.252	184.576	-0.218	-0.320
-541.237	31.253	0.151	-0.128
-540.223	370.760	-0.065	0.130
-539.208	-200.000	0.006	-0.527
-538.193	800.000	0.101	-0.291
-537.179	-111.843	-0.260	-0.052
-536.164	-200.000	-0.017	0.092
-535.150	800.000	-0.072	0.204
-534.135	-200.000	-0.042	0.185
-533.121	-60.755	-0.002	0.001
-532.106	155.874	0.206	0.282
-531.091	-200.000	-0.020	0.107
-530.077	-8.278	-0.118	0.079
-529.062	-200.000	-0.035	0.226
-528.048	-200.000	-0.012	-0.126
-527.033	278.502	0.039	0.069
-526.018	293.583	0.045	0.082
-525.004	103.281	0.119	0.138
-523.989	375.099	-0.036	0.073
-522.975	56.520	0.276	-0.267
-521.960	-10.847	0.085	-0.055
-520.945	-200.000	0.019	-0.217
-519.931	-19.989	0.127	0.077
-518.916	-200.000	-0.053	0.332
-517.902	-200.000	0.010	-0.400
-516.887	457.210	-0.168	-0.371
-515.872	290.137	-0.039	-0.070
-514.858	8.857	0.499	0.373
-513.843	-74.701	-0.146	0.052
-512.829	-200.000	-0.014	0.066
-511.814	-151.975	-0.346	0.025
-510.799	-56.051	0.045	-0.020
-509.785	800.000	-0.022	0.086
-508.770	-148.790	0.238	-0.019
-507.756	-200.000	0.023	-0.148
-506.741	266.242	-0.056	0.097
-505.726	-168.168	-0.334	0.013
-504.712	-66.035	-0.216	-0.085
-503.697	-8.769	0.018	-0.012
-502.683	-200.000	-0.020	-0.193
-501.668	-125.101	-0.151	0.023
-500.653	-200.000	0.027	-0.197
-499.639	-7.770	0.172	-0.115
-498.624	-33.105	-0.142	-0.078
-497.610	-67.056	0.173	0.068
-496.595	-200.000	0.001	0.154
-495.581	315.397	-0.079	-0.148
-494.566	26.457	0.157	-0.130
-493.551	-200.000	0.006	-0.153
-492.537	800.000	-0.099	-0.321
-491.522	800.000	-0.070	0.253
-490.508	-63.851	0.336	0.136
-489.493	-200.000	0.005	-0.089
-488.478	685.890	-0.056	-0.144
-487.464	800.000	0.048	-0.152
-486.449	-200.000	0.009	0.091
-485.435	216.756	-0.077	0.121
-484.420	-200.000	0.023	0.191
-483.405	167.988	0.118	0.165
-482.391	-200.000	0.067	0.292
-481.376	800.000	-0.054	-0.187
-480.362	455.628	0.110	0.241
-479.347	86.813	-0.189	0.206
-478.332	219.216	0.036	-0.056
-477.318	-101.712	0.205	0.049
-476.303	-200.000	-0.007	0.175
-475.289	290.125	-0.058	0.105
-474.274	-200.000	0.001	-0.274
-473.259	-200.000	0.020	-0.142
-472.245	-53.643	-0.435	0.197
-471.230	174.884	0.075	0.107
-470.216	-60.560	-0.288	0.121
-469.201	-200.000	0.042	-0.273
-468.186	800.000	-0.032	-0.129
-467.172	-200.000	0.009	0.127
-466.157	209.401	0.228	0.353
-465.143	59.785	0.169	0.165
-464.128	-200.000	-0.066	0.376
-463.113	89.750	-0.037	0.040
-462.099	-200.000	-0.030	0.516
-461.084	-77.894	0.090	-0.031
-460.070	800.000	-0.066	-0.243
-459.055	-74.504	0.319	-0.114
-458.040	201.272	-0.127	0.193
-457.026	800.000	-0.012	0.048
-456.011	51.155	0.056	0.052
-454.997	-153.657	-0.110	-0.008
-453.982	-200.000	-0.012	-0.117
-452.968	-132.473	0.235	0.030
-451.953	27.289	0.160	-0.133
-450.938	-200.000	0.022	0.405
-449.924	-178.384	0.252	0.006
-448.909	-200.000	0.025	-0.122
-447.895	-200.000	-0.031	-0.201
-446.880	25.211	0.122	-0.100
-445.865	110.424	0.085	-0.101
-444.851	-41.472	0.292	-0.149
-443.836	-200.000	0.034	-0.189
-442.822	800.000	-0.099	0.352
-441.807	-137.193	0.217	0.024
-440.792	800.000	-0.117	-0.360
-439.778	-25.273	-0.050	0.029
-438.763	68.703	0.362	-0.367
-437.749	-30.440	0.121	-0.068
-436.734	1.891	-0.058	-0.042
-435.719	-6.312	-0.152	0.102
-434.705	21.652	-0.184	0.148
-433.690	122.568	-0.035	-0.044
-432.676	-3.217	-0.302	-0.208
-431.661	40.101	0.177	-0.157
-430.646	334.264	-0.093	0.178
-429.632	28.683	0.191	0.159
-428.617	10.802	0.185	0.140
-427.603	800.000	0.084	0.252
-426.588	-14.847	0.319	-0.202
-425.573	-163.558	-0.394	0.018
-424.559	46.395	0.093	0.085
-423.544	-200.000	-0.010	-0.277
-422.530	-200.000	-0.024	-0.192
-421.515	83.107	0.264	-0.283
-420.500	-11.428	-0.131	-0.085
-419.486	-56.293	0.140	0.061
-418.471	-157.723	-0.244	-0.014
-417.457	108.692	0.183	0.216
-416.442	-23.105	-0.193	-0.115
-415.428	-32.967	-0.048	-0.026
-414.413	79.859	-0.239	0.254
-413.398	-200.000	-0.008	-0.293
-412.384	-200.000	0.036	-0.318
-411.369	-40.137	-0.094	-0.048
-410.355	-144.369	0.263	0.024
-409.340	114.917	0.190	0.229
-408.325	-104.148	0.101	-0.023
-407.311	424.243	0.167	0.355
-406.296	-87.957	0.261	-0.077
-405.282	-68.377	0.131	0.050
-404.267	-87.244	0.189	-0.057
-403.252	-200.000	0.020	-0.275
-402.238	388.731	-0.246	0.502
-401.223	125.391	-0.278	-0.346
-400.209	800.000	-0.029	0.105
-399.194	-168.983	-0.395	0.015
-398.179	139.410	0.179	-0.233
-397.165	-25.109	0.024	0.014
-396.150	280.369	0.104	-0.184
-395.136	-52.228	0.186	-0.085
-394.121	800.000	-0.080	0.309
-393.106	800.000	0.067	-0.186
-392.092	-200.000	-0.078	0.357
-391.077	56.148	-0.192	-0.184
-390.063	-79.764	0.242	0.080
-389.048	-200.000	0.007	0.073
-388.033	33.313	0.081	0.070
-387.019	-120.462	0.293	0.049
-386.004	-118.628	0.146	0.025
-384.990	-91.875	0.175	0.049
-383.975	343.661	-0.183	-0.353
-382.960	362.368	-0.067	-0.132
-381.946	-200.000	0.047	-0.283
-380.931	101.578	-0.110	0.126
-379.917	-200.000	-0.042	0.257
-378.902	-200.000	0.009	0.042
-377.888	-14.688	-0.185	-0.117
-376.873	61.190	-0.103	0.101
-375.858	37.944	-0.102	0.090
-374.844	-11.828	-0.352	-0.227
-373.829	34.676	-0.269	-0.232
-372.815	-22.078	-0.128	-0.077
-371.800	-35.850	0.262	0.140
-370.785	-200.000	0.038	-0.295
-369.771	577.242	0.117	-0.282
-368.756	86.989	-0.085	0.092
-367.742	-175.985	0.195	0.005
-366.727	532.857	0.072	-0.168
-365.712	-200.000	0.050	-0.340
-364.698	216.174	0.180	-0.281
-363.683	-52.224	-0.185	-0.084
-362.669	107.486	0.141	0.166
-361.654	-200.000	-0.055	-0.434
-360.639	-66.843	0.072	-0.028
-359.625	721.827	-0.083	-0.217
-358.610	325.675	-0.030	-0.057
-357.596	64.035	-0.034	-0.034
-356.581	-87.068	-0.204	-0.061
-355.566	220.117	0.115	0.181
-354.552	-200.000	0.020	0.158
-353.537	-200.000	0.009	-0.111
-352.523	-200.000	-0.003	0.014
-351.508	345.201	-0.117	0.227
-350.493	-109.477	0.159	0.033
-349.479	-84.901	0.080	0.025
-348.464	-200.000	-0.032	0.197
-347.450	800.000	0.081	0.339
-346.435	281.016	-0.132	0.233
-345.420	-41.567	-0.330	-0.167
-344.406	526.596	0.078	0.182
-343.391	-100.956	-0.091	-0.022
-342.377	-46.522	-0.289	0.140
-341.362	-196.029	0.116	0.001
-340.348	-61.013	0.100	0.041
-339.333	-140.029	-0.144	-0.015
-338.318	-123.089	0.149	-0.024
-337.304	238.518	0.167	0.273
-336.289	-161.398	0.230	-0.012
-335.275	800.000	-0.094	-0.260
-334.260	-68.242	-0.424	0.162
-333.245	203.322	-0.166	-0.253
-332.231	328.876	0.123	0.233
-331.216	278.545	0.071	0.125
-330.202	-62.578	0.030	-0.012
-329.187	-153.119	-0.085	0.006
-328.172	5.144	0.037	0.027
-327.158	-200.000	0.002	0.066
-326.143	8.942	-0.234	0.174
-325.129	-200.000	-0.115	-0.000
-324.114	67.348	0.033	0.033
-323.099	-38.613	0.113	-0.059
-322.085	-124.857	0.032	-0.005
-321.070	800.000	-0.025	0.097
-320.056	8.391	-0.120	-0.089
-319.041	-151.385	0.113	-0.008
-318.026	-200.000	0.006	-0.193
-317.012	800.000	-0.074	0.232
-315.997	-58.367	-0.325	-0.139
-314.983	25.361	-0.152	-0.124
-313.968	-168.475	-0.285	0.011
-312.953	437.034	-0.067	0.143
-311.939	95.073	-0.210	-0.235
-310.924	-83.205	0.402	-0.127
-309.910	286.713	-0.094	0.167
-308.895	-200.000	-0.010	0.140
-307.880	800.000	0.097	0.405
-306.866	164.339	-0.078	0.108
-305.851	-200.000	-0.017	-0.105
-304.837	-200.000	-0.001	0.006
-303.822	800.000	-0.090	-0.303
-302.807	-80.893	0.291	0.095
-301.793	-151.611	0.192	-0.014
-300.778	-200.000	-0.055	0.299
-299.764	-50.328	-0.180	-0.083
-298.749	-79.501	0.433	0.144
-297.735	-80.786	-0.073	0.024
-296.720	116.681	0.048	0.058
-295.705	347.665	0.185	-0.359
-294.691	800.000	0.050	0.147
-293.676	579.008	-0.059	0.141
-292.662	-200.000	0.181	0.000
-291.647	246.644	-0.151	-0.249
-290.632	37.434	-0.080	0.070
-289.618	673.808	0.068	0.173
-288.603	800.000	0.129	0.370
-287.589	-120.989	0.173	-0.028
-286.574	-200.000	-0.059	-0.261
-285.559	-64.088	-0.061	-0.024
-284.545	-43.531	0.108	-0.054
-283.530	800.000	0.034	-0.139
-282.516	800.000	-0.059	-0.238
-281.501	-200.000	0.027	-0.268
-280.486	-63.173	0.247	0.100
-279.472	486.802	0.120	0.269
-278.457	-200.000	-0.061	0.271
-277.443	246.042	-0.088	-0.146
-276.428	538.799	0.122	0.284
-275.413	800.000	0.134	0.446
-274.399	489.436	0.084	0.189
-273.384	20.173	0.120	0.095
-272.370	-132.573	-0.251	0.032
-271.355	-82.978	-0.221	-0.070
-270.340	800.000	-0.146	-0.469
-269.326	155.976	0.124	0.168
-268.311	800.000	-0.104	0.313
-267.297	126.999	-0.094	-0.117
-266.282	800.000	0.102	-0.318
-265.267	-108.834	0.177	-0.037
-264.253	-78.107	-0.163	0.055
-263.238	334.572	-0.139	0.264
-262.224	-46.946	0.060	0.029
-261.209	-141.422	-0.538	0.053
-260.195	-200.000	0.012	0.119
-259.180	2.791	0.185	0.131
-258.165	169.128	-0.093	0.130
-257.151	399.294	-0.112	0.230
-256.136	-110.241	0.146	-0.030
-255.122	105.563	0.295	0.342
-254.107	-38.160	0.201	-0.104
-253.092	-138.751	0.078	0.008
-252.078	-0.530	-0.161	-0.112
-251.063	800.000	-0.037	0.134
-250.049	-130.911	0.052	-0.007
-249.034	-200.000	0.032	-0.278
-248.019	800.000	0.113	0.333
-247.005	-200.000	-0.012	-0.052
-245.990	-21.045	0.215	0.129
-244.976	27.016	0.261	0.215
-243.961	-200.000	-0.057	-0.256
-242.946	-92.236	-0.090	-0.025
-241.932	-79.894	-0.126	0.041
-240.917	22.932	-0.145	-0.117
-239.903	-100.442	0.262	0.064
-238.888	667.393	0.181	0.458
-237.873	10.222	0.139	0.104
-236.859	28.514	-0.169	0.140
-235.844	509.647	-0.118	-0.270
-234.830	-200.000	0.037	-0.212
-233.815	-200.000	-0.033	0.249
-232.800	-16.070	0.285	0.178
-231.786	-87.711	-0.058	0.017
-230.771	-5.128	-0.098	-0.066
-229.757	-148.538	-0.375	0.030
-228.742	64.611	0.284	-0.280
-227.727	-133.571	0.379	-0.047
-226.713	405.758	-0.036	-0.075
-225.698	6.757	0.256	0.186
-224.684	-158.832	-0.074	-0.004
-223.669	-71.467	0.388	-0.142
-222.655	127.495	-0.225	-0.280
-221.640	-152.194	-0.221	-0.016
-220.625	-42.765	0.265	-0.132
-219.611	98.503	-0.132	0.149
-218.596	406.274	-0.069	-0.142
-217.582	800.000	-0.061	-0.228
-216.567	-93.346	0.241	-0.065
-215.552	483.187	0.059	-0.131
-214.538	-200.000	-0.035	0.300
-213.523	800.000	0.075	0.226
-212.509	-45.500	0.255	-0.124
-211.494	-13.075	-0.388	-0.247
-210.479	-68.187	-0.145	0.055
-209.465	-2.999	0.053	-0.036
-208.450	800.000	-0.084	-0.256
-207.436	325.781	-0.090	-0.169
-206.421	-113.955	0.263	0.050
-205.406	281.266	0.019	0.034
-204.392	296.431	-0.133	0.239
-203.377	-82.477	-0.166	-0.053
-202.363	-45.101	0.259	-0.126
-201.348	63.260	0.079	0.077
-200.333	-200.000	0.035	-0.156
-199.319	-41.700	0.181	0.091
-198.304	736.052	0.082	0.216
-197.290	221.409	-0.075	0.119
-196.275	407.588	0.100	0.207
-195.260	-28.732	-0.130	-0.073
-194.246	-133.773	0.421	-0.051
-193.231	34.243	0.210	-0.179
-192.217	288.582	0.129	-0.229
-191.202	-69.160	-0.140	-0.053
-190.187	-169.712	0.190	0.007
-189.173	-129.476	0.106	-0.014
-188.158	398.720	-0.167	-0.341
-187.144	-200.000	-0.001	-0.082
-186.129	141.884	-0.134	-0.173
-185.114	665.168	-0.145	0.366
-184.100	37.041	-0.153	0.133
-183.085	800.000	-0.023	0.072
-182.071	-134.301	0.413	0.050
-181.056	109.322	-0.205	-0.240
-180.042	800.000	0.011	0.031
-179.027	800.000	-0.052	0.183
-178.012	-157.372	-0.292	0.017
-176.998	-200.000	0.107	0.000
-175.983	-154.744	-0.263	-0.017
-174.969	-200.000	-0.003	-0.062
-173.954	120.325	0.149	-0.181
-172.939	-142.584	0.100	0.010
-171.925	-193.593	-0.192	-0.002
-170.910	-200.000	0.026	0.208
-169.896	800.000	-0.101	0.420
-168.881	-200.000	0.028	0.198
-167.866	98.779	0.191	0.215
-166.852	84.327	0.052	0.055
-165.837	247.202	0.240	-0.396
-164.823	322.791	-0.176	-0.329
-163.808	142.569	-0.129	0.168
-162.793	-7.103	0.192	-0.127
-161.779	239.705	-0.057	-0.092
-160.764	493.820	-0.044	0.099
-159.750	-27.651	-0.105	-0.059
-158.735	108.265	-0.128	0.149
-157.720	-200.000	0.015	-0.229
-156.706	800.000	-0.070	0.223
-155.691	92.058	0.198	0.218
-154.677	-107.510	0.248	-0.053
-153.662	27.808	0.229	0.188
-152.647	-33.116	-0.236	-0.128
-151.633	-200.000	0.065	0.331
-150.618	30.137	0.281	-0.234
-149.604	35.405	0.300	-0.257
-148.589	-65.823	-0.149	-0.058
-147.574	402.409	0.120	-0.246
-146.560	-70.408	-0.295	0.109
-145.545	452.377	-0.077	-0.165
-144.531	111.361	-0.099	-0.116
-143.516	-82.527	-0.184	0.058
-142.502	-200.000	-0.051	0.329
-141.487	581.295	0.116	-0.278
-140.472	43.035	0.190	-0.169
-139.458	188.004	0.188	0.274
-138.443	118.619	0.073	0.088
-137.429	106.036	-0.124	-0.143
-136.414	174.999	-0.094	0.132
-135.399	800.000	0.047	0.148
-134.385	-96.598	-0.048	-0.012
-133.370	-92.380	0.257	0.071
-132.356	425.601	-0.089	0.188
-131.341	35.495	-0.038	-0.033
-130.326	95.914	-0.076	-0.085
-129.312	-200.000	0.008	-0.255
-128.297	379.181	0.028	0.056
-127.283	-200.000	0.057	0.268
-126.268	-27.985	0.401	0.227
-125.253	28.496	0.194	-0.161
-124.239	-102.338	-0.361	-0.085
-123.224	-70.676	0.105	-0.039
-122.210	-200.000	-0.037	0.192
-121.195	-31.738	-0.137	0.075
-120.180	-179.638	-0.290	0.006
-119.166	-58.431	-0.325	0.138
-118.151	118.197	0.029	-0.035
-117.137	-200.000	-0.035	0.204
-116.122	-200.000	0.016	-0.264
-115.107	-200.000	0.017	0.153
-114.093	48.871	0.220	0.201
-113.078	-200.000	-0.033	0.319
-112.064	424.797	-0.166	-0.348
-111.049	-24.470	-0.147	0.085
-110.034	-23.874	0.188	-0.110
-109.020	370.350	-0.054	-0.108
-108.005	1.295	-0.108	-0.076
-106.991	-71.100	-0.196	-0.072
-105.976	800.000	-0.008	-0.023
-104.962	-56.842	0.441	0.190
-103.947	18.934	0.287	0.224
-102.932	800.000	-0.033	0.125
-101.918	-64.855	0.233	0.092
-100.903	114.266	0.094	0.112
-99.889	-76.874	0.336	0.115
-98.874	-76.842	0.097	-0.033
-97.859	69.081	-0.180	0.180
-96.845	32.907	-0.071	0.060
-95.830	-126.700	-0.144	-0.021
-94.816	-18.198	-0.078	-0.047
-93.801	-67.961	0.174	0.066
-92.786	134.130	0.157	-0.199
-91.772	91.830	0.115	0.126
-90.757	-168.806	0.108	-0.004
-89.743	-86.103	-0.152	0.046
-88.728	366.446	0.107	0.210
-87.713	-23.749	-0.320	-0.187
-86.699	-200.000	0.028	0.264
-85.684	98.537	-0.163	0.183
-84.670	-91.888	-0.181	-0.050
-83.655	300.220	-0.096	0.172
-82.640	-78.958	-0.093	0.031
-81.626	-125.054	0.092	0.014
-80.611	322.959	-0.143	0.265
-79.597	365.051	0.176	0.346
-78.582	187.174	0.124	0.180
-77.567	257.443	0.018	-0.031
-76.553	-200.000	-0.265	-0.001
-75.538	-109.257	0.370	0.077
-74.524	-144.051	-0.330	0.030
-73.509	-67.205	0.285	0.109
-72.494	-87.487	0.216	-0.064
-71.480	19.151	-0.038	0.030
-70.465	-79.104	-0.302	0.100
-69.451	702.705	-0.008	0.021
-68.436	-200.000	-0.001	-0.137
-67.422	91.082	-0.154	-0.168
-66.407	-5.388	-0.328	0.219
-65.392	-102.326	-0.179	0.042
-64.378	-152.855	0.371	0.026
-63.363	10.500	-0.232	-0.172
-62.349	305.109	0.101	0.182
-61.334	78.929	-0.939	-0.978
-60.319	99.510	0.773	0.871
-59.305	582.552	-0.580	-1.386
-58.290	653.402	0.597	1.490
-57.276	800.000	0.324	1.341
-56.261	-200.000	127.671	691.798
-55.246	425.265	1597.150	3347.594
-54.232	140.942	2749.430	3537.914
-53.217	96.881	2175.515	2427.055
-52.203	33.963	1692.326	1434.400
-51.188	26.435	1509.959	1228.853
-50.173	24.469	1486.018	1196.165
-49.159	49.881	1558.494	1430.264
-48.144	46.343	1570.597	1417.005
-47.130	26.502	1519.444	1236.833
-46.115	23.565	1503.209	1203.679
-45.100	23.371	1499.683	1199.496
-44.086	23.351	1497.790	1197.798
-43.071	23.317	1495.689	1195.843
-42.057	23.267	1494.496	1194.503
-41.042	23.296	1492.876	1193.355
-40.027	23.289	1491.165	1191.891
-39.013	23.271	1489.824	1190.652
-37.998	23.276	1489.173	1190.119
-36.984	23.329	1487.454	1189.055
-35.969	23.259	1486.290	1187.603
-34.954	23.326	1484.334	1186.444
-33.940	23.262	1483.745	1185.502
-32.925	23.141	1482.242	1183.439
-31.911	23.331	1480.964	1183.645
-30.896	23.317	1479.731	1182.518
-29.881	23.400	1478.622	1182.141
-28.867	23.460	1476.321	1180.653
-27.852	23.317	1475.577	1179.056
-26.838	23.318	1474.347	1178.035
-25.823	23.419	1472.492	1177.177
-24.809	23.413	1470.897	1175.817
-23.794	23.409	1469.529	1174.647
-22.779	23.355	1468.459	1173.392
-21.765	23.336	1467.291	1172.284
-20.750	23.374	1465.949	1171.413
-19.736	23.415	1465.057	1170.928
-18.721	23.305	1463.884	1169.218
-17.706	23.293	1463.217	1168.557
-16.692	23.322	1462.080	1167.795
-15.677	23.340	1461.207	1167.168
-14.663	23.406	1460.227	1166.774
-13.648	23.357	1459.357	1165.709
-12.633	23.317	1458.671	1164.852
-11.619	23.348	1457.872	1164.373
-10.604	23.271	1456.945	1163.079
-9.590	23.232	1456.301	1162.266
-8.575	23.355	1454.784	1161.814
-7.560	23.353	1453.927	1161.070
-6.546	23.470	1452.502	1160.654
-5.531	23.284	1452.573	1159.449
-4.517	23.434	1450.793	1158.958
-3.502	23.273	1450.477	1157.609
-2.487	23.364	1449.287	1157.211
-1.473	23.279	1448.343	1155.856
-0.458	23.367	1446.878	1155.214
0.556	22.286	1436.829	1142.953
1.571	18.740	1412.484	1100.794
2.586	14.992	1350.271	1029.204
3.600	13.318	1267.602	956.433
4.615	12.202	1224.429	917.539
5.629	10.885	1168.485	868.510
6.644	5.750	1089.467	784.072
7.659	1.369	1054.146	737.350
8.673	0.806	1049.409	731.252
9.688	0.774	1045.904	728.589
10.702	0.713	1044.420	727.200
11.717	0.796	1041.837	725.735
12.731	2.417	1043.169	734.382
13.746	8.373	1050.654	768.305
14.761	14.658	1058.751	804.533
15.775	17.239	1061.568	819.059
16.790	17.033	1060.641	817.279
17.804	16.021	1058.791	810.913
18.819	15.195	1056.361	805.017
19.834	14.780	1055.430	802.243
20.848	14.457	1054.548	799.953
21.863	14.413	1053.210	798.656
22.877	13.963	1052.699	796.043
23.892	13.700	1051.974	794.163
24.907	13.740	1050.909	793.481
25.921	13.649	1050.475	792.646
26.936	13.845	1049.422	792.717
27.950	13.811	1048.893	792.084
28.965	13.783	1048.264	791.409
29.980	13.890	1046.819	790.756
30.994	13.986	1045.972	790.502
32.009	13.954	1045.415	789.861
33.023	13.934	1045.163	789.507
34.038	14.021	1043.790	788.813
35.053	13.919	1043.134	787.761
36.067	13.887	1042.237	786.862
37.082	13.846	1041.499	786.042
38.096	13.890	1040.199	785.198
39.111	13.834	1040.076	784.772
40.126	14.006	1038.822	784.571
41.140	13.884	1038.100	783.380
42.155	13.796	1036.937	782.017
43.169	13.783	1036.316	781.417
44.184	13.821	1034.652	780.273
45.199	13.818	1033.723	779.490
46.213	13.737	1033.530	778.892
47.228	13.902	1031.896	778.368
48.242	13.863	1030.888	777.353
49.257	13.852	1030.423	776.882
50.271	13.803	1029.293	775.733
51.286	13.818	1028.365	775.037
52.301	13.865	1027.915	774.849
53.315	13.908	1026.740	774.096
54.330	13.950	1025.572	773.342
55.344	13.983	1024.314	772.478
56.359	13.902	1023.619	771.509
57.374	13.839	1023.219	770.844
58.388	13.868	1022.535	770.396
59.403	13.806	1021.626	769.355
60.417	13.701	1021.057	768.373
61.432	13.843	1020.303	768.393
62.447	13.720	1019.499	767.155
63.461	13.737	1018.561	766.460
64.476	13.821	1017.358	765.872
65.490	13.699	1016.812	764.831
66.505	13.849	1015.769	764.670
67.520	13.822	1015.143	764.008
68.534	13.724	1014.724	763.173
69.549	13.753	1013.731	762.490
70.563	13.890	1012.998	762.503
71.578	13.954	1012.143	762.087
72.593	13.762	1011.425	760.596
73.607	13.733	1010.386	759.618
74.622	13.711	1009.638	758.885
75.636	13.764	1008.767	758.405
76.651	13.745	1008.073	757.731
77.666	13.746	1007.729	757.411
78.680	13.776	1006.592	756.623
79.695	13.724	1006.376	756.157
80.709	13.794	1005.529	755.774
81.724	13.748	1004.203	754.499
82.739	13.966	1003.841	755.155
83.753	13.859	1003.358	754.238
84.768	13.853	1002.559	753.542
85.782	13.869	1001.480	752.736
86.797	13.964	1000.738	752.541
87.812	13.899	999.813	751.488
88.826	13.941	999.198	751.149
89.841	13.994	998.217	750.581
90.855	13.923	997.613	749.741
91.870	13.915	996.826	749.049
92.884	13.915	996.490	748.729
93.899	14.113	995.213	748.597
94.914	14.095	994.575	747.969
95.928	14.057	994.050	747.335
96.943	14.015	993.456	746.634
97.957	14.008	992.413	745.753
98.972	14.070	991.514	745.289
99.987	13.993	991.013	744.502
101.001	13.989	990.530	744.056
102.016	13.973	989.510	743.151
103.030	13.868	988.790	742.075
104.045	14.044	987.367	741.729
105.060	14.054	986.427	741.002
106.074	14.048	985.712	740.372
107.089	13.964	985.016	739.408
108.103	13.739	984.904	738.258
109.118	13.956	983.249	737.916
110.133	13.824	982.499	736.702
111.147	13.889	981.469	736.154
112.162	13.946	980.796	735.835
113.176	13.853	979.725	734.559
114.191	13.819	979.495	734.168
115.206	13.994	978.026	733.777
116.220	13.879	977.536	732.837
117.235	13.904	976.802	732.331
118.249	13.780	976.247	731.302
119.264	13.982	974.899	731.117
120.279	13.875	974.460	730.251
121.293	13.946	973.349	729.669
122.308	13.928	972.747	729.073
123.322	13.894	971.995	728.293
124.337	13.899	970.713	727.294
125.352	13.788	969.632	725.934
126.366	13.903	968.410	725.457
127.381	13.823	967.430	724.307
128.395	13.805	966.296	723.318
129.410	13.810	965.536	722.707
130.424	13.941	964.529	722.459
131.439	13.835	964.042	721.567
132.454	13.854	963.238	720.987
133.468	13.930	962.773	720.905
134.483	13.893	961.794	719.946
135.497	13.895	961.047	719.330
136.512	13.925	960.354	718.879
137.527	13.946	959.464	718.241
138.541	13.810	959.158	717.361
139.556	13.946	958.159	717.136
140.570	13.881	957.684	716.438
141.585	14.004	956.647	716.127
142.600	14.105	955.838	715.893
143.614	14.001	955.248	714.940
144.629	14.069	954.605	714.691
145.643	14.078	953.609	713.920
146.658	14.084	952.938	713.378
147.673	14.037	951.914	712.351
148.687	14.155	951.214	712.266
149.702	13.970	950.153	710.617
150.716	14.092	949.362	710.484
151.731	14.057	948.757	709.820
152.746	14.021	948.309	709.268
153.760	13.999	947.615	708.591
154.775	14.122	946.335	708.094
155.789	14.126	945.837	707.679
156.804	14.069	945.442	707.076
157.819	14.276	944.036	706.843
158.833	14.121	943.466	705.697
159.848	14.239	942.595	705.480
160.862	14.247	942.529	705.403
161.877	14.212	941.495	704.419
162.892	14.157	940.856	703.645
163.906	14.177	939.677	702.787
164.921	14.188	939.017	702.279
165.935	14.231	937.798	701.487
166.950	14.212	936.924	700.688
167.964	14.131	936.141	699.701
168.979	14.214	935.209	699.291
169.994	14.239	934.213	698.588
171.008	14.287	933.070	697.875
172.023	14.267	932.731	697.477
173.037	14.179	932.392	696.792
174.052	14.293	931.668	696.666
175.067	14.346	930.662	696.072
176.081	14.278	930.015	695.246
177.096	14.157	929.412	694.227
178.110	14.351	928.233	694.091
179.125	14.267	927.614	693.217
180.140	14.374	926.751	692.957
181.154	14.255	926.380	692.124
182.169	14.369	925.439	691.834
183.183	14.321	925.159	691.365
184.198	14.370	924.116	690.727
185.213	14.409	923.517	690.381
186.227	14.427	923.183	690.143
187.242	14.453	922.433	689.629
188.256	14.579	921.496	689.389
189.271	14.552	920.839	688.725
190.286	14.501	920.049	687.861
191.300	14.352	919.187	686.543
192.315	14.376	918.408	685.999
193.329	14.329	918.458	685.781
194.344	14.319	917.372	684.870
195.359	14.449	916.798	684.915
196.373	14.569	916.001	684.750
197.388	14.608	915.400	684.401
198.402	14.571	914.858	683.785
199.417	14.620	914.836	683.907
200.432	14.664	914.212	683.562
201.446	14.574	914.188	683.114
202.461	14.655	913.599	682.944
203.475	14.862	912.732	683.082
204.490	14.839	911.998	682.379
205.504	14.709	911.342	681.297
206.519	14.788	910.417	680.866
207.534	14.643	910.002	679.903
208.548	14.836	908.998	679.881
209.563	14.750	908.295	678.943
210.577	14.870	907.698	678.924
211.592	14.748	906.847	677.733
212.607	14.671	906.578	677.159
213.621	14.783	906.025	677.142
214.636	14.923	904.648	676.620
215.650	14.765	904.548	675.845
216.665	14.818	903.565	675.264
217.680	14.870	903.212	675.152
218.694	15.012	902.622	675.223
219.709	15.059	902.105	674.969
220.723	15.022	901.293	674.150
221.738	14.886	900.777	673.159
222.753	14.903	900.416	672.896
223.767	14.931	899.454	672.231
224.782	14.888	898.875	671.565
225.796	14.948	898.291	671.311
226.811	14.999	897.486	670.855
227.826	15.050	896.541	670.294
228.840	14.966	896.469	669.844
229.855	14.939	895.571	669.004
230.869	15.102	894.516	668.810
231.884	15.067	894.158	668.341
232.899	15.047	893.475	667.693
233.913	15.114	892.798	667.394
234.928	15.020	891.794	666.213
235.942	14.983	891.483	665.771
236.957	15.085	890.546	665.420
237.972	15.096	889.998	664.994
238.986	14.997	889.375	664.076
240.001	15.041	888.899	663.839
241.015	15.157	887.971	663.547
242.030	15.125	887.545	663.044
243.045	15.273	886.471	662.765
244.059	15.065	886.304	661.758
245.074	15.196	885.782	661.829
246.088	15.237	884.940	661.304
247.103	15.267	884.099	660.735
248.117	15.330	883.491	660.469
249.132	15.451	883.059	660.567
250.147	15.470	882.621	660.256
251.161	15.483	881.989	659.772
252.176	15.601	880.955	659.403
253.190	15.462	880.353	658.351
254.205	15.514	879.869	658.135
255.220	15.498	879.151	657.478
256.234	15.627	878.509	657.443
257.249	15.554	877.999	656.719
258.263	15.690	877.134	656.544
259.278	15.592	876.449	655.589
260.293	15.608	876.291	655.478
261.307	15.779	875.308	655.349
262.322	15.725	875.199	655.002
263.336	15.728	874.433	654.382
264.351	15.732	873.815	653.875
265.366	15.693	872.867	652.958
266.380	15.699	872.871	652.925
267.395	15.839	871.846	652.643
268.409	15.713	871.122	651.554
269.424	15.842	870.289	651.374
270.439	15.861	869.781	651.010
271.453	15.823	869.008	650.228
272.468	15.705	868.335	649.211
273.482	15.758	867.879	649.015
274.497	15.783	867.183	648.535
275.512	15.906	866.921	648.756
276.526	15.816	865.501	647.289
277.541	15.740	864.950	646.529
278.555	15.916	864.694	646.955
279.570	15.919	864.039	646.422
280.585	15.911	863.605	646.005
281.599	16.003	863.216	646.014
282.614	15.933	862.969	645.500
283.628	15.957	861.659	644.555
284.643	16.136	861.324	644.933
285.657	16.116	860.486	644.171
286.672	15.953	860.314	643.366
287.687	16.096	859.794	643.462
288.701	16.148	858.736	642.812
289.716	16.220	858.400	642.781
290.730	16.051	858.053	641.820
291.745	16.184	857.411	641.788
292.760	16.168	856.459	640.958
293.774	16.274	855.769	640.786
294.789	16.222	855.307	640.189
295.803	16.214	854.880	639.781
296.818	16.175	854.338	639.171
297.833	16.279	853.250	638.695
298.847	16.315	852.597	638.285
299.862	16.167	852.094	637.293
300.876	16.211	851.590	637.027
301.891	16.363	850.384	636.640
302.906	16.352	850.218	636.416
303.920	16.381	849.344	635.815
304.935	16.376	848.979	635.466
305.949	16.431	847.970	634.861
306.964	16.531	847.266	634.657
307.979	16.293	847.182	633.642
308.993	16.257	846.851	633.205
310.008	16.538	846.070	633.619
311.022	16.518	845.611	633.144
312.037	16.609	844.929	632.918
313.052	16.553	844.468	632.304
314.066	16.440	843.901	631.402
315.081	16.487	843.282	631.060
316.095	16.560	842.407	630.623
317.110	16.426	842.644	630.243
318.125	16.443	841.826	629.639
319.139	16.410	841.304	629.069
320.154	16.612	840.585	629.229
321.168	16.681	839.742	628.797
322.183	16.627	839.404	628.288
323.197	16.634	839.032	627.980
324.212	16.673	838.209	627.454
325.227	16.622	838.183	627.189
326.241	16.567	837.764	626.614
327.256	16.603	837.035	626.150
328.270	16.622	836.186	625.529
329.285	16.622	835.760	625.155
330.300	16.667	834.926	624.640
331.314	16.734	834.583	624.578
332.329	16.704	834.072	624.026
333.343	16.658	833.154	623.119
334.358	16.685	832.794	622.893
335.373	16.671	832.424	622.510
336.387	16.759	831.715	622.248
337.402	16.782	831.365	622.014
338.416	16.758	830.913	621.532
339.431	16.919	830.146	621.495
340.446	16.869	829.704	620.926
341.460	16.927	829.052	620.596
342.475	16.908	828.406	619.987
343.489	17.048	827.739	619.945
344.504	16.962	827.558	619.439
345.519	16.995	826.923	619.030
346.533	17.069	826.381	618.839
347.548	17.053	825.418	618.005
348.562	17.096	825.586	618.231
349.577	16.976	825.282	617.514
350.592	16.880	824.767	616.724
351.606	16.977	823.686	616.212
352.621	16.924	823.578	615.888
353.635	17.054	822.630	615.593
354.650	16.994	822.668	615.351
355.665	17.195	821.909	615.455
356.679	17.055	821.477	614.571
357.694	17.061	821.105	614.259
358.708	17.147	820.589	614.130
359.723	17.228	819.608	613.635
360.738	17.111	819.344	612.959
361.752	17.075	819.114	612.606
362.767	17.081	818.696	612.259
363.781	17.260	818.243	612.512
364.796	17.256	817.742	612.067
365.810	17.290	817.306	611.811
366.825	17.306	817.164	611.708
367.840	17.303	816.328	611.015
368.854	17.379	816.144	611.098
369.869	17.368	815.634	610.621
370.883	17.383	814.921	610.087
371.898	17.234	814.958	609.527
372.913	17.389	813.820	609.177
373.927	17.404	813.355	608.828
374.942	17.458	812.768	608.528
375.956	17.297	812.221	607.491
376.971	17.510	811.606	607.739
377.986	17.561	810.516	607.049
379.000	17.560	810.576	607.037
380.015	17.770	810.204	607.452
381.029	17.752	809.143	606.538
382.044	17.776	808.631	606.187
383.059	17.588	808.056	605.036
384.073	17.616	807.988	605.031
385.088	17.650	807.195	604.501
386.102	17.702	806.712	604.270
387.117	17.553	806.295	603.379
388.132	17.503	805.950	602.890
389.146	17.635	805.862	603.236
390.161	17.553	805.200	602.397
391.175	17.724	804.667	602.551
392.190	17.677	804.148	601.943
393.205	17.797	803.990	602.196
394.219	17.726	803.438	601.478
395.234	17.850	802.610	601.242
396.248	17.820	802.232	600.798
397.263	17.684	801.867	599.994
398.278	17.757	801.418	599.863
399.292	17.757	800.799	599.347
400.307	17.750	800.757	599.236
401.321	17.859	800.079	599.059
402.336	17.753	799.953	598.538
403.350	17.799	799.258	598.128
404.365	17.892	799.176	598.342
405.380	17.890	798.327	597.642
406.394	17.994	797.909	597.642
407.409	17.915	796.972	596.610
408.423	18.019	797.067	596.995
409.438	17.972	796.611	596.434
410.453	17.992	796.187	596.135
411.467	17.979	796.153	596.010
412.482	18.172	795.435	596.094
413.496	18.095	794.828	595.316
414.511	18.154	794.634	595.324
415.526	18.158	794.092	594.878
416.540	18.227	793.731	594.797
417.555	18.158	793.488	594.321
418.569	18.129	793.034	593.828
419.584	18.255	792.148	593.548
420.599	18.179	791.792	592.968
421.613	115.933	1297.444	1490.466
422.628	99.830	1371.101	1490.565
