DTS Sentinel unit serial number:	SN413079Multiplexer serial number:	ORYXHardware model number:	OX4-SRSoftware version number:	ORYX F/W v4.00 Oryx Data Collector v3.7.2.0data status	okinstallation	princeton_trtdifferential loss correction	single-endedforward channel	channel 3reverse channel	N/Adate	2019/09/17time	14:28:35forward acquisition time	60.00reverse acquisition time	0.00gamma	496.2192k internal	0.2298k external	0.2298temperature offset calibration	0.9956default loss term (dB/km)	0.3790temperature slope calibration	1.0000multiplexer offset coefficient	1.0000multiplexer slope coefficient	1.0000fibre end	0.00T internal ref (°C)	36.41T ext. ref 1 (°C)	0.40T ext. ref 2 (°C)	33.46length (m)	temperature (°C)	Stokes	anti-Stokes-747.200	800.000	-0.046	-0.171
-746.185	-52.575	0.195	0.092
-745.171	182.667	-0.080	-0.121
-744.156	317.944	-0.091	-0.176
-743.142	545.503	-0.062	0.151
-742.127	-17.428	-0.284	0.183
-741.112	800.000	0.068	0.239
-740.098	-200.000	-0.033	0.274
-739.083	-110.926	-0.241	-0.051
-738.069	-168.104	-0.112	0.004
-737.054	98.101	-0.044	-0.052
-736.039	41.229	0.226	0.209
-735.025	107.247	0.210	0.255
-734.010	25.302	0.100	-0.085
-732.996	-24.013	0.199	-0.122
-731.981	-55.718	-0.199	0.091
-730.966	357.696	0.024	-0.049
-729.952	-132.204	-0.170	-0.022
-728.937	-19.502	0.198	0.125
-727.923	-123.836	-0.127	0.020
-726.908	-32.856	-0.180	0.102
-725.894	51.703	-0.075	0.073
-724.879	-200.000	0.000	-0.098
-723.864	-184.590	0.217	-0.004
-722.850	51.475	-0.198	0.192
-721.835	64.441	0.154	0.158
-720.821	19.318	0.115	-0.095
-719.806	632.603	0.056	-0.146
-718.791	690.692	-0.081	-0.217
-717.777	2.443	0.283	-0.209
-716.762	-200.000	0.034	-0.516
-715.748	-200.000	-0.012	-0.326
-714.733	-102.451	0.094	-0.023
-713.718	269.352	0.026	0.046
-712.704	-123.302	-0.333	-0.054
-711.689	-200.000	-0.054	-0.269
-710.675	-105.786	-0.300	0.069
-709.660	184.742	-0.069	-0.104
-708.645	-123.294	-0.130	-0.021
-707.631	199.693	-0.183	0.287
-706.616	78.428	-0.124	-0.135
-705.602	410.439	0.116	-0.250
-704.587	9.863	0.180	0.139
-703.572	645.424	-0.026	0.067
-702.558	-99.354	-0.111	-0.029
-701.543	788.922	-0.029	0.080
-700.529	800.000	0.033	-0.140
-699.514	-71.085	-0.577	-0.221
-698.499	800.000	-0.098	0.357
-697.485	-49.254	-0.308	0.150
-696.470	53.985	0.196	0.192
-695.456	800.000	0.079	0.304
-694.441	21.219	0.215	-0.178
-693.426	800.000	0.049	0.142
-692.412	758.200	0.044	0.122
-691.397	195.380	-0.062	0.096
-690.383	-99.222	-0.060	-0.015
-689.368	-200.000	0.002	-0.028
-688.354	37.932	0.110	0.100
-687.339	-200.000	0.022	-0.277
-686.324	800.000	-0.049	-0.164
-685.310	-55.202	-0.409	-0.187
-684.295	-200.000	0.044	0.367
-683.281	113.234	0.117	-0.145
-682.266	-97.207	0.103	-0.027
-681.251	-200.000	-0.004	0.053
-680.237	-200.000	-0.054	0.243
-679.222	203.307	0.077	0.121
-678.208	11.633	0.207	-0.162
-677.193	23.520	0.220	-0.184
-676.178	134.962	0.022	-0.029
-675.164	106.198	-0.124	0.149
-674.149	137.905	-0.123	-0.164
-673.135	42.440	0.064	-0.059
-672.120	25.605	-0.282	0.239
-671.105	37.682	-0.117	0.106
-670.091	435.092	-0.087	0.193
-669.076	-200.000	-0.040	-0.183
-668.062	-200.000	0.000	-0.017
-667.047	138.573	-0.293	0.392
-666.032	-200.000	-0.001	-0.079
-665.018	210.490	0.118	0.189
-664.003	-30.648	-0.120	-0.069
-662.989	-26.652	0.173	-0.103
-661.974	-200.000	-0.014	0.108
-660.959	-11.478	0.232	0.155
-659.945	-199.081	-0.226	0.001
-658.930	-7.090	0.107	0.074
-657.916	-29.338	0.335	0.195
-656.901	-18.858	-0.197	-0.125
-655.886	-187.535	-0.127	-0.002
-654.872	4.424	-0.366	-0.273
-653.857	-23.691	-0.344	-0.210
-652.843	-162.262	0.406	0.021
-651.828	-136.355	-0.116	0.014
-650.814	12.654	0.279	0.219
-649.799	21.503	0.101	0.083
-648.784	-164.375	-0.176	-0.008
-647.770	103.983	-0.024	0.029
-646.755	800.000	-0.099	-0.292
-645.741	224.044	0.223	-0.366
-644.726	178.017	-0.111	0.165
-643.711	-85.228	0.230	0.073
-642.697	-200.000	0.036	-0.185
-641.682	170.208	-0.236	0.344
-640.668	56.459	0.120	0.119
-639.653	-77.140	0.247	-0.087
-638.638	399.825	-0.092	0.196
-637.624	578.063	0.105	-0.261
-636.609	-89.433	-0.409	0.122
-635.595	-97.165	0.184	-0.049
-634.580	800.000	0.033	-0.098
-633.565	800.000	-0.082	-0.243
-632.551	-200.000	0.051	-0.316
-631.536	-200.000	-0.068	-0.302
-630.522	751.084	0.064	-0.176
-629.507	504.819	-0.122	0.288
-628.492	-120.460	0.028	-0.005
-627.478	-166.757	-0.384	-0.016
-626.463	-200.000	-0.015	0.104
-625.449	683.054	-0.063	0.168
-624.434	312.331	-0.093	-0.177
-623.419	82.212	-0.096	-0.106
-622.405	-136.746	-0.289	-0.034
-621.390	-200.000	0.014	-0.203
-620.376	-191.075	0.223	0.002
-619.361	-108.986	0.134	0.029
-618.346	-133.443	0.170	-0.022
-617.332	1.029	0.093	-0.068
-616.317	-83.848	-0.383	0.124
-615.303	800.000	-0.114	-0.412
-614.288	-152.171	0.303	-0.022
-613.273	-153.115	-0.267	0.019
-612.259	194.956	-0.151	0.234
-611.244	-200.000	0.017	0.122
-610.230	-186.373	0.212	0.003
-609.215	-27.952	-0.213	0.125
-608.201	-200.000	-0.028	-0.214
-607.186	-17.299	-0.048	-0.031
-606.171	222.224	0.178	0.291
-605.157	-17.583	0.249	-0.159
-604.142	-200.000	0.041	0.441
-603.128	-140.044	-0.134	-0.014
-602.113	-71.099	0.035	0.013
-601.098	-180.538	0.210	-0.004
-600.084	97.753	-0.131	-0.153
-599.069	800.000	-0.020	0.073
-598.055	-43.921	-0.041	0.021
-597.040	-200.000	-0.078	0.360
-596.025	-200.000	-0.074	-0.355
-595.011	-110.823	-0.167	-0.035
-593.996	800.000	-0.043	-0.157
-592.982	41.096	0.149	-0.137
-591.967	159.172	0.357	0.503
-590.952	-146.335	-0.206	-0.018
-589.938	326.883	0.089	-0.172
-588.923	128.399	-0.181	0.234
-587.909	26.705	0.266	0.226
-586.894	197.704	0.099	-0.153
-585.879	-60.594	-0.364	-0.157
-584.865	-31.622	-0.304	-0.173
-583.850	137.863	0.127	0.168
-582.836	800.000	0.030	0.129
-581.821	446.349	-0.018	-0.039
-580.806	-200.000	0.024	0.284
-579.792	-200.000	0.004	0.128
-578.777	-17.896	-0.201	0.128
-577.763	273.094	0.099	0.177
-576.748	-65.522	-0.350	-0.142
-575.733	-200.000	0.013	-0.275
-574.719	-200.000	0.015	-0.095
-573.704	193.393	-0.212	-0.325
-572.690	47.481	-0.152	-0.143
-571.675	112.927	0.137	0.168
-570.661	-113.673	0.201	0.040
-569.646	233.667	-0.111	-0.184
-568.631	45.906	-0.044	0.041
-567.617	41.420	-0.258	-0.237
-566.602	97.073	-0.221	0.257
-565.588	-36.711	0.086	0.047
-564.573	-83.922	0.274	0.088
-563.558	-200.000	0.007	-0.042
-562.544	-80.307	-0.220	0.075
-561.529	-171.086	-0.450	-0.015
-560.515	-91.421	-0.283	-0.082
-559.500	-31.085	0.184	0.105
-558.485	-20.573	-0.241	-0.150
-557.471	400.564	-0.134	-0.284
-556.456	-12.070	0.216	-0.143
-555.442	4.294	0.112	0.083
-554.427	210.551	-0.187	-0.297
-553.412	-77.406	-0.183	-0.064
-552.398	-113.025	0.197	0.040
-551.383	39.593	0.118	-0.107
-550.369	-98.488	-0.212	-0.055
-549.354	-109.236	-0.211	-0.045
-548.339	388.835	-0.139	-0.291
-547.325	-45.373	0.035	-0.017
-546.310	411.405	0.135	0.290
-545.296	231.227	0.042	-0.069
-544.281	-102.889	-0.088	-0.021
-543.266	-160.361	-0.256	-0.014
-542.252	216.052	0.119	0.192
-541.237	3.456	0.089	-0.066
-540.223	532.343	-0.045	0.109
-539.208	-167.181	0.264	-0.011
-538.193	-200.000	-0.005	-0.311
-537.179	-107.780	0.050	0.011
-536.164	-200.000	-0.007	-0.196
-535.150	-103.915	-0.077	-0.018
-534.135	800.000	0.042	-0.143
-533.121	-200.000	-0.055	-0.262
-532.106	-39.846	-0.107	-0.057
-531.091	-51.202	-0.087	0.041
-530.077	-200.000	0.014	-0.230
-529.062	364.647	-0.139	0.284
-528.048	-111.091	0.225	0.047
-527.033	-142.258	0.169	-0.017
-526.018	-97.668	-0.129	0.034
-525.004	361.551	-0.199	-0.405
-523.989	625.493	-0.180	-0.459
-522.975	-200.000	0.008	-0.124
-521.960	120.185	0.231	0.290
-520.945	800.000	0.093	0.270
-519.931	-200.000	-0.018	0.247
-518.916	-66.725	-0.437	-0.175
-517.902	-21.688	0.324	0.200
-516.887	90.873	-0.060	-0.068
-515.872	11.793	-0.122	0.095
-514.858	459.381	0.034	-0.076
-513.843	-110.322	0.076	-0.016
-512.829	365.703	0.018	0.036
-511.814	223.287	0.109	0.178
-510.799	-141.815	-0.275	0.028
-509.785	206.315	-0.116	-0.183
-508.770	-200.000	0.031	-0.221
-507.756	41.041	0.139	0.127
-506.741	-61.050	-0.239	-0.102
-505.726	800.000	-0.100	-0.368
-504.712	-200.000	0.004	0.224
-503.697	-109.880	0.270	0.057
-502.683	706.225	0.157	-0.419
-501.668	-42.223	-0.253	0.131
-500.653	-200.000	-0.002	0.156
-499.639	-127.288	-0.040	-0.006
-498.624	151.675	0.061	-0.084
-497.610	317.561	0.261	-0.500
-496.595	266.003	-0.091	-0.161
-495.581	17.677	0.283	0.227
-494.566	-91.379	0.144	0.042
-493.551	-13.725	-0.331	0.216
-492.537	410.800	-0.011	-0.023
-491.522	259.389	0.062	-0.108
-490.508	-200.000	0.025	-0.180
-489.493	-126.039	-0.172	0.026
-488.478	476.848	-0.207	-0.474
-487.464	-200.000	-0.048	-0.371
-486.449	110.034	0.166	-0.201
-485.435	294.186	-0.022	0.041
-484.420	95.047	-0.083	0.095
-483.405	-107.788	-0.066	0.015
-482.391	-200.000	0.015	-0.128
-481.376	-200.000	0.027	0.133
-480.362	-186.260	-0.103	-0.002
-479.347	-200.000	0.018	0.256
-478.332	-103.565	-0.326	0.077
-477.318	-35.005	0.084	-0.046
-476.303	800.000	-0.058	-0.180
-475.289	652.533	-0.033	-0.084
-474.274	156.938	0.071	-0.099
-473.259	26.687	-0.271	0.229
-472.245	220.680	0.088	0.143
-471.230	-82.935	-0.394	-0.128
-470.216	-41.152	0.262	-0.137
-469.201	-200.000	0.029	0.389
-468.186	800.000	0.113	0.338
-467.172	-41.247	0.162	0.084
-466.157	-96.112	-0.313	0.084
-465.143	19.729	0.099	0.081
-464.128	85.911	-0.198	0.220
-463.113	470.769	0.180	-0.408
-462.099	113.254	0.177	0.217
-461.084	86.024	-0.155	-0.172
-460.070	496.451	-0.028	-0.066
-459.055	407.606	0.124	0.264
-458.040	-200.000	0.020	0.114
-457.026	-58.541	-0.178	-0.078
-456.011	73.319	0.082	-0.087
-454.997	800.000	0.108	0.383
-453.982	-38.867	-0.254	-0.135
-452.968	92.728	0.149	-0.170
-451.953	-200.000	-0.018	-0.102
-450.938	-100.934	0.385	-0.095
-449.924	-108.709	-0.165	0.036
-448.909	800.000	0.072	-0.258
-447.895	-105.396	0.224	-0.052
-446.880	185.589	-0.206	0.309
-445.865	800.000	0.033	-0.102
-444.851	800.000	0.110	-0.379
-443.836	-68.737	0.343	0.134
-442.822	5.692	-0.162	0.121
-441.807	-24.023	0.188	0.113
-440.792	-200.000	0.013	0.225
-439.778	10.586	-0.133	-0.102
-438.763	800.000	0.051	0.199
-437.749	-81.766	0.396	0.131
-436.734	800.000	0.037	-0.120
-435.719	66.847	-0.156	-0.160
-434.705	-62.289	-0.235	-0.099
-433.690	-153.366	0.281	-0.020
-432.676	-200.000	0.005	-0.238
-431.661	-200.000	0.005	0.126
-430.646	-94.398	-0.316	-0.087
-429.632	800.000	-0.013	-0.046
-428.617	133.022	-0.183	-0.239
-427.603	-153.680	-0.166	0.012
-426.588	100.538	-0.101	0.118
-425.573	118.772	-0.195	0.243
-424.559	-86.250	0.101	0.031
-423.544	507.446	0.072	-0.169
-422.530	3.781	0.280	0.206
-421.515	-145.523	-0.138	-0.012
-420.500	263.905	0.054	-0.094
-419.486	-143.980	-0.194	0.018
-418.471	425.477	-0.144	0.314
-417.457	184.410	-0.063	0.094
-416.442	73.850	0.133	0.141
-415.428	800.000	-0.080	0.226
-414.413	19.422	-0.119	0.096
-413.398	-117.837	-0.238	-0.043
-412.384	-200.000	-0.007	0.196
-411.369	-200.000	0.018	-0.254
-410.355	136.450	-0.038	0.049
-409.340	-200.000	0.004	-0.025
-408.325	175.326	-0.099	-0.145
-407.311	-29.331	0.165	0.095
-406.296	20.122	0.129	0.105
-405.282	176.841	0.018	0.027
-404.267	202.433	0.153	0.239
-403.252	40.007	-0.195	0.177
-402.238	800.000	0.070	0.295
-401.223	282.338	0.085	0.153
-400.209	-33.178	-0.186	-0.104
-399.194	31.806	0.177	-0.154
-398.179	82.105	-0.119	0.130
-397.165	-200.000	0.010	0.178
-396.150	43.110	0.269	0.247
-395.136	-54.985	-0.471	0.214
-394.121	-88.917	0.399	-0.119
-393.106	285.124	0.065	-0.119
-392.092	5.728	-0.319	0.237
-391.077	16.861	-0.162	-0.129
-390.063	116.332	0.140	0.172
-389.048	800.000	0.038	0.137
-388.033	19.611	0.300	0.243
-387.019	583.878	0.154	0.381
-386.004	750.737	0.040	-0.109
-384.990	-200.000	-0.009	0.243
-383.975	-200.000	-0.020	0.142
-382.960	-200.000	0.011	-0.106
-381.946	184.093	0.069	0.103
-380.931	800.000	-0.088	0.323
-379.917	122.639	-0.164	0.207
-378.902	178.837	-0.217	0.319
-377.888	121.793	-0.167	0.210
-376.873	800.000	-0.075	0.276
-375.858	-200.000	-0.025	0.263
-374.844	373.107	-0.117	0.239
-373.829	-200.000	-0.024	0.309
-372.815	-200.000	0.009	0.140
-371.800	800.000	0.098	-0.295
-370.785	-32.778	-0.173	0.097
-369.771	-81.051	0.177	0.059
-368.756	392.905	-0.084	0.175
-367.742	-151.572	0.262	0.019
-366.727	-200.000	-0.011	-0.116
-365.712	-128.836	-0.113	0.016
-364.698	-91.168	0.286	-0.082
-363.683	419.501	-0.091	-0.195
-362.669	-140.887	-0.225	-0.023
-361.654	-43.983	0.254	-0.129
-360.639	-33.249	-0.377	-0.210
-359.625	439.230	0.057	-0.125
-358.610	143.507	0.179	-0.239
-357.596	-22.372	-0.197	-0.120
-356.581	59.614	-0.157	-0.156
-355.566	-91.716	-0.272	0.078
-354.552	315.171	0.037	-0.070
-353.537	-26.115	0.556	0.329
-352.523	522.208	0.027	0.064
-351.508	-32.692	-0.098	-0.055
-350.493	800.000	0.060	0.232
-349.479	210.257	-0.153	0.242
-348.464	257.439	0.147	-0.253
-347.450	138.818	0.134	-0.177
-346.435	-200.000	0.000	-0.105
-345.420	-93.424	0.141	0.039
-344.406	-125.213	0.069	0.011
-343.391	800.000	0.023	-0.085
-342.377	375.091	0.077	-0.158
-341.362	-23.399	-0.260	0.157
-340.348	-176.331	0.453	0.012
-339.333	134.211	0.210	-0.273
-338.318	-111.242	0.205	-0.042
-337.304	-2.652	0.211	-0.148
-336.289	-166.956	-0.220	-0.009
-335.275	-68.945	-0.310	-0.120
-334.260	-148.289	0.133	-0.011
-333.245	-71.889	-0.393	-0.147
-332.231	-24.275	0.139	0.084
-331.216	-24.169	0.203	-0.122
-330.202	-200.000	0.008	0.067
-329.187	-105.970	0.346	0.078
-328.172	77.689	0.287	-0.307
-327.158	582.022	0.026	-0.064
-326.143	800.000	0.082	0.356
-325.129	116.481	-0.144	0.178
-324.114	-149.863	-0.074	-0.006
-323.099	-112.842	-0.230	0.046
-322.085	-200.000	0.020	0.216
-321.070	800.000	0.075	-0.257
-320.056	520.826	0.022	-0.052
-319.041	-105.167	-0.388	-0.089
-318.026	-48.393	0.188	0.091
-317.012	-64.843	0.187	-0.076
-315.997	-200.000	0.037	-0.248
-314.983	103.266	-0.154	-0.182
-313.968	800.000	0.128	0.529
-312.953	-127.176	0.228	0.033
-311.939	-34.988	-0.073	0.040
-310.924	-105.550	0.223	0.051
-309.910	562.262	0.078	0.190
-308.895	-139.870	0.322	0.034
-307.880	-31.646	0.306	0.172
-306.866	-50.561	0.141	-0.067
-305.851	-113.668	0.304	0.060
-304.837	76.516	-0.086	-0.092
-303.822	238.105	-0.157	-0.261
-302.807	-200.000	0.010	0.242
-301.793	798.722	-0.103	0.285
-300.778	-84.032	-0.158	0.051
-299.764	-112.626	-0.290	-0.058
-298.749	-200.000	-0.013	-0.073
-297.735	720.783	0.054	-0.145
-296.720	-71.713	-0.091	-0.034
-295.705	675.328	0.123	0.321
-294.691	374.332	0.040	0.083
-293.676	246.556	-0.115	-0.195
-292.662	-200.000	-0.048	0.222
-291.647	13.052	0.020	0.016
-290.632	-75.741	-0.151	0.054
-289.618	746.515	0.135	-0.364
-288.603	538.229	0.040	0.096
-287.589	-41.275	0.080	-0.041
-286.574	-49.598	0.182	0.087
-285.559	-17.808	0.133	-0.084
-284.545	-80.187	-0.173	-0.058
-283.530	-166.519	0.238	-0.010
-282.516	800.000	-0.058	0.196
-281.501	-128.665	0.300	-0.042
-280.486	506.196	-0.047	0.109
-279.472	52.058	-0.220	-0.211
-278.457	623.597	0.160	-0.403
-277.443	92.190	-0.052	0.058
-276.428	108.120	-0.225	0.269
-275.413	-200.000	-0.035	0.255
-274.399	-200.000	-0.006	-0.112
-273.384	-200.000	-0.007	0.211
-272.370	57.225	0.186	-0.182
-271.355	-71.174	0.325	0.122
-270.340	431.523	-0.088	0.190
-269.326	119.435	-0.082	-0.101
-268.311	800.000	-0.011	0.036
-267.297	9.184	0.176	0.133
-266.282	-97.957	0.202	-0.052
-265.267	59.418	0.093	-0.092
-264.253	287.424	0.116	-0.210
-263.238	-200.000	0.019	0.127
-262.224	195.811	-0.264	0.402
-261.209	-34.921	-0.232	-0.127
-260.195	31.808	-0.234	0.202
-259.180	193.235	-0.046	0.070
-258.165	800.000	-0.091	0.308
-257.151	-200.000	-0.012	0.086
-256.136	-49.462	0.500	-0.239
-255.122	695.922	0.054	-0.142
-254.107	112.743	-0.151	-0.183
-253.092	534.908	0.033	-0.079
-252.078	133.235	-0.105	-0.136
-251.063	-8.493	0.106	0.071
-250.049	-8.716	-0.317	0.213
-249.034	-139.124	-0.270	-0.029
-248.019	-85.867	-0.195	-0.060
-247.005	-63.454	0.299	-0.123
-245.990	260.284	0.135	0.234
-244.976	800.000	0.114	0.347
-243.961	-107.464	0.321	-0.070
-242.946	265.372	0.109	0.190
-241.932	619.058	0.095	-0.240
-240.917	181.541	-0.070	0.104
-239.903	232.127	-0.136	-0.223
-238.888	-200.000	-0.018	0.147
-237.873	-30.983	0.163	0.092
-236.859	-37.542	-0.366	-0.195
-235.844	-37.470	-0.181	0.097
-234.830	800.000	0.072	0.258
-233.815	-200.000	0.013	-0.244
-232.800	-72.653	0.278	0.103
-231.786	86.197	0.126	0.139
-230.771	-73.919	0.100	-0.036
-229.757	-200.000	0.055	-0.292
-228.742	-200.000	-0.084	-0.382
-227.727	-109.379	-0.285	0.060
-226.713	-200.000	-0.089	-0.489
-225.698	115.585	0.300	0.367
-224.684	-131.675	0.375	0.049
-223.669	-29.141	-0.210	-0.121
-222.655	97.426	0.168	-0.193
-221.640	-116.896	0.235	0.043
-220.625	106.474	0.161	-0.191
-219.611	-122.829	0.181	0.029
-218.596	-47.848	0.272	0.132
-217.582	-21.597	0.313	-0.191
-216.567	-55.605	0.182	0.082
-215.552	142.045	-0.194	-0.258
-214.538	34.490	0.077	-0.067
-213.523	61.819	0.138	-0.137
-212.509	-109.332	0.159	-0.034
-211.494	743.514	0.026	0.070
-210.479	-126.632	0.296	0.044
-209.465	-200.000	-0.028	-0.154
-208.450	-127.729	-0.428	0.062
-207.436	306.807	-0.118	0.219
-206.421	-127.703	-0.107	0.015
-205.406	-200.000	0.012	-0.084
-204.392	-55.617	0.284	-0.127
-203.377	348.358	0.210	-0.414
-202.363	30.647	-0.150	0.128
-201.348	800.000	-0.030	-0.090
-200.333	-64.300	-0.050	0.020
-199.319	-183.990	0.466	-0.008
-198.304	-110.851	-0.145	0.030
-197.290	92.053	-0.215	-0.241
-196.275	-8.237	0.191	-0.129
-195.260	453.519	-0.061	-0.134
-194.246	100.788	0.115	-0.134
-193.231	800.000	0.068	-0.213
-192.217	-200.000	-0.003	-0.033
-191.202	52.879	-0.111	0.106
-190.187	-95.061	-0.317	-0.086
-189.173	22.955	-0.229	-0.187
-188.158	681.009	-0.063	-0.164
-187.144	122.971	-0.037	0.046
-186.129	13.257	0.123	0.095
-185.114	44.840	-0.026	-0.024
-184.100	-13.108	-0.060	-0.039
-183.085	36.865	-0.091	-0.081
-182.071	-134.650	-0.181	-0.022
-181.056	-42.607	0.007	-0.004
-180.042	103.292	-0.109	0.128
-179.027	408.691	-0.113	0.239
-178.012	-200.000	0.041	0.213
-176.998	-71.050	-0.189	-0.071
-175.983	-200.000	-0.018	0.246
-174.969	-124.050	0.461	-0.072
-173.954	99.338	0.147	-0.170
-172.939	148.703	-0.078	0.105
-171.925	-200.000	0.046	0.238
-170.910	405.161	-0.100	0.210
-169.896	519.205	-0.137	-0.319
-168.881	-65.901	-0.131	0.052
-167.866	-7.660	-0.103	-0.069
-166.852	-12.189	0.203	0.133
-165.837	314.639	0.182	0.342
-164.823	2.234	0.167	-0.121
-163.808	136.455	-0.200	0.261
-162.793	-23.721	0.067	0.040
-161.779	445.912	-0.120	-0.264
-160.764	-46.039	-0.229	-0.113
-159.750	17.501	0.013	0.010
-158.735	246.874	-0.125	-0.211
-157.720	-110.199	-0.360	0.075
-156.706	-43.600	0.166	0.083
-155.691	-114.865	0.297	-0.056
-154.677	-200.000	0.025	0.117
-153.662	-80.535	-0.185	0.062
-152.647	-134.118	0.441	0.054
-151.633	-200.000	-0.021	-0.220
-150.618	-200.000	-0.018	-0.177
-149.604	636.086	0.057	-0.145
-148.589	706.122	0.124	0.328
-147.574	-16.143	0.138	0.087
-146.560	-129.243	0.196	-0.027
-145.545	-200.000	-0.003	0.204
-144.531	-116.524	0.054	-0.010
-143.516	-200.000	-0.010	0.136
-142.502	15.244	-0.118	0.093
-141.487	-200.000	-0.012	-0.171
-140.472	-131.503	0.201	0.026
-139.458	-116.394	0.039	0.007
-138.443	-147.345	0.197	0.017
-137.429	218.330	0.036	-0.057
-136.414	184.633	0.038	0.056
-135.399	-49.280	0.082	0.039
-134.385	-6.356	-0.260	0.177
-133.370	-200.000	-0.013	0.119
-132.356	-12.504	0.198	-0.129
-131.341	124.488	0.147	-0.184
-130.326	-149.967	0.115	0.009
-129.312	-200.000	0.035	0.193
-128.297	-200.000	0.035	0.200
-127.283	-167.930	-0.170	0.007
-126.268	-144.538	-0.321	0.030
-125.253	-61.255	0.184	0.077
-124.239	26.560	-0.055	-0.046
-123.224	25.606	0.345	0.286
-122.210	-167.709	0.194	-0.008
-121.195	-125.626	0.289	0.044
-120.180	191.137	-0.041	-0.062
-119.166	129.260	-0.158	-0.201
-118.151	-12.817	0.261	-0.169
-117.137	-168.330	-0.154	0.006
-116.122	-134.157	-0.267	0.033
-115.107	-55.151	-0.119	0.053
-114.093	-200.000	-0.012	0.299
-113.078	58.402	-0.194	0.189
-112.064	45.719	-0.178	0.164
-111.049	93.023	-0.131	0.148
-110.034	-97.065	0.113	-0.029
-109.020	-200.000	0.005	-0.221
-108.005	800.000	0.046	0.131
-106.991	85.800	0.320	-0.351
-105.976	38.059	0.101	-0.089
-104.962	581.445	-0.191	0.466
-103.947	-106.253	0.276	0.061
-102.932	-168.275	0.219	0.008
-101.918	15.532	0.134	-0.105
-100.903	-200.000	-0.026	0.131
-99.889	-73.402	-0.274	0.100
-98.874	-129.068	-0.077	-0.011
-97.859	355.808	0.044	0.087
-96.845	109.494	-0.150	-0.179
-95.830	800.000	0.087	-0.244
-94.816	-41.842	-0.199	0.102
-93.801	25.767	-0.173	0.143
-92.786	46.594	-0.108	-0.100
-91.772	71.394	0.100	-0.104
-90.757	156.586	-0.158	-0.216
-89.743	800.000	-0.102	-0.403
-88.728	-200.000	0.053	-0.284
-87.713	-53.752	-0.166	-0.075
-86.699	26.732	-0.350	-0.292
-85.684	-200.000	-0.068	-0.354
-84.670	-87.963	0.145	0.043
-83.655	141.172	-0.114	0.151
-82.640	-200.000	-0.001	0.120
-81.626	57.768	-0.082	-0.080
-80.611	-200.000	0.030	-0.146
-79.597	-146.237	0.161	-0.014
-78.582	-32.790	-0.192	-0.106
-77.567	-50.157	0.411	0.194
-76.553	-200.000	-0.015	0.092
-75.538	0.074	-0.392	-0.278
-74.524	415.259	0.169	-0.358
-73.509	-70.848	-0.160	-0.060
-72.494	-122.181	0.270	0.044
-71.480	240.646	0.197	-0.326
-70.465	-200.000	-0.008	-0.120
-69.451	192.266	0.064	-0.096
-68.436	372.668	0.160	-0.323
-67.422	-160.314	0.182	-0.010
-66.407	-200.000	-0.037	0.229
-65.392	415.098	0.140	0.297
-64.378	-81.449	0.175	0.057
-63.363	-77.871	-0.184	0.063
-62.349	10.387	-0.098	0.074
-61.334	53.381	-0.780	-0.743
-60.319	297.025	0.338	0.617
-59.305	-200.000	0.051	-0.609
-58.290	212.944	0.495	0.777
-57.276	800.000	0.519	1.581
-56.261	-200.000	89.887	513.474
-55.246	439.962	1428.506	3101.513
-54.232	142.503	2633.918	3475.413
-53.217	109.325	2256.424	2684.311
-52.203	46.132	1772.616	1631.133
-51.188	39.391	1575.569	1401.966
-50.173	36.975	1546.775	1359.372
-49.159	54.068	1593.512	1522.474
-48.144	57.414	1613.300	1565.155
-47.130	39.958	1570.784	1401.509
-46.115	36.660	1555.706	1364.783
-45.100	36.504	1551.655	1360.075
-44.086	36.394	1550.000	1357.797
-43.071	36.394	1547.727	1355.751
-42.057	36.392	1546.042	1354.212
-41.042	36.478	1545.018	1353.864
-40.027	36.371	1543.717	1351.919
-39.013	36.325	1542.000	1350.039
-37.998	36.389	1540.534	1349.146
-36.984	36.260	1539.563	1347.342
-35.969	36.351	1537.578	1346.187
-34.954	36.410	1536.602	1345.691
-33.940	36.389	1535.388	1344.432
-32.925	36.475	1533.685	1343.479
-31.911	36.386	1532.721	1341.966
-30.896	36.478	1530.860	1340.924
-29.881	36.567	1529.015	1339.870
-28.867	36.500	1528.574	1338.964
-27.852	36.388	1527.088	1336.834
-26.838	36.561	1525.115	1336.249
-25.823	36.488	1523.429	1334.215
-24.809	36.499	1521.988	1332.981
-23.794	36.508	1520.065	1331.303
-22.779	36.465	1519.398	1330.369
-21.765	36.476	1518.130	1329.280
-20.750	36.477	1517.061	1328.302
-19.736	36.520	1515.282	1326.984
-18.721	36.462	1514.817	1326.127
-17.706	36.401	1513.676	1324.661
-16.692	36.381	1512.980	1323.857
-15.677	36.465	1511.193	1322.819
-14.663	36.468	1510.644	1322.309
-13.648	36.384	1509.517	1320.695
-12.633	36.460	1508.040	1319.864
-11.619	36.366	1507.327	1318.551
-10.604	36.222	1507.008	1317.235
-9.590	36.318	1505.887	1316.859
-8.575	36.306	1505.186	1316.111
-7.560	36.318	1504.243	1315.314
-6.546	36.305	1503.535	1314.557
-5.531	36.287	1502.235	1313.243
-4.517	36.434	1501.113	1313.207
-3.502	36.255	1500.413	1311.328
-2.487	36.446	1498.434	1310.843
-1.473	36.367	1497.825	1309.726
-0.458	36.415	1496.281	1308.649
0.556	35.125	1487.621	1300.001
1.571	32.664	1461.451	1260.579
2.586	28.808	1397.296	1180.420
3.600	26.336	1310.665	1092.226
4.615	24.165	1262.115	1039.022
5.629	20.367	1203.944	969.874
6.644	10.482	1112.206	844.634
7.659	1.918	1067.093	767.343
8.673	0.610	1060.849	756.242
9.688	0.444	1057.767	753.148
10.702	0.255	1056.527	751.255
11.717	0.301	1054.573	750.029
12.731	3.137	1057.813	766.410
13.746	12.245	1070.605	821.367
14.761	18.120	1077.298	855.924
15.775	17.795	1075.633	852.900
16.790	16.697	1073.625	845.749
17.804	15.675	1071.147	838.628
18.819	14.883	1068.933	832.877
19.834	14.338	1068.001	829.366
20.848	14.167	1066.861	827.557
21.863	13.706	1066.343	824.785
22.877	13.571	1065.114	823.091
23.892	13.289	1064.459	821.115
24.907	13.128	1063.699	819.657
25.921	13.272	1063.370	820.044
26.936	13.308	1062.380	819.386
27.950	13.305	1061.442	818.574
28.965	13.259	1060.739	817.734
29.980	13.378	1059.833	817.549
30.994	13.541	1058.640	817.362
32.009	13.501	1057.851	816.484
33.023	13.466	1057.548	816.006
34.038	13.498	1056.673	815.415
35.053	13.589	1055.253	814.693
36.067	13.431	1054.604	813.348
37.082	13.473	1053.824	812.877
38.096	13.510	1053.255	812.550
39.111	13.500	1052.311	811.700
40.126	13.467	1051.642	810.948
41.140	13.483	1050.211	809.856
42.155	13.270	1049.633	808.295
43.169	13.344	1048.480	807.697
44.184	13.270	1047.489	806.502
45.199	13.190	1046.408	805.209
46.213	13.365	1045.112	804.990
47.228	13.315	1044.231	804.000
48.242	13.317	1043.015	803.000
49.257	13.363	1042.298	802.598
50.271	13.291	1041.480	801.550
51.286	13.357	1040.690	801.193
52.301	13.420	1039.544	800.545
53.315	13.365	1038.737	799.587
54.330	13.390	1038.208	799.229
55.344	13.202	1037.718	797.873
56.359	13.343	1036.194	797.311
57.374	13.288	1035.271	796.266
58.388	13.259	1034.959	795.813
59.403	13.282	1033.667	794.858
60.417	13.209	1033.492	794.304
61.432	13.344	1032.332	793.988
62.447	13.324	1031.457	793.150
63.461	13.188	1030.848	791.960
64.476	13.286	1029.275	791.150
65.490	13.159	1028.671	790.011
66.505	13.234	1028.308	790.019
67.520	13.260	1027.160	789.192
68.534	13.191	1026.282	788.118
69.549	13.279	1025.630	787.969
70.563	13.256	1025.225	787.479
71.578	13.138	1024.795	786.517
72.593	13.268	1023.639	786.174
73.607	13.219	1022.374	784.905
74.622	13.208	1021.470	784.088
75.636	13.090	1020.718	782.881
76.651	13.047	1020.066	782.107
77.666	13.165	1019.568	782.216
78.680	13.104	1018.607	781.121
79.695	13.127	1018.168	780.825
80.709	13.287	1016.920	780.553
81.724	13.271	1015.964	779.673
82.739	13.239	1015.566	779.148
83.753	13.205	1015.205	778.644
84.768	13.283	1013.937	777.970
85.782	13.504	1012.987	778.211
86.797	13.481	1012.601	777.738
87.812	13.485	1011.507	776.847
88.826	13.315	1010.942	775.545
89.841	13.271	1010.292	774.775
90.855	13.352	1009.268	774.300
91.870	13.433	1008.229	773.810
92.884	13.456	1007.744	773.478
93.899	13.481	1006.493	772.564
94.914	13.565	1005.883	772.420
95.928	13.430	1005.730	771.608
96.943	13.529	1004.803	771.289
97.957	13.487	1003.982	770.397
98.972	13.502	1003.038	769.671
99.987	13.426	1002.461	768.807
101.001	13.481	1001.708	768.415
102.016	13.384	1001.019	767.371
103.030	13.409	999.856	766.526
104.045	13.409	998.807	765.657
105.060	13.481	998.017	765.314
106.074	13.280	996.932	763.489
107.089	13.362	996.275	763.294
108.103	13.268	995.217	761.983
109.118	13.316	994.004	761.209
110.133	13.198	993.612	760.296
111.147	13.239	992.998	759.947
112.162	13.245	991.353	758.651
113.176	13.227	991.033	758.257
114.191	13.264	989.901	757.491
115.206	13.316	989.251	757.167
116.220	13.235	988.723	756.323
117.235	13.379	987.025	755.617
118.249	13.299	986.228	754.572
119.264	13.279	985.158	753.596
120.279	13.203	984.778	752.894
121.293	13.347	983.880	752.798
122.308	13.328	983.066	752.022
123.322	13.268	982.561	751.296
124.337	13.353	981.336	750.676
125.352	13.253	980.207	749.293
126.366	13.253	979.315	748.546
127.381	13.228	978.175	747.497
128.395	13.335	977.083	747.076
129.410	13.244	976.115	745.863
130.424	13.323	975.143	745.409
131.439	13.261	974.560	744.615
132.454	13.333	973.682	744.205
133.468	13.334	972.986	743.610
134.483	13.465	972.394	743.681
135.497	13.369	971.694	742.648
136.512	13.272	970.860	741.512
137.527	13.417	969.980	741.423
138.541	13.347	969.429	740.624
139.556	13.440	968.154	740.000
140.570	13.415	967.332	739.193
141.585	13.448	966.814	738.882
142.600	13.479	966.249	738.520
143.614	13.515	965.417	737.981
144.629	13.522	964.791	737.470
145.643	13.549	963.877	736.826
146.658	13.654	962.495	736.170
147.673	13.491	961.933	734.950
148.687	13.417	960.897	733.765
149.702	13.348	960.309	732.947
150.716	13.396	959.329	732.347
151.731	13.409	958.170	731.455
152.746	13.343	957.885	730.879
153.760	13.337	957.116	730.202
154.775	13.454	956.727	730.356
155.789	13.393	955.748	729.274
156.804	13.593	954.352	729.024
157.819	13.542	954.048	728.506
158.833	13.517	953.647	728.026
159.848	13.558	952.838	727.524
160.862	13.698	951.657	727.170
161.877	13.614	951.434	726.566
162.892	13.579	950.626	725.732
163.906	13.460	949.592	724.357
164.921	13.469	949.052	723.921
165.935	13.450	947.960	722.943
166.950	13.488	946.701	722.084
167.964	13.556	945.803	721.631
168.979	13.552	945.061	720.984
169.994	13.561	944.051	720.188
171.008	13.583	942.862	719.313
172.023	13.627	942.200	718.934
173.037	13.617	941.661	718.416
174.052	13.681	940.965	718.102
175.067	13.527	940.343	716.894
176.081	13.553	939.685	716.444
177.096	13.616	938.844	716.012
178.110	13.683	937.886	715.503
179.125	13.580	937.169	714.452
180.140	13.684	935.894	713.863
181.154	13.611	936.213	713.731
182.169	13.698	935.124	713.212
183.183	13.733	934.247	712.628
184.198	13.822	933.498	712.378
185.213	13.787	932.990	711.778
186.227	13.725	932.425	711.013
187.242	13.759	932.007	710.778
188.256	13.853	931.142	710.461
189.271	13.844	930.355	709.759
190.286	13.956	929.508	709.528
191.300	13.786	928.843	708.231
192.315	13.575	928.602	707.083
193.329	13.644	927.529	706.501
194.344	13.606	926.950	705.835
195.359	13.678	926.718	705.899
196.373	13.862	925.964	706.048
197.388	13.839	925.396	705.453
198.402	14.014	924.392	705.370
199.417	13.923	924.497	704.999
200.432	14.055	923.684	704.876
201.446	14.109	923.374	704.805
202.461	14.076	922.822	704.182
203.475	14.127	922.449	704.054
204.490	14.226	921.490	703.678
205.504	14.113	920.673	702.513
206.519	13.956	919.974	701.256
207.534	14.045	919.469	701.184
208.548	14.008	918.858	700.501
209.563	13.953	917.912	699.485
210.577	13.902	917.390	698.813
211.592	14.108	916.490	698.929
212.607	14.091	916.242	698.606
213.621	14.287	915.146	698.530
214.636	14.251	914.503	697.827
215.650	14.122	913.979	696.825
216.665	14.085	913.607	696.327
217.680	14.164	912.940	696.089
218.694	14.405	911.715	696.100
219.709	14.338	911.676	695.725
220.723	14.287	911.233	695.112
221.738	14.309	910.438	694.537
222.753	14.346	909.787	694.134
223.767	14.349	909.153	693.602
224.782	14.356	908.309	692.927
225.796	14.445	907.231	692.413
226.811	14.419	906.647	691.798
227.826	14.432	905.813	691.153
228.840	14.292	905.410	690.206
229.855	14.400	905.118	690.365
230.869	14.161	904.613	688.930
231.884	14.455	903.446	689.200
232.899	14.371	902.917	688.386
233.913	14.365	901.859	687.492
234.928	14.318	901.538	686.995
235.942	14.313	900.696	686.270
236.957	14.383	899.846	685.850
237.972	14.266	899.452	685.010
238.986	14.374	898.748	684.858
240.001	14.414	898.041	684.420
241.015	14.538	897.170	684.206
242.030	14.414	896.611	683.212
243.045	14.419	895.948	682.667
244.059	14.491	895.521	682.575
245.074	14.457	895.117	682.065
246.088	14.470	894.320	681.454
247.103	14.330	894.057	680.618
248.117	14.538	892.904	680.528
249.132	14.626	892.237	680.322
250.147	14.741	891.504	680.169
251.161	14.719	891.409	679.948
252.176	14.741	890.546	679.320
253.190	14.810	889.626	678.837
254.205	14.924	889.141	678.868
255.220	14.959	888.576	678.520
256.234	14.889	887.806	677.590
257.249	14.807	887.174	676.716
258.263	14.904	886.476	676.514
259.278	14.708	886.203	675.452
260.293	14.936	885.478	675.762
261.307	14.911	884.940	675.191
262.322	15.116	883.965	675.214
263.336	14.989	883.795	674.513
264.351	15.074	883.008	674.196
265.366	15.141	881.933	673.584
266.380	15.065	881.674	673.020
267.395	15.149	880.819	672.644
268.409	15.166	879.874	671.932
269.424	15.057	879.299	670.995
270.439	15.175	878.703	670.955
271.453	15.168	878.123	670.425
272.468	15.126	877.346	669.604
273.482	15.144	876.499	668.969
274.497	15.150	876.215	668.717
275.512	15.013	875.619	667.659
276.526	15.149	874.539	667.320
277.541	15.050	874.005	666.458
278.555	15.179	873.420	666.463
279.570	15.248	873.146	666.473
280.585	15.132	872.620	665.551
281.599	15.258	872.182	665.655
282.614	15.260	871.077	664.765
283.628	15.368	870.203	664.464
284.643	15.288	870.225	664.106
285.657	15.333	869.576	663.729
286.672	15.275	868.978	662.987
287.687	15.261	868.750	662.697
288.701	15.363	868.059	662.514
289.716	15.298	867.120	661.485
290.730	15.485	866.154	661.424
291.745	15.380	866.211	660.997
292.760	15.381	865.230	660.192
293.774	15.478	864.593	660.029
294.789	15.229	864.766	659.126
295.803	15.451	863.468	658.949
296.818	15.567	862.662	658.729
297.833	15.479	862.001	657.821
298.847	15.453	861.804	657.511
299.862	15.522	860.741	656.912
300.876	15.492	860.228	656.345
301.891	15.608	859.287	656.022
302.906	15.688	858.873	655.960
303.920	15.641	858.474	655.415
304.935	15.551	857.729	654.437
305.949	15.748	857.170	654.720
306.964	15.737	856.367	654.007
307.979	15.730	855.851	653.524
308.993	15.765	855.230	653.132
310.008	15.689	854.849	652.488
311.022	15.768	853.998	652.086
312.037	15.752	853.944	651.925
313.052	15.774	853.113	651.317
314.066	15.646	852.708	650.455
315.081	15.687	851.828	649.883
316.095	15.744	850.919	649.353
317.110	15.843	850.229	649.154
318.125	15.657	850.266	648.407
319.139	15.593	849.687	647.662
320.154	15.783	849.115	647.896
321.168	15.788	848.465	647.364
322.183	15.795	847.818	646.842
323.197	15.789	847.785	646.734
324.212	15.814	847.108	646.259
325.227	15.958	846.028	645.929
326.241	15.840	846.016	645.411
327.256	15.905	845.039	644.857
328.270	15.949	844.772	644.763
329.285	15.866	844.433	644.130
330.300	15.934	843.347	643.504
331.314	15.864	843.106	642.995
332.329	15.888	842.588	642.638
333.343	15.852	841.994	641.987
334.358	16.052	841.188	642.079
335.373	16.042	840.556	641.502
336.387	16.108	839.914	641.205
337.402	16.083	839.439	640.692
338.416	15.969	838.759	639.682
339.431	16.073	838.280	639.655
340.446	16.245	838.006	640.045
341.460	16.187	837.481	639.366
342.475	16.191	836.314	638.432
343.489	16.237	836.060	638.355
344.504	16.150	835.713	637.708
345.519	16.242	835.013	637.464
346.533	16.342	834.473	637.373
347.548	16.370	834.036	637.089
348.562	16.291	833.674	636.458
349.577	16.292	832.971	635.866
350.592	16.252	832.391	635.218
351.606	16.205	832.045	634.719
352.621	16.216	831.643	634.398
353.635	16.295	831.141	634.258
354.650	16.227	830.801	633.685
355.665	16.181	830.298	633.075
356.679	16.217	829.864	632.823
357.694	16.295	829.593	632.854
358.708	16.369	828.490	632.233
359.723	16.349	828.143	631.836
360.738	16.354	827.497	631.304
361.752	16.387	827.133	631.095
362.767	16.350	826.690	630.564
363.781	16.265	826.586	630.111
364.796	16.398	825.767	629.926
365.810	16.571	825.089	629.996
366.825	16.518	824.994	629.672
367.840	16.444	824.940	629.300
368.854	16.537	824.303	629.106
369.869	16.560	823.896	628.823
370.883	16.617	822.842	628.175
371.898	16.635	822.224	627.714
372.913	16.652	821.689	627.312
373.927	16.675	820.871	626.719
374.942	16.654	820.747	626.490
375.956	16.655	820.007	625.874
376.971	16.675	819.532	625.531
377.986	16.609	819.328	625.074
379.000	16.837	818.399	625.154
380.015	16.826	817.941	624.707
381.029	16.856	817.714	624.588
382.044	16.912	816.666	623.939
383.059	16.833	816.347	623.349
384.073	16.881	815.851	623.092
385.088	16.995	815.027	622.827
386.102	16.831	814.982	622.137
387.117	16.734	814.569	621.410
388.132	16.891	813.817	621.354
389.146	16.858	813.372	620.838
390.161	16.854	813.122	620.580
391.175	16.984	812.700	620.679
392.190	16.924	812.037	619.897
393.205	17.025	811.741	619.984
394.219	16.900	811.251	619.099
395.234	16.918	810.790	618.758
396.248	16.871	810.040	617.961
397.263	16.844	810.160	617.899
398.278	16.835	809.485	617.296
399.292	16.863	808.886	616.887
400.307	16.889	808.301	616.481
401.321	16.868	808.122	616.214
402.336	16.954	807.457	615.965
403.350	17.079	807.254	616.208
404.365	16.978	806.751	615.404
405.380	16.897	806.673	614.996
406.394	17.131	805.881	615.186
407.409	17.275	805.086	615.045
408.423	17.101	804.867	614.193
409.438	17.102	804.466	613.836
410.453	17.212	803.866	613.723
411.467	17.265	803.849	613.848
412.482	17.186	803.016	612.871
413.496	17.409	802.706	613.386
414.511	17.267	802.196	612.430
415.526	17.378	801.904	612.551
416.540	17.400	801.848	612.533
417.555	17.339	801.187	611.756
418.569	17.353	800.429	611.171
419.584	17.291	799.976	610.551
420.599	17.301	799.558	610.213
421.613	100.393	1279.102	1427.394
422.628	86.059	1348.954	1427.497
