DTS Sentinel unit serial number:	SN413079Multiplexer serial number:	ORYXHardware model number:	OX4-SRSoftware version number:	ORYX F/W v4.00 Oryx Data Collector v3.7.2.0data status	okinstallation	princeton_trtdifferential loss correction	single-endedforward channel	channel 3reverse channel	N/Adate	2019/09/18time	08:12:35forward acquisition time	60.00reverse acquisition time	0.00gamma	496.2192k internal	0.2341k external	0.2341temperature offset calibration	0.9950default loss term (dB/km)	0.3790temperature slope calibration	1.0000multiplexer offset coefficient	1.0000multiplexer slope coefficient	1.0000fibre end	0.00T internal ref (°C)	23.87T ext. ref 1 (°C)	0.21T ext. ref 2 (°C)	19.65length (m)	temperature (°C)	Stokes	anti-Stokes-747.200	-200.000	0.003	0.172
-746.185	-35.724	-0.343	0.186
-745.171	-32.687	-0.029	-0.016
-744.156	-74.027	0.073	0.027
-743.142	-98.066	0.133	-0.034
-742.127	-7.083	-0.102	0.069
-741.112	598.156	0.034	-0.085
-740.098	-200.000	0.012	0.155
-739.083	6.205	-0.086	0.064
-738.069	-195.270	-0.250	0.002
-737.054	34.632	0.066	-0.058
-736.039	800.000	-0.007	0.022
-735.025	800.000	-0.152	0.470
-734.010	-156.616	-0.333	0.021
-732.996	97.380	0.174	0.200
-731.981	279.784	-0.094	-0.168
-730.966	320.124	-0.165	-0.314
-729.952	101.975	0.159	0.186
-728.937	-139.505	-0.312	-0.033
-727.923	54.647	0.107	0.104
-726.908	-18.188	0.162	-0.101
-725.894	-128.465	-0.375	-0.053
-724.879	55.059	0.097	-0.094
-723.864	-58.062	-0.284	-0.124
-722.850	-200.000	-0.004	0.026
-721.835	-200.000	-0.026	-0.165
-720.821	-54.235	0.311	-0.141
-719.806	-123.191	0.174	0.028
-718.791	419.221	0.053	-0.113
-717.777	378.890	0.188	0.386
-716.762	82.603	0.074	0.080
-715.748	41.415	0.202	-0.183
-714.733	58.576	0.054	-0.053
-713.718	-200.000	-0.028	0.226
-712.704	-27.905	-0.128	0.074
-711.689	-155.835	0.071	-0.005
-710.675	-120.181	0.179	0.031
-709.660	800.000	0.058	-0.210
-708.645	209.575	0.071	0.111
-707.631	-139.979	0.375	-0.040
-706.616	13.389	-0.143	-0.111
-705.602	372.881	-0.023	-0.046
-704.587	436.513	0.036	0.078
-703.572	-62.466	-0.289	0.120
-702.558	-200.000	0.006	0.084
-701.543	-148.804	0.191	-0.015
-700.529	-126.885	-0.181	-0.027
-699.514	-82.645	-0.072	-0.023
-698.499	-74.143	0.482	0.174
-697.485	118.729	-0.055	0.068
-696.470	-27.610	-0.024	0.014
-695.456	-70.766	-0.313	0.118
-694.441	-200.000	-0.026	0.126
-693.426	800.000	0.046	0.186
-692.412	64.976	0.109	0.110
-691.397	-17.670	0.057	0.036
-690.383	125.243	0.102	0.129
-689.368	-200.000	0.018	-0.316
-688.354	137.566	-0.228	-0.299
-687.339	-76.038	-0.026	-0.009
-686.324	293.443	0.143	-0.260
-685.310	-98.944	0.332	0.084
-684.295	-200.000	-0.048	0.343
-683.281	-200.000	0.047	0.221
-682.266	307.945	-0.201	-0.374
-681.251	-69.293	-0.374	0.143
-680.237	800.000	-0.049	-0.194
-679.222	222.347	-0.086	-0.138
-678.208	138.761	-0.113	-0.148
-677.193	-92.216	0.271	-0.077
-676.178	-65.850	-0.450	-0.180
-675.164	800.000	0.034	0.103
-674.149	256.054	0.168	0.288
-673.135	38.933	0.058	0.052
-672.120	-189.924	0.088	-0.001
-671.105	-200.000	-0.032	0.141
-670.091	-200.000	-0.013	0.155
-669.076	147.491	-0.101	0.136
-668.062	18.567	0.129	-0.103
-667.047	-200.000	-0.019	-0.203
-666.032	-200.000	0.046	0.262
-665.018	-200.000	0.018	-0.230
-664.003	-128.140	0.438	0.063
-662.989	-200.000	-0.005	-0.099
-661.974	27.446	0.332	-0.279
-660.959	420.908	0.025	0.053
-659.945	-200.000	0.026	0.236
-658.930	72.149	-0.100	0.104
-657.916	-2.567	0.192	-0.135
-656.901	-64.628	0.040	-0.016
-655.886	95.478	-0.122	-0.139
-654.872	73.601	-0.134	-0.140
-653.857	-200.000	0.026	0.131
-652.843	472.025	-0.077	0.173
-651.828	-33.948	0.186	-0.102
-650.814	800.000	0.214	0.598
-649.799	-200.000	-0.055	0.262
-648.784	-79.947	-0.372	-0.125
-647.770	641.155	-0.081	0.205
-646.755	574.370	0.102	0.248
-645.741	38.955	0.186	-0.166
-644.726	-73.694	-0.326	-0.118
-643.711	-156.361	0.229	0.014
-642.697	-157.861	-0.166	-0.010
-641.682	-109.581	0.182	0.038
-640.668	800.000	-0.026	0.102
-639.653	753.696	0.044	0.120
-638.638	9.980	-0.125	0.095
-637.624	800.000	-0.048	0.154
-636.609	-200.000	0.022	0.400
-635.595	-55.476	-0.185	0.083
-634.580	-172.935	0.080	0.002
-633.565	-64.850	-0.388	-0.157
-632.551	-132.649	-0.305	0.039
-631.536	-39.578	-0.292	-0.152
-630.522	-46.000	-0.501	0.246
-629.507	-72.910	-0.270	-0.099
-628.492	82.003	-0.098	-0.106
-627.478	800.000	-0.035	-0.112
-626.463	-55.507	0.272	0.122
-625.449	413.152	0.063	-0.135
-624.434	250.675	-0.124	-0.211
-623.419	-200.000	-0.031	-0.290
-622.405	-200.000	-0.013	0.122
-621.390	-200.000	-0.033	0.171
-620.376	-131.399	0.226	0.030
-619.361	26.487	0.308	-0.257
-618.346	-78.676	-0.206	-0.070
-617.332	15.930	0.124	-0.098
-616.317	-115.725	0.140	0.026
-615.303	277.266	0.141	0.249
-614.288	-53.902	-0.232	-0.106
-613.273	800.000	-0.082	0.259
-612.259	800.000	0.130	-0.371
-611.244	398.905	-0.086	0.181
-610.230	800.000	0.041	0.145
-609.215	325.123	-0.047	0.090
-608.201	6.451	0.304	-0.225
-607.186	-200.000	-0.004	0.206
-606.171	800.000	0.067	0.185
-605.157	-174.286	-0.243	0.007
-604.142	800.000	0.055	-0.181
-603.128	-97.286	-0.173	0.045
-602.113	-81.719	0.203	-0.066
-601.098	-68.174	0.334	-0.130
-600.084	-200.000	-0.044	0.249
-599.069	-200.000	-0.057	-0.276
-598.055	219.069	0.107	0.170
-597.040	-200.000	-0.006	-0.121
-596.025	-45.441	-0.194	-0.096
-595.011	-112.409	-0.174	0.035
-593.996	-55.292	0.230	-0.103
-592.982	201.960	-0.062	0.096
-591.967	422.884	0.085	-0.183
-590.952	9.903	0.275	-0.208
-589.938	17.037	-0.126	-0.099
-588.923	53.706	0.072	-0.069
-587.909	51.158	0.110	0.104
-586.894	39.320	0.143	-0.127
-585.879	-142.853	0.312	0.030
-584.865	-82.179	-0.388	0.126
-583.850	794.805	0.066	0.181
-582.836	517.863	-0.174	0.406
-581.821	-200.000	-0.010	-0.146
-580.806	373.578	-0.049	-0.099
-579.792	-200.000	0.016	-0.230
-578.777	-38.019	-0.228	-0.120
-577.763	-200.000	0.007	-0.065
-576.748	23.807	0.235	0.193
-575.733	74.584	0.126	-0.132
-574.719	-14.753	0.110	0.070
-573.704	-75.630	-0.210	-0.074
-572.690	56.781	-0.181	-0.176
-571.675	800.000	0.077	-0.261
-570.661	-41.622	0.145	-0.074
-569.646	-13.408	-0.389	-0.251
-568.631	-200.000	-0.038	0.314
-567.617	-136.016	-0.079	0.009
-566.602	186.037	0.209	-0.309
-565.588	-121.698	-0.108	0.018
-564.573	-41.035	0.302	0.155
-563.558	-29.977	-0.420	-0.238
-562.544	201.442	0.213	-0.326
-561.529	-54.834	0.194	0.087
-560.515	79.814	-0.176	-0.188
-559.500	585.133	-0.022	-0.054
-558.485	-119.306	-0.120	-0.021
-557.471	13.600	0.289	0.223
-556.456	-14.808	0.079	0.050
-555.442	-111.788	0.520	0.105
-554.427	-176.581	0.016	-0.000
-553.412	-149.226	0.160	0.013
-552.398	-83.036	-0.373	0.120
-551.383	139.323	0.222	-0.291
-550.369	-19.827	0.196	-0.121
-549.354	-200.000	-0.028	0.245
-548.339	-12.741	-0.134	0.087
-547.325	-106.381	-0.099	0.022
-546.310	-200.000	0.004	0.107
-545.296	-80.040	0.092	0.031
-544.281	-200.000	0.020	-0.124
-543.266	-109.670	0.331	0.069
-542.252	147.390	0.273	0.366
-541.237	-160.654	-0.195	0.010
-540.223	-82.515	0.184	-0.059
-539.208	512.953	-0.114	-0.263
-538.193	73.918	-0.207	-0.216
-537.179	-9.880	-0.088	0.058
-536.164	-91.064	-0.189	-0.054
-535.150	-200.000	-0.004	-0.290
-534.135	12.337	-0.204	-0.156
-533.121	-154.147	0.181	-0.012
-532.106	-66.576	-0.230	-0.091
-531.091	-58.592	0.187	-0.081
-530.077	800.000	-0.123	-0.450
-529.062	-200.000	-0.063	0.428
-528.048	800.000	-0.065	-0.215
-527.033	132.070	0.004	0.006
-526.018	37.446	0.175	-0.154
-525.004	168.194	0.111	-0.156
-523.989	-76.444	0.096	0.033
-522.975	224.062	-0.004	0.006
-521.960	27.313	-0.076	0.064
-520.945	-178.592	-0.339	-0.008
-519.931	-200.000	-0.021	0.155
-518.916	800.000	0.093	0.335
-517.902	422.464	-0.143	0.305
-516.887	-200.000	-0.002	0.085
-515.872	18.818	0.046	0.037
-514.858	800.000	-0.090	-0.256
-513.843	-179.703	0.347	0.007
-512.829	-40.404	-0.111	-0.057
-511.814	-93.291	0.143	0.039
-510.799	239.217	0.115	-0.190
-509.785	57.550	-0.273	-0.265
-508.770	-200.000	0.011	-0.190
-507.756	-129.215	-0.407	-0.056
-506.741	-179.352	-0.111	-0.002
-505.726	-34.357	-0.062	-0.034
-504.712	-200.000	-0.013	0.511
-503.697	-74.343	0.206	-0.074
-502.683	-19.597	0.174	-0.107
-501.668	468.169	0.099	0.222
-500.653	-110.147	0.408	0.084
-499.639	-200.000	-0.004	-0.185
-498.624	-124.532	0.091	0.014
-497.610	-200.000	-0.019	-0.406
-496.595	-200.000	0.046	0.258
-495.581	800.000	-0.079	-0.247
-494.566	62.182	-0.224	0.222
-493.551	-200.000	-0.051	-0.235
-492.537	23.772	-0.155	0.127
-491.522	800.000	0.090	-0.276
-490.508	800.000	-0.032	0.111
-489.493	584.163	-0.187	-0.455
-488.478	800.000	0.058	0.222
-487.464	-110.456	0.265	0.055
-486.449	164.435	-0.158	0.221
-485.435	-33.179	-0.176	-0.097
-484.420	-38.071	-0.059	-0.031
-483.405	59.943	-0.227	0.222
-482.391	240.297	0.114	-0.188
-481.376	24.494	0.237	-0.194
-480.362	155.755	-0.309	0.423
-479.347	800.000	-0.117	0.327
-478.332	17.579	-0.092	-0.073
-477.318	-75.703	0.314	0.111
-476.303	386.223	0.077	-0.157
-475.289	-32.276	-0.108	0.060
-474.274	152.831	0.126	-0.170
-473.259	-2.063	-0.066	-0.046
-472.245	415.161	0.119	-0.251
-471.230	-83.169	0.458	0.146
-470.216	438.065	0.200	0.432
-469.201	-200.000	0.022	-0.167
-468.186	81.541	-0.110	-0.118
-467.172	411.066	0.134	0.282
-466.157	-107.660	-0.194	0.042
-465.143	-2.790	-0.101	0.070
-464.128	-43.950	0.240	0.119
-463.113	33.451	-0.209	0.180
-462.099	368.358	-0.046	-0.092
-461.084	208.531	-0.032	0.049
-460.070	13.566	-0.134	0.103
-459.055	-20.304	-0.396	0.241
-458.040	-49.657	0.246	-0.116
-457.026	243.413	-0.092	0.154
-456.011	-92.985	0.099	0.027
-454.997	221.690	0.079	-0.125
-453.982	96.899	0.155	0.176
-452.968	-0.896	-0.123	-0.086
-451.953	472.939	-0.018	0.041
-450.938	79.955	0.063	-0.068
-449.924	-160.745	0.131	-0.007
-448.909	3.136	0.215	-0.155
-447.895	57.379	-0.114	-0.111
-446.880	-200.000	0.016	0.183
-445.865	-71.951	0.303	-0.112
-444.851	27.424	-0.149	-0.124
-443.836	-106.299	0.289	0.064
-442.822	-25.940	-0.085	0.050
-441.807	123.717	-0.134	-0.166
-440.792	-168.097	-0.386	0.015
-439.778	-29.593	0.212	0.120
-438.763	55.567	-0.269	-0.258
-437.749	-31.615	-0.178	0.099
-436.734	-20.488	-0.207	-0.126
-435.719	0.984	0.139	0.099
-434.705	-33.525	0.208	0.114
-433.690	28.296	0.112	-0.094
-432.676	800.000	-0.099	0.380
-431.661	-84.990	0.128	0.040
-430.646	78.246	0.073	-0.077
-429.632	215.429	-0.042	-0.066
-428.617	-94.119	0.138	0.037
-427.603	-50.426	0.151	-0.071
-426.588	-92.504	0.329	-0.092
-425.573	9.472	-0.179	-0.134
-424.559	115.039	-0.136	0.165
-423.544	90.794	-0.086	0.095
-422.530	51.219	-0.192	0.180
-421.515	15.775	-0.292	0.227
-420.500	-40.668	-0.077	0.040
-419.486	38.155	0.153	-0.135
-418.471	-0.534	0.150	0.105
-417.457	-121.616	0.332	0.054
-416.442	-200.000	-0.018	-0.099
-415.428	-148.201	-0.226	0.018
-414.413	800.000	0.133	0.397
-413.398	36.865	0.197	0.173
-412.384	-139.149	-0.302	0.032
-411.369	-200.000	0.045	-0.266
-410.355	-33.421	-0.239	-0.131
-409.340	303.467	-0.099	-0.182
-408.325	140.650	0.115	0.151
-407.311	186.607	-0.134	-0.197
-406.296	-122.145	0.129	0.021
-405.282	-200.000	-0.021	-0.234
-404.267	-200.000	-0.031	0.461
-403.252	800.000	-0.108	-0.302
-402.238	-42.411	-0.255	-0.129
-401.223	-165.802	-0.156	0.007
-400.209	-35.887	0.204	-0.109
-399.194	595.345	0.074	0.180
-398.179	800.000	0.069	0.255
-397.165	254.085	-0.141	-0.238
-396.150	143.350	-0.295	-0.388
-395.136	-173.545	0.416	-0.012
-394.121	306.949	0.070	-0.129
-393.106	-37.293	-0.206	0.109
-392.092	800.000	-0.008	0.035
-391.077	800.000	-0.046	0.150
-390.063	60.129	0.173	0.169
-389.048	651.770	-0.056	0.141
-388.033	-169.541	0.327	0.012
-387.019	371.333	-0.121	-0.243
-386.004	469.683	-0.048	0.106
-384.990	-112.348	-0.237	0.047
-383.975	-20.247	0.247	0.150
-382.960	-140.043	0.123	0.013
-381.946	-200.000	-0.077	-0.482
-380.931	-30.897	0.023	0.013
-379.917	10.707	0.125	0.094
-378.902	-21.761	0.207	-0.125
-377.888	-119.542	-0.136	0.023
-376.873	645.404	0.115	0.291
-375.858	800.000	-0.055	-0.225
-374.844	8.737	-0.100	0.075
-373.829	-200.000	0.036	-0.201
-372.815	-100.984	-0.059	0.014
-371.800	800.000	0.072	0.234
-370.785	128.595	0.204	0.257
-369.771	98.809	-0.290	-0.331
-368.756	-155.794	-0.349	0.022
-367.742	180.221	0.375	0.543
-366.727	128.004	0.058	-0.073
-365.712	47.769	-0.352	-0.324
-364.698	212.428	0.152	0.236
-363.683	-187.889	0.239	-0.003
-362.669	-138.538	-0.360	-0.039
-361.654	800.000	-0.072	-0.262
-360.639	-38.036	0.203	-0.107
-359.625	800.000	0.081	0.253
-358.610	-200.000	0.069	-0.329
-357.596	-200.000	0.016	0.166
-356.581	-200.000	0.002	0.073
-355.566	424.729	0.094	0.199
-354.552	-105.506	0.130	0.029
-353.537	186.763	-0.104	-0.153
-352.523	-122.221	0.273	0.044
-351.508	-21.134	-0.132	0.080
-350.493	583.926	0.192	-0.465
-349.479	709.657	0.104	-0.271
-348.464	219.299	-0.075	0.119
-347.450	-84.787	-0.328	-0.102
-346.435	420.413	0.122	0.258
-345.420	-95.287	-0.050	0.013
-344.406	-113.779	-0.246	0.047
-343.391	-16.129	-0.180	-0.113
-342.377	-49.961	-0.210	-0.098
-341.362	-145.251	0.270	0.024
-340.348	-86.813	0.291	0.088
-339.333	109.186	0.066	-0.077
-338.318	123.519	-0.104	0.129
-337.304	58.384	0.051	-0.050
-336.289	-200.000	0.021	-0.209
-335.275	800.000	-0.021	-0.071
-334.260	15.565	-0.061	-0.047
-333.245	-157.079	-0.206	0.012
-332.231	-36.465	-0.275	-0.146
-331.216	-76.865	0.214	0.074
-330.202	-70.371	0.071	0.027
-329.187	64.285	0.158	0.157
-328.172	387.374	0.112	0.227
-327.158	-200.000	-0.021	-0.167
-326.143	5.497	0.131	-0.095
-325.129	191.937	-0.075	-0.112
-324.114	287.036	-0.140	0.250
-323.099	71.128	0.231	0.236
-322.085	-96.023	0.154	-0.040
-321.070	-88.683	0.265	0.078
-320.056	-200.000	0.006	-0.118
-319.041	51.520	-0.037	0.035
-318.026	357.519	-0.086	0.169
-317.012	-171.489	0.232	0.008
-315.997	-200.000	0.025	-0.171
-314.983	800.000	0.039	0.158
-313.968	82.169	-0.097	-0.104
-312.953	50.949	-0.305	0.285
-311.939	65.603	-0.065	0.065
-310.924	-200.000	-0.069	-0.317
-309.910	-150.088	-0.354	0.027
-308.895	675.577	0.025	-0.064
-307.880	-37.441	0.332	0.174
-306.866	-200.000	0.006	0.311
-305.851	-85.887	-0.410	0.125
-304.837	117.850	0.022	-0.027
-303.822	800.000	-0.030	-0.123
-302.807	50.774	0.051	-0.048
-301.793	800.000	-0.077	-0.210
-300.778	-50.600	0.061	-0.028
-299.764	3.272	0.185	-0.133
-298.749	-24.489	0.358	0.210
-297.735	-37.643	-0.213	-0.112
-296.720	800.000	-0.022	-0.087
-295.705	-100.475	-0.166	0.040
-294.691	-185.407	0.160	0.002
-293.676	-21.214	0.130	-0.079
-292.662	10.441	-0.211	-0.158
-291.647	-130.007	0.299	-0.040
-290.632	33.481	-0.277	0.237
-289.618	800.000	0.032	0.110
-288.603	-200.000	-0.054	-0.297
-287.589	-112.518	0.231	-0.045
-286.574	127.415	0.120	-0.150
-285.559	-87.709	0.179	0.053
-284.545	-108.303	-0.183	0.039
-283.530	-100.192	0.155	0.038
-282.516	224.003	0.045	-0.072
-281.501	69.720	-0.248	0.252
-280.486	460.579	0.118	0.259
-279.472	33.770	0.127	0.108
-278.457	164.253	-0.241	0.335
-277.443	-57.964	0.079	0.034
-276.428	-53.702	0.115	-0.052
-275.413	-1.610	0.192	0.133
-274.399	653.831	0.057	-0.145
-273.384	-92.641	-0.070	0.019
-272.370	104.236	-0.102	0.118
-271.355	-200.000	0.062	0.455
-270.340	96.281	0.040	0.045
-269.326	-179.141	0.454	-0.010
-268.311	-178.366	0.224	-0.005
-267.297	-200.000	0.007	0.294
-266.282	-49.336	-0.110	0.052
-265.267	800.000	0.030	0.129
-264.253	800.000	0.043	-0.145
-263.238	779.210	0.047	0.127
-262.224	-107.205	0.250	-0.054
-261.209	-89.372	-0.140	0.040
-260.195	612.541	0.136	0.334
-259.180	-91.275	0.142	0.040
-258.165	-110.644	0.140	0.028
-257.151	-200.000	-0.082	0.366
-256.136	-200.000	-0.049	0.252
-255.122	800.000	0.056	-0.215
-254.107	-200.000	-0.010	0.176
-253.092	-141.388	-0.249	0.025
-252.078	-39.699	0.243	-0.125
-251.063	107.249	0.211	-0.247
-250.049	-145.561	0.235	-0.021
-249.034	200.326	-0.269	-0.407
-248.019	-9.902	-0.210	0.138
-247.005	-18.058	-0.337	-0.208
-245.990	-37.846	0.063	-0.033
-244.976	498.367	-0.058	-0.131
-243.961	-69.687	0.237	-0.089
-242.946	-114.534	-0.194	-0.037
-241.932	-200.000	0.009	-0.096
-240.917	404.673	-0.080	-0.166
-239.903	14.351	0.309	0.237
-238.888	76.263	-0.310	-0.323
-237.873	78.269	0.124	-0.130
-236.859	800.000	0.092	0.296
-235.844	-200.000	0.005	-0.153
-234.830	15.993	0.247	-0.191
-233.815	-123.846	0.215	-0.033
-232.800	207.691	-0.048	0.073
-231.786	-200.000	0.027	-0.155
-230.771	96.932	0.185	0.208
-229.757	-200.000	0.027	-0.381
-228.742	22.375	0.202	-0.162
-227.727	-200.000	-0.013	-0.262
-226.713	-138.212	0.247	-0.027
-225.698	-58.136	-0.329	0.141
-224.684	-80.973	-0.184	0.060
-223.669	2.351	-0.127	0.091
-222.655	-138.366	0.266	0.029
-221.640	146.061	0.186	-0.244
-220.625	-55.049	-0.235	-0.104
-219.611	-1.301	0.228	-0.158
-218.596	-142.649	-0.271	0.026
-217.582	402.168	0.122	-0.251
-216.567	188.557	0.086	-0.126
-215.552	-113.533	-0.212	-0.041
-214.538	23.734	-0.126	-0.102
-213.523	-82.979	0.105	-0.033
-212.509	-78.302	-0.254	-0.085
-211.494	35.950	-0.116	0.100
-210.479	4.431	-0.178	-0.128
-209.465	263.006	-0.023	0.039
-208.450	-103.109	-0.137	-0.032
-207.436	800.000	-0.075	-0.214
-206.421	-7.430	-0.418	-0.278
-205.406	-169.672	-0.197	0.007
-204.392	-200.000	-0.012	0.148
-203.377	296.499	0.229	0.411
-202.363	-107.473	0.374	-0.080
-201.348	-21.345	-0.196	0.118
-200.333	-143.840	0.245	-0.023
-199.319	-200.000	0.020	0.101
-198.304	-107.148	0.237	-0.051
-197.290	-194.574	-0.197	0.002
-196.275	-110.993	-0.465	0.094
-195.260	-117.692	-0.152	-0.027
-194.246	-4.669	0.150	-0.101
-193.231	31.402	-0.122	-0.103
-192.217	91.155	-0.196	-0.215
-191.202	800.000	-0.028	0.117
-190.187	-144.630	0.132	-0.012
-189.173	713.605	-0.035	0.092
-188.158	-94.969	0.309	0.082
-187.144	10.168	-0.280	-0.209
-186.129	-12.234	0.292	-0.187
-185.114	266.650	0.069	0.118
-184.100	-13.697	-0.185	0.117
-183.085	238.678	-0.096	0.156
-182.071	-154.727	-0.051	-0.003
-181.056	-82.190	0.139	0.045
-180.042	29.174	-0.198	-0.165
-179.027	-83.852	0.540	0.169
-178.012	146.094	-0.220	-0.289
-176.998	-57.923	-0.181	0.078
-175.983	-121.360	0.333	-0.054
-174.969	-150.744	0.139	-0.010
-173.954	-200.000	-0.018	0.087
-172.939	153.995	-0.139	-0.187
-171.925	730.886	0.187	0.491
-170.910	468.326	-0.092	0.202
-169.896	-150.548	-0.304	0.023
-168.881	261.286	0.174	-0.295
-167.866	-88.868	0.093	0.027
-166.852	-200.000	0.029	0.167
-165.837	140.883	0.136	-0.176
-164.823	81.305	0.180	0.191
-163.808	63.416	-0.096	-0.095
-162.793	586.780	0.148	0.357
-161.779	-7.471	-0.195	0.129
-160.764	-200.000	0.072	-0.371
-159.750	-27.725	-0.208	0.118
-158.735	-200.000	0.009	0.133
-157.720	-57.296	-0.307	0.132
-156.706	-136.910	-0.191	-0.021
-155.691	169.227	0.104	0.145
-154.677	562.198	-0.045	-0.106
-153.662	16.340	-0.268	0.207
-152.647	199.791	-0.148	0.222
-151.633	-178.173	-0.118	-0.003
-150.618	-55.300	-0.290	0.128
-149.604	313.765	0.063	-0.117
-148.589	599.096	-0.057	0.139
-147.574	-200.000	0.031	0.223
-146.560	148.342	-0.116	-0.154
-145.545	449.131	-0.058	-0.126
-144.531	-200.000	0.028	-0.204
-143.516	312.387	-0.126	-0.232
-142.502	-25.010	0.242	-0.141
-141.487	78.685	0.277	0.290
-140.472	-21.639	0.181	-0.108
-139.458	478.042	0.021	0.045
-138.443	-2.581	0.334	0.229
-137.429	-40.242	0.205	0.105
-136.414	-4.586	-0.128	0.087
-135.399	-67.246	-0.185	0.071
-134.385	-200.000	-0.049	0.252
-133.370	-155.227	0.115	0.007
-132.356	-90.302	0.340	0.097
-131.341	218.309	-0.260	0.406
-130.326	800.000	0.046	0.184
-129.312	-200.000	-0.008	-0.204
-128.297	373.865	0.058	0.115
-127.283	-51.018	-0.176	-0.081
-126.268	317.669	-0.090	-0.166
-125.253	-120.979	-0.235	0.039
-124.239	403.160	0.041	-0.084
-123.224	259.892	-0.089	-0.151
-122.210	245.671	-0.036	0.059
-121.195	310.616	-0.226	-0.414
-120.180	114.165	0.195	0.232
-119.166	200.731	0.104	-0.157
-118.151	-57.708	-0.421	0.180
-117.137	-170.016	-0.235	-0.008
-116.122	434.771	0.050	0.107
-115.107	-200.000	0.012	0.074
-114.093	150.062	0.219	0.291
-113.078	-85.415	0.207	0.063
-112.064	-2.804	-0.279	0.191
-111.049	-87.087	-0.283	0.084
-110.034	800.000	0.066	0.181
-109.020	-200.000	0.037	0.271
-108.005	234.287	0.089	-0.144
-106.991	40.524	0.129	0.113
-105.976	103.752	-0.163	-0.187
-104.962	302.038	0.137	0.248
-103.947	298.593	-0.079	-0.142
-102.932	800.000	-0.104	0.287
-101.918	-159.890	0.250	0.013
-100.903	-27.126	0.029	-0.017
-99.889	-82.058	-0.177	0.057
-98.874	-63.136	0.051	0.020
-97.859	-83.345	-0.147	-0.046
-96.845	112.805	-0.129	0.153
-95.830	-63.939	-0.212	-0.085
-94.816	315.465	-0.180	0.331
-93.801	-200.000	0.054	0.306
-92.786	-8.396	0.244	0.160
-91.772	-78.054	0.193	-0.065
-90.757	30.832	0.325	0.272
-89.743	11.465	0.421	-0.315
-88.728	-20.454	-0.156	0.094
-87.713	129.535	0.128	0.159
-86.699	-26.372	-0.246	-0.141
-85.684	413.798	0.106	-0.220
-84.670	-200.000	-0.002	-0.120
-83.655	18.977	0.189	-0.148
-82.640	-45.764	0.261	0.126
-81.626	74.277	-0.073	-0.074
-80.611	-200.000	0.044	-0.197
-79.597	-86.123	0.526	-0.159
-78.582	193.216	0.140	-0.206
-77.567	-40.979	-0.071	0.036
-76.553	-33.471	0.284	0.153
-75.538	54.827	-0.058	0.055
-74.524	58.689	0.183	0.176
-73.509	800.000	0.029	0.116
-72.494	-97.172	0.111	-0.028
-71.480	800.000	-0.040	-0.155
-70.465	49.862	-0.317	0.291
-69.451	-45.481	-0.076	-0.037
-68.436	293.076	-0.017	0.029
-67.422	-200.000	-0.017	0.158
-66.407	800.000	0.151	-0.442
-65.392	-134.832	0.178	0.021
-64.378	-69.699	-0.288	-0.107
-63.363	84.830	-0.044	-0.047
-62.349	-200.000	-0.048	0.426
-61.334	93.654	-1.222	-1.351
-60.319	405.755	0.486	1.001
-59.305	614.098	-0.453	-1.106
-58.290	318.639	0.691	1.276
-57.276	800.000	0.456	1.657
-56.261	-200.000	121.969	613.037
-55.246	394.783	1555.795	3163.707
-54.232	143.684	2718.309	3533.175
-53.217	94.090	2188.202	2421.684
-52.203	34.270	1704.648	1450.307
-51.188	26.881	1521.636	1244.094
-50.173	24.883	1498.034	1211.249
-49.159	47.384	1567.586	1424.572
-48.144	45.045	1580.234	1419.764
-47.130	26.933	1530.163	1251.231
-46.115	24.155	1514.148	1219.103
-45.100	24.021	1510.713	1215.369
-44.086	23.913	1508.982	1213.195
-43.071	23.849	1507.292	1211.354
-42.057	23.902	1505.737	1210.414
-41.042	23.897	1503.792	1208.770
-40.027	23.877	1502.844	1207.823
-39.013	23.852	1501.213	1206.295
-37.998	23.810	1499.778	1204.811
-36.984	23.805	1498.981	1204.087
-35.969	23.922	1496.843	1203.115
-34.954	23.823	1495.918	1201.655
-33.940	23.786	1494.940	1200.567
-32.925	23.879	1492.864	1199.484
-31.911	23.933	1492.029	1199.128
-30.896	23.923	1490.397	1197.701
-29.881	23.956	1489.315	1197.007
-28.867	23.858	1488.495	1195.639
-27.852	23.943	1486.447	1194.519
-26.838	23.973	1485.105	1193.592
-25.823	23.885	1483.585	1191.736
-24.809	23.975	1481.873	1190.917
-23.794	23.905	1480.779	1189.517
-22.779	23.903	1479.356	1188.319
-21.765	23.916	1478.469	1187.642
-20.750	23.966	1476.817	1186.602
-19.736	23.980	1476.064	1186.044
-18.721	23.891	1475.057	1184.593
-17.706	23.873	1474.151	1183.702
-16.692	23.950	1472.878	1183.142
-15.677	23.858	1472.726	1182.363
-14.663	23.889	1470.873	1181.033
-13.648	23.845	1470.313	1180.247
-12.633	23.757	1469.613	1179.052
-11.619	23.797	1468.642	1178.492
-10.604	23.914	1467.292	1178.140
-9.590	23.877	1466.482	1177.198
-8.575	23.847	1465.788	1176.396
-7.560	23.787	1464.626	1175.017
-6.546	23.814	1463.973	1174.627
-5.531	23.890	1463.010	1174.306
-4.517	23.856	1461.870	1173.119
-3.502	23.828	1460.994	1172.190
-2.487	23.792	1460.114	1171.196
-1.473	23.783	1459.332	1170.466
-0.458	23.886	1457.637	1169.737
0.556	22.315	1448.427	1159.630
1.571	19.618	1424.282	1122.691
2.586	16.492	1363.181	1054.956
3.600	15.136	1280.220	982.718
4.615	14.103	1237.121	943.691
5.629	12.197	1180.050	889.748
6.644	6.105	1097.116	796.354
7.659	1.038	1061.053	745.229
8.673	0.356	1055.908	738.209
9.688	0.168	1052.810	735.063
10.702	0.075	1051.626	733.718
11.717	0.251	1048.875	732.591
12.731	2.180	1050.095	742.763
13.746	8.784	1059.508	781.665
14.761	14.585	1067.133	815.655
15.775	16.601	1068.916	826.808
16.790	16.400	1067.170	824.404
17.804	15.423	1065.275	818.106
18.819	14.623	1063.678	812.911
19.834	14.273	1062.022	809.875
20.848	13.886	1061.430	807.470
21.863	13.718	1060.510	805.881
22.877	13.447	1059.604	803.805
23.892	13.272	1058.767	802.248
24.907	13.109	1058.095	800.880
25.921	13.182	1057.024	800.351
26.936	13.172	1056.870	800.114
27.950	13.173	1055.554	799.053
28.965	13.242	1055.352	799.163
29.980	13.184	1054.699	798.316
30.994	13.288	1053.374	797.744
32.009	13.428	1052.694	797.837
33.023	13.360	1051.933	796.860
34.038	13.378	1051.316	796.411
35.053	13.420	1050.133	795.646
36.067	13.347	1049.137	794.468
37.082	13.258	1048.580	793.551
38.096	13.348	1047.477	793.075
39.111	13.388	1047.088	792.905
40.126	13.352	1046.116	791.925
41.140	13.237	1045.054	790.500
42.155	13.291	1043.265	789.337
43.169	13.185	1043.087	788.627
44.184	13.216	1041.905	787.808
45.199	13.211	1040.721	786.822
46.213	13.070	1040.325	785.782
47.228	13.063	1038.983	784.664
48.242	13.174	1037.727	784.171
49.257	13.328	1036.714	784.066
50.271	13.260	1035.817	783.001
51.286	13.371	1034.718	782.623
52.301	13.263	1034.276	781.710
53.315	13.308	1033.393	781.185
54.330	13.265	1032.724	780.406
55.344	13.230	1031.769	779.453
56.359	13.237	1030.727	778.627
57.374	13.182	1030.002	777.756
58.388	13.248	1028.649	776.971
59.403	13.203	1028.007	776.210
60.417	13.101	1027.127	774.995
61.432	13.134	1026.745	774.794
62.447	13.025	1025.992	773.647
63.461	13.152	1024.828	773.297
64.476	13.218	1023.890	772.827
65.490	13.206	1022.862	771.926
66.505	13.236	1022.211	771.506
67.520	13.195	1021.250	770.522
68.534	13.258	1020.712	770.342
69.549	13.177	1020.115	769.449
70.563	13.121	1019.043	768.309
71.578	13.138	1018.489	767.901
72.593	13.154	1017.514	767.172
73.607	13.005	1016.855	765.918
74.622	13.026	1015.887	765.220
75.636	13.187	1014.660	764.972
76.651	13.058	1014.078	763.867
77.666	13.095	1013.301	763.388
78.680	13.030	1012.577	762.472
79.695	13.066	1012.296	762.360
80.709	13.284	1011.468	762.674
81.724	13.088	1010.906	761.280
82.739	13.171	1010.193	761.057
83.753	13.312	1008.784	760.575
84.768	13.232	1008.350	759.816
85.782	13.329	1008.059	759.975
86.797	13.371	1006.911	759.237
87.812	13.350	1006.221	758.553
88.826	13.207	1005.314	757.147
89.841	13.238	1004.224	756.397
90.855	13.311	1003.355	756.011
91.870	13.296	1002.738	755.413
92.884	13.456	1001.673	755.273
93.899	13.292	1001.204	754.105
94.914	13.460	1000.368	754.173
95.928	13.490	999.405	753.517
96.943	13.424	999.210	753.004
97.957	13.447	998.112	752.213
98.972	13.489	997.245	751.682
99.987	13.418	996.566	750.785
101.001	13.391	996.062	750.214
102.016	13.392	995.402	749.656
103.030	13.294	994.403	748.392
104.045	13.468	992.984	748.044
105.060	13.456	992.296	747.407
106.074	13.444	991.063	746.359
107.089	13.387	990.447	745.574
108.103	13.320	989.835	744.745
109.118	13.182	989.231	743.603
110.133	13.234	987.986	742.836
111.147	13.309	986.948	742.326
112.162	13.323	986.139	741.712
113.176	13.281	985.273	740.809
114.191	13.225	984.263	739.734
115.206	13.363	983.698	739.860
116.220	13.340	982.920	739.108
117.235	13.322	981.944	738.225
118.249	13.382	981.152	737.833
119.264	13.337	979.861	736.596
120.279	13.413	979.287	736.439
121.293	13.182	978.873	735.034
122.308	13.208	977.875	734.336
123.322	13.308	976.978	734.043
124.337	13.199	976.165	732.881
125.352	13.299	974.695	732.155
126.366	13.311	973.655	731.362
127.381	13.220	972.779	730.237
128.395	13.279	971.631	729.574
129.410	13.303	970.622	728.858
130.424	13.192	969.977	727.819
131.439	13.313	968.912	727.486
132.454	13.345	967.996	726.877
133.468	13.411	967.276	726.560
134.483	13.318	966.876	725.788
135.497	13.286	966.061	724.971
136.512	13.292	965.461	724.484
137.527	13.246	964.622	723.588
138.541	13.339	963.344	722.972
139.556	13.307	963.073	722.566
140.570	13.383	962.191	722.170
141.585	13.411	961.350	721.598
142.600	13.444	960.698	721.190
143.614	13.500	960.012	720.855
144.629	13.501	958.981	720.020
145.643	13.606	958.109	719.757
146.658	13.536	957.432	718.881
147.673	13.536	956.640	718.224
148.687	13.393	956.044	717.094
149.702	13.427	954.887	716.307
150.716	13.422	953.680	715.316
151.731	13.448	952.881	714.770
152.746	13.487	952.177	714.344
153.760	13.447	951.471	713.580
154.775	13.379	950.917	712.807
155.789	13.316	949.962	711.756
156.804	13.576	949.244	712.276
157.819	13.630	947.936	711.463
158.833	13.653	947.843	711.427
159.848	13.638	946.866	710.568
160.862	13.560	946.367	709.798
161.877	13.639	945.730	709.595
162.892	13.643	944.833	708.874
163.906	13.566	944.039	707.885
164.921	13.670	943.132	707.588
165.935	13.423	942.285	705.839
166.950	13.580	940.904	705.409
167.964	13.500	940.256	704.519
168.979	13.685	939.414	704.613
169.994	13.749	938.229	703.932
171.008	13.654	937.887	703.212
172.023	13.727	936.395	702.339
173.037	13.807	935.847	702.205
174.052	13.728	934.884	701.085
175.067	13.661	934.411	700.388
176.081	13.673	933.684	699.830
177.096	13.660	933.044	699.234
178.110	13.733	931.964	698.670
179.125	13.765	931.297	698.244
180.140	13.738	930.518	697.484
181.154	13.755	929.784	696.943
182.169	13.660	929.748	696.454
183.183	13.753	928.945	696.182
184.198	13.867	927.839	695.772
185.213	13.850	927.451	695.347
186.227	13.863	926.614	694.712
187.242	13.890	926.219	694.466
188.256	13.900	925.575	693.967
189.271	13.925	924.908	693.508
190.286	13.932	924.015	692.806
191.300	13.858	923.442	692.006
192.315	13.763	922.640	690.948
193.329	13.857	921.819	690.664
194.344	13.752	921.322	689.793
195.359	13.869	920.702	689.756
196.373	13.739	920.655	689.120
197.388	13.964	919.794	689.347
198.402	14.002	919.315	689.083
199.417	13.983	918.768	688.536
200.432	13.932	918.605	688.141
201.446	14.107	917.752	688.165
202.461	14.169	917.110	687.878
203.475	14.241	916.710	687.815
204.490	14.127	916.113	686.837
205.504	14.200	915.032	686.265
206.519	14.123	914.549	685.524
207.534	14.118	913.448	684.621
208.548	14.093	913.009	684.128
209.563	14.107	912.241	683.548
210.577	14.137	911.870	683.331
211.592	14.108	910.931	682.448
212.607	14.113	910.653	682.202
213.621	14.322	909.951	682.472
214.636	14.396	908.797	681.849
215.650	14.376	908.458	681.452
216.665	14.450	907.424	680.919
217.680	14.346	907.606	680.570
218.694	14.213	907.325	679.757
219.709	14.315	906.514	679.505
220.723	14.470	905.683	679.453
221.738	14.424	904.931	678.643
222.753	14.303	904.423	677.708
223.767	14.357	903.665	677.300
224.782	14.398	902.818	676.770
225.796	14.387	902.168	676.178
226.811	14.550	901.266	676.104
227.826	14.563	900.853	675.787
228.840	14.534	899.966	674.946
229.855	14.473	899.445	674.248
230.869	14.503	898.522	673.619
231.884	14.406	898.001	672.776
232.899	14.563	897.134	672.699
233.913	14.409	896.410	671.476
234.928	14.450	895.690	671.042
235.942	14.427	895.326	670.618
236.957	14.378	894.754	669.932
237.972	14.504	893.596	669.511
238.986	14.432	893.270	668.922
240.001	14.492	892.416	668.462
241.015	14.611	891.509	668.200
242.030	14.439	891.174	667.203
243.045	14.532	890.403	666.938
244.059	14.578	890.071	666.815
245.074	14.664	889.315	666.532
246.088	14.716	888.689	666.211
247.103	14.667	888.388	665.730
248.117	14.695	887.291	664.961
249.132	14.666	887.050	664.609
250.147	14.738	886.521	664.437
251.161	14.739	885.793	663.837
252.176	14.785	884.912	663.303
253.190	14.769	884.200	662.645
254.205	14.983	883.020	662.551
255.220	14.943	882.767	662.145
256.234	14.931	882.159	661.582
257.249	14.950	881.366	661.005
258.263	15.048	881.058	661.100
259.278	15.025	880.268	660.359
260.293	14.976	879.967	659.881
261.307	15.092	879.466	659.905
262.322	15.078	879.001	659.441
263.336	15.190	878.313	659.307
264.351	15.131	877.838	658.660
265.366	15.158	877.019	658.094
266.380	15.140	876.235	657.378
267.395	15.063	875.672	656.595
268.409	15.082	875.095	656.179
269.424	15.074	874.430	655.591
270.439	14.990	873.556	654.547
271.453	15.230	872.627	654.731
272.468	15.108	872.146	653.836
273.482	15.204	871.621	653.759
274.497	15.133	871.520	653.350
275.512	15.153	870.429	652.553
276.526	15.184	869.637	652.023
277.541	15.297	868.596	651.624
278.555	15.099	868.704	650.875
279.570	15.370	867.761	651.164
280.585	15.313	867.287	650.528
281.599	15.363	866.725	650.242
282.614	15.351	866.031	649.621
283.628	15.421	865.120	649.151
284.643	15.431	864.701	648.818
285.657	15.286	864.460	648.019
286.672	15.303	864.091	647.750
287.687	15.278	863.498	647.149
288.701	15.522	862.324	647.153
289.716	15.414	862.187	646.579
290.730	15.511	861.494	646.373
291.745	15.579	860.701	645.985
292.760	15.515	860.081	645.216
293.774	15.539	859.400	644.738
294.789	15.453	858.972	644.034
295.803	15.728	858.145	644.409
296.818	15.563	857.741	643.416
297.833	15.588	857.066	642.947
298.847	15.576	856.584	642.482
299.862	15.496	855.839	641.565
300.876	15.666	855.115	641.611
301.891	15.664	854.670	641.214
302.906	15.636	853.935	640.500
303.920	15.670	853.503	640.248
304.935	15.812	852.437	639.930
305.949	15.959	851.994	640.102
306.964	15.722	851.469	638.748
307.979	15.850	850.875	638.732
308.993	15.774	850.381	638.017
310.008	15.814	849.697	637.599
311.022	15.891	849.520	637.702
312.037	15.776	848.943	636.779
313.052	15.926	848.121	636.672
314.066	15.833	847.494	635.796
315.081	15.796	847.354	635.494
316.095	15.810	846.405	634.777
317.110	15.827	845.839	634.362
318.125	15.691	845.580	633.599
319.139	15.960	844.531	633.769
320.154	15.747	844.673	633.015
321.168	15.903	844.247	633.227
322.183	15.830	843.556	632.379
323.197	15.855	843.002	632.003
324.212	16.071	842.206	632.162
325.227	15.929	841.729	631.215
326.241	15.948	841.439	631.013
327.256	15.994	840.736	630.600
328.270	16.055	840.097	630.293
329.285	16.121	839.084	629.722
330.300	16.012	838.684	628.964
331.314	15.942	838.354	628.399
332.329	15.913	837.901	627.893
333.343	15.989	837.282	627.658
334.358	16.134	836.060	627.225
335.373	16.113	835.835	626.923
336.387	16.023	835.532	626.308
337.402	16.118	834.825	626.075
338.416	16.081	834.411	625.572
339.431	16.308	833.697	625.821
340.446	16.154	833.438	625.001
341.460	16.437	832.152	625.029
342.475	16.231	832.495	624.468
343.489	16.330	831.601	624.110
344.504	16.246	831.182	623.428
345.519	16.276	830.672	623.103
346.533	16.374	830.041	622.936
347.548	16.382	829.606	622.581
348.562	16.396	828.566	621.798
349.577	16.420	828.353	621.673
350.592	16.367	827.868	621.059
351.606	16.389	827.420	620.747
352.621	16.469	826.742	620.478
353.635	16.275	826.677	619.660
354.650	16.334	826.058	619.358
355.665	16.539	825.783	619.850
356.679	16.467	825.046	618.977
357.694	16.384	824.864	618.482
358.708	16.508	824.111	618.317
359.723	16.528	823.354	617.769
360.738	16.569	822.863	617.493
361.752	16.592	822.262	617.074
362.767	16.534	822.164	616.731
363.781	16.622	821.767	616.701
364.796	16.663	821.091	616.288
365.810	16.651	820.809	615.979
366.825	16.687	820.336	615.699
367.840	16.662	819.897	615.225
368.854	16.727	819.460	615.077
369.869	16.751	818.946	614.727
370.883	16.674	818.477	614.040
371.898	16.751	817.678	613.666
372.913	16.835	817.029	613.428
373.927	16.827	816.790	613.166
374.942	16.838	815.828	612.427
375.956	16.894	815.049	611.991
376.971	16.971	814.459	611.772
377.986	16.888	814.588	611.515
379.000	16.899	813.886	610.975
380.015	16.841	813.393	610.340
381.029	16.976	812.769	610.304
382.044	17.082	812.103	610.130
383.059	16.924	811.943	609.388
384.073	17.082	810.883	609.108
385.088	16.994	810.574	608.506
386.102	16.991	810.313	608.245
387.117	16.849	809.835	607.323
388.132	16.920	809.367	607.174
389.146	17.049	809.012	607.316
390.161	17.002	808.404	606.635
391.175	16.979	808.482	606.561
392.190	17.068	807.723	606.254
393.205	17.271	807.017	606.395
394.219	17.202	806.480	605.691
395.234	16.937	806.478	604.691
396.248	17.106	805.616	604.593
397.263	17.016	804.957	603.726
398.278	17.126	804.538	603.749
399.292	16.975	804.542	603.162
400.307	16.935	804.373	602.840
401.321	17.104	803.615	602.817
402.336	17.040	803.133	602.177
403.350	17.230	802.668	602.446
404.365	17.050	802.594	601.699
405.380	17.271	801.915	601.921
406.394	17.376	801.254	601.745
407.409	17.360	800.625	601.161
408.423	17.442	800.216	601.091
409.438	17.413	800.072	600.828
410.453	17.189	799.688	599.694
411.467	17.390	799.123	599.927
412.482	17.484	798.725	599.907
413.496	17.400	797.656	598.754
414.511	17.474	797.855	599.112
415.526	17.494	797.189	598.629
416.540	17.545	797.116	598.702
417.555	17.530	796.530	598.154
418.569	17.436	796.286	597.586
419.584	17.566	795.504	597.405
420.599	17.564	795.008	596.973
421.613	113.322	1296.953	1486.426
422.628	97.538	1370.042	1486.516
