DTS Sentinel unit serial number:	SN413079Multiplexer serial number:	ORYXHardware model number:	OX4-SRSoftware version number:	ORYX F/W v4.00 Oryx Data Collector v3.7.2.0data status	okinstallation	princeton_trtdifferential loss correction	single-endedforward channel	channel 3reverse channel	N/Adate	2019/09/15time	20:52:34forward acquisition time	60.00reverse acquisition time	0.00gamma	496.2192k internal	0.2326k external	0.2326temperature offset calibration	0.9937default loss term (dB/km)	0.3790temperature slope calibration	1.0000multiplexer offset coefficient	1.0000multiplexer slope coefficient	1.0000fibre end	0.00T internal ref (°C)	32.19T ext. ref 1 (°C)	8.00T ext. ref 2 (°C)	24.42length (m)	temperature (°C)	Stokes	anti-Stokes-747.200	-9.578	0.121	0.081
-746.185	234.952	0.375	0.624
-745.171	717.766	-0.037	0.100
-744.156	8.014	-0.116	0.088
-743.142	-51.291	0.108	-0.051
-742.127	-115.959	-0.372	0.070
-741.112	800.000	0.070	0.277
-740.098	-200.000	-0.010	0.208
-739.083	800.000	0.034	0.126
-738.069	-149.883	0.268	0.021
-737.054	-57.760	-0.068	0.030
-736.039	-82.355	-0.219	-0.072
-735.025	97.913	0.130	0.151
-734.010	87.907	0.115	-0.128
-732.996	-136.251	-0.248	-0.029
-731.981	54.136	-0.126	-0.122
-730.966	-74.740	-0.161	-0.058
-729.952	630.750	-0.078	0.198
-728.937	-20.424	-0.354	-0.219
-727.923	164.786	-0.058	-0.082
-726.908	-53.618	-0.219	-0.101
-725.894	61.664	0.046	-0.046
-724.879	88.256	0.189	-0.211
-723.864	-67.312	0.309	0.122
-722.850	100.142	-0.213	-0.248
-721.835	250.867	-0.068	-0.117
-720.821	92.513	-0.157	-0.179
-719.806	130.425	0.081	0.105
-718.791	316.627	-0.108	0.206
-717.777	-35.679	-0.087	0.048
-716.762	-128.200	-0.290	-0.042
-715.748	-26.664	-0.091	0.054
-714.733	-68.426	-0.197	0.077
-713.718	-94.152	0.232	0.064
-712.704	-200.000	0.039	-0.569
-711.689	-200.000	-0.093	-0.495
-710.675	22.950	0.056	-0.046
-709.660	-200.000	0.009	0.166
-708.645	800.000	0.052	0.176
-707.631	39.767	-0.190	-0.172
-706.616	-200.000	0.002	0.295
-705.602	193.863	0.141	-0.215
-704.587	10.113	-0.157	0.120
-703.572	-200.000	0.002	-0.259
-702.558	4.569	0.189	0.140
-701.543	18.042	-0.265	0.213
-700.529	800.000	-0.053	-0.217
-699.514	626.453	0.052	-0.133
-698.499	-66.818	0.183	0.073
-697.485	692.670	-0.082	-0.217
-696.470	-50.585	-0.433	-0.206
-695.456	-200.000	-0.017	0.147
-694.441	461.705	-0.116	-0.261
-693.426	800.000	-0.072	0.236
-692.412	-101.409	-0.058	-0.014
-691.397	113.264	0.226	-0.276
-690.383	-41.633	0.179	-0.093
-689.368	331.374	-0.120	0.233
-688.354	-132.264	0.642	0.084
-687.339	359.343	-0.133	0.267
-686.324	136.119	0.021	-0.028
-685.310	128.172	0.137	-0.175
-684.295	417.300	0.101	0.216
-683.281	86.034	-0.314	0.347
-682.266	-200.000	0.008	0.164
-681.251	21.236	-0.138	-0.113
-680.237	-200.000	0.017	-0.093
-679.222	-42.923	-0.083	-0.043
-678.208	-53.242	-0.126	0.058
-677.193	-200.000	-0.048	0.260
-676.178	165.727	0.045	-0.063
-675.164	-63.760	-0.031	-0.013
-674.149	-20.016	0.089	-0.055
-673.135	-200.000	0.039	-0.203
-672.120	475.395	-0.199	-0.452
-671.105	-142.525	-0.406	0.040
-670.091	228.096	-0.110	-0.180
-669.076	-81.541	-0.371	-0.123
-668.062	306.444	0.063	-0.117
-667.047	-200.000	-0.003	0.224
-666.032	70.073	0.241	0.250
-665.018	800.000	0.052	-0.201
-664.003	278.108	0.091	-0.163
-662.989	-200.000	0.049	-0.220
-661.974	-200.000	-0.024	-0.170
-660.959	800.000	0.040	-0.134
-659.945	12.558	0.240	-0.186
-658.930	114.447	0.118	0.145
-657.916	-200.000	-0.057	0.433
-656.901	800.000	-0.043	-0.171
-655.886	-200.000	-0.008	0.058
-654.872	-200.000	-0.000	-0.125
-653.857	-200.000	0.011	-0.282
-652.843	-200.000	-0.012	0.093
-651.828	112.398	0.117	-0.142
-650.814	-108.177	0.102	0.022
-649.799	116.664	-0.146	-0.180
-648.784	-48.079	-0.126	0.061
-647.770	457.219	0.084	-0.188
-646.755	-200.000	0.029	0.416
-645.741	211.799	0.140	0.222
-644.726	-156.011	0.525	0.033
-643.711	311.036	-0.119	0.225
-642.697	800.000	-0.108	0.394
-641.682	-200.000	0.029	0.151
-640.668	800.000	0.041	0.143
-639.653	7.660	-0.223	0.168
-638.638	120.135	0.078	0.097
-637.624	-47.384	0.369	-0.180
-636.609	18.979	-0.182	0.146
-635.595	587.570	-0.120	0.297
-634.580	-20.894	0.163	0.100
-633.565	124.116	-0.201	0.253
-632.551	229.443	-0.136	-0.223
-631.536	-93.569	0.202	-0.056
-630.522	-133.451	0.092	-0.012
-629.507	-96.664	-0.115	-0.030
-628.492	80.757	0.147	-0.160
-627.478	800.000	0.135	0.376
-626.463	-21.395	0.136	0.083
-625.449	84.005	-0.116	0.127
-624.434	-123.464	0.157	-0.025
-623.419	-91.824	0.375	-0.107
-622.405	668.965	0.056	0.145
-621.390	-132.177	-0.247	0.032
-620.376	183.169	-0.204	-0.302
-619.361	686.330	0.078	-0.204
-618.346	262.256	-0.080	-0.139
-617.332	-116.411	-0.094	0.017
-616.317	-80.735	0.313	-0.104
-615.303	171.388	-0.124	-0.178
-614.288	-109.161	-0.295	-0.063
-613.273	27.367	-0.277	-0.233
-612.259	-200.000	-0.034	0.182
-611.244	235.243	-0.016	-0.027
-610.230	-16.964	-0.110	0.070
-609.215	-5.059	0.051	0.035
-608.201	-100.024	-0.249	0.062
-607.186	-200.000	0.009	0.069
-606.171	-47.418	-0.299	-0.146
-605.157	10.128	-0.171	-0.130
-604.142	-191.908	-0.268	-0.003
-603.128	-108.878	-0.371	0.079
-602.113	-126.171	0.037	-0.006
-601.098	-200.000	0.025	0.313
-600.084	421.839	-0.022	-0.046
-599.069	681.238	-0.052	0.136
-598.055	175.399	0.129	-0.187
-597.040	365.350	-0.060	-0.121
-596.025	-95.262	0.183	0.049
-595.011	-200.000	-0.013	0.097
-593.996	-18.373	-0.109	-0.068
-592.982	371.132	0.259	-0.527
-591.967	509.152	0.062	0.144
-590.952	-37.382	-0.117	-0.063
-589.938	-200.000	-0.041	0.313
-588.923	-200.000	-0.015	0.214
-587.909	800.000	-0.024	-0.079
-586.894	-200.000	-0.025	0.126
-585.879	-200.000	-0.037	0.169
-584.865	277.510	0.210	0.375
-583.850	-16.862	-0.218	-0.138
-582.836	-50.568	0.075	0.036
-581.821	116.307	-0.072	-0.089
-580.806	-200.000	-0.026	0.385
-579.792	-165.996	-0.162	-0.007
-578.777	28.242	0.091	0.077
-577.763	-85.734	-0.104	-0.032
-576.748	-93.237	0.216	0.060
-575.733	392.974	0.203	0.422
-574.719	-200.000	-0.016	-0.140
-573.704	-24.567	-0.272	-0.162
-572.690	800.000	0.007	-0.024
-571.675	-200.000	-0.020	-0.195
-570.661	-70.126	0.237	-0.090
-569.646	-51.158	0.209	0.098
-568.631	-105.769	-0.133	-0.030
-567.617	223.519	-0.134	-0.216
-566.602	-4.404	0.188	-0.130
-565.588	-179.215	-0.162	0.004
-564.573	138.268	0.256	-0.337
-563.558	-125.562	-0.233	-0.035
-562.544	713.790	0.052	0.139
-561.529	-103.953	-0.122	0.029
-560.515	-200.000	-0.017	-0.139
-559.500	-93.643	-0.115	0.032
-558.485	58.704	0.090	-0.089
-557.471	-143.064	0.154	-0.015
-556.456	-110.589	-0.254	0.053
-555.442	205.507	-0.159	0.247
-554.427	-104.905	0.140	0.032
-553.412	-173.371	-0.194	-0.006
-552.398	-200.000	0.011	0.130
-551.383	-200.000	0.014	-0.108
-550.369	38.597	-0.074	-0.066
-549.354	-86.191	0.331	-0.102
-548.339	167.147	-0.051	0.073
-547.325	-85.565	-0.173	-0.054
-546.310	800.000	-0.016	-0.062
-545.296	-200.000	-0.090	-0.397
-544.281	-106.975	0.299	-0.066
-543.266	-125.960	-0.420	0.063
-542.252	-140.549	-0.168	0.017
-541.237	148.951	-0.145	0.196
-540.223	75.813	0.197	0.208
-539.208	-105.332	-0.092	0.021
-538.193	-200.000	0.063	-0.421
-537.179	215.304	-0.139	0.221
-536.164	-28.523	-0.250	0.144
-535.150	-14.226	-0.006	0.004
-534.135	47.160	0.212	0.197
-533.121	-67.187	-0.060	-0.024
-532.106	-115.344	-0.332	-0.063
-531.091	-89.149	0.083	-0.025
-530.077	26.176	0.137	0.115
-529.062	611.140	0.161	0.402
-528.048	-105.475	0.105	0.024
-527.033	-120.833	0.094	-0.016
-526.018	-49.388	0.212	-0.101
-525.004	-200.000	0.009	0.064
-523.989	-62.702	-0.090	-0.037
-522.975	-200.000	0.001	-0.062
-521.960	96.324	0.182	0.208
-520.945	45.585	-0.096	-0.089
-519.931	31.794	-0.087	-0.074
-518.916	-138.578	-0.062	-0.007
-517.902	-65.929	-0.275	0.110
-516.887	-117.969	0.282	-0.051
-515.872	-160.642	-0.509	0.027
-514.858	-200.000	-0.000	-0.391
-513.843	145.995	-0.273	-0.366
-512.829	402.988	0.105	-0.221
-511.814	76.824	-0.042	0.044
-510.799	-13.247	0.074	-0.048
-509.785	800.000	-0.094	0.279
-508.770	297.091	0.054	0.098
-507.756	337.748	-0.173	-0.335
-506.741	800.000	0.085	0.317
-505.726	-200.000	-0.004	0.172
-504.712	15.268	0.166	-0.130
-503.697	68.819	-0.182	-0.187
-502.683	112.182	0.167	-0.202
-501.668	15.805	0.242	0.190
-500.653	-4.579	-0.314	-0.217
-499.639	-96.392	-0.166	-0.044
-498.624	-123.808	-0.127	-0.020
-497.610	-48.760	-0.098	0.047
-496.595	-200.000	-0.005	0.283
-495.581	247.453	0.076	-0.127
-494.566	68.122	-0.173	0.177
-493.551	269.686	-0.082	0.145
-492.537	800.000	0.031	0.087
-491.522	-25.879	-0.156	-0.092
-490.508	377.329	-0.036	0.073
-489.493	-6.425	0.131	0.089
-488.478	84.305	-0.185	0.201
-487.464	114.411	-0.150	-0.183
-486.449	476.751	0.049	-0.110
-485.435	-200.000	0.054	-0.393
-484.420	-32.661	-0.073	-0.041
-483.405	-77.198	-0.192	0.067
-482.391	332.661	0.088	-0.170
-481.376	-183.294	0.099	0.002
-480.362	800.000	0.110	-0.411
-479.347	-104.462	0.233	0.054
-478.332	800.000	0.015	-0.056
-477.318	-200.000	0.007	-0.099
-476.303	-196.618	-0.192	-0.001
-475.289	-32.491	0.206	0.114
-474.274	-110.176	-0.187	0.039
-473.259	-200.000	-0.037	-0.376
-472.245	-62.943	-0.107	0.044
-471.230	-7.404	0.237	-0.160
-470.216	58.212	0.049	0.048
-469.201	-33.464	0.272	0.150
-468.186	270.596	0.062	0.109
-467.172	800.000	0.057	-0.185
-466.157	-112.222	0.240	-0.048
-465.143	-200.000	0.014	0.079
-464.128	-200.000	-0.013	-0.122
-463.113	212.163	0.097	0.153
-462.099	66.777	0.087	-0.089
-461.084	-156.480	0.133	0.008
-460.070	-200.000	-0.422	0.001
-459.055	130.628	-0.125	-0.160
-458.040	88.459	0.030	0.033
-457.026	-64.522	-0.155	0.063
-456.011	-175.469	0.297	0.008
-454.997	410.773	0.111	0.235
-453.982	-167.309	0.057	0.002
-452.968	-200.000	0.011	-0.129
-451.953	-200.000	-0.016	0.125
-450.938	-102.901	-0.228	0.054
-449.924	240.159	-0.193	0.321
-448.909	-92.354	-0.126	0.035
-447.895	-1.861	0.018	0.013
-446.880	-59.273	0.037	-0.016
-445.865	0.368	0.075	-0.053
-444.851	-177.091	-0.252	-0.006
-443.836	-46.536	0.257	-0.126
-442.822	-166.073	0.228	-0.010
-441.807	347.223	-0.091	-0.178
-440.792	543.572	0.114	0.270
-439.778	800.000	-0.042	0.115
-438.763	-71.978	-0.304	-0.113
-437.749	-23.614	0.301	0.180
-436.734	112.875	0.059	-0.071
-435.719	-27.925	0.073	0.042
-434.705	476.481	-0.095	-0.215
-433.690	-47.760	0.089	-0.043
-432.676	-200.000	0.002	0.087
-431.661	-200.000	-0.029	0.157
-430.646	78.204	-0.199	0.212
-429.632	-200.000	0.014	-0.192
-428.617	-200.000	0.009	-0.118
-427.603	320.774	-0.192	-0.364
-426.588	-200.000	0.008	-0.286
-425.573	800.000	-0.037	-0.104
-424.559	-200.000	-0.010	-0.081
-423.544	177.250	-0.114	-0.165
-422.530	456.469	-0.015	-0.033
-421.515	576.560	-0.125	-0.304
-420.500	37.501	0.198	0.175
-419.486	45.883	-0.133	0.123
-418.471	-26.743	0.187	-0.109
-417.457	-147.571	0.206	-0.017
-416.442	38.738	-0.180	-0.160
-415.428	-142.139	0.103	0.010
-414.413	95.516	-0.138	0.157
-413.398	-200.000	-0.009	0.127
-412.384	-200.000	0.046	0.294
-411.369	232.612	0.109	0.178
-410.355	-200.000	0.039	-0.253
-409.340	106.136	-0.285	-0.336
-408.325	-200.000	0.016	-0.317
-407.311	37.437	0.338	-0.299
-406.296	-2.036	0.232	-0.162
-405.282	200.998	-0.006	-0.009
-404.267	-40.131	0.129	0.067
-403.252	-110.349	0.230	-0.048
-402.238	800.000	-0.088	0.268
-401.223	-0.727	-0.302	-0.213
-400.209	276.637	0.026	0.045
-399.194	-200.000	0.026	0.121
-398.179	677.289	-0.085	-0.220
-397.165	24.333	-0.257	0.211
-396.150	-200.000	0.028	-0.188
-395.136	-4.676	-0.217	-0.149
-394.121	-200.000	0.008	-0.212
-393.106	18.331	0.128	-0.102
-392.092	14.322	-0.213	0.166
-391.077	-200.000	-0.038	0.308
-390.063	-200.000	0.033	0.707
-389.048	-200.000	0.031	-0.214
-388.033	241.222	-0.095	-0.158
-387.019	800.000	0.080	0.323
-386.004	-79.216	0.235	0.079
-384.990	146.893	-0.181	-0.243
-383.975	-158.775	-0.129	-0.007
-382.960	-81.802	-0.113	0.037
-381.946	-106.419	-0.207	0.046
-380.931	-200.000	-0.069	0.374
-379.917	8.734	-0.180	-0.135
-378.902	-103.994	-0.117	-0.027
-377.888	109.574	-0.114	-0.135
-376.873	-200.000	-0.046	0.301
-375.858	800.000	-0.068	0.252
-374.844	-152.797	0.090	-0.006
-373.829	-103.356	-0.338	0.079
-372.815	159.551	0.049	0.067
-371.800	-200.000	-0.008	-0.072
-370.785	-200.000	-0.046	-0.306
-369.771	-105.391	0.228	-0.052
-368.756	-133.233	-0.249	-0.031
-367.742	800.000	0.035	0.095
-366.727	-103.578	0.099	0.023
-365.712	-3.433	-0.086	-0.060
-364.698	169.810	-0.082	-0.117
-363.683	193.640	-0.048	0.072
-362.669	372.518	0.153	-0.309
-361.654	-32.047	-0.351	0.195
-360.639	800.000	0.119	0.375
-359.625	27.839	0.212	0.177
-358.610	-92.521	-0.303	0.084
-357.596	-25.436	0.010	-0.006
-356.581	-200.000	-0.012	-0.462
-355.566	800.000	0.004	0.013
-354.552	-200.000	0.011	-0.071
-353.537	188.267	-0.132	-0.197
-352.523	-147.733	0.214	0.018
-351.508	-155.099	-0.297	-0.019
-350.493	-193.629	0.146	0.001
-349.479	800.000	-0.073	-0.288
-348.464	8.200	0.050	0.038
-347.450	800.000	-0.143	-0.419
-346.435	-107.730	0.164	0.035
-345.420	13.428	0.247	0.190
-344.406	-132.614	0.278	-0.035
-343.391	-200.000	0.004	-0.341
-342.377	-200.000	-0.016	-0.125
-341.362	-137.842	-0.275	-0.031
-340.348	-200.000	-0.057	-0.263
-339.333	-65.224	0.078	0.031
-338.318	425.023	0.111	0.236
-337.304	459.635	-0.038	0.083
-336.289	-179.218	-0.045	-0.001
-335.275	12.996	0.059	-0.045
-334.260	13.611	-0.053	-0.041
-333.245	-200.000	-0.007	0.288
-332.231	-36.995	-0.222	0.118
-331.216	-134.405	0.380	-0.046
-330.202	-172.774	-0.261	-0.008
-329.187	502.981	0.096	-0.221
-328.172	800.000	-0.037	0.149
-327.158	800.000	0.090	-0.302
-326.143	172.549	0.047	0.067
-325.129	-200.000	0.020	0.231
-324.114	-200.000	0.017	0.325
-323.099	-128.828	-0.128	-0.018
-322.085	-144.282	-0.586	0.054
-321.070	-111.557	-0.423	0.085
-320.056	316.621	0.053	0.099
-319.041	-95.192	0.059	0.016
-318.026	-90.525	0.294	-0.084
-317.012	800.000	-0.111	0.310
-315.997	-71.932	-0.163	-0.060
-314.983	800.000	-0.065	0.261
-313.968	244.972	0.028	-0.047
-312.953	11.722	-0.185	0.141
-311.939	800.000	-0.061	0.260
-310.924	68.343	0.143	0.145
-309.910	11.050	-0.138	-0.105
-308.895	-47.336	-0.102	-0.049
-307.880	-200.000	-0.002	0.226
-306.866	-177.654	-0.057	-0.001
-305.851	-200.000	-0.027	0.251
-304.837	44.261	-0.089	0.081
-303.822	800.000	-0.125	0.373
-302.807	-200.000	-0.002	0.018
-301.793	-113.626	-0.185	-0.036
-300.778	-200.000	-0.017	0.235
-299.764	-200.000	0.042	0.276
-298.749	-200.000	-0.044	0.459
-297.735	40.527	-0.220	0.196
-296.720	-184.211	-0.033	0.001
-295.705	-94.224	0.199	-0.054
-294.691	800.000	-0.102	0.284
-293.676	-200.000	0.024	0.142
-292.662	599.939	0.091	-0.224
-291.647	7.617	0.068	0.050
-290.632	-132.867	-0.042	0.005
-289.618	800.000	0.022	-0.080
-288.603	-129.839	0.107	-0.015
-287.589	-84.425	-0.318	-0.100
-286.574	-141.446	0.187	0.019
-285.559	-77.277	-0.166	0.057
-284.545	260.187	0.034	0.059
-283.530	-50.963	0.068	0.032
-282.516	38.405	-0.187	-0.165
-281.501	44.491	-0.151	-0.137
-280.486	-89.841	0.150	-0.043
-279.472	800.000	0.091	0.292
-278.457	629.621	0.068	-0.169
-277.443	800.000	0.027	-0.083
-276.428	800.000	-0.094	-0.365
-275.413	-64.913	0.157	-0.063
-274.399	-145.222	0.251	0.022
-273.384	-117.021	-0.146	0.026
-272.370	-200.000	0.021	-0.158
-271.355	768.360	-0.121	0.327
-270.340	-145.700	0.096	-0.008
-269.326	34.193	0.233	-0.201
-268.311	124.148	0.201	0.251
-267.297	-75.850	0.391	0.137
-266.282	38.150	-0.220	0.194
-265.267	800.000	0.040	-0.135
-264.253	57.724	-0.122	-0.118
-263.238	800.000	0.045	-0.153
-262.224	-21.182	0.270	0.163
-261.209	30.971	0.167	0.142
-260.195	-6.851	-0.243	0.164
-259.180	126.868	0.055	-0.069
-258.165	293.610	-0.086	-0.155
-257.151	430.781	-0.043	-0.092
-256.136	-200.000	-0.003	-0.167
-255.122	176.962	0.111	-0.160
-254.107	-41.305	0.265	-0.135
-253.092	109.911	0.320	0.380
-252.078	-96.550	-0.376	-0.098
-251.063	97.969	-0.059	-0.068
-250.049	800.000	0.092	-0.277
-249.034	45.460	-0.109	-0.099
-248.019	25.299	-0.138	0.114
-247.005	-46.550	0.385	-0.187
-245.990	-90.684	0.121	-0.034
-244.976	156.154	0.169	-0.231
-243.961	-200.000	0.039	-0.174
-242.946	98.674	-0.052	0.059
-241.932	115.729	0.270	-0.326
-240.917	-54.885	0.102	-0.046
-239.903	50.154	0.093	0.087
-238.888	-112.971	-0.168	-0.033
-237.873	264.161	-0.059	0.101
-236.859	-72.493	-0.115	0.042
-235.844	68.667	0.154	-0.156
-234.830	2.504	0.272	0.194
-233.815	-200.000	0.014	0.209
-232.800	263.153	-0.083	-0.142
-231.786	36.797	0.010	0.009
-230.771	-75.409	-0.178	-0.063
-229.757	800.000	-0.084	-0.324
-228.742	-101.055	0.269	-0.065
-227.727	-100.390	-0.301	0.074
-226.713	-40.930	-0.257	0.131
-225.698	-101.301	0.197	0.048
-224.684	-79.326	0.451	-0.151
-223.669	-200.000	0.029	-0.171
-222.655	-130.877	-0.135	0.018
-221.640	626.567	-0.087	0.216
-220.625	47.503	0.172	0.158
-219.611	-200.000	0.043	0.232
-218.596	67.074	-0.066	0.066
-217.582	12.624	0.157	-0.120
-216.567	314.592	-0.150	0.280
-215.552	272.165	0.248	-0.433
-214.538	55.915	-0.180	0.173
-213.523	-70.572	-0.161	-0.060
-212.509	-200.000	-0.015	-0.093
-211.494	-113.338	0.172	0.033
-210.479	-200.000	0.176	-0.000
-209.465	2.899	0.309	-0.222
-208.450	-200.000	0.004	0.111
-207.436	-147.719	0.300	-0.025
-206.421	-11.944	0.067	0.044
-205.406	800.000	0.109	0.429
-204.392	341.137	-0.054	-0.104
-203.377	-69.383	-0.012	0.005
-202.363	40.199	0.275	-0.244
-201.348	-200.000	-0.040	0.192
-200.333	-33.528	-0.264	0.144
-199.319	136.042	0.224	0.288
-198.304	462.138	0.101	0.222
-197.290	-200.000	0.019	-0.151
-196.275	800.000	0.032	-0.139
-195.260	-77.490	-0.209	0.072
-194.246	-200.000	0.010	-0.140
-193.231	-84.804	0.140	0.043
-192.217	-200.000	-0.003	-0.353
-191.202	202.080	0.002	-0.003
-190.187	800.000	-0.050	0.171
-189.173	-129.302	0.131	-0.018
-188.158	-195.246	0.253	-0.002
-187.144	-31.879	0.439	-0.243
-186.129	-56.323	-0.100	-0.044
-185.114	-8.701	-0.142	0.094
-184.100	-200.000	0.022	-0.177
-183.085	39.965	0.130	0.115
-182.071	-200.000	0.012	-0.316
-181.056	153.514	0.089	0.120
-180.042	-200.000	-0.020	0.193
-179.027	336.518	-0.150	0.287
-178.012	-200.000	-0.033	0.295
-176.998	243.521	-0.032	0.054
-175.983	800.000	-0.083	-0.324
-174.969	622.741	0.101	0.251
-173.954	-200.000	-0.002	-0.096
-172.939	269.548	-0.144	-0.249
-171.925	25.490	0.099	0.081
-170.910	-117.982	-0.056	-0.010
-169.896	800.000	0.146	-0.450
-168.881	32.628	0.178	-0.152
-167.866	-69.802	0.254	-0.095
-166.852	800.000	-0.027	-0.104
-165.837	-170.953	0.329	-0.011
-164.823	-200.000	0.048	0.210
-163.808	-200.000	-0.010	-0.081
-162.793	78.735	-0.449	-0.473
-161.779	-51.850	0.056	-0.026
-160.764	-7.677	0.177	0.118
-159.750	-183.850	0.261	0.004
-158.735	-19.002	-0.109	-0.067
-157.720	800.000	-0.034	0.144
-156.706	153.578	-0.105	-0.142
-155.691	-77.988	0.228	-0.077
-154.677	-90.038	0.371	-0.107
-153.662	-55.015	0.022	0.010
-152.647	-107.432	0.244	0.053
-151.633	-13.048	0.386	-0.248
-150.618	-39.264	0.179	0.093
-149.604	-200.000	-0.105	0.458
-148.589	134.816	0.111	-0.142
-147.574	-200.000	-0.010	-0.237
-146.560	85.797	-0.249	0.270
-145.545	-200.000	-0.014	0.284
-144.531	-52.908	-0.246	-0.112
-143.516	-200.000	-0.031	0.153
-142.502	-114.418	-0.183	-0.035
-141.487	521.363	0.071	-0.164
-140.472	-107.077	-0.142	0.031
-139.458	800.000	0.063	0.183
-138.443	65.363	-0.256	-0.255
-137.429	65.151	0.139	0.138
-136.414	-200.000	-0.012	0.187
-135.399	-80.121	0.278	0.092
-134.385	-200.000	-0.029	-0.356
-133.370	481.514	-0.014	0.031
-132.356	49.312	0.306	0.283
-131.341	361.840	0.083	0.163
-130.326	2.586	-0.005	-0.003
-129.312	241.484	0.152	0.251
-128.297	-80.010	-0.131	-0.043
-127.283	380.674	-0.128	0.258
-126.268	36.293	-0.194	0.168
-125.253	3.749	-0.093	-0.067
-124.239	-121.240	-0.305	-0.050
-123.224	800.000	-0.015	0.050
-122.210	-57.015	-0.545	-0.237
-121.195	-105.856	0.332	-0.074
-120.180	-200.000	-0.012	-0.079
-119.166	800.000	0.052	0.184
-118.151	800.000	0.044	-0.126
-117.137	31.018	-0.167	-0.141
-116.122	-141.104	-0.107	0.011
-115.107	-174.190	-0.169	-0.005
-114.093	-108.619	-0.163	-0.034
-113.078	-200.000	0.008	0.291
-112.064	-200.000	-0.009	0.150
-111.049	-188.506	-0.201	-0.002
-110.034	146.627	-0.092	0.122
-109.020	-187.092	0.040	-0.001
-108.005	-200.000	0.007	-0.275
-106.991	36.385	0.226	-0.196
-105.976	-200.000	0.019	0.114
-104.962	800.000	-0.051	-0.194
-103.947	-63.868	-0.197	-0.079
-102.932	-48.458	-0.165	-0.078
-101.918	800.000	0.070	0.239
-100.903	14.242	0.082	0.062
-99.889	-200.000	0.006	0.075
-98.874	-135.544	-0.438	0.051
-97.859	-200.000	-0.004	0.481
-96.845	-0.417	-0.277	0.194
-95.830	359.883	-0.048	0.095
-94.816	480.126	-0.153	-0.342
-93.801	-93.641	0.483	-0.131
-92.786	-200.000	-0.060	-0.347
-91.772	-200.000	-0.028	-0.295
-90.757	-3.272	-0.247	-0.169
-89.743	115.244	-0.109	-0.131
-88.728	321.209	-0.112	0.210
-87.713	-120.117	0.259	-0.043
-86.699	800.000	0.027	-0.093
-85.684	469.226	-0.175	0.386
-84.670	-58.543	-0.241	0.103
-83.655	800.000	-0.074	-0.208
-82.640	183.835	-0.138	0.201
-81.626	-200.000	0.062	-0.339
-80.611	-0.721	-0.190	-0.133
-79.597	77.087	0.251	0.262
-78.582	410.862	0.053	0.110
-77.567	-8.569	0.347	0.229
-76.553	-13.973	0.150	0.095
-75.538	253.437	-0.120	-0.201
-74.524	783.117	0.178	-0.478
-73.509	456.400	-0.141	-0.308
-72.494	418.382	-0.136	0.285
-71.480	-200.000	0.152	0.000
-70.465	-0.433	0.384	-0.268
-69.451	167.656	0.023	0.032
-68.436	4.252	0.320	-0.230
-67.422	-200.000	-0.015	-0.072
-66.407	300.413	0.101	0.183
-65.392	641.850	-0.044	0.111
-64.378	281.234	0.104	0.182
-63.363	183.874	0.244	0.355
-62.349	-86.046	-0.167	-0.051
-61.334	26.367	-1.080	-0.886
-60.319	48.026	0.658	0.604
-59.305	-200.000	-0.158	-0.981
-58.290	63.759	0.869	0.857
-57.276	328.460	0.795	1.499
-56.261	-200.000	95.853	582.729
-55.246	533.152	1376.808	3200.400
-54.232	163.424	2541.164	3507.472
-53.217	111.763	2146.929	2543.956
-52.203	42.577	1693.314	1512.600
-51.188	35.319	1505.285	1295.767
-50.173	32.986	1478.175	1256.882
-49.159	52.501	1527.895	1431.623
-48.144	53.942	1546.314	1458.582
-47.130	35.558	1506.087	1297.871
-46.115	32.507	1491.025	1264.391
-45.100	32.282	1487.787	1260.085
-44.086	32.255	1485.962	1258.310
-43.071	32.202	1483.417	1255.751
-42.057	32.166	1482.567	1254.736
-41.042	32.067	1481.204	1252.874
-40.027	32.156	1479.914	1252.331
-39.013	32.124	1477.886	1250.348
-37.998	32.029	1476.983	1248.905
-36.984	32.139	1475.832	1248.609
-35.969	32.195	1474.178	1247.532
-34.954	32.163	1472.937	1246.221
-33.940	32.125	1471.831	1244.987
-32.925	32.171	1470.692	1244.280
-31.911	32.124	1469.685	1243.068
-30.896	32.311	1467.488	1242.393
-29.881	32.214	1466.202	1240.617
-28.867	32.224	1465.165	1239.751
-27.852	32.218	1463.573	1238.319
-26.838	32.334	1462.216	1237.887
-25.823	32.243	1460.890	1236.114
-24.809	32.260	1458.610	1234.250
-23.794	32.233	1457.471	1233.057
-22.779	32.317	1456.163	1232.452
-21.765	32.260	1455.288	1231.293
-20.750	32.252	1454.307	1230.359
-19.736	32.220	1453.071	1229.058
-18.721	32.226	1452.208	1228.315
-17.706	32.107	1451.133	1226.583
-16.692	32.205	1449.440	1225.743
-15.677	32.183	1448.810	1225.015
-14.663	32.293	1447.898	1224.912
-13.648	32.162	1447.016	1223.264
-12.633	32.195	1445.917	1222.501
-11.619	32.101	1445.663	1221.628
-10.604	32.136	1444.285	1220.644
-9.590	32.155	1443.398	1219.966
-8.575	32.224	1442.522	1219.624
-7.560	32.138	1441.478	1218.135
-6.546	32.176	1440.695	1217.672
-5.531	32.148	1440.051	1216.898
-4.517	32.043	1439.058	1215.333
-3.502	32.185	1437.970	1215.287
-2.487	32.168	1437.015	1214.318
-1.473	32.120	1436.539	1213.556
-0.458	32.145	1434.628	1212.054
0.556	29.949	1424.880	1199.102
1.571	26.164	1398.999	1153.099
2.586	21.860	1336.441	1075.114
3.600	19.815	1253.646	996.650
4.615	18.569	1208.363	953.642
5.629	17.128	1156.221	904.738
6.644	12.675	1079.200	822.202
7.659	8.783	1042.125	775.086
8.673	8.217	1036.896	768.402
9.688	8.085	1033.864	765.456
10.702	7.834	1032.429	763.122
11.717	7.854	1030.426	761.671
12.731	9.568	1031.477	770.583
13.746	14.120	1037.038	796.518
14.761	17.499	1040.566	815.365
15.775	17.525	1040.463	815.340
16.790	16.693	1038.229	809.537
17.804	15.677	1036.020	802.895
18.819	14.839	1033.942	797.217
19.834	14.304	1032.605	793.568
20.848	13.937	1031.848	791.168
21.863	13.796	1031.172	789.908
22.877	13.647	1030.462	788.586
23.892	13.329	1029.405	786.193
24.907	13.271	1028.735	785.339
25.921	13.315	1027.963	784.888
26.936	13.255	1027.479	784.164
27.950	13.286	1026.464	783.466
28.965	13.481	1024.850	783.088
29.980	13.427	1023.723	781.902
30.994	13.556	1022.738	781.691
32.009	13.578	1021.979	781.144
33.023	13.452	1021.573	780.173
34.038	13.614	1020.500	780.045
35.053	13.473	1019.661	778.673
36.067	13.392	1018.642	777.445
37.082	13.467	1017.715	777.021
38.096	13.442	1017.131	776.388
39.111	13.577	1016.026	776.108
40.126	13.586	1014.782	775.131
41.140	13.441	1014.247	773.978
42.155	13.303	1013.326	772.560
43.169	13.292	1012.324	771.680
44.184	13.175	1011.490	770.429
45.199	13.233	1009.780	769.328
46.213	13.207	1009.127	768.641
47.228	13.317	1008.248	768.414
48.242	13.293	1007.436	767.615
49.257	13.387	1006.719	767.440
50.271	13.336	1005.506	766.210
51.286	13.379	1004.516	765.588
52.301	13.478	1003.607	765.285
53.315	13.470	1002.923	764.658
54.330	13.295	1002.174	763.211
55.344	13.250	1001.297	762.268
56.359	13.349	999.911	761.601
57.374	13.220	999.314	760.484
58.388	13.225	998.656	759.943
59.403	13.302	997.600	759.425
60.417	13.201	996.870	758.339
61.432	13.115	996.610	757.676
62.447	13.403	995.087	757.773
63.461	13.146	994.666	756.209
64.476	13.283	993.489	755.870
65.490	13.021	993.435	754.568
66.505	13.161	992.644	754.539
67.520	13.271	991.529	754.125
68.534	13.142	990.865	752.967
69.549	13.229	989.741	752.440
70.563	13.306	989.098	752.238
71.578	13.033	988.671	750.603
72.593	13.255	987.465	750.628
73.607	13.164	986.391	749.333
74.622	12.999	986.170	748.350
75.636	13.043	984.833	747.471
76.651	13.138	983.972	747.179
77.666	13.147	983.160	746.537
78.680	13.112	982.671	745.943
79.695	13.127	981.946	745.395
80.709	13.269	981.360	745.523
81.724	13.080	980.891	744.248
82.739	13.324	979.818	744.467
83.753	13.304	979.116	743.780
84.768	13.302	978.826	743.485
85.782	13.436	977.697	743.161
86.797	13.534	977.291	743.230
87.812	13.553	976.199	742.415
88.826	13.367	975.862	741.263
89.841	13.399	974.760	740.504
90.855	13.425	973.837	739.852
91.870	13.407	973.494	739.447
92.884	13.598	972.130	739.194
93.899	13.474	972.317	738.721
94.914	13.563	971.119	738.140
95.928	13.682	970.400	738.060
96.943	13.669	969.753	737.442
97.957	13.558	969.342	736.574
98.972	13.513	968.034	735.311
99.987	13.597	967.466	735.189
101.001	13.488	966.900	734.208
102.016	13.526	965.892	733.548
103.030	13.464	965.068	732.583
104.045	13.485	964.027	731.823
105.060	13.514	962.778	730.936
106.074	13.597	961.641	730.374
107.089	13.367	960.986	728.797
108.103	13.276	960.375	727.870
109.118	13.299	959.131	726.967
110.133	13.262	958.476	726.242
111.147	13.209	957.945	725.543
112.162	13.220	956.597	724.505
113.176	13.307	955.843	724.251
114.191	13.329	955.482	724.009
115.206	13.300	954.662	723.197
116.220	13.341	953.588	722.500
117.235	13.245	952.911	721.502
118.249	13.343	951.704	720.954
119.264	13.294	950.805	719.994
120.279	13.315	950.780	720.005
121.293	13.339	949.445	719.035
122.308	13.335	948.414	718.172
123.322	13.275	947.907	717.463
124.337	13.106	946.868	715.880
125.352	13.311	945.799	715.898
126.366	13.282	944.633	714.827
127.381	13.325	943.621	714.180
128.395	13.253	942.780	713.174
129.410	13.343	941.903	712.834
130.424	13.273	941.267	711.987
131.439	13.320	940.108	711.250
132.454	13.311	939.842	710.947
133.468	13.348	938.964	710.380
134.483	13.327	938.018	709.509
135.497	13.434	937.119	709.225
136.512	13.396	936.625	708.628
137.527	13.365	936.093	708.028
138.541	13.412	935.193	707.486
139.556	13.316	934.682	706.625
140.570	13.270	933.780	705.687
141.585	13.464	933.335	706.117
142.600	13.517	932.740	705.827
143.614	13.548	931.660	705.081
144.629	13.606	931.098	704.842
145.643	13.596	930.371	704.185
146.658	13.412	929.889	702.977
147.673	13.463	928.483	702.069
148.687	13.467	927.573	701.334
149.702	13.487	926.603	700.621
150.716	13.379	925.488	699.262
151.731	13.555	924.605	699.274
152.746	13.377	924.330	698.256
153.760	13.523	923.560	698.228
154.775	13.407	922.995	697.247
155.789	13.532	921.969	696.940
156.804	13.594	921.249	696.595
157.819	13.651	920.542	696.238
158.833	13.652	920.109	695.850
159.848	13.671	919.394	695.331
160.862	13.721	918.852	695.066
161.877	13.647	918.371	694.332
162.892	13.616	917.414	693.415
163.906	13.421	916.483	691.839
164.921	13.415	915.750	691.199
165.935	13.475	914.586	690.508
166.950	13.730	913.729	690.863
167.964	13.670	912.778	689.832
168.979	13.579	911.942	688.763
169.994	13.548	911.081	687.922
171.008	13.534	910.236	687.166
172.023	13.599	909.578	686.876
173.037	13.734	908.484	686.548
174.052	13.768	908.269	686.465
175.067	13.748	907.416	685.679
176.081	13.675	906.669	684.750
177.096	13.692	905.877	684.161
178.110	13.583	904.998	682.990
179.125	13.640	904.333	682.661
180.140	13.617	903.429	681.824
181.154	13.747	902.755	681.788
182.169	13.812	902.363	681.700
183.183	13.760	902.038	681.179
184.198	13.865	900.901	680.693
185.213	13.914	899.959	680.121
186.227	13.795	900.055	679.646
187.242	13.900	899.600	679.672
188.256	13.941	898.797	679.173
189.271	13.922	898.081	678.492
190.286	14.103	897.257	678.550
191.300	13.903	896.206	676.878
192.315	13.708	895.433	675.444
193.329	13.498	895.439	674.532
194.344	13.860	894.020	674.875
195.359	13.780	893.422	674.039
196.373	13.778	893.551	674.069
197.388	13.886	893.112	674.115
198.402	14.031	892.298	674.029
199.417	14.109	891.905	673.991
200.432	14.069	891.917	673.777
201.446	14.186	890.927	673.441
202.461	14.125	891.127	673.286
203.475	14.378	889.814	673.260
204.490	14.301	889.568	672.702
205.504	14.086	888.858	671.236
206.519	14.003	888.162	670.319
207.534	13.955	887.231	669.361
208.548	14.160	886.107	669.279
209.563	14.104	885.578	668.598
210.577	14.118	885.141	668.262
211.592	14.184	884.535	668.012
212.607	14.248	883.949	667.766
213.621	14.257	883.211	667.184
214.636	14.293	882.522	666.749
215.650	14.261	882.179	666.304
216.665	14.242	881.848	665.918
217.680	14.333	881.224	665.753
218.694	14.398	880.703	665.559
219.709	14.320	880.264	664.858
220.723	14.433	879.380	664.583
221.738	14.368	878.962	663.948
222.753	14.369	878.257	663.361
223.767	14.352	877.478	662.645
224.782	14.453	876.629	662.348
225.796	14.382	875.959	661.502
226.811	14.657	875.218	661.973
227.826	14.492	874.473	660.697
228.840	14.539	873.983	660.456
229.855	14.207	873.841	658.975
230.869	14.410	872.676	658.840
231.884	14.406	872.191	658.400
232.899	14.441	871.538	657.988
233.913	14.530	870.637	657.601
234.928	14.496	869.661	656.673
235.942	14.372	869.367	655.904
236.957	14.403	868.816	655.552
237.972	14.521	868.062	655.388
238.986	14.412	867.465	654.453
240.001	14.502	866.751	654.207
241.015	14.444	865.823	653.223
242.030	14.437	865.528	652.914
243.045	14.523	865.027	652.815
244.059	14.549	864.290	652.304
245.074	14.663	863.570	652.148
246.088	14.536	863.280	651.375
247.103	14.712	862.320	651.280
248.117	14.586	862.227	650.661
249.132	14.718	861.353	650.457
250.147	14.711	861.291	650.326
251.161	14.889	860.384	650.276
252.176	14.981	859.458	649.875
253.190	14.928	858.861	649.160
254.205	14.982	858.292	648.881
255.220	15.077	857.715	648.758
256.234	14.975	857.228	647.936
257.249	14.830	856.899	647.068
258.263	15.098	856.132	647.471
259.278	14.971	855.740	646.623
260.293	15.073	855.256	646.597
261.307	15.114	854.387	646.039
262.322	15.133	853.734	645.561
263.336	15.251	852.829	645.273
264.351	15.200	852.742	644.957
265.366	15.074	852.260	644.049
266.380	15.206	851.334	643.799
267.395	15.121	850.888	643.080
268.409	14.975	850.428	642.112
269.424	15.179	849.304	641.990
270.439	15.236	848.228	641.337
271.453	15.225	847.816	640.927
272.468	15.284	846.902	640.405
273.482	15.130	846.429	639.404
274.497	15.194	845.997	639.265
275.512	15.246	845.303	638.882
276.526	15.233	844.576	638.225
277.541	15.274	843.750	637.703
278.555	15.164	843.692	637.185
279.570	15.437	842.695	637.412
280.585	15.305	842.876	636.991
281.599	15.292	842.155	636.341
282.614	15.300	841.576	635.877
283.628	15.272	841.008	635.286
284.643	15.233	840.311	634.555
285.657	15.384	839.394	634.377
286.672	15.346	839.413	634.192
287.687	15.391	838.716	633.777
288.701	15.450	838.163	633.526
289.716	15.482	837.704	633.245
290.730	15.445	836.984	632.506
291.745	15.464	836.444	632.111
292.760	15.480	835.794	631.624
293.774	15.492	835.290	631.233
294.789	15.747	834.294	631.384
295.803	15.439	834.239	630.128
296.818	15.479	833.673	629.796
297.833	15.455	832.967	629.117
298.847	15.552	832.308	628.926
299.862	15.514	831.691	628.264
300.876	15.599	831.129	628.102
301.891	15.619	830.584	627.707
302.906	15.717	829.657	627.318
303.920	15.583	829.304	626.496
304.935	15.949	828.070	626.868
305.949	15.789	827.680	625.924
306.964	15.841	827.347	625.811
307.979	15.821	827.013	625.429
308.993	15.757	826.387	624.662
310.008	15.936	825.781	624.812
311.022	15.850	825.231	624.021
312.037	15.794	824.974	623.565
313.052	15.700	824.525	622.822
314.066	15.956	823.634	623.040
315.081	15.866	822.661	621.918
316.095	15.792	822.384	621.378
317.110	15.898	821.723	621.216
318.125	15.757	821.229	620.269
319.139	15.822	820.627	619.997
320.154	15.773	820.261	619.486
321.168	15.867	819.695	619.347
322.183	15.905	818.962	618.882
323.197	15.861	818.921	618.634
324.212	15.811	818.458	618.044
325.227	15.871	817.704	617.642
326.241	15.881	817.244	617.277
327.256	15.923	816.583	616.874
328.270	15.922	816.016	616.390
329.285	15.845	815.773	615.869
330.300	16.056	814.728	615.796
331.314	15.989	814.255	615.140
332.329	16.059	813.895	615.069
333.343	15.876	812.913	613.605
334.358	16.143	812.618	614.301
335.373	15.979	812.634	613.663
336.387	16.064	811.784	613.276
337.402	16.061	811.429	612.940
338.416	16.153	810.753	612.710
339.431	16.221	810.032	612.358
340.446	16.325	809.673	612.409
341.460	16.063	809.181	611.035
342.475	16.355	808.519	611.536
343.489	16.429	807.669	611.107
344.504	16.369	807.536	610.735
345.519	16.389	807.073	610.405
346.533	16.387	806.455	609.874
347.548	16.438	806.119	609.753
348.562	16.485	805.203	609.176
349.577	16.197	805.114	608.015
350.592	16.256	804.668	607.836
351.606	16.319	803.947	607.467
352.621	16.310	803.583	607.103
353.635	16.307	803.361	606.872
354.650	16.249	803.041	606.369
355.665	16.330	802.287	606.035
356.679	16.326	801.901	605.678
357.694	16.341	801.634	605.477
358.708	16.390	800.680	604.876
359.723	16.407	800.475	604.727
360.738	16.425	799.961	604.353
361.752	16.518	799.409	604.213
362.767	16.512	798.586	603.515
363.781	16.672	798.637	604.071
364.796	16.680	798.329	603.816
365.810	16.459	797.912	602.659
366.825	16.815	796.908	603.114
367.840	16.820	796.825	603.014
368.854	16.729	796.782	602.604
369.869	16.774	796.060	602.165
370.883	16.670	795.165	601.066
371.898	16.641	794.899	600.708
372.913	16.798	794.068	600.585
373.927	16.749	793.711	600.087
374.942	16.759	793.336	599.785
375.956	16.840	792.328	599.260
376.971	16.844	791.813	598.830
377.986	16.844	791.680	598.676
379.000	17.067	791.043	598.927
380.015	16.980	790.723	598.325
381.029	16.856	790.077	597.347
382.044	16.970	789.635	597.363
383.059	17.061	788.773	596.977
384.073	16.963	788.505	596.378
385.088	16.930	788.010	595.833
386.102	16.949	787.540	595.492
387.117	16.961	786.731	594.871
388.132	16.807	786.638	594.206
389.146	16.858	786.289	594.069
390.161	16.917	785.423	593.570
391.175	16.986	785.157	593.556
392.190	17.181	784.891	593.985
393.205	16.996	784.548	593.026
394.219	16.926	784.306	592.546
395.234	17.012	783.622	592.279
396.248	16.903	783.232	591.551
397.263	16.981	782.317	591.080
398.278	16.889	781.845	590.348
399.292	16.861	781.351	589.828
400.307	16.954	781.267	590.036
401.321	16.976	780.810	589.713
402.336	17.034	780.261	589.449
403.350	17.079	779.986	589.344
404.365	17.040	779.924	589.110
405.380	17.062	779.462	588.787
406.394	17.154	778.496	588.322
407.409	17.242	778.402	588.505
408.423	17.291	777.927	588.261
409.438	17.328	777.384	587.927
410.453	17.369	776.991	587.718
411.467	17.405	776.754	587.612
412.482	17.421	776.222	587.216
413.496	17.366	775.437	586.378
414.511	17.537	775.122	586.677
415.526	17.376	775.194	586.127
416.540	17.386	774.658	585.701
417.555	17.269	774.483	585.117
418.569	17.494	773.366	584.994
419.584	17.481	773.321	584.862
420.599	17.611	772.928	584.961
421.613	108.077	1286.407	1459.522
422.628	92.252	1361.210	1459.609
