DTS Sentinel unit serial number:	SN413079Multiplexer serial number:	ORYXHardware model number:	OX4-SRSoftware version number:	ORYX F/W v4.00 Oryx Data Collector v3.7.2.0data status	okinstallation	princeton_trtdifferential loss correction	single-endedforward channel	channel 3reverse channel	N/Adate	2019/09/13time	06:28:35forward acquisition time	60.00reverse acquisition time	0.00gamma	496.2192k internal	0.2339k external	0.2339temperature offset calibration	1.0131default loss term (dB/km)	0.3790temperature slope calibration	1.0000multiplexer offset coefficient	1.0000multiplexer slope coefficient	1.0000fibre end	0.00T internal ref (°C)	26.06T ext. ref 1 (°C)	4.09T ext. ref 2 (°C)	20.66length (m)	temperature (°C)	Stokes	anti-Stokes-747.200	38.937	-0.123	0.110
-746.185	-102.695	-0.050	0.012
-745.171	-23.520	0.284	-0.171
-744.156	-49.249	-0.094	0.045
-743.142	779.372	-0.147	-0.404
-742.127	796.711	-0.086	-0.238
-741.112	32.655	-0.160	0.139
-740.098	-200.000	-0.056	0.261
-739.083	136.714	-0.308	0.403
-738.069	27.249	-0.199	0.168
-737.054	16.483	0.177	0.141
-736.039	-120.717	-0.147	0.025
-735.025	-200.000	-0.035	0.176
-734.010	190.854	-0.210	-0.316
-732.996	608.285	-0.107	0.268
-731.981	-200.000	0.017	-0.214
-730.966	220.188	0.119	0.191
-729.952	5.963	-0.151	-0.112
-728.937	800.000	-0.128	-0.363
-727.923	-200.000	0.026	-0.153
-726.908	-76.421	-0.266	-0.094
-725.894	99.917	-0.110	0.127
-724.879	800.000	0.053	-0.163
-723.864	-105.489	0.155	-0.035
-722.850	-200.000	0.048	-0.244
-721.835	800.000	0.048	-0.156
-720.821	146.381	0.069	-0.093
-719.806	-200.000	-0.012	-0.125
-718.791	99.510	0.047	-0.054
-717.777	-6.435	-0.161	-0.110
-716.762	-146.719	0.102	0.009
-715.748	-143.562	-0.120	0.011
-714.733	-114.031	0.224	0.044
-713.718	324.671	0.082	-0.158
-712.704	800.000	-0.075	0.309
-711.689	-166.256	-0.519	0.022
-710.675	800.000	-0.096	0.345
-709.660	-200.000	-0.019	-0.102
-708.645	195.733	-0.193	0.294
-707.631	-200.000	0.035	0.229
-706.616	-200.000	-0.007	0.098
-705.602	-200.000	0.033	-0.253
-704.587	-11.460	-0.328	-0.216
-703.572	255.747	0.060	0.103
-702.558	299.130	0.082	0.150
-701.543	398.097	0.135	-0.282
-700.529	-97.217	-0.143	-0.037
-699.514	-19.473	0.234	-0.145
-698.499	332.017	0.055	-0.107
-697.485	-58.403	0.133	0.058
-696.470	71.228	-0.130	-0.135
-695.456	130.709	0.089	0.114
-694.441	-109.803	-0.313	-0.066
-693.426	-200.000	-0.010	0.135
-692.412	-102.946	-0.471	-0.112
-691.397	750.175	0.094	0.253
-690.383	800.000	0.027	-0.080
-689.368	-101.303	-0.240	-0.059
-688.354	800.000	0.042	-0.120
-687.339	58.795	0.173	0.171
-686.324	800.000	-0.010	0.039
-685.310	7.330	0.058	0.043
-684.295	800.000	0.075	-0.252
-683.281	298.077	0.010	0.018
-682.266	304.508	0.024	0.044
-681.251	-200.000	0.011	0.169
-680.237	9.501	-0.302	-0.229
-679.222	222.676	-0.116	-0.187
-678.208	55.815	0.211	0.204
-677.193	800.000	0.078	-0.336
-676.178	575.003	-0.161	0.393
-675.164	515.656	-0.082	-0.191
-674.149	109.445	0.075	-0.090
-673.135	87.881	-0.082	-0.091
-672.120	-88.727	0.039	0.012
-671.105	172.546	-0.168	0.241
-670.091	128.138	0.051	-0.065
-669.076	565.995	0.025	-0.060
-668.062	-67.888	0.191	-0.075
-667.047	-200.000	0.000	0.120
-666.032	52.230	-0.183	-0.174
-665.018	800.000	-0.025	0.094
-664.003	-200.000	0.025	-0.328
-662.989	-113.311	-0.428	-0.084
-661.974	71.640	-0.152	-0.158
-660.959	800.000	0.108	-0.315
-659.945	800.000	0.103	0.404
-658.930	-114.294	0.132	-0.026
-657.916	7.322	0.092	-0.069
-656.901	128.956	-0.090	-0.114
-655.886	-51.988	-0.180	-0.083
-654.872	8.670	0.265	-0.199
-653.857	-200.000	0.049	0.264
-652.843	-121.064	-0.341	0.057
-651.828	800.000	-0.020	0.076
-650.814	11.207	0.078	0.060
-649.799	184.760	0.192	0.285
-648.784	685.767	0.100	0.260
-647.770	-200.000	-0.028	0.123
-646.755	573.258	0.033	-0.081
-645.741	107.183	0.236	-0.280
-644.726	142.915	0.101	0.135
-643.711	-142.253	0.254	-0.025
-642.697	-116.504	0.224	-0.041
-641.682	-35.212	0.199	0.108
-640.668	-82.782	-0.232	-0.075
-639.653	289.517	0.114	-0.206
-638.638	-200.000	-0.043	0.205
-637.624	57.091	-0.264	-0.257
-636.609	-119.597	-0.138	0.024
-635.595	-85.190	-0.225	0.070
-634.580	131.291	-0.247	-0.317
-633.565	119.138	0.105	0.130
-632.551	345.243	-0.047	0.092
-631.536	-31.275	-0.054	-0.030
-630.522	-60.950	0.216	0.091
-629.507	298.814	-0.101	-0.186
-628.492	-154.115	0.212	-0.014
-627.478	3.655	0.133	-0.097
-626.463	-92.122	0.086	0.024
-625.449	101.707	0.118	-0.138
-624.434	800.000	0.047	0.155
-623.419	-91.115	0.329	-0.094
-622.405	525.576	0.085	0.199
-621.390	126.057	0.263	0.332
-620.376	277.247	-0.132	-0.234
-619.361	800.000	-0.083	0.234
-618.346	20.746	0.192	-0.155
-617.332	147.224	0.087	0.117
-616.317	-19.340	0.166	0.102
-615.303	229.727	0.117	-0.190
-614.288	257.489	-0.149	-0.255
-613.273	-112.177	-0.236	-0.047
-612.259	-148.959	-0.227	0.018
-611.244	261.515	-0.211	-0.364
-610.230	15.088	-0.145	-0.113
-609.215	50.474	-0.345	-0.325
-608.201	340.190	-0.204	-0.397
-607.186	242.407	-0.097	-0.163
-606.171	-113.041	-0.231	-0.046
-605.157	661.619	-0.034	0.088
-604.142	288.799	-0.103	-0.186
-603.128	-200.000	0.004	-0.204
-602.113	-68.096	-0.224	-0.087
-601.098	188.667	0.098	-0.147
-600.084	-200.000	-0.033	-0.409
-599.069	119.803	-0.050	-0.062
-598.055	-200.000	0.004	0.109
-597.040	44.270	0.192	0.176
-596.025	-71.271	-0.229	0.086
-595.011	-79.655	-0.162	-0.054
-593.996	-200.000	0.037	-0.201
-592.982	-82.031	-0.345	-0.112
-591.967	62.019	0.084	-0.083
-590.952	-76.979	0.351	0.122
-589.938	-181.043	-0.222	-0.004
-588.923	303.479	0.059	0.110
-587.909	-19.871	0.186	0.115
-586.894	784.767	0.036	-0.098
-585.879	-115.456	-0.276	-0.052
-584.865	94.303	-0.167	-0.189
-583.850	-92.699	-0.159	-0.044
-582.836	-73.732	-0.234	0.085
-581.821	-109.394	0.256	-0.054
-580.806	152.105	-0.230	0.312
-579.792	-200.000	-0.002	-0.256
-578.777	88.109	-0.216	-0.239
-577.763	-200.000	0.028	0.159
-576.748	-198.757	-0.145	-0.001
-575.733	-200.000	0.018	0.543
-574.719	-101.951	0.298	-0.072
-573.704	275.888	-0.121	0.214
-572.690	800.000	0.086	-0.292
-571.675	-105.921	-0.148	0.033
-570.661	27.079	-0.075	0.063
-569.646	800.000	-0.034	0.111
-568.631	-135.862	-0.329	0.039
-567.617	-160.875	-0.257	0.014
-566.602	-74.529	0.268	0.096
-565.588	-103.929	0.414	-0.096
-564.573	-8.389	0.073	-0.049
-563.558	-5.873	-0.130	-0.089
-562.544	18.699	0.102	0.081
-561.529	-148.272	-0.311	-0.026
-560.515	-200.000	0.014	0.160
-559.500	-15.608	-0.165	-0.105
-558.485	800.000	-0.038	-0.163
-557.471	323.918	0.116	-0.220
-556.456	-40.206	-0.127	0.066
-555.442	-59.851	0.122	0.052
-554.427	-43.904	-0.228	0.114
-553.412	-82.432	0.260	0.084
-552.398	800.000	-0.042	0.168
-551.383	-200.000	-0.021	-0.150
-550.369	22.127	-0.226	-0.184
-549.354	-200.000	0.026	-0.145
-548.339	-89.086	-0.211	-0.062
-547.325	-94.867	0.244	-0.066
-546.310	800.000	0.067	-0.216
-545.296	2.514	-0.130	0.094
-544.281	57.660	-0.413	-0.402
-543.266	34.598	0.097	-0.084
-542.252	780.761	0.090	-0.246
-541.237	122.262	-0.173	-0.215
-540.223	245.202	0.090	0.150
-539.208	-144.502	-0.235	-0.022
-538.193	800.000	-0.130	0.364
-537.179	800.000	0.066	0.199
-536.164	-200.000	-0.023	0.208
-535.150	-133.244	0.390	0.049
-534.135	510.106	0.064	-0.149
-533.121	-101.628	0.062	0.015
-532.106	-200.000	-0.054	-0.273
-531.091	-200.000	0.063	-0.376
-530.077	-22.285	-0.254	-0.153
-529.062	-172.039	0.133	-0.004
-528.048	-128.658	-0.300	-0.042
-527.033	50.236	-0.168	0.158
-526.018	12.841	0.143	-0.110
-525.004	146.102	0.090	-0.121
-523.989	-159.712	-0.198	-0.011
-522.975	800.000	-0.041	-0.150
-521.960	89.510	0.138	-0.153
-520.945	800.000	-0.029	-0.125
-519.931	-100.541	0.290	-0.071
-518.916	23.265	0.129	0.105
-517.902	-105.089	-0.222	0.051
-516.887	-1.970	0.119	0.083
-515.872	-67.192	-0.218	0.085
-514.858	800.000	0.053	0.193
-513.843	-200.000	-0.028	-0.151
-512.829	800.000	-0.030	-0.128
-511.814	-49.844	-0.176	0.083
-510.799	-122.236	-0.215	-0.035
-509.785	105.361	0.131	-0.154
-508.770	-142.139	0.325	0.032
-507.756	56.820	0.137	0.133
-506.741	73.018	-0.071	-0.073
-505.726	14.697	0.079	-0.061
-504.712	-2.085	0.324	-0.226
-503.697	-66.565	-0.140	0.055
-502.683	48.458	0.157	0.146
-501.668	-76.220	-0.267	0.094
-500.653	69.159	0.074	0.075
-499.639	-200.000	0.004	-0.176
-498.624	-171.590	0.185	0.006
-497.610	-147.642	0.122	0.010
-496.595	262.974	-0.104	0.180
-495.581	-141.785	0.150	-0.015
-494.566	-110.493	0.282	0.058
-493.551	260.241	-0.073	0.125
-492.537	-110.457	-0.139	0.029
-491.522	-124.404	0.407	0.063
-490.508	362.368	0.081	-0.161
-489.493	-133.620	-0.255	0.032
-488.478	-183.120	-0.185	-0.003
-487.464	-33.422	-0.266	-0.146
-486.449	-6.367	0.206	0.140
-485.435	113.816	0.070	-0.085
-484.420	30.775	0.353	-0.300
-483.405	89.944	0.131	-0.145
-482.391	-200.000	-0.017	-0.359
-481.376	76.227	-0.035	0.036
-480.362	83.394	-0.206	0.223
-479.347	271.219	-0.068	0.119
-478.332	-200.000	-0.081	0.357
-477.318	800.000	0.061	0.185
-476.303	177.750	-0.172	-0.249
-475.289	-106.019	0.427	0.095
-474.274	800.000	0.026	-0.105
-473.259	20.065	-0.404	0.323
-472.245	149.105	0.211	0.283
-471.230	265.705	-0.092	-0.159
-470.216	-200.000	0.026	0.393
-469.201	20.769	0.143	0.115
-468.186	7.701	-0.224	0.166
-467.172	-137.566	-0.160	0.018
-466.157	-125.335	0.197	0.030
-465.143	-200.000	0.008	-0.107
-464.128	102.545	-0.135	-0.157
-463.113	7.316	-0.077	0.057
-462.099	-58.722	-0.208	-0.090
-461.084	110.168	-0.014	0.017
-460.070	-127.048	0.159	-0.023
-459.055	-141.455	-0.207	-0.021
-458.040	-122.657	-0.370	-0.059
-457.026	-63.566	0.117	-0.048
-456.011	-200.000	0.005	-0.059
-454.997	144.586	0.084	0.111
-453.982	257.726	-0.129	-0.220
-452.968	20.254	0.226	-0.181
-451.953	-200.000	0.007	-0.136
-450.938	800.000	0.077	0.234
-449.924	800.000	-0.085	-0.358
-448.909	-188.277	0.314	0.004
-447.895	-72.611	-0.270	-0.099
-446.880	-183.398	-0.306	0.005
-445.865	-200.000	-0.002	-0.540
-444.851	800.000	-0.151	-0.420
-443.836	-65.263	-0.018	-0.007
-442.822	-66.506	-0.326	0.128
-441.807	27.550	-0.184	-0.153
-440.792	-93.617	0.021	-0.006
-439.778	-200.000	-0.018	0.152
-438.763	-200.000	0.056	0.549
-437.749	-25.713	0.148	-0.086
-436.734	-14.896	0.095	-0.060
-435.719	354.829	0.118	0.233
-434.705	-95.413	0.158	0.042
-433.690	23.894	0.050	0.041
-432.676	-108.140	0.062	-0.013
-431.661	-143.478	-0.199	-0.019
-430.646	-3.485	0.259	0.179
-429.632	-148.065	-0.258	0.021
-428.617	113.813	0.159	-0.192
-427.603	35.462	0.203	0.176
-426.588	-200.000	0.016	0.082
-425.573	-12.606	0.092	-0.059
-424.559	-134.202	-0.270	0.033
-423.544	-160.656	-0.076	-0.004
-422.530	800.000	-0.046	-0.136
-421.515	77.274	0.150	0.158
-420.500	-200.000	-0.041	0.181
-419.486	-118.531	0.224	0.039
-418.471	-91.347	0.372	-0.105
-417.457	-200.000	0.049	0.234
-416.442	-70.680	-0.113	0.042
-415.428	24.660	0.278	0.228
-414.413	100.932	-0.153	-0.177
-413.398	-173.209	-0.059	0.002
-412.384	58.394	0.395	0.384
-411.369	-200.000	-0.035	0.324
-410.355	51.352	0.106	0.099
-409.340	-113.502	0.164	0.032
-408.325	59.565	-0.083	-0.081
-407.311	-160.356	0.178	-0.009
-406.296	-154.181	0.171	-0.011
-405.282	142.204	-0.196	-0.258
-404.267	-40.508	-0.113	-0.058
-403.252	-64.749	-0.112	-0.045
-402.238	-200.000	0.063	-0.288
-401.223	800.000	0.105	-0.318
-400.209	-200.000	0.046	0.279
-399.194	-161.860	-0.024	-0.001
-398.179	52.624	-0.079	0.075
-397.165	157.401	-0.077	-0.106
-396.150	460.333	-0.179	-0.394
-395.136	266.470	-0.106	-0.183
-394.121	110.049	-0.147	0.175
-393.106	-58.496	-0.071	0.031
-392.092	800.000	0.080	-0.283
-391.077	-10.713	-0.061	0.040
-390.063	329.303	0.064	0.121
-389.048	800.000	-0.029	0.107
-388.033	56.711	-0.164	0.158
-387.019	-98.502	-0.041	-0.010
-386.004	178.023	-0.107	0.155
-384.990	-109.081	0.120	0.025
-383.975	9.283	0.056	-0.042
-382.960	-200.000	0.027	-0.157
-381.946	348.356	-0.109	0.213
-380.931	267.002	-0.153	-0.265
-379.917	-126.735	0.151	-0.022
-378.902	800.000	0.057	-0.178
-377.888	-123.125	0.079	-0.013
-376.873	-50.148	0.091	0.043
-375.858	355.577	0.115	0.225
-374.844	165.239	0.130	-0.182
-373.829	0.095	-0.346	-0.244
-372.815	420.001	-0.072	0.152
-371.800	-4.892	0.228	0.155
-370.785	313.316	0.103	-0.192
-369.771	-151.102	-0.354	-0.026
-368.756	-200.000	-0.018	-0.104
-367.742	800.000	0.018	-0.050
-366.727	-191.498	0.224	0.002
-365.712	-3.575	0.205	0.141
-364.698	24.423	-0.160	0.131
-363.683	-143.198	-0.219	-0.021
-362.669	-5.447	0.111	-0.075
-361.654	557.955	0.058	-0.137
-360.639	-200.000	0.089	0.396
-359.625	-124.848	-0.159	0.024
-358.610	-98.322	0.392	-0.099
-357.596	-162.733	-0.280	-0.014
-356.581	288.620	0.071	0.127
-355.566	-200.000	0.033	-0.402
-354.552	-53.441	-0.335	0.152
-353.537	800.000	0.057	-0.197
-352.523	636.471	0.119	0.299
-351.508	-44.591	-0.099	0.049
-350.493	-21.873	0.217	-0.130
-349.479	-200.000	0.005	-0.104
-348.464	515.667	-0.113	-0.262
-347.450	-14.354	0.373	0.237
-346.435	-165.915	-0.175	-0.007
-345.420	375.482	0.143	0.289
-344.406	536.691	0.060	-0.140
-343.391	-129.546	-0.148	-0.020
-342.377	34.900	-0.235	-0.203
-341.362	-53.991	0.221	-0.099
-340.348	85.353	-0.248	-0.269
-339.333	-103.576	0.332	-0.077
-338.318	256.442	-0.186	0.315
-337.304	-133.174	0.276	-0.034
-336.289	-200.000	0.067	0.412
-335.275	-51.857	-0.087	-0.040
-334.260	183.660	0.128	0.187
-333.245	77.224	-0.062	-0.065
-332.231	-158.057	0.169	0.010
-331.216	16.375	0.294	-0.229
-330.202	-200.000	0.056	0.253
-329.187	-45.295	0.187	-0.092
-328.172	-10.184	-0.204	-0.134
-327.158	137.746	-0.130	-0.168
-326.143	-200.000	-0.065	0.340
-325.129	-200.000	-0.063	0.441
-324.114	19.411	0.044	-0.035
-323.099	160.168	-0.156	0.215
-322.085	47.101	0.069	0.064
-321.070	-48.038	-0.186	-0.089
-320.056	-192.676	-0.212	-0.002
-319.041	189.949	-0.083	0.122
-318.026	-113.700	0.419	-0.081
-317.012	219.112	-0.096	-0.151
-315.997	-140.676	-0.055	0.006
-314.983	-105.838	-0.210	-0.047
-313.968	204.063	0.096	0.147
-312.953	-200.000	0.001	0.206
-311.939	-33.562	-0.175	-0.095
-310.924	421.801	0.065	-0.138
-309.910	-200.000	-0.013	0.200
-308.895	405.431	0.108	0.225
-307.880	100.174	0.197	-0.225
-306.866	194.357	0.211	-0.316
-305.851	119.764	-0.177	0.216
-304.837	432.355	-0.089	0.191
-303.822	-94.193	0.186	0.050
-302.807	3.335	-0.167	0.120
-301.793	71.240	0.268	0.274
-300.778	56.535	0.154	0.148
-299.764	92.234	0.126	0.139
-298.749	-32.873	-0.196	-0.108
-297.735	177.592	-0.028	-0.040
-296.720	-104.893	0.101	0.023
-295.705	-16.574	0.255	0.159
-294.691	-200.000	-0.041	-0.287
-293.676	800.000	-0.067	-0.199
-292.662	362.631	0.124	0.245
-291.647	-47.993	0.042	0.020
-290.632	337.596	-0.065	-0.125
-289.618	252.111	-0.127	-0.213
-288.603	50.790	-0.167	-0.156
-287.589	416.316	0.008	0.016
-286.574	26.968	-0.268	0.221
-285.559	-82.287	-0.158	0.051
-284.545	82.470	0.129	0.138
-283.530	100.652	0.158	-0.180
-282.516	-112.567	-0.054	-0.011
-281.501	800.000	0.033	-0.116
-280.486	-101.584	0.236	0.056
-279.472	583.085	-0.025	-0.062
-278.457	118.658	-0.205	-0.249
-277.443	800.000	-0.031	-0.122
-276.428	800.000	-0.100	-0.398
-275.413	-13.791	0.330	-0.210
-274.399	51.827	0.092	-0.086
-273.384	-183.353	-0.371	-0.006
-272.370	-61.966	0.160	-0.066
-271.355	-73.986	-0.142	0.051
-270.340	187.969	-0.049	-0.072
-269.326	-200.000	0.005	0.121
-268.311	-99.165	0.137	-0.034
-267.297	-200.000	-0.051	0.232
-266.282	-200.000	-0.226	-0.001
-265.267	545.691	-0.139	0.328
-264.253	165.501	0.085	-0.118
-263.238	800.000	-0.035	-0.151
-262.224	166.864	0.066	-0.092
-261.209	-137.673	-0.261	-0.029
-260.195	470.934	0.042	0.094
-259.180	-30.832	-0.185	0.103
-258.165	157.356	0.059	-0.080
-257.151	-7.511	0.165	0.110
-256.136	-145.909	-0.388	-0.034
-255.122	800.000	0.011	-0.034
-254.107	242.310	0.159	-0.263
-253.092	-14.790	-0.098	0.062
-252.078	8.479	-0.340	-0.252
-251.063	455.825	0.047	-0.103
-250.049	-200.000	-0.027	0.315
-249.034	800.000	0.156	0.440
-248.019	-124.944	-0.106	0.016
-247.005	800.000	0.048	-0.197
-245.990	10.120	0.407	0.304
-244.976	800.000	-0.043	-0.139
-243.961	-50.723	0.171	0.079
-242.946	43.377	0.085	0.077
-241.932	-65.403	0.107	-0.042
-240.917	-2.256	-0.302	-0.208
-239.903	-98.010	0.165	-0.042
-238.888	-200.000	0.033	0.351
-237.873	7.456	0.365	0.268
-236.859	-17.650	0.097	0.060
-235.844	85.915	-0.390	0.422
-234.830	-200.000	0.024	0.121
-233.815	-200.000	0.032	0.145
-232.800	137.315	-0.113	0.146
-231.786	-200.000	-0.002	0.032
-230.771	-113.092	0.169	0.033
-229.757	800.000	-0.025	0.096
-228.742	113.977	-0.217	0.260
-227.727	-48.920	0.170	0.080
-226.713	-101.684	-0.216	0.051
-225.698	352.869	-0.128	0.250
-224.684	-119.820	0.268	-0.045
-223.669	-89.935	0.407	0.117
-222.655	-55.484	0.075	-0.033
-221.640	-46.796	0.132	0.064
-220.625	-126.172	0.181	0.027
-219.611	-200.000	-0.050	0.289
-218.596	-200.000	-0.049	0.332
-217.582	141.487	0.111	-0.145
-216.567	-200.000	0.009	-0.187
-215.552	-110.381	0.396	0.081
-214.538	409.092	0.125	-0.259
-213.523	-60.224	-0.156	-0.065
-212.509	140.453	-0.167	0.217
-211.494	-55.486	0.275	0.121
-210.479	171.080	-0.121	0.170
-209.465	264.543	-0.133	0.227
-208.450	258.360	-0.156	0.264
-207.436	-71.630	0.184	0.067
-206.421	376.535	-0.020	-0.040
-205.406	132.933	-0.257	-0.325
-204.392	800.000	0.121	-0.395
-203.377	-152.601	0.054	-0.004
-202.363	297.096	0.086	-0.155
-201.348	-2.746	-0.092	0.063
-200.333	-30.298	0.150	0.084
-199.319	246.576	0.045	0.075
-198.304	-200.000	-0.013	-0.074
-197.290	710.353	-0.125	0.324
-196.275	800.000	0.069	0.249
-195.260	284.267	-0.073	0.129
-194.246	222.346	0.217	0.342
-193.231	-75.288	0.299	0.105
-192.217	-75.334	-0.432	-0.151
-191.202	503.122	0.155	0.351
-190.187	349.913	0.058	-0.113
-189.173	-115.905	0.009	-0.002
-188.158	-156.041	0.244	0.015
-187.144	800.000	-0.090	-0.328
-186.129	-200.000	0.008	0.077
-185.114	-38.479	0.127	-0.066
-184.100	-84.019	-0.057	-0.018
-183.085	800.000	-0.098	0.304
-182.071	655.372	0.073	-0.184
-181.056	-200.000	0.028	0.184
-180.042	76.475	-0.035	-0.036
-179.027	466.660	0.100	-0.220
-178.012	-137.385	0.279	0.031
-176.998	-128.666	0.081	0.011
-175.983	42.436	0.141	0.125
-174.969	90.364	0.084	0.092
-173.954	2.613	-0.237	-0.168
-172.939	517.164	0.133	0.306
-171.925	-57.982	-0.216	0.093
-170.910	-200.000	0.038	-0.203
-169.896	-110.038	-0.514	0.105
-168.881	69.248	0.291	-0.293
-167.866	-144.838	0.051	0.005
-166.852	53.284	-0.418	-0.393
-165.837	-38.441	0.208	-0.108
-164.823	800.000	-0.095	-0.364
-163.808	321.980	0.055	0.103
-162.793	-59.021	0.169	-0.071
-161.779	-57.684	-0.159	0.068
-160.764	-200.000	-0.001	-0.023
-159.750	142.980	0.107	0.139
-158.735	-49.143	-0.419	0.196
-157.720	-21.166	-0.095	0.057
-156.706	-50.431	-0.172	0.080
-155.691	-66.854	0.175	0.068
-154.677	-15.648	0.185	0.115
-153.662	-49.717	-0.244	-0.114
-152.647	206.217	-0.041	0.063
-151.633	800.000	0.097	-0.294
-150.618	-116.886	-0.081	-0.015
-149.604	800.000	0.043	0.147
-148.589	-147.833	-0.310	-0.025
-147.574	-200.000	-0.015	-0.107
-146.560	-120.664	0.245	0.041
-145.545	9.589	0.107	-0.079
-144.531	-9.629	0.338	0.221
-143.516	96.387	0.139	0.156
-142.502	-24.635	-0.247	-0.144
-141.487	241.673	-0.108	-0.177
-140.472	-200.000	0.045	0.244
-139.458	61.268	-0.103	0.101
-138.443	-200.000	0.050	0.660
-137.429	-129.525	0.211	-0.029
-136.414	-8.248	-0.129	-0.085
-135.399	36.966	-0.328	0.284
-134.385	90.758	0.078	-0.085
-133.370	-91.999	0.202	0.056
-132.356	800.000	-0.038	0.160
-131.341	-135.492	-0.281	-0.033
-130.326	14.022	0.130	-0.099
-129.312	156.750	0.068	-0.091
-128.297	-98.937	-0.313	-0.078
-127.283	-200.000	0.011	0.101
-126.268	555.184	-0.121	0.285
-125.253	-200.000	0.009	0.096
-124.239	324.912	0.075	0.140
-123.224	-127.507	-0.234	-0.033
-122.210	213.465	0.107	0.166
-121.195	5.732	0.276	-0.200
-120.180	37.955	0.154	0.134
-119.166	-200.000	0.004	-0.337
-118.151	42.912	-0.126	-0.112
-117.137	-200.000	0.081	-0.401
-116.122	271.974	-0.166	-0.286
-115.107	-2.243	0.109	-0.075
-114.093	800.000	0.027	0.111
-113.078	-36.995	0.105	0.055
-112.064	83.036	-0.048	0.051
-111.049	-65.295	-0.146	0.058
-110.034	800.000	0.073	0.237
-109.020	-44.625	-0.475	-0.232
-108.005	-33.488	0.187	0.101
-106.991	-200.000	-0.031	-0.313
-105.976	-200.000	-0.000	0.144
-104.962	241.047	0.095	0.155
-103.947	-46.177	-0.132	-0.063
-102.932	80.110	0.210	-0.221
-101.918	-82.094	-0.238	0.076
-100.903	-200.000	-0.003	-0.154
-99.889	-56.088	0.373	0.162
-98.874	305.078	-0.059	-0.106
-97.859	156.600	-0.099	-0.134
-96.845	-55.666	-0.137	0.060
-95.830	-24.789	-0.157	-0.091
-94.816	711.867	-0.123	-0.319
-93.801	101.584	-0.057	0.065
-92.786	-59.124	-0.065	-0.027
-91.772	-29.592	-0.105	0.058
-90.757	42.924	-0.035	0.031
-89.743	-65.576	0.230	0.090
-88.728	128.223	0.044	-0.055
-87.713	46.753	-0.047	0.043
-86.699	51.188	0.236	-0.219
-85.684	-7.781	-0.172	0.114
-84.670	438.361	0.167	0.357
-83.655	-200.000	0.065	0.302
-82.640	-200.000	-0.032	-0.162
-81.626	-200.000	-0.013	-0.189
-80.611	-108.133	-0.174	0.037
-79.597	-132.547	-0.148	-0.019
-78.582	-132.921	0.219	0.027
-77.567	130.431	0.084	0.105
-76.553	-71.395	-0.201	0.073
-75.538	800.000	-0.006	-0.019
-74.524	332.470	0.208	-0.392
-73.509	-99.182	-0.256	0.063
-72.494	80.442	0.474	-0.499
-71.480	-9.700	-0.263	-0.171
-70.465	521.036	0.033	-0.075
-69.451	336.218	0.124	-0.236
-68.436	-72.842	0.469	-0.169
-67.422	172.169	-0.121	-0.170
-66.407	226.299	-0.102	-0.161
-65.392	800.000	-0.060	0.165
-64.378	-62.565	0.426	0.173
-63.363	152.662	0.118	0.158
-62.349	-147.891	0.242	0.020
-61.334	142.171	-0.944	-1.223
-60.319	393.111	0.282	0.572
-59.305	170.498	-0.669	-0.936
-58.290	800.000	0.293	1.214
-57.276	262.554	0.658	1.115
-56.261	-200.000	118.118	643.002
-55.246	481.676	1557.289	3452.301
-54.232	174.303	2723.126	3842.964
-53.217	103.579	2175.304	2492.780
-52.203	36.589	1691.035	1457.402
-51.188	29.393	1506.465	1249.742
-50.173	27.070	1482.399	1214.219
-49.159	49.188	1544.287	1416.761
-48.144	48.071	1558.475	1422.095
-47.130	29.378	1513.128	1254.969
-46.115	26.280	1497.781	1221.284
-45.100	26.115	1494.594	1217.525
-44.086	26.073	1492.489	1215.481
-43.071	26.099	1490.637	1214.100
-42.057	26.091	1488.869	1212.554
-41.042	26.067	1487.603	1211.315
-40.027	26.074	1486.254	1210.215
-39.013	26.163	1484.816	1209.595
-37.998	25.991	1483.996	1207.725
-36.984	26.105	1482.646	1207.344
-35.969	26.025	1481.165	1205.552
-34.954	25.961	1480.050	1204.169
-33.940	26.012	1478.634	1203.311
-32.925	26.068	1477.258	1202.515
-31.911	26.095	1476.052	1201.666
-30.896	26.089	1474.684	1200.467
-29.881	26.117	1473.130	1199.337
-28.867	26.106	1471.844	1198.171
-27.852	26.088	1470.767	1197.129
-26.838	26.044	1469.628	1195.864
-25.823	26.074	1467.845	1194.559
-24.809	26.207	1465.939	1193.841
-23.794	26.086	1464.922	1192.170
-22.779	26.125	1463.555	1191.266
-21.765	26.120	1462.551	1190.366
-20.750	26.102	1461.493	1189.341
-19.736	26.075	1460.198	1188.063
-18.721	26.067	1459.392	1187.309
-17.706	26.109	1458.315	1186.661
-16.692	26.141	1457.216	1185.926
-15.677	26.001	1456.509	1184.388
-14.663	26.058	1455.228	1183.674
-13.648	26.037	1453.833	1182.350
-12.633	26.000	1453.697	1181.954
-11.619	26.051	1452.801	1181.511
-10.604	25.991	1451.736	1180.208
-9.590	26.077	1450.490	1179.707
-8.575	26.020	1449.648	1178.601
-7.560	26.016	1449.139	1178.115
-6.546	26.048	1448.122	1177.453
-5.531	26.074	1446.938	1176.610
-4.517	26.110	1446.308	1176.286
-3.502	26.076	1445.278	1175.183
-2.487	25.999	1444.131	1173.698
-1.473	26.028	1443.316	1173.179
-0.458	26.032	1441.462	1171.654
0.556	27.693	1431.600	1160.920
1.571	24.443	1407.467	1120.876
2.586	20.968	1348.838	1053.138
3.600	19.483	1267.657	981.231
4.615	18.263	1222.781	939.712
5.629	15.913	1166.990	884.431
6.644	9.590	1086.167	792.104
7.659	4.840	1049.843	742.928
8.673	4.336	1044.475	736.673
9.688	4.167	1040.851	733.255
10.702	3.826	1039.893	730.902
11.717	4.022	1037.390	730.001
12.731	6.090	1039.205	740.974
13.746	13.087	1048.783	780.933
14.761	19.705	1057.150	818.543
15.775	22.022	1059.815	831.518
16.790	21.708	1058.607	829.013
17.804	20.831	1056.395	823.062
18.819	20.071	1054.750	818.121
19.834	19.644	1053.125	814.775
20.848	19.505	1052.932	813.898
21.863	19.586	1052.065	813.539
22.877	19.404	1051.559	812.220
23.892	19.164	1050.971	810.563
24.907	19.026	1050.173	809.224
25.921	19.056	1049.241	808.576
26.936	19.023	1048.710	807.942
27.950	19.169	1047.009	807.243
28.965	19.085	1046.252	806.195
29.980	19.154	1045.562	805.918
30.994	19.349	1044.161	805.676
32.009	19.425	1043.734	805.630
33.023	19.559	1042.578	805.291
34.038	19.465	1042.026	804.354
35.053	19.443	1041.140	803.499
36.067	19.319	1039.879	801.879
37.082	19.251	1039.449	801.160
38.096	19.296	1037.881	800.088
39.111	19.368	1037.932	800.391
40.126	19.444	1036.667	799.698
41.140	19.454	1035.188	798.534
42.155	19.017	1034.004	795.529
43.169	18.758	1033.099	793.563
44.184	18.699	1032.085	792.442
45.199	18.737	1030.376	791.234
46.213	18.691	1030.313	790.907
47.228	18.704	1029.714	790.437
48.242	19.036	1029.054	791.386
49.257	19.280	1028.005	791.630
50.271	19.280	1026.796	790.632
51.286	19.281	1025.653	789.686
52.301	19.320	1025.408	789.606
53.315	19.292	1024.809	788.944
54.330	19.194	1023.482	787.406
55.344	19.037	1022.418	785.799
56.359	18.980	1021.498	784.763
57.374	19.107	1020.252	784.318
58.388	18.862	1020.026	782.957
59.403	18.847	1019.072	782.088
60.417	18.774	1018.186	781.007
61.432	18.748	1017.832	780.549
62.447	18.630	1017.086	779.370
63.461	18.562	1016.122	778.254
64.476	18.570	1015.229	777.534
65.490	18.603	1013.905	776.601
66.505	18.400	1013.164	775.048
67.520	18.540	1012.573	775.161
68.534	18.583	1011.884	774.760
69.549	18.593	1011.252	774.253
70.563	18.511	1010.240	773.039
71.578	18.426	1009.756	772.217
72.593	18.241	1008.887	770.652
73.607	18.111	1008.004	769.325
74.622	18.188	1006.609	768.536
75.636	18.153	1006.217	768.011
76.651	18.307	1005.279	767.920
77.666	18.321	1004.639	767.424
78.680	18.382	1003.974	767.122
79.695	18.380	1003.666	766.812
80.709	18.511	1002.829	766.689
81.724	18.647	1002.147	766.707
82.739	18.832	1001.122	766.680
83.753	18.745	1000.898	766.052
84.768	19.099	1000.041	766.906
85.782	19.443	999.620	768.046
86.797	19.652	999.118	768.524
87.812	19.566	998.423	767.537
88.826	19.312	997.630	765.733
89.841	19.346	996.478	764.931
90.855	19.415	995.802	764.650
91.870	19.529	995.065	764.524
92.884	19.620	994.340	764.301
93.899	19.679	993.491	763.840
94.914	19.562	992.859	762.771
95.928	19.536	992.361	762.205
96.943	19.710	991.394	762.162
97.957	19.442	990.292	760.070
98.972	19.337	989.653	759.048
99.987	19.328	988.733	758.237
101.001	19.448	988.231	758.310
102.016	19.567	987.069	757.874
103.030	19.460	986.024	756.536
104.045	19.383	985.722	755.899
105.060	19.473	984.670	755.422
106.074	19.297	983.240	753.487
107.089	19.026	982.169	751.415
108.103	18.794	981.333	749.698
109.118	18.700	980.181	748.340
110.133	18.553	979.763	747.317
111.147	18.524	978.820	746.403
112.162	18.549	977.244	745.244
113.176	18.692	976.645	745.343
114.191	18.655	976.085	744.691
115.206	18.808	975.643	744.951
116.220	18.840	974.636	744.254
117.235	18.792	973.658	743.232
118.249	18.800	972.713	742.480
119.264	18.658	971.910	741.190
120.279	18.640	971.026	740.370
121.293	18.519	970.572	739.438
122.308	18.539	969.513	738.651
123.322	18.352	968.832	737.261
124.337	18.173	967.785	735.633
125.352	18.343	965.985	734.926
126.366	18.233	965.228	733.816
127.381	18.341	964.409	733.592
128.395	18.322	963.466	732.727
129.410	18.312	962.585	731.951
130.424	18.442	962.054	732.037
131.439	18.505	961.221	731.606
132.454	18.618	960.546	731.512
133.468	18.610	960.201	731.148
134.483	18.691	959.211	730.675
135.497	18.797	958.323	730.384
136.512	18.633	957.857	729.269
137.527	18.782	956.881	729.093
138.541	18.723	956.420	728.427
139.556	18.739	955.830	727.980
140.570	18.854	954.836	727.647
141.585	18.861	953.980	726.957
142.600	18.993	954.155	727.587
143.614	19.384	952.975	728.274
144.629	19.315	952.380	727.465
145.643	19.484	952.113	727.908
146.658	19.394	950.865	726.509
147.673	19.244	949.684	724.913
148.687	18.979	948.514	722.841
149.702	18.831	947.840	721.643
150.716	18.834	946.734	720.749
151.731	18.782	945.925	719.851
152.746	18.800	945.170	719.287
153.760	18.747	944.767	718.695
154.775	19.003	943.288	718.580
155.789	19.123	942.754	718.606
156.804	19.227	942.098	718.480
157.819	19.145	941.502	717.617
158.833	19.177	941.049	717.344
159.848	19.314	940.386	717.346
160.862	19.401	940.060	717.396
161.877	19.327	939.197	716.364
162.892	19.176	937.519	714.393
163.906	18.855	936.965	712.578
164.921	18.729	936.012	711.271
165.935	18.718	935.182	710.531
166.950	18.819	934.077	710.045
167.964	19.021	933.479	710.362
168.979	19.103	932.335	709.764
169.994	18.922	930.885	707.853
171.008	18.947	929.978	707.203
172.023	18.988	929.428	706.892
173.037	19.194	928.671	707.099
174.052	19.271	928.754	707.419
175.067	19.248	927.760	706.502
176.081	19.038	926.409	704.551
177.096	18.661	925.372	702.158
178.110	18.693	924.417	701.503
179.125	18.855	923.700	701.559
180.140	18.989	922.916	701.448
181.154	18.951	922.558	700.957
182.169	19.167	922.076	701.412
183.183	19.274	921.826	701.593
184.198	19.344	921.438	701.520
185.213	19.354	920.209	700.561
186.227	19.418	919.301	700.071
187.242	19.376	919.256	699.804
188.256	19.448	918.988	699.830
189.271	19.652	917.869	699.741
190.286	19.633	917.584	699.387
191.300	19.355	916.177	697.126
192.315	18.896	915.189	694.459
193.329	18.576	913.837	692.083
194.344	18.674	913.369	692.061
195.359	18.905	913.054	692.691
196.373	19.022	912.736	692.859
197.388	19.162	912.465	693.157
198.402	19.363	911.908	693.483
199.417	19.560	911.767	694.104
200.432	19.818	911.109	694.580
201.446	19.682	911.202	694.041
202.461	19.859	910.804	694.387
203.475	20.054	910.059	694.541
204.490	19.844	909.752	693.404
205.504	19.685	908.245	691.555
206.519	19.412	907.098	689.532
207.534	19.453	906.520	689.193
208.548	19.436	905.535	688.315
209.563	19.485	905.396	688.344
210.577	19.427	904.372	687.275
211.592	19.498	903.998	687.214
212.607	19.648	903.987	687.740
213.621	19.938	903.450	688.426
214.636	19.775	902.441	686.945
215.650	19.741	901.701	686.190
216.665	19.801	901.377	686.118
217.680	19.764	900.760	685.443
218.694	19.954	900.595	686.008
219.709	20.074	899.824	685.837
220.723	19.947	899.423	684.967
221.738	19.724	898.948	683.662
222.753	19.648	898.207	682.738
223.767	19.833	897.221	682.657
224.782	19.882	896.717	682.409
225.796	20.028	895.991	682.369
226.811	20.134	894.874	681.877
227.826	20.119	894.545	681.505
228.840	19.878	893.959	680.055
229.855	19.809	892.656	678.731
230.869	19.676	892.575	678.089
231.884	19.642	891.379	676.987
232.899	19.685	890.880	676.714
233.913	19.576	890.053	675.601
234.928	19.297	889.729	674.202
235.942	19.443	888.622	673.874
236.957	19.491	887.797	673.378
237.972	19.502	887.037	672.785
238.986	19.459	886.568	672.200
240.001	19.464	886.151	671.847
241.015	19.401	885.734	671.223
242.030	19.504	884.808	670.863
243.045	19.656	884.168	670.909
244.059	19.699	884.087	670.954
245.074	19.754	883.367	670.565
246.088	19.757	882.728	670.030
247.103	19.818	882.170	669.783
248.117	19.949	881.512	669.730
249.132	20.159	881.488	670.467
250.147	20.398	881.218	671.127
251.161	20.559	880.717	671.305
252.176	20.750	879.860	671.329
253.190	20.799	879.324	671.049
254.205	20.791	879.008	670.720
255.220	20.992	878.381	670.956
256.234	20.814	877.796	669.763
257.249	20.725	877.303	668.986
258.263	20.762	876.326	668.323
259.278	20.693	875.671	667.501
260.293	20.734	875.384	667.379
261.307	20.624	875.064	666.656
262.322	20.922	874.238	667.107
263.336	20.859	873.900	666.552
264.351	20.894	873.097	666.011
265.366	21.057	872.494	666.115
266.380	20.930	871.952	665.159
267.395	21.021	871.043	664.755
268.409	20.974	870.397	664.022
269.424	20.794	869.550	662.634
270.439	20.663	869.164	661.780
271.453	20.719	868.079	661.110
272.468	20.548	867.131	659.681
273.482	20.567	866.481	659.200
274.497	20.484	866.241	658.646
275.512	20.648	865.315	658.503
276.526	20.624	864.471	657.710
277.541	20.670	863.831	657.340
278.555	20.650	863.818	657.195
279.570	20.716	863.136	656.868
280.585	21.026	862.881	657.786
281.599	21.012	862.377	657.289
282.614	20.796	861.808	655.987
283.628	20.779	860.910	655.181
284.643	20.702	860.121	654.230
285.657	20.598	859.661	653.434
286.672	20.708	859.475	653.649
287.687	20.661	859.136	653.155
288.701	20.692	858.650	652.846
289.716	20.607	858.164	652.099
290.730	20.653	857.493	651.703
291.745	20.897	856.507	651.811
292.760	20.685	856.106	650.654
293.774	20.951	855.235	650.926
294.789	21.059	855.180	651.232
295.803	21.247	854.320	651.221
296.818	20.932	853.826	649.613
297.833	20.653	853.171	648.018
298.847	20.676	852.589	647.604
299.862	20.771	851.632	647.174
300.876	20.830	851.492	647.226
301.891	20.991	850.946	647.354
302.906	21.081	850.566	647.341
303.920	21.283	849.847	647.484
304.935	21.352	848.970	647.013
305.949	21.342	848.482	646.549
306.964	21.327	848.014	646.080
307.979	21.142	847.116	644.656
308.993	21.103	846.905	644.292
310.008	21.246	846.116	644.164
311.022	21.429	845.587	644.378
312.037	21.338	845.276	643.750
313.052	21.220	844.597	642.742
314.066	20.900	843.364	640.571
315.081	20.759	843.242	639.902
316.095	20.742	842.674	639.352
317.110	20.779	842.175	639.050
318.125	20.930	841.300	638.884
319.139	20.863	841.071	638.411
320.154	20.743	840.640	637.587
321.168	20.880	839.820	637.410
322.183	20.927	839.554	637.324
323.197	20.858	838.993	636.590
324.212	21.130	838.236	636.951
325.227	21.077	837.601	636.219
326.241	20.926	837.295	635.380
327.256	20.787	836.889	634.507
328.270	20.786	836.223	633.945
329.285	20.773	835.932	633.619
330.300	20.783	834.852	632.779
331.314	20.970	834.225	632.929
332.329	20.894	833.955	632.391
333.343	21.109	833.296	632.618
334.358	21.352	832.747	633.024
335.373	21.238	832.345	632.250
336.387	21.395	831.466	632.092
337.402	21.340	831.185	631.624
338.416	21.417	831.000	631.707
339.431	21.489	830.316	631.391
340.446	21.756	829.940	632.010
341.460	21.868	829.245	631.829
342.475	21.865	828.983	631.564
343.489	21.865	828.612	631.227
344.504	22.090	827.852	631.399
345.519	22.031	827.517	630.875
346.533	22.110	827.012	630.720
347.548	22.147	826.373	630.309
348.562	21.770	825.750	628.425
349.577	21.539	825.042	627.003
350.592	21.306	824.747	625.889
351.606	21.226	823.952	624.945
352.621	21.197	823.411	624.374
353.635	21.388	823.044	624.725
354.650	21.344	822.624	624.194
355.665	21.364	822.439	624.068
356.679	21.536	821.671	624.044
357.694	21.754	820.912	624.188
358.708	21.586	820.760	623.422
359.723	21.671	820.052	623.129
360.738	21.435	819.980	622.179
361.752	21.545	819.238	621.952
362.767	21.707	818.333	621.786
363.781	21.852	818.541	622.405
364.796	22.018	818.155	622.646
365.810	22.030	818.185	622.653
366.825	22.180	817.658	622.730
367.840	22.242	817.406	622.703
368.854	22.308	816.742	622.373
369.869	22.177	816.086	621.355
370.883	22.027	815.523	620.344
371.898	21.975	814.960	619.678
372.913	22.188	814.164	619.766
373.927	22.237	813.673	619.510
374.942	22.250	812.759	618.808
375.956	22.090	812.439	617.945
376.971	22.189	811.879	617.812
377.986	22.359	811.042	617.719
379.000	22.609	811.077	618.568
380.015	22.463	810.824	617.809
381.029	22.276	810.324	616.717
382.044	22.331	809.281	616.060
383.059	22.419	808.699	615.873
384.073	22.428	808.343	615.577
385.088	22.395	807.577	614.823
386.102	22.021	807.146	613.134
387.117	22.025	806.366	612.503
388.132	21.962	806.134	612.054
389.146	22.018	805.507	611.718
390.161	21.980	804.831	611.019
391.175	22.200	804.954	611.824
392.190	22.455	804.673	612.441
393.205	22.154	804.144	610.937
394.219	22.145	803.523	610.382
395.234	22.105	802.885	609.704
396.248	21.898	802.327	608.509
397.263	21.910	801.400	607.794
398.278	21.798	800.964	607.021
399.292	21.772	800.091	606.217
400.307	21.795	800.033	606.198
401.321	21.747	799.723	605.742
402.336	21.830	799.333	605.682
403.350	21.926	798.990	605.697
404.365	22.070	798.865	606.047
405.380	22.190	798.057	605.794
406.394	22.451	797.966	606.572
407.409	22.616	797.649	606.846
408.423	22.531	797.662	606.507
409.438	22.653	796.834	606.244
410.453	22.814	796.506	606.496
411.467	22.749	796.102	605.909
412.482	22.790	795.443	605.495
413.496	22.779	795.133	605.168
414.511	22.918	794.943	605.446
415.526	22.860	794.493	604.851
416.540	22.810	793.904	604.177
417.555	22.784	793.545	603.761
418.569	22.731	793.299	603.340
419.584	22.887	792.410	603.143
420.599	22.803	791.881	602.400
421.613	165.570	1370.097	1798.454
422.628	143.624	1454.349	1798.508
