DTS Sentinel unit serial number:	SN413079Multiplexer serial number:	ORYXHardware model number:	OX4-SRSoftware version number:	ORYX F/W v4.00 Oryx Data Collector v3.7.2.0data status	okinstallation	princeton_trtdifferential loss correction	single-endedforward channel	channel 3reverse channel	N/Adate	2019/09/12time	16:18:10forward acquisition time	60.00reverse acquisition time	0.00gamma	496.2192k internal	0.2301k external	0.2301temperature offset calibration	1.0065default loss term (dB/km)	0.3790temperature slope calibration	1.0000multiplexer offset coefficient	1.0000multiplexer slope coefficient	1.0000fibre end	0.00T internal ref (°C)	37.98T ext. ref 1 (°C)	2.50T ext. ref 2 (°C)	30.77length (m)	temperature (°C)	Stokes	anti-Stokes-747.200	800.000	0.019	-0.070
-746.185	800.000	-0.027	0.090
-745.171	313.977	0.058	0.112
-744.156	26.390	-0.122	-0.104
-743.142	-123.676	-0.148	-0.024
-742.127	514.937	0.040	0.096
-741.112	-44.271	-0.113	-0.058
-740.098	-88.806	-0.446	0.135
-739.083	-23.415	0.037	0.023
-738.069	86.544	-0.141	0.158
-737.054	-145.943	0.260	-0.023
-736.039	-159.356	-0.205	-0.012
-735.025	43.689	0.053	-0.049
-734.010	-70.854	-0.082	0.031
-732.996	-155.662	-0.194	0.013
-731.981	427.068	-0.168	0.369
-730.966	537.845	-0.070	-0.169
-729.952	-70.968	-0.166	0.064
-728.937	-31.637	-0.089	-0.051
-727.923	194.523	-0.118	0.183
-726.908	38.314	0.142	0.129
-725.894	303.697	-0.100	-0.189
-724.879	800.000	-0.145	-0.465
-723.864	467.792	0.113	-0.257
-722.850	-100.808	-0.076	0.019
-721.835	183.265	0.122	-0.183
-720.821	112.335	-0.279	-0.344
-719.806	800.000	-0.027	0.095
-718.791	800.000	-0.145	-0.462
-717.777	-71.386	0.172	-0.066
-716.762	-160.636	0.258	-0.014
-715.748	-29.036	0.151	-0.088
-714.733	-75.679	-0.195	0.071
-713.718	233.558	0.018	0.031
-712.704	-36.461	-0.218	0.120
-711.689	466.061	0.088	-0.202
-710.675	-17.836	0.257	-0.165
-709.660	60.364	-0.064	-0.065
-708.645	-41.496	-0.152	-0.080
-707.631	-200.000	-0.016	0.327
-706.616	-28.704	0.257	-0.151
-705.602	-200.000	-0.018	-0.288
-704.587	800.000	-0.061	-0.200
-703.572	-200.000	0.026	0.205
-702.558	-127.874	-0.028	-0.004
-701.543	-29.213	0.289	0.169
-700.529	-200.000	-0.002	0.090
-699.514	-90.778	-0.349	0.102
-698.499	90.770	0.116	-0.132
-697.485	1.188	-0.276	0.202
-696.470	360.320	-0.008	0.016
-695.456	-42.640	-0.366	0.189
-694.441	-16.610	0.233	-0.150
-693.426	284.002	-0.086	0.157
-692.412	650.595	0.065	0.169
-691.397	133.884	0.238	0.314
-690.383	430.915	0.099	-0.218
-689.368	41.409	0.101	-0.093
-688.354	-159.766	0.168	0.009
-687.339	113.622	-0.149	0.184
-686.324	-140.473	0.289	0.031
-685.310	-157.788	-0.332	0.020
-684.295	44.694	0.036	-0.034
-683.281	77.127	0.086	-0.093
-682.266	-180.648	-0.166	-0.003
-681.251	-147.689	0.206	-0.018
-680.237	154.688	0.191	-0.267
-679.222	479.225	0.123	-0.283
-678.208	12.085	0.123	-0.096
-677.193	-54.067	0.072	0.033
-676.178	-29.975	-0.141	-0.082
-675.164	-40.480	-0.296	-0.156
-674.149	-200.000	0.001	-0.048
-673.135	62.168	0.262	0.266
-672.120	13.386	0.309	-0.244
-671.105	-165.726	-0.224	0.010
-670.091	-68.949	0.404	0.159
-669.076	-16.698	0.286	-0.184
-668.062	-52.052	-0.192	-0.091
-667.047	274.610	-0.128	0.231
-666.032	-68.440	0.202	0.080
-665.018	101.493	-0.261	0.309
-664.003	-200.000	0.006	-0.042
-662.989	-193.932	0.145	0.001
-661.974	-200.000	0.006	-0.076
-660.959	-73.261	-0.221	-0.082
-659.945	64.656	-0.034	0.035
-658.930	-21.437	-0.220	-0.136
-657.916	256.741	0.144	0.252
-656.901	-200.000	0.020	0.203
-655.886	9.512	-0.216	-0.167
-654.872	-200.000	0.027	0.265
-653.857	-109.536	-0.103	0.022
-652.843	80.298	-0.085	-0.092
-651.828	800.000	0.070	-0.201
-650.814	-142.924	-0.134	-0.013
-649.799	106.945	0.238	-0.288
-648.784	-189.957	-0.360	-0.004
-647.770	85.031	-0.079	0.088
-646.755	-47.412	-0.426	-0.210
-645.741	-39.260	-0.353	-0.188
-644.726	-200.000	-0.020	-0.106
-643.711	236.944	-0.121	0.204
-642.697	179.023	-0.108	0.161
-641.682	-148.839	-0.274	0.022
-640.668	0.653	-0.094	-0.068
-639.653	381.482	0.137	-0.287
-638.638	104.682	0.144	-0.172
-637.624	-200.000	0.059	-0.415
-636.609	-200.000	-0.041	0.000
-635.595	-128.688	0.166	0.024
-634.580	-131.942	-0.168	-0.022
-633.565	214.758	-0.076	-0.123
-632.551	-106.910	0.082	0.018
-631.536	29.780	0.163	0.141
-630.522	140.192	0.027	0.036
-629.507	193.765	0.182	-0.279
-628.492	93.245	0.208	-0.239
-627.478	26.932	-0.114	-0.097
-626.463	-122.046	-0.183	0.031
-625.449	-200.000	0.009	0.119
-624.434	91.914	-0.149	0.170
-623.419	35.002	0.057	0.050
-622.405	96.577	-0.277	0.322
-621.390	-12.995	-0.126	-0.083
-620.376	-103.578	0.164	-0.039
-619.361	-80.401	-0.328	-0.111
-618.346	-84.954	-0.325	0.103
-617.332	-67.298	-0.091	-0.036
-616.317	-195.031	0.292	0.002
-615.303	-200.000	0.012	-0.145
-614.288	-32.558	-0.181	-0.102
-613.273	145.857	-0.199	-0.270
-612.259	-177.683	-0.288	-0.007
-611.244	-157.802	-0.157	0.009
-610.230	176.803	0.194	0.287
-609.215	-93.466	0.362	0.102
-608.201	-200.000	-0.022	0.193
-607.186	-66.879	0.287	0.115
-606.171	20.344	0.259	-0.213
-605.157	7.454	0.213	-0.162
-604.142	96.619	-0.124	-0.145
-603.128	120.829	0.029	-0.037
-602.113	800.000	0.098	-0.286
-601.098	113.175	0.180	0.221
-600.084	800.000	0.046	0.177
-599.069	125.127	0.168	0.215
-598.055	800.000	0.084	-0.274
-597.040	97.925	0.060	0.070
-596.025	800.000	0.035	0.119
-595.011	-50.681	0.128	0.061
-593.996	234.063	-0.143	-0.239
-592.982	39.663	-0.172	-0.157
-591.967	67.183	-0.305	0.315
-590.952	-200.000	-0.077	0.531
-589.938	-78.649	0.141	0.049
-588.923	84.697	0.107	0.119
-587.909	116.411	0.070	-0.087
-586.894	348.963	0.062	-0.125
-585.879	116.701	-0.171	-0.212
-584.865	174.954	-0.144	-0.212
-583.850	54.741	0.132	-0.129
-582.836	-200.000	-0.051	0.232
-581.821	-108.785	-0.241	-0.052
-580.806	800.000	-0.029	-0.110
-579.792	-200.000	0.006	0.116
-578.777	-200.000	-0.003	-0.403
-577.763	277.713	-0.109	-0.197
-576.748	-9.188	0.146	-0.099
-575.733	44.156	0.141	0.131
-574.719	163.416	-0.206	0.294
-573.704	-16.359	-0.245	0.158
-572.690	-65.277	-0.273	-0.111
-571.675	-149.962	-0.092	0.007
-570.661	246.803	0.109	0.186
-569.646	412.098	0.051	0.110
-568.631	4.333	-0.227	-0.169
-567.617	330.876	0.025	0.048
-566.602	-200.000	0.059	-0.364
-565.588	-69.046	0.309	-0.121
-564.573	-50.069	0.148	-0.071
-563.558	485.995	-0.043	-0.099
-562.544	17.043	0.148	-0.119
-561.529	-89.086	0.133	-0.040
-560.515	171.510	0.220	0.319
-559.500	-97.994	-0.144	-0.037
-558.485	-137.376	0.300	-0.034
-557.471	159.501	-0.246	-0.347
-556.456	-21.839	-0.302	-0.186
-555.442	-108.223	-0.265	0.058
-554.427	-200.000	0.017	0.276
-553.412	138.461	-0.082	-0.109
-552.398	-200.000	0.006	-0.196
-551.383	218.909	0.237	-0.384
-550.369	-200.000	-0.020	-0.096
-549.354	45.085	0.208	-0.194
-548.339	74.955	0.192	0.205
-547.325	-200.000	0.016	0.118
-546.310	-164.054	-0.233	0.011
-545.296	197.827	0.082	0.126
-544.281	385.834	0.120	-0.250
-543.266	734.749	-0.053	0.144
-542.252	-31.269	-0.346	0.197
-541.237	42.708	-0.029	-0.027
-540.223	-161.703	-0.197	0.010
-539.208	-179.648	-0.356	-0.008
-538.193	125.790	0.177	-0.227
-537.179	-35.188	-0.205	-0.113
-536.164	109.397	0.073	-0.089
-535.150	-59.944	0.109	-0.047
-534.135	-70.306	0.100	0.038
-533.121	-200.000	-0.018	-0.224
-532.106	76.729	0.166	0.178
-531.091	312.055	0.069	-0.131
-530.077	-115.128	-0.164	0.032
-529.062	18.733	-0.114	0.092
-528.048	-24.649	-0.204	-0.123
-527.033	101.984	0.219	0.258
-526.018	-200.000	0.004	0.198
-525.004	-90.052	-0.198	0.058
-523.989	-152.150	0.383	-0.028
-522.975	-79.687	0.230	-0.078
-521.960	416.796	0.114	-0.245
-520.945	-72.875	0.115	0.043
-519.931	31.368	-0.177	-0.154
-518.916	209.753	0.068	-0.109
-517.902	-52.329	0.099	-0.046
-516.887	-4.616	0.343	-0.239
-515.872	800.000	-0.099	-0.292
-514.858	9.641	-0.058	0.045
-513.843	-59.300	-0.118	0.051
-512.829	-0.827	-0.318	0.228
-511.814	-200.000	-0.014	-0.137
-510.799	-200.000	-0.014	-0.119
-509.785	-34.704	0.296	0.164
-508.770	-62.405	-0.232	-0.098
-507.756	331.933	0.114	0.222
-506.741	-200.000	0.047	0.217
-505.726	-200.000	-0.058	-0.256
-504.712	26.052	-0.051	0.043
-503.697	329.422	0.103	0.200
-502.683	-198.875	0.100	-0.001
-501.668	-74.768	0.225	-0.081
-500.653	-200.000	-0.023	-0.146
-499.639	49.929	0.065	-0.062
-498.624	-50.019	0.403	-0.193
-497.610	80.392	-0.288	0.313
-496.595	79.595	-0.058	0.063
-495.581	-200.000	-0.087	0.491
-494.566	37.524	0.157	0.141
-493.551	-59.069	-0.030	-0.013
-492.537	-37.645	-0.145	-0.078
-491.522	800.000	-0.037	0.112
-490.508	-112.151	-0.075	-0.015
-489.493	800.000	-0.077	0.243
-488.478	465.840	-0.082	-0.185
-487.464	-12.782	-0.109	-0.071
-486.449	54.680	-0.105	-0.102
-485.435	11.812	0.166	-0.128
-484.420	-200.000	0.007	-0.086
-483.405	-107.542	-0.096	0.021
-482.391	-71.070	-0.126	-0.048
-481.376	-4.424	0.474	0.331
-480.362	-184.083	-0.267	0.004
-479.347	177.028	0.176	0.258
-478.332	-200.000	-0.007	0.304
-477.318	-84.978	-0.361	0.114
-476.303	-18.029	0.259	0.164
-475.289	93.462	0.189	0.216
-474.274	201.257	-0.048	-0.074
-473.259	85.691	0.190	0.210
-472.245	-92.340	-0.203	-0.058
-471.230	-200.000	0.045	-0.488
-470.216	29.069	0.161	-0.138
-469.201	-122.948	-0.170	0.028
-468.186	46.716	-0.311	0.291
-467.172	-200.000	-0.040	-0.185
-466.157	196.411	-0.095	0.146
-465.143	-200.000	-0.019	-0.267
-464.128	-70.952	-0.273	-0.104
-463.113	460.357	0.080	-0.180
-462.099	-159.723	0.107	0.006
-461.084	346.691	-0.039	0.077
-460.070	64.184	0.154	0.157
-459.055	81.454	0.087	-0.095
-458.040	-56.327	0.072	0.032
-457.026	-1.903	-0.409	-0.290
-456.011	569.353	-0.074	-0.181
-454.997	152.456	-0.388	0.535
-453.982	324.018	0.165	0.318
-452.968	-65.216	0.104	0.042
-451.953	-200.000	-0.061	0.274
-450.938	-200.000	0.061	-0.318
-449.924	79.035	0.280	-0.302
-448.909	-36.894	0.101	-0.055
-447.895	-200.000	0.005	-0.123
-446.880	82.991	-0.041	0.045
-445.865	800.000	0.083	-0.266
-444.851	-200.000	0.022	-0.435
-443.836	-90.203	0.228	-0.067
-442.822	31.060	0.077	-0.067
-441.807	128.610	-0.077	-0.099
-440.792	-45.740	0.173	-0.086
-439.778	-0.418	0.236	-0.169
-438.763	-34.098	0.125	-0.069
-437.749	-92.809	-0.214	-0.060
-436.734	-56.547	-0.120	-0.053
-435.719	-64.137	0.193	-0.079
-434.705	491.868	0.052	-0.120
-433.690	800.000	-0.022	-0.064
-432.676	685.758	0.074	0.194
-431.661	65.836	0.120	-0.122
-430.646	1.345	0.122	-0.089
-429.632	29.976	0.111	-0.095
-428.617	-90.424	-0.118	-0.034
-427.603	6.358	-0.228	0.170
-426.588	527.513	0.126	-0.299
-425.573	51.791	-0.095	-0.091
-424.559	800.000	-0.087	-0.279
-423.544	607.909	0.008	0.019
-422.530	-200.000	0.022	-0.213
-421.515	71.753	0.307	0.321
-420.500	-54.896	0.172	-0.078
-419.486	-51.521	-0.129	-0.061
-418.471	79.791	-0.099	-0.107
-417.457	-75.830	-0.216	0.077
-416.442	-200.000	0.028	0.173
-415.428	-200.000	0.147	-0.000
-414.413	-69.360	-0.305	0.118
-413.398	-200.000	0.019	0.131
-412.384	-161.930	-0.255	0.013
-411.369	248.263	-0.150	-0.255
-410.355	-45.015	-0.221	-0.111
-409.340	-108.731	-0.294	0.063
-408.325	-200.000	-0.029	-0.399
-407.311	-200.000	0.038	0.212
-406.296	36.774	-0.113	-0.101
-405.282	118.463	-0.213	0.264
-404.267	-106.029	0.108	0.024
-403.252	536.014	-0.066	0.157
-402.238	800.000	-0.015	-0.067
-401.223	-200.000	0.014	-0.372
-400.209	13.995	-0.338	0.265
-399.194	66.178	0.115	0.118
-398.179	-85.461	-0.329	0.103
-397.165	-166.356	-0.111	-0.005
-396.150	800.000	-0.015	0.064
-395.136	-20.696	-0.243	-0.150
-394.121	-7.684	0.198	0.134
-393.106	19.027	-0.271	0.218
-392.092	173.791	-0.206	0.299
-391.077	-46.638	0.334	0.164
-390.063	-200.000	0.026	0.212
-389.048	295.076	-0.105	0.194
-388.033	250.311	0.069	0.118
-387.019	-200.000	0.025	0.199
-386.004	-200.000	-0.027	0.201
-384.990	226.945	0.087	0.142
-383.975	-150.465	0.274	0.021
-382.960	-8.923	-0.208	0.140
-381.946	-135.515	-0.485	0.058
-380.931	-104.912	-0.323	0.074
-379.917	-19.756	-0.419	0.261
-378.902	-77.352	0.267	-0.093
-377.888	-177.033	-0.090	-0.002
-376.873	-36.433	0.168	-0.091
-375.858	-26.239	0.050	0.030
-374.844	-200.000	0.024	0.207
-373.829	229.966	0.257	0.423
-372.815	22.684	0.253	0.208
-371.800	-92.290	0.216	-0.061
-370.785	-4.388	0.085	0.059
-369.771	-148.716	-0.279	-0.023
-368.756	-60.334	-0.314	0.134
-367.742	-115.102	-0.075	0.014
-366.727	-23.716	-0.184	-0.111
-365.712	-158.756	-0.210	-0.012
-364.698	291.895	0.190	-0.347
-363.683	-48.452	0.068	0.033
-362.669	138.499	0.151	0.199
-361.654	41.507	0.099	0.090
-360.639	56.719	0.275	-0.269
-359.625	-69.672	-0.027	0.010
-358.610	-200.000	0.018	-0.168
-357.596	-128.284	0.093	-0.013
-356.581	97.321	-0.123	0.142
-355.566	800.000	-0.048	-0.149
-354.552	40.622	0.237	-0.215
-353.537	-200.000	0.011	-0.090
-352.523	-87.428	-0.265	0.081
-351.508	12.601	-0.202	0.156
-350.493	-85.976	0.266	0.083
-349.479	-200.000	-0.011	-0.123
-348.464	-37.776	0.144	-0.077
-347.450	-99.877	0.313	-0.079
-346.435	-173.566	0.237	0.007
-345.420	-2.686	0.333	0.234
-344.406	-72.160	0.110	0.041
-343.391	189.463	-0.143	-0.215
-342.377	363.281	0.043	0.088
-341.362	-97.790	0.067	0.017
-340.348	41.457	-0.142	-0.129
-339.333	51.733	0.123	0.118
-338.318	278.121	-0.160	0.285
-337.304	-11.548	-0.315	-0.208
-336.289	-85.127	-0.155	0.049
-335.275	-116.079	0.147	0.028
-334.260	-157.568	-0.422	-0.025
-333.245	20.299	-0.197	0.159
-332.231	-12.087	0.213	-0.140
-331.216	656.608	0.116	-0.300
-330.202	-66.683	0.232	-0.092
-329.187	-200.000	-0.031	0.377
-328.172	-26.180	0.133	-0.079
-327.158	122.891	0.114	-0.144
-326.143	282.127	-0.058	0.104
-325.129	502.748	0.120	0.279
-324.114	-122.803	0.550	0.089
-323.099	-176.769	-0.165	-0.004
-322.085	217.013	-0.139	-0.222
-321.070	-200.000	0.022	-0.293
-320.056	259.677	-0.090	-0.156
-319.041	-61.505	0.442	0.186
-318.026	-31.253	0.262	-0.148
-317.012	-31.449	-0.357	-0.201
-315.997	225.023	-0.155	0.252
-314.983	-42.475	0.351	0.179
-313.968	-18.555	0.290	0.182
-312.953	469.849	-0.186	0.419
-311.939	70.455	-0.113	0.117
-310.924	-140.474	0.111	-0.012
-309.910	25.655	0.150	0.125
-308.895	614.490	0.111	0.279
-307.880	-60.875	0.506	0.215
-306.866	-200.000	-0.052	-0.309
-305.851	2.471	-0.070	0.051
-304.837	182.761	0.102	-0.150
-303.822	162.687	0.057	0.080
-302.807	-75.425	-0.050	0.018
-301.793	-147.663	-0.065	-0.005
-300.778	-69.036	-0.173	-0.067
-299.764	-85.813	-0.332	0.103
-298.749	-138.675	-0.184	-0.020
-297.735	-200.000	-0.005	-0.326
-296.720	-200.000	0.009	-0.239
-295.705	-18.056	0.104	0.066
-294.691	-62.504	0.295	-0.123
-293.676	-193.670	0.231	0.002
-292.662	-21.498	-0.304	0.186
-291.647	800.000	-0.054	-0.182
-290.632	300.193	-0.170	0.314
-289.618	-63.324	-0.319	0.132
-288.603	-66.561	-0.167	0.066
-287.589	597.653	-0.005	0.013
-286.574	-24.245	0.233	0.139
-285.559	47.381	0.291	-0.271
-284.545	-200.000	-0.017	0.150
-283.530	-156.935	0.315	0.019
-282.516	212.327	0.091	0.143
-281.501	-143.390	0.303	-0.029
-280.486	-65.809	-0.213	0.085
-279.472	27.154	0.200	0.169
-278.457	-89.502	-0.186	-0.055
-277.443	800.000	0.126	0.390
-276.428	-108.287	0.102	0.022
-275.413	44.141	0.308	-0.283
-274.399	-155.737	0.592	0.038
-273.384	50.894	0.229	0.217
-272.370	-200.000	0.003	0.100
-271.355	609.947	0.123	-0.307
-270.340	105.848	0.250	-0.296
-269.326	283.052	-0.084	0.150
-268.311	204.496	-0.240	-0.373
-267.297	-73.157	0.234	-0.086
-266.282	-39.135	0.136	0.072
-265.267	-200.000	-0.005	0.221
-264.253	-49.848	-0.177	-0.084
-263.238	141.524	-0.058	0.077
-262.224	-157.385	-0.121	-0.007
-261.209	95.947	-0.178	-0.203
-260.195	8.823	-0.150	-0.113
-259.180	165.592	-0.115	-0.162
-258.165	359.280	0.104	0.209
-257.151	71.610	-0.137	-0.142
-256.136	-200.000	0.021	-0.229
-255.122	-81.152	-0.132	-0.044
-254.107	-32.282	-0.115	-0.064
-253.092	-162.704	0.054	-0.003
-252.078	109.647	-0.137	0.164
-251.063	503.862	0.043	0.100
-250.049	111.341	-0.104	0.126
-249.034	800.000	0.042	-0.158
-248.019	-58.310	0.359	0.156
-247.005	-200.000	0.004	0.439
-245.990	-32.230	-0.081	0.045
-244.976	-131.860	0.259	-0.034
-243.961	117.303	-0.129	-0.159
-242.946	234.304	-0.170	-0.280
-241.932	-11.787	-0.059	-0.039
-240.917	-200.000	0.032	-0.208
-239.903	189.267	-0.103	-0.155
-238.888	644.842	0.075	0.192
-237.873	22.604	-0.135	0.110
-236.859	-96.773	-0.204	0.054
-235.844	657.493	-0.098	0.251
-234.830	-171.536	0.225	0.007
-233.815	-75.373	-0.315	-0.112
-232.800	278.672	0.105	0.187
-231.786	-90.025	0.209	0.061
-230.771	115.866	-0.259	0.317
-229.757	-60.845	0.444	0.188
-228.742	274.926	0.256	0.453
-227.727	-145.770	-0.344	0.031
-226.713	-52.140	-0.276	-0.128
-225.698	82.305	-0.046	0.049
-224.684	-46.922	-0.107	-0.052
-223.669	93.743	-0.198	-0.224
-222.655	318.768	0.163	-0.309
-221.640	3.138	-0.359	0.260
-220.625	-200.000	-0.029	-0.163
-219.611	-66.250	0.032	-0.013
-218.596	800.000	0.011	0.039
-217.582	288.878	-0.022	0.040
-216.567	-13.956	-0.247	0.159
-215.552	534.399	-0.110	-0.262
-214.538	-9.377	0.285	-0.190
-213.523	114.330	-0.167	0.203
-212.509	800.000	0.025	0.108
-211.494	294.008	0.099	0.181
-210.479	-200.000	0.087	0.409
-209.465	-200.000	0.055	0.296
-208.450	-200.000	-0.088	-0.541
-207.436	-200.000	0.010	-0.110
-206.421	-143.039	0.181	-0.017
-205.406	-41.633	-0.301	-0.155
-204.392	183.253	0.102	-0.151
-203.377	-200.000	0.006	-0.193
-202.363	-109.830	0.124	-0.026
-201.348	28.786	-0.126	0.107
-200.333	-200.000	0.006	-0.200
-199.319	357.555	0.034	-0.068
-198.304	267.353	0.098	0.172
-197.290	-64.090	-0.170	0.069
-196.275	-80.469	0.108	0.036
-195.260	340.308	0.016	0.032
-194.246	-189.487	-0.067	0.001
-193.231	368.401	0.111	0.224
-192.217	-0.886	-0.255	-0.180
-191.202	-59.928	0.099	0.042
-190.187	-166.857	0.209	-0.009
-189.173	279.280	0.172	-0.306
-188.158	12.772	-0.199	-0.153
-187.144	-13.412	0.173	0.112
-186.129	493.083	0.100	0.230
-185.114	22.373	0.078	0.063
-184.100	-176.145	-0.185	-0.005
-183.085	-33.083	0.394	-0.218
-182.071	189.422	0.238	0.356
-181.056	-158.985	0.271	-0.015
-180.042	88.633	-0.248	0.275
-179.027	-146.663	0.243	0.021
-178.012	-152.983	0.398	-0.028
-176.998	-86.919	0.180	-0.055
-175.983	-200.000	0.026	-0.348
-174.969	164.468	-0.211	0.297
-173.954	79.114	-0.072	0.076
-172.939	-81.236	0.040	0.013
-171.925	-6.217	-0.153	0.104
-170.910	800.000	0.035	0.142
-169.896	-200.000	0.022	-0.201
-168.881	-200.000	0.043	-0.425
-167.866	-39.756	-0.186	-0.097
-166.852	-150.587	-0.093	0.007
-165.837	-39.251	-0.186	0.098
-164.823	-200.000	-0.036	-0.210
-163.808	-111.452	-0.286	0.058
-162.793	532.558	0.095	0.223
-161.779	119.401	-0.217	0.268
-160.764	44.414	0.195	0.179
-159.750	-200.000	0.032	0.240
-158.735	-66.950	0.224	0.088
-157.720	800.000	-0.058	0.229
-156.706	64.513	0.141	-0.141
-155.691	109.934	-0.244	-0.292
-154.677	82.613	0.145	0.157
-153.662	264.388	0.056	0.098
-152.647	468.911	0.057	-0.127
-151.633	-200.000	0.018	-0.312
-150.618	63.685	-0.140	-0.140
-149.604	800.000	-0.083	-0.238
-148.589	-150.663	0.109	0.008
-147.574	324.106	0.083	0.158
-146.560	57.899	0.111	-0.109
-145.545	50.548	-0.136	0.129
-144.531	717.208	0.095	0.250
-143.516	12.988	-0.135	-0.104
-142.502	-74.093	0.322	-0.116
-141.487	332.476	0.141	0.272
-140.472	53.477	0.108	0.103
-139.458	-200.000	-0.012	0.390
-138.443	233.299	0.121	0.198
-137.429	-82.187	-0.257	0.083
-136.414	800.000	-0.052	-0.158
-135.399	205.612	0.068	0.105
-134.385	15.499	0.065	0.051
-133.370	115.324	0.175	0.212
-132.356	-200.000	0.005	-0.087
-131.341	-125.612	0.379	0.057
-130.326	-96.308	-0.062	-0.016
-129.312	10.707	-0.142	0.108
-128.297	33.435	-0.267	0.231
-127.283	142.621	-0.190	0.252
-126.268	-200.000	0.068	0.364
-125.253	48.777	-0.092	0.086
-124.239	154.198	0.110	-0.150
-123.224	-47.269	-0.344	0.167
-122.210	-74.701	-0.069	-0.025
-121.195	-9.834	-0.184	0.122
-120.180	6.313	-0.175	-0.129
-119.166	-21.620	0.194	-0.118
-118.151	800.000	0.080	0.230
-117.137	181.496	-0.087	-0.127
-116.122	-48.490	-0.190	-0.091
-115.107	6.643	0.307	-0.227
-114.093	-147.910	0.144	0.012
-113.078	-2.126	-0.096	0.067
-112.064	23.699	0.148	-0.122
-111.049	800.000	0.090	0.318
-110.034	-200.000	-0.022	-0.296
-109.020	155.561	0.136	0.186
-108.005	-27.167	0.334	-0.194
-106.991	-200.000	0.026	0.179
-105.976	-200.000	-0.049	-0.356
-104.962	-200.000	0.045	-0.208
-103.947	28.141	-0.493	0.414
-102.932	98.051	0.137	0.157
-101.918	-109.898	-0.290	0.060
-100.903	-90.332	0.254	0.073
-99.889	-84.517	-0.349	-0.110
-98.874	-47.343	0.236	0.114
-97.859	319.154	0.166	-0.313
-96.845	-99.507	0.231	0.058
-95.830	-128.434	-0.151	0.021
-94.816	727.644	-0.150	0.398
-93.801	-32.669	-0.092	-0.051
-92.786	84.552	0.256	0.278
-91.772	789.128	-0.068	-0.186
-90.757	-83.950	0.254	0.080
-89.743	-121.634	0.169	0.028
-88.728	340.121	0.062	-0.121
-87.713	-108.608	-0.199	-0.042
-86.699	-124.049	-0.407	-0.064
-85.684	69.287	0.102	0.105
-84.670	-120.018	-0.139	0.024
-83.655	-45.971	0.502	0.246
-82.640	46.004	-0.093	-0.086
-81.626	-93.723	0.230	0.063
-80.611	55.364	0.287	-0.276
-79.597	800.000	0.033	0.126
-78.582	755.500	-0.106	-0.286
-77.567	82.717	0.364	-0.393
-76.553	298.374	0.083	0.152
-75.538	-200.000	-0.022	0.205
-74.524	-36.463	0.359	0.192
-73.509	-200.000	0.004	-0.078
-72.494	-110.426	0.017	0.004
-71.480	20.109	-0.188	0.151
-70.465	800.000	0.010	0.029
-69.451	-48.213	-0.154	-0.074
-68.436	13.418	0.123	0.095
-67.422	797.360	-0.154	-0.420
-66.407	81.933	-0.183	-0.197
-65.392	492.225	0.075	-0.170
-64.378	322.342	0.057	0.108
-63.363	-200.000	-0.037	-0.306
-62.349	270.572	-0.233	0.407
-61.334	29.428	-0.888	-0.749
-60.319	91.658	0.455	0.508
-59.305	-200.000	-0.036	-0.725
-58.290	192.785	0.541	0.811
-57.276	519.806	0.644	1.499
-56.261	-200.000	87.716	497.245
-55.246	473.122	1374.536	3074.722
-54.232	148.927	2582.766	3466.652
-53.217	112.171	2213.627	2655.880
-52.203	47.768	1747.297	1618.877
-51.188	41.065	1555.212	1394.094
-50.173	38.564	1527.782	1352.215
-49.159	54.768	1573.735	1506.816
-48.144	58.946	1593.363	1554.870
-47.130	41.473	1550.715	1392.694
-46.115	38.125	1535.834	1356.074
-45.100	38.117	1532.165	1352.724
-44.086	37.929	1530.501	1349.899
-43.071	38.014	1527.933	1348.170
-42.057	38.008	1526.105	1346.466
-41.042	37.871	1525.493	1344.922
-40.027	38.044	1523.725	1344.505
-39.013	37.949	1522.162	1342.421
-37.998	37.980	1520.940	1341.502
-36.984	37.959	1519.572	1340.094
-35.969	37.953	1518.282	1338.863
-34.954	38.036	1516.682	1337.972
-33.940	37.993	1515.688	1336.746
-32.925	38.045	1514.292	1335.819
-31.911	38.064	1512.997	1334.754
-30.896	37.997	1511.762	1333.152
-29.881	38.077	1510.007	1332.096
-28.867	38.097	1508.115	1330.511
-27.852	38.026	1506.511	1328.558
-26.838	38.018	1505.603	1327.653
-25.823	38.004	1504.003	1326.092
-24.809	37.996	1502.225	1324.419
-23.794	38.015	1500.592	1323.055
-22.779	37.984	1499.920	1322.203
-21.765	38.013	1498.485	1321.081
-20.750	38.057	1497.573	1320.521
-19.736	38.094	1496.433	1319.712
-18.721	37.945	1495.252	1317.612
-17.706	37.973	1494.097	1316.733
-16.692	37.965	1493.153	1315.790
-15.677	38.059	1491.971	1315.335
-14.663	37.830	1490.997	1312.882
-13.648	38.002	1489.339	1312.528
-12.633	38.085	1488.241	1312.061
-11.619	37.909	1488.010	1310.622
-10.604	37.991	1486.893	1310.139
-9.590	37.829	1486.196	1308.388
-8.575	37.964	1484.837	1308.040
-7.560	37.929	1484.124	1307.129
-6.546	37.933	1483.904	1306.906
-5.531	37.944	1482.655	1305.829
-4.517	37.912	1481.644	1304.676
-3.502	37.979	1480.268	1303.861
-2.487	37.974	1479.137	1302.776
-1.473	37.847	1478.707	1301.500
-0.458	37.997	1477.136	1301.067
0.556	38.177	1467.245	1287.093
1.571	34.361	1438.447	1237.010
2.586	29.513	1374.894	1152.085
3.600	27.226	1289.629	1067.138
4.615	25.388	1241.895	1017.149
5.629	21.322	1183.764	947.455
6.644	11.507	1096.422	827.939
7.659	3.930	1052.548	757.744
8.673	2.790	1046.557	747.812
9.688	2.504	1043.448	744.133
10.702	2.373	1042.048	742.432
11.717	2.344	1040.433	741.075
12.731	5.476	1043.804	758.617
13.746	15.022	1057.477	815.190
14.761	23.290	1068.348	864.012
15.775	25.625	1070.629	877.178
16.790	25.912	1070.769	878.615
17.804	25.921	1069.352	877.419
18.819	25.554	1068.812	875.113
19.834	25.795	1068.011	875.552
20.848	25.948	1067.743	875.995
21.863	25.968	1067.404	875.737
22.877	25.903	1067.461	875.390
23.892	25.998	1066.496	874.985
24.907	25.908	1065.348	873.527
25.921	25.922	1064.744	873.022
26.936	25.892	1064.258	872.403
27.950	25.897	1062.959	871.287
28.965	25.785	1062.091	869.958
29.980	25.714	1060.541	868.268
30.994	25.635	1059.456	866.921
32.009	25.898	1058.670	867.466
33.023	26.130	1058.021	867.975
34.038	25.806	1057.170	865.642
35.053	25.836	1056.125	864.853
36.067	25.877	1055.623	864.561
37.082	25.843	1054.670	863.541
38.096	26.054	1053.844	863.799
39.111	26.142	1053.386	863.768
40.126	26.176	1052.808	863.383
41.140	26.089	1051.295	861.651
42.155	25.852	1049.576	859.035
43.169	25.450	1048.685	856.316
44.184	25.441	1047.366	855.119
45.199	25.553	1046.489	854.862
46.213	25.612	1045.216	854.024
47.228	25.526	1044.675	853.098
48.242	25.682	1044.133	853.319
49.257	25.754	1043.325	852.923
50.271	25.756	1042.824	852.447
51.286	25.981	1041.932	852.710
52.301	26.122	1041.110	852.627
53.315	26.102	1040.046	851.585
54.330	25.942	1040.150	850.842
55.344	25.810	1039.295	849.445
56.359	25.835	1038.185	848.579
57.374	25.882	1037.363	848.052
58.388	25.620	1036.430	845.985
59.403	25.549	1035.938	845.174
60.417	25.649	1035.179	844.951
61.432	25.383	1034.426	843.013
62.447	25.393	1033.864	842.527
63.461	25.480	1033.279	842.383
64.476	25.737	1031.806	842.309
65.490	25.656	1031.457	841.570
66.505	25.531	1030.258	839.934
67.520	25.556	1029.581	839.424
68.534	25.604	1029.244	839.299
69.549	25.460	1028.362	837.833
70.563	25.237	1026.700	835.370
71.578	25.051	1025.853	833.738
72.593	25.086	1025.372	833.437
73.607	24.978	1024.104	831.832
74.622	25.036	1022.927	831.070
75.636	25.363	1022.273	831.985
76.651	25.361	1022.087	831.749
77.666	25.394	1020.895	830.857
78.680	25.249	1020.412	829.719
79.695	25.225	1019.430	828.737
80.709	25.398	1018.732	828.895
81.724	25.480	1018.327	828.871
82.739	25.450	1017.444	827.941
83.753	25.559	1016.327	827.457
84.768	25.782	1015.824	828.000
85.782	26.118	1014.909	828.724
86.797	26.347	1014.636	829.481
87.812	26.257	1014.100	828.555
88.826	26.094	1012.794	826.671
89.841	26.081	1011.935	825.836
90.855	26.218	1011.245	825.825
91.870	26.175	1010.726	825.134
92.884	26.030	1010.275	824.030
93.899	25.960	1009.769	823.226
94.914	25.862	1008.601	821.752
95.928	26.054	1007.723	821.840
96.943	26.098	1006.907	821.302
97.957	25.907	1005.622	819.310
98.972	25.632	1004.277	816.897
99.987	25.422	1003.345	815.110
101.001	25.588	1002.589	815.177
102.016	25.794	1002.654	816.093
103.030	25.873	1001.619	815.535
104.045	25.789	1000.393	814.085
105.060	25.767	998.859	812.665
106.074	25.440	998.410	810.754
107.089	25.521	997.498	810.304
108.103	25.793	997.232	811.245
109.118	25.944	996.249	811.052
110.133	25.543	995.404	808.487
111.147	25.620	994.114	807.715
112.162	25.365	993.190	805.747
113.176	25.259	992.004	804.239
114.191	25.341	991.344	804.004
115.206	25.473	991.015	804.254
116.220	25.163	989.803	801.816
117.235	24.963	988.484	799.782
118.249	25.230	987.945	800.466
119.264	25.297	987.076	799.989
120.279	25.175	986.263	798.719
121.293	25.003	985.686	797.413
122.308	25.270	984.782	797.800
123.322	25.178	983.897	796.603
124.337	25.270	982.632	795.919
125.352	25.204	981.360	794.522
126.366	24.683	980.267	791.262
127.381	24.390	978.532	788.496
128.395	24.848	978.652	790.551
129.410	25.524	978.585	793.410
130.424	25.701	977.979	793.628
131.439	25.608	977.152	792.475
132.454	25.833	975.480	792.038
133.468	25.770	975.073	791.361
134.483	25.701	973.912	790.049
135.497	25.717	973.664	789.845
136.512	25.852	973.391	790.149
137.527	25.929	972.689	789.847
138.541	26.001	971.688	789.277
139.556	25.993	970.784	788.439
140.570	26.016	969.747	787.627
141.585	26.065	969.106	787.251
142.600	26.185	968.516	787.225
143.614	26.122	967.465	786.025
144.629	26.128	966.866	785.497
145.643	26.358	966.611	786.220
146.658	26.275	965.206	784.645
147.673	26.091	964.043	782.833
148.687	25.939	963.003	781.264
149.702	25.779	961.763	779.495
150.716	25.664	960.801	778.149
151.731	25.701	960.380	777.900
152.746	25.892	959.054	777.578
153.760	26.055	958.793	778.002
154.775	26.113	958.178	777.682
155.789	26.249	956.883	777.150
156.804	26.162	956.213	776.164
157.819	26.072	955.260	774.936
158.833	26.017	954.706	774.179
159.848	26.225	953.560	774.072
160.862	26.160	953.195	773.431
161.877	26.161	951.523	772.008
162.892	26.119	950.605	771.015
163.906	26.221	950.018	770.910
164.921	26.105	949.474	769.904
165.935	26.038	948.067	768.410
166.950	25.950	947.531	767.530
167.964	26.072	946.493	767.143
168.979	26.136	945.334	766.409
169.994	26.041	943.955	764.820
171.008	25.844	943.443	763.502
172.023	26.046	942.647	763.646
173.037	26.212	941.965	763.729
174.052	26.131	940.482	762.115
175.067	25.754	939.937	760.016
176.081	25.755	939.146	759.313
177.096	25.896	938.387	759.225
178.110	25.928	937.526	758.597
179.125	25.769	936.345	756.904
180.140	25.416	935.395	754.588
181.154	25.422	934.781	754.050
182.169	25.594	934.540	754.510
183.183	25.681	934.256	754.580
184.198	26.045	934.039	755.864
185.213	26.066	933.253	755.247
186.227	25.907	932.458	753.872
187.242	25.889	932.278	753.585
188.256	25.931	931.679	753.209
189.271	26.124	930.706	753.164
190.286	26.162	929.805	752.524
191.300	25.969	928.862	750.892
192.315	25.394	927.641	747.444
193.329	24.654	926.050	743.023
194.344	24.370	924.278	740.359
195.359	24.801	925.092	742.733
196.373	25.769	925.682	747.162
197.388	26.116	925.351	748.266
198.402	25.928	924.710	746.902
199.417	25.995	923.885	746.446
200.432	26.019	923.454	746.131
201.446	25.841	922.927	744.904
202.461	25.548	922.166	743.013
203.475	25.674	921.849	743.214
204.490	25.278	920.315	740.277
205.504	24.131	918.381	733.932
206.519	24.394	918.045	734.682
207.534	25.442	918.436	739.246
208.548	25.555	918.042	739.325
209.563	25.918	917.750	740.517
210.577	25.963	916.995	740.029
211.592	25.652	916.211	738.053
212.607	26.026	916.125	739.455
213.621	26.193	915.736	739.759
214.636	26.185	914.805	738.909
215.650	26.106	914.554	738.316
216.665	26.151	913.716	737.759
217.680	26.014	913.234	736.744
218.694	26.271	912.449	737.093
219.709	25.889	911.662	734.838
220.723	25.587	910.859	732.893
221.738	25.724	910.646	733.215
222.753	25.945	910.057	733.574
223.767	25.925	908.998	732.576
224.782	25.926	908.170	731.849
225.796	26.184	907.835	732.560
226.811	26.370	907.066	732.628
227.826	25.903	905.862	729.701
228.840	25.013	904.419	724.874
229.855	24.986	903.825	724.226
230.869	25.157	904.005	724.995
231.884	24.997	902.822	723.336
232.899	25.076	901.903	722.856
233.913	25.674	902.325	725.541
234.928	25.920	901.970	726.183
235.942	25.801	901.520	725.279
236.957	25.833	900.506	724.529
237.972	25.569	899.726	722.773
238.986	25.449	898.916	721.580
240.001	25.520	898.669	721.600
241.015	25.604	897.614	721.027
242.030	25.631	897.272	720.797
243.045	25.715	896.860	720.740
244.059	25.902	896.521	721.149
245.074	26.109	895.623	721.190
246.088	26.085	894.783	720.354
247.103	25.691	894.158	718.217
248.117	25.654	893.435	717.427
249.132	26.409	893.479	720.405
250.147	26.570	893.749	721.200
251.161	26.686	892.865	720.884
252.176	26.992	892.168	721.476
253.190	26.783	891.961	720.414
254.205	26.980	891.471	720.735
255.220	26.991	891.168	720.470
256.234	27.054	890.525	720.135
257.249	27.034	889.422	719.102
258.263	26.738	889.332	717.794
259.278	26.762	888.664	717.288
260.293	26.945	888.232	717.600
261.307	26.920	887.504	716.845
262.322	26.868	886.864	716.060
263.336	26.732	886.023	714.783
264.351	26.163	885.000	711.652
265.366	25.257	882.641	706.129
266.380	24.617	881.922	702.974
267.395	25.650	882.059	707.085
268.409	26.379	882.479	710.220
269.424	26.461	881.661	709.822
270.439	26.528	881.282	709.718
271.453	26.533	880.898	709.366
272.468	26.629	880.083	709.021
273.482	26.751	879.969	709.346
274.497	27.102	879.215	710.048
275.512	26.857	877.838	707.916
276.526	26.084	876.999	704.160
277.541	26.164	876.652	704.131
278.555	26.582	876.869	705.873
279.570	26.581	875.602	704.786
280.585	26.322	874.989	703.223
281.599	26.493	874.185	703.180
282.614	26.576	873.822	703.149
283.628	26.050	872.934	700.331
284.643	25.741	871.955	698.287
285.657	26.098	872.227	699.825
286.672	26.126	871.184	699.035
287.687	25.574	870.165	696.021
288.701	25.876	870.401	697.316
289.716	26.174	870.086	698.153
290.730	26.064	868.690	696.550
291.745	25.877	868.298	695.451
292.760	25.768	867.212	694.097
293.774	25.589	866.751	692.979
294.789	26.444	867.778	697.034
295.803	27.155	867.577	699.551
296.818	27.130	867.069	698.981
297.833	27.315	866.131	698.876
298.847	27.030	865.299	697.050
299.862	26.647	864.493	694.870
300.876	26.857	864.075	695.275
301.891	27.154	863.579	695.951
302.906	27.230	862.751	695.513
303.920	26.879	861.954	693.470
304.935	26.700	861.684	692.506
305.949	27.200	860.908	693.731
306.964	27.225	860.524	693.457
307.979	27.052	859.978	692.293
308.993	26.861	859.609	691.208
310.008	27.038	859.471	691.709
311.022	27.338	859.065	692.466
312.037	27.228	858.389	691.441
313.052	26.940	857.664	689.698
314.066	26.866	856.505	688.426
315.081	26.108	855.120	684.379
316.095	25.315	853.988	680.408
317.110	25.901	853.986	682.565
318.125	26.653	854.486	685.754
319.139	26.421	853.317	683.877
320.154	25.105	851.525	677.412
321.168	24.610	850.511	674.676
322.183	25.326	850.706	677.474
323.197	26.264	851.323	681.446
324.212	26.620	851.228	682.653
325.227	26.654	850.977	682.520
326.241	26.951	850.190	682.945
327.256	26.739	849.674	681.673
328.270	26.647	849.090	680.797
329.285	26.647	848.167	679.998
330.300	26.426	847.726	678.756
331.314	26.241	846.827	677.280
332.329	26.208	846.074	676.496
333.343	26.819	845.655	678.385
334.358	26.964	845.915	679.079
335.373	26.988	845.432	678.720
336.387	27.100	844.387	678.237
337.402	27.340	844.111	678.854
338.416	27.509	843.970	679.308
339.431	27.513	843.350	678.767
340.446	27.546	842.698	678.302
341.460	27.738	842.350	678.676
342.475	27.572	841.946	677.675
343.489	27.393	841.108	676.276
344.504	27.465	840.974	676.376
345.519	27.664	840.584	676.740
346.533	27.809	840.197	676.908
347.548	27.897	839.515	676.625
348.562	27.807	839.169	675.951
349.577	27.691	838.753	675.127
350.592	27.789	837.836	674.691
351.606	27.751	837.272	674.038
352.621	27.744	836.907	673.658
353.635	27.770	836.101	673.045
354.650	27.564	835.710	671.911
355.665	27.355	834.953	670.473
356.679	26.394	832.881	665.219
357.694	26.080	832.699	663.856
358.708	26.672	832.553	665.858
359.723	26.715	831.938	665.466
360.738	26.898	831.676	665.870
361.752	27.389	831.901	667.792
362.767	27.497	831.681	667.954
363.781	27.841	831.136	668.718
364.796	27.995	831.224	669.292
365.810	28.095	830.829	669.281
366.825	28.209	830.197	669.129
367.840	28.250	830.071	669.119
368.854	28.038	829.386	667.731
369.869	27.600	828.533	665.390
370.883	27.465	827.905	664.333
371.898	27.645	827.085	664.273
372.913	27.542	826.636	663.477
373.927	27.478	825.983	662.664
374.942	27.512	825.691	662.492
375.956	27.625	825.098	662.370
376.971	27.916	824.248	662.685
377.986	28.039	823.990	662.863
379.000	28.106	823.406	662.577
380.015	28.153	823.168	662.497
381.029	27.848	822.558	660.844
382.044	28.077	821.390	660.676
383.059	28.077	821.091	660.377
384.073	28.124	820.748	660.211
385.088	28.030	820.298	659.454
386.102	28.080	819.792	659.166
387.117	27.941	818.965	657.942
388.132	27.854	818.461	657.168
389.146	27.761	817.769	656.220
390.161	27.083	816.822	652.964
391.175	27.145	816.433	652.820
392.190	27.549	816.512	654.276
393.205	27.793	815.899	654.603
394.219	26.787	814.237	649.609
395.234	25.306	811.924	642.408
396.248	24.216	810.757	637.533
397.263	25.362	811.702	642.321
398.278	27.266	812.800	649.944
399.292	27.641	813.266	651.600
400.307	27.406	812.027	649.712
401.321	27.358	811.707	649.224
402.336	27.371	811.424	648.989
403.350	27.784	811.048	650.103
404.365	28.295	811.026	651.844
405.380	28.529	811.024	652.619
406.394	28.801	810.639	653.219
407.409	28.938	810.257	653.341
408.423	28.859	810.033	652.823
409.438	28.681	809.547	651.741
410.453	28.797	808.927	651.593
411.467	28.754	809.014	651.453
412.482	28.808	807.621	650.467
413.496	28.861	807.323	650.356
414.511	28.736	807.254	649.799
415.526	28.895	806.992	650.096
416.540	28.925	806.316	649.598
417.555	28.751	806.185	648.821
418.569	28.485	805.285	647.102
419.584	28.330	804.918	646.201
420.599	28.619	804.305	646.672
421.613	102.809	1275.621	1418.637
422.628	88.493	1344.298	1418.782
