DTS Sentinel unit serial number:	SN413079Multiplexer serial number:	ORYXHardware model number:	OX4-SRSoftware version number:	ORYX F/W v4.00 Oryx Data Collector v3.7.2.0data status	okinstallation	princeton_trtdifferential loss correction	single-endedforward channel	channel 3reverse channel	N/Adate	2019/09/15time	04:12:34forward acquisition time	60.00reverse acquisition time	0.00gamma	496.2192k internal	0.2323k external	0.2323temperature offset calibration	0.9971default loss term (dB/km)	0.3790temperature slope calibration	1.0000multiplexer offset coefficient	1.0000multiplexer slope coefficient	1.0000fibre end	0.00T internal ref (°C)	30.92T ext. ref 1 (°C)	4.64T ext. ref 2 (°C)	25.71length (m)	temperature (°C)	Stokes	anti-Stokes-747.200	530.412	0.145	0.346
-746.185	800.000	0.031	-0.117
-745.171	248.608	0.097	0.166
-744.156	266.387	0.148	0.261
-743.142	-136.115	0.304	-0.036
-742.127	-86.020	-0.497	0.155
-741.112	-147.923	0.281	-0.024
-740.098	800.000	0.052	0.166
-739.083	-40.737	-0.306	0.160
-738.069	-70.515	-0.394	-0.151
-737.054	41.818	-0.073	0.067
-736.039	-23.595	0.055	0.033
-735.025	-94.706	-0.089	0.024
-734.010	-200.000	-0.034	-0.208
-732.996	73.692	-0.244	0.258
-731.981	-178.341	-0.237	-0.006
-730.966	-62.745	-0.044	0.018
-729.952	-108.822	0.063	-0.014
-728.937	317.962	-0.166	0.317
-727.923	5.677	0.263	0.197
-726.908	-62.498	-0.130	0.055
-725.894	-200.000	0.013	-0.130
-724.879	76.042	-0.152	-0.162
-723.864	327.709	-0.041	0.080
-722.850	-200.000	0.011	-0.189
-721.835	-73.355	-0.434	-0.160
-720.821	402.456	-0.057	0.122
-719.806	10.499	-0.383	-0.294
-718.791	800.000	-0.035	0.134
-717.777	800.000	0.069	-0.245
-716.762	800.000	-0.044	-0.155
-715.748	-200.000	-0.009	-0.114
-714.733	202.418	0.102	0.158
-713.718	3.717	-0.362	-0.266
-712.704	-39.365	0.464	0.246
-711.689	-16.890	-0.293	0.187
-710.675	-42.722	-0.115	-0.059
-709.660	800.000	0.016	0.049
-708.645	-200.000	0.010	0.109
-707.631	694.262	-0.007	-0.018
-706.616	683.700	0.124	0.326
-705.602	90.399	0.095	0.107
-704.587	148.537	-0.078	-0.106
-703.572	190.876	-0.069	-0.105
-702.558	-45.379	0.250	-0.125
-701.543	467.641	0.079	-0.180
-700.529	-200.000	-0.001	0.100
-699.514	-200.000	0.027	-0.175
-698.499	-72.213	0.064	-0.024
-697.485	288.782	0.144	-0.263
-696.470	-172.669	-0.264	0.008
-695.456	-66.555	0.407	-0.163
-694.441	-114.454	-0.239	-0.046
-693.426	563.245	0.118	0.289
-692.412	-200.000	0.066	-0.407
-691.397	-200.000	-0.008	0.038
-690.383	-55.534	0.181	0.082
-689.368	223.053	-0.142	-0.231
-688.354	116.113	0.202	0.249
-687.339	63.388	0.196	-0.199
-686.324	-61.617	-0.285	-0.121
-685.310	-200.000	-0.048	0.270
-684.295	-149.380	0.160	-0.013
-683.281	-64.313	-0.319	0.131
-682.266	-125.278	0.177	0.027
-681.251	161.870	-0.119	-0.169
-680.237	-36.677	-0.083	-0.045
-679.222	123.947	0.150	-0.190
-678.208	-119.676	-0.144	-0.025
-677.193	800.000	-0.153	0.478
-676.178	-101.692	0.156	-0.038
-675.164	-172.688	0.294	-0.009
-674.149	5.897	0.169	0.126
-673.135	-200.000	0.005	0.075
-672.120	-144.434	0.148	0.014
-671.105	-17.686	-0.292	-0.185
-670.091	-41.605	-0.254	-0.131
-669.076	-22.056	0.135	0.083
-668.062	59.204	-0.257	0.255
-667.047	47.395	0.127	-0.119
-666.032	-200.000	-0.015	0.214
-665.018	-51.064	-0.321	0.152
-664.003	-200.000	-0.093	0.444
-662.989	-200.000	0.034	0.180
-661.974	690.521	-0.101	-0.265
-660.959	-15.779	-0.492	-0.316
-659.945	194.954	0.093	0.142
-658.930	-32.848	-0.156	0.087
-657.916	57.456	0.178	-0.175
-656.901	-200.000	0.011	-0.174
-655.886	55.192	-0.041	-0.040
-654.872	100.980	-0.289	-0.338
-653.857	119.242	-0.120	0.149
-652.843	800.000	-0.017	0.063
-651.828	-156.136	0.170	-0.011
-650.814	-200.000	0.017	-0.331
-649.799	18.139	-0.266	0.213
-648.784	221.045	-0.159	-0.257
-647.770	0.450	-0.061	0.044
-646.755	45.431	-0.258	-0.239
-645.741	-26.012	-0.435	0.257
-644.726	800.000	0.082	-0.260
-643.711	23.895	0.094	-0.078
-642.697	-139.858	0.378	0.040
-641.682	122.612	0.091	-0.114
-640.668	61.727	-0.196	-0.196
-639.653	329.133	-0.089	-0.172
-638.638	38.345	0.041	0.037
-637.624	-200.000	-0.017	-0.130
-636.609	88.902	-0.093	-0.104
-635.595	174.234	0.033	0.048
-634.580	-139.818	0.262	-0.028
-633.565	-196.890	0.196	-0.001
-632.551	441.816	-0.162	0.356
-631.536	35.901	-0.202	0.178
-630.522	-31.405	-0.217	-0.123
-629.507	583.970	-0.141	0.349
-628.492	-119.798	0.148	-0.026
-627.478	118.838	0.021	-0.026
-626.463	-85.582	-0.092	-0.029
-625.449	-1.425	-0.330	-0.234
-624.434	30.423	-0.109	0.093
-623.419	-54.842	0.463	-0.210
-622.405	789.950	-0.082	0.226
-621.390	319.241	0.057	-0.108
-620.376	-155.683	-0.238	0.015
-619.361	-134.554	-0.315	0.039
-618.346	33.024	-0.304	0.264
-617.332	-22.508	-0.364	-0.222
-616.317	24.874	-0.480	-0.400
-615.303	-200.000	-0.024	0.116
-614.288	-34.624	-0.150	0.083
-613.273	800.000	-0.067	0.233
-612.259	91.305	0.165	0.186
-611.244	173.437	-0.172	0.250
-610.230	377.978	-0.211	-0.433
-609.215	800.000	0.100	-0.285
-608.201	-92.596	-0.364	-0.103
-607.186	143.761	-0.181	0.243
-606.171	-19.823	0.380	-0.236
-605.157	524.931	-0.166	-0.393
-604.142	-200.000	0.017	0.119
-603.128	125.772	-0.040	0.051
-602.113	-147.660	0.251	-0.021
-601.098	-1.628	-0.229	-0.162
-600.084	376.643	-0.083	0.170
-599.069	-99.356	-0.041	-0.010
-598.055	542.888	-0.055	0.131
-597.040	144.597	-0.159	0.213
-596.025	148.058	-0.201	0.273
-595.011	2.681	0.182	0.133
-593.996	68.185	-0.100	-0.103
-592.982	-200.000	-0.013	-0.272
-591.967	13.364	0.163	0.127
-590.952	-93.712	0.158	0.044
-589.938	-200.000	0.050	0.403
-588.923	31.773	-0.269	-0.232
-587.909	499.574	0.147	0.341
-586.894	196.618	-0.206	-0.315
-585.879	-107.735	-0.095	-0.021
-584.865	191.779	0.029	-0.044
-583.850	-200.000	0.002	-0.396
-582.836	-59.112	-0.296	-0.128
-581.821	116.621	0.131	0.161
-580.806	800.000	-0.061	-0.178
-579.792	-200.000	-0.003	-0.110
-578.777	-200.000	-0.022	0.258
-577.763	317.455	-0.073	-0.139
-576.748	23.317	-0.180	0.148
-575.733	-139.222	0.090	0.010
-574.719	-200.000	0.032	-0.187
-573.704	13.616	-0.169	0.132
-572.690	281.638	-0.087	0.157
-571.675	-171.352	0.090	0.003
-570.661	800.000	-0.037	-0.124
-569.646	-98.474	-0.263	0.068
-568.631	-40.023	0.191	-0.100
-567.617	-51.309	0.061	-0.029
-566.602	84.464	-0.121	0.132
-565.588	-200.000	0.036	-0.191
-564.573	-87.955	-0.137	0.041
-563.558	-200.000	0.077	0.475
-562.544	800.000	0.072	0.304
-561.529	-162.437	0.262	-0.013
-560.515	-75.652	0.139	0.049
-559.500	27.014	-0.117	-0.098
-558.485	-136.397	-0.237	-0.028
-557.471	-106.334	0.154	-0.035
-556.456	-185.822	-0.122	0.002
-555.442	800.000	0.026	-0.077
-554.427	-200.000	0.028	-0.279
-553.412	-95.032	0.217	-0.059
-552.398	18.115	0.049	-0.039
-551.383	-200.000	0.003	-0.039
-550.369	21.270	-0.322	-0.262
-549.354	17.616	-0.294	-0.235
-548.339	50.051	0.106	0.100
-547.325	-28.196	0.041	0.023
-546.310	800.000	0.061	0.178
-545.296	-150.224	0.326	0.025
-544.281	-125.129	0.360	-0.055
-543.266	138.975	0.164	-0.216
-542.252	-200.000	0.006	-0.072
-541.237	153.880	-0.100	0.138
-540.223	-200.000	-0.032	0.270
-539.208	-113.460	-0.200	0.039
-538.193	800.000	0.067	-0.214
-537.179	-54.835	0.109	-0.049
-536.164	-9.879	-0.232	-0.155
-535.150	-200.000	0.014	0.327
-534.135	-166.213	-0.167	-0.007
-533.121	-200.000	0.002	0.304
-532.106	-102.839	0.288	0.069
-531.091	-0.585	0.305	0.216
-530.077	59.349	-0.061	-0.061
-529.062	-73.204	0.429	0.157
-528.048	510.446	0.074	-0.172
-527.033	-200.000	-0.056	0.250
-526.018	-200.000	0.011	0.231
-525.004	-74.383	0.034	-0.012
-523.989	192.093	-0.096	0.144
-522.975	-200.000	-0.020	-0.269
-521.960	800.000	0.137	0.391
-520.945	131.929	-0.156	0.200
-519.931	-82.656	-0.224	-0.072
-518.916	48.583	0.197	0.185
-517.902	-87.781	0.092	-0.028
-516.887	231.584	0.093	-0.153
-515.872	584.848	0.054	0.134
-514.858	800.000	-0.055	-0.153
-513.843	84.620	0.025	-0.027
-512.829	-78.014	-0.075	0.026
-511.814	177.585	0.139	0.203
-510.799	178.633	0.169	0.248
-509.785	102.698	-0.132	-0.155
-508.770	153.130	0.057	-0.078
-507.756	21.407	-0.074	-0.060
-506.741	95.124	0.031	0.035
-505.726	769.233	0.034	-0.093
-504.712	-170.806	-0.050	-0.002
-503.697	800.000	-0.066	-0.183
-502.683	50.296	0.154	-0.146
-501.668	-200.000	0.005	0.379
-500.653	-114.393	-0.251	0.048
-499.639	-47.885	0.305	-0.148
-498.624	226.757	0.039	-0.063
-497.610	800.000	-0.061	0.228
-496.595	13.728	0.199	0.155
-495.581	15.719	-0.164	-0.129
-494.566	78.324	-0.102	0.109
-493.551	316.913	0.096	0.182
-492.537	45.864	-0.376	-0.348
-491.522	387.365	-0.084	-0.174
-490.508	203.119	-0.132	-0.204
-489.493	26.579	0.318	-0.266
-488.478	-74.643	0.037	0.013
-487.464	-137.670	-0.248	-0.028
-486.449	11.676	-0.276	-0.212
-485.435	-28.364	-0.150	0.086
-484.420	-62.306	-0.324	0.135
-483.405	-8.077	0.107	-0.072
-482.391	213.797	0.187	-0.295
-481.376	-147.214	-0.267	0.023
-480.362	800.000	0.039	-0.109
-479.347	339.949	-0.179	-0.349
-478.332	-116.194	-0.036	-0.007
-477.318	-187.189	0.134	0.002
-476.303	368.032	0.134	-0.270
-475.289	-3.618	0.101	0.070
-474.274	230.192	-0.192	0.313
-473.259	99.776	-0.209	0.242
-472.245	-101.875	-0.213	0.051
-471.230	137.256	-0.311	0.407
-470.216	-26.267	-0.365	0.214
-469.201	150.218	0.237	0.321
-468.186	-34.712	0.040	-0.022
-467.172	9.294	0.196	-0.148
-466.157	60.817	0.033	0.032
-465.143	686.373	-0.191	-0.499
-464.128	403.636	-0.076	-0.159
-463.113	800.000	0.076	-0.215
-462.099	-2.367	-0.180	-0.126
-461.084	800.000	0.086	-0.238
-460.070	255.965	0.144	-0.247
-459.055	-50.858	-0.520	-0.244
-458.040	-128.788	0.068	-0.010
-457.026	-200.000	0.015	-0.186
-456.011	122.190	0.157	0.195
-454.997	298.442	0.156	0.287
-453.982	-107.632	0.185	-0.040
-452.968	-152.320	-0.200	0.014
-451.953	-200.000	-0.028	0.158
-450.938	-172.576	-0.284	0.009
-449.924	83.240	0.021	-0.023
-448.909	-194.980	-0.064	0.000
-447.895	800.000	-0.055	-0.184
-446.880	-45.815	0.185	0.091
-445.865	570.558	0.144	-0.351
-444.851	-97.042	-0.203	0.053
-443.836	-88.955	-0.246	0.073
-442.822	-102.917	0.191	0.045
-441.807	-65.872	-0.293	0.117
-440.792	800.000	0.092	-0.295
-439.778	400.147	-0.141	-0.296
-438.763	135.476	0.175	-0.228
-437.749	380.684	-0.177	0.361
-436.734	372.113	0.115	0.234
-435.719	-90.241	-0.196	0.057
-434.705	-33.431	0.163	-0.090
-433.690	-131.615	-0.272	-0.036
-432.676	114.930	0.035	-0.043
-431.661	-144.886	0.397	-0.036
-430.646	-66.825	0.429	-0.169
-429.632	-174.788	0.198	-0.006
-428.617	-13.739	-0.138	0.089
-427.603	-0.004	0.277	0.197
-426.588	2.530	0.190	-0.137
-425.573	-10.554	0.055	-0.037
-424.559	800.000	0.058	0.177
-423.544	477.150	0.108	0.244
-422.530	351.290	0.214	0.423
-421.515	-200.000	-0.012	-0.131
-420.500	-121.673	0.297	-0.049
-419.486	109.552	-0.103	0.123
-418.471	159.973	0.063	-0.088
-417.457	-67.418	0.139	0.054
-416.442	-200.000	0.046	-0.285
-415.428	-91.729	-0.167	-0.047
-414.413	139.361	-0.057	-0.075
-413.398	-200.000	0.001	-0.073
-412.384	63.076	0.116	-0.116
-411.369	146.621	-0.110	-0.147
-410.355	-126.611	0.289	0.043
-409.340	-112.531	0.146	0.029
-408.325	-0.772	-0.395	0.279
-407.311	-156.310	-0.274	-0.017
-406.296	-200.000	0.044	-0.327
-405.282	-118.478	0.274	0.048
-404.267	355.660	0.154	-0.305
-403.252	341.332	-0.115	0.224
-402.238	16.387	-0.074	0.058
-401.223	800.000	-0.049	-0.165
-400.209	56.870	0.074	0.071
-399.194	26.310	0.102	0.085
-398.179	-200.000	-0.009	0.073
-397.165	73.906	0.301	-0.314
-396.150	-157.689	-0.214	-0.013
-395.136	-51.557	0.218	0.101
-394.121	128.982	-0.237	0.301
-393.106	221.615	0.093	0.148
-392.092	-200.000	-0.007	0.140
-391.077	110.384	0.219	0.262
-390.063	-124.040	-0.452	-0.071
-389.048	800.000	-0.033	-0.101
-388.033	232.735	0.085	-0.140
-387.019	-37.436	0.099	0.053
-386.004	30.079	-0.092	0.078
-384.990	-200.000	0.018	-0.104
-383.975	-200.000	0.004	0.335
-382.960	-58.970	-0.248	0.107
-381.946	-200.000	0.018	-0.138
-380.931	-150.833	-0.050	-0.004
-379.917	-149.605	0.299	-0.024
-378.902	193.164	-0.218	-0.329
-377.888	-106.178	-0.137	-0.031
-376.873	-116.147	0.287	0.053
-375.858	322.374	-0.230	0.435
-374.844	84.731	0.038	0.041
-373.829	-73.708	-0.013	0.005
-372.815	743.068	-0.045	-0.122
-371.800	-77.235	-0.346	-0.120
-370.785	18.032	0.397	0.315
-369.771	800.000	-0.094	0.385
-368.756	-200.000	0.027	-0.187
-367.742	-124.741	-0.127	-0.020
-366.727	-116.549	0.308	-0.056
-365.712	36.444	-0.212	0.186
-364.698	800.000	0.040	0.130
-363.683	405.168	0.057	0.120
-362.669	800.000	-0.048	-0.162
-361.654	-35.113	0.140	0.076
-360.639	-4.073	0.165	-0.114
-359.625	297.851	0.081	0.149
-358.610	-64.135	-0.314	-0.128
-357.596	1.085	0.215	-0.153
-356.581	94.346	-0.165	-0.186
-355.566	-73.441	0.311	-0.113
-354.552	706.626	-0.064	0.167
-353.537	-26.503	0.248	0.144
-352.523	-130.429	0.150	0.020
-351.508	-200.000	-0.057	-0.257
-350.493	-50.920	-0.354	-0.165
-349.479	527.107	-0.119	0.278
-348.464	320.788	-0.082	0.155
-347.450	226.455	0.169	-0.272
-346.435	800.000	0.119	-0.359
-345.420	800.000	0.152	0.427
-344.406	-154.473	0.201	0.013
-343.391	418.075	-0.048	-0.102
-342.377	55.731	-0.241	0.232
-341.362	96.853	0.201	-0.229
-340.348	-22.699	0.132	-0.079
-339.333	54.994	-0.203	-0.195
-338.318	-47.515	0.431	0.208
-337.304	800.000	0.054	-0.203
-336.289	190.817	-0.230	-0.344
-335.275	37.405	-0.141	0.124
-334.260	552.662	-0.095	0.227
-333.245	20.879	0.311	0.251
-332.231	-6.010	-0.075	-0.051
-331.216	58.912	0.247	-0.242
-330.202	-52.043	0.348	-0.161
-329.187	-200.000	0.000	0.108
-328.172	-200.000	0.006	0.165
-327.158	120.023	0.063	0.077
-326.143	-110.311	-0.137	0.028
-325.129	-78.037	0.040	-0.014
-324.114	-84.078	0.151	-0.048
-323.099	-75.084	0.345	-0.123
-322.085	207.435	0.254	0.393
-321.070	-2.065	-0.392	0.273
-320.056	-50.716	-0.217	0.102
-319.041	-10.140	0.189	-0.125
-318.026	-200.000	0.037	-0.461
-317.012	800.000	0.025	0.088
-315.997	143.758	0.014	-0.018
-314.983	800.000	0.067	0.226
-313.968	-200.000	0.030	-0.164
-312.953	-41.307	0.344	0.176
-311.939	113.166	-0.183	0.221
-310.924	-97.353	-0.107	0.028
-309.910	597.783	0.201	0.495
-308.895	-109.908	0.285	-0.059
-307.880	614.142	0.010	-0.025
-306.866	491.665	0.136	-0.309
-305.851	81.737	0.157	-0.169
-304.837	800.000	0.058	0.233
-303.822	800.000	-0.115	-0.477
-302.807	-32.906	-0.145	-0.080
-301.793	-200.000	0.019	0.296
-300.778	565.810	0.194	0.468
-299.764	261.799	-0.157	-0.270
-298.749	-16.346	-0.041	0.026
-297.735	173.829	-0.147	-0.210
-296.720	-123.819	-0.155	-0.024
-295.705	-200.000	-0.039	-0.302
-294.691	391.816	0.127	-0.263
-293.676	618.710	0.064	0.160
-292.662	-106.713	0.405	-0.089
-291.647	542.316	0.126	-0.298
-290.632	-109.153	-0.041	-0.009
-289.618	8.620	-0.044	0.033
-288.603	-70.439	0.259	-0.097
-287.589	6.771	-0.162	0.119
-286.574	264.388	0.120	0.207
-285.559	-76.516	-0.034	0.012
-284.545	-200.000	0.046	-0.243
-283.530	22.489	0.200	0.162
-282.516	-164.642	-0.295	0.013
-281.501	-116.435	-0.153	-0.028
-280.486	349.672	0.091	-0.177
-279.472	201.344	0.085	-0.129
-278.457	48.564	-0.174	0.162
-277.443	-200.000	0.393	-0.000
-276.428	516.359	0.075	0.174
-275.413	-4.836	0.112	0.076
-274.399	-97.208	-0.503	-0.130
-273.384	-180.280	-0.297	-0.006
-272.370	-200.000	-0.003	-0.083
-271.355	-77.802	0.105	0.036
-270.340	-77.414	0.227	-0.078
-269.326	-29.955	0.215	0.121
-268.311	133.193	-0.026	-0.033
-267.297	-200.000	-0.084	-0.412
-266.282	247.176	-0.184	0.307
-265.267	146.846	0.122	-0.163
-264.253	-43.492	0.077	-0.039
-263.238	-30.023	0.126	-0.071
-262.224	-163.844	0.142	0.007
-261.209	-118.198	0.260	-0.046
-260.195	-44.192	-0.145	0.072
-259.180	107.613	0.192	0.226
-258.165	-110.089	-0.186	-0.039
-257.151	-9.731	0.186	-0.123
-256.136	-83.759	-0.106	-0.034
-255.122	800.000	-0.105	0.320
-254.107	77.791	-0.051	0.054
-253.092	24.535	0.054	0.045
-252.078	-162.119	0.452	-0.022
-251.063	35.421	0.209	-0.181
-250.049	14.139	-0.084	-0.065
-249.034	166.162	-0.201	-0.282
-248.019	800.000	-0.101	-0.327
-247.005	-197.010	0.008	0.000
-245.990	-143.679	0.241	-0.023
-244.976	-5.544	-0.316	0.215
-243.961	-200.000	-0.003	0.107
-242.946	-159.554	0.263	-0.014
-241.932	24.782	-0.125	0.103
-240.917	33.114	0.138	-0.119
-239.903	-62.197	-0.097	-0.040
-238.888	531.153	0.227	-0.531
-237.873	-2.987	0.289	0.200
-236.859	144.344	-0.142	0.188
-235.844	-51.277	0.389	-0.180
-234.830	42.888	0.267	-0.241
-233.815	-200.000	-0.027	-0.209
-232.800	-156.193	-0.258	0.016
-231.786	-200.000	-0.023	0.310
-230.771	800.000	-0.098	0.270
-229.757	-37.760	-0.159	0.084
-228.742	657.467	0.058	-0.149
-227.727	68.232	-0.174	0.177
-226.713	-58.870	-0.122	0.052
-225.698	17.768	-0.129	-0.102
-224.684	800.000	0.079	0.283
-223.669	800.000	0.024	0.078
-222.655	-200.000	-0.005	-0.293
-221.640	800.000	0.017	0.070
-220.625	-72.563	0.098	-0.036
-219.611	28.888	0.339	-0.284
-218.596	-141.554	0.302	0.030
-217.582	-50.201	0.155	-0.072
-216.567	-33.748	-0.259	0.141
-215.552	-125.288	0.212	0.032
-214.538	800.000	-0.013	-0.045
-213.523	106.069	-0.133	-0.156
-212.509	-11.946	-0.289	-0.187
-211.494	-34.317	0.047	0.025
-210.479	-149.490	0.054	-0.004
-209.465	-200.000	-0.001	-0.084
-208.450	10.907	0.180	-0.136
-207.436	-162.566	0.258	-0.013
-206.421	81.379	0.185	-0.198
-205.406	-200.000	-0.004	-0.018
-204.392	428.005	0.046	-0.098
-203.377	69.497	-0.191	-0.195
-202.363	148.762	0.193	0.259
-201.348	-200.000	0.014	0.162
-200.333	-200.000	0.009	-0.186
-199.319	-17.309	0.329	-0.205
-198.304	-200.000	0.011	0.064
-197.290	39.032	0.166	-0.147
-196.275	200.664	0.114	0.173
-195.260	-106.971	-0.169	-0.037
-194.246	-33.936	-0.163	0.089
-193.231	-119.948	-0.094	-0.016
-192.217	-200.000	-0.047	0.207
-191.202	-43.696	0.087	0.043
-190.187	-200.000	0.057	0.598
-189.173	95.561	0.201	0.226
-188.158	106.345	0.070	-0.082
-187.144	548.320	-0.187	-0.443
-186.129	65.227	-0.037	0.037
-185.114	-39.580	0.173	-0.090
-184.100	-200.000	-0.001	-0.038
-183.085	167.416	-0.137	-0.193
-182.071	-200.000	0.010	0.192
-181.056	-21.012	-0.206	0.125
-180.042	177.719	-0.128	0.184
-179.027	800.000	0.109	0.304
-178.012	-110.356	0.071	-0.014
-176.998	73.133	0.220	0.227
-175.983	-131.795	0.147	0.019
-174.969	-85.489	-0.129	0.040
-173.954	-28.039	-0.183	-0.105
-172.939	-24.720	0.165	-0.097
-171.925	-16.326	-0.175	0.110
-170.910	-82.422	0.253	-0.081
-169.896	-151.231	-0.268	-0.020
-168.881	-82.488	-0.356	-0.114
-167.866	-21.696	-0.096	-0.058
-166.852	21.037	-0.114	-0.091
-165.837	-13.701	-0.315	0.201
-164.823	-53.492	-0.169	-0.076
-163.808	451.333	-0.049	-0.106
-162.793	-200.000	0.020	0.329
-161.779	-200.000	0.051	0.241
-160.764	25.656	0.177	-0.146
-159.750	15.768	-0.138	0.107
-158.735	-161.722	0.225	0.011
-157.720	-128.695	-0.261	0.036
-156.706	-200.000	-0.049	0.228
-155.691	-0.227	-0.232	0.163
-154.677	-200.000	-0.066	0.304
-153.662	452.663	-0.093	0.202
-152.647	-44.529	-0.109	0.054
-151.633	-122.325	0.029	-0.005
-150.618	-165.076	-0.201	0.009
-149.604	56.442	-0.143	0.138
-148.589	69.164	-0.259	-0.263
-147.574	554.406	-0.141	0.335
-146.560	90.328	-0.243	0.268
-145.545	-44.964	-0.204	0.100
-144.531	-103.523	0.115	-0.027
-143.516	18.105	0.170	0.134
-142.502	262.511	0.224	0.383
-141.487	-20.729	0.224	-0.135
-140.472	-148.495	-0.115	0.009
-139.458	2.507	0.225	0.161
-138.443	138.662	0.096	-0.125
-137.429	11.637	-0.242	-0.183
-136.414	298.175	-0.167	0.302
-135.399	-103.026	-0.351	-0.082
-134.385	800.000	0.081	0.234
-133.370	124.405	0.059	0.073
-132.356	175.231	-0.064	0.092
-131.341	-188.764	0.287	0.003
-130.326	788.158	0.085	-0.231
-129.312	-137.646	-0.085	-0.009
-128.297	-48.560	-0.051	-0.024
-127.283	-200.000	0.002	-0.014
-126.268	382.533	0.034	-0.068
-125.253	3.350	-0.199	0.143
-124.239	-163.504	0.134	0.006
-123.224	800.000	0.051	0.185
-122.210	16.177	-0.043	0.034
-121.195	800.000	-0.062	-0.248
-120.180	-89.217	0.360	0.105
-119.166	800.000	-0.016	0.052
-118.151	800.000	-0.133	0.388
-117.137	7.136	-0.357	-0.263
-116.122	-7.566	-0.185	-0.123
-115.107	-72.832	-0.352	-0.127
-114.093	324.223	0.095	-0.179
-113.078	-200.000	-0.004	-0.054
-112.064	124.656	0.181	0.224
-111.049	-62.730	-0.251	0.102
-110.034	-33.258	0.076	0.042
-109.020	-118.324	-0.321	-0.056
-108.005	36.861	-0.192	0.167
-106.991	-200.000	0.007	-0.309
-105.976	-123.948	0.503	-0.078
-104.962	-144.071	-0.179	0.017
-103.947	-166.610	0.063	0.003
-102.932	116.005	-0.209	0.253
-101.918	-57.616	-0.045	0.019
-100.903	240.025	0.177	0.290
-99.889	17.582	0.099	-0.078
-98.874	49.295	-0.186	-0.173
-97.859	794.376	-0.067	-0.181
-96.845	-54.252	-0.266	0.119
-95.830	-200.000	-0.008	0.139
-94.816	-136.230	-0.059	-0.007
-93.801	3.288	0.182	-0.131
-92.786	22.118	-0.119	0.096
-91.772	239.627	-0.104	0.170
-90.757	-122.961	-0.165	-0.026
-89.743	-200.000	-0.007	0.293
-88.728	-200.000	0.033	0.219
-87.713	797.342	0.161	-0.436
-86.699	-99.444	-0.155	-0.038
-85.684	69.329	0.203	0.205
-84.670	-42.839	-0.115	0.057
-83.655	-162.199	0.397	-0.020
-82.640	-200.000	-0.060	-0.348
-81.626	32.541	0.141	0.120
-80.611	-200.000	-0.035	0.228
-79.597	7.151	0.157	-0.115
-78.582	-90.890	0.117	-0.033
-77.567	-200.000	-0.024	0.240
-76.553	404.288	0.030	-0.063
-75.538	50.146	-0.150	0.139
-74.524	66.168	-0.150	0.150
-73.509	43.486	-0.088	0.079
-72.494	-200.000	0.050	0.407
-71.480	143.195	-0.143	-0.188
-70.465	-200.000	0.019	0.110
-69.451	-47.893	0.204	-0.097
-68.436	326.936	0.135	-0.254
-67.422	168.838	0.094	-0.132
-66.407	-90.337	-0.372	0.106
-65.392	800.000	0.077	-0.240
-64.378	18.267	0.297	0.233
-63.363	93.612	0.256	0.285
-62.349	800.000	-0.076	0.267
-61.334	45.095	-0.895	-0.811
-60.319	87.325	0.653	0.710
-59.305	-200.000	-0.139	-0.940
-58.290	800.000	0.243	0.811
-57.276	489.658	0.721	1.621
-56.261	-200.000	101.630	592.568
-55.246	566.545	1417.160	3380.866
-54.232	190.548	2602.347	3844.596
-53.217	116.173	2164.912	2606.892
-52.203	41.600	1697.465	1511.184
-51.188	34.156	1506.967	1291.276
-50.173	31.651	1480.309	1251.660
-49.159	51.209	1531.970	1428.895
-48.144	52.755	1550.454	1456.611
-47.130	34.351	1507.518	1292.861
-46.115	31.207	1493.310	1259.460
-45.100	30.983	1490.104	1255.193
-44.086	31.022	1487.794	1253.461
-43.071	30.897	1485.305	1250.479
-42.057	30.973	1484.237	1250.040
-41.042	30.966	1482.315	1248.325
-40.027	30.791	1481.600	1246.497
-39.013	30.980	1479.491	1245.941
-37.998	30.910	1478.303	1244.418
-36.984	30.909	1476.889	1243.177
-35.969	30.919	1475.878	1242.339
-34.954	30.885	1474.671	1241.048
-33.940	30.824	1473.577	1239.675
-32.925	30.847	1472.188	1238.608
-31.911	30.964	1470.498	1237.915
-30.896	31.035	1469.391	1237.408
-29.881	31.109	1467.778	1236.488
-28.867	31.056	1466.344	1234.880
-27.852	30.853	1465.654	1232.906
-26.838	31.064	1463.575	1232.500
-25.823	30.927	1462.403	1230.564
-24.809	30.969	1461.019	1229.629
-23.794	31.015	1459.303	1228.434
-22.779	30.919	1458.594	1227.157
-21.765	30.971	1457.166	1226.251
-20.750	30.870	1456.323	1224.831
-19.736	30.914	1455.204	1224.129
-18.721	30.935	1454.265	1223.426
-17.706	30.941	1452.796	1222.185
-16.692	30.873	1451.923	1220.951
-15.677	30.899	1450.754	1220.095
-14.663	30.886	1449.546	1218.943
-13.648	30.882	1448.593	1218.066
-12.633	30.954	1447.521	1217.589
-11.619	30.939	1446.652	1216.710
-10.604	30.962	1446.036	1216.296
-9.590	30.708	1445.934	1214.504
-8.575	30.957	1444.301	1214.709
-7.560	30.892	1443.699	1213.725
-6.546	30.927	1442.420	1212.830
-5.531	30.876	1441.671	1211.824
-4.517	30.765	1440.950	1210.443
-3.502	30.807	1440.136	1209.988
-2.487	30.941	1438.815	1209.697
-1.473	30.843	1437.972	1208.306
-0.458	30.811	1436.636	1206.929
0.556	29.552	1426.847	1195.876
1.571	26.627	1402.301	1156.554
2.586	23.344	1343.789	1088.069
3.600	21.700	1263.072	1013.124
4.615	20.445	1217.617	969.578
5.629	17.933	1162.151	911.933
6.644	10.894	1080.443	812.674
7.659	5.499	1042.678	758.118
8.673	4.787	1037.313	750.716
9.688	4.612	1034.618	747.855
10.702	4.565	1032.779	746.237
11.717	4.587	1030.996	744.986
12.731	6.523	1032.153	755.038
13.746	13.097	1041.393	793.410
14.761	18.204	1047.290	822.451
15.775	18.295	1046.539	822.221
16.790	17.395	1044.201	815.996
17.804	16.326	1042.144	809.200
18.819	15.388	1040.684	803.506
19.834	14.967	1039.182	800.261
20.848	14.722	1038.132	798.207
21.863	14.368	1037.852	796.231
22.877	14.163	1036.654	794.264
23.892	14.081	1035.667	793.045
24.907	14.117	1034.919	792.574
25.921	13.973	1034.467	791.471
26.936	14.024	1033.440	790.860
27.950	14.053	1032.689	790.353
28.965	14.048	1031.600	789.424
29.980	14.092	1030.495	788.718
30.994	14.233	1029.473	788.535
32.009	14.255	1028.572	787.879
33.023	14.365	1027.750	787.700
34.038	14.378	1026.779	786.949
35.053	14.332	1025.812	785.921
36.067	14.132	1024.781	784.118
37.082	14.082	1024.440	783.553
38.096	14.119	1023.606	783.017
39.111	14.136	1023.003	782.569
40.126	14.213	1022.089	782.160
41.140	14.283	1020.491	781.197
42.155	13.859	1020.218	778.931
43.169	13.877	1018.916	777.953
44.184	13.976	1017.500	777.265
45.199	14.021	1016.073	776.318
46.213	13.987	1015.334	775.524
47.228	13.976	1014.086	774.454
48.242	14.183	1013.303	774.747
49.257	14.224	1012.842	774.520
50.271	14.097	1012.132	773.317
51.286	14.057	1011.316	772.439
52.301	14.170	1009.860	771.780
53.315	14.230	1009.065	771.384
54.330	14.050	1008.555	770.095
55.344	14.044	1007.460	769.160
56.359	14.056	1006.341	768.293
57.374	13.978	1005.567	767.276
58.388	13.965	1004.916	766.652
59.403	13.988	1004.076	766.048
60.417	13.884	1003.248	764.871
61.432	13.914	1002.448	764.331
62.447	13.783	1001.826	763.184
63.461	13.814	1000.852	762.517
64.476	13.814	1000.094	761.873
65.490	13.800	999.213	761.071
66.505	13.812	998.463	760.485
67.520	13.917	997.591	760.236
68.534	13.989	996.621	759.757
69.549	13.934	996.132	759.068
70.563	13.946	995.717	758.739
71.578	13.847	994.932	757.620
72.593	13.872	993.849	756.846
73.607	13.771	992.968	755.645
74.622	13.765	991.841	754.695
75.636	13.670	991.360	753.829
76.651	13.833	990.428	753.794
77.666	13.818	989.642	753.064
78.680	13.738	989.346	752.405
79.695	13.865	988.430	752.218
80.709	13.729	988.404	751.517
81.724	13.951	987.118	751.476
82.739	13.881	986.527	750.642
83.753	13.925	986.100	750.453
84.768	14.149	984.816	750.417
85.782	14.076	984.193	749.550
86.797	14.257	983.692	749.915
87.812	14.111	983.093	748.737
88.826	14.262	981.830	748.385
89.841	13.980	981.455	746.769
90.855	14.060	980.792	746.557
91.870	14.155	979.332	745.806
92.884	14.236	978.699	745.618
93.899	14.263	978.476	745.504
94.914	14.193	977.563	744.431
95.928	14.286	976.718	744.136
96.943	14.333	976.062	743.779
97.957	14.273	975.273	742.843
98.972	14.181	974.213	741.563
99.987	14.228	973.689	741.308
101.001	14.141	973.212	740.490
102.016	14.131	972.253	739.653
103.030	14.221	971.311	739.271
104.045	14.139	970.556	738.265
105.060	14.182	969.171	737.339
106.074	14.071	967.776	735.720
107.089	14.075	967.345	735.344
108.103	14.027	966.346	734.309
109.118	13.943	965.346	733.114
110.133	13.916	964.879	732.573
111.147	13.781	963.953	731.211
112.162	13.938	962.721	730.902
113.176	13.867	962.260	730.173
114.191	13.990	961.531	730.099
115.206	14.080	960.965	730.001
116.220	13.935	960.168	728.691
117.235	14.040	958.713	727.982
118.249	14.057	958.164	727.575
119.264	13.984	957.181	726.447
120.279	13.946	956.390	725.616
121.293	13.995	955.509	725.098
122.308	13.812	954.889	723.764
123.322	13.949	954.224	723.796
124.337	13.845	952.883	722.262
125.352	13.926	951.579	721.559
126.366	13.850	950.924	720.669
127.381	13.777	950.314	719.826
128.395	13.744	949.432	718.952
129.410	13.882	948.083	718.466
130.424	13.854	947.507	717.845
131.439	13.864	946.562	717.107
132.454	13.941	945.749	716.761
133.468	13.922	945.170	716.175
134.483	13.991	944.510	715.910
135.497	14.087	943.473	715.473
136.512	13.999	943.132	714.771
137.527	13.949	942.069	713.692
138.541	13.924	941.675	713.222
139.556	13.952	940.985	712.757
140.570	13.941	940.356	712.167
141.585	14.137	938.761	711.737
142.600	14.172	938.258	711.442
143.614	14.131	937.744	710.813
144.629	14.209	936.825	710.385
145.643	14.322	936.174	710.313
146.658	14.235	935.544	709.402
147.673	14.206	934.689	708.566
148.687	14.201	933.527	707.600
149.702	14.122	932.656	706.542
150.716	14.057	931.930	705.655
151.731	14.183	930.904	705.349
152.746	14.068	930.358	704.386
153.760	14.101	929.317	703.674
154.775	14.062	928.712	702.992
155.789	14.125	928.191	702.802
156.804	14.107	927.446	702.097
157.819	14.145	926.664	701.605
158.833	14.287	925.790	701.479
159.848	14.259	925.300	700.927
160.862	14.259	924.412	700.192
161.877	14.316	924.041	700.087
162.892	14.310	922.589	698.900
163.906	14.204	922.087	698.014
164.921	14.194	921.089	697.156
165.935	14.257	920.038	696.561
166.950	14.175	919.238	695.552
167.964	14.166	918.559	694.938
168.979	14.180	917.272	693.962
169.994	14.201	916.380	693.314
171.008	14.258	915.328	692.694
172.023	14.275	914.644	692.187
173.037	14.306	913.918	691.705
174.052	14.460	913.294	691.808
175.067	14.317	912.670	690.683
176.081	14.392	911.716	690.210
177.096	14.331	910.890	689.270
178.110	14.256	910.176	688.358
179.125	14.359	909.524	688.230
180.140	14.354	908.829	687.624
181.154	14.207	908.325	686.574
182.169	14.299	907.703	686.422
183.183	14.399	907.122	686.334
184.198	14.531	906.460	686.315
185.213	14.530	905.441	685.480
186.227	14.458	905.421	685.111
187.242	14.539	904.724	684.854
188.256	14.529	904.239	684.385
189.271	14.760	903.320	684.575
190.286	14.618	902.530	683.335
191.300	14.540	901.640	682.281
192.315	14.297	900.919	680.684
193.329	14.200	900.092	679.603
194.344	14.318	899.576	679.632
195.359	14.409	899.184	679.648
196.373	14.424	898.673	679.261
197.388	14.529	898.414	679.435
198.402	14.702	897.429	679.335
199.417	14.791	897.353	679.577
200.432	14.797	897.188	679.417
201.446	14.684	896.447	678.336
202.461	14.934	896.234	679.132
203.475	14.882	895.780	678.517
204.490	14.958	894.413	677.729
205.504	14.858	893.793	676.791
206.519	14.763	893.261	675.946
207.534	14.784	892.359	675.288
208.548	14.728	891.879	674.639
209.563	14.665	891.240	673.842
210.577	14.776	890.437	673.623
211.592	14.722	889.983	673.003
212.607	14.838	889.634	673.147
213.621	15.030	888.758	673.195
214.636	14.922	888.203	672.280
215.650	14.879	887.475	671.500
216.665	14.785	886.850	670.588
217.680	14.889	886.710	670.839
218.694	15.025	886.025	670.811
219.709	14.929	885.998	670.346
220.723	15.116	884.953	670.241
221.738	15.011	883.749	668.852
222.753	15.105	882.950	668.564
223.767	14.907	882.772	667.579
224.782	15.050	882.083	667.568
225.796	15.029	881.256	666.801
226.811	15.119	880.637	666.634
227.826	15.097	880.064	666.051
228.840	14.978	878.982	664.701
229.855	15.158	878.551	665.032
230.869	15.062	877.917	664.109
231.884	15.101	876.997	663.512
232.899	15.104	876.663	663.213
233.913	15.104	875.567	662.324
234.928	15.015	875.135	661.588
235.942	14.906	874.687	660.757
236.957	15.030	873.690	660.438
237.972	15.000	873.219	659.902
238.986	14.917	872.781	659.188
240.001	14.961	872.038	658.742
241.015	15.094	871.094	658.494
242.030	15.069	870.635	657.989
243.045	15.123	870.158	657.784
244.059	15.207	869.571	657.610
245.074	15.157	868.986	656.916
246.088	15.196	868.095	656.336
247.103	15.117	867.694	655.663
248.117	15.294	867.124	655.869
249.132	15.369	866.275	655.460
250.147	15.445	865.910	655.422
251.161	15.487	865.589	655.287
252.176	15.607	864.867	655.150
253.190	15.564	864.359	654.541
254.205	15.624	863.768	654.267
255.220	15.761	863.044	654.195
256.234	15.607	862.694	653.272
257.249	15.578	862.195	652.723
258.263	15.745	861.338	652.666
259.278	15.747	860.768	652.184
260.293	15.695	860.029	651.364
261.307	15.759	859.699	651.304
262.322	15.752	859.005	650.694
263.336	15.740	858.383	650.120
264.351	15.968	857.865	650.551
265.366	15.792	857.561	649.584
266.380	15.904	856.705	649.309
267.395	15.895	856.233	648.858
268.409	15.837	855.273	647.852
269.424	15.724	854.750	646.963
270.439	15.777	854.181	646.677
271.453	15.830	853.208	646.089
272.468	15.890	852.170	645.474
273.482	15.705	851.898	644.501
274.497	15.806	851.162	644.273
275.512	15.950	850.277	644.098
276.526	15.826	849.898	643.281
277.541	15.805	849.475	642.823
278.555	15.773	848.915	642.222
279.570	15.941	848.368	642.392
280.585	15.976	847.861	642.084
281.599	15.874	847.804	641.596
282.614	15.913	846.621	640.792
283.628	15.939	845.949	640.325
284.643	15.939	845.580	639.989
285.657	15.963	845.114	639.671
286.672	16.003	844.374	639.204
287.687	15.822	844.120	638.270
288.701	15.889	843.960	638.346
289.716	16.108	843.150	638.508
290.730	16.027	842.384	637.566
291.745	15.982	841.888	636.964
292.760	16.131	840.953	636.760
293.774	16.092	840.417	636.151
294.789	16.192	839.989	636.148
295.803	16.162	839.520	635.625
296.818	16.082	838.847	634.756
297.833	16.157	837.900	634.266
298.847	16.130	837.334	633.678
299.862	16.155	836.882	633.377
300.876	16.116	835.957	632.474
301.891	16.282	835.381	632.605
302.906	16.424	834.988	632.784
303.920	16.296	834.288	631.718
304.935	16.487	833.361	631.674
305.949	16.511	833.369	631.712
306.964	16.336	833.105	630.802
307.979	16.388	832.120	630.196
308.993	16.365	831.345	629.467
310.008	16.519	831.102	629.802
311.022	16.411	830.607	628.967
312.037	16.441	830.009	628.572
313.052	16.410	829.425	627.957
314.066	16.447	828.837	627.596
315.081	16.399	827.810	626.582
316.095	16.227	827.583	625.718
317.110	16.177	827.389	625.331
318.125	16.375	826.755	625.531
319.139	16.309	826.131	624.760
320.154	16.271	825.354	623.975
321.168	16.258	824.978	623.589
322.183	16.266	824.603	623.278
323.197	16.509	823.977	623.646
324.212	16.518	823.452	623.230
325.227	16.437	823.069	622.584
326.241	16.421	822.559	622.083
327.256	16.383	822.090	621.536
328.270	16.448	821.275	621.101
329.285	16.437	820.893	620.719
330.300	16.420	820.219	620.090
331.314	16.441	819.658	619.688
332.329	16.562	819.037	619.608
333.343	16.517	818.357	618.875
334.358	16.606	817.961	618.844
335.373	16.641	817.334	618.446
336.387	16.604	817.074	618.058
337.402	16.645	816.531	617.744
338.416	16.688	815.850	617.330
339.431	16.824	814.952	617.091
340.446	16.929	814.523	617.093
341.460	16.913	814.289	616.802
342.475	16.869	813.991	616.361
343.489	16.990	812.821	615.862
344.504	16.914	813.125	615.762
345.519	16.938	812.236	615.121
346.533	17.175	811.575	615.424
347.548	17.078	811.240	614.766
348.562	16.922	810.697	613.732
349.577	16.738	810.546	612.899
350.592	16.838	809.294	612.258
351.606	16.743	809.192	611.784
352.621	16.752	808.715	611.403
353.635	16.825	808.039	611.101
354.650	16.852	807.528	610.758
355.665	16.811	807.477	610.517
356.679	16.944	806.794	610.426
357.694	16.997	806.473	610.320
358.708	17.032	805.756	609.851
359.723	17.030	805.396	609.516
360.738	17.088	804.778	609.201
361.752	16.885	804.642	608.316
362.767	17.065	804.122	608.516
363.781	17.153	803.559	608.351
364.796	17.204	803.052	608.094
365.810	17.258	802.550	607.856
366.825	17.237	802.630	607.785
367.840	17.241	802.334	607.521
368.854	17.398	801.885	607.691
369.869	17.313	801.207	606.820
370.883	17.337	800.490	606.308
371.898	17.234	800.020	605.532
372.913	17.370	799.372	605.470
373.927	17.290	799.197	605.001
374.942	17.373	798.265	604.536
375.956	17.319	797.955	604.054
376.971	17.288	797.339	603.427
377.986	17.504	796.677	603.636
379.000	17.653	795.906	603.528
380.015	17.721	795.562	603.454
381.029	17.520	795.168	602.392
382.044	17.570	794.301	601.856
383.059	17.582	793.949	601.579
384.073	17.697	793.165	601.338
385.088	17.641	792.841	600.843
386.102	17.483	792.469	599.948
387.117	17.466	791.735	599.282
388.132	17.392	791.251	598.601
389.146	17.642	790.446	598.820
390.161	17.535	790.320	598.294
391.175	17.695	789.990	598.553
392.190	17.663	789.912	598.331
393.205	17.633	789.375	597.764
394.219	17.532	789.098	597.147
395.234	17.554	788.714	596.880
396.248	17.447	788.054	595.953
397.263	17.463	787.331	595.411
398.278	17.416	786.708	594.720
399.292	17.427	786.508	594.558
400.307	17.340	786.340	594.073
401.321	17.455	785.832	594.039
402.336	17.546	785.315	593.914
403.350	17.420	785.465	593.532
404.365	17.597	784.426	593.311
405.380	17.800	783.839	593.524
406.394	17.837	783.574	593.399
407.409	17.772	783.271	592.889
408.423	17.867	782.883	592.874
409.438	17.905	782.534	592.688
410.453	17.906	781.897	592.157
411.467	17.963	781.525	592.022
412.482	17.948	781.102	591.597
413.496	17.995	780.841	591.509
414.511	18.082	780.352	591.388
415.526	18.134	779.968	591.222
416.540	17.945	779.854	590.430
417.555	18.029	778.906	589.952
418.569	17.986	778.629	589.540
419.584	17.964	778.298	589.164
420.599	18.083	777.551	588.956
421.613	156.925	1369.198	1797.500
422.628	135.355	1455.393	1797.571
