DTS Sentinel unit serial number:	SN413079Multiplexer serial number:	ORYXHardware model number:	OX4-SRSoftware version number:	ORYX F/W v4.00 Oryx Data Collector v3.7.2.0data status	okinstallation	princeton_trtdifferential loss correction	single-endedforward channel	channel 3reverse channel	N/Adate	2019/09/12time	09:22:11forward acquisition time	60.00reverse acquisition time	0.00gamma	496.2192k internal	0.2302k external	0.2302temperature offset calibration	1.0032default loss term (dB/km)	0.3790temperature slope calibration	1.0000multiplexer offset coefficient	1.0000multiplexer slope coefficient	1.0000fibre end	0.00T internal ref (°C)	35.14T ext. ref 1 (°C)	1.81T ext. ref 2 (°C)	33.70length (m)	temperature (°C)	Stokes	anti-Stokes-747.200	800.000	0.105	-0.335
-746.185	-56.675	-0.253	-0.114
-745.171	800.000	-0.106	0.354
-744.156	800.000	0.086	0.373
-743.142	41.441	0.158	-0.146
-742.127	-55.658	0.068	-0.031
-741.112	26.773	0.110	0.094
-740.098	-200.000	-0.049	0.461
-739.083	98.289	0.197	0.231
-738.069	-46.403	-0.316	-0.158
-737.054	-87.995	-0.240	0.073
-736.039	-200.000	0.018	0.248
-735.025	18.843	0.019	-0.016
-734.010	15.244	0.074	0.059
-732.996	-37.804	-0.092	-0.050
-731.981	67.474	-0.163	-0.170
-730.966	608.772	0.192	-0.489
-729.952	-20.989	0.343	-0.214
-728.937	-36.909	0.338	-0.185
-727.923	284.995	-0.173	-0.317
-726.908	420.700	-0.048	0.105
-725.894	545.742	-0.040	0.097
-724.879	-200.000	0.004	-0.082
-723.864	-27.748	-0.270	0.159
-722.850	-169.207	-0.233	-0.009
-721.835	-53.437	-0.146	-0.068
-720.821	642.105	-0.077	-0.200
-719.806	-77.460	0.051	-0.018
-718.791	-27.670	0.164	-0.097
-717.777	86.890	-0.061	-0.068
-716.762	184.519	0.271	-0.408
-715.748	121.293	0.240	-0.304
-714.733	479.432	0.092	0.213
-713.718	-15.575	0.197	-0.128
-712.704	-159.380	0.209	-0.012
-711.689	-61.821	-0.070	0.030
-710.675	-148.511	-0.109	-0.009
-709.660	-200.000	0.002	-0.206
-708.645	-15.419	-0.192	-0.125
-707.631	-4.582	0.320	-0.225
-706.616	-200.000	0.000	0.016
-705.602	-113.827	0.156	0.031
-704.587	-200.000	-0.031	-0.337
-703.572	108.636	-0.090	0.109
-702.558	-146.962	0.079	-0.007
-701.543	137.301	0.155	-0.207
-700.529	800.000	0.004	0.017
-699.514	23.104	0.063	-0.053
-698.499	800.000	0.061	-0.194
-697.485	32.592	0.098	-0.087
-696.470	-64.463	0.081	0.034
-695.456	-117.357	0.229	-0.042
-694.441	-74.781	0.158	0.058
-693.426	33.814	0.208	0.184
-692.412	2.239	0.177	-0.130
-691.397	-75.476	0.321	-0.116
-690.383	-115.461	-0.497	0.095
-689.368	-23.234	-0.209	0.128
-688.354	-118.295	-0.383	0.069
-687.339	360.796	-0.072	0.148
-686.324	696.813	0.068	0.183
-685.310	-42.941	-0.067	-0.035
-684.295	-171.153	-0.122	-0.004
-683.281	-95.805	0.125	0.034
-682.266	-50.681	0.162	0.078
-681.251	-16.433	-0.156	0.101
-680.237	224.290	-0.182	-0.299
-679.222	800.000	-0.086	-0.265
-678.208	174.185	-0.035	-0.052
-677.193	114.161	-0.066	-0.081
-676.178	-47.056	0.197	0.098
-675.164	62.394	0.044	0.045
-674.149	-200.000	-0.032	0.253
-673.135	-200.000	-0.001	0.160
-672.120	-167.605	0.144	-0.006
-671.105	-200.000	-0.040	-0.217
-670.091	63.156	-0.020	-0.021
-669.076	-122.315	0.122	-0.020
-668.062	12.272	0.228	-0.178
-667.047	-200.000	0.007	0.083
-666.032	62.829	0.100	-0.102
-665.018	244.794	-0.045	-0.078
-664.003	-180.456	-0.125	0.003
-662.989	22.695	-0.275	-0.228
-661.974	-165.520	0.298	0.013
-660.959	297.708	0.157	-0.293
-659.945	800.000	-0.061	-0.218
-658.930	-200.000	-0.029	-0.320
-657.916	39.378	-0.222	-0.202
-656.901	800.000	-0.110	-0.424
-655.886	-86.690	-0.079	-0.025
-654.872	-132.571	0.473	0.062
-653.857	-131.144	-0.345	-0.047
-652.843	110.372	-0.112	-0.136
-651.828	-15.303	0.179	-0.116
-650.814	15.908	0.082	-0.066
-649.799	800.000	-0.054	-0.227
-648.784	-200.000	-0.011	-0.171
-647.770	-100.712	-0.157	-0.039
-646.755	-53.102	-0.244	-0.114
-645.741	-73.383	-0.058	-0.021
-644.726	-64.769	0.371	0.152
-643.711	800.000	0.086	0.324
-642.697	38.780	0.270	0.244
-641.682	65.182	0.279	0.286
-640.668	-115.499	0.131	-0.025
-639.653	124.263	-0.166	-0.212
-638.638	-124.726	0.249	-0.039
-637.624	46.393	0.206	-0.194
-636.609	185.334	-0.188	-0.283
-635.595	159.320	0.187	0.264
-634.580	-19.576	-0.222	-0.139
-633.565	-128.167	-0.045	0.006
-632.551	-37.701	-0.083	0.045
-631.536	-36.503	0.052	0.028
-630.522	328.895	-0.083	0.161
-629.507	2.184	-0.152	-0.112
-628.492	-7.440	0.081	-0.056
-627.478	79.045	-0.144	-0.156
-626.463	3.388	-0.299	0.221
-625.449	442.688	-0.088	0.196
-624.434	-4.423	-0.076	-0.053
-623.419	-200.000	-0.002	0.070
-622.405	107.396	0.145	-0.175
-621.390	-200.000	0.003	-0.198
-620.376	-139.196	0.295	0.032
-619.361	127.745	0.286	-0.369
-618.346	-200.000	-0.015	0.295
-617.332	-136.409	-0.255	-0.030
-616.317	-79.727	-0.164	-0.056
-615.303	402.929	-0.025	0.053
-614.288	-12.551	0.257	0.170
-613.273	79.304	0.120	-0.130
-612.259	44.862	0.310	-0.289
-611.244	208.688	0.119	-0.189
-610.230	10.487	-0.177	-0.137
-609.215	-200.000	0.049	-0.311
-608.201	0.710	-0.188	0.136
-607.186	272.563	-0.040	-0.071
-606.171	-200.000	-0.026	0.147
-605.157	108.850	0.127	0.154
-604.142	-192.271	-0.136	-0.001
-603.128	282.927	0.171	0.311
-602.113	-153.134	-0.261	0.019
-601.098	-107.234	-0.368	0.082
-600.084	28.607	-0.104	0.089
-599.069	-200.000	-0.090	-0.419
-598.055	-200.000	0.069	-0.351
-597.040	226.669	-0.110	0.181
-596.025	-140.761	-0.251	0.026
-595.011	162.513	0.237	-0.337
-593.996	-168.404	0.253	0.010
-592.982	69.374	0.049	-0.051
-591.967	36.029	0.121	0.108
-590.952	14.213	-0.198	0.156
-589.938	773.101	0.083	-0.228
-588.923	0.066	-0.295	-0.213
-587.909	-8.072	0.167	-0.114
-586.894	800.000	-0.023	-0.103
-585.879	800.000	-0.058	0.167
-584.865	129.456	0.240	0.310
-583.850	-91.982	0.323	-0.093
-582.836	-113.326	0.411	-0.082
-581.821	320.411	0.131	-0.251
-580.806	-79.870	-0.188	-0.064
-579.792	800.000	-0.040	-0.169
-578.777	-38.180	-0.217	0.117
-577.763	68.973	-0.082	0.085
-576.748	-64.333	-0.184	-0.076
-575.733	98.545	-0.030	-0.035
-574.719	146.461	-0.146	-0.198
-573.704	-91.327	0.149	0.043
-572.690	27.781	0.299	0.255
-571.675	-118.914	-0.099	0.018
-570.661	-71.932	-0.247	0.093
-569.646	99.192	-0.166	0.194
-568.631	800.000	0.030	0.112
-567.617	101.076	0.100	-0.117
-566.602	-200.000	-0.021	-0.236
-565.588	159.398	-0.091	-0.128
-564.573	-200.000	0.040	-0.198
-563.558	-200.000	-0.005	-0.027
-562.544	800.000	-0.074	0.251
-561.529	-200.000	0.021	-0.240
-560.515	-136.272	0.358	-0.042
-559.500	8.380	0.179	0.136
-558.485	-46.095	-0.099	0.049
-557.471	-200.000	0.012	-0.325
-556.456	-200.000	-0.004	0.096
-555.442	104.294	0.070	0.083
-554.427	-200.000	-0.030	0.340
-553.412	82.640	0.051	-0.056
-552.398	613.929	-0.096	-0.244
-551.383	155.444	-0.301	-0.419
-550.369	340.859	-0.105	0.207
-549.354	162.329	-0.111	0.158
-548.339	-200.000	0.005	0.195
-547.325	-97.420	-0.277	0.073
-546.310	603.598	0.060	0.150
-545.296	284.792	-0.174	-0.317
-544.281	332.882	-0.113	-0.220
-543.266	800.000	0.036	0.121
-542.252	82.094	-0.081	0.088
-541.237	-200.000	-0.233	-0.001
-540.223	-16.240	0.192	-0.123
-539.208	122.148	-0.183	-0.231
-538.193	-197.291	-0.145	-0.001
-537.179	27.439	0.282	-0.239
-536.164	13.462	-0.256	0.200
-535.150	800.000	-0.123	0.402
-534.135	496.592	0.076	0.176
-533.121	-69.520	-0.352	0.136
-532.106	3.930	-0.015	-0.011
-531.091	0.600	0.162	0.117
-530.077	-29.279	-0.207	0.120
-529.062	-72.938	0.196	-0.073
-528.048	245.251	-0.062	0.105
-527.033	-77.822	-0.298	-0.104
-526.018	62.730	-0.035	-0.035
-525.004	60.863	0.223	-0.224
-523.989	-200.000	-0.026	0.307
-522.975	24.289	0.038	0.032
-521.960	-121.158	-0.067	-0.011
-520.945	-127.960	-0.255	0.037
-519.931	-177.859	0.136	-0.003
-518.916	-130.841	0.255	0.034
-517.902	373.617	0.186	0.381
-516.887	-200.000	-0.057	0.274
-515.872	-200.000	0.012	-0.373
-514.858	-11.289	0.100	0.067
-513.843	-37.868	-0.313	0.168
-512.829	147.579	-0.320	0.436
-511.814	-62.406	0.203	-0.085
-510.799	24.836	0.177	-0.148
-509.785	800.000	0.067	-0.258
-508.770	-190.325	0.145	-0.002
-507.756	-60.419	-0.098	-0.042
-506.741	-124.831	-0.046	-0.007
-505.726	5.087	-0.080	0.059
-504.712	800.000	0.069	-0.268
-503.697	121.791	-0.143	-0.181
-502.683	275.223	-0.116	0.208
-501.668	-58.147	0.227	-0.100
-500.653	-177.642	-0.074	0.002
-499.639	-83.936	0.421	0.135
-498.624	-146.276	-0.250	-0.022
-497.610	-8.690	0.283	-0.192
-496.595	300.593	0.087	0.161
-495.581	800.000	-0.067	0.269
-494.566	-200.000	-0.048	0.227
-493.551	-200.000	0.037	0.216
-492.537	179.081	0.115	-0.170
-491.522	-92.054	0.135	-0.038
-490.508	-31.818	-0.067	0.038
-489.493	-25.585	0.078	-0.046
-488.478	800.000	0.074	0.271
-487.464	-102.820	-0.055	-0.013
-486.449	232.023	-0.117	0.193
-485.435	128.898	-0.232	-0.299
-484.420	35.681	0.146	-0.130
-483.405	-200.000	-0.015	-0.193
-482.391	103.335	-0.152	-0.180
-481.376	7.446	-0.091	-0.069
-480.362	195.332	-0.087	0.134
-479.347	-87.948	0.121	-0.037
-478.332	800.000	0.084	-0.316
-477.318	-136.128	0.114	0.013
-476.303	-59.800	0.363	0.157
-475.289	800.000	-0.034	-0.130
-474.274	-66.803	0.071	0.028
-473.259	-4.219	-0.068	-0.048
-472.245	84.522	0.047	-0.052
-471.230	-184.922	-0.291	-0.005
-470.216	-128.464	0.123	0.018
-469.201	27.508	-0.140	-0.119
-468.186	-200.000	-0.026	-0.219
-467.172	800.000	0.030	0.105
-466.157	-200.000	-0.023	0.430
-465.143	273.329	0.135	0.241
-464.128	-200.000	0.006	-0.339
-463.113	59.645	0.087	0.087
-462.099	66.070	0.020	-0.020
-461.084	288.201	0.097	0.177
-460.070	-107.118	-0.208	0.046
-459.055	800.000	-0.088	0.265
-458.040	-200.000	-0.037	0.333
-457.026	-119.331	-0.179	0.031
-456.011	33.014	0.168	0.147
-454.997	-200.000	-0.005	0.234
-453.982	-14.022	-0.308	-0.200
-452.968	-200.000	-0.001	0.126
-451.953	1.028	-0.195	0.141
-450.938	-136.063	0.288	0.034
-449.924	-200.000	0.002	0.126
-448.909	-56.452	-0.305	0.137
-447.895	-43.325	0.036	0.018
-446.880	514.488	0.126	-0.296
-445.865	-200.000	-0.002	-0.094
-444.851	278.122	0.153	-0.274
-443.836	-200.000	0.004	-0.062
-442.822	-200.000	-0.054	-0.454
-441.807	800.000	0.081	0.247
-440.792	-120.235	-0.202	0.035
-439.778	800.000	-0.043	0.121
-438.763	-37.943	0.300	0.160
-437.749	-164.798	0.062	-0.003
-436.734	221.968	-0.162	-0.262
-435.719	-97.246	0.252	0.066
-434.705	-165.830	-0.128	-0.006
-433.690	-42.286	-0.196	0.101
-432.676	-99.607	-0.163	-0.041
-431.661	-154.298	0.173	0.012
-430.646	800.000	-0.034	-0.130
-429.632	-142.289	-0.218	-0.022
-428.617	-200.000	-0.014	-0.136
-427.603	-15.801	0.193	0.124
-426.588	-200.000	0.016	0.187
-425.573	80.197	0.172	-0.187
-424.559	-200.000	-0.011	0.235
-423.544	715.292	0.023	0.063
-422.530	6.070	-0.224	-0.167
-421.515	338.564	0.077	0.152
-420.500	-110.276	0.428	0.090
-419.486	44.410	-0.121	0.112
-418.471	-88.614	0.168	-0.050
-417.457	92.196	0.229	0.259
-416.442	-131.547	-0.150	-0.020
-415.428	-43.545	-0.197	-0.100
-414.413	-200.000	0.041	0.272
-413.398	-165.054	-0.159	-0.007
-412.384	-79.880	0.282	-0.095
-411.369	-2.385	0.242	-0.171
-410.355	259.060	0.095	-0.165
-409.340	21.871	0.264	0.216
-408.325	-104.420	0.228	-0.053
-407.311	-43.484	0.299	0.152
-406.296	-35.172	-0.216	0.118
-405.282	195.704	-0.144	-0.220
-404.267	-12.544	-0.063	0.041
-403.252	113.388	0.262	0.319
-402.238	-200.000	0.083	-0.482
-401.223	-141.834	-0.331	0.033
-400.209	414.121	0.068	0.146
-399.194	-112.930	-0.153	-0.030
-398.179	-200.000	-0.020	-0.117
-397.165	77.192	0.053	0.056
-396.150	216.691	-0.091	-0.145
-395.136	800.000	0.160	-0.458
-394.121	-54.923	0.149	-0.067
-393.106	-36.423	0.210	-0.114
-392.092	-63.788	-0.221	0.091
-391.077	286.666	0.094	-0.170
-390.063	-200.000	-0.058	0.391
-389.048	-198.265	-0.234	0.001
-388.033	-95.183	-0.265	0.072
-387.019	37.891	0.080	0.071
-386.004	-172.790	0.257	-0.008
-384.990	-200.000	0.012	-0.327
-383.975	-47.310	0.101	-0.049
-382.960	-90.356	0.200	-0.058
-381.946	293.736	-0.116	-0.213
-380.931	411.959	0.081	-0.174
-379.917	-200.000	0.045	-0.283
-378.902	277.430	0.072	-0.129
-377.888	800.000	0.049	0.144
-376.873	246.479	-0.089	0.151
-375.858	800.000	-0.139	-0.390
-374.844	-153.533	-0.358	-0.025
-373.829	-119.897	0.136	-0.023
-372.815	113.586	-0.204	-0.249
-371.800	109.848	-0.142	0.171
-370.785	23.917	0.252	0.209
-369.771	-1.848	-0.156	-0.110
-368.756	-156.360	-0.193	-0.012
-367.742	-142.789	0.240	-0.023
-366.727	-200.000	-0.041	0.290
-365.712	-65.302	0.168	0.068
-364.698	57.228	0.150	0.147
-363.683	-148.704	-0.081	0.007
-362.669	159.334	-0.209	0.292
-361.654	-121.787	-0.227	0.038
-360.639	-147.321	-0.437	0.037
-359.625	-106.822	-0.135	0.030
-358.610	-129.654	0.512	0.071
-357.596	-175.867	-0.359	0.010
-356.581	-80.666	-0.380	-0.127
-355.566	-63.614	0.253	-0.104
-354.552	800.000	-0.115	-0.426
-353.537	-8.178	-0.297	-0.201
-352.523	41.642	-0.173	0.157
-351.508	800.000	-0.050	0.186
-350.493	-200.000	-0.006	-0.245
-349.479	-58.463	0.059	-0.026
-348.464	576.271	0.016	-0.039
-347.450	-200.000	-0.013	-0.162
-346.435	-200.000	0.000	0.166
-345.420	697.638	0.164	-0.432
-344.406	-200.000	-0.047	-0.229
-343.391	489.014	-0.097	-0.222
-342.377	-200.000	0.013	-0.370
-341.362	-200.000	-0.019	0.155
-340.348	-3.632	-0.300	0.209
-339.333	-200.000	-0.027	0.201
-338.318	136.488	0.060	-0.078
-337.304	-200.000	0.003	0.039
-336.289	-3.984	-0.062	0.043
-335.275	-200.000	0.060	0.342
-334.260	398.131	0.002	0.005
-333.245	800.000	0.085	0.342
-332.231	303.727	-0.105	0.196
-331.216	800.000	0.057	0.196
-330.202	75.783	0.150	0.159
-329.187	11.385	-0.261	-0.201
-328.172	-69.317	-0.195	0.075
-327.158	535.190	-0.126	0.298
-326.143	-94.158	-0.213	-0.058
-325.129	27.871	0.113	-0.095
-324.114	-200.000	0.006	-0.059
-323.099	-3.475	-0.129	-0.090
-322.085	-9.237	0.300	0.201
-321.070	800.000	0.013	-0.041
-320.056	-200.000	0.009	-0.175
-319.041	-200.000	-0.016	-0.181
-318.026	800.000	0.088	0.245
-317.012	800.000	0.069	0.291
-315.997	163.636	0.019	0.027
-314.983	36.482	0.170	-0.151
-313.968	-200.000	0.006	-0.099
-312.953	-129.675	0.397	-0.055
-311.939	-169.908	-0.107	-0.004
-310.924	-155.905	-0.338	-0.022
-309.910	65.919	-0.131	0.133
-308.895	299.009	-0.147	0.271
-307.880	-101.578	-0.095	-0.023
-306.866	800.000	-0.054	0.220
-305.851	-200.000	-0.042	-0.290
-304.837	57.093	0.146	-0.143
-303.822	-42.315	0.084	-0.043
-302.807	-10.120	-0.100	-0.066
-301.793	-19.906	0.067	0.041
-300.778	-46.473	0.251	0.123
-299.764	800.000	-0.055	0.163
-298.749	30.996	-0.153	0.131
-297.735	437.255	0.129	0.280
-296.720	-50.948	-0.285	0.134
-295.705	73.299	0.198	0.208
-294.691	-166.318	0.216	-0.009
-293.676	-19.423	0.181	-0.113
-292.662	-161.477	-0.103	0.005
-291.647	800.000	-0.084	-0.251
-290.632	126.319	-0.196	0.248
-289.618	102.982	0.221	-0.259
-288.603	-135.019	-0.192	-0.023
-287.589	224.943	-0.114	0.184
-286.574	800.000	0.035	0.142
-285.559	800.000	-0.091	-0.356
-284.545	576.666	0.076	-0.186
-283.530	6.109	0.221	-0.164
-282.516	-107.003	-0.280	0.062
-281.501	614.201	0.072	0.180
-280.486	39.080	0.150	0.134
-279.472	-58.165	-0.088	0.038
-278.457	213.156	-0.095	0.151
-277.443	303.392	-0.292	-0.541
-276.428	300.403	0.164	0.302
-275.413	-182.456	-0.275	0.005
-274.399	800.000	-0.011	0.039
-273.384	-200.000	0.032	0.220
-272.370	-160.794	-0.040	-0.002
-271.355	225.380	-0.032	0.052
-270.340	-23.870	0.134	0.080
-269.326	-29.849	0.259	0.148
-268.311	260.594	0.137	0.237
-267.297	800.000	0.041	-0.140
-266.282	-60.590	-0.056	0.024
-265.267	-51.180	0.218	0.102
-264.253	206.214	-0.123	0.191
-263.238	-38.606	-0.182	0.096
-262.224	330.012	0.023	0.044
-261.209	800.000	-0.070	-0.247
-260.195	607.457	-0.088	-0.219
-259.180	-200.000	0.147	-0.694
-258.165	562.150	0.015	0.036
-257.151	472.703	0.053	-0.120
-256.136	-57.150	0.164	-0.072
-255.122	800.000	-0.044	-0.159
-254.107	221.753	0.132	0.213
-253.092	-16.919	0.169	0.107
-252.078	-118.820	-0.029	0.005
-251.063	-200.000	-0.025	-0.188
-250.049	401.499	0.032	0.067
-249.034	-71.811	-0.236	-0.088
-248.019	-104.111	0.151	-0.035
-247.005	173.284	0.164	0.237
-245.990	-200.000	0.021	-0.170
-244.976	18.021	0.315	0.251
-243.961	-200.000	0.027	0.251
-242.946	-200.000	0.039	0.449
-241.932	140.643	0.163	-0.215
-240.917	-22.494	0.159	-0.096
-239.903	30.985	0.197	-0.169
-238.888	717.222	-0.112	0.298
-237.873	551.782	0.150	-0.359
-236.859	-0.484	-0.095	0.068
-235.844	140.563	0.319	0.421
-234.830	-58.089	-0.335	0.146
-233.815	60.555	-0.222	0.219
-232.800	800.000	-0.080	0.265
-231.786	-80.583	0.248	-0.083
-230.771	210.380	-0.148	-0.233
-229.757	-193.254	0.503	0.004
-228.742	-15.529	-0.146	0.093
-227.727	-98.007	0.377	0.097
-226.713	172.032	0.229	-0.328
-225.698	155.018	0.074	0.102
-224.684	-200.000	0.009	-0.059
-223.669	76.158	0.098	0.104
-222.655	41.809	0.284	0.257
-221.640	111.243	-0.260	-0.313
-220.625	-29.291	0.319	0.183
-219.611	-130.362	0.116	0.016
-218.596	478.621	-0.087	-0.198
-217.582	800.000	-0.153	-0.466
-216.567	800.000	-0.065	0.227
-215.552	800.000	-0.085	0.361
-214.538	121.598	-0.306	-0.381
-213.523	-200.000	-0.000	-0.168
-212.509	-200.000	0.009	0.088
-211.494	423.304	-0.024	-0.052
-210.479	16.559	-0.179	-0.141
-209.465	-46.498	-0.196	-0.096
-208.450	800.000	-0.071	-0.214
-207.436	-130.114	0.464	-0.063
-206.421	800.000	-0.093	0.263
-205.406	341.396	-0.029	0.056
-204.392	200.578	-0.086	-0.133
-203.377	103.967	0.221	-0.259
-202.363	-200.000	-0.013	-0.134
-201.348	245.476	-0.155	0.260
-200.333	242.910	0.099	0.165
-199.319	792.109	0.049	0.134
-198.304	108.768	0.165	0.197
-197.290	800.000	0.114	0.340
-196.275	800.000	0.093	0.273
-195.260	-106.094	0.409	0.092
-194.246	-110.682	0.549	0.113
-193.231	-200.000	0.005	0.054
-192.217	506.604	-0.103	0.237
-191.202	800.000	0.070	-0.282
-190.187	227.829	-0.068	-0.110
-189.173	123.328	-0.237	0.296
-188.158	800.000	0.099	0.301
-187.144	-145.938	0.163	0.014
-186.129	554.524	0.129	-0.309
-185.114	-13.610	-0.378	-0.244
-184.100	-84.932	0.083	0.026
-183.085	-64.006	0.137	0.056
-182.071	124.899	-0.039	0.049
-181.056	-4.347	-0.076	-0.053
-180.042	-99.534	-0.296	0.074
-179.027	62.825	-0.288	-0.287
-178.012	-111.072	-0.046	-0.009
-176.998	414.916	-0.097	-0.207
-175.983	-85.953	-0.201	-0.062
-174.969	-33.202	-0.400	-0.221
-173.954	-6.519	0.221	-0.150
-172.939	494.222	0.094	-0.214
-171.925	800.000	-0.019	0.064
-170.910	-132.311	-0.103	-0.013
-169.896	602.705	0.117	0.289
-168.881	372.362	-0.051	0.104
-167.866	194.999	-0.179	0.270
-166.852	4.075	-0.134	-0.098
-165.837	-200.000	0.026	-0.288
-164.823	114.920	-0.124	-0.151
-163.808	47.285	0.164	-0.152
-162.793	-135.784	0.294	-0.035
-161.779	45.953	0.384	0.354
-160.764	389.409	0.140	-0.288
-159.750	-133.472	-0.239	0.030
-158.735	49.396	-0.051	-0.048
-157.720	338.125	0.119	-0.230
-156.706	29.221	-0.481	0.407
-155.691	-200.000	0.004	-0.324
-154.677	24.773	0.051	0.042
-153.662	-63.352	-0.288	-0.118
-152.647	352.869	-0.055	-0.108
-151.633	-30.321	0.106	0.060
-150.618	14.498	0.171	0.133
-149.604	-93.177	-0.145	-0.040
-148.589	-131.601	-0.345	-0.045
-147.574	39.745	-0.132	-0.118
-146.560	355.638	-0.155	0.308
-145.545	-41.794	0.312	-0.159
-144.531	-162.712	0.198	-0.010
-143.516	800.000	0.047	0.152
-142.502	-28.339	-0.128	-0.074
-141.487	171.509	-0.085	-0.122
-140.472	-181.138	0.121	-0.002
-139.458	12.558	-0.128	0.098
-138.443	800.000	0.018	-0.077
-137.429	-200.000	-0.043	-0.276
-136.414	151.366	-0.084	0.114
-135.399	-200.000	-0.003	0.071
-134.385	156.607	0.219	-0.301
-133.370	-106.802	0.272	-0.060
-132.356	-200.000	0.010	0.158
-131.341	259.098	0.115	0.198
-130.326	-81.457	-0.357	0.117
-129.312	-40.169	0.259	-0.134
-128.297	-86.970	-0.348	0.105
-127.283	-173.273	0.087	-0.003
-126.268	-26.920	-0.109	-0.063
-125.253	-200.000	0.038	0.192
-124.239	-90.681	-0.255	-0.073
-123.224	-132.209	0.156	-0.020
-122.210	-20.053	0.183	-0.112
-121.195	-130.089	-0.178	-0.024
-120.180	-135.133	0.314	-0.038
-119.166	136.062	0.147	0.191
-118.151	800.000	0.091	0.357
-117.137	42.458	0.065	-0.059
-116.122	17.644	0.141	0.111
-115.107	742.716	0.081	-0.215
-114.093	387.205	-0.108	-0.221
-113.078	-7.520	-0.185	0.124
-112.064	470.108	0.079	0.176
-111.049	-200.000	-0.004	-0.056
-110.034	-137.038	-0.130	-0.015
-109.020	-122.220	0.396	-0.064
-108.005	-82.542	-0.158	-0.051
-106.991	109.932	0.123	-0.147
-105.976	-153.456	0.362	-0.025
-104.962	-200.000	0.004	0.156
-103.947	230.751	-0.241	-0.392
-102.932	603.611	0.088	0.216
-101.918	-152.025	-0.093	-0.007
-100.903	-125.579	0.179	0.027
-99.889	-121.543	-0.281	-0.046
-98.874	184.527	0.115	0.169
-97.859	180.763	0.127	0.185
-96.845	-200.000	0.058	-0.264
-95.830	192.132	-0.167	0.250
-94.816	-200.000	0.008	-0.164
-93.801	-24.941	0.285	-0.168
-92.786	800.000	0.146	-0.433
-91.772	223.955	0.138	0.221
-90.757	-20.364	0.225	-0.137
-89.743	-27.746	0.071	-0.041
-88.728	-83.491	-0.189	0.060
-87.713	-188.432	0.217	-0.003
-86.699	-133.472	0.182	-0.023
-85.684	222.005	0.267	0.427
-84.670	-25.913	-0.090	0.053
-83.655	41.108	-0.109	-0.098
-82.640	-55.725	0.400	-0.178
-81.626	176.798	-0.164	-0.237
-80.611	110.145	-0.111	-0.132
-79.597	451.190	0.107	0.235
-78.582	-200.000	-0.026	-0.187
-77.567	-160.630	0.114	0.006
-76.553	-138.061	0.054	0.006
-75.538	394.604	0.093	-0.191
-74.524	-200.000	0.047	-0.287
-73.509	55.308	0.087	0.084
-72.494	-38.901	0.149	-0.078
-71.480	129.552	-0.077	-0.098
-70.465	210.936	-0.154	-0.241
-69.451	-200.000	-0.012	0.084
-68.436	-200.000	0.000	0.050
-67.422	17.966	0.447	0.354
-66.407	110.982	0.233	-0.279
-65.392	-114.246	-0.451	0.086
-64.378	420.148	-0.044	-0.094
-63.363	720.158	0.133	0.351
-62.349	-103.688	0.369	-0.086
-61.334	29.879	-0.910	-0.769
-60.319	800.000	0.177	0.634
-59.305	727.250	-0.376	-0.996
-58.290	166.063	0.700	0.983
-57.276	791.537	0.587	1.602
-56.261	-200.000	92.019	538.288
-55.246	516.444	1378.076	3194.643
-54.232	149.465	2595.977	3486.842
-53.217	111.896	2213.785	2651.520
-52.203	45.332	1745.080	1596.546
-51.188	38.393	1553.601	1372.831
-50.173	35.732	1526.467	1330.416
-49.159	53.261	1575.187	1496.524
-48.144	56.862	1594.610	1540.255
-47.130	38.698	1550.846	1372.312
-46.115	35.463	1535.189	1335.937
-45.100	35.186	1532.481	1331.598
-44.086	35.176	1530.473	1329.732
-43.071	35.108	1528.753	1327.715
-42.057	35.106	1526.418	1325.617
-41.042	35.158	1525.221	1324.886
-40.027	35.112	1523.641	1323.146
-39.013	35.221	1521.909	1322.341
-37.998	35.045	1521.262	1320.509
-36.984	35.137	1520.193	1320.164
-35.969	35.123	1518.990	1318.973
-34.954	35.101	1517.293	1317.295
-33.940	35.158	1515.596	1316.157
-32.925	35.153	1513.866	1314.569
-31.911	35.256	1512.860	1314.354
-30.896	35.206	1511.437	1312.723
-29.881	35.232	1510.268	1311.830
-28.867	35.229	1508.838	1310.517
-27.852	35.230	1507.134	1308.989
-26.838	35.187	1505.659	1307.365
-25.823	35.183	1504.076	1305.912
-24.809	35.129	1503.103	1304.647
-23.794	35.248	1501.544	1304.052
-22.779	35.173	1500.579	1302.653
-21.765	35.138	1499.198	1301.167
-20.750	35.166	1498.211	1300.443
-19.736	35.160	1496.590	1298.947
-18.721	35.228	1495.968	1298.814
-17.706	35.113	1495.106	1297.240
-16.692	35.105	1494.091	1296.253
-15.677	35.045	1493.308	1295.111
-14.663	35.057	1491.938	1293.955
-13.648	35.095	1490.797	1293.170
-12.633	35.096	1489.825	1292.284
-11.619	35.091	1489.096	1291.569
-10.604	35.150	1487.970	1290.933
-9.590	35.098	1487.457	1290.092
-8.575	35.135	1486.659	1289.597
-7.560	35.086	1485.326	1288.059
-6.546	35.110	1485.026	1287.905
-5.531	35.141	1483.964	1287.143
-4.517	35.138	1482.827	1286.088
-3.502	35.150	1481.849	1285.270
-2.487	35.008	1480.844	1283.392
-1.473	34.967	1480.159	1282.474
-0.458	35.109	1478.573	1282.002
0.556	35.370	1469.446	1273.614
1.571	33.266	1444.291	1237.953
2.586	30.369	1384.030	1167.998
3.600	28.973	1301.528	1090.011
4.615	27.207	1253.453	1039.568
5.629	22.413	1193.998	963.994
6.644	11.368	1103.148	834.372
7.659	3.275	1058.982	761.026
8.673	2.077	1053.561	751.174
9.688	1.872	1050.357	747.817
10.702	1.640	1049.155	745.756
11.717	1.652	1046.694	744.000
12.731	5.030	1050.227	762.997
13.746	15.249	1066.274	825.122
14.761	23.499	1075.921	873.321
15.775	25.053	1077.606	882.266
16.790	25.162	1077.622	882.738
17.804	25.005	1076.591	881.045
18.819	24.892	1075.687	879.672
19.834	25.003	1074.989	879.570
20.848	25.037	1074.892	879.579
21.863	25.131	1074.025	879.254
22.877	25.202	1073.705	879.258
23.892	25.082	1073.193	878.174
24.907	25.097	1072.145	877.312
25.921	25.111	1071.714	876.948
26.936	25.168	1070.626	876.263
27.950	25.192	1069.561	875.430
28.965	25.041	1068.658	873.879
29.980	24.964	1067.234	872.260
30.994	24.999	1065.845	871.217
32.009	25.129	1065.003	871.086
33.023	25.230	1064.387	870.992
34.038	24.934	1063.506	868.761
35.053	24.985	1062.709	868.277
36.067	25.132	1062.002	868.335
37.082	25.126	1061.175	867.556
38.096	25.184	1060.433	867.151
39.111	25.379	1059.940	867.612
40.126	25.321	1059.209	866.657
41.140	25.230	1058.050	865.194
42.155	25.032	1056.248	862.689
43.169	24.697	1055.354	860.272
44.184	24.656	1054.283	859.126
45.199	24.711	1053.378	858.580
46.213	24.638	1052.335	857.302
47.228	24.713	1051.199	856.661
48.242	24.885	1050.527	856.860
49.257	24.991	1050.185	857.011
50.271	25.037	1049.207	856.360
51.286	25.154	1048.492	856.256
52.301	25.129	1048.047	855.700
53.315	25.220	1046.964	855.173
54.330	25.098	1046.377	854.037
55.344	25.022	1045.338	852.752
56.359	24.845	1045.555	852.007
57.374	25.013	1043.911	851.393
58.388	24.860	1042.922	849.786
59.403	24.664	1042.214	848.205
60.417	24.780	1041.784	848.328
61.432	24.766	1040.621	847.239
62.447	24.654	1039.824	845.986
63.461	24.662	1040.047	846.132
64.476	24.834	1038.791	845.847
65.490	24.766	1037.683	844.546
66.505	24.783	1036.699	843.753
67.520	24.704	1035.876	842.637
68.534	24.858	1035.372	842.876
69.549	24.759	1034.137	841.330
70.563	24.421	1033.111	838.834
71.578	24.351	1032.288	837.762
72.593	24.386	1031.405	837.136
73.607	24.129	1030.785	835.352
74.622	24.234	1029.384	834.637
75.636	24.517	1028.702	835.332
76.651	24.708	1027.930	835.527
77.666	24.535	1026.991	833.879
78.680	24.453	1026.418	832.960
79.695	24.453	1025.790	832.376
80.709	24.561	1025.299	832.406
81.724	24.747	1024.381	832.453
82.739	24.652	1023.625	831.322
83.753	24.695	1022.474	830.514
84.768	24.868	1022.250	831.061
85.782	25.294	1021.583	832.421
86.797	25.556	1020.832	832.950
87.812	25.444	1019.810	831.523
88.826	25.203	1019.065	829.730
89.841	25.256	1018.252	829.240
90.855	25.402	1017.524	829.249
91.870	25.445	1016.755	828.744
92.884	25.402	1016.096	827.938
93.899	25.321	1015.408	826.930
94.914	25.185	1013.964	825.055
95.928	25.269	1013.458	824.955
96.943	25.235	1012.610	824.038
97.957	24.900	1011.604	821.607
98.972	24.867	1009.947	820.041
99.987	24.611	1009.265	818.241
101.001	24.680	1008.874	818.168
102.016	24.983	1008.233	818.962
103.030	25.196	1007.074	818.921
104.045	24.951	1006.386	817.170
105.060	24.770	1005.167	815.284
106.074	24.631	1003.958	813.598
107.089	24.776	1003.112	813.497
108.103	24.982	1003.396	814.594
109.118	25.101	1002.129	814.034
110.133	24.780	1000.972	811.567
111.147	24.715	1000.458	810.780
112.162	24.663	999.167	809.430
113.176	24.486	997.598	807.287
114.191	24.601	997.311	807.502
115.206	24.701	996.614	807.319
116.220	24.498	995.348	805.307
117.235	24.219	994.636	803.399
118.249	24.376	994.046	803.562
119.264	24.528	993.141	803.441
120.279	24.429	992.175	802.144
121.293	24.465	991.326	801.547
122.308	24.435	990.590	800.747
123.322	24.431	990.148	800.301
124.337	24.278	988.906	798.541
125.352	24.328	987.584	797.627
126.366	23.925	985.958	794.442
127.381	23.651	984.654	792.101
128.395	24.215	984.504	794.426
129.410	24.690	984.502	796.472
130.424	24.896	983.906	796.833
131.439	25.001	982.793	796.328
132.454	24.998	981.504	795.201
133.468	24.866	980.919	794.073
134.483	24.822	980.330	793.329
135.497	24.901	979.559	792.983
136.512	25.103	979.340	793.630
137.527	25.284	977.867	793.167
138.541	25.119	977.738	792.265
139.556	25.413	976.167	792.218
140.570	25.206	975.979	791.083
141.585	25.332	975.466	791.151
142.600	25.359	974.288	790.246
143.614	25.224	973.532	788.966
144.629	25.224	972.897	788.382
145.643	25.593	972.748	789.813
146.658	25.358	971.712	787.872
147.673	25.114	969.954	785.307
148.687	25.126	968.938	784.469
149.702	25.121	967.415	783.145
150.716	25.017	966.707	782.047
151.731	25.023	965.615	781.120
152.746	25.040	965.048	780.667
153.760	25.203	964.527	780.885
154.775	25.258	963.965	780.604
155.789	25.331	963.165	780.201
156.804	25.395	962.072	779.528
157.819	25.370	961.347	778.760
158.833	25.356	960.264	777.754
159.848	25.391	959.680	777.363
160.862	25.588	958.456	777.154
161.877	25.448	957.385	775.612
162.892	25.181	956.460	773.645
163.906	25.293	956.178	773.832
164.921	25.373	954.858	773.039
165.935	25.374	954.015	772.292
166.950	25.327	953.435	771.551
167.964	25.415	952.131	770.805
168.979	25.364	950.721	769.379
169.994	25.154	950.252	768.031
171.008	25.045	948.986	766.472
172.023	25.141	948.780	766.650
173.037	25.447	947.844	767.134
174.052	25.247	946.864	765.418
175.067	24.946	945.931	763.316
176.081	24.953	944.840	762.396
177.096	25.100	943.894	762.189
178.110	25.278	942.842	762.029
179.125	24.982	942.328	760.288
180.140	24.634	941.295	757.914
181.154	24.548	940.838	757.113
182.169	24.794	940.019	757.430
183.183	25.053	939.756	758.249
184.198	25.297	939.274	758.821
185.213	25.298	938.482	758.119
186.227	25.085	938.339	757.038
187.242	25.196	937.789	756.995
188.256	25.472	936.354	756.933
189.271	25.482	935.918	756.556
190.286	25.643	935.265	756.640
191.300	25.260	934.620	754.439
192.315	24.674	933.021	750.624
193.329	23.791	931.223	745.406
194.344	23.518	930.279	743.442
195.359	24.047	930.555	745.812
196.373	24.990	930.850	749.933
197.388	25.231	930.919	750.930
198.402	25.245	929.983	750.166
199.417	25.091	929.562	749.118
200.432	25.142	929.486	749.204
201.446	25.149	928.283	748.197
202.461	24.675	927.654	745.648
203.475	24.801	927.005	745.587
204.490	24.548	925.311	743.105
205.504	23.308	923.002	736.034
206.519	23.769	922.811	737.731
207.534	24.732	923.402	742.140
208.548	24.827	922.723	741.921
209.563	24.981	923.046	742.754
210.577	25.082	922.308	742.513
211.592	24.840	921.244	740.586
212.607	25.242	921.117	742.083
213.621	25.468	920.732	742.640
214.636	25.443	919.957	741.848
215.650	25.414	919.297	741.131
216.665	25.327	918.878	740.368
217.680	25.311	918.358	739.820
218.694	25.505	918.048	740.304
219.709	25.188	916.664	737.815
220.723	24.745	916.081	735.463
221.738	25.070	915.583	736.333
222.753	25.238	915.303	736.729
223.767	25.089	914.458	735.374
224.782	25.252	913.825	735.467
225.796	25.386	913.155	735.413
226.811	25.483	912.528	735.240
227.826	24.997	911.661	732.488
228.840	24.349	909.745	728.242
229.855	24.227	909.168	727.217
230.869	24.529	908.581	727.915
231.884	24.076	907.865	725.432
232.899	24.253	907.444	725.752
233.913	24.860	907.903	728.526
234.928	25.132	907.479	729.226
235.942	24.907	906.672	727.598
236.957	24.938	906.218	727.295
237.972	24.850	904.768	725.712
238.986	24.619	904.429	724.441
240.001	24.714	903.888	724.325
241.015	24.870	902.932	724.128
242.030	24.799	902.390	723.341
243.045	24.990	902.100	723.815
244.059	25.193	901.855	724.375
245.074	25.207	901.208	723.850
246.088	25.430	899.948	723.672
247.103	24.931	899.473	721.215
248.117	25.002	898.415	720.591
249.132	25.540	898.552	722.798
250.147	25.903	898.549	724.190
251.161	25.898	898.211	723.835
252.176	26.081	897.908	724.262
253.190	26.026	897.079	723.308
254.205	26.048	896.424	722.805
255.220	26.270	896.323	723.546
256.234	26.176	895.706	722.607
257.249	26.106	894.802	721.536
258.263	26.012	894.024	720.470
259.278	25.998	893.632	720.034
260.293	26.040	893.573	720.090
261.307	26.246	892.594	720.061
262.322	26.080	891.921	718.791
263.336	26.000	891.284	717.894
264.351	25.465	889.996	714.667
265.366	24.359	887.962	708.581
266.380	24.033	886.988	706.448
267.395	24.865	887.581	710.160
268.409	25.618	887.831	713.284
269.424	25.634	886.757	712.420
270.439	25.766	886.636	712.786
271.453	25.784	885.604	711.963
272.468	25.787	885.385	711.733
273.482	25.943	885.068	712.033
274.497	26.167	884.149	712.115
275.512	25.876	883.470	710.356
276.526	25.303	881.676	706.600
277.541	25.594	881.618	707.635
278.555	26.010	881.100	708.790
279.570	25.915	880.508	707.880
280.585	25.671	879.769	706.264
281.599	25.723	879.602	706.273
282.614	25.712	879.187	705.834
283.628	25.352	878.063	703.458
284.643	24.919	877.404	701.172
285.657	25.463	877.059	702.963
286.672	25.356	876.166	701.768
287.687	24.831	875.154	698.844
288.701	25.141	875.341	700.143
289.716	25.551	874.938	701.360
290.730	25.210	873.958	699.184
291.745	25.101	873.361	698.220
292.760	24.876	872.583	696.657
293.774	24.903	871.496	695.833
294.789	25.809	872.249	699.896
295.803	26.495	872.254	702.504
296.818	26.373	871.972	701.741
297.833	26.563	871.462	702.004
298.847	26.304	870.478	700.145
299.862	25.822	869.233	697.218
300.876	26.018	869.318	697.982
301.891	26.393	868.694	698.870
302.906	26.416	868.135	698.445
303.920	26.049	866.709	695.822
304.935	25.846	866.494	694.804
305.949	26.259	866.215	696.112
306.964	26.380	865.632	696.047
307.979	26.325	864.959	695.232
308.993	26.065	864.784	694.031
310.008	26.383	864.365	694.855
311.022	26.588	863.845	695.165
312.037	26.423	863.267	694.004
313.052	26.296	862.341	692.711
314.066	26.065	861.636	691.201
315.081	25.269	860.387	687.090
316.095	24.575	858.989	683.258
317.110	25.108	859.165	685.377
318.125	26.013	859.380	688.946
319.139	25.708	858.198	686.775
320.154	24.488	856.617	680.799
321.168	24.158	855.379	678.497
322.183	24.639	855.997	680.760
323.197	25.646	856.253	684.740
324.212	25.950	855.949	685.593
325.227	26.089	855.871	685.999
326.241	26.202	855.443	686.023
327.256	26.157	854.705	685.198
328.270	26.111	853.417	683.931
329.285	25.924	853.355	683.112
330.300	25.795	852.138	681.591
331.314	25.344	852.020	679.728
332.329	25.589	851.186	679.929
333.343	26.000	850.807	681.120
334.358	26.220	850.720	681.821
335.373	26.149	850.025	680.936
336.387	26.303	849.482	681.021
337.402	26.637	849.139	681.944
338.416	26.670	848.919	681.831
339.431	26.656	848.150	681.098
340.446	26.721	847.815	681.014
341.460	26.963	847.422	681.549
342.475	26.818	846.575	680.261
343.489	26.717	845.732	679.147
344.504	26.548	845.665	678.399
345.519	27.025	844.958	679.558
346.533	27.073	844.855	679.592
347.548	27.126	844.203	679.206
348.562	27.190	843.821	679.079
349.577	27.011	843.468	678.065
350.592	26.864	842.866	676.975
351.606	27.037	842.241	677.056
352.621	27.047	841.541	676.470
353.635	26.999	840.513	675.406
354.650	26.688	840.487	674.167
355.665	26.513	839.608	672.753
356.679	25.481	837.964	667.547
357.694	25.395	837.469	666.772
358.708	26.000	837.339	668.856
359.723	25.950	836.750	668.139
360.738	26.133	836.394	668.475
361.752	26.641	836.345	670.258
362.767	26.806	836.003	670.532
363.781	26.976	835.903	671.022
364.796	27.333	835.956	672.325
365.810	27.366	835.466	671.992
366.825	27.573	835.058	672.368
367.840	27.450	834.925	671.750
368.854	27.336	833.940	670.477
369.869	26.715	833.239	667.568
370.883	26.620	832.394	666.481
371.898	26.833	831.803	666.731
372.913	26.844	830.693	665.823
373.927	26.733	830.251	665.004
374.942	26.900	829.957	665.323
375.956	26.940	829.626	665.144
376.971	26.998	828.972	664.774
377.986	27.202	828.377	664.984
379.000	27.467	827.819	665.447
380.015	27.388	827.634	664.951
381.029	27.244	827.064	663.909
382.044	27.138	826.211	662.777
383.059	27.456	825.713	663.477
384.073	27.373	824.977	662.527
385.088	27.281	825.073	662.209
386.102	27.243	824.545	661.589
387.117	27.162	823.539	660.428
388.132	27.006	823.085	659.439
389.146	27.006	821.872	658.409
390.161	26.429	821.285	655.788
391.175	26.375	820.956	655.273
392.190	26.922	821.300	657.472
393.205	27.038	820.993	657.589
394.219	25.924	818.705	651.672
395.234	24.411	816.420	644.338
396.248	23.514	815.524	640.335
397.263	24.541	816.306	644.603
398.278	26.583	817.522	652.879
399.292	26.937	817.562	654.126
400.307	26.550	816.933	652.173
401.321	26.601	816.335	651.821
402.336	26.618	816.155	651.683
403.350	26.918	815.859	652.465
404.365	27.349	816.271	654.287
405.380	27.777	815.694	655.305
406.394	28.031	815.533	656.027
407.409	28.012	815.291	655.708
408.423	28.046	814.773	655.357
409.438	27.954	813.877	654.249
410.453	28.028	813.430	654.095
411.467	28.008	813.183	653.766
412.482	28.117	812.614	653.640
413.496	27.878	812.269	652.451
414.511	28.173	811.918	653.166
415.526	28.174	811.611	652.866
416.540	28.112	811.230	652.279
417.555	27.943	810.541	651.065
418.569	27.699	809.607	649.389
419.584	27.737	808.887	648.889
420.599	27.823	808.769	649.042
421.613	105.001	1280.731	1438.815
422.628	90.550	1349.494	1438.918
