DTS Sentinel unit serial number:	SN413079Multiplexer serial number:	ORYXHardware model number:	OX4-SRSoftware version number:	ORYX F/W v4.00 Oryx Data Collector v3.7.2.0data status	okinstallation	princeton_trtdifferential loss correction	single-endedforward channel	channel 3reverse channel	N/Adate	2019/09/19time	03:00:35forward acquisition time	60.00reverse acquisition time	0.00gamma	496.2192k internal	0.2348k external	0.2348temperature offset calibration	0.9993default loss term (dB/km)	0.3790temperature slope calibration	1.0000multiplexer offset coefficient	1.0000multiplexer slope coefficient	1.0000fibre end	0.00T internal ref (°C)	20.86T ext. ref 1 (°C)	0.66T ext. ref 2 (°C)	14.60length (m)	temperature (°C)	Stokes	anti-Stokes-747.200	-29.170	-0.069	-0.039
-746.185	-200.000	0.072	0.838
-745.171	-142.042	0.138	0.014
-744.156	-107.925	-0.306	0.066
-743.142	-200.000	0.007	0.160
-742.127	-200.000	0.039	0.255
-741.112	-200.000	0.048	0.220
-740.098	-200.000	-0.022	-0.288
-739.083	-145.468	-0.186	-0.017
-738.069	92.282	-0.191	0.215
-737.054	22.071	-0.179	0.146
-736.039	-200.000	-0.006	-0.271
-735.025	-200.000	-0.014	0.280
-734.010	-137.751	-0.311	0.035
-732.996	-49.697	0.065	-0.031
-731.981	-14.428	0.236	0.152
-730.966	102.475	0.087	-0.102
-729.952	-200.000	0.003	0.215
-728.937	-200.000	0.014	-0.077
-727.923	9.694	0.134	-0.101
-726.908	-91.925	-0.111	-0.031
-725.894	-200.000	-0.041	-0.301
-724.879	113.576	0.150	-0.182
-723.864	-200.000	0.010	-0.194
-722.850	-51.943	0.146	0.068
-721.835	-144.948	-0.192	-0.018
-720.821	15.973	0.191	-0.150
-719.806	-182.808	-0.554	-0.010
-718.791	-116.842	0.469	0.086
-717.777	-200.000	-0.010	-0.151
-716.762	-95.362	0.029	0.008
-715.748	21.110	0.177	-0.143
-714.733	-44.666	-0.084	0.042
-713.718	15.271	-0.194	0.151
-712.704	-128.060	-0.154	0.022
-711.689	-200.000	0.012	-0.059
-710.675	-200.000	-0.261	-0.001
-709.660	-69.258	0.278	0.107
-708.645	80.382	-0.033	0.036
-707.631	-77.089	0.332	0.116
-706.616	-103.533	0.305	-0.072
-705.602	-200.000	0.035	0.242
-704.587	-200.000	-0.037	0.179
-703.572	42.706	-0.088	-0.080
-702.558	-31.267	0.340	0.191
-701.543	34.258	-0.122	0.106
-700.529	-67.561	0.212	-0.083
-699.514	800.000	0.081	-0.224
-698.499	33.091	-0.153	-0.133
-697.485	-6.965	-0.063	0.043
-696.470	800.000	-0.046	-0.173
-695.456	-200.000	-0.022	-0.195
-694.441	401.880	-0.086	-0.181
-693.426	72.182	-0.162	-0.168
-692.412	665.092	0.052	-0.135
-691.397	-19.307	-0.225	-0.139
-690.383	-106.242	-0.126	0.028
-689.368	303.846	-0.099	-0.184
-688.354	-40.749	0.160	0.083
-687.339	-200.000	-0.060	-0.339
-686.324	45.503	-0.170	-0.156
-685.310	90.269	-0.026	-0.029
-684.295	-19.848	-0.216	0.133
-683.281	800.000	-0.058	-0.217
-682.266	-89.312	0.432	0.127
-681.251	-45.198	0.294	0.145
-680.237	147.793	-0.175	0.235
-679.222	-11.467	-0.170	-0.111
-678.208	800.000	0.101	-0.340
-677.193	800.000	0.029	-0.117
-676.178	-175.076	0.243	0.007
-675.164	800.000	-0.037	-0.157
-674.149	-200.000	-0.001	0.048
-673.135	409.357	0.086	-0.182
-672.120	33.330	-0.079	-0.068
-671.105	-136.067	-0.342	0.040
-670.091	-26.865	-0.230	0.134
-669.076	354.461	-0.128	-0.254
-668.062	-48.746	0.092	-0.044
-667.047	26.366	-0.392	0.327
-666.032	425.494	-0.100	0.215
-665.018	210.632	0.206	0.322
-664.003	800.000	-0.124	0.420
-662.989	70.312	-0.101	-0.104
-661.974	-200.000	-0.022	-0.178
-660.959	-200.000	-0.020	-0.094
-659.945	-200.000	0.034	-0.187
-658.930	-6.594	-0.323	-0.219
-657.916	800.000	0.020	0.057
-656.901	-63.421	-0.142	-0.058
-655.886	800.000	-0.023	-0.071
-654.872	273.135	-0.136	0.239
-653.857	-200.000	-0.015	0.311
-652.843	-200.000	0.013	-0.078
-651.828	90.500	0.210	0.234
-650.814	-200.000	0.010	-0.180
-649.799	32.919	0.226	-0.194
-648.784	-47.660	0.271	-0.131
-647.770	-113.900	-0.280	0.054
-646.755	56.266	0.190	-0.184
-645.741	-200.000	-0.002	0.180
-644.726	-115.688	-0.125	-0.023
-643.711	-134.110	-0.296	0.036
-642.697	669.871	-0.120	-0.309
-641.682	-200.000	0.072	-0.416
-640.668	143.549	-0.148	0.197
-639.653	17.434	0.192	-0.152
-638.638	-67.402	-0.538	-0.210
-637.624	-112.874	-0.112	0.022
-636.609	800.000	0.041	0.139
-635.595	5.580	0.148	0.109
-634.580	800.000	-0.090	-0.256
-633.565	-45.190	-0.137	-0.068
-632.551	400.146	-0.327	0.682
-631.536	-116.684	0.256	0.047
-630.522	357.735	0.137	-0.272
-629.507	150.415	-0.107	-0.144
-628.492	386.299	0.129	0.266
-627.478	800.000	-0.028	0.101
-626.463	800.000	-0.057	0.159
-625.449	361.228	-0.123	-0.244
-624.434	331.045	-0.204	-0.391
-623.419	-182.852	0.237	-0.004
-622.405	-162.165	-0.349	-0.017
-621.390	-116.531	0.262	-0.048
-620.376	-200.000	-0.045	-0.348
-619.361	-39.203	-0.412	0.215
-618.346	-27.853	0.255	0.147
-617.332	276.506	-0.207	-0.365
-616.317	-82.659	0.343	-0.110
-615.303	414.001	0.155	-0.328
-614.288	800.000	0.039	-0.110
-613.273	508.634	-0.083	0.192
-612.259	800.000	0.042	0.163
-611.244	43.757	0.245	-0.223
-610.230	-111.628	-0.080	-0.016
-609.215	-147.903	-0.194	-0.016
-608.201	644.833	-0.051	0.128
-607.186	8.590	-0.212	0.158
-606.171	-35.637	-0.246	0.133
-605.157	204.979	0.130	-0.201
-604.142	800.000	-0.124	-0.383
-603.128	173.882	0.103	-0.148
-602.113	800.000	-0.065	-0.234
-601.098	-58.154	0.222	0.096
-600.084	-52.723	0.287	-0.131
-599.069	-183.450	0.186	-0.003
-598.055	-99.825	-0.219	-0.054
-597.040	-30.179	-0.230	-0.130
-596.025	356.860	0.070	0.138
-595.011	800.000	-0.218	-0.653
-593.996	-91.861	-0.224	-0.063
-592.982	-200.000	-0.048	0.323
-591.967	-159.224	-0.029	0.002
-590.952	-88.430	-0.147	0.044
-589.938	-100.810	0.196	0.048
-588.923	-140.173	-0.159	-0.017
-587.909	24.139	-0.071	0.058
-586.894	-123.807	0.227	-0.036
-585.879	-200.000	0.039	0.320
-584.865	-200.000	-0.011	-0.056
-583.850	41.653	-0.156	0.140
-582.836	-200.000	0.025	0.123
-581.821	562.371	0.260	0.626
-580.806	-155.117	-0.365	-0.024
-579.792	-101.035	-0.184	-0.045
-578.777	48.245	-0.031	-0.029
-577.763	-200.000	-0.001	0.482
-576.748	-22.373	-0.239	-0.143
-575.733	-20.700	0.409	0.249
-574.719	-71.427	0.077	-0.029
-573.704	430.579	0.071	0.152
-572.690	-41.738	-0.190	0.097
-571.675	-50.688	0.091	-0.043
-570.661	-138.807	-0.396	-0.043
-569.646	358.904	-0.136	-0.269
-568.631	463.026	0.076	0.169
-567.617	-11.809	-0.048	-0.031
-566.602	54.691	-0.334	-0.320
-565.588	-200.000	-0.014	-0.149
-564.573	-132.404	0.154	-0.020
-563.558	-200.000	0.007	0.055
-562.544	-200.000	0.001	0.033
-561.529	21.482	0.158	0.127
-560.515	154.056	0.177	0.241
-559.500	800.000	-0.071	0.274
-558.485	-38.307	0.079	-0.041
-557.471	175.565	-0.117	0.168
-556.456	-200.000	0.024	0.142
-555.442	-200.000	-0.004	-0.150
-554.427	-108.159	-0.291	0.063
-553.412	-200.000	0.041	0.204
-552.398	-97.724	0.220	-0.056
-551.383	305.146	0.110	0.203
-550.369	-92.647	0.232	-0.064
-549.354	-200.000	-0.087	0.418
-548.339	800.000	0.043	0.127
-547.325	-89.931	-0.094	0.027
-546.310	-200.000	-0.025	-0.223
-545.296	-94.357	0.152	-0.041
-544.281	6.327	-0.064	0.047
-543.266	-153.030	0.179	-0.012
-542.252	-125.518	0.173	-0.026
-541.237	-140.300	-0.335	0.035
-540.223	-64.802	0.103	0.041
-539.208	-63.873	-0.217	-0.088
-538.193	800.000	-0.055	0.183
-537.179	-16.817	-0.224	0.140
-536.164	-200.000	-0.010	-0.328
-535.150	-103.508	0.090	0.021
-534.135	-144.350	-0.151	-0.014
-533.121	141.424	-0.245	0.321
-532.106	578.292	-0.080	-0.194
-531.091	-154.729	-0.355	-0.023
-530.077	152.775	0.226	-0.305
-529.062	-51.381	0.143	0.066
-528.048	92.084	-0.069	0.077
-527.033	800.000	0.059	0.208
-526.018	-200.000	-0.003	-0.320
-525.004	-8.878	0.272	-0.180
-523.989	5.958	0.191	0.140
-522.975	-200.000	-0.015	-0.205
-521.960	156.322	0.117	0.160
-520.945	-159.088	0.188	0.011
-519.931	-88.985	-0.064	-0.019
-518.916	-102.685	0.164	0.039
-517.902	-64.149	0.216	0.087
-516.887	153.821	0.081	0.109
-515.872	-81.051	0.169	0.055
-514.858	73.433	0.208	0.216
-513.843	-140.270	0.406	-0.042
-512.829	24.955	-0.179	-0.147
-511.814	107.422	0.084	-0.099
-510.799	-59.417	0.386	-0.164
-509.785	19.895	-0.101	-0.081
-508.770	-200.000	-0.012	0.321
-507.756	85.220	-0.196	0.213
-506.741	260.489	0.150	-0.256
-505.726	-135.174	-0.215	0.026
-504.712	-149.816	0.047	0.004
-503.697	-11.408	0.209	-0.136
-502.683	417.352	0.059	-0.124
-501.668	-200.000	0.020	0.180
-500.653	102.596	-0.187	-0.217
-499.639	79.414	-0.046	-0.049
-498.624	-19.873	0.193	0.118
-497.610	-200.000	-0.031	0.212
-496.595	-200.000	-0.040	0.404
-495.581	681.829	-0.070	-0.180
-494.566	-200.000	0.008	0.056
-493.551	19.472	-0.130	0.103
-492.537	17.788	-0.132	0.104
-491.522	-93.185	-0.300	0.083
-490.508	171.290	0.261	0.370
-489.493	-39.661	-0.153	0.079
-488.478	-39.981	-0.052	0.027
-487.464	-120.071	0.196	0.033
-486.449	284.194	-0.109	-0.193
-485.435	-104.367	-0.316	-0.072
-484.420	-78.935	-0.311	0.105
-483.405	148.739	0.181	0.242
-482.391	-200.000	-0.001	0.090
-481.376	378.918	-0.038	-0.077
-480.362	-200.000	-0.048	0.251
-479.347	-200.000	0.000	-0.082
-478.332	79.710	0.162	0.172
-477.318	49.213	0.094	-0.087
-476.303	-200.000	0.009	-0.073
-475.289	5.336	-0.144	-0.105
-474.274	52.766	0.275	0.259
-473.259	124.321	-0.051	0.064
-472.245	118.254	-0.049	-0.060
-471.230	249.987	-0.141	0.237
-470.216	-52.465	0.196	0.089
-469.201	207.138	-0.189	0.291
-468.186	67.925	-0.065	-0.066
-467.172	800.000	-0.008	0.026
-466.157	239.644	-0.110	-0.181
-465.143	-200.000	0.038	0.326
-464.128	35.787	-0.126	0.110
-463.113	119.403	0.178	0.218
-462.099	-79.183	0.203	-0.068
-461.084	-200.000	0.038	0.238
-460.070	-47.130	0.483	0.233
-459.055	-39.032	-0.124	0.064
-458.040	37.991	0.138	0.121
-457.026	232.772	0.179	-0.290
-456.011	-4.901	-0.087	0.059
-454.997	-25.514	-0.067	0.039
-453.982	-160.107	-0.234	0.013
-452.968	-200.000	-0.021	0.129
-451.953	-71.047	0.061	0.023
-450.938	428.988	-0.150	-0.320
-449.924	-73.993	-0.366	0.131
-448.909	92.538	-0.311	-0.346
-447.895	122.114	0.256	0.316
-446.880	133.170	0.137	-0.175
-445.865	184.465	-0.246	-0.360
-444.851	-200.000	0.011	0.103
-443.836	-200.000	-0.012	-0.239
-442.822	-200.000	-0.116	-0.527
-441.807	-1.756	-0.222	0.154
-440.792	47.903	0.103	0.095
-439.778	-100.347	0.267	-0.065
-438.763	-3.224	-0.346	0.238
-437.749	-127.798	-0.119	0.017
-436.734	800.000	-0.097	-0.328
-435.719	358.622	-0.127	0.250
-434.705	-23.755	-0.117	-0.069
-433.690	-20.065	-0.189	-0.115
-432.676	-200.000	0.044	0.482
-431.661	-200.000	0.027	-0.149
-430.646	-200.000	0.002	-0.089
-429.632	261.290	0.037	0.063
-428.617	800.000	0.055	0.189
-427.603	-113.439	0.391	0.076
-426.588	-56.381	-0.156	0.068
-425.573	-154.096	0.122	-0.008
-424.559	124.773	0.122	-0.152
-423.544	-8.909	0.076	-0.050
-422.530	-1.092	0.332	-0.232
-421.515	-200.000	0.025	-0.253
-420.500	-25.371	-0.140	0.082
-419.486	-23.921	-0.180	-0.106
-418.471	-166.478	0.217	0.009
-417.457	-200.000	-0.025	-0.285
-416.442	-200.000	0.044	0.292
-415.428	-77.637	0.350	0.119
-414.413	-116.601	-0.151	-0.027
-413.398	-200.000	0.051	0.322
-412.384	-200.000	-0.031	0.174
-411.369	95.419	-0.132	0.148
-410.355	-200.000	0.029	0.140
-409.340	-98.658	0.405	-0.102
-408.325	-68.355	0.115	-0.044
-407.311	800.000	-0.031	0.092
-406.296	53.127	-0.155	0.146
-405.282	31.437	0.277	0.235
-404.267	81.921	0.088	0.094
-403.252	-99.437	-0.181	-0.045
-402.238	7.222	-0.190	-0.140
-401.223	800.000	-0.037	-0.150
-400.209	657.255	-0.136	-0.344
-399.194	-200.000	0.003	0.046
-398.179	-200.000	0.045	-0.363
-397.165	-128.918	0.182	-0.025
-396.150	319.864	0.078	0.146
-395.136	-131.497	-0.145	0.019
-394.121	265.884	-0.079	0.136
-393.106	30.973	0.217	-0.183
-392.092	13.716	0.168	0.128
-391.077	344.197	-0.122	-0.237
-390.063	800.000	0.107	-0.304
-389.048	-200.000	0.004	0.031
-388.033	112.845	0.117	0.139
-387.019	-77.696	-0.499	0.170
-386.004	-76.623	-0.236	0.082
-384.990	-142.863	0.214	-0.021
-383.975	-97.549	-0.121	0.031
-382.960	684.807	-0.035	0.090
-381.946	-171.233	-0.249	-0.008
-380.931	344.813	0.101	0.196
-379.917	273.996	0.098	0.170
-378.902	-4.532	-0.082	-0.056
-377.888	-200.000	-0.029	0.405
-376.873	-152.619	0.042	0.003
-375.858	43.846	0.144	0.129
-374.844	800.000	0.094	-0.265
-373.829	-150.427	-0.336	-0.025
-372.815	213.732	0.166	-0.258
-371.800	6.628	0.174	-0.128
-370.785	-132.630	-0.444	-0.056
-369.771	248.337	-0.067	0.112
-368.756	108.609	0.156	-0.183
-367.742	-200.000	-0.058	0.413
-366.727	135.794	0.099	0.127
-365.712	566.672	-0.086	0.205
-364.698	800.000	-0.023	-0.089
-363.683	-200.000	-0.019	-0.358
-362.669	289.744	0.095	-0.170
-361.654	800.000	0.046	-0.188
-360.639	230.909	0.144	-0.233
-359.625	202.961	-0.129	-0.196
-358.610	29.801	0.123	-0.103
-357.596	12.140	-0.185	0.140
-356.581	-33.960	-0.411	0.222
-355.566	-103.334	0.176	-0.041
-354.552	18.510	-0.189	0.148
-353.537	145.868	0.053	0.069
-352.523	-200.000	0.011	-0.052
-351.508	35.960	0.044	0.038
-350.493	-200.000	-0.003	-0.036
-349.479	-3.204	0.149	0.102
-348.464	123.329	-0.129	-0.159
-347.450	-21.465	0.221	-0.132
-346.435	-131.015	-0.744	0.098
-345.420	694.066	0.048	0.125
-344.406	29.044	0.213	-0.177
-343.391	-91.598	-0.124	0.035
-342.377	646.238	0.096	0.242
-341.362	46.932	0.180	0.165
-340.348	-84.323	-0.197	-0.061
-339.333	-105.392	-0.155	0.035
-338.318	-93.207	0.269	-0.073
-337.304	-102.570	0.177	-0.042
-336.289	284.759	0.170	0.301
-335.275	20.665	0.223	-0.177
-334.260	-83.311	0.195	-0.061
-333.245	-9.367	0.386	-0.254
-332.231	101.961	0.044	-0.050
-331.216	800.000	-0.075	0.260
-330.202	800.000	0.017	-0.067
-329.187	-200.000	0.013	-0.116
-328.172	-200.000	-0.034	0.201
-327.158	87.374	0.118	-0.128
-326.143	800.000	0.075	-0.242
-325.129	576.716	0.098	-0.235
-324.114	-200.000	0.058	0.415
-323.099	-130.255	0.263	-0.035
-322.085	49.615	-0.150	-0.139
-321.070	-52.204	0.174	-0.079
-320.056	770.875	-0.222	-0.595
-319.041	743.910	0.089	0.236
-318.026	85.819	0.181	0.195
-317.012	124.679	0.182	0.225
-315.997	-118.413	-0.353	-0.062
-314.983	-200.000	-0.040	-0.199
-313.968	800.000	-0.081	-0.221
-312.953	-127.608	-0.108	0.015
-311.939	208.597	-0.067	-0.104
-310.924	-119.080	0.402	0.069
-309.910	-200.000	-0.001	-0.264
-308.895	-86.768	0.366	-0.110
-307.880	-52.655	-0.140	0.063
-306.866	-109.340	-0.233	0.048
-305.851	289.716	0.262	-0.467
-304.837	800.000	0.013	0.041
-303.822	-200.000	0.017	0.128
-302.807	355.511	-0.112	-0.219
-301.793	-200.000	0.011	0.122
-300.778	-85.813	-0.390	-0.119
-299.764	-200.000	0.078	-0.457
-298.749	25.278	0.134	0.109
-297.735	448.569	0.129	0.279
-296.720	-140.739	-0.213	-0.022
-295.705	-200.000	-0.017	0.146
-294.691	200.376	-0.203	0.306
-293.676	415.189	0.183	-0.382
-292.662	-77.627	0.372	-0.126
-291.647	-151.349	-0.060	0.004
-290.632	93.766	-0.143	-0.159
-289.618	-40.148	-0.332	0.170
-288.603	-91.208	-0.115	0.032
-287.589	-48.366	0.282	-0.134
-286.574	10.963	0.111	-0.083
-285.559	-88.312	-0.215	-0.063
-284.545	453.204	-0.041	-0.089
-283.530	472.037	0.187	-0.412
-282.516	-94.937	0.072	0.019
-281.501	93.547	-0.233	0.259
-280.486	-84.291	-0.079	0.025
-279.472	334.194	0.093	0.177
-278.457	76.457	0.184	-0.191
-277.443	-150.720	-0.241	-0.018
-276.428	-200.000	-0.029	0.380
-275.413	-107.651	0.232	0.050
-274.399	9.646	0.160	-0.119
-273.384	82.486	-0.086	0.091
-272.370	-29.220	0.202	0.113
-271.355	-130.265	-0.325	-0.043
-270.340	-80.902	-0.400	0.130
-269.326	353.091	-0.139	0.270
-268.311	800.000	0.055	0.209
-267.297	-200.000	0.001	-0.173
-266.282	-3.005	0.131	-0.089
-265.267	-93.266	-0.164	-0.045
-264.253	-157.613	0.204	0.012
-263.238	54.183	0.152	0.143
-262.224	800.000	0.083	-0.279
-261.209	507.064	-0.128	-0.291
-260.195	9.818	-0.103	0.077
-259.180	-200.000	-0.006	-0.222
-258.165	-155.428	0.259	-0.016
-257.151	-200.000	0.004	-0.206
-256.136	800.000	-0.027	0.086
-255.122	-41.879	0.332	0.167
-254.107	188.308	-0.232	-0.340
-253.092	-17.843	0.102	0.063
-252.078	-200.000	-0.007	-0.179
-251.063	130.523	-0.011	-0.014
-250.049	-200.000	0.081	0.427
-249.034	109.331	-0.181	0.212
-248.019	215.664	-0.020	0.031
-247.005	-147.220	0.289	0.024
-245.990	-124.812	0.166	0.025
-244.976	-200.000	-0.009	0.114
-243.961	-32.336	0.225	-0.123
-242.946	-85.604	-0.268	-0.081
-241.932	-200.000	-0.002	-0.103
-240.917	49.289	0.377	-0.347
-239.903	-56.424	0.089	-0.039
-238.888	800.000	0.054	-0.229
-237.873	588.844	-0.077	-0.186
-236.859	-97.499	0.177	0.045
-235.844	99.366	-0.206	-0.233
-234.830	-200.000	0.031	0.235
-233.815	6.032	0.240	0.174
-232.800	147.500	0.048	-0.063
-231.786	470.124	-0.125	0.275
-230.771	698.365	-0.086	-0.222
-229.757	-200.000	-0.032	0.201
-228.742	102.127	-0.191	0.218
-227.727	800.000	0.086	-0.296
-226.713	124.723	-0.247	-0.304
-225.698	-200.000	0.010	-0.178
-224.684	-200.000	0.002	-0.259
-223.669	-39.866	0.224	-0.114
-222.655	342.511	0.101	0.194
-221.640	-166.207	0.267	0.011
-220.625	-49.903	0.094	0.044
-219.611	-58.683	-0.248	0.105
-218.596	239.582	-0.105	0.171
-217.582	-76.085	-0.176	-0.061
-216.567	-200.000	-0.026	-0.148
-215.552	-200.000	0.030	-0.201
-214.538	-53.620	-0.083	-0.037
-213.523	-85.040	0.280	-0.086
-212.509	120.519	0.186	-0.226
-211.494	-200.000	-0.047	0.239
-210.479	143.647	0.093	-0.121
-209.465	36.664	-0.183	-0.159
-208.450	-1.804	0.179	0.123
-207.436	-10.621	0.111	-0.072
-206.421	-26.475	0.096	-0.055
-205.406	146.326	0.126	0.165
-204.392	-125.082	-0.156	-0.023
-203.377	800.000	-0.047	0.189
-202.363	48.837	-0.183	0.168
-201.348	135.225	0.202	-0.257
-200.333	10.210	-0.044	-0.033
-199.319	-154.205	0.111	-0.007
-198.304	-200.000	0.043	-0.192
-197.290	-200.000	0.001	-0.010
-196.275	-20.095	0.091	0.055
-195.260	-200.000	-0.023	0.272
-194.246	-200.000	0.041	-0.196
-193.231	-200.000	-0.051	0.343
-192.217	263.909	-0.039	0.066
-191.202	31.861	-0.227	0.191
-190.187	-182.468	-0.246	0.004
-189.173	800.000	-0.069	0.232
-188.158	122.758	-0.188	0.231
-187.144	-200.000	-0.007	0.063
-186.129	-39.819	-0.161	0.082
-185.114	-131.084	-0.133	0.017
-184.100	-152.998	-0.034	0.002
-183.085	-200.000	0.023	-0.159
-182.071	352.213	-0.117	0.227
-181.056	189.313	-0.094	-0.137
-180.042	28.051	0.300	-0.248
-179.027	-125.892	-0.184	-0.027
-178.012	331.763	0.055	0.103
-176.998	-58.860	0.586	0.248
-175.983	-8.094	-0.194	-0.128
-174.969	-200.000	-0.027	0.200
-173.954	517.929	0.059	-0.134
-172.939	-162.593	-0.112	0.005
-171.925	-58.194	0.396	0.168
-170.910	142.309	-0.174	0.226
-169.896	17.677	-0.229	0.178
-168.881	-200.000	0.045	-0.191
-167.866	-121.098	0.459	-0.075
-166.852	5.227	-0.161	-0.116
-165.837	-200.000	-0.023	-0.205
-164.823	372.359	0.167	-0.332
-163.808	-106.777	-0.093	0.020
-162.793	-200.000	0.079	0.398
-161.779	800.000	-0.073	-0.198
-160.764	264.971	-0.213	-0.363
-159.750	800.000	-0.093	-0.349
-158.735	-200.000	0.020	0.380
-157.720	-23.679	-0.083	-0.049
-156.706	-55.617	-0.236	-0.103
-155.691	-41.822	0.172	-0.086
-154.677	-148.910	0.108	0.009
-153.662	44.884	0.235	0.212
-152.647	194.942	-0.368	0.546
-151.633	800.000	-0.042	-0.119
-150.618	118.188	-0.158	-0.190
-149.604	800.000	0.128	0.390
-148.589	-200.000	0.000	0.451
-147.574	-111.810	0.202	0.040
-146.560	-31.463	0.196	-0.108
-145.545	-19.041	0.124	0.075
-144.531	139.356	-0.258	-0.332
-143.516	-200.000	0.030	-0.142
-142.502	259.362	0.096	0.162
-141.487	-200.000	-0.047	0.232
-140.472	-17.641	0.032	0.019
-139.458	540.682	0.090	-0.209
-138.443	289.803	-0.050	-0.088
-137.429	152.726	0.022	0.030
-136.414	-56.097	-0.114	-0.049
-135.399	58.408	0.210	0.201
-134.385	-123.191	0.227	0.036
-133.370	-60.337	0.186	-0.077
-132.356	800.000	0.074	-0.256
-131.341	800.000	0.042	-0.169
-130.326	-70.058	0.495	0.184
-129.312	800.000	0.055	-0.206
-128.297	-125.582	0.284	0.042
-127.283	-121.516	-0.235	-0.038
-126.268	-200.000	-0.002	-0.097
-125.253	-200.000	-0.033	0.178
-124.239	23.846	0.400	-0.321
-123.224	-90.874	-0.242	0.068
-122.210	145.383	0.114	0.148
-121.195	579.036	0.115	0.275
-120.180	337.439	-0.082	0.156
-119.166	-65.615	0.070	-0.027
-118.151	-49.267	0.245	0.114
-117.137	-77.802	-0.102	-0.034
-116.122	5.713	0.124	-0.089
-115.107	800.000	-0.123	0.407
-114.093	-101.209	-0.067	0.016
-113.078	-136.477	0.373	0.042
-112.064	-200.000	0.366	0.000
-111.049	284.457	0.095	0.166
-110.034	-35.912	0.141	-0.074
-109.020	-59.222	0.205	-0.086
-108.005	-120.813	0.191	0.031
-106.991	-115.105	-0.173	0.032
-105.976	39.563	0.061	0.053
-104.962	800.000	0.048	0.196
-103.947	339.905	0.081	0.153
-102.932	-33.195	0.266	-0.144
-101.918	-84.668	0.050	-0.015
-100.903	-200.000	0.013	-0.090
-99.889	-97.614	0.045	0.011
-98.874	36.054	-0.267	0.229
-97.859	105.129	-0.067	0.077
-96.845	211.658	-0.102	0.157
-95.830	446.025	-0.183	0.393
-94.816	753.332	0.107	0.282
-93.801	-200.000	0.021	0.147
-92.786	-70.916	0.177	-0.065
-91.772	-200.000	-0.057	-0.264
-90.757	553.709	0.050	-0.117
-89.743	-9.668	-0.341	0.221
-88.728	-200.000	0.010	-0.130
-87.713	-200.000	0.004	-0.216
-86.699	26.840	0.227	0.185
-85.684	-5.602	-0.239	0.160
-84.670	33.899	0.144	-0.122
-83.655	178.053	-0.086	-0.123
-82.640	-105.813	0.184	-0.041
-81.626	-200.000	0.036	-0.209
-80.611	272.255	-0.077	-0.132
-79.597	194.291	-0.058	0.086
-78.582	152.534	0.179	0.238
-77.567	-76.494	0.190	-0.065
-76.553	-48.833	-0.448	-0.209
-75.538	433.728	-0.026	0.055
-74.524	620.508	-0.103	0.253
-73.509	800.000	0.142	0.455
-72.494	800.000	0.028	0.118
-71.480	-200.000	-0.008	0.108
-70.465	-108.947	0.307	-0.064
-69.451	-5.648	0.075	0.050
-68.436	221.500	0.184	-0.288
-67.422	-118.575	0.278	0.048
-66.407	-109.162	-0.181	0.038
-65.392	111.326	-0.040	-0.047
-64.378	-200.000	0.001	-0.109
-63.363	-47.201	0.067	0.032
-62.349	-200.000	-0.004	0.413
-61.334	96.695	-1.071	-1.193
-60.319	162.535	0.599	0.818
-59.305	-200.000	-0.375	-1.617
-58.290	160.777	0.945	1.284
-57.276	485.670	0.549	1.216
-56.261	-200.000	135.315	681.383
-55.246	340.155	1677.035	3181.925
-54.232	134.603	2803.880	3537.975
-53.217	87.152	2196.785	2361.346
-52.203	31.040	1712.606	1427.843
-51.188	23.830	1536.226	1231.012
-50.173	22.177	1514.356	1202.145
-49.159	46.457	1590.503	1434.437
-48.144	42.965	1600.489	1418.838
-47.130	23.911	1548.823	1241.470
-46.115	21.102	1533.318	1209.551
-45.100	20.926	1529.479	1205.261
-44.086	20.909	1527.621	1203.630
-43.071	20.784	1526.246	1201.641
-42.057	20.892	1524.259	1200.771
-41.042	20.812	1523.264	1199.383
-40.027	20.845	1521.466	1198.152
-39.013	20.867	1519.382	1196.615
-37.998	20.765	1518.567	1195.225
-36.984	20.736	1517.304	1193.984
-35.969	20.819	1516.285	1193.702
-34.954	20.752	1514.676	1191.929
-33.940	20.744	1513.462	1190.870
-32.925	20.750	1512.306	1189.959
-31.911	20.870	1510.736	1189.493
-30.896	20.869	1509.030	1188.097
-29.881	20.867	1508.310	1187.472
-28.867	20.825	1507.144	1186.219
-27.852	20.821	1505.502	1184.852
-26.838	20.836	1504.258	1183.929
-25.823	20.951	1501.922	1182.824
-24.809	21.021	1500.983	1182.507
-23.794	20.861	1499.783	1180.433
-22.779	20.923	1498.445	1179.756
-21.765	20.919	1497.311	1178.786
-20.750	20.870	1496.482	1177.758
-19.736	21.020	1494.878	1177.457
-18.721	20.994	1494.059	1176.593
-17.706	20.932	1492.973	1175.271
-16.692	20.966	1491.960	1174.654
-15.677	20.863	1491.253	1173.357
-14.663	20.940	1490.058	1172.888
-13.648	20.856	1489.325	1171.704
-12.633	20.807	1488.464	1170.653
-11.619	20.807	1487.372	1169.742
-10.604	20.922	1485.876	1169.294
-9.590	20.865	1485.133	1168.283
-8.575	20.896	1484.568	1167.998
-7.560	20.856	1483.839	1167.108
-6.546	20.834	1483.148	1166.369
-5.531	20.825	1482.271	1165.573
-4.517	20.803	1480.864	1164.278
-3.502	20.867	1479.827	1163.846
-2.487	20.846	1478.943	1162.960
-1.473	20.824	1477.891	1161.944
-0.458	20.883	1476.034	1160.824
0.556	19.862	1466.575	1149.164
1.571	16.709	1442.647	1109.685
2.586	13.340	1379.927	1040.193
3.600	11.746	1294.104	966.007
4.615	10.920	1250.177	928.421
5.629	9.728	1193.120	879.470
6.644	5.121	1112.611	796.582
7.659	1.290	1078.152	752.864
8.673	0.769	1072.702	746.422
9.688	0.585	1069.537	743.247
10.702	0.641	1067.860	742.293
11.717	0.645	1065.529	740.624
12.731	2.175	1065.994	748.384
13.746	7.706	1073.309	780.673
14.761	14.105	1081.353	818.027
15.775	16.947	1085.036	834.746
16.790	16.925	1083.793	833.607
17.804	16.048	1081.858	827.744
18.819	15.082	1080.096	821.583
19.834	14.724	1078.492	818.537
20.848	14.453	1077.746	816.569
21.863	14.236	1076.846	814.752
22.877	13.948	1076.527	813.029
23.892	13.770	1075.074	810.988
24.907	13.660	1074.663	810.072
25.921	13.730	1073.698	809.611
26.936	13.658	1073.542	809.075
27.950	13.645	1072.587	808.217
28.965	13.818	1071.847	808.432
29.980	13.884	1070.435	807.618
30.994	13.961	1069.435	807.166
32.009	13.982	1068.924	806.810
33.023	13.885	1068.075	805.626
34.038	14.000	1067.063	805.348
35.053	13.931	1066.462	804.488
36.067	13.852	1065.790	803.530
37.082	13.736	1065.051	802.341
38.096	13.825	1064.222	802.074
39.111	13.924	1063.069	801.612
40.126	13.962	1062.376	801.201
41.140	13.804	1061.389	799.626
42.155	13.679	1060.483	798.273
43.169	13.777	1059.272	797.759
44.184	13.726	1058.327	796.733
45.199	13.771	1057.147	795.989
46.213	13.841	1055.858	795.285
47.228	13.864	1054.768	794.502
48.242	13.809	1054.166	793.718
49.257	13.829	1053.414	793.176
50.271	13.889	1051.740	792.129
51.286	13.797	1051.125	791.157
52.301	13.774	1050.919	790.826
53.315	13.860	1050.000	790.474
54.330	13.792	1048.950	789.287
55.344	13.783	1048.004	788.462
56.359	13.652	1047.425	787.338
57.374	13.791	1046.511	787.242
58.388	13.897	1045.005	786.539
59.403	13.749	1044.723	785.556
60.417	13.807	1043.946	785.176
61.432	13.734	1043.337	784.306
62.447	13.632	1042.887	783.413
63.461	13.624	1041.538	782.294
64.476	13.641	1040.660	781.646
65.490	13.740	1039.748	781.360
66.505	13.655	1039.041	780.359
67.520	13.773	1037.759	779.881
68.534	13.664	1037.703	779.257
69.549	13.788	1036.596	778.938
70.563	13.778	1036.032	778.401
71.578	13.800	1035.252	777.846
72.593	13.733	1034.576	776.958
73.607	13.742	1033.070	775.798
74.622	13.646	1032.245	774.663
75.636	13.708	1031.361	774.222
76.651	13.678	1031.021	773.755
77.666	13.697	1029.915	772.946
78.680	13.584	1029.282	771.879
79.695	13.709	1028.433	771.752
80.709	13.804	1027.618	771.515
81.724	13.730	1027.323	770.882
82.739	13.766	1026.309	770.219
83.753	13.874	1025.380	769.956
84.768	13.766	1024.608	768.808
85.782	13.998	1023.496	768.977
86.797	13.825	1023.639	768.219
87.812	13.760	1022.352	766.883
88.826	13.778	1021.431	766.209
89.841	13.763	1020.572	765.424
90.855	13.840	1019.743	765.091
91.870	13.839	1018.908	764.392
92.884	13.929	1018.207	764.214
93.899	13.951	1017.532	763.740
94.914	13.932	1016.807	763.040
95.928	14.085	1016.134	763.169
96.943	13.864	1015.296	761.461
97.957	13.883	1014.599	760.956
98.972	13.917	1013.142	759.954
99.987	13.838	1013.056	759.458
101.001	13.875	1011.919	758.709
102.016	13.886	1011.284	758.217
103.030	13.848	1010.287	757.230
104.045	13.919	1009.662	757.017
105.060	13.996	1008.121	756.146
106.074	13.924	1007.131	755.006
107.089	13.816	1006.786	754.191
108.103	13.789	1005.845	753.297
109.118	13.860	1004.849	752.806
110.133	13.803	1004.040	751.874
111.147	13.767	1003.024	750.887
112.162	13.655	1002.615	750.006
113.176	13.872	1001.197	749.859
114.191	13.800	1000.610	749.030
115.206	13.885	999.531	748.536
116.220	13.884	998.653	747.807
117.235	13.863	997.856	747.051
118.249	13.932	996.854	746.546
119.264	13.807	996.412	745.585
120.279	13.898	995.161	744.992
121.293	13.665	994.904	743.691
122.308	13.768	993.949	743.372
123.322	13.830	992.946	742.835
124.337	13.805	991.677	741.708
125.352	13.697	990.661	740.398
126.366	13.755	989.506	739.729
127.381	13.833	988.156	739.004
128.395	13.771	987.488	738.162
129.410	13.792	986.582	737.511
130.424	13.793	985.901	736.943
131.439	13.748	984.571	735.684
132.454	13.774	983.970	735.283
133.468	13.849	982.749	734.639
134.483	13.845	982.479	734.354
135.497	13.890	981.493	733.749
136.512	13.820	980.657	732.753
137.527	13.847	980.163	732.437
138.541	13.812	979.592	731.791
139.556	13.835	978.815	731.247
140.570	13.847	978.166	730.753
141.585	13.913	976.872	730.008
142.600	13.948	976.663	729.944
143.614	13.988	975.834	729.433
144.629	14.010	975.156	728.957
145.643	13.996	974.513	728.352
146.658	14.000	973.550	727.584
147.673	13.967	972.219	726.385
148.687	14.021	971.121	725.733
149.702	13.928	970.817	725.035
150.716	13.963	969.461	724.113
151.731	13.974	968.931	723.698
152.746	13.907	968.218	722.813
153.760	14.002	967.232	722.425
154.775	14.041	966.646	722.093
155.789	14.127	965.219	721.336
156.804	14.073	964.910	720.807
157.819	14.079	964.279	720.296
158.833	14.075	963.470	719.612
159.848	14.118	963.015	719.397
160.862	14.376	961.814	719.548
161.877	14.209	961.117	718.242
162.892	14.185	960.389	717.530
163.906	14.060	959.582	716.329
164.921	14.178	958.345	715.847
165.935	14.244	957.538	715.465
166.950	14.046	956.652	713.891
167.964	14.169	955.854	713.761
168.979	14.074	955.068	712.701
169.994	14.227	953.824	712.363
171.008	14.202	953.078	711.636
172.023	14.310	951.848	711.119
173.037	14.257	951.767	710.769
174.052	14.255	950.694	709.895
175.067	14.219	950.199	709.312
176.081	14.360	949.076	709.010
177.096	14.155	948.376	707.553
178.110	14.142	947.609	706.862
179.125	14.299	946.658	706.754
180.140	14.196	946.054	705.807
181.154	14.375	945.111	705.797
182.169	14.410	944.558	705.470
183.183	14.340	943.872	704.599
184.198	14.315	943.260	703.974
185.213	14.454	942.543	703.966
186.227	14.305	942.392	703.159
187.242	14.526	941.461	703.335
188.256	14.522	940.703	702.690
189.271	14.459	940.147	701.949
190.286	14.457	939.270	701.220
191.300	14.364	938.361	700.091
192.315	14.282	937.845	699.299
193.329	14.222	937.345	698.613
194.344	14.348	936.474	698.430
195.359	14.289	935.824	697.635
196.373	14.415	935.240	697.668
197.388	14.485	934.640	697.452
198.402	14.579	934.216	697.464
199.417	14.650	933.865	697.437
200.432	14.615	933.493	696.954
201.446	14.558	933.089	696.351
202.461	14.672	932.777	696.531
203.475	14.781	931.862	696.243
204.490	14.776	930.971	695.495
205.504	14.618	930.817	694.658
206.519	14.659	929.722	693.951
207.534	14.670	928.728	693.195
208.548	14.653	928.232	692.689
209.563	14.668	927.566	692.194
210.577	14.688	926.612	691.506
211.592	14.779	925.997	691.362
212.607	14.743	925.762	690.976
213.621	14.858	924.642	690.553
214.636	14.913	923.766	690.067
215.650	14.871	923.442	689.588
216.665	14.858	922.778	688.978
217.680	14.910	922.484	688.913
218.694	14.898	921.844	688.325
219.709	15.035	921.094	688.265
220.723	14.936	920.611	687.436
221.738	14.853	920.035	686.608
222.753	14.964	919.006	686.232
223.767	14.944	918.326	685.582
224.782	14.910	917.308	684.623
225.796	14.915	916.866	684.252
226.811	15.036	916.014	684.051
227.826	15.076	915.597	683.840
228.840	14.980	914.948	682.904
229.855	15.015	913.914	682.215
230.869	14.994	913.549	681.796
231.884	14.936	912.963	681.063
232.899	14.969	911.755	680.236
233.913	15.063	910.964	679.966
234.928	15.104	910.562	679.772
235.942	15.025	910.246	679.155
236.957	14.933	909.406	678.099
237.972	14.987	908.830	677.827
238.986	15.008	908.221	677.396
240.001	14.959	907.873	676.880
241.015	15.160	906.266	676.435
242.030	15.071	906.141	675.922
243.045	15.232	904.621	675.376
244.059	15.140	904.513	674.867
245.074	15.193	903.985	674.623
246.088	15.230	902.990	673.970
247.103	15.199	902.649	673.533
248.117	15.146	902.273	672.981
249.132	15.273	901.271	672.682
250.147	15.229	900.714	672.029
251.161	15.498	899.660	672.260
252.176	15.441	899.189	671.624
253.190	15.378	898.461	670.766
254.205	15.382	898.326	670.623
255.220	15.463	897.597	670.342
256.234	15.490	896.631	669.670
257.249	15.527	896.004	669.291
258.263	15.536	895.680	669.025
259.278	15.681	894.832	668.908
260.293	15.542	894.591	668.116
261.307	15.531	894.313	667.805
262.322	15.536	893.413	667.093
263.336	15.671	892.688	667.030
264.351	15.665	892.234	666.607
265.366	15.674	891.391	665.956
266.380	15.740	890.674	665.622
267.395	15.727	889.994	665.005
268.409	15.701	889.169	664.225
269.424	15.692	888.714	663.793
270.439	15.657	887.919	663.000
271.453	15.754	886.982	662.624
272.468	15.669	886.260	661.692
273.482	15.630	885.848	661.172
274.497	15.575	885.653	660.750
275.512	15.749	884.394	660.436
276.526	15.675	883.663	659.542
277.541	15.799	883.068	659.528
278.555	15.728	882.580	658.824
279.570	15.752	882.119	658.519
280.585	15.892	881.152	658.285
281.599	15.907	880.653	657.912
282.614	15.781	880.242	657.055
283.628	15.880	879.523	656.846
284.643	15.922	878.844	656.443
285.657	15.908	878.708	656.231
286.672	15.876	877.877	655.428
287.687	15.953	877.284	655.225
288.701	15.875	876.985	654.642
289.716	15.974	876.259	654.427
290.730	15.986	875.475	653.829
291.745	16.113	874.761	653.729
292.760	16.217	874.185	653.644
293.774	16.037	873.487	652.367
294.789	16.078	872.901	652.030
295.803	16.104	872.221	651.569
296.818	16.053	872.128	651.243
297.833	16.231	871.092	651.097
298.847	16.175	870.345	650.268
299.862	16.182	869.721	649.771
300.876	16.059	869.175	648.830
301.891	16.111	868.225	648.264
302.906	16.229	867.308	647.975
303.920	16.382	867.110	648.359
304.935	16.347	866.168	647.463
305.949	16.340	865.606	646.956
306.964	16.446	864.974	646.834
307.979	16.362	864.791	646.320
308.993	16.353	864.120	645.726
310.008	16.448	863.654	645.681
311.022	16.376	862.825	644.731
312.037	16.469	862.398	644.708
313.052	16.306	862.198	643.881
314.066	16.360	861.331	643.381
315.081	16.294	860.775	642.659
316.095	16.395	859.968	642.384
317.110	16.571	859.300	642.495
318.125	16.498	858.896	641.861
319.139	16.555	858.345	641.610
320.154	16.414	857.892	640.678
321.168	16.513	857.517	640.716
322.183	16.586	856.629	640.274
323.197	16.445	856.456	639.554
324.212	16.589	855.531	639.349
325.227	16.587	855.258	639.081
326.241	16.398	854.932	638.070
327.256	16.461	854.223	637.722
328.270	16.680	853.061	637.621
329.285	16.427	853.023	636.582
330.300	16.471	852.194	636.073
331.314	16.499	851.904	635.905
332.329	16.453	851.503	635.379
333.343	16.570	850.463	634.983
334.358	16.607	850.104	634.799
335.373	16.603	849.500	634.276
336.387	16.606	848.904	633.789
337.402	16.739	848.350	633.815
338.416	16.658	847.768	633.022
339.431	16.789	847.181	633.018
340.446	16.691	846.467	632.061
341.460	16.766	845.778	631.770
342.475	16.925	845.370	632.003
343.489	16.897	845.001	631.566
344.504	16.904	844.111	630.873
345.519	16.906	843.588	630.432
346.533	16.973	843.197	630.332
347.548	16.978	842.865	630.049
348.562	16.978	842.052	629.385
349.577	17.026	841.572	629.148
350.592	16.946	840.891	628.286
351.606	16.974	840.387	627.958
352.621	16.757	840.433	627.135
353.635	16.876	839.942	627.153
354.650	17.030	839.326	627.206
355.665	17.008	838.939	626.779
356.679	17.007	838.385	626.308
357.694	16.994	838.078	625.975
358.708	16.971	837.219	625.194
359.723	17.052	836.644	625.005
360.738	17.090	836.053	624.651
361.752	16.944	835.785	623.855
362.767	17.135	835.287	624.130
363.781	17.087	834.703	623.465
364.796	17.223	834.445	623.714
365.810	17.201	834.091	623.313
366.825	17.264	833.635	623.151
367.840	17.304	833.383	623.055
368.854	17.330	832.664	622.557
369.869	17.154	832.580	621.794
370.883	17.199	832.101	621.546
371.898	17.140	831.261	620.646
372.913	17.353	830.507	620.806
373.927	17.470	829.805	620.654
374.942	17.454	829.342	620.194
375.956	17.212	828.974	618.982
376.971	17.448	828.105	619.137
377.986	17.465	827.563	618.738
379.000	17.392	827.309	618.231
380.015	17.495	826.874	618.223
381.029	17.378	826.084	617.155
382.044	17.495	825.429	617.033
383.059	17.562	824.941	616.856
384.073	17.590	824.263	616.399
385.088	17.590	823.675	615.903
386.102	17.497	823.604	615.459
387.117	17.528	822.915	615.001
388.132	17.562	822.100	614.460
389.146	17.617	821.995	614.528
390.161	17.594	821.291	613.863
391.175	17.556	821.098	613.529
392.190	17.640	820.919	613.643
393.205	17.592	820.375	613.010
394.219	17.734	819.667	612.935
395.234	17.662	819.191	612.267
396.248	17.775	818.325	611.970
397.263	17.747	818.292	611.792
398.278	17.562	817.951	610.820
399.292	17.554	817.513	610.408
400.307	17.518	817.072	609.896
401.321	17.646	816.468	609.852
402.336	17.690	816.305	609.832
403.350	17.732	815.644	609.435
404.365	17.668	815.373	608.948
405.380	17.735	814.793	608.701
406.394	17.929	813.872	608.651
407.409	17.857	813.962	608.409
408.423	17.929	813.267	608.091
409.438	17.894	812.682	607.474
410.453	17.926	812.259	607.219
411.467	17.872	812.201	606.930
412.482	17.948	811.657	606.740
413.496	18.076	810.746	606.460
414.511	18.005	811.100	606.418
415.526	18.040	810.506	606.046
416.540	17.935	809.844	605.125
417.555	18.143	809.350	605.439
418.569	18.093	808.642	604.679
419.584	18.145	808.438	604.656
420.599	18.222	807.975	604.528
421.613	116.070	1299.788	1492.073
422.628	100.399	1371.380	1492.137
