DTS Sentinel unit serial number:	SN413079Multiplexer serial number:	ORYXHardware model number:	OX4-SRSoftware version number:	ORYX F/W v4.00 Oryx Data Collector v3.7.2.0data status	okinstallation	princeton_trtdifferential loss correction	single-endedforward channel	channel 3reverse channel	N/Adate	2019/09/17time	19:32:35forward acquisition time	60.00reverse acquisition time	0.00gamma	496.2192k internal	0.2311k external	0.2311temperature offset calibration	0.9952default loss term (dB/km)	0.3790temperature slope calibration	1.0000multiplexer offset coefficient	1.0000multiplexer slope coefficient	1.0000fibre end	0.00T internal ref (°C)	36.39T ext. ref 1 (°C)	0.26T ext. ref 2 (°C)	24.97length (m)	temperature (°C)	Stokes	anti-Stokes-747.200	25.192	0.369	0.311
-746.185	-30.323	-0.071	-0.041
-745.171	-200.000	0.029	-0.185
-744.156	279.528	-0.266	0.482
-743.142	-143.135	0.034	-0.003
-742.127	-200.000	0.002	0.221
-741.112	1.120	0.147	0.107
-740.098	-51.109	0.268	0.128
-739.083	256.845	-0.033	-0.058
-738.069	463.757	-0.104	0.236
-737.054	356.570	-0.085	0.173
-736.039	-135.428	-0.146	-0.018
-735.025	-152.488	-0.103	0.007
-734.010	-40.982	0.133	0.070
-732.996	115.417	-0.127	-0.158
-731.981	206.399	-0.203	-0.321
-730.966	112.719	-0.153	-0.188
-729.952	37.278	0.160	-0.144
-728.937	-52.889	0.207	0.097
-727.923	58.693	-0.057	-0.057
-726.908	-34.950	-0.263	-0.146
-725.894	17.777	0.122	-0.099
-724.879	800.000	0.194	-0.592
-723.864	73.058	0.193	-0.204
-722.850	-93.848	-0.151	0.042
-721.835	-200.000	-0.131	-0.000
-720.821	-109.168	-0.240	0.052
-719.806	-101.286	-0.037	-0.009
-718.791	-200.000	-0.064	-0.289
-717.777	163.981	-0.117	-0.167
-716.762	629.746	0.077	-0.197
-715.748	-200.000	-0.005	-0.226
-714.733	-108.757	-0.149	0.032
-713.718	688.038	0.025	0.067
-712.704	319.469	-0.112	0.216
-711.689	6.324	-0.171	-0.129
-710.675	26.330	-0.207	-0.175
-709.660	505.775	0.101	-0.237
-708.645	-200.000	-0.018	0.307
-707.631	800.000	0.086	-0.341
-706.616	166.299	-0.091	0.130
-705.602	-93.384	-0.102	-0.029
-704.587	128.089	-0.088	-0.113
-703.572	-200.000	-0.009	0.320
-702.558	-59.411	0.275	0.120
-701.543	-76.265	0.067	-0.024
-700.529	800.000	0.081	-0.299
-699.514	-101.173	0.304	0.075
-698.499	72.712	0.148	0.156
-697.485	-135.219	0.350	-0.043
-696.470	-133.721	0.257	0.033
-695.456	800.000	0.017	0.063
-694.441	-200.000	-0.052	-0.440
-693.426	-28.193	-0.146	-0.086
-692.412	-103.364	-0.151	-0.036
-691.397	-200.000	0.021	-0.388
-690.383	17.568	0.083	0.067
-689.368	-26.263	0.359	0.214
-688.354	800.000	0.040	0.161
-687.339	-141.778	-0.146	0.015
-686.324	304.182	0.197	0.370
-685.310	103.674	-0.188	0.223
-684.295	-31.640	-0.380	0.216
-683.281	31.108	-0.206	0.179
-682.266	190.215	-0.015	0.022
-681.251	-127.488	0.170	-0.025
-680.237	-57.164	-0.221	-0.099
-679.222	-148.132	0.260	0.022
-678.208	573.317	0.054	0.133
-677.193	-77.951	-0.223	-0.078
-676.178	112.948	0.088	0.108
-675.164	545.049	0.084	0.203
-674.149	-41.612	0.177	-0.092
-673.135	-142.526	0.248	-0.025
-672.120	-200.000	-0.002	-0.046
-671.105	800.000	-0.045	-0.144
-670.091	-99.810	0.541	-0.137
-669.076	-119.261	-0.169	-0.030
-668.062	-19.755	-0.079	-0.050
-667.047	800.000	0.092	-0.303
-666.032	66.564	-0.134	-0.138
-665.018	59.307	-0.161	-0.160
-664.003	-36.674	-0.266	0.145
-662.989	759.765	0.041	0.113
-661.974	407.288	0.058	-0.124
-660.959	417.849	0.155	0.335
-659.945	162.257	0.183	0.260
-658.930	25.142	0.067	0.057
-657.916	91.061	-0.136	0.155
-656.901	-77.185	-0.126	-0.045
-655.886	-139.432	-0.385	-0.042
-654.872	-7.492	-0.187	-0.128
-653.857	-200.000	-0.022	-0.304
-652.843	42.335	-0.294	-0.270
-651.828	474.290	-0.057	0.131
-650.814	390.537	-0.047	-0.099
-649.799	-186.371	-0.248	0.004
-648.784	-200.000	-0.000	0.163
-647.770	-200.000	-0.033	-0.194
-646.755	-50.011	-0.117	0.056
-645.741	-93.786	-0.155	-0.043
-644.726	-200.000	-0.002	-0.097
-643.711	4.569	-0.142	-0.106
-642.697	800.000	-0.084	0.271
-641.682	-200.000	-0.007	0.565
-640.668	-89.455	0.068	-0.020
-639.653	-44.211	-0.191	0.097
-638.638	-200.000	0.053	0.404
-637.624	69.940	-0.280	0.292
-636.609	-200.000	0.003	0.436
-635.595	30.085	0.096	-0.083
-634.580	317.168	0.089	0.171
-633.565	800.000	0.049	-0.212
-632.551	-41.747	-0.254	0.132
-631.536	-186.140	-0.214	0.003
-630.522	273.543	-0.158	0.283
-629.507	128.117	-0.051	0.065
-628.492	-32.056	-0.132	-0.075
-627.478	-121.819	0.191	0.032
-626.463	-23.754	0.134	-0.081
-625.449	117.601	0.114	-0.141
-624.434	-2.254	-0.026	-0.019
-623.419	-129.574	-0.208	0.029
-622.405	-200.000	0.006	-0.051
-621.390	-200.000	0.004	-0.050
-620.376	800.000	0.083	0.278
-619.361	-200.000	0.010	-0.154
-618.346	86.235	-0.056	-0.062
-617.332	667.014	-0.048	-0.124
-616.317	-131.160	0.139	-0.019
-615.303	204.704	0.095	0.149
-614.288	6.619	-0.162	0.122
-613.273	-103.008	-0.202	0.048
-612.259	89.339	-0.094	-0.106
-611.244	7.363	-0.134	0.101
-610.230	-180.751	0.259	-0.005
-609.215	-6.767	-0.104	-0.071
-608.201	320.212	-0.075	0.143
-607.186	-200.000	0.029	-0.225
-606.171	239.196	-0.182	-0.306
-605.157	800.000	-0.145	-0.623
-604.142	124.288	0.066	-0.083
-603.128	97.790	0.065	-0.076
-602.113	-200.000	-0.011	0.261
-601.098	-85.945	0.129	-0.040
-600.084	-52.515	-0.237	-0.111
-599.069	23.063	-0.219	-0.182
-598.055	324.797	-0.187	-0.362
-597.040	45.627	-0.163	0.152
-596.025	-20.519	-0.188	-0.116
-595.011	8.069	-0.263	-0.199
-593.996	221.939	0.056	-0.092
-592.982	-200.000	0.017	0.162
-591.967	279.443	-0.206	-0.371
-590.952	-25.948	0.267	-0.159
-589.938	71.204	-0.133	-0.139
-588.923	197.533	0.124	0.191
-587.909	-112.768	-0.130	-0.026
-586.894	254.132	0.226	0.390
-585.879	-69.224	0.183	0.071
-584.865	12.226	0.087	-0.068
-583.850	800.000	0.014	0.038
-582.836	-107.751	0.099	0.022
-581.821	-140.289	0.266	-0.028
-580.806	30.544	0.135	0.116
-579.792	83.283	-0.254	0.279
-578.777	-200.000	0.030	-0.167
-577.763	524.440	-0.135	0.320
-576.748	182.967	0.108	0.161
-575.733	800.000	-0.080	-0.321
-574.719	80.845	0.189	-0.205
-573.704	800.000	-0.055	-0.242
-572.690	50.985	-0.161	0.154
-571.675	345.267	-0.128	-0.253
-570.661	-71.037	0.128	0.049
-569.646	-200.000	-0.052	-0.237
-568.631	-200.000	-0.053	-0.479
-567.617	-192.669	0.128	0.001
-566.602	232.917	0.163	-0.270
-565.588	-125.617	0.055	0.008
-564.573	135.148	-0.079	-0.103
-563.558	-200.000	0.047	0.446
-562.544	16.766	0.138	-0.110
-561.529	800.000	0.034	-0.124
-560.515	-73.861	0.245	0.090
-559.500	-10.197	-0.185	-0.124
-558.485	463.735	-0.067	-0.151
-557.471	-200.000	-0.050	0.307
-556.456	30.093	-0.168	-0.144
-555.442	-178.268	-0.289	0.007
-554.427	-10.447	-0.323	-0.216
-553.412	-105.422	-0.134	-0.031
-552.398	444.584	-0.060	-0.132
-551.383	-37.667	-0.274	0.147
-550.369	-66.020	-0.173	0.069
-549.354	-200.000	-0.025	-0.441
-548.339	-200.000	-0.043	0.191
-547.325	-168.824	0.109	0.004
-546.310	54.834	0.174	0.170
-545.296	-115.892	-0.148	-0.028
-544.281	477.312	-0.087	-0.198
-543.266	800.000	0.042	-0.164
-542.252	65.660	-0.198	0.202
-541.237	25.622	-0.113	-0.095
-540.223	800.000	-0.071	0.237
-539.208	-48.753	-0.203	-0.098
-538.193	35.633	0.203	0.179
-537.179	250.750	0.163	-0.278
-536.164	151.029	0.180	-0.247
-535.150	57.131	-0.169	0.166
-534.135	-125.142	-0.284	-0.044
-533.121	1.085	-0.320	-0.231
-532.106	-80.156	0.078	-0.026
-531.091	800.000	0.022	-0.070
-530.077	-81.036	-0.189	-0.063
-529.062	30.395	-0.220	-0.189
-528.048	-69.084	-0.159	0.062
-527.033	-97.329	-0.071	0.019
-526.018	-50.344	0.200	-0.095
-525.004	0.544	-0.140	-0.101
-523.989	200.229	-0.048	0.075
-522.975	-34.188	0.139	-0.077
-521.960	-85.150	-0.027	0.009
-520.945	-54.143	-0.168	0.077
-519.931	27.174	-0.038	0.032
-518.916	674.874	0.056	0.145
-517.902	-66.560	-0.190	0.076
-516.887	-57.964	0.187	0.082
-515.872	-200.000	-0.051	-0.234
-514.858	24.967	-0.394	-0.329
-513.843	-95.681	0.276	0.074
-512.829	-5.403	-0.121	0.084
-511.814	393.387	0.011	-0.023
-510.799	-200.000	0.040	-0.410
-509.785	185.332	0.171	0.255
-508.770	800.000	-0.104	-0.390
-507.756	717.066	0.058	-0.154
-506.741	411.152	0.077	0.164
-505.726	-200.000	-0.017	-0.088
-504.712	-200.000	-0.000	-0.012
-503.697	713.975	0.106	0.283
-502.683	-200.000	-0.033	0.233
-501.668	-109.543	-0.385	-0.082
-500.653	130.662	0.126	0.163
-499.639	135.308	0.158	0.207
-498.624	-200.000	0.019	-0.224
-497.610	-140.938	0.402	-0.041
-496.595	130.006	-0.049	-0.063
-495.581	-45.689	-0.069	0.034
-494.566	-36.837	0.340	-0.183
-493.551	65.683	0.183	-0.187
-492.537	800.000	0.033	-0.109
-491.522	0.574	-0.232	-0.167
-490.508	25.741	-0.144	-0.121
-489.493	232.839	-0.053	-0.088
-488.478	147.835	-0.052	0.070
-487.464	-1.718	-0.161	-0.114
-486.449	450.668	-0.083	0.184
-485.435	-50.869	-0.231	-0.109
-484.420	-45.484	-0.235	0.117
-483.405	-200.000	-0.056	0.260
-482.391	101.252	0.141	-0.165
-481.376	-159.936	-0.211	0.012
-480.362	-200.000	0.010	-0.238
-479.347	-49.614	-0.074	-0.036
-478.332	-8.724	0.210	0.141
-477.318	-200.000	0.041	-0.254
-476.303	356.111	-0.071	-0.142
-475.289	800.000	0.079	-0.314
-474.274	-79.895	-0.121	0.041
-473.259	-200.000	-0.024	-0.207
-472.245	-34.071	-0.131	-0.073
-471.230	134.641	0.139	0.181
-470.216	139.026	0.115	0.152
-469.201	-63.928	-0.144	-0.059
-468.186	800.000	-0.014	0.052
-467.172	-93.133	0.073	0.021
-466.157	221.098	-0.032	0.052
-465.143	702.639	-0.055	0.145
-464.128	-25.717	0.108	0.064
-463.113	-181.752	-0.118	0.002
-462.099	-200.000	0.004	-0.092
-461.084	208.360	-0.161	0.253
-460.070	-55.670	0.251	-0.113
-459.055	56.971	0.052	0.051
-458.040	-200.000	-0.011	-0.176
-457.026	-135.095	0.056	0.007
-456.011	-166.818	-0.147	-0.006
-454.997	-200.000	0.003	0.080
-453.982	159.194	0.057	-0.080
-452.968	156.222	0.264	0.365
-451.953	-85.418	-0.360	-0.113
-450.938	-200.000	0.010	0.130
-449.924	-100.841	0.297	0.073
-448.909	-200.000	-0.017	0.263
-447.895	263.124	-0.060	-0.105
-446.880	99.570	-0.082	0.095
-445.865	253.363	0.061	0.104
-444.851	71.560	-0.128	-0.134
-443.836	800.000	0.066	-0.236
-442.822	-104.262	0.210	-0.049
-441.807	169.299	0.086	-0.123
-440.792	-200.000	-0.039	0.227
-439.778	-145.691	0.202	-0.018
-438.763	800.000	0.077	-0.263
-437.749	-156.148	-0.300	0.019
-436.734	-200.000	0.003	-0.210
-435.719	-200.000	-0.038	0.217
-434.705	183.686	-0.107	0.158
-433.690	800.000	0.098	0.314
-432.676	150.490	-0.040	0.054
-431.661	240.086	0.211	-0.353
-430.646	-200.000	0.039	-0.228
-429.632	-110.987	-0.161	0.033
-428.617	-142.275	0.170	-0.017
-427.603	655.097	-0.066	-0.170
-426.588	21.727	-0.121	0.099
-425.573	800.000	-0.114	-0.366
-424.559	-44.834	0.266	0.133
-423.544	800.000	0.065	0.181
-422.530	147.563	0.150	0.203
-421.515	-73.778	-0.148	0.054
-420.500	-17.814	-0.197	-0.124
-419.486	653.344	-0.091	0.235
-418.471	-200.000	0.025	-0.116
-417.457	759.176	0.056	0.153
-416.442	-7.081	-0.071	0.048
-415.428	-200.000	-0.052	-0.468
-414.413	-103.272	-0.327	0.077
-413.398	451.702	0.031	0.068
-412.384	-43.879	-0.147	0.074
-411.369	-200.000	0.032	0.268
-410.355	-17.767	0.097	-0.061
-409.340	109.918	0.308	-0.371
-408.325	134.737	0.269	0.350
-407.311	22.200	-0.287	0.235
-406.296	-156.096	-0.461	-0.029
-405.282	111.149	0.126	-0.153
-404.267	9.646	-0.326	0.248
-403.252	-100.692	-0.372	0.092
-402.238	106.387	-0.044	-0.052
-401.223	-107.676	0.016	-0.004
-400.209	-19.610	-0.031	-0.019
-399.194	-119.215	0.127	-0.022
-398.179	-200.000	-0.033	0.153
-397.165	-91.519	0.159	0.046
-396.150	-108.225	0.309	-0.067
-395.136	-26.992	-0.271	-0.158
-394.121	90.769	-0.235	-0.263
-393.106	12.885	0.175	-0.135
-392.092	32.408	-0.077	0.066
-391.077	204.831	-0.119	0.185
-390.063	800.000	0.077	0.223
-389.048	-98.157	0.216	-0.055
-388.033	-131.003	0.136	0.018
-387.019	-200.000	0.075	0.334
-386.004	303.565	0.035	0.065
-384.990	791.740	0.166	0.458
-383.975	-200.000	-0.018	0.368
-382.960	177.039	0.064	0.093
-381.946	-68.770	0.043	0.017
-380.931	415.081	-0.026	0.056
-379.917	71.326	0.109	0.114
-378.902	-85.749	0.277	0.086
-377.888	-200.000	0.077	0.373
-376.873	-31.715	-0.174	-0.098
-375.858	-200.000	-0.033	-0.167
-374.844	-112.526	0.413	0.082
-373.829	32.901	0.223	-0.193
-372.815	556.340	-0.091	-0.219
-371.800	-63.021	-0.129	-0.053
-370.785	-8.872	-0.030	0.020
-369.771	112.624	-0.214	0.260
-368.756	85.659	0.032	0.035
-367.742	122.569	0.154	0.193
-366.727	-26.552	0.244	-0.143
-365.712	118.262	-0.089	-0.110
-364.698	-200.000	0.001	-0.223
-363.683	-178.913	0.330	0.007
-362.669	-126.443	0.322	-0.048
-361.654	-120.356	-0.054	-0.009
-360.639	800.000	0.052	0.187
-359.625	-90.573	0.320	-0.093
-358.610	145.843	-0.185	0.249
-357.596	-129.323	-0.225	0.031
-356.581	-140.941	0.417	0.043
-355.566	800.000	0.071	0.242
-354.552	800.000	0.036	-0.111
-353.537	-114.285	-0.085	-0.016
-352.523	-21.120	0.305	0.187
-351.508	530.695	-0.048	0.113
-350.493	103.977	0.200	0.235
-349.479	-57.582	0.100	-0.044
-348.464	668.930	0.029	-0.076
-347.450	122.591	-0.180	0.225
-346.435	-101.417	0.113	-0.028
-345.420	-200.000	0.073	0.458
-344.406	-200.000	0.005	0.199
-343.391	-200.000	-0.022	0.249
-342.377	36.581	0.215	0.190
-341.362	-200.000	0.007	-0.104
-340.348	216.859	0.015	-0.023
-339.333	1.434	0.151	0.108
-338.318	40.458	-0.147	-0.132
-337.304	-85.751	0.307	0.095
-336.289	-131.659	-0.114	0.015
-335.275	290.258	-0.122	0.221
-334.260	-71.453	0.072	-0.027
-333.245	800.000	-0.089	-0.266
-332.231	-139.136	0.206	0.022
-331.216	-38.080	0.188	-0.100
-330.202	95.455	0.071	-0.081
-329.187	21.873	0.172	0.140
-328.172	-2.470	0.204	0.142
-327.158	40.149	-0.132	0.119
-326.143	111.552	-0.165	0.199
-325.129	24.454	0.155	-0.128
-324.114	119.226	0.040	-0.049
-323.099	147.330	-0.042	-0.056
-322.085	-103.909	-0.175	0.041
-321.070	800.000	-0.097	0.344
-320.056	-118.685	0.238	-0.042
-319.041	-170.929	-0.042	-0.001
-318.026	-200.000	0.022	0.236
-317.012	395.861	0.120	-0.251
-315.997	92.120	0.055	0.062
-314.983	29.234	-0.210	-0.178
-313.968	522.170	0.134	0.315
-312.953	317.634	0.150	-0.284
-311.939	-56.604	-0.070	-0.031
-310.924	186.269	0.145	0.215
-309.910	800.000	0.056	-0.196
-308.895	-141.000	0.128	0.013
-307.880	74.225	0.152	0.159
-306.866	216.132	0.054	-0.086
-305.851	-200.000	0.043	-0.272
-304.837	-200.000	-0.042	-0.263
-303.822	-83.181	0.146	-0.047
-302.807	-13.046	-0.458	-0.297
-301.793	754.780	0.057	-0.154
-300.778	800.000	-0.075	0.241
-299.764	80.969	0.279	0.300
-298.749	-200.000	0.021	-0.221
-297.735	-200.000	-0.044	-0.251
-296.720	345.440	-0.121	-0.237
-295.705	190.154	0.108	0.162
-294.691	37.222	0.310	-0.274
-293.676	-200.000	-0.013	-0.164
-292.662	-200.000	0.033	-0.244
-291.647	596.453	-0.121	0.298
-290.632	-200.000	0.047	-0.301
-289.618	800.000	-0.058	-0.219
-288.603	-200.000	0.008	0.095
-287.589	146.512	-0.054	0.072
-286.574	109.195	-0.094	-0.112
-285.559	104.012	0.166	-0.194
-284.545	24.828	0.101	0.084
-283.530	118.139	-0.130	0.160
-282.516	-131.025	0.114	0.015
-281.501	104.925	0.214	-0.252
-280.486	312.477	0.122	-0.228
-279.472	-156.554	0.263	-0.016
-278.457	800.000	0.048	-0.158
-277.443	133.302	-0.107	0.138
-276.428	-200.000	-0.062	0.272
-275.413	39.414	-0.250	-0.223
-274.399	-26.648	0.097	0.056
-273.384	-92.501	-0.409	0.115
-272.370	569.989	-0.120	-0.292
-271.355	800.000	-0.168	-0.625
-270.340	-74.651	-0.137	-0.049
-269.326	19.343	0.230	-0.184
-268.311	-200.000	0.015	-0.203
-267.297	-63.567	0.190	0.078
-266.282	-200.000	-0.038	0.316
-265.267	-112.437	0.095	0.019
-264.253	-200.000	-0.012	0.337
-263.238	539.443	-0.134	0.317
-262.224	407.493	-0.027	0.056
-261.209	-184.833	-0.047	0.001
-260.195	382.680	0.097	0.199
-259.180	9.299	0.153	0.115
-258.165	-46.566	0.306	-0.150
-257.151	-8.770	0.090	0.060
-256.136	-148.344	-0.239	-0.020
-255.122	-200.000	-0.027	-0.189
-254.107	4.705	0.264	-0.193
-253.092	800.000	-0.074	0.300
-252.078	-73.016	0.308	0.113
-251.063	800.000	0.056	0.198
-250.049	-200.000	-0.023	-0.185
-249.034	-62.872	0.120	-0.049
-248.019	-19.766	0.072	0.045
-247.005	313.768	0.061	0.115
-245.990	-22.291	0.109	0.066
-244.976	6.513	-0.289	-0.214
-243.961	-123.443	0.204	-0.032
-242.946	800.000	-0.110	-0.342
-241.932	-200.000	-0.054	-0.282
-240.917	20.600	0.245	0.197
-239.903	-126.834	0.141	0.021
-238.888	292.254	0.165	0.299
-237.873	132.258	-0.154	0.198
-236.859	81.285	-0.033	0.035
-235.844	800.000	-0.056	-0.207
-234.830	-34.109	0.364	0.199
-233.815	800.000	-0.150	-0.455
-232.800	-182.739	0.173	0.003
-231.786	-178.043	0.243	-0.006
-230.771	-200.000	0.033	0.437
-229.757	177.073	0.076	-0.110
-228.742	-98.780	0.174	-0.044
-227.727	-44.082	-0.171	-0.086
-226.713	622.187	-0.136	-0.340
-225.698	58.525	-0.281	-0.274
-224.684	-38.840	0.524	-0.275
-223.669	-45.296	-0.320	0.158
-222.655	-183.164	-0.161	-0.003
-221.640	-200.000	-0.012	0.117
-220.625	46.418	0.070	-0.065
-219.611	-67.482	0.152	-0.059
-218.596	-94.153	-0.160	-0.043
-217.582	800.000	-0.040	0.160
-216.567	-85.532	0.026	0.008
-215.552	-31.988	0.338	-0.188
-214.538	77.434	-0.267	0.283
-213.523	-164.305	0.450	0.021
-212.509	88.808	-0.130	-0.143
-211.494	-40.151	0.049	0.025
-210.479	113.974	-0.137	-0.165
-209.465	249.123	-0.247	-0.417
-208.450	-200.000	0.017	-0.372
-207.436	-173.299	-0.239	-0.007
-206.421	34.829	-0.230	-0.200
-205.406	223.703	-0.113	0.181
-204.392	-200.000	-0.021	0.370
-203.377	-158.410	-0.205	-0.012
-202.363	-200.000	0.011	0.242
-201.348	-200.000	0.010	0.135
-200.333	-145.525	0.236	0.021
-199.319	7.592	0.112	0.083
-198.304	-200.000	-0.042	-0.233
-197.290	80.306	0.147	-0.157
-196.275	299.649	0.137	0.251
-195.260	800.000	-0.040	0.117
-194.246	-91.829	-0.237	0.067
-193.231	-31.407	0.142	0.079
-192.217	-128.275	0.031	0.004
-191.202	-192.759	-0.158	-0.001
-190.187	164.783	-0.213	-0.299
-189.173	-113.340	-0.077	-0.015
-188.158	-104.990	-0.156	0.036
-187.144	-48.223	-0.147	-0.070
-186.129	219.818	0.220	0.350
-185.114	-137.156	0.245	0.028
-184.100	-71.828	-0.214	0.079
-183.085	211.968	0.139	-0.218
-182.071	-200.000	0.072	-0.329
-181.056	-200.000	-0.017	0.248
-180.042	45.316	-0.190	0.174
-179.027	472.006	-0.050	0.113
-178.012	286.554	-0.033	0.059
-176.998	-7.423	-0.163	-0.109
-175.983	-140.670	-0.090	-0.009
-174.969	-70.072	-0.249	0.094
-173.954	8.686	-0.221	0.165
-172.939	-88.153	0.427	0.127
-171.925	-55.989	-0.397	0.176
-170.910	1.011	0.030	-0.021
-169.896	-43.055	0.337	-0.170
-168.881	-70.131	-0.271	-0.102
-167.866	75.194	0.081	-0.084
-166.852	58.523	0.185	-0.181
-165.837	800.000	-0.109	0.327
-164.823	-200.000	0.042	0.374
-163.808	126.234	0.271	0.340
-162.793	283.008	0.067	0.119
-161.779	-109.422	0.186	0.039
-160.764	-200.000	-0.015	0.162
-159.750	598.433	-0.057	-0.141
-158.735	-200.000	0.014	0.232
-157.720	-172.873	0.341	0.011
-156.706	374.832	-0.096	0.195
-155.691	-200.000	0.019	-0.150
-154.677	-157.582	0.277	-0.016
-153.662	-200.000	0.017	0.124
-152.647	-50.399	0.197	-0.092
-151.633	-147.099	-0.247	0.021
-150.618	-200.000	-0.010	-0.281
-149.604	-54.961	-0.103	0.046
-148.589	800.000	0.064	0.178
-147.574	-200.000	0.022	-0.184
-146.560	195.196	0.279	0.421
-145.545	180.330	-0.113	0.165
-144.531	-24.736	0.063	-0.037
-143.516	800.000	-0.106	0.292
-142.502	77.151	0.165	-0.174
-141.487	-66.944	-0.041	0.016
-140.472	800.000	-0.046	-0.129
-139.458	-89.762	0.197	0.057
-138.443	35.733	-0.046	-0.040
-137.429	-200.000	-0.010	0.476
-136.414	-33.956	-0.148	-0.081
-135.399	-200.000	0.036	0.245
-134.385	629.673	0.088	0.221
-133.370	-200.000	-0.024	0.191
-132.356	800.000	-0.104	0.402
-131.341	-49.568	0.365	0.172
-130.326	800.000	0.078	-0.282
-129.312	6.377	-0.202	-0.149
-128.297	-83.094	0.492	0.157
-127.283	-169.363	0.371	-0.014
-126.268	800.000	0.140	-0.440
-125.253	-200.000	0.063	-0.305
-124.239	-106.157	0.121	-0.027
-123.224	-200.000	0.031	0.178
-122.210	237.560	-0.107	-0.176
-121.195	-200.000	0.035	0.525
-120.180	-73.189	0.040	0.015
-119.166	-49.140	-0.389	0.184
-118.151	-200.000	-0.016	-0.521
-117.137	-69.200	0.065	-0.025
-116.122	-43.822	0.184	0.092
-115.107	75.448	0.346	0.362
-114.093	290.683	0.173	0.312
-113.078	226.227	0.106	-0.171
-112.064	-200.000	0.017	-0.287
-111.049	566.151	0.145	-0.349
-110.034	-37.253	-0.201	-0.107
-109.020	-200.000	-0.097	-0.000
-108.005	-15.889	0.154	-0.097
-106.991	-152.703	0.191	0.014
-105.976	88.806	0.201	0.221
-104.962	310.631	-0.086	-0.160
-103.947	-200.000	0.268	-0.001
-102.932	800.000	0.042	0.139
-101.918	-200.000	-0.055	-0.263
-100.903	-80.978	-0.365	-0.120
-99.889	-69.834	0.220	-0.083
-98.874	-200.000	0.054	-0.244
-97.859	161.581	0.158	-0.219
-96.845	96.605	-0.148	0.167
-95.830	-95.415	0.125	0.033
-94.816	800.000	0.139	-0.456
-93.801	79.007	0.197	0.209
-92.786	-0.604	-0.337	-0.237
-91.772	546.498	0.133	0.315
-90.757	-147.464	0.051	-0.004
-89.743	-200.000	0.009	-0.351
-88.728	135.850	-0.050	-0.065
-87.713	-144.923	-0.201	0.018
-86.699	300.920	0.077	0.141
-85.684	-200.000	-0.067	0.355
-84.670	-138.231	0.093	-0.010
-83.655	-200.000	-0.015	0.252
-82.640	622.831	-0.066	0.164
-81.626	1.641	0.011	0.008
-80.611	74.022	-0.182	0.189
-79.597	-200.000	-0.039	-0.291
-78.582	800.000	0.106	0.326
-77.567	45.435	-0.086	-0.079
-76.553	32.071	0.064	0.055
-75.538	13.133	0.335	0.257
-74.524	435.785	0.113	-0.243
-73.509	800.000	0.068	-0.195
-72.494	-39.242	-0.037	-0.019
-71.480	240.747	0.136	0.225
-70.465	-89.816	0.170	-0.049
-69.451	127.802	-0.113	-0.142
-68.436	-90.598	0.162	0.046
-67.422	15.029	0.100	0.078
-66.407	-122.113	-0.422	-0.068
-65.392	-108.611	0.149	-0.032
-64.378	-14.188	-0.081	-0.051
-63.363	-200.000	-0.016	0.264
-62.349	243.922	0.219	0.363
-61.334	207.510	-0.766	-1.181
-60.319	96.379	0.466	0.527
-59.305	-200.000	-0.120	-0.959
-58.290	250.814	0.487	0.819
-57.276	395.468	0.774	1.596
-56.261	-200.000	95.872	559.718
-55.246	535.473	1382.188	3240.333
-54.232	154.908	2567.575	3488.097
-53.217	113.386	2189.074	2625.592
-52.203	46.595	1725.656	1582.864
-51.188	39.473	1534.295	1358.395
-50.173	36.944	1507.003	1317.016
-49.159	55.052	1556.622	1485.893
-48.144	59.016	1575.412	1531.150
-47.130	39.823	1531.563	1358.170
-46.115	36.660	1515.765	1322.524
-45.100	36.440	1512.783	1318.366
-44.086	36.414	1510.860	1316.463
-43.071	36.356	1509.052	1314.443
-42.057	36.290	1507.649	1312.719
-41.042	36.351	1506.087	1311.717
-40.027	36.373	1504.402	1310.350
-39.013	36.238	1503.007	1308.164
-37.998	36.296	1501.906	1307.549
-36.984	36.230	1500.925	1306.200
-35.969	36.268	1499.330	1305.015
-34.954	36.379	1497.726	1304.315
-33.940	36.376	1496.131	1302.856
-32.925	36.397	1495.030	1301.984
-31.911	36.327	1493.878	1300.463
-30.896	36.455	1492.308	1299.902
-29.881	36.511	1490.812	1298.923
-28.867	36.446	1489.898	1297.643
-27.852	36.368	1488.392	1295.751
-26.838	36.465	1486.971	1295.114
-25.823	36.486	1485.350	1293.793
-24.809	36.402	1483.994	1292.001
-23.794	36.487	1481.908	1290.700
-22.779	36.413	1480.954	1289.322
-21.765	36.421	1480.104	1288.581
-20.750	36.432	1478.858	1287.522
-19.736	36.432	1477.750	1286.509
-18.721	36.496	1476.375	1285.684
-17.706	36.442	1475.403	1284.425
-16.692	36.427	1474.270	1283.290
-15.677	36.421	1473.516	1282.544
-14.663	36.391	1472.137	1281.093
-13.648	36.473	1470.823	1280.445
-12.633	36.399	1470.313	1279.458
-11.619	36.301	1469.969	1278.456
-10.604	36.415	1468.567	1277.944
-9.590	36.411	1468.137	1277.492
-8.575	36.376	1467.098	1276.305
-7.560	36.363	1466.104	1275.305
-6.546	36.401	1465.615	1275.081
-5.531	36.390	1464.725	1274.183
-4.517	36.353	1463.790	1273.071
-3.502	36.404	1462.479	1272.220
-2.487	36.378	1461.304	1270.975
-1.473	36.327	1460.401	1269.806
-0.458	36.331	1458.710	1268.309
0.556	34.115	1447.563	1251.984
1.571	28.918	1417.546	1192.318
2.586	22.721	1351.742	1098.419
3.600	19.747	1265.569	1010.941
4.615	18.009	1219.349	964.135
5.629	15.473	1164.636	907.108
6.644	8.101	1080.959	804.763
7.659	1.519	1039.441	741.751
8.673	0.411	1032.949	731.679
9.688	0.232	1030.583	729.075
10.702	0.232	1028.916	727.829
11.717	0.155	1027.242	726.209
12.731	2.430	1029.762	738.921
13.746	9.942	1039.072	782.019
14.761	16.084	1046.973	817.775
15.775	17.150	1047.350	823.169
16.790	16.599	1045.756	819.177
17.804	15.419	1044.061	812.071
18.819	14.650	1041.822	806.539
19.834	14.173	1040.235	802.941
20.848	13.934	1039.404	801.073
21.863	13.641	1038.977	799.264
22.877	13.392	1038.246	797.429
23.892	13.228	1037.085	795.678
24.907	13.184	1036.004	794.567
25.921	13.133	1035.573	793.920
26.936	13.184	1034.871	793.555
27.950	13.098	1034.526	792.807
28.965	13.305	1033.231	792.737
29.980	13.413	1032.584	792.689
30.994	13.309	1031.440	791.245
32.009	13.376	1031.065	791.207
33.023	13.460	1029.785	790.557
34.038	13.460	1029.409	790.197
35.053	13.345	1028.320	788.741
36.067	13.230	1027.973	787.859
37.082	13.291	1026.957	787.302
38.096	13.318	1025.959	786.594
39.111	13.270	1025.636	786.049
40.126	13.359	1024.661	785.655
41.140	13.375	1023.566	784.824
42.155	13.224	1023.002	783.606
43.169	13.178	1021.446	782.125
44.184	13.159	1020.345	781.125
45.199	13.105	1019.781	780.365
46.213	13.143	1018.675	779.632
47.228	13.304	1017.575	779.481
48.242	13.258	1016.916	778.688
49.257	13.264	1015.803	777.795
50.271	13.148	1015.139	776.673
51.286	13.237	1013.887	776.066
52.301	13.332	1013.101	775.841
53.315	13.344	1012.493	775.362
54.330	13.230	1011.599	774.077
55.344	13.196	1011.131	773.489
56.359	13.277	1009.230	772.347
57.374	13.180	1009.033	771.673
58.388	13.165	1008.024	770.765
59.403	13.250	1007.153	770.423
60.417	13.147	1006.673	769.511
61.432	13.146	1005.757	768.736
62.447	13.205	1005.039	768.393
63.461	13.095	1004.395	767.324
64.476	13.051	1003.687	766.512
65.490	13.246	1002.182	766.198
66.505	13.182	1001.760	765.509
67.520	13.222	1000.518	764.676
68.534	13.131	999.875	763.698
69.549	13.176	999.440	763.506
70.563	13.087	998.518	762.322
71.578	13.168	998.049	762.272
72.593	13.266	996.613	761.557
73.607	13.031	996.145	760.052
74.622	13.046	995.263	759.382
75.636	12.962	994.182	758.103
76.651	12.977	993.547	757.622
77.666	13.095	992.318	757.157
78.680	13.064	992.002	756.707
79.695	13.179	991.215	756.566
80.709	12.950	991.429	755.614
81.724	13.078	990.301	755.274
82.739	13.217	989.370	755.131
83.753	13.261	988.604	754.680
84.768	13.410	987.425	754.392
85.782	13.308	987.077	753.598
86.797	13.451	986.094	753.430
87.812	13.410	985.345	752.606
88.826	13.246	985.120	751.620
89.841	13.244	984.251	750.880
90.855	13.310	982.922	750.100
91.870	13.457	982.398	750.299
92.884	13.432	981.857	749.708
93.899	13.386	980.932	748.729
94.914	13.423	980.381	748.406
95.928	13.320	980.063	747.631
96.943	13.497	978.890	747.470
97.957	13.433	977.730	746.232
98.972	13.470	977.090	745.842
99.987	13.386	976.556	744.992
101.001	13.502	975.294	744.485
102.016	13.406	975.122	743.854
103.030	13.440	973.694	742.853
104.045	13.401	972.980	742.067
105.060	13.307	972.494	741.210
106.074	13.451	971.020	740.667
107.089	13.535	970.428	740.523
108.103	13.285	969.759	738.829
109.118	13.251	968.818	737.898
110.133	13.212	967.780	736.867
111.147	13.229	966.887	736.196
112.162	13.104	966.345	735.162
113.176	13.288	965.153	735.010
114.191	13.332	964.325	734.511
115.206	13.336	963.799	734.060
116.220	13.345	963.049	733.465
117.235	13.408	962.170	733.008
118.249	13.336	961.053	731.775
119.264	13.312	960.187	730.945
120.279	13.265	959.797	730.374
121.293	13.281	958.690	729.539
122.308	13.272	958.132	729.011
123.322	13.267	957.036	728.092
124.337	13.288	956.328	727.578
125.352	13.195	954.835	725.972
126.366	13.340	953.630	725.625
127.381	13.168	953.265	724.528
128.395	13.263	951.998	723.921
129.410	13.278	950.976	723.142
130.424	13.324	950.319	722.779
131.439	13.365	949.268	722.099
132.454	13.537	948.096	721.890
133.468	13.340	947.641	720.622
134.483	13.352	947.260	720.322
135.497	13.505	946.177	720.100
136.512	13.423	945.897	719.467
137.527	13.395	945.375	718.885
138.541	13.383	944.350	717.988
139.556	13.534	943.017	717.567
140.570	13.348	943.009	716.693
141.585	13.520	942.048	716.642
142.600	13.513	941.345	716.012
143.614	13.546	940.724	715.620
144.629	13.468	940.113	714.754
145.643	13.609	939.021	714.470
146.658	13.492	938.559	713.552
147.673	13.455	937.223	712.310
148.687	13.327	936.672	711.282
149.702	13.405	935.603	710.741
150.716	13.413	934.783	710.089
151.731	13.398	933.882	709.277
152.746	13.401	933.186	708.701
153.760	13.476	932.462	708.406
154.775	13.419	931.766	707.572
155.789	13.583	931.203	707.781
156.804	13.402	930.253	706.225
157.819	13.554	929.346	706.121
158.833	13.614	928.873	705.958
159.848	13.666	928.440	705.785
160.862	13.620	927.486	704.803
161.877	13.682	926.911	704.566
162.892	13.647	926.129	703.762
163.906	13.640	924.889	702.729
164.921	13.577	924.259	701.919
165.935	13.532	923.597	701.165
166.950	13.437	922.837	700.123
167.964	13.648	921.452	699.902
168.979	13.567	920.651	698.889
169.994	13.569	919.490	697.953
171.008	13.421	918.943	696.853
172.023	13.622	918.222	697.093
173.037	13.619	917.627	696.568
174.052	13.636	917.101	696.178
175.067	13.705	916.067	695.620
176.081	13.712	915.207	694.934
177.096	13.821	914.098	694.488
178.110	13.592	913.647	693.125
179.125	13.589	913.007	692.567
180.140	13.737	912.048	692.395
181.154	13.819	911.254	692.073
182.169	13.685	911.108	691.341
183.183	13.892	910.191	691.447
184.198	13.748	909.774	690.469
185.213	13.834	908.672	689.930
186.227	13.781	908.153	689.254
187.242	13.837	907.537	688.957
188.256	13.829	907.290	688.677
189.271	13.874	906.423	688.144
190.286	14.041	905.111	687.780
191.300	13.875	905.014	686.957
192.315	13.617	904.402	685.365
193.329	13.688	903.606	684.995
194.344	13.739	902.838	684.561
195.359	13.694	902.478	684.043
196.373	13.883	901.703	684.175
197.388	13.867	901.685	684.035
198.402	13.873	901.044	683.513
199.417	13.916	900.416	683.150
200.432	14.077	899.902	683.364
201.446	13.939	899.438	682.385
202.461	14.143	898.972	682.805
203.475	14.230	898.447	682.705
204.490	14.161	897.597	681.714
205.504	14.195	896.707	681.119
206.519	14.082	896.317	680.302
207.534	14.054	895.291	679.347
208.548	14.139	894.772	679.239
209.563	14.057	894.141	678.365
210.577	14.073	893.194	677.653
211.592	14.098	892.809	677.405
212.607	14.140	892.354	677.170
213.621	14.282	891.621	677.129
214.636	14.310	890.631	676.432
215.650	14.347	889.919	675.980
216.665	14.288	889.708	675.522
217.680	14.314	889.208	675.187
218.694	14.125	889.031	674.229
219.709	14.260	888.246	674.118
220.723	14.203	887.243	673.069
221.738	14.376	886.447	673.105
222.753	14.249	886.060	672.237
223.767	14.348	885.511	672.162
224.782	14.387	884.817	671.732
225.796	14.399	883.977	671.085
226.811	14.469	883.445	670.900
227.826	14.475	882.138	669.875
228.840	14.431	881.781	669.369
229.855	14.445	880.853	668.658
230.869	14.333	881.021	668.276
231.884	14.371	879.778	667.429
232.899	14.467	879.248	667.352
233.913	14.449	878.228	666.446
234.928	14.287	878.064	665.614
235.942	14.445	877.385	665.673
236.957	14.408	876.630	664.894
237.972	14.413	875.904	664.302
238.986	14.496	875.249	664.081
240.001	14.424	874.550	663.203
241.015	14.468	874.251	663.093
242.030	14.651	873.108	662.895
243.045	14.678	872.159	662.222
244.059	14.419	872.482	661.381
245.074	14.698	871.420	661.623
246.088	14.515	871.142	660.627
247.103	14.563	870.438	660.226
248.117	14.695	869.777	660.187
249.132	14.725	869.191	659.802
250.147	14.740	868.912	659.591
251.161	14.892	867.840	659.318
252.176	14.842	867.482	658.791
253.190	14.850	866.622	658.111
254.205	14.786	866.279	657.544
255.220	14.711	865.817	656.840
256.234	14.877	865.080	656.872
257.249	14.920	864.369	656.443
258.263	14.965	863.885	656.194
259.278	14.932	863.492	655.709
260.293	14.928	862.978	655.245
261.307	15.115	861.919	655.114
262.322	14.991	862.277	654.843
263.336	15.082	861.034	654.198
264.351	15.101	860.361	653.701
265.366	15.122	859.739	653.252
266.380	15.233	859.112	653.150
267.395	15.157	858.899	652.636
268.409	15.206	857.481	651.691
269.424	15.165	856.964	651.080
270.439	15.197	856.457	650.765
271.453	15.169	855.643	649.978
272.468	15.140	854.799	649.166
273.482	15.131	854.458	648.814
274.497	15.252	853.639	648.607
275.512	15.155	853.199	647.837
276.526	15.254	852.058	647.298
277.541	15.272	851.583	646.950
278.555	15.260	851.065	646.452
279.570	15.105	850.978	645.732
280.585	15.254	850.214	645.667
281.599	15.362	849.460	645.452
282.614	15.385	848.931	645.081
283.628	15.318	848.418	644.379
284.643	15.396	847.798	644.148
285.657	15.356	847.051	643.374
286.672	15.356	846.682	643.034
287.687	15.387	846.124	642.674
288.701	15.416	845.918	642.571
289.716	15.562	845.014	642.387
290.730	15.493	844.517	641.686
291.745	15.441	844.032	641.063
292.760	15.416	843.030	640.150
293.774	15.528	842.440	640.074
294.789	15.626	842.109	640.136
295.803	15.585	841.630	639.559
296.818	15.488	840.794	638.499
297.833	15.464	840.268	637.954
298.847	15.589	839.523	637.806
299.862	15.522	838.747	636.907
300.876	15.581	838.217	636.669
301.891	15.632	837.634	636.363
302.906	15.761	836.449	635.894
303.920	15.781	836.397	635.873
304.935	15.694	835.868	635.089
305.949	15.848	835.171	635.083
306.964	15.700	834.889	634.253
307.979	15.688	834.049	633.514
308.993	15.847	833.509	633.646
310.008	15.793	833.091	633.070
311.022	15.900	832.316	632.827
312.037	15.788	831.872	632.014
313.052	15.820	831.379	631.703
314.066	15.770	830.868	631.071
315.081	15.885	830.049	630.823
316.095	15.788	829.802	630.218
317.110	15.743	829.421	629.702
318.125	15.804	828.527	629.195
319.139	15.821	828.214	628.967
320.154	15.806	827.380	628.221
321.168	15.614	827.652	627.657
322.183	15.807	826.790	627.669
323.197	15.848	826.251	627.356
324.212	15.949	825.517	627.118
325.227	15.952	824.776	626.512
326.241	15.951	824.739	626.422
327.256	15.862	823.937	625.428
328.270	15.749	823.537	624.648
329.285	15.946	822.942	624.872
330.300	15.862	822.465	624.145
331.314	15.865	821.664	623.493
332.329	16.009	820.656	623.205
333.343	15.956	820.375	622.742
334.358	15.933	819.814	622.174
335.373	16.038	819.495	622.266
336.387	16.079	818.921	621.926
337.402	16.042	818.375	621.320
338.416	16.331	817.344	621.548
339.431	16.225	817.150	620.952
340.446	16.138	816.708	620.242
341.460	16.178	816.090	619.866
342.475	16.276	815.445	619.682
343.489	16.271	815.026	619.288
344.504	16.326	814.535	619.062
345.519	16.350	814.071	618.743
346.533	16.405	813.574	618.514
347.548	16.348	812.642	617.540
348.562	16.349	812.318	617.243
349.577	16.433	811.692	617.021
350.592	16.350	811.369	616.417
351.606	16.457	810.865	616.369
352.621	16.255	810.610	615.384
353.635	16.412	810.325	615.686
354.650	16.325	809.799	614.917
355.665	16.321	809.656	614.737
356.679	16.396	809.041	614.489
357.694	16.348	808.814	614.086
358.708	16.549	807.742	613.948
359.723	16.458	807.324	613.247
360.738	16.557	806.502	612.929
361.752	16.420	806.258	612.192
362.767	16.534	805.852	612.243
363.781	16.496	805.635	611.885
364.796	16.505	805.016	611.393
365.810	16.559	804.664	611.266
366.825	16.685	804.130	611.262
367.840	16.711	803.902	611.130
368.854	16.689	803.342	610.569
369.869	16.665	802.759	609.986
370.883	16.771	802.226	609.909
371.898	16.617	801.901	609.052
372.913	16.707	801.163	608.761
373.927	16.738	800.665	608.442
374.942	16.784	799.818	607.908
375.956	16.842	799.278	607.654
376.971	16.837	798.691	607.134
377.986	16.731	798.582	606.617
379.000	16.859	797.873	606.484
380.015	16.810	797.537	606.000
381.029	16.915	796.606	605.615
382.044	16.881	796.381	605.268
383.059	16.980	795.472	604.876
384.073	16.852	795.450	604.350
385.088	16.846	794.741	603.737
386.102	16.914	794.012	603.370
387.117	16.939	793.964	603.370
388.132	16.909	793.279	602.689
389.146	16.920	793.102	602.542
390.161	16.903	792.526	601.991
391.175	16.926	792.264	601.820
392.190	16.930	791.838	601.456
393.205	17.036	791.096	601.215
394.219	17.160	790.673	601.279
395.234	16.999	790.279	600.356
396.248	16.984	789.712	599.821
397.263	17.060	789.458	599.844
398.278	16.882	789.052	598.853
399.292	16.941	788.358	598.481
400.307	16.972	788.069	598.318
401.321	17.010	787.437	597.918
402.336	17.022	787.281	597.789
403.350	16.969	787.020	597.352
404.365	17.162	786.086	597.271
405.380	17.162	785.580	596.833
406.394	17.172	785.695	596.901
407.409	17.251	785.114	596.686
408.423	17.345	784.366	596.394
409.438	17.364	783.709	595.909
410.453	17.373	783.617	595.815
411.467	17.238	783.455	595.167
412.482	17.354	783.113	595.260
413.496	17.414	782.016	594.586
414.511	17.478	781.733	594.540
415.526	17.318	781.684	593.890
416.540	17.418	781.556	594.090
417.555	17.467	781.216	593.952
418.569	17.489	780.375	593.337
419.584	17.410	779.995	592.719
420.599	17.541	779.364	592.641
421.613	103.891	1281.119	1440.087
422.628	88.680	1354.225	1440.205
