DTS Sentinel unit serial number:	SN413079Multiplexer serial number:	ORYXHardware model number:	OX4-SRSoftware version number:	ORYX F/W v4.00 Oryx Data Collector v3.7.2.0data status	okinstallation	princeton_trtdifferential loss correction	single-endedforward channel	channel 3reverse channel	N/Adate	2019/09/12time	19:14:04forward acquisition time	15.00reverse acquisition time	0.00gamma	496.2192k internal	0.2320k external	0.2320temperature offset calibration	1.0099default loss term (dB/km)	0.3790temperature slope calibration	1.0000multiplexer offset coefficient	1.0000multiplexer slope coefficient	1.0000fibre end	0.00T internal ref (°C)	32.56T ext. ref 1 (°C)	3.23T ext. ref 2 (°C)	27.10length (m)	temperature (°C)	Stokes	anti-Stokes-747.200	-46.495	0.111	0.055
-746.185	47.762	-0.586	0.553
-745.171	-119.218	-0.456	-0.080
-744.156	-159.562	0.588	0.033
-743.142	67.036	-0.636	0.655
-742.127	-200.000	0.112	-0.701
-741.112	30.778	-0.302	0.261
-740.098	-61.705	-0.160	0.068
-739.083	-17.213	0.875	0.558
-738.069	-13.978	0.825	0.539
-737.054	-47.285	-0.810	0.399
-736.039	174.253	0.281	0.411
-735.025	800.000	-0.168	0.599
-734.010	22.630	0.749	-0.619
-732.996	-200.000	-0.167	-1.061
-731.981	-153.891	-0.694	-0.048
-730.966	22.681	0.634	0.525
-729.952	800.000	-0.141	-0.410
-728.937	-82.181	0.148	0.049
-727.923	393.910	-0.285	0.599
-726.908	31.971	-0.233	-0.203
-725.894	800.000	0.049	-0.190
-724.879	768.867	-0.083	-0.229
-723.864	85.595	0.467	0.518
-722.850	-31.689	-0.077	-0.043
-721.835	371.790	0.133	0.273
-720.821	165.746	-0.341	-0.488
-719.806	-111.585	0.717	0.147
-718.791	-200.000	-0.009	0.209
-717.777	754.893	-0.128	-0.349
-716.762	29.296	-0.073	-0.062
-715.748	42.843	0.479	-0.441
-714.733	-200.000	-0.022	0.126
-713.718	27.807	0.129	0.109
-712.704	-200.000	-0.258	1.151
-711.689	800.000	-0.219	-0.742
-710.675	-164.666	-0.563	0.026
-709.660	-84.052	-0.469	-0.150
-708.645	-200.000	0.139	-0.720
-707.631	-113.794	-0.305	-0.060
-706.616	-60.242	0.603	0.260
-705.602	88.975	-0.234	0.263
-704.587	-200.000	0.113	-0.597
-703.572	-45.716	-0.525	-0.262
-702.558	66.191	0.621	0.636
-701.543	-136.621	0.444	-0.052
-700.529	800.000	0.316	0.982
-699.514	520.397	-0.366	0.867
-698.499	108.435	-0.167	0.201
-697.485	-98.446	0.362	-0.094
-696.470	-200.000	-0.110	1.125
-695.456	353.635	0.547	1.097
-694.441	360.751	0.199	0.401
-693.426	800.000	0.173	-0.683
-692.412	55.663	-0.365	-0.357
-691.397	800.000	-0.082	0.258
-690.383	51.551	-0.440	0.422
-689.368	-85.281	-0.212	0.067
-688.354	-130.878	0.475	0.064
-687.339	-167.444	-0.684	-0.028
-686.324	-62.452	0.858	-0.360
-685.310	2.701	-0.486	-0.356
-684.295	-1.819	-0.486	0.345
-683.281	-156.170	0.876	-0.056
-682.266	236.070	-0.268	0.447
-681.251	-200.000	0.068	0.510
-680.237	-174.193	-0.577	-0.017
-679.222	-117.703	-0.157	0.029
-678.208	-140.898	0.258	-0.027
-677.193	210.283	0.311	0.492
-676.178	119.133	-0.231	0.288
-675.164	-16.284	0.606	-0.388
-674.149	163.746	-0.527	-0.748
-673.135	-16.925	-0.458	-0.292
-672.120	382.562	-0.220	0.457
-671.105	800.000	-0.055	0.199
-670.091	800.000	0.092	0.335
-669.076	1.596	-0.621	-0.451
-668.062	77.924	0.209	-0.225
-667.047	-146.412	0.497	0.044
-666.032	614.020	-0.079	0.201
-665.018	-161.356	-0.743	0.039
-664.003	-56.258	-0.923	-0.414
-662.989	31.799	-0.206	-0.179
-661.974	354.137	-0.259	0.518
-660.959	-140.873	-0.337	0.035
-659.945	170.929	0.472	-0.682
-658.930	-46.494	1.011	-0.500
-657.916	125.329	-0.354	0.450
-656.901	136.933	-0.604	0.795
-655.886	800.000	0.082	0.264
-654.872	-28.326	0.360	0.210
-653.857	-200.000	-0.097	-0.779
-652.843	41.161	0.356	-0.324
-651.828	800.000	-0.177	0.546
-650.814	113.493	-0.265	-0.324
-649.799	306.127	0.164	0.307
-648.784	-200.000	0.084	0.528
-647.770	-119.452	-0.465	0.081
-646.755	193.760	-0.278	0.424
-645.741	-105.752	-0.544	-0.124
-644.726	313.736	-0.121	0.230
-643.711	212.945	0.345	-0.548
-642.697	-111.251	0.461	0.095
-641.682	-79.560	-0.844	0.287
-640.668	-45.344	-0.838	0.419
-639.653	-200.000	-0.017	0.804
-638.638	-94.115	0.730	-0.202
-637.624	387.269	-0.281	-0.585
-636.609	-200.000	0.066	-1.146
-635.595	-85.101	-0.699	-0.221
-634.580	-65.408	0.537	0.217
-633.565	313.052	0.093	0.177
-632.551	-38.477	-0.479	-0.255
-631.536	266.172	0.443	-0.778
-630.522	39.751	0.324	0.293
-629.507	260.511	0.215	-0.375
-628.492	-63.335	-0.192	0.080
-627.478	234.556	-0.407	0.675
-626.463	-31.393	-0.685	-0.388
-625.449	800.000	0.134	-0.476
-624.434	378.872	-0.119	-0.245
-623.419	800.000	0.093	-0.361
-622.405	59.555	-0.711	0.705
-621.390	-147.123	0.573	0.049
-620.376	-200.000	-0.005	0.719
-619.361	-200.000	0.012	-0.378
-618.346	106.798	0.537	-0.642
-617.332	42.582	-0.565	0.517
-616.317	243.078	-0.528	0.890
-615.303	-200.000	0.090	-0.447
-614.288	199.544	-0.410	-0.632
-613.273	800.000	-0.159	-0.578
-612.259	-26.817	-0.433	0.255
-611.244	-200.000	0.087	-0.670
-610.230	-200.000	0.126	0.578
-609.215	-200.000	0.006	0.207
-608.201	378.042	-0.394	-0.811
-607.186	-46.881	0.314	0.154
-606.171	273.523	-0.503	-0.894
-605.157	-143.145	0.249	0.024
-604.142	81.806	-0.247	-0.269
-603.128	75.805	-0.147	-0.156
-602.113	-30.491	0.240	-0.137
-601.098	239.930	-0.301	-0.505
-600.084	-200.000	-0.018	0.204
-599.069	-131.763	-0.171	-0.023
-598.055	-66.808	-0.101	-0.040
-597.040	-45.916	-0.258	-0.128
-596.025	-200.000	0.103	-0.677
-595.011	-200.000	0.024	0.314
-593.996	800.000	0.140	-0.432
-592.982	8.396	-0.674	-0.510
-591.967	247.030	0.121	0.205
-590.952	-78.624	0.438	0.151
-589.938	605.422	-0.311	0.778
-588.923	-14.667	0.496	0.320
-587.909	-200.000	-0.019	-0.726
-586.894	-132.158	0.487	-0.064
-585.879	-200.000	0.017	-0.305
-584.865	-0.244	-0.615	-0.440
-583.850	135.278	0.459	-0.599
-582.836	277.466	0.061	-0.110
-581.821	-200.000	0.077	1.155
-580.806	130.941	-0.438	-0.565
-579.792	-33.857	-0.283	-0.157
-578.777	64.257	-0.242	-0.244
-577.763	800.000	0.175	-0.540
-576.748	-109.478	1.140	0.242
-575.733	-117.653	-1.080	0.196
-574.719	-48.736	-0.789	0.380
-573.704	800.000	-0.078	0.218
-572.690	-81.716	-0.131	-0.043
-571.675	-119.282	-0.342	0.060
-570.661	-60.922	0.705	0.300
-569.646	329.585	0.431	0.832
-568.631	170.386	-0.363	0.522
-567.617	-134.578	-0.585	0.072
-566.602	-200.000	0.146	-0.788
-565.588	40.368	0.063	-0.057
-564.573	75.191	0.232	0.246
-563.558	-7.011	-0.416	0.283
-562.544	49.207	-0.269	-0.254
-561.529	411.483	0.334	0.712
-560.515	-50.723	-0.347	-0.164
-559.500	390.115	-0.426	-0.887
-558.485	405.978	0.311	0.660
-557.471	159.628	0.323	0.451
-556.456	-171.721	-0.509	0.017
-555.442	171.716	-0.524	0.756
-554.427	607.923	-0.174	0.436
-553.412	-6.489	-0.557	-0.381
-552.398	26.133	-0.510	-0.427
-551.383	621.750	0.192	-0.486
-550.369	-114.216	-0.521	0.101
-549.354	-98.879	-0.782	-0.200
-548.339	26.842	-0.391	-0.329
-547.325	48.512	0.545	-0.513
-546.310	131.382	-0.155	-0.199
-545.296	-200.000	-0.033	0.193
-544.281	195.880	-0.085	-0.130
-543.266	288.827	0.472	-0.859
-542.252	-200.000	-0.046	0.485
-541.237	-200.000	0.040	-0.408
-540.223	800.000	0.076	0.216
-539.208	224.165	0.669	1.085
-538.193	800.000	0.255	-1.018
-537.179	-124.503	-0.231	-0.036
-536.164	-4.157	0.206	-0.143
-535.150	-99.971	-0.436	-0.109
-534.135	-150.200	0.126	-0.010
-533.121	136.607	-0.506	-0.663
-532.106	-110.789	-0.161	0.033
-531.091	241.154	-0.116	-0.195
-530.077	-47.411	-0.393	0.192
-529.062	36.386	0.850	-0.751
-528.048	-187.875	-0.468	0.006
-527.033	-166.123	0.349	-0.015
-526.018	-182.008	0.451	0.009
-525.004	544.473	-0.274	0.656
-523.989	-140.996	-0.610	-0.063
-522.975	-18.134	0.568	0.357
-521.960	-77.488	-0.673	-0.234
-520.945	-157.798	-0.315	0.019
-519.931	235.100	0.391	0.648
-518.916	42.208	0.396	-0.361
-517.902	-93.744	-1.072	-0.296
-516.887	-118.609	-0.294	0.052
-515.872	-86.667	-0.962	-0.295
-514.858	-81.294	0.418	0.138
-513.843	-8.014	-0.161	0.109
-512.829	-54.005	0.468	0.213
-511.814	800.000	0.105	-0.328
-510.799	-40.737	0.700	0.364
-509.785	114.004	0.338	-0.412
-508.770	800.000	0.228	0.762
-507.756	-33.200	0.286	-0.159
-506.741	45.988	-0.818	-0.758
-505.726	-12.405	-0.657	0.430
-504.712	777.811	-0.326	-0.891
-503.697	-21.517	-0.647	-0.395
-502.683	-93.930	0.277	-0.076
-501.668	355.231	0.292	-0.582
-500.653	-81.623	0.738	0.243
-499.639	-39.768	-0.303	-0.159
-498.624	788.840	-0.280	0.770
-497.610	275.392	-0.074	-0.132
-496.595	-200.000	-0.002	0.279
-495.581	-104.877	-0.166	-0.038
-494.566	-106.605	0.662	0.148
-493.551	800.000	-0.266	0.882
-492.537	-200.000	-0.137	-0.660
-491.522	471.446	0.112	-0.252
-490.508	-100.917	0.626	-0.154
-489.493	-32.220	-0.250	0.140
-488.478	-7.808	-0.157	-0.106
-487.464	608.186	-0.182	-0.455
-486.449	-15.438	0.904	-0.578
-485.435	10.129	-0.915	0.696
-484.420	478.626	0.400	-0.907
-483.405	53.050	0.264	0.253
-482.391	2.291	-0.148	0.107
-481.376	21.946	-0.387	-0.316
-480.362	183.120	-0.197	0.291
-479.347	137.991	-0.512	0.672
-478.332	352.607	0.326	0.647
-477.318	800.000	0.123	-0.369
-476.303	-59.844	0.414	-0.177
-475.289	368.968	-0.411	0.832
-474.274	-21.385	0.406	-0.248
-473.259	-83.696	0.745	-0.238
-472.245	-70.181	-0.480	0.183
-471.230	-200.000	0.001	0.831
-470.216	325.210	-0.177	-0.338
-469.201	-49.591	0.395	0.188
-468.186	-12.643	0.345	-0.225
-467.172	-44.282	0.320	-0.161
-466.157	2.999	-0.495	-0.360
-465.143	-108.697	-0.230	0.049
-464.128	-82.946	0.143	0.046
-463.113	1.336	-0.625	-0.450
-462.099	-73.827	-0.279	-0.101
-461.084	-151.161	-0.116	0.009
-460.070	-90.735	0.594	0.171
-459.055	-194.109	0.607	0.005
-458.040	317.287	0.066	0.125
-457.026	-143.049	-0.702	0.068
-456.011	-20.098	-0.564	-0.347
-454.997	-85.929	0.187	-0.058
-453.982	160.725	-0.313	0.437
-452.968	-166.417	0.278	0.012
-451.953	-162.603	-0.790	0.039
-450.938	-200.000	-0.015	0.752
-449.924	-60.147	1.171	-0.499
-448.909	89.563	-0.183	0.205
-447.895	-200.000	0.082	0.898
-446.880	-200.000	-0.011	0.309
-445.865	279.285	-0.385	0.688
-444.851	-14.252	-0.123	0.079
-443.836	-170.711	-0.089	-0.003
-442.822	-91.538	0.256	0.073
-441.807	-146.071	-0.268	0.024
-440.792	-42.354	0.339	-0.173
-439.778	-71.164	-0.389	0.146
-438.763	-145.308	-0.383	0.035
-437.749	63.036	0.469	0.469
-436.734	135.763	0.118	0.153
-435.719	-6.029	-0.522	-0.356
-434.705	-49.930	-0.592	-0.280
-433.690	-86.505	-0.609	-0.187
-432.676	-117.691	0.787	-0.142
-431.661	-200.000	-0.016	-0.551
-430.646	-42.413	1.035	-0.527
-429.632	106.311	-0.261	0.308
-428.617	209.052	-0.085	0.133
-427.603	-36.284	0.490	-0.264
-426.588	30.280	0.693	-0.591
-425.573	-200.000	-0.130	-0.769
-424.559	-200.000	0.039	0.396
-423.544	-200.000	0.001	0.175
-422.530	800.000	-0.068	-0.215
-421.515	-200.000	0.036	0.622
-420.500	-200.000	-0.082	0.438
-419.486	-74.799	1.197	0.429
-418.471	37.682	-0.261	-0.231
-417.457	469.883	-0.141	-0.317
-416.442	-190.672	-0.294	-0.003
-415.428	70.559	0.211	0.218
-414.413	-166.302	0.441	0.019
-413.398	-146.057	0.679	0.060
-412.384	278.134	0.312	-0.555
-411.369	-200.000	-0.009	-0.116
-410.355	800.000	-0.115	-0.357
-409.340	-126.851	0.213	0.031
-408.325	-200.000	-0.006	-0.350
-407.311	-90.588	0.859	0.248
-406.296	-200.000	-0.019	0.589
-405.282	-198.863	0.090	0.000
-404.267	-200.000	-0.099	-0.866
-403.252	800.000	0.233	0.844
-402.238	800.000	0.244	0.688
-401.223	-150.351	0.586	0.045
-400.209	-200.000	-0.125	0.578
-399.194	13.146	-0.111	0.085
-398.179	36.107	0.229	0.201
-397.165	652.339	0.378	-0.967
-396.150	-72.225	0.418	-0.155
-395.136	800.000	0.186	-0.595
-394.121	-78.875	-0.345	0.117
-393.106	-65.434	0.803	-0.322
-392.092	429.429	-0.133	-0.287
-391.077	-48.766	-1.033	0.494
-390.063	-15.538	-0.847	0.540
-389.048	105.138	0.148	-0.174
-388.033	-4.203	-0.582	0.402
-387.019	8.487	0.630	-0.473
-386.004	-106.374	0.354	0.079
-384.990	-27.251	-0.423	0.246
-383.975	340.752	0.108	0.210
-382.960	190.562	-0.564	0.845
-381.946	-200.000	-0.044	-0.250
-380.931	-200.000	0.021	0.706
-379.917	244.503	0.160	-0.268
-378.902	235.456	-0.205	-0.337
-377.888	-176.920	0.154	0.004
-376.873	33.629	-0.485	-0.421
-375.858	25.500	0.457	0.379
-374.844	404.187	0.344	-0.723
-373.829	370.616	-0.308	0.622
-372.815	-200.000	0.068	0.367
-371.800	150.440	0.194	-0.263
-370.785	180.708	0.091	-0.133
-369.771	-35.977	0.674	-0.363
-368.756	-20.822	0.372	-0.227
-367.742	-200.000	0.031	-0.361
-366.727	-36.076	0.022	0.012
-365.712	-200.000	-0.031	0.452
-364.698	-119.083	0.387	0.067
-363.683	-105.089	0.827	-0.188
-362.669	-167.677	-0.379	0.015
-361.654	-200.000	-0.027	-0.674
-360.639	16.405	0.739	-0.581
-359.625	400.692	-0.127	-0.266
-358.610	606.023	-0.374	-0.929
-357.596	-4.517	0.269	0.185
-356.581	-200.000	-0.106	0.576
-355.566	-200.000	0.090	0.556
-354.552	22.529	0.170	-0.139
-353.537	143.069	-0.148	-0.196
-352.523	-59.387	-0.325	0.139
-351.508	105.138	-0.205	-0.241
-350.493	-100.987	-0.642	-0.157
-349.479	-57.678	0.334	-0.146
-348.464	-52.342	0.389	0.179
-347.450	346.834	0.230	0.451
-346.435	-185.766	0.078	0.001
-345.420	-86.883	0.564	0.171
-344.406	229.299	0.168	0.274
-343.391	-139.726	0.493	0.052
-342.377	164.915	-0.625	0.878
-341.362	-63.061	0.649	0.267
-340.348	-138.253	-0.074	-0.008
-339.333	-63.769	0.203	-0.083
-338.318	-200.000	-0.025	-0.664
-337.304	-126.407	0.394	0.058
-336.289	73.083	0.414	-0.431
-335.275	-200.000	-0.011	0.148
-334.260	59.597	-0.223	0.219
-333.245	-151.266	1.181	-0.088
-332.231	184.414	-0.332	0.490
-331.216	-157.654	0.780	0.046
-330.202	-200.000	-0.014	-0.329
-329.187	-107.860	0.991	0.215
-328.172	272.956	-0.311	-0.547
-327.158	-200.000	0.024	0.259
-326.143	752.534	-0.220	0.590
-325.129	186.834	0.314	0.465
-324.114	433.442	-0.492	-1.064
-323.099	-33.212	-0.113	0.062
-322.085	42.625	0.472	-0.428
-321.070	-148.033	-0.388	-0.032
-320.056	-200.000	0.045	-0.555
-319.041	-21.692	-0.539	-0.326
-318.026	800.000	0.172	0.584
-317.012	-18.824	0.184	-0.114
-315.997	134.570	0.398	0.513
-314.983	-170.326	-1.124	0.039
-313.968	800.000	-0.263	-0.737
-312.953	204.987	-0.262	-0.404
-311.939	21.475	0.879	-0.711
-310.924	64.563	0.470	-0.471
-309.910	-200.000	-0.022	-0.321
-308.895	29.719	-0.366	0.310
-307.880	2.139	0.399	-0.286
-306.866	86.227	0.237	-0.259
-305.851	800.000	-0.136	-0.423
-304.837	117.215	0.129	-0.158
-303.822	-65.906	-0.696	0.277
-302.807	-200.000	-0.041	-0.632
-301.793	137.340	0.516	-0.672
-300.778	-200.000	-0.059	-0.727
-299.764	-30.234	0.070	-0.040
-298.749	724.366	-0.149	0.395
-297.735	-46.198	0.136	0.067
-296.720	433.610	-0.612	1.321
-295.705	23.069	0.300	0.244
-294.691	-30.682	0.988	-0.556
-293.676	-80.591	-0.349	-0.116
-292.662	-170.080	0.331	-0.012
-291.647	800.000	0.120	-0.477
-290.632	-200.000	0.024	-0.440
-289.618	800.000	0.126	-0.400
-288.603	800.000	-0.214	-0.921
-287.589	-65.143	-0.454	0.182
-286.574	-37.374	-0.856	0.454
-285.559	-200.000	0.029	0.941
-284.545	-24.740	0.249	0.147
-283.530	-17.546	-0.444	-0.277
-282.516	145.634	0.509	-0.678
-281.501	-21.945	-0.452	0.273
-280.486	-64.113	1.032	-0.418
-279.472	-20.247	0.556	-0.340
-278.457	-200.000	0.017	0.133
-277.443	-11.759	-0.449	0.293
-276.428	240.675	-0.381	0.631
-275.413	-200.000	0.057	0.709
-274.399	800.000	0.156	0.488
-273.384	367.616	0.436	0.875
-272.370	-91.343	0.499	0.142
-271.355	-80.694	0.527	-0.174
-270.340	144.076	-0.200	0.265
-269.326	109.831	-0.199	0.236
-268.311	-124.347	0.544	0.084
-267.297	-200.000	-0.025	-0.337
-266.282	242.860	0.105	0.175
-265.267	-79.418	-0.816	0.274
-264.253	-104.394	0.446	-0.102
-263.238	-121.548	0.140	-0.023
-262.224	327.842	-0.221	0.421
-261.209	19.115	-0.238	-0.190
-260.195	432.788	-0.184	0.396
-259.180	-200.000	0.157	-0.865
-258.165	-81.910	-0.620	0.201
-257.151	-125.066	-0.723	0.110
-256.136	800.000	-0.148	0.469
-255.122	154.285	-0.074	-0.100
-254.107	-200.000	-0.116	0.525
-253.092	-38.954	0.486	-0.254
-252.078	-136.881	-0.560	-0.064
-251.063	-148.322	0.699	0.057
-250.049	55.712	0.356	-0.342
-249.034	800.000	0.148	-0.455
-248.019	207.838	-0.306	-0.474
-247.005	112.714	0.303	-0.364
-245.990	-66.848	0.402	0.158
-244.976	-181.927	-1.301	0.025
-243.961	188.892	0.479	0.711
-242.946	263.918	-0.241	-0.415
-241.932	186.254	0.291	-0.429
-240.917	-186.771	-0.244	-0.003
-239.903	209.645	0.247	0.383
-238.888	65.156	0.204	-0.204
-237.873	10.133	0.683	0.515
-236.859	153.087	0.605	0.820
-235.844	552.421	0.107	-0.255
-234.830	160.067	-0.412	0.570
-233.815	17.569	0.440	-0.347
-232.800	-200.000	-0.236	1.095
-231.786	5.698	-0.170	-0.125
-230.771	-200.000	-0.003	0.287
-229.757	198.965	0.094	0.142
-228.742	101.249	0.150	0.173
-227.727	-61.671	0.423	0.176
-226.713	37.149	0.142	-0.124
-225.698	-102.840	0.199	-0.047
-224.684	-30.846	-0.911	0.510
-223.669	800.000	0.017	0.060
-222.655	-27.915	0.083	-0.048
-221.640	-30.014	-0.665	0.375
-220.625	23.242	-0.200	-0.162
-219.611	245.790	0.182	-0.303
-218.596	242.837	0.268	0.444
-217.582	-200.000	-0.039	-0.551
-216.567	232.503	0.450	0.732
-215.552	240.830	-0.299	-0.493
-214.538	-110.069	0.202	-0.042
-213.523	32.065	-0.508	0.434
-212.509	60.614	0.675	0.662
-211.494	-132.132	0.521	-0.067
-210.479	191.096	0.124	-0.185
-209.465	11.942	-0.701	0.534
-208.450	12.290	0.382	-0.291
-207.436	-131.853	1.039	-0.135
-206.421	-32.309	-0.285	0.158
-205.406	26.828	-0.245	0.203
-204.392	-133.218	0.781	0.098
-203.377	23.088	-0.284	0.231
-202.363	800.000	-0.233	0.653
-201.348	-140.631	-0.657	-0.067
-200.333	-14.928	0.372	-0.236
-199.319	435.919	0.368	0.793
-198.304	-129.181	-0.288	0.040
-197.290	-171.103	0.507	0.017
-196.275	-88.527	-1.041	0.307
-195.260	-142.651	0.449	-0.043
-194.246	428.057	0.179	-0.382
-193.231	800.000	0.108	0.307
-192.217	-200.000	0.017	0.445
-191.202	-88.554	-0.254	0.075
-190.187	662.960	-0.094	0.240
-189.173	-200.000	0.097	0.647
-188.158	189.290	-0.281	-0.416
-187.144	-26.230	1.023	-0.595
-186.129	-200.000	0.032	-0.183
-185.114	-200.000	-0.005	0.670
-184.100	189.179	-0.287	0.426
-183.085	-3.793	-0.456	-0.314
-182.071	-108.902	0.494	0.104
-181.056	43.347	-0.085	-0.077
-180.042	-200.000	-0.009	-0.150
-179.027	-20.974	-1.414	-0.857
-178.012	-74.857	-0.225	0.080
-176.998	-160.127	-0.396	-0.021
-175.983	195.118	-0.049	0.074
-174.969	233.875	0.221	-0.360
-173.954	174.967	0.413	-0.591
-172.939	543.437	0.289	-0.683
-171.925	-22.117	0.311	0.186
-170.910	800.000	0.155	0.668
-169.896	267.908	-0.141	-0.244
-168.881	6.518	-0.613	-0.450
-167.866	222.427	0.122	-0.194
-166.852	93.002	-0.208	0.232
-165.837	-114.999	-0.311	0.058
-164.823	-63.023	0.598	-0.244
-163.808	354.912	-0.447	0.879
-162.793	-200.000	-0.540	-0.001
-161.779	-35.989	-0.445	0.238
-160.764	147.619	0.236	0.314
-159.750	313.087	-0.040	-0.075
-158.735	-200.000	0.032	0.148
-157.720	-70.956	-0.655	0.244
-156.706	-97.380	0.340	0.087
-155.691	38.612	0.260	0.229
-154.677	-200.000	-0.038	0.304
-153.662	515.676	0.187	0.431
-152.647	-166.901	-0.264	-0.011
-151.633	124.017	-0.155	-0.193
-150.618	-24.182	0.138	0.081
-149.604	-200.000	0.012	0.982
-148.589	116.225	-0.454	-0.549
-147.574	3.895	0.328	-0.237
-146.560	-113.665	-0.387	-0.075
-145.545	198.625	0.223	-0.338
-144.531	-79.009	0.796	0.267
-143.516	-53.623	0.486	0.219
-142.502	-200.000	0.101	-1.255
-141.487	-55.778	0.434	0.192
-140.472	166.214	0.060	0.084
-139.458	-200.000	0.136	-1.133
-138.443	800.000	0.046	0.158
-137.429	-187.176	-0.723	-0.010
-136.414	800.000	-0.053	0.225
-135.399	800.000	0.111	0.451
-134.385	288.002	0.281	-0.501
-133.370	-200.000	0.062	-0.334
-132.356	-53.801	-0.370	0.167
-131.341	96.248	0.326	0.368
-130.326	-121.634	0.273	-0.045
-129.312	800.000	-0.171	-0.571
-128.297	79.122	-0.352	-0.373
-127.283	193.092	-0.523	0.781
-126.268	-200.000	0.083	0.637
-125.253	-200.000	0.026	0.121
-124.239	-165.758	0.466	-0.020
-123.224	-97.024	0.745	-0.193
-122.210	149.685	0.378	0.505
-121.195	800.000	-0.085	-0.284
-120.180	435.098	0.001	0.003
-119.166	-68.100	-0.533	0.205
-118.151	147.487	-0.293	-0.390
-117.137	-169.217	-0.364	-0.013
-116.122	-200.000	0.034	0.312
-115.107	-67.396	0.703	0.273
-114.093	-53.746	0.904	0.407
-113.078	-50.484	0.340	-0.158
-112.064	-85.341	1.019	0.314
-111.049	25.447	-0.518	0.425
-110.034	366.176	0.116	0.230
-109.020	-200.000	0.133	0.966
-108.005	-129.166	0.829	-0.114
-106.991	53.371	0.491	0.464
-105.976	38.829	0.694	0.612
-104.962	-132.445	0.699	0.089
-103.947	-86.701	0.523	0.158
-102.932	-200.000	0.089	0.498
-101.918	-200.000	0.073	0.615
-100.903	8.452	1.112	-0.825
-99.889	3.549	-1.118	0.804
-98.874	35.403	-0.462	-0.399
-97.859	-96.292	0.415	-0.108
-96.845	-200.000	-0.089	0.956
-95.830	25.469	-0.389	0.319
-94.816	222.059	0.188	-0.299
-93.801	-4.052	0.177	0.121
-92.786	-70.152	-0.043	0.016
-91.772	800.000	0.269	0.916
-90.757	216.791	0.480	0.753
-89.743	130.395	0.226	0.286
-88.728	-32.725	-1.044	-0.573
-87.713	-200.000	0.059	0.662
-86.699	493.308	0.168	-0.379
-85.684	163.636	-0.098	-0.136
-84.670	-186.690	0.308	0.004
-83.655	29.370	-0.219	-0.183
-82.640	209.361	-0.360	0.556
-81.626	-200.000	0.000	-0.090
-80.611	640.829	0.170	0.427
-79.597	15.032	-0.262	-0.202
-78.582	-41.139	0.243	-0.124
-77.567	-200.000	0.062	-0.365
-76.553	-138.166	0.547	-0.060
-75.538	-35.925	-0.939	0.501
-74.524	104.756	0.469	0.544
-73.509	4.069	0.627	-0.452
-72.494	107.118	-0.333	0.390
-71.480	-200.000	-0.048	0.519
-70.465	151.965	0.609	-0.818
-69.451	-84.399	0.463	-0.144
-68.436	-86.033	-0.426	0.130
-67.422	-33.749	0.978	-0.531
-66.407	-200.000	0.014	-0.308
-65.392	-93.162	0.542	0.148
-64.378	43.074	-0.473	0.425
-63.363	131.748	0.632	-0.801
-62.349	-200.000	-0.023	-0.441
-61.334	77.730	-0.494	-0.518
-60.319	524.813	0.291	0.675
-59.305	-200.000	-0.113	-0.724
-58.290	800.000	0.362	1.232
-57.276	364.524	1.255	2.485
-56.261	-200.000	95.378	592.313
-55.246	675.530	1353.530	3460.410
-54.232	204.327	2516.558	3839.464
-53.217	118.235	2140.794	2598.607
-52.203	43.026	1695.094	1521.827
-51.188	35.869	1509.176	1306.498
-50.173	33.372	1482.861	1266.985
-49.159	53.216	1534.525	1446.687
-48.144	54.065	1550.681	1467.644
-47.130	35.798	1510.286	1306.766
-46.115	32.702	1496.045	1273.521
-45.100	32.757	1492.486	1270.812
-44.086	32.597	1490.781	1268.232
-43.071	32.373	1490.282	1266.247
-42.057	32.554	1487.176	1264.778
-41.042	32.693	1485.394	1264.141
-40.027	32.520	1484.728	1262.364
-39.013	32.606	1483.075	1261.484
-37.998	32.428	1481.619	1259.003
-36.984	32.615	1480.012	1258.837
-35.969	32.631	1478.837	1257.895
-34.954	32.492	1478.406	1256.551
-33.940	32.636	1476.026	1255.440
-32.925	32.853	1473.850	1254.984
-31.911	32.723	1474.027	1254.219
-30.896	32.611	1471.972	1251.675
-29.881	32.643	1470.261	1250.386
-28.867	32.640	1469.885	1249.995
-27.852	32.564	1467.508	1247.420
-26.838	32.710	1465.378	1246.526
-25.823	32.503	1464.980	1244.773
-24.809	32.755	1463.218	1244.886
-23.794	32.458	1461.804	1241.678
-22.779	32.413	1461.348	1240.943
-21.765	32.789	1459.140	1241.494
-20.750	32.690	1458.645	1240.369
-19.736	32.384	1458.774	1238.416
-18.721	32.459	1457.220	1237.543
-17.706	32.460	1456.474	1236.868
-16.692	32.643	1453.857	1235.797
-15.677	32.651	1453.624	1235.604
-14.663	32.773	1451.835	1234.829
-13.648	32.390	1451.959	1232.381
-12.633	32.436	1451.352	1232.118
-11.619	32.439	1449.484	1230.502
-10.604	32.698	1448.227	1231.075
-9.590	32.640	1447.490	1230.021
-8.575	32.383	1447.885	1228.630
-7.560	32.434	1446.655	1227.872
-6.546	32.318	1446.597	1227.017
-5.531	32.482	1445.011	1226.691
-4.517	32.312	1444.580	1225.167
-3.502	32.472	1442.969	1224.796
-2.487	32.462	1441.193	1223.173
-1.473	32.372	1441.156	1222.511
-0.458	32.729	1438.238	1222.302
0.556	33.421	1430.392	1209.901
1.571	30.357	1404.039	1168.263
2.586	26.568	1345.266	1096.360
3.600	24.917	1265.338	1021.715
4.615	23.620	1218.128	976.382
5.629	19.880	1163.503	912.822
6.644	11.240	1078.081	803.323
7.659	4.427	1036.660	740.010
8.673	3.276	1031.731	730.961
9.688	3.404	1027.515	728.514
10.702	3.075	1026.754	726.358
11.717	3.166	1023.738	724.591
12.731	6.191	1028.251	742.011
13.746	15.710	1041.076	796.484
14.761	22.826	1050.129	837.212
15.775	24.674	1049.741	845.581
16.790	24.250	1049.939	843.657
17.804	23.927	1049.861	841.993
18.819	23.782	1047.904	839.664
19.834	23.710	1048.178	839.469
20.848	23.543	1047.461	838.032
21.863	23.854	1046.450	838.614
22.877	23.918	1045.912	838.411
23.892	23.692	1045.360	836.829
24.907	23.726	1044.969	836.605
25.921	23.503	1044.228	834.887
26.936	23.750	1042.885	834.902
27.950	23.373	1042.368	832.641
28.965	23.191	1041.433	830.965
29.980	23.304	1040.120	830.377
30.994	23.731	1037.271	830.023
32.009	23.731	1037.623	830.230
33.023	23.676	1037.074	829.461
34.038	23.509	1036.213	827.919
35.053	23.650	1034.813	827.384
36.067	23.485	1034.114	825.984
37.082	23.370	1034.219	825.458
38.096	23.288	1033.035	824.059
39.111	23.331	1033.151	824.279
40.126	23.702	1031.047	824.250
41.140	23.552	1030.773	823.262
42.155	23.289	1028.124	819.857
43.169	22.775	1028.615	817.795
44.184	22.988	1028.030	818.243
45.199	23.068	1025.494	816.522
46.213	22.828	1024.905	814.875
47.228	22.749	1025.815	815.159
48.242	23.431	1023.984	816.777
49.257	23.691	1023.320	817.370
50.271	23.823	1022.200	817.011
51.286	23.716	1021.968	816.261
52.301	23.824	1021.484	816.298
53.315	23.853	1020.865	815.867
54.330	23.607	1020.029	813.996
55.344	23.678	1018.405	812.952
56.359	23.483	1017.244	811.065
57.374	23.529	1016.921	810.942
58.388	23.451	1016.140	809.893
59.403	23.437	1014.130	808.158
60.417	23.280	1014.482	807.648
61.432	23.091	1013.912	806.261
62.447	23.213	1013.146	806.139
63.461	23.068	1013.058	805.335
64.476	22.965	1011.980	803.938
65.490	22.838	1011.070	802.567
66.505	22.767	1010.146	801.441
67.520	22.872	1009.958	801.695
68.534	22.877	1008.437	800.443
69.549	22.910	1008.869	800.862
70.563	22.744	1007.525	798.974
71.578	22.381	1006.829	796.710
72.593	22.319	1005.485	795.296
73.607	22.301	1003.807	793.817
74.622	22.382	1003.120	793.567
75.636	22.364	1001.847	792.410
76.651	22.331	1002.159	792.435
77.666	22.568	1001.877	793.209
78.680	22.616	1000.875	792.564
79.695	22.908	999.140	792.427
80.709	22.631	999.271	791.220
81.724	22.773	998.639	791.288
82.739	22.633	998.060	790.129
83.753	22.968	996.609	790.411
84.768	23.283	996.156	791.391
85.782	23.752	996.237	793.477
86.797	24.157	995.390	794.542
87.812	24.053	994.800	793.537
88.826	23.819	994.053	791.830
89.841	23.618	993.039	790.053
90.855	24.100	992.111	791.389
91.870	24.145	991.148	790.751
92.884	24.109	989.768	789.420
93.899	23.779	989.931	788.017
94.914	24.097	989.010	788.623
95.928	23.790	988.796	787.022
96.943	23.949	987.929	786.969
97.957	23.697	986.989	785.034
98.972	23.648	985.209	783.333
99.987	23.584	984.784	782.644
101.001	24.089	983.900	784.099
102.016	23.693	984.278	782.585
103.030	23.602	982.810	780.948
104.045	23.533	982.414	780.260
105.060	23.752	980.870	779.925
106.074	23.898	979.295	779.243
107.089	23.261	979.928	776.886
108.103	23.558	978.190	776.739
109.118	23.534	977.229	775.803
110.133	23.061	975.882	772.598
111.147	22.952	974.685	771.105
112.162	23.082	973.125	770.371
113.176	22.585	973.960	768.798
114.191	22.850	972.882	769.032
115.206	23.167	971.791	769.482
116.220	23.072	970.041	767.616
117.235	22.550	969.796	765.086
118.249	22.621	969.609	765.181
119.264	22.752	968.481	764.789
120.279	22.664	967.307	763.412
121.293	22.280	967.660	761.960
122.308	22.421	965.857	761.084
123.322	22.560	965.358	761.223
124.337	22.092	964.821	758.714
125.352	22.345	963.400	758.617
126.366	22.500	962.162	758.245
127.381	22.445	961.140	757.135
128.395	22.758	960.124	757.613
129.410	22.895	960.363	758.322
130.424	23.162	958.662	758.056
131.439	22.836	957.962	756.037
132.454	23.169	957.627	757.134
133.468	23.156	957.073	756.574
134.483	22.999	955.393	754.509
135.497	22.989	955.701	754.642
136.512	23.371	954.536	755.282
137.527	23.659	954.342	756.292
138.541	23.323	953.347	754.005
139.556	23.261	952.596	753.080
140.570	23.649	951.572	753.852
141.585	23.464	951.137	752.653
142.600	23.764	951.038	753.782
143.614	24.125	949.572	754.082
144.629	23.877	950.262	753.515
145.643	23.927	949.210	752.825
146.658	23.977	948.396	752.325
147.673	23.796	946.441	749.941
148.687	23.199	946.287	747.233
149.702	23.331	944.459	746.281
150.716	23.470	943.280	745.868
151.731	23.180	942.055	743.615
152.746	23.554	940.906	744.211
153.760	23.467	940.904	743.780
154.775	23.460	940.857	743.646
155.789	23.554	939.881	743.205
156.804	23.525	939.259	742.525
157.819	23.361	937.986	740.766
158.833	23.979	937.132	742.606
159.848	23.683	936.270	740.624
160.862	24.191	936.173	742.602
161.877	24.080	934.985	741.128
162.892	23.649	934.149	738.611
163.906	23.328	933.526	736.717
164.921	23.329	932.698	736.002
165.935	23.429	931.261	735.218
166.950	23.271	930.852	734.173
167.964	23.457	929.745	734.005
168.979	23.321	929.343	733.061
169.994	23.410	927.085	731.584
171.008	23.106	927.713	730.760
172.023	23.648	924.880	730.694
173.037	23.786	925.174	731.430
174.052	24.156	924.412	732.285
175.067	23.807	924.221	730.631
176.081	23.362	922.480	727.367
177.096	23.213	921.247	725.719
178.110	22.833	920.940	723.853
179.125	22.833	919.610	722.746
180.140	22.833	918.363	721.700
181.154	23.059	917.497	721.879
182.169	23.105	917.913	722.330
183.183	23.312	918.131	723.284
184.198	23.841	917.368	724.777
185.213	23.857	916.338	723.966
186.227	23.408	916.240	721.994
187.242	23.701	915.341	722.412
188.256	23.750	914.619	721.978
189.271	23.670	914.544	721.532
190.286	23.864	912.542	720.675
191.300	23.637	912.028	719.283
192.315	23.042	911.476	716.376
193.329	22.591	910.700	713.877
194.344	22.751	909.040	713.157
195.359	22.756	909.342	713.353
196.373	23.325	908.675	715.065
197.388	23.628	908.530	716.110
198.402	23.517	908.906	715.894
199.417	23.725	908.237	716.142
200.432	24.287	907.874	718.056
201.446	24.133	907.275	716.900
202.461	23.899	907.041	715.707
203.475	24.191	906.643	716.506
204.490	24.134	905.472	715.287
205.504	23.133	903.936	709.995
206.519	23.487	902.632	710.329
207.534	23.693	902.572	711.045
208.548	23.792	902.526	711.340
209.563	23.627	901.426	709.752
210.577	23.710	900.443	709.244
211.592	23.822	900.328	709.540
212.607	23.770	901.157	709.924
213.621	24.005	900.362	710.172
214.636	23.958	898.929	708.791
215.650	24.153	897.943	708.727
216.665	23.811	898.286	707.572
217.680	24.128	896.591	707.433
218.694	24.023	897.506	707.675
219.709	24.036	895.907	706.405
220.723	23.714	895.643	704.854
221.738	23.574	894.724	703.516
222.753	23.978	892.904	703.620
223.767	23.322	893.168	701.169
224.782	24.021	891.845	702.833
225.796	23.577	892.947	701.881
226.811	23.792	892.199	702.079
227.826	23.850	891.226	701.482
228.840	23.662	888.663	698.664
229.855	23.157	889.569	697.324
230.869	23.627	889.042	698.699
231.884	23.587	887.955	697.625
232.899	23.364	887.078	695.999
233.913	23.589	886.999	696.758
234.928	23.536	887.270	696.701
235.942	23.045	885.247	693.129
236.957	23.321	883.963	693.142
237.972	22.984	883.197	691.161
238.986	22.895	883.760	691.194
240.001	22.869	882.711	690.210
241.015	23.204	882.243	691.092
242.030	22.953	881.585	689.534
243.045	23.419	880.510	690.451
244.059	23.482	880.401	690.549
245.074	23.639	879.502	690.393
246.088	23.400	879.022	689.024
247.103	23.670	878.018	689.224
248.117	24.075	878.739	691.305
249.132	24.418	877.844	691.870
250.147	24.610	878.081	692.739
251.161	24.749	878.872	693.840
252.176	24.820	877.352	692.856
253.190	24.936	876.358	692.457
254.205	25.105	876.173	692.904
255.220	24.993	875.845	692.150
256.234	25.037	874.154	690.921
257.249	24.683	873.311	688.828
258.263	24.684	873.400	688.844
259.278	24.550	873.317	688.201
260.293	24.517	872.841	687.636
261.307	24.770	871.329	687.358
262.322	24.727	872.188	687.811
263.336	24.761	871.214	687.112
264.351	24.535	870.143	685.336
265.366	24.486	868.933	684.136
266.380	24.344	868.544	683.227
267.395	24.470	868.874	683.907
268.409	25.116	867.442	685.191
269.424	24.326	866.769	681.581
270.439	24.828	866.200	682.988
271.453	24.678	866.035	682.224
272.468	24.725	864.345	681.014
273.482	24.683	864.590	680.984
274.497	24.513	864.832	680.469
275.512	24.561	863.631	679.646
276.526	24.269	862.316	677.443
277.541	24.345	862.825	678.070
278.555	24.753	861.781	678.740
279.570	24.704	861.574	678.332
280.585	24.715	861.435	678.200
281.599	25.054	859.189	677.655
282.614	24.692	859.466	676.445
283.628	24.538	858.475	675.021
284.643	24.050	858.932	673.478
285.657	24.599	857.219	674.146
286.672	24.262	856.867	672.537
287.687	24.422	855.799	672.243
288.701	24.306	856.348	672.176
289.716	24.310	856.527	672.273
290.730	24.345	855.564	671.592
291.745	24.474	854.015	670.798
292.760	24.578	853.122	670.431
293.774	24.855	853.271	671.527
294.789	25.001	852.869	671.697
295.803	24.976	852.479	671.240
296.818	24.821	851.750	670.025
297.833	24.738	850.672	668.806
298.847	24.868	849.301	668.155
299.862	24.606	849.226	667.057
300.876	24.494	849.492	666.791
301.891	24.776	847.969	666.588
302.906	25.420	847.758	668.759
303.920	25.649	847.252	669.153
304.935	25.086	847.684	667.339
305.949	25.042	847.132	666.683
306.964	25.106	846.848	666.640
307.979	24.505	846.263	663.887
308.993	24.707	845.924	664.312
310.008	24.971	843.796	663.559
311.022	25.189	843.166	663.812
312.037	24.906	843.465	662.941
313.052	24.619	843.313	661.699
314.066	24.656	842.750	661.336
315.081	24.449	840.501	658.752
316.095	24.395	840.716	658.662
317.110	24.651	839.368	658.490
318.125	24.490	839.917	658.268
319.139	24.517	838.385	657.108
320.154	24.302	836.703	654.942
321.168	23.713	836.562	652.610
322.183	24.040	837.288	654.320
323.197	24.485	836.785	655.505
324.212	24.285	836.964	654.854
325.227	24.355	836.071	654.352
326.241	24.199	835.648	653.390
327.256	24.129	834.834	652.442
328.270	24.187	833.724	651.728
329.285	24.333	833.369	651.929
330.300	24.091	831.706	649.684
331.314	23.849	832.015	648.986
332.329	24.293	831.157	649.878
333.343	24.160	831.346	649.483
334.358	24.625	830.771	650.670
335.373	24.505	830.899	650.275
336.387	24.742	829.889	650.290
337.402	24.770	828.928	649.580
338.416	24.689	829.331	649.545
339.431	25.206	829.386	651.410
340.446	25.543	828.249	651.681
341.460	25.438	827.603	650.732
342.475	25.477	827.129	650.444
343.489	25.534	827.174	650.630
344.504	25.494	826.545	649.931
345.519	25.168	826.819	648.910
346.533	25.766	825.381	649.883
347.548	25.340	825.066	648.040
348.562	25.541	824.093	647.943
349.577	25.236	823.144	646.040
350.592	25.304	823.193	646.266
351.606	24.993	822.490	644.540
352.621	24.673	821.707	642.718
353.635	25.331	821.386	644.776
354.650	24.790	821.100	642.552
355.665	24.932	820.964	642.896
356.679	24.585	820.398	641.152
357.694	25.016	819.150	641.662
358.708	24.947	818.735	641.034
359.723	24.781	818.117	639.901
360.738	25.138	817.343	640.516
361.752	25.026	817.171	639.924
362.767	24.949	815.930	638.619
363.781	25.270	816.648	640.271
364.796	25.430	816.303	640.516
365.810	25.816	816.206	641.757
366.825	25.546	816.239	640.763
367.840	25.495	815.850	640.220
368.854	25.500	815.090	639.586
369.869	25.352	814.572	638.594
370.883	25.301	813.652	637.636
371.898	24.837	813.056	635.464
372.913	25.123	812.596	636.064
373.927	25.565	811.621	636.811
374.942	25.743	810.282	636.335
375.956	25.425	810.149	635.049
376.971	26.090	809.257	636.641
377.986	25.167	809.246	633.319
379.000	25.912	809.027	635.720
380.015	25.668	808.398	634.309
381.029	25.803	808.267	634.626
382.044	25.833	806.765	633.495
383.059	25.669	806.464	632.627
384.073	25.739	806.286	632.676
385.088	26.082	805.289	633.044
386.102	25.351	805.522	630.602
387.117	25.270	803.883	628.980
388.132	25.041	802.908	627.359
389.146	25.299	802.992	628.272
390.161	25.061	803.375	627.683
391.175	25.004	803.047	627.174
392.190	25.976	803.020	630.498
393.205	25.784	802.750	629.557
394.219	25.182	801.290	626.255
395.234	24.774	799.902	623.692
396.248	24.362	799.671	622.023
397.263	24.904	798.283	622.773
398.278	25.156	798.736	623.950
399.292	24.828	798.163	622.306
400.307	24.526	797.443	620.640
401.321	24.472	796.977	620.032
402.336	24.513	797.619	620.620
403.350	24.827	796.422	620.724
404.365	25.252	796.791	622.432
405.380	25.669	796.406	623.519
406.394	26.245	796.140	625.251
407.409	25.857	796.710	624.301
408.423	26.307	796.012	625.256
409.438	26.263	795.633	624.751
410.453	25.975	795.242	623.391
411.467	25.836	793.955	621.850
412.482	25.787	793.076	620.935
413.496	26.554	791.930	622.624
414.511	26.218	792.977	622.234
415.526	26.258	791.929	621.494
416.540	25.656	792.843	620.083
417.555	26.086	791.804	620.695
418.569	25.957	790.857	619.455
419.584	25.783	790.645	618.636
420.599	25.965	789.706	618.472
421.613	160.257	1369.299	1792.893
422.628	138.759	1453.796	1792.956
