DTS Sentinel unit serial number:	SN413079Multiplexer serial number:	ORYXHardware model number:	OX4-SRSoftware version number:	ORYX F/W v4.00 Oryx Data Collector v3.7.2.0data status	okinstallation	princeton_trtdifferential loss correction	single-endedforward channel	channel 3reverse channel	N/Adate	2019/09/12time	19:51:04forward acquisition time	15.00reverse acquisition time	0.00gamma	496.2192k internal	0.2323k external	0.2323temperature offset calibration	1.0115default loss term (dB/km)	0.3790temperature slope calibration	1.0000multiplexer offset coefficient	1.0000multiplexer slope coefficient	1.0000fibre end	0.00T internal ref (°C)	31.94T ext. ref 1 (°C)	3.33T ext. ref 2 (°C)	26.55length (m)	temperature (°C)	Stokes	anti-Stokes-747.200	-39.827	0.231	-0.122
-746.185	270.743	0.429	0.762
-745.171	-64.317	-0.633	0.260
-744.156	-200.000	0.021	0.706
-743.142	142.885	-0.307	0.413
-742.127	-15.163	-0.521	0.337
-741.112	248.896	-0.409	0.699
-740.098	-200.000	0.005	-0.438
-739.083	398.911	0.225	-0.476
-738.069	800.000	-0.091	0.334
-737.054	-47.719	-0.331	-0.162
-736.039	-200.000	-0.120	0.848
-735.025	121.092	-0.539	0.677
-734.010	-70.925	-0.208	-0.079
-732.996	800.000	-0.037	-0.106
-731.981	422.062	-0.681	-1.476
-730.966	-73.645	0.657	0.242
-729.952	-52.034	0.358	0.168
-728.937	800.000	-0.213	-0.658
-727.923	-131.677	-0.671	-0.089
-726.908	-20.967	0.494	0.306
-725.894	0.148	0.713	-0.513
-724.879	800.000	-0.217	-0.668
-723.864	-91.703	0.431	-0.124
-722.850	-144.469	0.394	-0.037
-721.835	493.798	0.247	-0.572
-720.821	54.852	0.677	-0.659
-719.806	-125.021	-0.833	0.129
-718.791	-68.971	0.233	0.091
-717.777	-200.000	-0.093	-0.529
-716.762	570.727	-0.338	0.830
-715.748	-15.880	0.918	0.590
-714.733	-140.535	0.443	-0.046
-713.718	-44.112	-0.284	-0.144
-712.704	800.000	-0.143	0.544
-711.689	800.000	-0.061	0.195
-710.675	-11.574	0.307	0.204
-709.660	79.921	0.417	-0.452
-708.645	-78.479	0.054	0.019
-707.631	-56.139	-0.401	0.180
-706.616	53.075	0.693	-0.669
-705.602	800.000	0.417	-1.748
-704.587	147.719	0.649	-0.882
-703.572	57.239	-0.532	0.524
-702.558	-43.101	-0.534	0.273
-701.543	-88.535	0.121	0.037
-700.529	800.000	0.180	-0.770
-699.514	225.809	0.260	-0.425
-698.499	52.349	-0.225	0.216
-697.485	-151.264	-0.294	0.022
-696.470	-112.511	0.449	0.090
-695.456	-200.000	0.269	1.233
-694.441	-200.000	0.109	-0.613
-693.426	170.228	0.180	0.259
-692.412	-72.987	0.894	-0.331
-691.397	-53.921	-0.762	-0.350
-690.383	330.895	0.090	-0.175
-689.368	85.198	-0.180	-0.199
-688.354	10.895	0.086	0.067
-687.339	-30.563	-0.614	0.351
-686.324	431.664	-0.306	-0.668
-685.310	-95.310	0.190	-0.052
-684.295	200.530	0.196	0.304
-683.281	-200.000	-0.012	0.589
-682.266	800.000	-0.220	0.642
-681.251	-41.749	-0.452	-0.234
-680.237	-103.179	0.658	0.157
-679.222	-76.463	0.325	-0.115
-678.208	-32.373	-0.799	0.449
-677.193	-72.095	-0.600	0.224
-676.178	-37.462	-0.460	-0.248
-675.164	-200.000	-0.033	-0.287
-674.149	-100.241	-0.348	0.087
-673.135	599.275	-0.070	0.175
-672.120	795.027	0.222	-0.614
-671.105	-188.212	0.317	-0.004
-670.091	102.279	-0.201	0.236
-669.076	-200.000	-0.076	0.618
-668.062	-2.922	-0.259	-0.182
-667.047	-200.000	0.057	-0.585
-666.032	252.775	-0.519	0.892
-665.018	800.000	0.144	-0.441
-664.003	-123.185	-0.421	-0.068
-662.989	-200.000	0.094	0.780
-661.974	720.464	0.013	0.035
-660.959	800.000	0.106	-0.317
-659.945	-200.000	0.007	0.401
-658.930	-79.808	-0.376	0.127
-657.916	161.114	0.515	-0.725
-656.901	-116.252	-0.793	-0.148
-655.886	-51.315	0.409	-0.193
-654.872	-118.501	0.309	-0.055
-653.857	-40.203	-0.221	0.116
-652.843	110.990	-0.671	-0.813
-651.828	-200.000	0.088	-0.421
-650.814	-40.833	0.063	-0.033
-649.799	50.788	-0.372	0.355
-648.784	127.436	0.093	-0.119
-647.770	598.655	0.199	-0.497
-646.755	-126.613	1.003	0.150
-645.741	90.094	-0.460	-0.518
-644.726	-200.000	-0.022	-0.652
-643.711	-24.823	0.214	0.128
-642.697	-160.027	1.072	0.059
-641.682	137.567	-0.070	0.092
-640.668	800.000	-0.146	0.543
-639.653	186.339	0.075	0.112
-638.638	35.292	-0.074	-0.065
-637.624	-10.650	0.307	0.205
-636.609	-200.000	-0.138	-1.386
-635.595	228.264	-0.132	0.215
-634.580	800.000	0.146	-0.520
-633.565	-148.381	0.501	0.041
-632.551	146.568	0.111	0.150
-631.536	289.867	-0.261	-0.476
-630.522	655.545	0.252	0.651
-629.507	53.921	-0.437	0.422
-628.492	221.401	0.100	-0.161
-627.478	-72.954	0.354	-0.131
-626.463	39.434	0.708	0.638
-625.449	-200.000	0.060	0.276
-624.434	800.000	0.136	0.383
-623.419	298.233	-0.413	0.764
-622.405	76.037	0.615	-0.654
-621.390	127.765	-0.109	-0.139
-620.376	9.436	-0.613	0.466
-619.361	41.229	-0.732	0.665
-618.346	-63.482	-0.123	-0.051
-617.332	-180.588	1.249	-0.026
-616.317	-113.471	-1.010	0.199
-615.303	-200.000	-0.059	0.344
-614.288	-200.000	-1.054	-0.000
-613.273	800.000	-0.280	-0.925
-612.259	-13.570	-0.045	0.029
-611.244	168.274	0.174	0.249
-610.230	-72.720	-0.546	-0.202
-609.215	120.974	-0.348	0.435
-608.201	-120.253	-0.307	-0.053
-607.186	800.000	0.283	-0.972
-606.171	32.684	-0.276	0.240
-605.157	-90.217	-0.393	0.115
-604.142	-5.822	0.164	-0.113
-603.128	-122.335	0.404	-0.066
-602.113	567.034	0.272	0.663
-601.098	269.100	-0.172	0.303
-600.084	800.000	-0.189	-0.544
-599.069	-23.767	0.251	-0.151
-598.055	-69.354	0.152	0.059
-597.040	81.104	-0.564	-0.612
-596.025	-200.000	0.012	1.218
-595.011	122.534	-0.630	0.791
-593.996	495.193	0.293	-0.676
-592.982	800.000	0.269	-1.058
-591.967	216.256	-0.458	-0.731
-590.952	-92.093	-0.963	0.273
-589.938	-165.304	-0.123	0.005
-588.923	92.944	-0.109	-0.123
-587.909	-90.948	0.835	-0.241
-586.894	-85.075	-0.830	-0.261
-585.879	136.664	-0.381	-0.499
-584.865	-153.539	-0.579	-0.040
-583.850	-82.158	-0.531	-0.174
-582.836	170.167	-0.445	-0.639
-581.821	-187.307	0.627	-0.009
-580.806	-92.226	0.118	-0.033
-579.792	-31.697	-0.172	0.097
-578.777	-62.654	0.412	0.171
-577.763	-200.000	0.088	0.687
-576.748	4.251	-0.333	0.244
-575.733	468.829	-0.283	-0.638
-574.719	49.639	-0.384	-0.363
-573.704	-65.572	0.408	-0.164
-572.690	-103.832	-0.144	0.034
-571.675	800.000	0.261	0.876
-570.661	-200.000	-0.001	-0.201
-569.646	587.716	0.123	-0.304
-568.631	-103.626	-0.462	0.109
-567.617	-82.489	0.407	-0.133
-566.602	-17.235	0.301	-0.190
-565.588	-5.187	0.604	0.417
-564.573	-166.076	-0.645	-0.028
-563.558	108.008	0.179	0.214
-562.544	268.302	-0.367	-0.645
-561.529	-200.000	-0.117	-1.157
-560.515	138.962	0.371	0.488
-559.500	-200.000	0.071	0.700
-558.485	-71.606	-0.597	0.223
-557.471	534.869	-0.224	-0.533
-556.456	-24.862	-0.503	0.299
-555.442	137.643	0.288	0.378
-554.427	141.198	-0.233	0.309
-553.412	29.943	0.262	-0.224
-552.398	-26.812	0.138	0.081
-551.383	-135.897	-0.864	0.102
-550.369	-135.697	-0.065	0.008
-549.354	-95.698	0.113	0.030
-548.339	-110.155	0.548	-0.115
-547.325	730.425	0.323	-0.866
-546.310	-94.743	-0.110	-0.030
-545.296	151.293	0.258	-0.352
-544.281	-43.485	-1.085	-0.549
-543.266	-200.000	0.019	-0.394
-542.252	-200.000	0.020	0.322
-541.237	-92.583	0.904	0.254
-540.223	437.558	-0.397	0.867
-539.208	-82.445	0.370	-0.121
-538.193	125.109	0.378	-0.477
-537.179	675.678	-0.085	0.221
-536.164	157.300	0.319	-0.443
-535.150	-40.164	0.554	0.289
-534.135	-69.618	-0.364	0.140
-533.121	32.459	0.623	0.539
-532.106	60.587	-0.639	-0.634
-531.091	13.643	-0.466	0.363
-530.077	7.610	-0.460	0.345
-529.062	-100.370	-0.074	-0.018
-528.048	-88.378	0.110	0.033
-527.033	424.226	0.048	-0.103
-526.018	492.106	0.113	0.258
-525.004	-122.127	0.488	-0.080
-523.989	42.733	-0.487	-0.444
-522.975	-92.055	-0.639	-0.181
-521.960	-92.889	-0.328	0.092
-520.945	-194.342	0.226	-0.002
-519.931	-71.582	0.908	0.340
-518.916	-200.000	-0.053	0.399
-517.902	-73.873	-0.382	-0.139
-516.887	15.073	-0.475	-0.373
-515.872	-110.225	-0.166	-0.035
-514.858	-124.121	-0.134	-0.021
-513.843	-113.821	-0.267	-0.052
-512.829	-60.886	0.727	-0.308
-511.814	800.000	-0.072	0.315
-510.799	76.101	0.197	0.209
-509.785	174.155	0.214	-0.309
-508.770	-200.000	0.086	-1.055
-507.756	30.520	-0.367	-0.314
-506.741	-38.123	0.102	-0.054
-505.726	-200.000	0.145	-0.654
-504.712	-200.000	-0.078	-0.411
-503.697	-59.149	-0.730	-0.315
-502.683	-53.575	-0.299	-0.137
-501.668	-200.000	-0.005	-0.346
-500.653	84.516	0.313	0.342
-499.639	-200.000	0.029	-0.184
-498.624	-200.000	0.143	-0.682
-497.610	800.000	0.164	0.482
-496.595	-62.372	-0.576	0.240
-495.581	-200.000	0.031	-0.146
-494.566	111.862	-0.431	0.521
-493.551	-120.703	0.728	-0.123
-492.537	-6.440	-0.537	-0.366
-491.522	-56.938	-0.119	-0.052
-490.508	-179.494	0.863	0.019
-489.493	-142.295	-0.784	-0.077
-488.478	242.392	-0.293	0.490
-487.464	-97.431	0.880	0.229
-486.449	-200.000	-0.089	0.905
-485.435	-126.204	0.696	-0.104
-484.420	-98.844	0.155	0.039
-483.405	298.923	0.426	0.784
-482.391	-200.000	0.101	-0.616
-481.376	-101.655	-0.867	0.210
-480.362	27.533	-0.599	0.503
-479.347	-149.451	0.938	0.074
-478.332	-132.132	0.689	0.089
-477.318	-107.828	-0.134	0.029
-476.303	-200.000	-0.052	0.597
-475.289	168.613	0.143	0.203
-474.274	16.214	0.376	-0.296
-473.259	-113.624	0.399	0.078
-472.245	116.481	0.441	0.540
-471.230	192.138	0.234	-0.353
-470.216	291.972	0.320	-0.583
-469.201	-12.388	-0.340	0.222
-468.186	-157.874	-0.483	-0.029
-467.172	-133.845	0.521	0.065
-466.157	129.789	0.166	-0.211
-465.143	800.000	-0.186	-0.623
-464.128	426.389	0.134	0.289
-463.113	250.562	-0.398	-0.676
-462.099	-200.000	0.035	0.531
-461.084	800.000	-0.176	-0.494
-460.070	218.879	-0.116	-0.184
-459.055	174.140	-0.494	0.714
-458.040	-98.799	-0.745	0.189
-457.026	-114.230	-0.238	0.046
-456.011	713.259	0.195	-0.516
-454.997	0.061	-0.300	0.213
-453.982	-73.478	-0.704	-0.257
-452.968	-200.000	0.042	-0.309
-451.953	211.250	0.216	-0.340
-450.938	-119.517	0.264	-0.046
-449.924	-200.000	-0.001	0.291
-448.909	-34.147	-0.322	-0.176
-447.895	-47.023	-0.891	-0.434
-446.880	-200.000	0.095	0.715
-445.865	-200.000	-0.074	0.830
-444.851	-123.305	-0.481	-0.077
-443.836	35.332	0.716	-0.627
-442.822	-63.582	0.948	-0.388
-441.807	-69.151	0.394	-0.151
-440.792	-22.269	0.882	0.534
-439.778	-200.000	0.141	0.756
-438.763	-200.000	-0.061	0.730
-437.749	84.821	-0.210	0.229
-436.734	34.378	-0.704	-0.613
-435.719	-23.770	0.539	0.322
-434.705	-200.000	0.146	-0.749
-433.690	-70.382	0.684	-0.259
-432.676	-112.833	-0.670	0.133
-431.661	130.863	0.406	-0.519
-430.646	-19.224	0.294	0.182
-429.632	-69.417	-0.985	-0.377
-428.617	188.711	-0.594	-0.887
-427.603	148.143	-0.338	-0.455
-426.588	60.581	0.762	-0.753
-425.573	137.400	0.324	0.423
-424.559	-87.962	0.996	-0.299
-423.544	-200.000	0.021	-0.592
-422.530	-200.000	0.058	0.267
-421.515	-113.319	0.226	0.044
-420.500	800.000	0.241	-0.667
-419.486	-69.871	0.924	-0.352
-418.471	78.947	0.249	-0.266
-417.457	-91.188	0.548	0.157
-416.442	-38.459	1.170	0.617
-415.428	-200.000	-0.074	-0.408
-414.413	-200.000	0.013	-0.213
-413.398	-200.000	0.162	-0.832
-412.384	-200.000	-0.012	0.389
-411.369	-43.196	-0.581	0.293
-410.355	-111.073	-0.272	0.056
-409.340	-55.125	-0.476	0.214
-408.325	-200.000	0.034	0.250
-407.311	82.453	0.969	1.048
-406.296	-200.000	-0.169	0.953
-405.282	-200.000	-0.057	0.278
-404.267	-200.000	0.083	1.061
-403.252	-7.268	0.696	-0.470
-402.238	-95.726	0.722	-0.192
-401.223	-134.388	-0.289	0.035
-400.209	-31.580	-0.635	0.355
-399.194	135.590	0.057	0.074
-398.179	-133.880	-0.783	0.097
-397.165	8.827	-0.189	-0.142
-396.150	3.077	0.330	0.239
-395.136	800.000	-0.118	-0.377
-394.121	-141.698	0.205	-0.020
-393.106	165.646	-0.428	0.604
-392.092	-29.758	0.326	-0.185
-391.077	91.518	0.460	-0.515
-390.063	800.000	-0.068	0.190
-389.048	66.252	0.266	0.270
-388.033	-200.000	-0.082	0.412
-387.019	-200.000	0.028	-0.259
-386.004	84.821	0.487	0.532
-384.990	734.720	0.137	-0.364
-383.975	-25.097	-0.382	0.226
-382.960	-200.000	-0.190	0.848
-381.946	82.608	-0.376	0.406
-380.931	-119.327	0.744	0.129
-379.917	-64.257	-0.450	0.182
-378.902	51.826	-0.833	-0.789
-377.888	-64.806	0.584	0.235
-376.873	800.000	-0.065	0.283
-375.858	10.207	0.351	-0.266
-374.844	-200.000	-0.250	1.506
-373.829	305.588	0.222	0.411
-372.815	21.515	-1.013	0.820
-371.800	-85.945	-0.428	-0.132
-370.785	800.000	-0.142	0.435
-369.771	-123.394	-0.238	-0.038
-368.756	171.353	-0.385	0.550
-367.742	-91.696	0.306	0.087
-366.727	-105.686	-0.267	-0.060
-365.712	-106.237	-1.195	-0.267
-364.698	672.749	-0.109	0.282
-363.683	-200.000	0.118	0.909
-362.669	-4.807	0.401	0.275
-361.654	273.540	-0.169	0.297
-360.639	128.072	-0.099	-0.126
-359.625	-43.061	0.069	0.035
-358.610	24.584	0.182	0.150
-357.596	-200.000	-0.122	0.539
-356.581	81.884	1.046	1.127
-355.566	-200.000	0.017	0.202
-354.552	143.698	-0.079	0.105
-353.537	-99.334	0.339	0.085
-352.523	800.000	-0.280	0.885
-351.508	30.659	0.886	0.754
-350.493	-131.095	-0.273	0.036
-349.479	800.000	0.291	-0.802
-348.464	800.000	0.205	0.853
-347.450	376.183	-0.350	0.710
-346.435	-77.062	-0.622	0.216
-345.420	-149.223	-0.426	-0.034
-344.406	134.600	-0.431	0.556
-343.391	800.000	-0.264	-0.837
-342.377	306.436	0.290	-0.537
-341.362	-67.220	0.761	-0.298
-340.348	-180.414	-0.703	-0.015
-339.333	-195.787	0.419	-0.003
-338.318	351.198	-0.262	-0.515
-337.304	-121.235	-0.597	-0.099
-336.289	-93.465	-0.935	-0.257
-335.275	-68.663	-0.485	0.186
-334.260	662.733	0.201	-0.514
-333.245	144.020	-0.296	-0.393
-332.231	-108.186	-0.429	-0.092
-331.216	748.067	0.160	-0.429
-330.202	57.719	-0.195	0.190
-329.187	-45.071	0.555	-0.274
-328.172	-30.467	0.299	0.168
-327.158	-13.797	0.763	-0.490
-326.143	266.585	0.217	0.377
-325.129	800.000	-0.170	0.651
-324.114	-200.000	0.065	0.499
-323.099	223.112	-0.208	-0.333
-322.085	84.103	-0.906	0.983
-321.070	-200.000	-0.242	1.288
-320.056	800.000	0.179	0.493
-319.041	65.377	0.450	-0.452
-318.026	-99.641	-0.634	0.158
-317.012	-200.000	0.233	-1.299
-315.997	586.228	0.389	0.951
-314.983	-200.000	0.087	-0.595
-313.968	538.621	0.091	-0.214
-312.953	343.879	-0.268	-0.522
-311.939	-169.658	0.902	-0.032
-310.924	-200.000	-0.009	0.426
-309.910	-109.540	-0.748	0.157
-308.895	-200.000	0.183	-0.984
-307.880	148.827	-0.216	0.290
-306.866	100.765	-0.320	0.369
-305.851	-200.000	0.120	-0.876
-304.837	-47.606	0.409	0.197
-303.822	49.301	-0.112	-0.104
-302.807	-47.952	0.272	-0.131
-301.793	-105.092	-0.407	0.092
-300.778	-18.936	-0.836	0.516
-299.764	261.747	-0.326	-0.560
-298.749	-200.000	0.096	-0.703
-297.735	-200.000	0.064	-1.121
-296.720	-16.305	0.392	-0.247
-295.705	89.538	-0.409	-0.452
-294.691	71.033	0.424	0.436
-293.676	-92.914	-0.820	-0.227
-292.662	187.753	0.390	-0.577
-291.647	211.199	0.396	-0.618
-290.632	187.750	0.226	0.334
-289.618	129.768	-0.144	0.182
-288.603	800.000	0.078	0.275
-287.589	765.530	0.202	0.543
-286.574	7.677	0.362	-0.269
-285.559	-72.996	0.638	0.232
-284.545	-200.000	-0.224	-0.978
-283.530	-171.600	-0.902	-0.030
-282.516	64.671	-0.252	0.252
-281.501	-2.785	0.506	-0.351
-280.486	-200.000	0.043	0.866
-279.472	-200.000	-0.025	-0.637
-278.457	426.621	-0.240	-0.514
-277.443	141.517	0.290	-0.381
-276.428	-16.206	0.303	0.191
-275.413	800.000	0.252	0.927
-274.399	38.387	0.268	0.237
-273.384	-200.000	-0.012	0.304
-272.370	96.929	-0.186	-0.211
-271.355	196.832	-0.477	-0.721
-270.340	179.067	-0.292	0.423
-269.326	166.092	-0.707	0.993
-268.311	-95.358	0.850	-0.227
-267.297	385.693	0.141	0.289
-266.282	-74.936	0.052	0.018
-265.267	-84.714	-0.397	-0.124
-264.253	-200.000	0.099	0.440
-263.238	-38.939	-0.403	-0.210
-262.224	102.241	-0.130	-0.151
-261.209	-85.913	-0.805	0.247
-260.195	157.033	-0.438	0.601
-259.180	-23.958	-0.234	0.139
-258.165	-200.000	0.008	-0.445
-257.151	-75.215	-0.613	0.217
-256.136	-200.000	0.090	-1.390
-255.122	-54.268	0.293	-0.132
-254.107	-200.000	-0.002	0.020
-253.092	-177.402	-0.341	0.008
-252.078	800.000	-0.093	-0.374
-251.063	-200.000	0.018	-0.102
-250.049	-200.000	-0.015	-0.194
-249.034	800.000	0.155	0.425
-248.019	-104.000	-0.813	0.188
-247.005	-70.458	0.230	-0.086
-245.990	54.121	0.194	-0.185
-244.976	22.982	0.587	-0.477
-243.961	15.984	-1.177	0.918
-242.946	-25.964	-0.319	0.186
-241.932	-60.496	0.945	0.398
-240.917	-16.728	0.919	-0.576
-239.903	23.813	0.285	0.232
-238.888	313.143	0.344	-0.640
-237.873	-200.000	0.069	-0.552
-236.859	800.000	-0.093	-0.331
-235.844	-40.328	0.560	0.288
-234.830	-28.318	-0.424	0.242
-233.815	-186.364	-0.470	0.007
-232.800	328.066	0.265	-0.503
-231.786	-43.228	-0.221	-0.111
-230.771	140.985	0.308	0.403
-229.757	-124.416	-0.538	0.083
-228.742	-52.707	0.288	0.131
-227.727	366.036	-0.474	-0.945
-226.713	-169.979	0.916	0.032
-225.698	-117.698	0.347	0.062
-224.684	-200.000	0.027	-0.473
-223.669	397.925	-0.560	1.158
-222.655	186.557	0.232	0.342
-221.640	43.534	0.713	-0.646
-220.625	-24.467	-0.747	-0.440
-219.611	-57.120	-0.383	-0.167
-218.596	359.162	0.034	-0.067
-217.582	-200.000	-0.018	0.534
-216.567	197.690	0.389	-0.588
-215.552	3.554	-0.289	0.208
-214.538	-17.045	0.661	0.413
-213.523	-119.526	0.564	0.097
-212.509	-131.486	0.641	-0.084
-211.494	-200.000	-0.039	0.253
-210.479	-145.353	0.282	0.025
-209.465	302.733	0.329	0.602
-208.450	800.000	-0.102	0.363
-207.436	-67.880	0.483	0.187
-206.421	-61.534	-0.536	-0.223
-205.406	-200.000	0.085	-0.527
-204.392	628.240	0.236	-0.589
-203.377	-83.970	-0.406	-0.128
-202.363	698.573	-0.436	1.133
-201.348	477.008	0.230	0.514
-200.333	117.226	-0.421	0.511
-199.319	800.000	0.183	0.509
-198.304	337.645	-0.205	0.393
-197.290	-39.885	0.873	0.450
-196.275	4.211	-0.375	-0.271
-195.260	287.233	0.273	0.487
-194.246	-200.000	-0.010	-0.287
-193.231	-200.000	0.084	-1.086
-192.217	275.552	0.166	-0.291
-191.202	-125.149	0.885	0.134
-190.187	505.149	-0.108	-0.247
-189.173	-200.000	-0.015	-0.470
-188.158	-153.214	0.228	-0.016
-187.144	173.021	-0.225	-0.321
-186.129	-4.585	0.667	0.455
-185.114	43.168	-0.273	0.246
-184.100	-200.000	0.048	0.379
-183.085	-67.809	0.187	0.072
-182.071	255.150	-0.448	-0.757
-181.056	-200.000	-0.042	0.800
-180.042	2.567	0.315	0.226
-179.027	49.144	0.732	0.679
-178.012	-62.416	-0.622	0.256
-176.998	-200.000	-0.034	-0.494
-175.983	1.860	1.009	-0.719
-174.969	-200.000	0.086	0.452
-173.954	-200.000	-0.072	0.473
-172.939	34.225	0.450	-0.387
-171.925	-200.000	-0.034	-0.472
-170.910	-66.526	0.988	-0.387
-169.896	-64.163	0.367	0.148
-168.881	-200.000	-0.128	-0.576
-167.866	382.129	-0.251	-0.510
-166.852	41.302	0.346	-0.309
-165.837	-108.116	-1.014	-0.217
-164.823	53.933	-0.262	0.249
-163.808	16.816	-0.328	-0.256
-162.793	-112.277	-0.861	0.170
-161.779	-88.829	-0.368	0.108
-160.764	-200.000	0.033	-0.596
-159.750	-146.252	-0.573	-0.050
-158.735	-200.000	-0.012	0.399
-157.720	77.393	-0.744	-0.782
-156.706	800.000	0.274	0.891
-155.691	800.000	0.076	-0.308
-154.677	310.920	0.423	-0.783
-153.662	14.279	0.747	-0.574
-152.647	-200.000	0.037	-0.351
-151.633	-14.001	0.330	-0.210
-150.618	-57.222	-0.385	0.167
-149.604	800.000	0.052	-0.207
-148.589	-179.474	0.385	-0.008
-147.574	-60.443	-0.853	0.358
-146.560	-200.000	-0.139	0.710
-145.545	317.721	-0.430	0.802
-144.531	151.289	0.188	-0.252
-143.516	98.074	0.284	0.322
-142.502	128.064	0.462	-0.579
-141.487	-66.135	0.369	0.145
-140.472	8.276	-0.367	0.272
-139.458	-131.275	0.607	-0.079
-138.443	-25.283	0.553	-0.323
-137.429	40.188	0.809	0.717
-136.414	-72.820	-0.393	-0.143
-135.399	497.679	-0.162	-0.369
-134.385	510.251	0.043	-0.099
-133.370	647.674	-0.142	-0.357
-132.356	84.034	0.195	-0.210
-131.341	-133.808	-0.847	0.104
-130.326	-161.678	0.576	0.029
-129.312	-60.274	0.220	0.093
-128.297	-105.476	-0.434	0.097
-127.283	205.719	0.435	0.667
-126.268	-10.462	-0.215	-0.141
-125.253	62.317	0.748	-0.736
-124.239	253.279	0.170	-0.286
-123.224	-73.842	0.518	-0.186
-122.210	675.692	0.100	-0.255
-121.195	-69.979	-0.130	0.049
-120.180	-16.871	0.197	0.123
-119.166	172.567	-0.633	-0.898
-118.151	237.949	0.453	0.741
-117.137	-13.915	0.506	0.322
-116.122	-17.747	-0.812	-0.503
-115.107	-49.198	-0.811	0.382
-114.093	195.041	-0.246	0.368
-113.078	-200.000	0.016	-0.631
-112.064	-98.982	0.165	0.041
-111.049	-138.833	-0.937	-0.101
-110.034	-165.682	0.219	-0.009
-109.020	-192.172	0.892	-0.008
-108.005	-64.738	0.451	-0.180
-106.991	99.397	0.298	-0.339
-105.976	696.643	-0.245	-0.633
-104.962	-200.000	-0.137	0.941
-103.947	758.649	0.210	0.560
-102.932	800.000	0.191	0.587
-101.918	-82.007	-0.634	0.204
-100.903	800.000	-0.316	1.179
-99.889	75.025	-0.098	0.101
-98.874	299.001	0.456	-0.827
-97.859	-200.000	0.047	0.731
-96.845	-64.014	-0.929	0.374
-95.830	114.576	0.282	-0.338
-94.816	-121.663	0.698	-0.114
-93.801	-16.595	0.853	0.532
-92.786	135.994	0.110	-0.142
-91.772	800.000	-0.236	0.787
-90.757	-184.930	0.841	-0.013
-89.743	-44.240	1.194	0.590
-88.728	-147.046	0.204	-0.017
-87.713	428.948	0.045	0.096
-86.699	800.000	-0.147	-0.526
-85.684	-12.093	0.563	0.363
-84.670	-43.866	-0.221	0.109
-83.655	-60.423	-0.149	-0.063
-82.640	707.656	0.145	-0.377
-81.626	-90.511	0.491	-0.140
-80.611	800.000	0.184	-0.792
-79.597	134.368	0.523	-0.668
-78.582	384.473	-0.091	-0.185
-77.567	-200.000	-0.051	0.601
-76.553	800.000	-0.097	0.366
-75.538	-103.835	-0.482	0.111
-74.524	-55.347	0.075	0.033
-73.509	800.000	0.097	0.285
-72.494	-128.280	0.423	0.059
-71.480	-88.845	0.538	-0.157
-70.465	-115.112	0.354	0.066
-69.451	-200.000	-0.069	-0.570
-68.436	476.351	-0.249	-0.554
-67.422	800.000	0.206	0.703
-66.407	-99.753	-0.542	-0.134
-65.392	-116.918	0.444	0.080
-64.378	35.428	1.235	-1.066
-63.363	-97.304	0.632	-0.162
-62.349	-107.887	0.890	-0.190
-61.334	800.000	-0.515	-1.634
-60.319	-38.278	0.330	0.172
-59.305	-200.000	-0.008	-0.880
-58.290	-200.000	0.118	1.123
-57.276	51.679	1.284	1.200
-56.261	-200.000	97.407	608.454
-55.246	655.384	1364.106	3443.603
-54.232	203.023	2527.961	3840.898
-53.217	119.857	2137.160	2604.412
-52.203	42.819	1687.955	1511.891
-51.188	35.109	1502.897	1294.236
-50.173	32.962	1476.044	1256.786
-49.159	53.797	1529.134	1443.627
-48.144	54.629	1545.357	1464.513
-47.130	35.321	1505.302	1297.533
-46.115	32.245	1490.250	1263.867
-45.100	31.979	1486.776	1259.081
-44.086	31.772	1484.194	1255.455
-43.071	32.088	1481.848	1255.538
-42.057	32.099	1479.722	1253.763
-41.042	31.877	1479.826	1252.316
-40.027	31.812	1478.912	1251.060
-39.013	31.978	1476.607	1250.165
-37.998	31.851	1476.029	1248.780
-36.984	31.715	1475.112	1247.048
-35.969	31.827	1473.310	1246.224
-34.954	31.916	1471.079	1244.876
-33.940	31.853	1470.872	1244.233
-32.925	31.976	1467.892	1242.480
-31.911	32.079	1466.602	1242.018
-30.896	32.274	1465.604	1242.410
-29.881	32.100	1464.712	1240.455
-28.867	32.155	1463.010	1239.328
-27.852	31.873	1462.156	1236.698
-26.838	32.063	1460.655	1236.630
-25.823	31.814	1459.582	1234.032
-24.809	31.908	1457.790	1233.086
-23.794	31.956	1455.856	1231.717
-22.779	31.782	1456.071	1230.711
-21.765	31.908	1454.230	1229.930
-20.750	32.132	1452.347	1229.754
-19.736	32.154	1450.471	1228.265
-18.721	31.977	1450.756	1227.295
-17.706	32.042	1448.984	1226.172
-16.692	31.843	1449.141	1224.961
-15.677	31.886	1447.733	1224.001
-14.663	31.912	1447.561	1223.973
-13.648	31.659	1445.585	1220.611
-12.633	31.831	1444.420	1220.697
-11.619	32.030	1442.842	1220.607
-10.604	31.914	1442.776	1219.753
-9.590	31.818	1442.146	1218.547
-8.575	31.906	1440.555	1217.720
-7.560	32.117	1439.937	1218.521
-6.546	31.945	1439.958	1217.372
-5.531	31.914	1437.867	1215.356
-4.517	31.849	1437.054	1214.203
-3.502	31.714	1436.121	1212.490
-2.487	31.913	1435.895	1213.537
-1.473	31.999	1433.528	1212.047
-0.458	31.940	1433.910	1211.942
0.556	33.646	1422.482	1201.200
1.571	29.838	1398.781	1157.314
2.586	26.527	1340.842	1089.384
3.600	24.713	1260.250	1013.544
4.615	23.111	1215.094	968.377
5.629	20.098	1158.325	907.307
6.644	11.436	1074.385	799.239
7.659	4.685	1034.188	737.358
8.673	3.485	1029.501	728.286
9.688	3.453	1025.018	724.900
10.702	3.261	1023.165	722.625
11.717	3.121	1023.025	721.805
12.731	6.852	1023.750	739.744
13.746	15.351	1036.767	789.231
14.761	22.715	1047.023	831.829
15.775	24.573	1047.410	840.816
16.790	24.331	1046.585	838.943
17.804	23.719	1046.140	835.634
18.819	23.690	1043.443	833.269
19.834	23.038	1044.270	830.790
20.848	23.229	1043.755	831.207
21.863	23.367	1042.723	830.956
22.877	23.165	1042.859	830.046
23.892	23.395	1041.471	829.943
24.907	23.204	1041.227	828.784
25.921	22.726	1040.405	825.819
26.936	23.031	1038.620	825.753
27.950	22.925	1038.102	824.772
28.965	23.018	1037.190	824.411
29.980	22.840	1036.125	822.659
30.994	22.875	1034.649	821.579
32.009	23.079	1033.385	821.449
33.023	23.138	1033.882	822.046
34.038	23.253	1032.383	821.317
35.053	22.980	1031.645	819.391
36.067	22.960	1030.423	818.255
37.082	22.821	1030.172	817.341
38.096	23.277	1028.360	817.934
39.111	23.157	1029.308	818.062
40.126	23.289	1027.670	817.296
41.140	22.982	1026.776	815.097
42.155	22.689	1025.525	812.685
43.169	22.258	1024.504	809.820
44.184	22.441	1023.458	809.763
45.199	22.385	1021.584	807.949
46.213	22.390	1020.546	807.081
47.228	22.082	1020.929	805.898
48.242	22.828	1019.908	808.438
49.257	23.250	1018.882	809.487
50.271	23.317	1019.109	809.901
51.286	23.041	1018.205	807.850
52.301	23.344	1018.013	809.010
53.315	23.475	1016.744	808.526
54.330	23.172	1015.640	806.195
55.344	23.018	1015.591	805.383
56.359	23.148	1013.766	804.458
57.374	23.010	1013.484	803.537
58.388	22.856	1012.413	801.916
59.403	22.509	1011.334	799.417
60.417	22.500	1011.393	799.350
61.432	22.445	1009.893	797.846
62.447	22.707	1008.309	797.707
63.461	22.427	1009.137	797.023
64.476	22.312	1008.432	795.878
65.490	22.527	1006.860	795.537
66.505	22.436	1004.947	793.546
67.520	22.465	1004.707	793.415
68.534	22.622	1004.911	794.214
69.549	22.500	1003.395	792.397
70.563	21.865	1003.634	789.659
71.578	21.938	1003.518	789.828
72.593	21.950	1000.565	787.485
73.607	21.609	999.620	785.145
74.622	21.786	998.568	785.039
75.636	21.789	997.673	784.280
76.651	21.903	997.080	784.254
77.666	22.086	996.849	784.822
78.680	21.806	997.324	783.874
79.695	22.368	996.495	785.662
80.709	22.060	995.198	783.198
81.724	21.958	995.367	782.805
82.739	22.251	994.241	783.156
83.753	22.531	993.645	783.862
84.768	22.887	992.062	784.125
85.782	23.426	992.779	787.018
86.797	23.579	991.900	786.928
87.812	23.428	991.521	785.889
88.826	23.533	990.364	785.370
89.841	23.447	989.475	784.213
90.855	23.258	989.496	783.323
91.870	23.512	988.197	783.347
92.884	23.389	987.924	782.522
93.899	23.649	986.420	782.406
94.914	23.423	985.652	780.731
95.928	23.096	984.465	778.285
96.943	23.246	984.113	778.598
97.957	23.457	982.268	777.995
98.972	22.959	982.628	776.027
99.987	23.118	981.835	776.025
101.001	23.317	981.090	776.240
102.016	23.082	980.325	774.540
103.030	23.207	978.579	773.638
104.045	23.226	978.376	773.490
105.060	23.129	978.766	773.305
106.074	23.318	976.243	772.069
107.089	23.129	975.676	770.729
108.103	22.849	974.138	768.229
109.118	22.845	972.831	767.114
110.133	22.616	972.039	765.425
111.147	22.011	971.711	762.471
112.162	22.341	970.391	762.803
113.176	22.071	969.519	760.878
114.191	22.293	968.990	761.357
115.206	22.282	968.324	760.718
116.220	22.556	966.087	760.078
117.235	22.274	965.688	758.476
118.249	22.545	965.236	759.226
119.264	22.077	964.870	756.853
120.279	22.050	963.811	755.841
121.293	21.986	962.977	754.844
122.308	21.706	962.390	753.111
123.322	21.526	961.308	751.425
124.337	22.071	958.832	751.757
125.352	21.536	959.843	750.193
126.366	21.636	958.230	749.291
127.381	21.647	957.457	748.670
128.395	22.020	956.251	749.251
129.410	22.268	955.057	749.308
130.424	22.020	954.247	747.549
131.439	22.242	953.346	747.723
132.454	22.578	952.835	748.681
133.468	22.587	952.446	748.346
134.483	22.517	951.782	747.464
135.497	22.811	950.554	747.678
136.512	22.611	950.472	746.699
137.527	22.621	949.879	746.210
138.541	22.482	949.313	745.111
139.556	22.245	949.056	743.840
140.570	22.789	948.274	745.463
141.585	22.545	947.622	743.855
142.600	23.254	946.966	746.262
143.614	23.225	945.810	745.162
144.629	23.352	945.096	745.069
145.643	23.871	944.390	746.627
146.658	23.452	943.795	744.329
147.673	22.983	942.095	740.960
148.687	23.011	941.116	740.241
149.702	22.927	939.762	738.759
150.716	22.854	939.547	738.217
151.731	22.602	938.483	736.265
152.746	22.557	937.702	735.401
153.760	22.631	937.756	735.686
154.775	22.934	936.386	735.807
155.789	23.154	935.648	736.080
156.804	23.136	933.988	734.633
157.819	22.922	933.928	733.632
158.833	23.248	933.145	734.304
159.848	23.103	932.732	733.312
160.862	23.311	932.093	733.606
161.877	23.244	931.506	732.806
162.892	22.871	930.168	730.145
163.906	22.453	929.470	727.805
164.921	22.536	927.834	726.802
165.935	22.408	927.076	725.618
166.950	22.566	926.379	725.658
167.964	22.800	924.962	725.443
168.979	22.850	925.009	725.622
169.994	22.774	923.528	724.085
171.008	22.614	922.089	722.235
172.023	22.763	922.244	722.903
173.037	23.097	921.810	723.867
174.052	23.236	921.198	723.893
175.067	23.357	919.551	723.029
176.081	23.028	918.700	720.953
177.096	22.611	917.667	718.380
178.110	22.292	916.850	716.377
179.125	22.509	915.653	716.260
180.140	22.192	915.669	714.922
181.154	22.283	915.015	714.716
182.169	23.101	914.082	717.244
183.183	22.780	914.847	716.478
184.198	23.031	915.353	717.832
185.213	22.916	913.309	715.698
186.227	22.959	912.478	715.157
187.242	23.070	912.387	715.471
188.256	23.063	911.230	714.473
189.271	23.347	910.190	714.739
190.286	23.241	910.386	714.403
191.300	23.236	909.403	713.548
192.315	22.964	907.999	711.290
193.329	22.159	907.156	707.327
194.344	22.419	905.835	707.279
195.359	22.504	905.499	707.296
196.373	22.621	905.828	707.961
197.388	22.687	905.215	707.681
198.402	23.282	904.920	709.774
199.417	23.628	904.985	711.148
200.432	23.321	905.895	710.572
201.446	23.657	904.615	710.851
202.461	24.172	903.944	712.318
203.475	23.838	903.605	710.655
204.490	23.843	902.132	709.454
205.504	23.121	901.338	705.885
206.519	22.685	900.715	703.595
207.534	23.045	898.617	703.329
208.548	23.063	898.825	703.500
209.563	23.039	899.096	703.555
210.577	23.171	898.506	703.554
211.592	22.828	897.951	701.696
212.607	23.508	897.171	703.721
213.621	23.744	897.433	704.803
214.636	23.628	896.744	703.738
215.650	23.893	894.269	702.781
216.665	23.574	895.426	702.365
217.680	23.301	895.327	701.148
218.694	23.636	893.570	701.032
219.709	23.606	893.261	700.610
220.723	23.204	892.999	698.754
221.738	23.230	892.481	698.390
222.753	23.069	891.581	696.987
223.767	23.289	889.544	696.200
224.782	23.228	889.499	695.865
225.796	23.377	889.338	696.263
226.811	23.900	888.638	697.706
227.826	23.565	888.095	695.901
228.840	23.276	886.484	693.448
229.855	23.003	886.885	692.631
230.869	23.172	885.479	692.131
231.884	23.105	885.072	691.490
232.899	22.824	884.323	689.745
233.913	22.892	884.180	689.839
234.928	22.939	883.085	689.106
235.942	22.699	882.450	687.614
236.957	22.518	881.610	686.195
237.972	22.744	880.235	685.941
238.986	22.598	880.647	685.636
240.001	22.448	880.214	684.654
241.015	22.488	878.350	683.301
242.030	22.569	878.066	683.331
243.045	22.935	877.506	684.254
244.059	22.818	877.891	684.041
245.074	22.731	877.949	683.685
246.088	23.211	876.842	684.620
247.103	23.274	876.667	684.669
248.117	23.614	875.410	684.940
249.132	24.141	874.382	686.105
250.147	24.371	874.856	687.302
251.161	24.283	875.186	687.161
252.176	24.644	874.638	688.060
253.190	24.772	873.993	687.983
254.205	24.530	873.620	686.698
255.220	24.724	872.407	686.429
256.234	24.544	871.762	685.170
257.249	24.029	871.300	682.771
258.263	24.374	870.871	683.696
259.278	24.070	871.358	682.853
260.293	24.485	869.999	683.318
261.307	24.480	869.582	682.911
262.322	24.722	868.205	682.693
263.336	24.233	868.163	680.733
264.351	24.362	867.321	680.503
265.366	24.389	865.985	679.497
266.380	24.356	865.856	679.209
267.395	24.260	865.346	678.385
268.409	24.487	864.246	678.326
269.424	24.038	864.155	676.489
270.439	24.331	862.884	676.545
271.453	24.074	862.685	675.354
272.468	23.977	861.560	674.046
273.482	23.876	861.525	673.575
274.497	24.128	860.855	673.946
275.512	24.290	859.817	673.686
276.526	23.934	859.767	672.242
277.541	24.115	858.717	672.044
278.555	24.028	858.698	671.642
279.570	24.459	858.270	672.872
280.585	24.437	858.254	672.719
281.599	24.531	857.700	672.578
282.614	24.370	856.607	671.058
283.628	23.950	854.980	668.147
284.643	23.871	855.068	667.858
285.657	24.011	854.831	668.142
286.672	23.725	854.011	666.367
287.687	23.919	853.933	666.975
288.701	24.003	853.598	666.971
289.716	23.973	853.991	667.104
290.730	24.064	852.011	665.841
291.745	24.180	851.052	665.463
292.760	24.177	850.592	665.033
293.774	24.279	849.910	664.824
294.789	24.490	850.494	666.008
295.803	24.537	849.823	665.600
296.818	24.529	849.140	664.976
297.833	24.358	847.704	663.158
298.847	23.802	847.904	661.187
299.862	23.717	847.368	660.393
300.876	24.280	845.674	661.103
301.891	24.345	845.420	661.088
302.906	24.497	845.782	661.873
303.920	24.784	845.051	662.307
304.935	24.866	843.700	661.492
305.949	25.234	843.271	662.456
306.964	24.933	842.961	661.043
307.979	24.630	841.815	658.968
308.993	24.578	840.682	657.832
310.008	24.376	841.151	657.396
311.022	24.527	840.383	657.295
312.037	24.406	841.029	657.296
313.052	24.738	839.191	657.020
314.066	24.302	839.444	655.559
315.081	24.045	837.899	653.351
316.095	23.915	836.727	651.904
317.110	23.665	837.948	651.879
318.125	23.987	837.555	652.697
319.139	24.247	835.696	652.143
320.154	23.662	834.369	648.911
321.168	23.590	834.200	648.460
322.183	23.837	833.581	648.823
323.197	23.757	834.734	649.371
324.212	23.760	834.348	649.021
325.227	24.089	832.920	649.054
326.241	24.136	831.210	647.835
327.256	23.857	831.022	646.618
328.270	23.745	831.670	646.655
329.285	23.668	830.841	645.673
330.300	23.229	830.657	643.879
331.314	23.505	828.667	643.280
332.329	23.493	829.071	643.493
333.343	24.098	827.868	644.692
334.358	24.325	828.314	645.806
335.373	23.898	827.796	643.800
336.387	24.261	827.549	644.863
337.402	24.593	826.040	644.828
338.416	24.710	825.331	644.640
339.431	25.213	825.223	646.312
340.446	25.061	825.221	645.703
341.460	25.173	824.889	645.792
342.475	25.283	824.079	645.497
343.489	25.342	823.479	645.182
344.504	25.221	823.467	644.682
345.519	25.082	823.413	644.081
346.533	25.621	822.166	644.981
347.548	25.036	822.835	643.352
348.562	25.091	821.722	642.619
349.577	25.129	819.535	640.988
350.592	24.574	820.675	639.837
351.606	24.885	818.608	639.280
352.621	24.733	818.756	638.796
353.635	24.497	818.115	637.396
354.650	24.792	817.586	637.981
355.665	24.173	817.735	635.832
356.679	24.397	816.939	635.953
357.694	24.556	816.117	635.826
358.708	24.413	816.196	635.321
359.723	24.344	815.576	634.535
360.738	24.448	815.334	634.661
361.752	24.681	814.333	634.653
362.767	24.495	813.929	633.623
363.781	24.887	814.006	635.018
364.796	25.219	813.961	636.104
365.810	25.579	812.704	636.339
366.825	25.293	812.699	635.267
367.840	25.311	813.176	635.647
368.854	25.255	812.566	634.917
369.869	25.042	811.656	633.394
370.883	24.857	810.561	631.832
371.898	24.672	810.452	631.037
372.913	25.343	809.310	632.457
373.927	25.580	808.740	632.788
374.942	25.213	808.604	631.335
375.956	25.240	807.896	630.824
376.971	24.977	808.199	630.078
377.986	25.408	806.689	630.359
379.000	25.654	806.193	630.779
380.015	25.083	806.869	629.246
381.029	25.402	805.625	629.340
382.044	25.341	804.508	628.198
383.059	25.598	804.150	628.761
384.073	25.897	802.950	628.810
385.088	25.423	803.544	627.563
386.102	25.210	802.386	625.862
387.117	24.830	801.337	623.664
388.132	24.916	800.114	622.955
389.146	24.560	801.226	622.527
390.161	24.580	800.289	621.814
391.175	25.063	800.638	623.711
392.190	25.426	800.144	624.532
393.205	25.237	799.979	623.690
394.219	24.785	798.360	620.804
395.234	24.293	797.775	618.591
396.248	24.215	797.284	617.884
397.263	24.148	796.813	617.232
398.278	24.694	796.419	618.761
399.292	24.459	796.492	617.949
400.307	24.119	795.360	615.843
401.321	24.166	794.575	615.343
402.336	24.425	793.748	615.540
403.350	24.682	793.556	616.223
404.365	24.843	794.630	617.558
405.380	25.040	794.653	618.202
406.394	25.329	794.337	618.896
407.409	25.320	794.226	618.726
408.423	26.018	792.147	619.447
409.438	26.045	791.803	619.217
410.453	25.731	791.782	618.070
411.467	25.669	791.942	617.924
412.482	25.558	791.192	616.903
413.496	25.814	790.815	617.432
414.511	25.723	790.902	617.134
415.526	25.362	791.216	616.087
416.540	25.507	789.756	615.392
417.555	25.799	789.525	616.157
418.569	25.809	789.075	615.786
419.584	25.849	788.268	615.237
420.599	25.718	787.223	613.922
421.613	161.566	1369.349	1794.009
422.628	139.881	1454.109	1794.078
