DTS Sentinel unit serial number:	SN413079Multiplexer serial number:	ORYXHardware model number:	OX4-SRSoftware version number:	ORYX F/W v4.00 Oryx Data Collector v3.7.2.0data status	okinstallation	princeton_trtdifferential loss correction	single-endedforward channel	channel 3reverse channel	N/Adate	2019/09/16time	22:04:35forward acquisition time	60.00reverse acquisition time	0.00gamma	496.2192k internal	0.2324k external	0.2324temperature offset calibration	0.9939default loss term (dB/km)	0.3790temperature slope calibration	1.0000multiplexer offset coefficient	1.0000multiplexer slope coefficient	1.0000fibre end	0.00T internal ref (°C)	31.12T ext. ref 1 (°C)	0.07T ext. ref 2 (°C)	25.09length (m)	temperature (°C)	Stokes	anti-Stokes-747.200	104.586	0.043	-0.052
-746.185	-200.000	0.001	0.198
-745.171	762.218	0.029	0.079
-744.156	-200.000	0.058	0.362
-743.142	160.561	0.265	0.374
-742.127	-146.569	-0.333	0.029
-741.112	-42.704	0.081	-0.041
-740.098	512.145	-0.117	-0.274
-739.083	263.005	0.087	0.153
-738.069	-78.719	0.077	0.027
-737.054	306.597	-0.114	0.214
-736.039	313.786	-0.071	0.134
-735.025	381.083	-0.006	0.013
-734.010	43.111	0.178	-0.164
-732.996	-138.787	-0.063	0.007
-731.981	800.000	-0.084	-0.236
-730.966	383.652	-0.124	0.257
-729.952	-200.000	0.045	0.394
-728.937	285.022	0.047	-0.085
-727.923	465.844	0.121	-0.274
-726.908	-74.585	-0.178	-0.065
-725.894	-94.645	-0.427	-0.117
-724.879	496.442	0.055	-0.127
-723.864	75.930	0.035	-0.037
-722.850	-200.000	-0.026	-0.310
-721.835	-145.340	-0.034	-0.003
-720.821	-84.598	0.241	-0.077
-719.806	322.793	0.071	-0.137
-718.791	-131.369	-0.356	-0.048
-717.777	-130.769	-0.191	-0.026
-716.762	-131.558	0.029	0.004
-715.748	161.942	-0.227	0.321
-714.733	800.000	-0.080	0.249
-713.718	59.402	-0.039	0.039
-712.704	-200.000	0.050	0.235
-711.689	-19.959	0.102	-0.063
-710.675	328.515	-0.019	0.036
-709.660	16.969	0.056	0.045
-708.645	800.000	-0.081	-0.294
-707.631	-156.305	0.333	-0.021
-706.616	172.469	0.052	0.076
-705.602	-3.886	-0.121	-0.085
-704.587	155.296	0.081	-0.112
-703.572	29.230	-0.105	0.089
-702.558	73.109	0.076	-0.080
-701.543	764.025	-0.077	0.211
-700.529	-89.095	0.140	-0.042
-699.514	-50.196	-0.289	-0.138
-698.499	285.627	-0.058	0.106
-697.485	-200.000	0.016	0.193
-696.470	-200.000	0.003	0.050
-695.456	48.809	0.331	-0.312
-694.441	-200.000	-0.024	-0.185
-693.426	17.112	-0.092	-0.073
-692.412	463.473	0.042	-0.095
-691.397	656.628	0.056	-0.144
-690.383	209.161	-0.117	0.184
-689.368	-200.000	-0.038	0.323
-688.354	-6.116	0.227	-0.156
-687.339	252.587	-0.067	-0.115
-686.324	-101.619	-0.293	0.072
-685.310	-198.861	-0.216	-0.001
-684.295	-200.000	0.020	-0.101
-683.281	148.351	0.162	0.220
-682.266	-60.467	0.123	0.053
-681.251	-105.058	0.274	0.063
-680.237	139.808	-0.121	0.161
-679.222	523.833	-0.052	0.123
-678.208	40.258	-0.185	-0.167
-677.193	-83.202	-0.311	-0.101
-676.178	36.883	0.239	0.213
-675.164	-27.784	-0.340	-0.198
-674.149	25.193	-0.133	-0.111
-673.135	-77.325	-0.114	0.040
-672.120	108.883	-0.087	-0.105
-671.105	800.000	0.060	-0.182
-670.091	513.252	-0.068	0.160
-669.076	-200.000	0.006	0.039
-668.062	800.000	0.052	-0.225
-667.047	-180.841	0.240	-0.005
-666.032	-200.000	-0.047	0.272
-665.018	350.241	0.170	-0.338
-664.003	16.240	0.195	-0.154
-662.989	800.000	0.038	-0.148
-661.974	-51.954	-0.411	0.192
-660.959	12.226	0.148	0.115
-659.945	137.959	-0.153	-0.202
-658.930	-2.633	-0.132	0.093
-657.916	290.092	0.086	-0.157
-656.901	47.718	0.131	-0.123
-655.886	249.415	-0.210	0.358
-654.872	-50.652	0.086	0.041
-653.857	-15.557	0.197	-0.126
-652.843	293.556	-0.217	0.399
-651.828	114.331	-0.071	-0.087
-650.814	43.911	-0.188	-0.173
-649.799	-181.021	-0.179	-0.004
-648.784	309.982	0.112	0.211
-647.770	-200.000	0.036	0.250
-646.755	-200.000	-0.003	0.115
-645.741	46.481	0.127	-0.119
-644.726	149.426	-0.079	-0.107
-643.711	350.278	-0.052	-0.103
-642.697	-170.110	-0.187	0.007
-641.682	-29.959	-0.079	0.045
-640.668	100.120	-0.196	-0.228
-639.653	-146.045	-0.096	-0.009
-638.638	214.560	-0.155	0.247
-637.624	-7.348	0.319	-0.217
-636.609	-49.069	-0.419	-0.201
-635.595	-2.158	0.160	-0.113
-634.580	59.480	-0.171	0.169
-633.565	800.000	-0.063	-0.205
-632.551	-97.335	-0.082	0.021
-631.536	372.401	-0.129	0.262
-630.522	-36.175	-0.071	-0.038
-629.507	202.851	0.217	-0.337
-628.492	800.000	-0.017	0.068
-627.478	-142.150	-0.249	-0.025
-626.463	800.000	-0.076	-0.247
-625.449	-11.551	-0.253	-0.167
-624.434	639.365	0.103	-0.264
-623.419	-120.253	-0.208	-0.036
-622.405	-21.294	-0.262	0.161
-621.390	55.753	0.223	-0.217
-620.376	800.000	-0.011	-0.031
-619.361	416.044	0.174	-0.373
-618.346	675.587	0.070	0.182
-617.332	485.116	-0.048	0.111
-616.317	800.000	0.030	-0.119
-615.303	-8.572	0.239	0.161
-614.288	-10.019	0.292	0.195
-613.273	618.242	-0.066	-0.167
-612.259	-29.578	-0.065	0.037
-611.244	-77.941	-0.408	0.141
-610.230	2.943	-0.384	-0.280
-609.215	-172.663	-0.171	-0.005
-608.201	-200.000	0.034	-0.466
-607.186	82.114	-0.157	-0.171
-606.171	76.038	-0.154	-0.163
-605.157	-46.049	0.147	-0.073
-604.142	-119.373	-0.056	-0.010
-603.128	-135.106	-0.124	-0.015
-602.113	-200.000	-0.005	-0.130
-601.098	127.520	-0.026	-0.033
-600.084	103.706	0.062	-0.073
-599.069	10.796	0.287	-0.220
-598.055	-10.977	-0.149	0.099
-597.040	-107.085	-0.087	-0.019
-596.025	-101.513	-0.310	-0.076
-595.011	215.190	0.043	-0.069
-593.996	119.836	0.080	-0.100
-592.982	20.757	-0.379	0.308
-591.967	-89.490	-0.113	0.033
-590.952	-39.394	0.190	0.100
-589.938	-60.913	-0.095	-0.041
-588.923	-200.000	-0.050	-0.251
-587.909	185.666	0.124	-0.184
-586.894	-88.087	0.266	-0.080
-585.879	113.263	-0.120	-0.146
-584.865	-143.580	0.181	-0.017
-583.850	420.117	-0.089	0.190
-582.836	442.928	0.153	-0.336
-581.821	800.000	-0.089	-0.292
-580.806	-87.860	-0.188	0.057
-579.792	-49.600	0.161	-0.077
-578.777	39.367	0.445	-0.399
-577.763	-200.000	0.012	0.077
-576.748	-74.642	0.310	0.112
-575.733	99.974	-0.140	-0.163
-574.719	-200.000	0.044	0.415
-573.704	-80.079	0.414	-0.139
-572.690	81.986	0.129	-0.141
-571.675	-36.536	-0.294	-0.159
-570.661	314.230	-0.089	-0.167
-569.646	-200.000	0.068	-0.322
-568.631	686.498	0.076	-0.198
-567.617	-31.325	0.181	-0.102
-566.602	214.248	-0.172	0.272
-565.588	-200.000	-0.007	0.349
-564.573	-16.966	-0.154	-0.097
-563.558	-200.000	-0.033	0.316
-562.544	403.656	-0.055	-0.116
-561.529	436.221	-0.078	0.170
-560.515	-91.568	0.123	-0.035
-559.500	-124.593	-0.272	0.042
-558.485	-93.688	0.174	-0.048
-557.471	-32.627	0.245	-0.136
-556.456	613.734	-0.052	-0.131
-555.442	-19.451	-0.180	0.112
-554.427	-200.000	-0.022	-0.102
-553.412	-200.000	-0.019	0.271
-552.398	84.543	-0.189	-0.207
-551.383	-200.000	0.002	-0.145
-550.369	46.850	-0.323	-0.301
-549.354	163.534	-0.020	0.029
-548.339	-200.000	-0.019	-0.096
-547.325	800.000	-0.033	0.104
-546.310	289.926	-0.204	0.370
-545.296	-51.322	-0.278	0.130
-544.281	221.066	-0.106	-0.170
-543.266	56.187	-0.133	-0.129
-542.252	-34.608	0.335	0.184
-541.237	139.827	-0.129	-0.171
-540.223	630.471	-0.065	-0.165
-539.208	-28.298	-0.125	0.073
-538.193	-56.139	-0.302	0.134
-537.179	-109.894	0.284	0.060
-536.164	228.362	-0.068	0.111
-535.150	-200.000	0.012	-0.147
-534.135	8.516	-0.164	-0.123
-533.121	800.000	0.044	0.130
-532.106	10.231	0.265	0.202
-531.091	288.188	0.076	0.137
-530.077	84.154	0.042	0.046
-529.062	-66.315	-0.111	0.044
-528.048	220.193	0.082	-0.132
-527.033	-127.634	0.254	-0.037
-526.018	-3.032	-0.045	0.032
-525.004	-88.284	-0.469	0.140
-523.989	151.799	-0.125	0.171
-522.975	-86.962	0.182	-0.056
-521.960	282.392	0.063	-0.113
-520.945	-128.393	-0.148	-0.021
-519.931	702.835	-0.064	-0.169
-518.916	-200.000	0.068	-0.515
-517.902	-6.575	0.066	-0.045
-516.887	43.930	-0.115	0.105
-515.872	-114.498	-0.120	-0.023
-514.858	-200.000	-0.048	0.312
-513.843	-17.058	0.240	0.151
-512.829	-200.000	-0.027	0.179
-511.814	5.110	-0.297	0.219
-510.799	-46.069	-0.112	0.055
-509.785	178.060	-0.015	0.022
-508.770	76.011	0.020	-0.021
-507.756	-109.015	0.348	0.074
-506.741	639.732	-0.059	-0.149
-505.726	-200.000	0.032	0.246
-504.712	78.576	-0.107	-0.114
-503.697	-115.743	-0.252	-0.047
-502.683	-200.000	0.026	-0.263
-501.668	-70.683	0.243	-0.092
-500.653	-200.000	-0.001	0.046
-499.639	-200.000	0.042	-0.201
-498.624	-200.000	-0.026	-0.295
-497.610	181.987	-0.145	0.214
-496.595	-200.000	-0.001	0.177
-495.581	-71.196	-0.285	-0.107
-494.566	800.000	0.006	0.018
-493.551	-151.388	-0.151	0.011
-492.537	10.982	-0.086	0.066
-491.522	-161.712	-0.604	0.031
-490.508	195.434	0.091	0.137
-489.493	-138.004	0.070	-0.008
-488.478	106.419	-0.276	-0.327
-487.464	60.531	-0.232	0.230
-486.449	800.000	0.053	0.156
-485.435	800.000	0.059	-0.168
-484.420	54.254	0.219	0.210
-483.405	102.466	0.170	-0.198
-482.391	-153.640	0.211	-0.015
-481.376	-200.000	-0.000	0.080
-480.362	800.000	-0.120	0.417
-479.347	101.563	0.072	0.084
-478.332	-15.161	0.158	0.101
-477.318	800.000	0.047	0.171
-476.303	-51.317	0.184	-0.086
-475.289	-69.651	0.146	-0.056
-474.274	-148.766	-0.354	-0.029
-473.259	171.107	-0.160	0.229
-472.245	18.729	0.166	0.133
-471.230	-3.190	-0.144	0.100
-470.216	-38.005	0.251	-0.133
-469.201	-112.918	-0.105	-0.021
-468.186	800.000	-0.062	-0.201
-467.172	78.099	0.185	-0.197
-466.157	800.000	-0.087	-0.310
-465.143	127.981	-0.225	0.285
-464.128	707.449	-0.069	-0.181
-463.113	-101.868	-0.135	-0.033
-462.099	56.120	-0.100	0.097
-461.084	116.613	-0.055	-0.068
-460.070	-200.000	0.019	0.281
-459.055	-136.966	0.220	0.025
-458.040	65.316	0.384	0.388
-457.026	302.156	-0.107	0.197
-456.011	-176.396	-0.400	0.010
-454.997	198.944	-0.008	-0.012
-453.982	-125.002	-0.300	0.046
-452.968	684.463	0.082	0.212
-451.953	266.097	-0.244	-0.425
-450.938	480.000	-0.092	-0.208
-449.924	-34.314	-0.055	0.030
-448.909	-200.000	0.032	-0.283
-447.895	-3.056	0.049	0.034
-446.880	-86.112	0.323	-0.099
-445.865	284.753	-0.086	-0.154
-444.851	112.397	-0.171	0.206
-443.836	-81.816	0.434	0.142
-442.822	433.627	-0.009	-0.021
-441.807	800.000	-0.075	-0.321
-440.792	-48.751	-0.284	-0.136
-439.778	35.641	0.049	-0.043
-438.763	-200.000	0.026	0.547
-437.749	331.413	0.103	-0.199
-436.734	-108.241	0.135	0.029
-435.719	139.115	-0.153	-0.201
-434.705	89.614	0.021	-0.024
-433.690	-27.532	0.324	-0.188
-432.676	110.974	-0.159	-0.191
-431.661	-200.000	0.046	-0.299
-430.646	-120.100	0.317	-0.054
-429.632	59.426	-0.039	-0.038
-428.617	-200.000	-0.046	-0.267
-427.603	-200.000	0.001	0.125
-426.588	-92.992	0.310	0.086
-425.573	-41.963	0.185	0.094
-424.559	-200.000	0.011	0.171
-423.544	-75.026	-0.148	-0.053
-422.530	17.425	-0.217	-0.172
-421.515	-118.364	-0.390	0.069
-420.500	90.334	0.154	0.172
-419.486	150.609	-0.050	-0.067
-418.471	-25.276	0.279	-0.164
-417.457	-200.000	-0.105	0.500
-416.442	-200.000	0.030	-0.157
-415.428	-24.119	0.066	0.039
-414.413	-200.000	0.001	0.017
-413.398	-106.837	-0.450	0.100
-412.384	12.444	0.221	0.170
-411.369	-200.000	0.008	-0.220
-410.355	-200.000	-0.012	-0.139
-409.340	-200.000	-0.048	-0.452
-408.325	49.467	-0.202	0.190
-407.311	-7.372	0.364	0.246
-406.296	-91.678	-0.249	-0.071
-405.282	-200.000	-0.009	-0.210
-404.267	-88.228	0.140	0.042
-403.252	136.558	-0.097	0.126
-402.238	106.218	0.216	-0.254
-401.223	-84.362	0.188	0.059
-400.209	-107.292	0.456	0.100
-399.194	-200.000	0.011	-0.162
-398.179	118.917	-0.220	0.270
-397.165	58.117	0.160	0.156
-396.150	-120.902	0.399	-0.067
-395.136	-127.193	-0.235	0.034
-394.121	-86.591	0.123	0.038
-393.106	-121.216	-0.366	0.061
-392.092	200.283	0.167	0.255
-391.077	128.908	-0.078	-0.099
-390.063	800.000	0.082	-0.310
-389.048	-14.130	-0.188	-0.120
-388.033	800.000	0.075	0.229
-387.019	233.907	0.103	-0.169
-386.004	-146.551	0.071	0.006
-384.990	-165.627	0.464	-0.020
-383.975	-67.954	-0.045	0.017
-382.960	94.203	0.051	-0.058
-381.946	-200.000	-0.029	0.220
-380.931	-200.000	0.013	0.373
-379.917	800.000	-0.028	-0.092
-378.902	107.851	0.090	0.107
-377.888	149.521	-0.085	-0.114
-376.873	291.496	0.161	-0.291
-375.858	36.701	-0.117	0.102
-374.844	-96.167	-0.179	0.047
-373.829	296.319	-0.107	0.195
-372.815	-200.000	0.059	-0.296
-371.800	259.051	-0.081	0.140
-370.785	-200.000	-0.038	0.303
-369.771	171.283	0.167	0.238
-368.756	-115.426	0.296	-0.055
-367.742	-96.071	-0.043	0.011
-366.727	72.961	0.071	-0.074
-365.712	800.000	-0.083	-0.262
-364.698	-200.000	0.002	-0.210
-363.683	-12.274	-0.036	0.023
-362.669	10.247	-0.207	0.156
-361.654	-200.000	0.002	0.372
-360.639	-48.542	-0.324	0.155
-359.625	-132.384	0.365	-0.047
-358.610	-68.427	0.219	-0.085
-357.596	-178.159	-0.236	-0.006
-356.581	-162.627	-0.207	-0.010
-355.566	-2.798	0.203	-0.141
-354.552	45.351	0.326	-0.299
-353.537	11.815	-0.212	0.162
-352.523	43.196	-0.144	0.130
-351.508	-142.409	0.116	0.011
-350.493	800.000	0.049	0.167
-349.479	-170.523	-0.233	-0.008
-348.464	-200.000	0.018	0.121
-347.450	113.459	-0.078	0.094
-346.435	726.565	0.057	-0.152
-345.420	177.304	-0.183	-0.265
-344.406	158.273	0.226	-0.312
-343.391	-25.498	-0.217	-0.127
-342.377	-200.000	-0.034	0.251
-341.362	-200.000	-0.000	-0.032
-340.348	219.186	0.094	0.149
-339.333	-110.889	-0.125	-0.026
-338.318	-83.469	0.275	0.088
-337.304	-70.619	0.304	-0.114
-336.289	-127.943	0.438	0.063
-335.275	40.880	0.293	-0.263
-334.260	-113.698	0.099	-0.019
-333.245	-200.000	0.001	0.270
-332.231	-7.805	0.409	0.274
-331.216	-27.029	-0.310	0.180
-330.202	-200.000	0.028	0.357
-329.187	65.612	0.136	-0.137
-328.172	104.766	0.169	-0.198
-327.158	-183.216	-0.385	-0.007
-326.143	-200.000	-0.064	0.320
-325.129	59.845	-0.055	0.053
-324.114	-152.587	0.186	-0.013
-323.099	-169.086	0.043	0.002
-322.085	521.429	-0.102	0.239
-321.070	-38.772	0.164	0.086
-320.056	194.264	0.116	-0.174
-319.041	150.634	-0.149	0.201
-318.026	-109.589	-0.159	0.033
-317.012	-134.481	0.207	0.025
-315.997	-141.001	-0.071	0.007
-314.983	405.840	0.018	-0.037
-313.968	-56.766	-0.107	-0.047
-312.953	-200.000	0.003	-0.041
-311.939	91.791	-0.100	0.111
-310.924	176.470	-0.068	0.099
-309.910	301.269	-0.076	-0.139
-308.895	667.398	-0.095	0.244
-307.880	-115.359	-0.406	-0.076
-306.866	-12.216	-0.047	0.031
-305.851	-15.091	-0.386	0.246
-304.837	72.537	-0.072	0.074
-303.822	-133.200	-0.277	-0.035
-302.807	-157.166	0.102	-0.006
-301.793	17.156	-0.023	-0.018
-300.778	-174.815	-0.352	-0.010
-299.764	19.344	0.155	0.124
-298.749	101.735	-0.115	-0.133
-297.735	-200.000	0.028	0.327
-296.720	-72.739	0.096	-0.035
-295.705	-13.986	0.054	-0.034
-294.691	54.576	-0.211	-0.201
-293.676	-42.512	0.011	-0.006
-292.662	-139.684	-0.171	0.018
-291.647	-90.273	0.272	-0.078
-290.632	259.478	0.177	0.303
-289.618	800.000	0.073	-0.257
-288.603	-200.000	0.017	-0.106
-287.589	295.525	-0.046	0.084
-286.574	-134.832	0.047	-0.006
-285.559	269.245	0.120	-0.208
-284.545	679.667	0.069	-0.179
-283.530	-119.162	0.215	-0.037
-282.516	-127.057	-0.144	0.021
-281.501	-110.373	0.055	0.011
-280.486	145.927	-0.098	-0.131
-279.472	322.057	-0.104	0.196
-278.457	-117.259	-0.074	-0.013
-277.443	-127.412	-0.198	0.029
-276.428	-139.901	-0.147	0.015
-275.413	-32.534	0.114	0.063
-274.399	192.507	0.127	0.189
-273.384	-200.000	-0.016	-0.147
-272.370	-97.522	0.042	0.011
-271.355	749.081	0.065	0.174
-270.340	-200.000	0.041	-0.379
-269.326	25.508	-0.140	-0.115
-268.311	-200.000	0.036	0.158
-267.297	223.297	0.068	-0.108
-266.282	594.481	-0.065	-0.159
-265.267	114.739	0.106	-0.127
-264.253	148.594	0.016	-0.021
-263.238	-50.802	0.305	-0.142
-262.224	318.608	0.047	0.089
-261.209	-69.440	0.130	-0.049
-260.195	-105.046	-0.115	-0.026
-259.180	21.606	0.061	0.049
-258.165	-38.659	-0.444	-0.232
-257.151	800.000	-0.038	0.130
-256.136	-45.201	0.267	0.132
-255.122	-57.204	-0.180	0.079
-254.107	-27.584	0.127	0.073
-253.092	56.237	-0.056	-0.054
-252.078	-31.379	0.298	0.166
-251.063	-33.252	-0.083	0.046
-250.049	224.913	-0.055	0.088
-249.034	-200.000	-0.031	-0.276
-248.019	-146.269	-0.212	-0.018
-247.005	-200.000	0.025	-0.147
-245.990	800.000	0.052	-0.182
-244.976	-95.604	0.067	0.018
-243.961	-200.000	-0.035	0.221
-242.946	-57.556	-0.187	0.081
-241.932	-38.872	-0.339	0.177
-240.917	-14.303	-0.275	0.175
-239.903	9.468	-0.439	0.329
-238.888	-61.048	0.197	0.082
-237.873	468.661	-0.061	-0.135
-236.859	-125.945	-0.190	0.028
-235.844	-200.000	0.030	0.244
-234.830	103.147	0.175	-0.203
-233.815	-200.000	-0.009	0.131
-232.800	574.511	-0.131	0.315
-231.786	-95.579	0.087	-0.023
-230.771	75.731	0.182	0.190
-229.757	797.344	0.068	0.184
-228.742	43.544	0.209	0.189
-227.727	-90.032	-0.139	-0.040
-226.713	20.106	0.164	-0.131
-225.698	-115.854	-0.125	-0.023
-224.684	4.292	0.384	0.278
-223.669	-106.933	-0.334	0.073
-222.655	70.219	-0.066	-0.067
-221.640	-138.837	0.191	0.021
-220.625	81.910	0.185	-0.198
-219.611	557.907	-0.033	-0.078
-218.596	184.133	0.248	0.363
-217.582	176.753	0.115	0.165
-216.567	129.343	0.108	0.137
-215.552	-135.448	0.286	0.034
-214.538	-15.737	0.084	0.053
-213.523	800.000	0.232	-0.636
-212.509	75.608	0.201	-0.210
-211.494	-77.432	-0.157	-0.054
-210.479	-68.268	0.268	-0.103
-209.465	-2.127	0.147	0.102
-208.450	228.639	0.134	0.216
-207.436	-7.043	-0.220	0.148
-206.421	58.721	-0.258	-0.250
-205.406	-121.511	0.252	0.041
-204.392	8.879	-0.066	0.049
-203.377	3.922	0.314	0.227
-202.363	16.663	0.118	0.092
-201.348	-75.511	0.343	0.121
-200.333	-121.009	-0.446	-0.074
-199.319	-2.145	0.352	-0.244
-198.304	159.102	0.169	0.232
-197.290	-139.376	0.168	-0.018
-196.275	-16.380	0.205	-0.128
-195.260	-91.309	-0.056	0.016
-194.246	321.185	-0.128	0.241
-193.231	21.943	0.169	0.136
-192.217	-200.000	-0.034	0.300
-191.202	95.444	-0.083	0.094
-190.187	203.041	0.254	0.388
-189.173	-87.251	0.295	0.088
-188.158	-200.000	0.006	0.489
-187.144	217.381	-0.019	0.030
-186.129	90.608	-0.034	-0.038
-185.114	800.000	-0.063	-0.265
-184.100	-102.066	0.105	-0.025
-183.085	-131.624	0.263	-0.034
-182.071	190.952	0.139	-0.207
-181.056	-66.753	0.118	-0.046
-180.042	-109.263	-0.341	0.071
-179.027	-52.092	0.290	0.133
-178.012	-112.467	0.092	0.018
-176.998	-36.218	-0.102	-0.054
-175.983	800.000	0.052	-0.157
-174.969	-91.281	-0.174	0.049
-173.954	-142.656	-0.109	-0.011
-172.939	-200.000	-0.025	0.132
-171.925	33.388	0.372	0.319
-170.910	162.382	-0.092	0.128
-169.896	-136.823	0.159	-0.018
-168.881	-200.000	-0.011	-0.486
-167.866	-179.771	0.341	0.007
-166.852	-19.787	0.256	0.156
-165.837	-200.000	0.005	-0.397
-164.823	800.000	-0.098	-0.286
-163.808	-200.000	0.024	0.194
-162.793	-200.000	-0.010	0.121
-161.779	319.770	-0.161	-0.302
-160.764	-156.558	-0.032	-0.002
-159.750	131.838	0.066	-0.084
-158.735	-12.699	-0.123	-0.079
-157.720	-27.614	0.125	-0.072
-156.706	456.144	0.084	0.185
-155.691	-199.033	0.197	-0.001
-154.677	356.404	-0.068	0.134
-153.662	-29.920	-0.234	-0.132
-152.647	-200.000	0.005	-0.085
-151.633	-112.438	-0.153	0.030
-150.618	62.474	0.373	0.367
-149.604	-200.000	-0.050	0.216
-148.589	-115.098	-0.269	-0.050
-147.574	249.241	0.084	-0.140
-146.560	800.000	0.074	0.250
-145.545	-77.817	0.105	0.036
-144.531	-30.487	0.214	-0.120
-143.516	284.745	-0.061	-0.108
-142.502	371.824	-0.067	-0.134
-141.487	283.678	0.036	-0.063
-140.472	-18.712	-0.027	-0.017
-139.458	-200.000	-0.014	0.255
-138.443	440.841	0.132	0.285
-137.429	476.555	-0.056	0.124
-136.414	-120.017	-0.127	-0.021
-135.399	-175.482	0.415	-0.011
-134.385	57.664	-0.168	0.162
-133.370	5.807	0.284	0.207
-132.356	223.475	-0.115	0.183
-131.341	-200.000	0.005	0.266
-130.326	93.804	-0.056	0.062
-129.312	-138.813	-0.117	0.013
-128.297	41.792	0.119	0.106
-127.283	130.757	-0.299	0.378
-126.268	58.977	0.056	-0.054
-125.253	150.649	0.045	-0.061
-124.239	-94.163	-0.315	0.085
-123.224	-6.023	0.281	0.189
-122.210	510.753	-0.071	0.162
-121.195	-103.086	-0.208	0.049
-120.180	-129.648	0.219	0.030
-119.166	-16.690	0.216	-0.135
-118.151	489.352	-0.152	0.342
-117.137	-200.000	0.010	0.324
-116.122	-200.000	0.025	-0.308
-115.107	-180.673	0.177	-0.004
-114.093	56.759	0.212	-0.203
-113.078	-93.702	0.365	-0.099
-112.064	-103.404	0.650	0.151
-111.049	245.762	-0.141	0.234
-110.034	-200.000	0.006	0.102
-109.020	6.270	-0.175	0.128
-108.005	-26.083	0.113	-0.066
-106.991	94.398	0.192	-0.214
-105.976	-131.146	-0.052	-0.007
-104.962	-116.817	-0.041	0.007
-103.947	102.508	0.181	0.208
-102.932	171.282	-0.076	0.107
-101.918	451.816	-0.118	0.256
-100.903	-200.000	0.029	-0.214
-99.889	-102.769	-0.378	0.088
-98.874	629.844	-0.030	0.074
-97.859	47.864	-0.252	-0.232
-96.845	189.079	-0.042	-0.062
-95.830	-200.000	-0.012	0.275
-94.816	43.545	-0.210	0.189
-93.801	303.860	0.115	0.211
-92.786	-190.079	-0.377	0.004
-91.772	-200.000	0.045	0.368
-90.757	-200.000	0.017	0.197
-89.743	-200.000	-0.018	-0.223
-88.728	-119.397	-0.063	-0.011
-87.713	573.574	-0.095	-0.228
-86.699	-21.845	-0.314	-0.188
-85.684	-4.830	-0.104	0.071
-84.670	800.000	-0.083	-0.250
-83.655	312.880	0.070	0.129
-82.640	369.362	0.203	-0.403
-81.626	-10.022	0.238	-0.155
-80.611	158.966	-0.169	0.231
-79.597	186.537	-0.058	-0.084
-78.582	128.636	0.046	0.058
-77.567	346.220	0.042	-0.082
-76.553	-31.839	0.161	-0.089
-75.538	150.410	0.153	0.204
-74.524	-93.222	-0.340	0.093
-73.509	189.225	0.195	0.287
-72.494	96.822	0.250	-0.282
-71.480	-200.000	-0.031	-0.155
-70.465	519.155	0.056	0.129
-69.451	69.937	0.301	0.305
-68.436	-200.000	0.027	0.205
-67.422	470.158	-0.034	0.075
-66.407	-44.873	-0.275	-0.135
-65.392	35.949	-0.114	-0.098
-64.378	398.935	0.072	0.148
-63.363	156.541	0.077	-0.104
-62.349	251.447	-0.296	-0.496
-61.334	1.656	-1.045	-0.739
-60.319	95.346	0.536	0.600
-59.305	800.000	-0.287	-1.106
-58.290	278.472	0.554	0.971
-57.276	411.334	0.747	1.558
-56.261	-200.000	100.301	585.745
-55.246	508.287	1410.065	3216.781
-54.232	158.019	2578.390	3511.379
-53.217	110.175	2156.431	2543.688
-52.203	41.530	1692.914	1505.590
-51.188	34.274	1503.062	1287.857
-50.173	31.834	1476.239	1248.595
-49.159	51.577	1527.412	1426.149
-48.144	53.257	1545.616	1454.482
-47.130	34.495	1504.002	1289.953
-46.115	31.365	1489.498	1256.458
-45.100	31.147	1486.019	1252.012
-44.086	31.153	1483.871	1250.192
-43.071	31.145	1482.030	1248.534
-42.057	31.079	1480.557	1246.802
-41.042	31.053	1479.070	1245.327
-40.027	31.083	1477.205	1243.911
-39.013	31.033	1475.487	1242.079
-37.998	30.939	1474.727	1240.766
-36.984	31.077	1473.351	1240.478
-35.969	31.119	1471.835	1239.428
-34.954	31.120	1470.677	1238.409
-33.940	31.144	1469.335	1237.394
-32.925	31.182	1467.636	1236.168
-31.911	31.170	1466.595	1235.156
-30.896	31.251	1465.056	1234.350
-29.881	31.178	1464.367	1233.236
-28.867	31.166	1462.940	1231.909
-27.852	31.235	1461.217	1230.861
-26.838	31.160	1460.382	1229.615
-25.823	31.233	1458.627	1228.568
-24.809	31.085	1457.046	1226.219
-23.794	31.133	1455.457	1225.149
-22.779	31.238	1454.225	1224.751
-21.765	31.229	1453.328	1223.889
-20.750	31.123	1452.072	1222.086
-19.736	31.082	1451.362	1221.170
-18.721	31.046	1450.390	1220.070
-17.706	31.166	1448.696	1219.378
-16.692	31.112	1448.075	1218.456
-15.677	30.993	1447.544	1217.184
-14.663	31.134	1445.727	1216.531
-13.648	31.083	1445.065	1215.591
-12.633	31.192	1443.864	1215.241
-11.619	31.119	1443.286	1214.235
-10.604	31.078	1442.696	1213.423
-9.590	31.203	1441.133	1212.868
-8.575	31.124	1440.893	1212.110
-7.560	31.140	1439.440	1210.941
-6.546	31.093	1438.744	1209.999
-5.531	31.117	1438.180	1209.634
-4.517	31.120	1437.035	1208.645
-3.502	31.014	1436.246	1207.243
-2.487	31.125	1435.160	1207.000
-1.473	31.186	1433.989	1206.362
-0.458	31.040	1432.827	1204.398
0.556	29.067	1423.645	1193.035
1.571	26.123	1397.935	1152.617
2.586	22.528	1338.645	1081.605
3.600	20.869	1257.365	1006.270
4.615	19.519	1212.680	962.895
5.629	16.798	1157.146	904.218
6.644	8.477	1072.651	796.791
7.659	1.327	1031.992	732.131
8.673	0.194	1026.487	722.730
9.688	0.093	1023.208	719.874
10.702	0.047	1021.917	718.680
11.717	-0.065	1019.968	716.713
12.731	2.560	1022.500	730.963
13.746	11.039	1033.465	779.492
14.761	17.088	1041.159	814.326
15.775	17.540	1040.151	815.631
16.790	16.543	1037.943	809.063
17.804	15.450	1035.608	801.950
18.819	14.507	1034.152	796.252
19.834	14.170	1033.046	793.720
20.848	13.875	1031.568	791.109
21.863	13.592	1030.836	789.129
22.877	13.402	1030.233	787.697
23.892	13.229	1029.081	785.924
24.907	13.136	1028.608	785.047
25.921	13.019	1028.150	784.074
26.936	13.092	1027.518	783.872
27.950	13.130	1026.720	783.373
28.965	13.120	1026.308	782.940
29.980	13.262	1025.022	782.564
30.994	13.418	1023.915	782.383
32.009	13.278	1023.202	781.110
33.023	13.463	1022.823	781.626
34.038	13.327	1022.002	780.286
35.053	13.291	1021.444	779.623
36.067	13.268	1020.216	778.508
37.082	13.222	1019.452	777.641
38.096	13.355	1018.664	777.595
39.111	13.281	1017.906	776.599
40.126	13.251	1017.030	775.721
41.140	13.219	1016.146	774.830
42.155	13.210	1014.879	773.754
43.169	13.150	1014.228	772.908
44.184	13.088	1013.256	771.808
45.199	13.037	1012.623	771.021
46.213	13.092	1011.411	770.284
47.228	13.059	1010.573	769.426
48.242	13.187	1009.566	769.184
49.257	13.276	1008.510	768.726
50.271	13.163	1007.674	767.496
51.286	13.184	1006.839	766.890
52.301	13.164	1006.473	766.449
53.315	13.158	1005.728	765.790
54.330	13.231	1004.506	765.127
55.344	13.124	1003.671	763.928
56.359	13.135	1002.892	763.318
57.374	13.004	1002.023	761.984
58.388	13.179	1000.750	761.758
59.403	13.134	1000.139	761.018
60.417	12.992	999.793	760.030
61.432	13.161	998.765	759.962
62.447	13.025	997.991	758.678
63.461	12.944	997.417	757.806
64.476	13.145	996.077	757.640
65.490	12.966	995.643	756.423
66.505	13.051	995.026	756.277
67.520	13.082	993.808	755.427
68.534	13.215	992.867	755.254
69.549	12.994	992.463	753.866
70.563	13.098	991.806	753.778
71.578	13.115	991.160	753.298
72.593	12.999	990.270	752.024
73.607	13.001	989.551	751.421
74.622	13.015	988.562	750.668
75.636	12.925	987.867	749.663
76.651	12.932	987.016	748.986
77.666	12.962	985.945	748.242
78.680	13.095	985.104	748.139
79.695	12.938	985.125	747.379
80.709	13.008	984.537	747.185
81.724	13.106	983.286	746.610
82.739	13.014	982.778	745.744
83.753	13.103	981.895	745.408
84.768	13.193	981.230	745.243
85.782	13.220	980.530	744.766
86.797	13.139	980.051	743.975
87.812	13.310	979.257	744.074
88.826	13.220	977.967	742.622
89.841	13.210	976.915	741.717
90.855	13.233	976.682	741.575
91.870	13.235	976.226	741.175
92.884	13.346	975.329	740.923
93.899	13.394	974.324	740.309
94.914	13.395	973.485	739.610
95.928	13.451	972.888	739.340
96.943	13.455	972.254	738.811
97.957	13.316	971.249	737.365
98.972	13.215	970.730	736.455
99.987	13.334	969.581	736.049
101.001	13.368	969.431	736.020
102.016	13.291	968.593	734.977
103.030	13.306	967.457	734.114
104.045	13.327	966.280	733.251
105.060	13.388	965.517	732.877
106.074	13.218	964.991	731.662
107.089	13.194	964.161	730.862
108.103	13.097	963.020	729.500
109.118	13.067	962.456	728.877
110.133	13.169	961.357	728.432
111.147	13.221	960.525	727.964
112.162	13.245	959.547	727.264
113.176	13.196	958.958	726.538
114.191	13.129	958.195	725.603
115.206	13.236	957.286	725.319
116.220	13.091	956.641	724.130
117.235	13.228	955.635	723.906
118.249	13.230	954.855	723.260
119.264	13.237	953.738	722.381
120.279	13.170	952.990	721.458
121.293	13.212	952.107	720.909
122.308	13.251	951.377	720.462
123.322	13.222	950.546	719.641
124.337	13.120	949.582	718.403
125.352	13.236	948.387	717.941
126.366	13.134	947.567	716.812
127.381	13.091	946.461	715.725
128.395	13.146	945.627	715.273
129.410	13.070	944.859	714.297
130.424	13.123	943.809	713.671
131.439	13.158	942.662	712.889
132.454	13.159	942.110	712.416
133.468	13.221	941.485	712.144
134.483	13.303	941.024	712.087
135.497	13.222	940.137	711.005
136.512	13.178	939.231	710.067
137.527	13.178	938.549	709.488
138.541	13.367	937.442	709.402
139.556	13.249	937.417	708.812
140.570	13.186	936.775	707.994
141.585	13.280	935.563	707.418
142.600	13.359	934.908	707.199
143.614	13.267	934.197	706.206
144.629	13.416	933.404	706.178
145.643	13.307	932.970	705.324
146.658	13.386	931.830	704.733
147.673	13.483	930.272	703.905
148.687	13.238	930.461	702.947
149.702	13.191	929.590	702.026
150.716	13.214	928.529	701.260
151.731	13.202	927.825	700.615
152.746	13.289	927.146	700.410
153.760	13.266	926.371	699.666
154.775	13.404	925.206	699.305
155.789	13.421	924.333	698.657
156.804	13.354	924.189	698.202
157.819	13.442	923.118	697.703
158.833	13.277	923.094	696.929
159.848	13.378	922.220	696.633
160.862	13.455	921.587	696.416
161.877	13.623	920.557	696.282
162.892	13.474	920.011	695.180
163.906	13.537	918.833	694.493
164.921	13.376	918.136	693.232
165.935	13.458	917.078	692.713
166.950	13.511	916.009	692.065
167.964	13.457	915.196	691.164
168.979	13.528	913.926	690.441
169.994	13.488	913.490	689.884
171.008	13.528	912.622	689.336
172.023	13.602	911.792	688.954
173.037	13.579	911.108	688.282
174.052	13.751	910.443	688.432
175.067	13.559	909.828	687.110
176.081	13.556	909.322	686.656
177.096	13.557	908.035	685.624
178.110	13.464	907.567	684.827
179.125	13.505	906.971	684.484
180.140	13.597	906.188	684.214
181.154	13.546	905.285	683.260
182.169	13.622	904.923	683.242
183.183	13.761	904.086	683.122
184.198	13.674	903.353	682.147
185.213	13.639	902.660	681.421
186.227	13.585	902.556	681.062
187.242	13.573	901.943	680.490
188.256	13.873	900.906	680.875
189.271	13.797	900.102	679.896
190.286	13.708	899.568	679.069
191.300	13.656	898.884	678.282
192.315	13.558	897.941	677.109
193.329	13.362	897.677	676.046
194.344	13.526	896.731	675.946
195.359	13.504	896.554	675.661
196.373	13.552	895.814	675.240
197.388	13.727	895.123	675.373
198.402	13.829	894.664	675.381
199.417	13.825	894.754	675.374
200.432	14.026	893.906	675.490
201.446	13.923	893.375	674.612
202.461	14.163	892.932	675.190
203.475	14.128	892.410	674.593
204.490	14.068	891.876	673.887
205.504	13.960	891.432	673.056
206.519	13.896	890.421	671.974
207.534	14.018	889.531	671.734
208.548	13.887	888.612	670.455
209.563	13.926	888.127	670.184
210.577	13.950	887.393	669.668
211.592	14.034	886.766	669.473
212.607	14.025	886.124	668.893
213.621	14.117	885.740	668.915
214.636	14.230	884.459	668.343
215.650	14.135	884.153	667.671
216.665	14.165	883.676	667.372
217.680	14.173	883.380	667.122
218.694	14.223	882.475	666.581
219.709	14.395	881.866	666.747
220.723	14.256	881.708	666.015
221.738	14.226	880.658	665.044
222.753	14.296	879.745	664.574
223.767	14.352	878.998	664.176
224.782	14.253	878.627	663.441
225.796	14.207	878.118	662.814
226.811	14.357	877.129	662.604
227.826	14.240	876.724	661.775
228.840	14.411	876.037	661.877
229.855	14.253	875.436	660.740
230.869	14.256	874.857	660.254
231.884	14.281	874.180	659.785
232.899	14.272	873.293	659.021
233.913	14.231	872.539	658.230
234.928	14.267	871.879	657.815
235.942	14.171	871.489	657.085
236.957	14.300	870.476	656.772
237.972	14.267	869.974	656.204
238.986	14.379	869.692	656.376
240.001	14.409	868.706	655.692
241.015	14.223	868.640	654.854
242.030	14.403	867.432	654.591
243.045	14.440	866.829	654.223
244.059	14.523	866.333	654.117
245.074	14.283	865.956	652.832
246.088	14.536	864.992	653.038
247.103	14.377	864.898	652.288
248.117	14.616	863.666	652.235
249.132	14.445	863.719	651.548
250.147	14.594	862.750	651.343
251.161	14.743	862.312	651.534
252.176	14.775	861.152	650.727
253.190	14.722	861.060	650.394
254.205	14.828	860.423	650.264
255.220	14.886	859.788	649.953
256.234	14.883	858.992	649.284
257.249	14.780	858.613	648.538
258.263	14.913	857.835	648.409
259.278	14.852	857.458	647.834
260.293	14.957	856.634	647.560
261.307	14.821	856.301	646.724
262.322	15.068	855.450	646.978
263.336	15.002	854.910	646.256
264.351	14.912	854.635	645.644
265.366	14.988	853.838	645.280
266.380	15.029	853.116	644.832
267.395	15.097	852.573	644.626
268.409	15.107	851.703	643.953
269.424	14.935	851.088	642.769
270.439	14.983	850.514	642.462
271.453	14.969	850.428	642.289
272.468	14.932	849.298	641.234
273.482	14.963	848.484	640.684
274.497	15.115	848.059	640.888
275.512	15.094	847.281	640.161
276.526	14.996	846.558	639.186
277.541	15.094	845.999	639.080
278.555	15.108	845.380	638.611
279.570	15.150	844.667	638.173
280.585	15.139	844.465	637.922
281.599	15.221	843.871	637.730
282.614	15.238	843.027	637.099
283.628	15.304	842.274	636.725
284.643	15.226	842.086	636.232
285.657	15.179	841.632	635.655
286.672	15.091	841.323	635.031
287.687	15.177	840.478	634.661
288.701	15.141	840.053	634.148
289.716	15.155	839.702	633.882
290.730	15.247	839.134	633.745
291.745	15.423	838.261	633.692
292.760	15.389	837.438	632.886
293.774	15.433	837.210	632.824
294.789	15.430	836.701	632.374
295.803	15.416	835.964	631.708
296.818	15.508	835.552	631.685
297.833	15.452	834.729	630.797
298.847	15.432	834.068	630.166
299.862	15.419	833.463	629.605
300.876	15.536	832.598	629.332
301.891	15.534	832.156	628.937
302.906	15.437	831.537	628.049
303.920	15.565	830.633	627.788
304.935	15.648	830.431	627.891
305.949	15.665	829.846	627.458
306.964	15.682	829.135	626.929
307.979	15.617	828.539	626.180
308.993	15.550	827.924	625.410
310.008	15.683	827.667	625.655
311.022	15.802	826.916	625.477
312.037	15.562	826.733	624.389
313.052	15.605	826.214	624.101
314.066	15.709	825.074	623.571
315.081	15.685	824.781	623.203
316.095	15.419	824.547	621.988
317.110	15.652	823.658	622.123
318.125	15.653	823.122	621.669
319.139	15.683	822.586	621.319
320.154	15.506	822.359	620.439
321.168	15.771	821.388	620.629
322.183	15.669	821.038	619.933
323.197	15.707	820.794	619.836
324.212	15.882	820.006	619.830
325.227	15.867	819.372	619.240
326.241	15.638	819.343	618.319
327.256	15.821	818.213	618.084
328.270	15.706	817.632	617.168
329.285	15.792	817.479	617.316
330.300	15.732	817.243	616.863
331.314	15.680	816.225	615.849
332.329	15.874	815.492	615.949
333.343	15.821	815.165	615.455
334.358	15.900	814.291	615.031
335.373	15.850	813.954	614.540
336.387	15.958	813.012	614.167
337.402	15.994	812.783	614.070
338.416	15.927	812.616	613.648
339.431	16.004	812.161	613.528
340.446	16.185	811.293	613.478
341.460	16.065	811.037	612.793
342.475	16.072	810.272	612.187
343.489	16.247	809.551	612.222
344.504	16.095	809.079	611.259
345.519	16.168	808.481	611.018
346.533	16.264	808.211	611.109
347.548	16.198	807.721	610.443
348.562	16.232	807.216	610.130
349.577	16.189	806.546	609.417
350.592	16.140	806.270	608.975
351.606	16.148	805.617	608.457
352.621	15.997	805.259	607.590
353.635	16.219	804.643	607.871
354.650	16.154	804.434	607.424
355.665	16.293	803.925	607.488
356.679	16.207	803.436	606.756
357.694	16.144	803.031	606.169
358.708	16.285	802.253	606.035
359.723	16.116	802.217	605.345
360.738	16.475	801.491	606.032
361.752	16.426	800.413	604.987
362.767	16.325	800.213	604.423
363.781	16.295	800.387	604.392
364.796	16.376	799.603	604.036
365.810	16.469	799.228	604.034
366.825	16.559	798.624	603.843
367.840	16.559	798.447	603.657
368.854	16.652	797.991	603.589
369.869	16.637	797.592	603.182
370.883	16.618	797.170	602.740
371.898	16.510	796.646	601.908
372.913	16.588	795.976	601.625
373.927	16.746	795.056	601.437
374.942	16.617	794.593	600.575
375.956	16.501	794.212	599.822
376.971	16.659	793.441	599.749
377.986	16.718	792.880	599.478
379.000	16.830	792.265	599.359
380.015	16.886	791.884	599.215
381.029	16.749	791.646	598.499
382.044	16.841	790.994	598.275
383.059	16.811	790.435	597.694
384.073	16.749	789.696	596.864
385.088	16.735	789.664	596.740
386.102	16.737	788.966	596.164
387.117	16.749	788.014	595.437
388.132	16.696	787.769	595.010
389.146	16.722	787.321	594.711
390.161	16.798	787.209	594.840
391.175	17.005	786.465	594.954
392.190	16.800	786.562	594.255
393.205	16.886	785.616	593.788
394.219	16.950	785.330	593.744
395.234	16.947	785.022	593.446
396.248	16.842	784.258	592.451
397.263	16.811	783.773	591.923
398.278	16.727	783.592	591.439
399.292	16.655	783.231	590.865
400.307	16.817	782.649	590.938
401.321	16.739	782.481	590.486
402.336	16.773	782.130	590.289
403.350	16.886	781.781	590.366
404.365	16.940	781.259	590.109
405.380	17.080	780.472	589.947
406.394	16.976	779.933	589.128
407.409	17.082	779.533	589.142
408.423	17.128	779.536	589.250
409.438	17.096	778.864	588.581
410.453	17.264	778.434	588.786
411.467	17.128	778.296	588.157
412.482	17.277	777.449	587.980
413.496	17.246	777.040	587.510
414.511	17.228	776.877	587.276
415.526	17.144	776.598	586.722
416.540	17.270	776.094	586.725
417.555	17.277	775.857	586.516
418.569	17.266	775.168	585.907
419.584	17.282	774.639	585.508
420.599	17.451	774.137	585.660
421.613	108.376	1287.784	1463.409
422.628	92.540	1362.610	1463.510
