DTS Sentinel unit serial number:	SN413079Multiplexer serial number:	ORYXHardware model number:	OX4-SRSoftware version number:	ORYX F/W v4.00 Oryx Data Collector v3.7.2.0data status	okinstallation	princeton_trtdifferential loss correction	single-endedforward channel	channel 3reverse channel	N/Adate	2019/09/12time	06:42:11forward acquisition time	60.00reverse acquisition time	0.00gamma	496.2192k internal	0.2319k external	0.2319temperature offset calibration	1.0032default loss term (dB/km)	0.3790temperature slope calibration	1.0000multiplexer offset coefficient	1.0000multiplexer slope coefficient	1.0000fibre end	0.00T internal ref (°C)	32.14T ext. ref 1 (°C)	1.59T ext. ref 2 (°C)	27.23length (m)	temperature (°C)	Stokes	anti-Stokes-747.200	94.184	0.200	-0.229
-746.185	-110.305	-0.188	-0.040
-745.171	105.722	-0.039	0.047
-744.156	-200.000	-0.016	0.190
-743.142	23.642	0.244	0.203
-742.127	113.352	0.183	-0.225
-741.112	-107.618	-0.079	0.018
-740.098	13.175	-0.214	0.167
-739.083	-200.000	0.002	-0.159
-738.069	244.818	0.065	0.111
-737.054	-180.603	0.330	0.007
-736.039	-28.723	-0.286	-0.167
-735.025	-65.028	0.107	-0.044
-734.010	-37.822	0.246	-0.132
-732.996	-109.623	-0.583	-0.124
-731.981	152.612	-0.055	-0.076
-730.966	243.890	-0.093	0.157
-729.952	-0.735	0.022	-0.016
-728.937	-4.210	-0.202	0.142
-727.923	-200.000	-0.022	0.129
-726.908	-81.480	0.435	0.145
-725.894	150.468	0.062	-0.085
-724.879	800.000	0.052	-0.217
-723.864	-33.644	0.394	0.220
-722.850	518.934	-0.060	0.141
-721.835	-118.402	0.151	0.027
-720.821	-147.629	0.241	0.021
-719.806	-114.862	0.208	-0.040
-718.791	-133.170	-0.308	0.039
-717.777	265.808	0.201	0.354
-716.762	336.540	0.052	0.101
-715.748	-121.120	-0.175	0.030
-714.733	337.904	0.238	-0.467
-713.718	-200.000	0.022	-0.180
-712.704	79.981	0.181	0.196
-711.689	-61.302	0.381	0.162
-710.675	-11.835	-0.176	-0.117
-709.660	536.131	-0.083	-0.199
-708.645	-178.079	0.365	-0.009
-707.631	15.631	0.282	0.224
-706.616	-200.000	-0.074	-0.368
-705.602	-200.000	-0.055	-0.326
-704.587	-91.396	-0.353	-0.102
-703.572	-149.513	0.126	0.010
-702.558	-106.169	0.132	-0.030
-701.543	166.546	0.146	0.209
-700.529	-13.812	0.234	0.153
-699.514	-200.000	0.013	-0.267
-698.499	-79.204	-0.098	0.034
-697.485	-200.000	0.004	-0.189
-696.470	198.983	-0.153	-0.237
-695.456	-200.000	-0.001	-0.014
-694.441	148.660	-0.229	-0.312
-693.426	-149.507	0.248	-0.020
-692.412	-70.446	-0.297	-0.113
-691.397	223.295	0.290	-0.472
-690.383	21.578	-0.184	0.151
-689.368	-200.000	-0.014	-0.199
-688.354	-130.712	-0.236	-0.032
-687.339	54.589	0.199	0.194
-686.324	684.263	0.027	0.071
-685.310	-200.000	0.035	0.309
-684.295	800.000	-0.028	0.086
-683.281	-133.394	0.155	-0.020
-682.266	-107.630	-0.100	-0.022
-681.251	229.138	0.143	0.236
-680.237	-17.456	0.356	0.226
-679.222	-132.071	0.252	-0.033
-678.208	-200.000	-0.011	-0.131
-677.193	409.939	0.018	0.038
-676.178	-96.706	-0.355	0.094
-675.164	53.550	0.142	-0.138
-674.149	-0.129	0.201	-0.144
-673.135	-200.000	-0.021	-0.231
-672.120	-67.337	0.091	0.036
-671.105	-200.000	-0.008	0.041
-670.091	-200.000	-0.043	0.272
-669.076	40.564	-0.004	-0.004
-668.062	-200.000	-0.003	-0.252
-667.047	-93.360	0.194	-0.054
-666.032	-22.621	0.341	0.208
-665.018	125.988	0.030	0.038
-664.003	-98.287	-0.231	-0.060
-662.989	347.246	-0.103	0.204
-661.974	196.744	-0.037	0.057
-660.959	463.617	0.075	-0.170
-659.945	219.814	-0.171	-0.276
-658.930	-72.091	-0.164	-0.061
-657.916	85.385	0.258	0.285
-656.901	55.559	-0.215	-0.210
-655.886	-200.000	0.008	0.259
-654.872	184.317	-0.116	0.173
-653.857	800.000	-0.086	-0.246
-652.843	-16.689	0.270	0.172
-651.828	-54.110	0.142	-0.065
-650.814	396.136	-0.104	0.219
-649.799	139.731	0.122	-0.161
-648.784	800.000	-0.033	0.143
-647.770	84.724	-0.313	-0.346
-646.755	-200.000	0.013	-0.112
-645.741	27.659	-0.325	-0.276
-644.726	-200.000	-0.001	0.026
-643.711	800.000	-0.071	0.225
-642.697	-70.661	0.356	0.136
-641.682	800.000	-0.128	0.383
-640.668	-200.000	0.072	-0.358
-639.653	17.852	-0.304	-0.243
-638.638	-69.262	-0.275	-0.106
-637.624	-200.000	0.042	-0.310
-636.609	-58.649	0.124	0.054
-635.595	96.960	0.212	0.244
-634.580	-200.000	-0.010	0.075
-633.565	800.000	0.179	-0.608
-632.551	-94.164	-0.023	0.006
-631.536	293.738	0.023	0.043
-630.522	598.419	-0.075	0.186
-629.507	-200.000	0.004	-0.105
-628.492	-71.743	0.315	-0.118
-627.478	234.152	0.159	0.264
-626.463	42.217	-0.194	-0.178
-625.449	-27.717	0.172	-0.100
-624.434	800.000	0.019	0.064
-623.419	-149.812	-0.180	-0.014
-622.405	87.959	-0.144	0.161
-621.390	97.545	0.027	0.031
-620.376	154.726	0.152	0.210
-619.361	125.135	-0.075	-0.095
-618.346	800.000	0.135	-0.384
-617.332	697.647	-0.087	-0.230
-616.317	800.000	-0.093	-0.316
-615.303	-22.697	0.207	-0.126
-614.288	-74.031	-0.308	0.113
-613.273	-141.828	0.151	0.015
-612.259	28.693	-0.082	0.070
-611.244	165.680	-0.188	-0.267
-610.230	38.409	0.100	0.089
-609.215	-200.000	0.042	0.228
-608.201	394.266	-0.124	-0.261
-607.186	-90.772	0.260	-0.076
-606.171	-29.879	-0.003	-0.002
-605.157	-46.406	0.156	0.077
-604.142	3.770	-0.143	-0.105
-603.128	800.000	-0.057	0.242
-602.113	-98.782	0.302	-0.077
-601.098	-198.831	-0.290	-0.002
-600.084	-131.676	-0.340	0.045
-599.069	44.690	0.140	-0.130
-598.055	179.623	0.174	-0.256
-597.040	-9.517	0.177	-0.119
-596.025	86.724	-0.234	0.259
-595.011	-144.161	-0.052	-0.005
-593.996	75.054	0.178	0.189
-592.982	235.716	-0.039	0.065
-591.967	-86.618	-0.165	-0.051
-590.952	-45.852	-0.201	-0.100
-589.938	177.018	-0.093	0.136
-588.923	-153.705	-0.140	0.010
-587.909	-200.000	-0.024	-0.173
-586.894	-101.330	-0.141	-0.035
-585.879	-34.146	0.310	0.171
-584.865	156.746	0.086	-0.119
-583.850	-47.339	0.342	-0.167
-582.836	-38.660	-0.104	0.055
-581.821	-56.495	0.184	0.082
-580.806	-80.067	-0.215	0.072
-579.792	185.512	-0.052	-0.078
-578.777	2.995	0.124	0.091
-577.763	800.000	0.157	-0.536
-576.748	-200.000	0.005	0.093
-575.733	800.000	0.046	0.134
-574.719	332.129	-0.031	-0.061
-573.704	27.009	0.227	-0.192
-572.690	-64.619	-0.360	0.147
-571.675	9.341	-0.157	0.119
-570.661	-104.922	0.160	0.037
-569.646	-129.535	-0.337	-0.047
-568.631	-200.000	-0.046	-0.287
-567.617	-56.625	-0.091	-0.040
-566.602	-200.000	0.034	-0.354
-565.588	-200.000	0.002	0.110
-564.573	-48.627	0.139	0.067
-563.558	-155.020	-0.387	0.025
-562.544	-69.274	-0.077	-0.030
-561.529	-70.322	0.128	-0.049
-560.515	500.111	-0.256	-0.593
-559.500	225.232	0.125	-0.204
-558.485	83.779	-0.132	0.144
-557.471	-44.721	-0.101	-0.051
-556.456	-178.817	0.019	-0.000
-555.442	800.000	0.112	0.331
-554.427	187.158	-0.052	-0.079
-553.412	-200.000	-0.014	-0.177
-552.398	26.811	0.206	-0.174
-551.383	-68.761	-0.151	-0.059
-550.369	2.130	0.299	-0.217
-549.354	-146.562	-0.089	-0.008
-548.339	86.216	-0.099	-0.110
-547.325	33.327	0.084	-0.073
-546.310	-200.000	0.078	0.405
-545.296	800.000	-0.020	0.073
-544.281	800.000	0.015	-0.055
-543.266	540.258	0.042	0.101
-542.252	151.358	0.117	0.160
-541.237	262.213	0.033	-0.057
-540.223	-109.803	-0.187	-0.039
-539.208	152.473	-0.015	-0.021
-538.193	109.237	0.127	-0.153
-537.179	14.019	-0.218	0.171
-536.164	-31.768	0.203	0.114
-535.150	-104.805	-0.096	0.022
-534.135	23.844	-0.168	-0.139
-533.121	-92.047	-0.143	0.040
-532.106	-51.415	0.105	-0.049
-531.091	-116.464	-0.391	0.072
-530.077	-25.983	-0.152	-0.090
-529.062	-33.721	-0.195	-0.108
-528.048	800.000	-0.106	0.354
-527.033	-163.733	-0.121	-0.006
-526.018	206.418	0.258	0.402
-525.004	-66.365	0.298	0.119
-523.989	205.368	-0.132	-0.206
-522.975	294.839	-0.182	-0.334
-521.960	185.184	-0.101	-0.150
-520.945	-200.000	-0.046	0.370
-519.931	129.172	-0.095	0.121
-518.916	-200.000	0.536	0.001
-517.902	-135.771	-0.304	0.036
-516.887	-129.672	-0.213	-0.029
-515.872	-20.312	0.134	-0.083
-514.858	-13.224	-0.309	0.201
-513.843	800.000	0.067	-0.280
-512.829	71.368	0.126	-0.131
-511.814	362.518	0.092	-0.185
-510.799	300.749	-0.071	0.132
-509.785	-70.209	0.088	-0.034
-508.770	-113.597	-0.123	0.024
-507.756	245.766	0.082	0.139
-506.741	-107.174	0.277	0.061
-505.726	721.205	-0.042	-0.113
-504.712	-132.797	-0.313	0.040
-503.697	-200.000	-0.028	0.375
-502.683	-173.357	-0.084	-0.003
-501.668	-111.405	-0.147	-0.030
-500.653	46.264	-0.175	0.162
-499.639	-200.000	0.025	-0.543
-498.624	77.245	0.154	0.164
-497.610	-85.523	0.365	-0.114
-496.595	-18.728	0.276	-0.172
-495.581	-200.000	-0.003	-0.025
-494.566	5.534	0.253	-0.187
-493.551	176.922	0.114	0.166
-492.537	-200.000	0.090	-0.561
-491.522	32.085	-0.194	0.167
-490.508	12.635	0.202	0.156
-489.493	-200.000	-0.001	-0.050
-488.478	-105.597	-0.071	-0.016
-487.464	-64.624	0.176	-0.071
-486.449	41.239	-0.146	0.132
-485.435	-2.337	-0.190	-0.133
-484.420	-131.753	-0.236	-0.031
-483.405	-29.269	-0.258	0.148
-482.391	-169.360	0.405	-0.015
-481.376	296.355	-0.241	-0.443
-480.362	-14.126	0.060	-0.039
-479.347	-200.000	-0.002	0.118
-478.332	-81.888	-0.196	0.064
-477.318	-12.689	-0.088	-0.058
-476.303	-74.947	0.157	-0.056
-475.289	-200.000	0.030	-0.176
-474.274	343.540	0.050	-0.097
-473.259	43.782	0.110	-0.100
-472.245	-200.000	-0.016	-0.227
-471.230	94.979	-0.119	0.136
-470.216	138.650	0.150	-0.198
-469.201	-135.107	-0.159	0.019
-468.186	800.000	-0.057	0.191
-467.172	368.681	0.040	-0.082
-466.157	-155.956	0.212	0.013
-465.143	800.000	-0.061	-0.226
-464.128	617.083	-0.169	0.424
-463.113	800.000	0.015	0.056
-462.099	41.198	0.120	0.108
-461.084	50.164	0.144	-0.136
-460.070	-65.952	0.155	-0.062
-459.055	-200.000	0.032	0.418
-458.040	550.170	0.081	0.193
-457.026	-92.545	0.180	0.051
-456.011	6.499	0.402	-0.298
-454.997	72.807	-0.190	-0.199
-453.982	-96.004	-0.069	-0.018
-452.968	-8.634	0.097	-0.065
-451.953	-18.398	0.040	0.025
-450.938	-148.281	0.456	-0.038
-449.924	-200.000	0.059	-0.270
-448.909	-200.000	0.003	-0.199
-447.895	800.000	-0.024	-0.070
-446.880	397.879	-0.100	0.210
-445.865	-71.377	-0.225	0.084
-444.851	800.000	-0.153	-0.439
-443.836	-15.504	-0.073	0.046
-442.822	800.000	0.040	-0.141
-441.807	-200.000	-0.015	0.326
-440.792	-94.420	-0.100	0.027
-439.778	429.572	0.066	0.142
-438.763	158.502	-0.130	-0.180
-437.749	69.296	0.101	-0.104
-436.734	93.812	-0.124	-0.140
-435.719	-49.818	0.063	0.030
-434.705	129.627	0.152	-0.194
-433.690	800.000	-0.091	-0.272
-432.676	-200.000	-0.078	-0.392
-431.661	-200.000	-0.048	0.245
-430.646	10.394	-0.251	-0.191
-429.632	-36.992	-0.286	0.153
-428.617	-50.380	0.320	-0.151
-427.603	-104.044	-0.133	0.031
-426.588	-142.829	0.075	-0.007
-425.573	-200.000	-0.005	0.153
-424.559	39.849	-0.172	-0.154
-423.544	-36.227	-0.236	-0.127
-422.530	-29.543	-0.072	0.041
-421.515	-200.000	-0.024	0.154
-420.500	-102.481	0.183	-0.044
-419.486	-200.000	0.062	0.285
-418.471	800.000	0.090	0.384
-417.457	-138.749	-0.147	-0.016
-416.442	20.604	-0.097	-0.078
-415.428	634.861	-0.056	0.141
-414.413	-24.424	-0.166	-0.099
-413.398	172.169	0.162	-0.233
-412.384	-200.000	0.011	-0.156
-411.369	-81.602	-0.251	-0.082
-410.355	1.354	-0.225	0.161
-409.340	29.246	0.172	-0.146
-408.325	403.066	-0.090	-0.188
-407.311	800.000	0.016	-0.060
-406.296	51.815	-0.267	0.254
-405.282	-98.351	0.355	0.091
-404.267	-27.182	-0.302	-0.176
-403.252	-54.189	0.201	0.091
-402.238	-143.025	0.304	-0.029
-401.223	429.807	-0.089	0.192
-400.209	9.734	0.046	-0.035
-399.194	-140.099	-0.100	0.011
-398.179	-99.483	0.272	0.068
-397.165	-125.962	-0.277	0.042
-396.150	24.742	0.274	-0.226
-395.136	-28.052	0.341	-0.197
-394.121	-82.569	0.223	0.072
-393.106	800.000	0.029	-0.101
-392.092	-200.000	0.063	0.438
-391.077	-49.662	-0.302	-0.143
-390.063	-75.339	-0.056	0.020
-389.048	27.113	-0.230	-0.192
-388.033	-96.299	0.041	-0.011
-387.019	-200.000	0.001	0.332
-386.004	-109.932	0.173	-0.036
-384.990	100.182	-0.160	0.185
-383.975	47.102	0.194	-0.180
-382.960	231.365	-0.065	0.106
-381.946	-17.300	0.147	0.092
-380.931	-187.974	0.130	-0.002
-379.917	-147.051	-0.144	-0.012
-378.902	127.738	-0.079	0.100
-377.888	203.755	0.172	-0.265
-376.873	17.972	-0.070	0.056
-375.858	-200.000	-0.018	0.339
-374.844	125.176	-0.137	0.172
-373.829	12.512	-0.156	-0.120
-372.815	-200.000	0.020	-0.207
-371.800	-50.966	0.322	0.151
-370.785	-200.000	-0.061	-0.297
-369.771	-77.561	0.236	-0.081
-368.756	-200.000	-0.009	-0.209
-367.742	302.858	0.025	-0.047
-366.727	86.411	-0.090	0.099
-365.712	58.409	0.085	-0.084
-364.698	-43.693	0.272	0.137
-363.683	561.561	-0.027	-0.065
-362.669	68.945	-0.165	-0.169
-361.654	191.892	0.259	0.389
-360.639	-200.000	-0.060	-0.340
-359.625	-13.489	-0.097	-0.063
-358.610	-61.928	-0.178	-0.074
-357.596	394.314	-0.117	0.243
-356.581	-200.000	-0.001	0.054
-355.566	-181.445	0.144	-0.003
-354.552	800.000	0.042	-0.140
-353.537	800.000	-0.017	0.058
-352.523	-9.970	-0.225	0.149
-351.508	90.684	-0.175	0.196
-350.493	-56.635	0.253	0.112
-349.479	-200.000	0.007	0.625
-348.464	-200.000	-0.041	0.202
-347.450	-60.822	0.326	-0.137
-346.435	57.994	0.166	-0.162
-345.420	84.708	0.248	-0.270
-344.406	607.729	0.088	0.219
-343.391	768.116	-0.071	0.193
-342.377	-200.000	-0.034	-0.193
-341.362	157.930	-0.053	0.074
-340.348	-58.412	0.189	-0.082
-339.333	134.053	-0.392	0.506
-338.318	800.000	0.071	0.303
-337.304	90.066	-0.176	0.196
-336.289	504.321	0.167	-0.384
-335.275	-57.045	0.576	0.253
-334.260	198.264	-0.029	-0.045
-333.245	8.103	0.238	0.177
-332.231	-68.653	-0.190	-0.073
-331.216	-200.000	-0.026	0.265
-330.202	115.845	-0.116	0.141
-329.187	-200.000	0.028	0.204
-328.172	-40.894	0.183	-0.094
-327.158	-37.494	0.106	-0.056
-326.143	197.310	-0.184	-0.279
-325.129	-61.932	0.050	-0.021
-324.114	-200.000	-0.015	0.201
-323.099	-200.000	-0.019	-0.155
-322.085	-52.101	0.324	-0.150
-321.070	226.189	-0.117	-0.188
-320.056	213.872	-0.138	0.217
-319.041	-200.000	0.007	0.091
-318.026	-147.037	-0.163	0.014
-317.012	-112.301	-0.089	-0.018
-315.997	211.313	0.110	0.172
-314.983	-39.656	0.189	-0.098
-313.968	221.319	0.101	-0.162
-312.953	635.583	-0.084	-0.211
-311.939	-200.000	0.021	0.235
-310.924	77.043	-0.244	0.258
-309.910	351.577	-0.079	-0.156
-308.895	-68.175	0.204	0.079
-307.880	33.440	0.277	-0.239
-306.866	89.131	-0.113	-0.125
-305.851	-18.338	-0.411	0.255
-304.837	107.286	-0.024	-0.028
-303.822	153.356	0.176	0.239
-302.807	-24.121	0.116	-0.069
-301.793	-26.869	-0.229	0.133
-300.778	-200.000	0.021	-0.184
-299.764	581.419	0.066	-0.161
-298.749	570.730	0.063	0.151
-297.735	77.731	-0.157	-0.167
-296.720	-14.419	0.291	0.186
-295.705	-134.325	-0.246	-0.030
-294.691	-200.000	0.020	0.187
-293.676	-200.000	0.020	0.188
-292.662	800.000	-0.081	-0.327
-291.647	-148.197	0.245	-0.020
-290.632	-200.000	-0.003	0.105
-289.618	-6.220	0.154	-0.104
-288.603	-133.650	-0.181	0.022
-287.589	37.078	0.087	-0.077
-286.574	-81.768	-0.180	0.059
-285.559	-200.000	0.006	-0.243
-284.545	110.857	-0.057	-0.069
-283.530	90.229	-0.093	-0.103
-282.516	800.000	0.042	-0.162
-281.501	11.519	-0.242	0.184
-280.486	-200.000	-0.040	-0.221
-279.472	321.363	0.090	0.170
-278.457	800.000	0.105	0.399
-277.443	-200.000	-0.002	-0.044
-276.428	-13.036	-0.188	0.122
-275.413	800.000	-0.021	0.070
-274.399	47.228	-0.064	-0.059
-273.384	-200.000	-0.044	0.380
-272.370	211.023	0.190	-0.296
-271.355	141.935	0.133	-0.175
-270.340	-97.051	0.187	-0.049
-269.326	800.000	0.055	-0.191
-268.311	800.000	-0.098	0.318
-267.297	237.134	0.154	0.253
-266.282	146.260	0.071	-0.094
-265.267	-200.000	-0.038	-0.197
-264.253	-200.000	0.010	-0.201
-263.238	37.514	0.103	-0.091
-262.224	63.710	-0.166	-0.165
-261.209	-35.189	-0.058	-0.031
-260.195	268.511	-0.078	0.136
-259.180	-200.000	0.026	0.239
-258.165	-64.208	0.157	-0.064
-257.151	-104.603	0.055	-0.013
-256.136	-21.710	-0.121	-0.073
-255.122	58.812	-0.004	-0.004
-254.107	5.756	0.224	-0.164
-253.092	-102.855	0.156	-0.037
-252.078	43.775	0.209	-0.190
-251.063	522.363	-0.106	-0.246
-250.049	-62.723	0.198	-0.081
-249.034	800.000	0.043	-0.165
-248.019	-102.621	-0.168	0.040
-247.005	-157.964	0.125	-0.007
-245.990	27.067	-0.188	0.156
-244.976	800.000	0.032	0.118
-243.961	467.619	0.018	0.041
-242.946	107.824	-0.136	-0.161
-241.932	800.000	-0.050	0.192
-240.917	85.210	-0.193	0.210
-239.903	99.984	-0.083	0.096
-238.888	-200.000	0.017	0.225
-237.873	-17.898	-0.087	-0.054
-236.859	-100.628	-0.263	-0.064
-235.844	-149.056	0.362	0.029
-234.830	113.707	-0.071	0.085
-233.815	142.711	-0.266	-0.350
-232.800	159.900	-0.053	0.074
-231.786	800.000	0.156	0.443
-230.771	213.392	0.082	0.128
-229.757	-69.097	0.089	0.034
-228.742	-122.962	0.266	-0.043
-227.727	16.450	-0.263	-0.206
-226.713	43.705	-0.193	-0.175
-225.698	-200.000	0.009	-0.181
-224.684	310.549	-0.170	0.316
-223.669	268.821	0.172	0.299
-222.655	37.234	-0.153	0.135
-221.640	68.030	0.216	0.219
-220.625	800.000	-0.027	0.082
-219.611	153.087	-0.309	0.419
-218.596	-5.352	0.349	-0.237
-217.582	800.000	0.035	0.102
-216.567	800.000	0.043	-0.128
-215.552	800.000	-0.037	0.157
-214.538	-93.819	-0.046	0.012
-213.523	741.304	-0.106	0.283
-212.509	116.099	-0.054	-0.065
-211.494	800.000	0.030	0.096
-210.479	98.998	0.133	0.152
-209.465	800.000	0.013	-0.053
-208.450	800.000	0.089	0.276
-207.436	800.000	-0.049	0.183
-206.421	-160.996	0.098	-0.005
-205.406	-200.000	0.026	0.195
-204.392	-141.278	0.132	-0.013
-203.377	-78.653	0.136	-0.046
-202.363	-200.000	-0.026	-0.238
-201.348	-200.000	-0.002	0.477
-200.333	-109.044	0.052	-0.011
-199.319	52.627	0.232	0.219
-198.304	-79.733	0.193	-0.064
-197.290	-200.000	-0.011	0.170
-196.275	-121.031	0.139	0.023
-195.260	29.352	-0.141	0.119
-194.246	-200.000	-0.004	0.079
-193.231	-200.000	-0.049	0.223
-192.217	-200.000	0.073	0.000
-191.202	-0.836	-0.096	0.067
-190.187	16.641	-0.104	0.081
-189.173	800.000	0.061	-0.260
-188.158	-121.106	0.207	0.034
-187.144	-200.000	-0.003	-0.246
-186.129	-111.400	0.284	0.057
-185.114	144.293	-0.102	0.134
-184.100	800.000	0.078	-0.263
-183.085	-168.967	-0.244	-0.009
-182.071	-114.652	0.162	-0.031
-181.056	-200.000	-0.009	-0.094
-180.042	-94.570	-0.133	-0.036
-179.027	330.612	0.037	0.070
-178.012	303.153	-0.067	-0.123
-176.998	800.000	-0.081	0.265
-175.983	-6.808	0.239	0.161
-174.969	-154.253	-0.132	0.009
-173.954	-200.000	-0.002	-0.030
-172.939	-9.707	-0.302	-0.199
-171.925	-94.929	-0.013	0.003
-170.910	-115.573	-0.225	-0.042
-169.896	170.325	0.053	-0.075
-168.881	76.542	0.167	0.175
-167.866	-193.920	-0.221	-0.002
-166.852	353.685	-0.007	-0.014
-165.837	-200.000	0.034	0.433
-164.823	-88.233	0.114	0.034
-163.808	-26.270	0.074	0.043
-162.793	-163.862	-0.295	-0.014
-161.779	800.000	0.076	-0.270
-160.764	-200.000	-0.013	0.074
-159.750	-164.850	-0.277	0.012
-158.735	-139.850	0.119	0.012
-157.720	-73.396	-0.245	-0.088
-156.706	-200.000	0.017	0.194
-155.691	9.335	0.307	0.229
-154.677	280.823	-0.060	0.106
-153.662	-111.859	-0.244	0.049
-152.647	400.188	0.077	0.160
-151.633	-119.487	-0.061	-0.010
-150.618	-200.000	-0.005	0.153
-149.604	290.038	0.146	0.262
-148.589	-77.690	0.409	-0.140
-147.574	54.990	0.247	-0.235
-146.560	207.843	0.100	0.155
-145.545	1.671	-0.188	0.133
-144.531	143.220	0.248	0.326
-143.516	-146.323	-0.290	0.025
-142.502	-101.101	0.099	-0.024
-141.487	-81.219	-0.300	-0.098
-140.472	-46.194	-0.381	0.185
-139.458	43.633	-0.078	-0.071
-138.443	-105.938	-0.095	-0.021
-137.429	337.491	-0.120	-0.231
-136.414	800.000	0.141	0.405
-135.399	-53.320	-0.169	-0.077
-134.385	800.000	-0.068	-0.277
-133.370	-80.718	0.157	0.052
-132.356	-22.152	-0.162	0.097
-131.341	278.110	-0.236	-0.414
-130.326	138.733	0.133	0.172
-129.312	-139.527	-0.211	0.022
-128.297	-200.000	0.014	-0.193
-127.283	-46.928	0.197	-0.095
-126.268	249.608	0.083	0.139
-125.253	187.090	-0.103	0.152
-124.239	800.000	-0.077	-0.251
-123.224	800.000	-0.065	-0.265
-122.210	15.854	0.227	0.177
-121.195	-127.528	0.201	-0.029
-120.180	-200.000	-0.032	-0.176
-119.166	254.858	0.132	0.224
-118.151	113.277	0.189	-0.226
-117.137	3.670	0.481	-0.346
-116.122	-76.954	-0.287	-0.099
-115.107	-55.142	0.335	-0.149
-114.093	373.089	-0.029	-0.059
-113.078	-200.000	0.002	0.282
-112.064	-45.001	0.249	0.122
-111.049	-126.306	0.213	-0.031
-110.034	800.000	-0.028	-0.118
-109.020	-93.358	0.174	-0.048
-108.005	530.041	0.064	0.149
-106.991	186.366	0.091	0.133
-105.976	800.000	0.025	-0.072
-104.962	800.000	0.095	0.323
-103.947	-135.096	-0.265	0.031
-102.932	800.000	0.071	-0.245
-101.918	52.731	0.199	-0.188
-100.903	67.632	-0.125	-0.126
-99.889	-200.000	0.083	-0.382
-98.874	-200.000	0.017	0.284
-97.859	233.585	0.190	0.308
-96.845	-147.432	0.405	0.034
-95.830	462.620	0.068	0.149
-94.816	102.226	0.080	0.092
-93.801	774.313	0.136	-0.365
-92.786	121.453	0.118	-0.145
-91.772	732.424	-0.071	0.188
-90.757	37.012	-0.294	0.257
-89.743	418.516	-0.072	-0.151
-88.728	-33.553	-0.236	-0.129
-87.713	79.514	-0.068	-0.072
-86.699	-3.862	-0.082	-0.056
-85.684	556.507	0.076	0.179
-84.670	-200.000	-0.081	0.374
-83.655	172.665	0.144	0.204
-82.640	85.135	0.234	0.253
-81.626	-200.000	-0.019	-0.194
-80.611	800.000	-0.149	0.464
-79.597	-141.045	0.190	0.019
-78.582	-159.277	0.339	-0.019
-77.567	-83.174	0.055	0.017
-76.553	8.024	-0.078	-0.058
-75.538	-200.000	0.006	0.166
-74.524	70.899	0.160	-0.164
-73.509	-200.000	-0.009	0.139
-72.494	-115.819	0.049	-0.009
-71.480	171.901	-0.209	0.296
-70.465	-44.667	0.051	-0.025
-69.451	800.000	0.103	0.365
-68.436	-200.000	0.018	-0.215
-67.422	-10.458	0.035	-0.023
-66.407	15.733	-0.389	0.302
-65.392	-175.054	-0.163	0.004
-64.378	-108.715	0.133	0.028
-63.363	-27.246	-0.180	0.104
-62.349	-200.000	0.071	-0.423
-61.334	82.555	-0.868	-0.928
-60.319	-58.206	0.434	0.186
-59.305	800.000	-0.303	-0.937
-58.290	255.041	0.589	0.994
-57.276	538.379	0.605	1.416
-56.261	-200.000	96.160	596.462
-55.246	564.889	1372.970	3276.383
-54.232	160.719	2550.765	3506.184
-53.217	112.248	2161.848	2573.368
-52.203	42.849	1708.128	1532.415
-51.188	35.302	1521.523	1313.498
-50.173	32.899	1495.115	1274.452
-49.159	52.087	1544.134	1448.306
-48.144	53.838	1561.290	1476.350
-47.130	35.558	1520.674	1314.309
-46.115	32.423	1506.314	1280.558
-45.100	32.244	1503.049	1276.512
-44.086	32.206	1501.610	1274.983
-43.071	32.148	1499.245	1272.530
-42.057	32.121	1497.724	1271.006
-41.042	32.158	1496.298	1269.997
-40.027	32.163	1495.248	1269.090
-39.013	32.171	1492.989	1267.172
-37.998	32.098	1492.135	1265.909
-36.984	32.140	1491.129	1265.284
-35.969	32.204	1489.668	1264.430
-34.954	32.162	1488.122	1262.785
-33.940	32.082	1486.977	1261.222
-32.925	32.176	1485.153	1260.257
-31.911	32.205	1483.838	1259.286
-30.896	32.159	1482.737	1257.995
-29.881	32.223	1481.834	1257.603
-28.867	32.281	1479.528	1255.983
-27.852	32.190	1478.928	1254.822
-26.838	32.234	1477.162	1253.564
-25.823	32.160	1475.650	1251.738
-24.809	32.145	1474.263	1250.412
-23.794	32.173	1472.301	1248.887
-22.779	32.181	1471.274	1248.020
-21.765	32.164	1470.469	1247.175
-20.750	32.124	1469.437	1245.982
-19.736	32.118	1468.151	1244.799
-18.721	32.136	1466.852	1243.769
-17.706	32.165	1465.887	1243.094
-16.692	32.187	1464.429	1241.955
-15.677	32.100	1463.444	1240.495
-14.663	32.137	1462.745	1240.099
-13.648	32.250	1461.365	1239.622
-12.633	32.106	1460.609	1237.985
-11.619	32.032	1459.924	1236.868
-10.604	32.095	1458.964	1236.420
-9.590	32.041	1458.261	1235.420
-8.575	32.128	1457.441	1235.248
-7.560	32.043	1456.320	1233.693
-6.546	32.135	1455.562	1233.602
-5.531	32.075	1454.630	1232.373
-4.517	32.062	1453.555	1231.323
-3.502	32.138	1452.536	1230.914
-2.487	32.105	1451.261	1229.567
-1.473	32.014	1450.642	1228.395
-0.458	32.011	1449.265	1227.165
0.556	31.995	1439.375	1216.573
1.571	29.139	1414.297	1177.047
2.586	25.887	1358.187	1110.254
3.600	24.395	1278.845	1036.641
4.615	23.008	1232.465	991.185
5.629	19.288	1174.504	924.568
6.644	9.711	1087.580	808.271
7.659	2.689	1046.724	743.864
8.673	1.814	1041.133	735.601
9.688	1.635	1037.991	732.457
10.702	1.523	1036.673	730.926
11.717	1.379	1034.681	728.764
12.731	4.457	1037.836	745.720
13.746	13.997	1052.181	802.214
14.761	22.281	1062.421	850.163
15.775	24.745	1064.475	863.647
16.790	24.892	1064.709	864.470
17.804	24.824	1063.347	862.960
18.819	24.642	1063.191	861.875
19.834	24.744	1062.176	861.472
20.848	24.881	1062.000	861.909
21.863	24.996	1061.304	861.822
22.877	24.967	1061.292	861.599
23.892	24.916	1060.651	860.756
24.907	24.712	1060.022	859.187
25.921	24.825	1059.002	858.828
26.936	24.908	1058.525	858.765
27.950	24.868	1056.965	857.231
28.965	24.859	1055.803	856.169
29.980	24.670	1054.889	854.449
30.994	24.768	1053.570	853.771
32.009	25.007	1052.608	854.055
33.023	25.080	1051.860	853.724
34.038	24.878	1051.042	852.022
35.053	24.698	1050.249	850.449
36.067	24.967	1049.107	850.723
37.082	24.765	1048.712	849.369
38.096	24.909	1048.308	849.653
39.111	25.173	1047.213	849.941
40.126	25.156	1046.401	849.124
41.140	25.091	1044.942	847.561
42.155	24.740	1043.529	844.680
43.169	24.517	1042.664	842.851
44.184	24.474	1041.760	841.845
45.199	24.569	1040.516	841.211
46.213	24.504	1039.698	840.172
47.228	24.478	1038.857	839.293
48.242	24.616	1038.174	839.317
49.257	24.655	1037.901	839.207
50.271	24.914	1036.533	839.239
51.286	24.915	1036.307	838.987
52.301	25.014	1035.204	838.481
53.315	24.962	1034.928	837.943
54.330	25.014	1033.752	837.157
55.344	24.878	1032.966	835.813
56.359	24.807	1032.833	835.298
57.374	24.813	1031.622	834.275
58.388	24.857	1030.469	833.473
59.403	24.622	1030.100	832.006
60.417	24.724	1028.933	831.463
61.432	24.611	1028.113	830.204
62.447	24.521	1027.399	829.134
63.461	24.614	1027.012	829.181
64.476	24.697	1026.208	828.843
65.490	24.600	1025.338	827.620
66.505	24.513	1024.489	826.455
67.520	24.552	1023.479	825.749
68.534	24.617	1023.621	826.093
69.549	24.511	1022.421	824.561
70.563	24.227	1020.897	821.950
71.578	24.080	1020.101	820.557
72.593	24.132	1019.403	820.164
73.607	24.030	1018.289	818.727
74.622	23.993	1017.055	817.493
75.636	24.197	1016.875	818.212
76.651	24.516	1015.735	818.684
77.666	24.317	1015.346	817.386
78.680	24.383	1014.044	816.566
79.695	24.188	1013.864	815.458
80.709	24.390	1013.057	815.658
81.724	24.636	1012.359	816.149
82.739	24.603	1011.035	814.860
83.753	24.391	1011.038	813.825
84.768	24.804	1010.157	814.925
85.782	25.028	1009.548	815.379
86.797	25.280	1008.926	815.952
87.812	25.132	1008.220	814.637
88.826	25.006	1006.966	812.979
89.841	24.994	1006.319	812.330
90.855	25.195	1005.661	812.636
91.870	25.236	1004.773	812.034
92.884	25.188	1003.772	810.937
93.899	24.874	1003.035	808.851
94.914	24.843	1002.234	807.993
95.928	25.108	1000.884	808.026
96.943	25.232	1000.027	807.824
97.957	24.670	999.385	804.705
98.972	24.644	997.854	803.281
99.987	24.411	996.863	801.367
101.001	24.600	996.505	801.855
102.016	24.878	995.738	802.416
103.030	24.828	994.960	801.493
104.045	24.760	993.779	800.167
105.060	24.651	992.696	798.739
106.074	24.479	991.607	797.020
107.089	24.456	991.192	796.514
108.103	24.901	990.209	797.637
109.118	24.925	989.780	797.328
110.133	24.698	987.989	794.808
111.147	24.516	987.291	793.365
112.162	24.456	986.596	792.471
113.176	24.247	985.394	790.511
114.191	24.418	984.867	790.774
115.206	24.610	983.865	790.751
116.220	24.268	982.892	788.384
117.235	24.132	981.683	786.744
118.249	24.223	981.642	787.043
119.264	24.213	980.694	786.173
120.279	24.105	979.574	784.728
121.293	24.191	979.079	784.639
122.308	24.276	978.264	784.291
123.322	24.226	977.781	783.613
124.337	24.286	976.697	782.940
125.352	24.204	974.942	781.103
126.366	23.742	973.417	777.792
127.381	23.432	972.087	775.305
128.395	23.976	972.156	777.671
129.410	24.673	971.760	780.328
130.424	24.813	971.196	780.417
131.439	24.850	970.394	779.866
132.454	24.668	969.384	778.192
133.468	24.846	968.145	777.903
134.483	24.652	967.907	776.799
135.497	24.826	966.857	776.641
136.512	24.975	966.537	776.964
137.527	25.012	966.053	776.663
138.541	25.121	964.580	775.885
139.556	24.981	964.401	775.066
140.570	25.116	963.377	774.759
141.585	25.023	962.680	773.726
142.600	25.132	962.091	773.657
143.614	24.895	960.920	771.624
144.629	25.130	960.214	772.001
145.643	25.391	959.596	772.559
146.658	25.227	958.517	770.918
147.673	24.921	957.465	768.689
148.687	25.130	956.169	768.475
149.702	24.851	955.337	766.546
150.716	24.912	954.083	765.731
151.731	24.703	953.203	764.063
152.746	24.782	952.770	763.987
153.760	24.977	952.419	764.472
154.775	25.172	951.781	764.722
155.789	25.270	950.669	764.181
156.804	25.186	949.743	763.010
157.819	25.158	948.445	761.780
158.833	25.169	947.938	761.354
159.848	25.230	947.252	760.991
160.862	25.340	946.474	760.768
161.877	25.229	945.567	759.502
162.892	25.088	944.805	758.223
163.906	25.228	943.983	758.090
164.921	25.177	942.990	757.010
165.935	25.191	941.725	755.987
166.950	25.105	940.833	754.842
167.964	25.210	940.002	754.549
168.979	25.225	939.027	753.762
169.994	24.999	938.263	752.135
171.008	25.027	937.272	751.391
172.023	25.166	936.233	751.075
173.037	25.274	936.281	751.500
174.052	25.104	934.432	749.238
175.067	24.972	933.903	748.197
176.081	24.929	932.829	747.091
177.096	25.013	932.267	746.925
178.110	25.030	930.985	745.899
179.125	24.954	929.914	744.663
180.140	24.516	929.256	742.247
181.154	24.542	928.628	741.788
182.169	24.561	928.548	741.737
183.183	25.038	927.921	743.151
184.198	25.272	927.080	743.381
185.213	25.221	926.646	742.756
186.227	25.163	925.864	741.821
187.242	25.139	925.674	741.506
188.256	25.152	925.179	741.096
189.271	25.075	924.331	740.033
190.286	25.549	923.513	741.269
191.300	25.133	922.642	738.790
192.315	24.513	921.334	735.126
193.329	23.741	920.060	730.871
194.344	23.415	918.557	728.271
195.359	23.943	919.090	730.800
196.373	24.900	919.504	734.997
197.388	25.204	919.092	735.848
198.402	24.999	918.554	734.515
199.417	25.080	917.688	734.085
200.432	25.089	917.808	734.153
201.446	24.974	916.930	732.915
202.461	24.715	915.754	730.852
203.475	24.750	915.662	730.859
204.490	24.369	914.175	728.053
205.504	23.148	911.552	720.928
206.519	23.601	912.032	723.090
207.534	24.611	912.278	727.332
208.548	24.545	911.831	726.642
209.563	25.090	911.388	728.442
210.577	25.019	911.007	727.785
211.592	24.804	909.954	726.008
212.607	25.215	909.590	727.318
213.621	25.425	909.320	727.891
214.636	25.213	908.642	726.424
215.650	25.107	908.124	725.516
216.665	25.216	907.511	725.403
217.680	25.301	906.913	725.206
218.694	25.265	906.339	724.535
219.709	25.004	905.636	722.858
220.723	24.723	904.458	720.722
221.738	24.815	904.010	720.672
222.753	25.109	903.677	721.525
223.767	25.006	902.654	720.230
224.782	25.231	901.917	720.482
225.796	25.311	901.657	720.530
226.811	25.323	901.478	720.372
227.826	24.912	899.762	717.293
228.840	24.286	898.271	713.534
229.855	24.083	897.805	712.289
230.869	24.336	897.642	713.111
231.884	24.026	896.720	711.077
232.899	24.148	896.122	711.025
233.913	24.792	896.831	714.096
234.928	24.985	896.280	714.365
235.942	24.978	895.282	713.479
236.957	25.043	894.579	713.112
237.972	24.678	893.470	710.717
238.986	24.659	892.834	710.071
240.001	24.654	892.475	709.701
241.015	24.821	891.378	709.431
242.030	24.803	891.201	709.154
243.045	24.932	890.658	709.171
244.059	25.039	890.422	709.343
245.074	25.190	889.826	709.403
246.088	25.239	889.075	708.935
247.103	24.798	887.754	706.081
248.117	24.757	887.902	705.972
249.132	25.326	887.432	707.782
250.147	25.610	887.246	708.687
251.161	25.706	887.300	709.048
252.176	26.102	886.351	709.783
253.190	25.939	885.883	708.704
254.205	25.958	885.342	708.283
255.220	26.125	885.209	708.772
256.234	26.194	884.205	708.177
257.249	25.935	883.799	706.773
258.263	25.920	882.864	705.906
259.278	25.744	882.761	705.069
260.293	25.885	882.150	705.072
261.307	26.101	881.256	705.138
262.322	25.905	880.562	703.754
263.336	25.757	880.103	702.749
264.351	25.306	878.764	699.859
265.366	24.305	876.772	694.315
266.380	23.925	875.598	691.848
267.395	24.821	876.245	695.784
268.409	25.623	876.150	698.764
269.424	25.525	875.440	697.753
270.439	25.691	875.162	698.116
271.453	25.807	874.561	698.023
272.468	25.697	874.094	697.162
273.482	25.922	873.661	697.626
274.497	26.057	873.339	697.830
275.512	25.961	872.098	696.404
276.526	25.229	871.079	692.705
277.541	25.494	870.796	693.440
278.555	25.835	870.745	694.653
279.570	25.680	869.616	693.093
280.585	25.480	869.006	691.777
281.599	25.450	868.855	691.480
282.614	25.662	868.112	691.644
283.628	25.157	867.115	688.848
284.643	24.958	866.292	687.371
285.657	25.478	865.902	688.994
286.672	25.233	865.241	687.468
287.687	24.738	864.413	684.855
288.701	25.046	864.396	685.961
289.716	25.564	863.907	687.491
290.730	25.155	862.904	685.072
291.745	25.064	862.107	684.030
292.760	24.883	861.301	682.640
293.774	24.641	860.996	681.414
294.789	25.623	861.263	685.309
295.803	26.103	861.683	687.413
296.818	26.258	861.534	687.823
297.833	26.400	860.438	687.426
298.847	26.035	859.497	685.227
299.862	25.744	858.884	683.573
300.876	25.970	858.376	683.964
301.891	26.191	857.817	684.298
302.906	26.402	857.073	684.442
303.920	25.948	856.145	681.924
304.935	25.733	855.950	680.894
305.949	26.109	855.847	682.176
306.964	26.318	854.970	682.205
307.979	26.000	854.077	680.234
308.993	25.932	853.699	679.614
310.008	26.255	853.850	680.892
311.022	26.419	853.225	680.952
312.037	26.326	852.213	679.734
313.052	26.034	851.912	678.334
314.066	25.938	850.914	677.121
315.081	25.206	849.845	673.463
316.095	24.522	848.317	669.628
317.110	25.044	848.531	671.695
318.125	25.959	848.786	675.267
319.139	25.548	847.922	672.982
320.154	24.280	846.310	666.901
321.168	23.926	844.921	664.426
322.183	24.569	845.309	667.076
323.197	25.415	845.454	670.289
324.212	25.821	845.105	671.467
325.227	25.932	845.024	671.755
326.241	26.083	844.776	672.062
327.256	25.941	844.124	670.954
328.270	25.849	843.459	670.027
329.285	25.807	842.665	669.180
330.300	25.705	841.977	668.197
331.314	25.354	841.154	666.180
332.329	25.515	840.285	666.030
333.343	26.057	840.127	667.855
334.358	26.126	840.101	668.030
335.373	26.101	839.382	667.304
336.387	26.272	838.809	667.422
337.402	26.427	838.756	667.893
338.416	26.613	838.155	668.043
339.431	26.584	837.569	667.409
340.446	26.633	837.160	667.207
341.460	26.855	836.732	667.620
342.475	26.885	836.004	667.094
343.489	26.413	835.477	664.876
344.504	26.507	834.890	664.696
345.519	26.803	834.520	665.430
346.533	27.065	833.981	665.900
347.548	27.073	833.961	665.858
348.562	26.983	833.608	665.186
349.577	26.993	832.787	664.509
350.592	26.910	832.078	663.582
351.606	26.904	831.166	662.774
352.621	27.002	830.891	662.855
353.635	26.770	830.500	661.636
354.650	26.798	829.774	661.101
355.665	26.404	829.199	659.148
356.679	25.387	827.444	653.994
357.694	25.213	826.681	652.699
358.708	26.004	826.855	655.657
359.723	25.910	826.089	654.650
360.738	26.097	826.048	655.238
361.752	26.568	826.034	656.880
362.767	26.679	825.831	657.061
363.781	26.994	825.382	657.788
364.796	27.218	825.258	658.444
365.810	27.302	825.024	658.500
366.825	27.411	824.061	658.070
367.840	27.350	824.343	658.017
368.854	27.148	823.472	656.530
369.869	26.813	822.662	654.620
370.883	26.619	822.009	653.340
371.898	26.658	821.461	652.989
372.913	26.584	821.012	652.309
373.927	26.640	820.305	651.889
374.942	26.754	819.551	651.641
375.956	26.968	819.391	652.226
376.971	26.877	818.759	651.338
377.986	26.991	818.620	651.581
379.000	27.291	818.041	652.135
380.015	27.406	817.331	651.925
381.029	27.103	816.967	650.494
382.044	27.110	816.175	649.828
383.059	27.124	815.661	649.413
384.073	27.216	814.969	649.132
385.088	27.317	814.640	649.173
386.102	27.321	813.966	648.593
387.117	26.924	813.200	646.512
388.132	26.919	812.683	646.026
389.146	26.811	812.201	645.203
390.161	26.194	811.164	642.128
391.175	26.280	811.093	642.319
392.190	26.828	811.022	644.153
393.205	26.939	810.454	644.040
394.219	26.022	808.496	639.179
395.234	24.262	806.314	631.173
396.248	23.530	805.159	627.622
397.263	24.542	806.368	632.092
398.278	26.337	807.821	639.535
399.292	26.851	807.561	641.090
400.307	26.563	806.855	639.453
401.321	26.559	806.427	639.044
402.336	26.546	806.137	638.711
403.350	26.917	806.049	639.893
404.365	27.315	805.963	641.174
405.380	27.695	805.794	642.321
406.394	27.827	805.430	642.439
407.409	27.960	805.239	642.697
408.423	27.987	804.632	642.251
409.438	27.770	804.150	641.046
410.453	27.949	803.478	641.082
411.467	28.077	803.405	641.416
412.482	27.931	802.764	640.334
413.496	27.906	801.747	639.379
414.511	28.067	801.432	639.635
415.526	28.065	801.349	639.506
416.540	27.932	801.264	638.917
417.555	28.015	800.368	638.436
418.569	27.648	799.621	636.501
419.584	27.648	799.122	636.048
420.599	27.794	798.788	636.237
421.613	109.733	1286.521	1458.185
422.628	94.524	1357.603	1458.307
