DTS Sentinel unit serial number:	SN413079Multiplexer serial number:	ORYXHardware model number:	OX4-SRSoftware version number:	ORYX F/W v4.00 Oryx Data Collector v3.7.2.0data status	okinstallation	princeton_trtdifferential loss correction	single-endedforward channel	channel 3reverse channel	N/Adate	2019/09/11time	15:58:11forward acquisition time	60.00reverse acquisition time	0.00gamma	496.2192k internal	0.2289k external	0.2289temperature offset calibration	0.9985default loss term (dB/km)	0.3790temperature slope calibration	1.0000multiplexer offset coefficient	1.0000multiplexer slope coefficient	1.0000fibre end	0.00T internal ref (°C)	43.02T ext. ref 1 (°C)	1.03T ext. ref 2 (°C)	38.76length (m)	temperature (°C)	Stokes	anti-Stokes-747.200	800.000	0.054	0.170
-746.185	-127.089	0.123	-0.018
-745.171	367.772	0.077	-0.159
-744.156	43.603	-0.141	-0.133
-743.142	25.906	0.118	-0.101
-742.127	371.015	-0.148	0.308
-741.112	123.516	-0.092	0.118
-740.098	323.279	0.064	0.124
-739.083	800.000	0.028	-0.114
-738.069	-148.714	-0.240	0.020
-737.054	-113.212	-0.413	0.083
-736.039	800.000	-0.058	0.198
-735.025	-197.407	-0.145	0.001
-734.010	-200.000	-0.018	-0.262
-732.996	800.000	0.058	-0.248
-731.981	-73.767	-0.210	0.078
-730.966	-56.559	-0.022	0.010
-729.952	158.650	-0.195	-0.277
-728.937	84.846	0.020	-0.023
-727.923	-7.205	-0.311	0.216
-726.908	-106.972	-0.203	-0.046
-725.894	-44.247	-0.181	0.093
-724.879	180.214	-0.095	-0.143
-723.864	-31.986	-0.253	0.145
-722.850	9.837	0.175	0.136
-721.835	800.000	-0.080	0.237
-720.821	-200.000	0.009	0.127
-719.806	-168.964	-0.037	-0.001
-718.791	20.297	0.055	0.045
-717.777	-200.000	0.041	0.243
-716.762	-200.000	-0.008	-0.336
-715.748	-200.000	0.006	0.127
-714.733	294.758	-0.127	0.239
-713.718	-200.000	0.069	-0.328
-712.704	140.424	0.181	-0.245
-711.689	265.577	-0.093	-0.166
-710.675	-200.000	-0.019	0.192
-709.660	29.795	0.258	0.225
-708.645	-200.000	0.000	0.059
-707.631	67.291	-0.365	-0.381
-706.616	5.905	-0.190	-0.144
-705.602	-200.000	0.050	0.236
-704.587	214.367	0.179	-0.290
-703.572	-200.000	-0.053	-0.379
-702.558	800.000	-0.136	0.528
-701.543	-141.678	0.093	0.010
-700.529	-62.161	-0.299	0.128
-699.514	800.000	-0.082	-0.288
-698.499	-200.000	-0.008	-0.189
-697.485	-200.000	-0.074	0.355
-696.470	-200.000	0.022	-0.139
-695.456	-20.311	-0.278	-0.175
-694.441	-101.503	-0.230	0.057
-693.426	-200.000	0.010	0.073
-692.412	-96.414	0.199	-0.054
-691.397	-114.342	0.334	-0.066
-690.383	132.115	0.235	-0.310
-689.368	-200.000	-0.031	-0.297
-688.354	-200.000	0.033	-0.259
-687.339	800.000	0.089	-0.363
-686.324	201.123	0.110	-0.172
-685.310	415.478	-0.020	-0.044
-684.295	-61.146	-0.281	0.121
-683.281	-167.984	-0.325	0.013
-682.266	-200.000	0.090	-0.456
-681.251	257.919	0.027	-0.048
-680.237	-136.655	-0.132	0.016
-679.222	-143.648	-0.059	0.006
-678.208	-71.411	-0.341	-0.131
-677.193	-18.224	-0.041	-0.026
-676.178	65.872	-0.302	0.314
-675.164	684.736	0.125	0.333
-674.149	800.000	0.072	0.270
-673.135	181.622	0.208	-0.313
-672.120	-62.637	-0.224	-0.095
-671.105	288.171	0.057	-0.106
-670.091	-172.863	0.263	0.008
-669.076	-200.000	0.038	-0.335
-668.062	209.601	-0.063	-0.101
-667.047	-200.000	0.052	0.263
-666.032	-98.903	-0.163	-0.042
-665.018	-200.000	-0.013	-0.115
-664.003	191.192	-0.053	0.081
-662.989	65.717	-0.318	0.330
-661.974	-200.000	0.062	-0.457
-660.959	-200.000	0.000	-0.144
-659.945	-41.608	0.235	-0.123
-658.930	320.952	-0.121	-0.234
-657.916	501.388	-0.118	0.277
-656.901	800.000	-0.122	0.479
-655.886	-52.822	0.318	0.150
-654.872	-155.771	0.253	-0.017
-653.857	58.879	-0.173	-0.174
-652.843	-85.747	-0.068	-0.021
-651.828	-10.919	0.250	0.168
-650.814	-200.000	0.000	-0.106
-649.799	12.443	0.098	-0.077
-648.784	-200.000	0.003	0.130
-647.770	-115.651	0.187	0.036
-646.755	114.454	-0.277	-0.344
-645.741	800.000	-0.013	0.044
-644.726	61.590	0.245	-0.249
-643.711	-68.337	-0.257	0.102
-642.697	-103.223	-0.304	0.073
-641.682	-151.954	0.065	-0.005
-640.668	99.172	0.259	-0.305
-639.653	64.250	-0.269	0.277
-638.638	100.804	-0.131	-0.155
-637.624	44.725	0.148	0.139
-636.609	224.895	-0.045	0.075
-635.595	-156.449	0.073	0.005
-634.580	800.000	0.037	0.145
-633.565	-26.406	0.094	-0.056
-632.551	1.281	0.170	-0.125
-631.536	800.000	0.037	-0.125
-630.522	309.142	0.100	-0.191
-629.507	449.848	0.054	0.123
-628.492	744.883	-0.144	0.395
-627.478	-67.789	-0.157	-0.063
-626.463	-200.000	0.000	0.076
-625.449	-200.000	0.017	0.301
-624.434	800.000	0.066	-0.242
-623.419	-56.896	0.124	-0.056
-622.405	-46.946	0.196	-0.098
-621.390	152.519	-0.145	0.202
-620.376	498.847	0.142	-0.335
-619.361	256.959	0.192	-0.337
-618.346	-108.213	-0.257	0.057
-617.332	-200.000	0.037	0.184
-616.317	-68.732	0.196	-0.077
-615.303	149.713	-0.171	0.237
-614.288	-69.695	-0.323	0.126
-613.273	71.506	0.072	-0.076
-612.259	-35.377	0.392	0.217
-611.244	-13.801	-0.421	-0.278
-610.230	-174.921	-0.205	0.006
-609.215	-90.503	0.295	0.087
-608.201	-200.000	-0.007	-0.280
-607.186	-52.185	0.075	0.036
-606.171	370.371	0.077	-0.159
-605.157	579.244	0.067	0.167
-604.142	-53.965	-0.243	-0.113
-603.128	33.395	-0.145	-0.128
-602.113	-14.356	-0.085	-0.056
-601.098	800.000	0.129	0.458
-600.084	131.183	-0.047	0.061
-599.069	73.003	0.183	0.195
-598.055	122.846	-0.121	0.155
-597.040	-87.956	-0.060	-0.018
-596.025	57.311	0.103	-0.102
-595.011	75.430	-0.154	0.166
-593.996	20.980	0.034	-0.028
-592.982	273.099	-0.023	0.041
-591.967	51.777	0.144	-0.140
-590.952	-162.420	0.275	-0.014
-589.938	-127.857	-0.202	0.030
-588.923	-200.000	-0.046	-0.312
-587.909	-59.883	0.491	-0.214
-586.894	-40.514	-0.251	0.133
-585.879	43.595	-0.184	-0.171
-584.865	-107.650	0.414	-0.092
-583.850	-200.000	0.031	0.195
-582.836	-84.075	-0.270	-0.087
-581.821	-42.651	-0.161	-0.084
-580.806	547.381	-0.045	0.110
-579.792	140.208	-0.209	0.281
-578.777	34.931	-0.073	0.065
-577.763	-146.478	0.151	-0.013
-576.748	178.203	-0.103	-0.154
-575.733	19.555	-0.172	-0.141
-574.719	37.144	0.028	0.026
-573.704	82.443	0.150	0.166
-572.690	800.000	-0.032	0.097
-571.675	-200.000	-0.014	0.141
-570.661	-88.285	0.336	0.102
-569.646	130.767	0.062	0.081
-568.631	115.883	0.126	0.157
-567.617	-27.094	0.171	0.102
-566.602	-26.432	-0.098	0.059
-565.588	-200.000	0.025	-0.139
-564.573	-111.257	-0.201	0.042
-563.558	136.116	0.139	-0.185
-562.544	-92.426	-0.190	-0.054
-561.529	-200.000	-0.003	0.351
-560.515	-85.826	0.268	0.084
-559.500	413.322	0.074	-0.161
-558.485	-200.000	0.021	-0.203
-557.471	285.149	-0.047	-0.085
-556.456	149.908	-0.200	-0.276
-555.442	173.751	-0.127	0.187
-554.427	33.209	0.199	0.176
-553.412	-200.000	0.007	0.120
-552.398	577.592	0.151	-0.375
-551.383	282.119	-0.037	-0.068
-550.369	-1.540	-0.062	-0.044
-549.354	-80.196	0.093	0.032
-548.339	236.728	0.148	0.249
-547.325	-46.523	0.225	0.112
-546.310	310.324	-0.112	0.214
-545.296	71.834	0.249	0.263
-544.281	51.878	-0.155	-0.150
-543.266	143.079	-0.086	-0.116
-542.252	295.133	-0.041	-0.076
-541.237	35.144	0.085	0.076
-540.223	145.855	0.125	0.170
-539.208	-144.369	-0.379	-0.036
-538.193	157.328	0.094	0.132
-537.179	70.919	0.102	0.107
-536.164	-149.884	-0.269	0.021
-535.150	-92.422	-0.098	-0.028
-534.135	-73.239	-0.018	0.007
-533.121	-62.637	0.100	-0.042
-532.106	-200.000	-0.061	-0.335
-531.091	87.199	-0.097	0.109
-530.077	56.372	-0.237	-0.234
-529.062	-200.000	-0.040	0.223
-528.048	-96.813	0.072	-0.019
-527.033	-83.964	0.087	-0.028
-526.018	189.159	-0.235	-0.357
-525.004	288.620	-0.118	0.217
-523.989	-200.000	-0.028	0.146
-522.975	-81.053	0.190	0.064
-521.960	-15.974	0.177	-0.115
-520.945	-102.327	-0.255	0.062
-519.931	800.000	-0.043	0.132
-518.916	-51.943	0.274	0.130
-517.902	-79.360	0.167	0.057
-516.887	46.483	-0.166	0.157
-515.872	-178.914	0.221	0.005
-514.858	185.341	-0.121	0.183
-513.843	-101.273	0.215	0.053
-512.829	800.000	-0.111	0.344
-511.814	399.834	0.155	-0.329
-510.799	-200.000	-0.081	-0.000
-509.785	-17.484	0.147	0.094
-508.770	50.787	0.185	-0.178
-507.756	181.817	-0.050	-0.075
-506.741	-161.235	-0.257	-0.014
-505.726	668.661	-0.089	0.233
-504.712	55.093	0.107	0.105
-503.697	-200.000	0.070	0.396
-502.683	195.725	-0.061	-0.094
-501.668	-117.488	-0.340	-0.062
-500.653	97.663	-0.102	-0.119
-499.639	231.309	-0.084	-0.139
-498.624	-200.000	0.037	-0.272
-497.610	10.778	0.356	-0.276
-496.595	800.000	0.093	0.287
-495.581	51.272	-0.373	0.360
-494.566	-200.000	0.019	-0.192
-493.551	-121.318	0.199	0.034
-492.537	-200.000	0.050	-0.319
-491.522	189.681	0.282	-0.429
-490.508	-28.972	0.111	0.065
-489.493	800.000	-0.068	0.211
-488.478	-111.622	0.120	-0.025
-487.464	-90.919	0.175	-0.051
-486.449	-108.567	-0.321	0.070
-485.435	-96.072	-0.222	0.060
-484.420	-17.644	0.128	0.082
-483.405	51.576	0.229	0.221
-482.391	49.737	-0.096	-0.092
-481.376	800.000	0.096	-0.415
-480.362	-127.506	0.129	-0.019
-479.347	-200.000	-0.036	0.410
-478.332	-101.180	0.144	-0.036
-477.318	-102.516	0.406	0.098
-476.303	-68.141	-0.263	0.104
-475.289	-188.708	0.158	0.002
-474.274	-170.474	0.312	0.011
-473.259	-16.107	0.248	-0.160
-472.245	45.435	-0.119	-0.112
-471.230	-200.000	-0.081	-0.411
-470.216	-200.000	0.038	-0.360
-469.201	-182.853	-0.116	0.002
-468.186	142.145	-0.079	0.107
-467.172	800.000	0.053	-0.159
-466.157	-165.069	-0.130	-0.006
-465.143	146.843	0.079	0.108
-464.128	-132.910	0.236	0.030
-463.113	23.785	-0.124	-0.104
-462.099	-200.000	-0.044	0.414
-461.084	-194.085	-0.165	0.001
-460.070	-200.000	0.011	-0.114
-459.055	-2.399	0.104	0.074
-458.040	-50.466	0.254	-0.122
-457.026	375.437	-0.121	0.251
-456.011	800.000	-0.040	0.131
-454.997	334.591	-0.092	-0.181
-453.982	174.155	-0.114	0.167
-452.968	-67.935	-0.234	0.093
-451.953	344.596	-0.148	-0.295
-450.938	-200.000	-0.011	0.095
-449.924	-49.544	-0.273	-0.132
-448.909	41.182	-0.146	-0.134
-447.895	-200.000	0.002	0.101
-446.880	91.855	0.085	-0.097
-445.865	-200.000	-0.017	0.080
-444.851	800.000	-0.051	0.184
-443.836	-72.828	0.219	0.082
-442.822	-138.379	-0.457	0.051
-441.807	-41.870	-0.146	0.076
-440.792	-200.000	0.023	-0.141
-439.778	48.806	0.324	0.308
-438.763	-64.618	-0.417	0.172
-437.749	-2.589	-0.011	0.008
-436.734	-183.243	-0.106	-0.002
-435.719	8.128	0.132	-0.101
-434.705	-144.777	0.364	0.034
-433.690	-103.651	-0.202	-0.048
-432.676	-86.672	-0.247	0.076
-431.661	-20.665	-0.032	-0.020
-430.646	-31.242	0.240	0.137
-429.632	-85.485	0.040	-0.013
-428.617	-200.000	0.027	0.156
-427.603	-137.674	-0.014	-0.002
-426.588	-105.166	0.244	-0.056
-425.573	-200.000	0.022	0.164
-424.559	0.805	0.113	-0.082
-423.544	-200.000	-0.007	0.089
-422.530	68.879	0.156	-0.163
-421.515	-78.201	0.093	-0.032
-420.500	-200.000	-0.021	0.377
-419.486	-200.000	0.047	0.209
-418.471	108.707	-0.228	-0.275
-417.457	-82.820	0.262	0.086
-416.442	147.506	0.131	-0.179
-415.428	83.459	0.279	0.308
-414.413	-99.920	-0.336	0.085
-413.398	175.400	-0.135	0.198
-412.384	-200.000	-0.002	0.158
-411.369	-120.475	-0.225	0.039
-410.355	-200.000	-0.006	0.392
-409.340	-3.229	-0.334	0.235
-408.325	-36.086	-0.207	0.113
-407.311	-154.173	0.105	-0.007
-406.296	-119.952	0.486	-0.085
-405.282	-161.898	-0.274	-0.014
-404.267	-200.000	0.004	0.238
-403.252	-64.806	-0.138	0.056
-402.238	-96.152	-0.566	0.152
-401.223	-90.152	-0.284	0.083
-400.209	-56.475	-0.229	0.103
-399.194	-200.000	-0.041	0.276
-398.179	23.346	-0.167	0.138
-397.165	186.865	0.222	0.335
-396.150	485.924	0.118	0.271
-395.136	-200.000	0.019	0.111
-394.121	-200.000	-0.033	0.330
-393.106	-157.434	0.179	0.011
-392.092	-184.574	-0.306	-0.005
-391.077	170.316	0.284	-0.410
-390.063	-132.186	-0.219	-0.029
-389.048	2.665	-0.079	0.058
-388.033	-200.000	-0.001	-0.262
-387.019	145.733	-0.025	0.034
-386.004	305.218	-0.059	0.111
-384.990	-137.468	-0.199	-0.023
-383.975	-182.941	-0.318	-0.006
-382.960	55.852	0.167	0.164
-381.946	52.785	-0.204	0.197
-380.931	-59.677	0.209	0.090
-379.917	136.062	-0.149	-0.196
-378.902	195.825	-0.199	-0.306
-377.888	314.778	0.079	-0.151
-376.873	-139.541	0.171	-0.018
-375.858	-200.000	0.007	-0.217
-374.844	168.833	0.008	-0.011
-373.829	552.744	-0.101	-0.246
-372.815	-143.371	0.053	0.005
-371.800	491.327	-0.046	-0.107
-370.785	562.901	-0.091	0.222
-369.771	800.000	-0.058	-0.202
-368.756	-2.812	-0.163	-0.115
-367.742	438.729	0.161	-0.355
-366.727	-90.404	-0.175	-0.051
-365.712	-133.813	-0.140	0.018
-364.698	534.782	-0.044	0.105
-363.683	-160.855	-0.208	-0.011
-362.669	16.058	0.302	-0.240
-361.654	800.000	-0.131	0.577
-360.639	-149.909	0.136	0.011
-359.625	-148.857	0.206	0.017
-358.610	-15.025	-0.162	-0.105
-357.596	48.502	0.235	0.222
-356.581	-200.000	-0.028	0.134
-355.566	-73.333	-0.207	-0.077
-354.552	-52.083	-0.152	-0.071
-353.537	-130.789	-0.156	0.021
-352.523	800.000	-0.109	-0.330
-351.508	260.271	-0.037	0.064
-350.493	408.516	-0.132	-0.282
-349.479	-31.867	0.223	0.126
-348.464	208.927	-0.028	-0.044
-347.450	138.561	0.172	-0.227
-346.435	63.335	-0.131	-0.133
-345.420	152.323	0.141	-0.194
-344.406	393.820	0.072	-0.152
-343.391	-121.187	0.569	0.096
-342.377	-56.442	0.151	-0.068
-341.362	-145.938	-0.126	-0.011
-340.348	-200.000	0.008	-0.344
-339.333	-17.541	-0.333	0.211
-338.318	-200.000	0.035	-0.355
-337.304	-54.705	0.169	-0.077
-336.289	69.051	0.119	0.123
-335.275	23.800	0.173	-0.143
-334.260	-60.729	0.114	-0.049
-333.245	-138.545	0.209	-0.023
-332.231	2.821	-0.285	-0.209
-331.216	-200.000	-0.038	0.285
-330.202	-97.196	-0.158	-0.042
-329.187	-200.000	0.016	-0.189
-328.172	-200.000	-0.011	-0.198
-327.158	-142.031	-0.442	0.044
-326.143	800.000	-0.066	0.225
-325.129	480.816	-0.121	0.278
-324.114	-162.800	-0.143	-0.007
-323.099	800.000	0.019	0.076
-322.085	109.036	0.206	0.248
-321.070	32.397	0.120	-0.104
-320.056	-200.000	-0.012	0.250
-319.041	-200.000	-0.046	0.417
-318.026	75.930	-0.255	0.272
-317.012	-87.395	-0.200	-0.061
-315.997	-200.000	0.002	-0.156
-314.983	336.266	0.087	-0.169
-313.968	29.035	-0.209	-0.179
-312.953	-34.424	-0.007	0.004
-311.939	-109.493	0.122	-0.026
-310.924	-25.222	0.105	-0.063
-309.910	-200.000	-0.027	-0.272
-308.895	-115.396	-0.123	-0.023
-307.880	106.227	-0.181	-0.216
-306.866	-86.680	-0.344	-0.106
-305.851	-15.062	-0.116	-0.075
-304.837	-26.922	-0.160	0.094
-303.822	-21.484	0.065	-0.040
-302.807	800.000	-0.074	-0.310
-301.793	-10.403	0.191	0.128
-300.778	-73.726	0.149	-0.055
-299.764	-71.717	0.278	0.104
-298.749	249.758	0.211	0.360
-297.735	217.602	0.168	0.269
-296.720	-200.000	-0.003	-0.054
-295.705	-199.459	0.070	-0.000
-294.691	132.268	0.114	-0.148
-293.676	-116.659	0.183	0.034
-292.662	400.605	0.285	-0.602
-291.647	-41.261	-0.270	-0.140
-290.632	800.000	-0.054	-0.187
-289.618	279.054	-0.150	0.270
-288.603	800.000	0.047	0.138
-287.589	19.570	0.131	0.106
-286.574	-200.000	-0.043	-0.220
-285.559	-167.032	-0.399	0.016
-284.545	-157.452	-0.275	0.017
-283.530	-200.000	0.001	-0.175
-282.516	-200.000	-0.210	-0.000
-281.501	19.228	-0.269	0.218
-280.486	-25.106	-0.096	-0.058
-279.472	3.064	0.073	0.053
-278.457	-200.000	-0.004	-0.289
-277.443	81.725	-0.272	0.296
-276.428	-102.270	0.077	-0.019
-275.413	-141.821	0.252	-0.025
-274.399	331.516	-0.122	0.236
-273.384	521.292	0.054	0.126
-272.370	-10.093	0.107	-0.072
-271.355	800.000	0.035	-0.108
-270.340	-86.499	0.440	-0.136
-269.326	-117.168	-0.233	-0.043
-268.311	153.594	-0.171	-0.235
-267.297	800.000	0.065	-0.205
-266.282	-81.866	0.270	-0.089
-265.267	466.347	0.035	-0.080
-264.253	-200.000	-0.049	-0.272
-263.238	-200.000	-0.069	-0.427
-262.224	800.000	0.096	0.415
-261.209	204.540	0.129	-0.201
-260.195	468.227	0.091	0.205
-259.180	14.197	0.307	0.241
-258.165	111.570	0.146	-0.177
-257.151	-65.148	-0.137	-0.055
-256.136	123.969	0.164	-0.207
-255.122	-0.093	-0.109	0.078
-254.107	-200.000	-0.039	0.221
-253.092	37.478	0.064	0.057
-252.078	134.485	0.100	-0.131
-251.063	-200.000	0.034	0.227
-250.049	-26.889	0.362	0.213
-249.034	221.167	0.051	-0.082
-248.019	395.035	0.023	0.049
-247.005	109.228	-0.244	0.293
-245.990	296.505	0.111	0.204
-244.976	800.000	0.091	-0.297
-243.961	174.054	-0.106	-0.153
-242.946	-69.295	0.180	0.070
-241.932	24.224	-0.256	-0.213
-240.917	800.000	0.097	-0.389
-239.903	645.657	-0.065	0.167
-238.888	303.743	-0.087	-0.162
-237.873	-200.000	0.024	0.172
-236.859	-70.016	-0.075	-0.029
-235.844	177.794	0.052	0.077
-234.830	-26.983	-0.234	-0.137
-233.815	-138.974	-0.050	-0.005
-232.800	223.552	-0.101	-0.164
-231.786	-157.941	0.422	-0.025
-230.771	800.000	0.061	-0.188
-229.757	-200.000	0.030	-0.174
-228.742	-200.000	0.024	-0.351
-227.727	608.391	-0.160	-0.402
-226.713	-25.022	0.039	0.023
-225.698	-72.939	-0.128	0.047
-224.684	-53.680	0.176	0.081
-223.669	3.432	-0.069	-0.050
-222.655	-200.000	0.011	-0.097
-221.640	-199.728	-0.095	0.000
-220.625	-35.360	-0.089	-0.048
-219.611	-22.558	-0.159	0.096
-218.596	18.213	0.045	-0.036
-217.582	26.319	0.238	0.199
-216.567	-83.925	0.296	-0.095
-215.552	-148.105	0.324	-0.027
-214.538	-30.032	0.133	-0.076
-213.523	-200.000	0.043	-0.291
-212.509	-15.883	0.180	0.115
-211.494	203.371	-0.145	0.225
-210.479	331.377	0.064	0.123
-209.465	-151.454	-0.348	-0.026
-208.450	-8.106	-0.157	0.106
-207.436	-200.000	-0.002	-0.159
-206.421	71.077	0.123	0.128
-205.406	-100.860	-0.163	-0.040
-204.392	-200.000	-0.053	-0.345
-203.377	28.369	-0.113	-0.096
-202.363	-187.390	0.050	0.001
-201.348	-109.390	0.285	0.061
-200.333	475.996	0.005	-0.010
-199.319	-13.885	-0.143	-0.093
-198.304	-68.121	-0.389	0.152
-197.290	-200.000	0.028	-0.268
-196.275	-119.727	0.287	0.050
-195.260	315.574	-0.174	-0.329
-194.246	800.000	0.021	0.077
-193.231	-152.897	0.074	0.005
-192.217	65.073	-0.292	0.296
-191.202	145.287	0.152	0.204
-190.187	197.928	-0.172	-0.264
-189.173	65.991	0.095	0.097
-188.158	-45.348	-0.120	0.060
-187.144	800.000	-0.108	0.421
-186.129	24.533	0.136	-0.113
-185.114	800.000	-0.039	0.148
-184.100	-200.000	0.023	0.275
-183.085	48.345	0.083	-0.078
-182.071	800.000	0.075	0.263
-181.056	-94.149	0.441	-0.121
-180.042	6.168	-0.122	0.091
-179.027	-200.000	-0.028	-0.227
-178.012	2.525	-0.098	-0.071
-176.998	272.339	-0.065	0.114
-175.983	-61.187	0.128	0.054
-174.969	169.542	-0.101	0.145
-173.954	14.806	0.303	0.237
-172.939	800.000	0.089	-0.303
-171.925	-200.000	0.007	-0.182
-170.910	-91.030	-0.193	-0.055
-169.896	214.187	-0.163	0.258
-168.881	-40.266	-0.213	-0.111
-167.866	107.887	-0.187	0.223
-166.852	176.597	-0.129	-0.188
-165.837	-200.000	0.026	0.178
-164.823	-152.178	-0.136	-0.010
-163.808	-1.825	0.119	0.084
-162.793	6.263	0.265	0.197
-161.779	-132.982	0.455	-0.058
-160.764	-40.025	-0.164	-0.086
-159.750	252.587	-0.147	0.250
-158.735	-149.102	-0.137	0.011
-157.720	66.662	0.205	-0.209
-156.706	-80.831	0.325	0.108
-155.691	-93.341	-0.064	-0.018
-154.677	-90.357	0.448	0.130
-153.662	-200.000	-0.029	-0.132
-152.647	86.674	0.283	-0.313
-151.633	574.985	0.223	-0.545
-150.618	-200.000	0.056	0.289
-149.604	67.306	0.195	-0.199
-148.589	-103.085	-0.320	0.076
-147.574	15.748	-0.146	-0.115
-146.560	216.918	0.104	0.166
-145.545	-47.688	0.301	0.146
-144.531	-84.406	0.091	-0.029
-143.516	-67.542	-0.175	0.069
-142.502	800.000	0.007	0.021
-141.487	-200.000	-0.009	0.339
-140.472	-200.000	-0.044	0.346
-139.458	-200.000	0.003	-0.234
-138.443	-49.483	-0.182	0.087
-137.429	-102.184	0.136	0.033
-136.414	-104.481	-0.213	-0.049
-135.399	231.163	-0.093	0.152
-134.385	-75.257	0.453	-0.162
-133.370	800.000	0.057	0.172
-132.356	457.664	0.042	-0.094
-131.341	145.323	0.064	-0.085
-130.326	-145.083	-0.132	-0.012
-129.312	670.707	0.126	-0.326
-128.297	800.000	-0.058	0.164
-127.283	-13.714	0.231	-0.150
-126.268	514.158	0.065	0.152
-125.253	408.995	0.027	0.057
-124.239	202.487	-0.118	-0.183
-123.224	-200.000	0.001	-0.130
-122.210	40.760	-0.147	0.132
-121.195	147.737	0.166	-0.224
-120.180	-200.000	0.078	-0.437
-119.166	104.745	-0.359	-0.423
-118.151	407.666	-0.143	0.303
-117.137	-60.263	-0.418	-0.178
-116.122	198.007	0.120	0.183
-115.107	-143.215	0.201	0.019
-114.093	9.472	-0.116	-0.088
-113.078	-148.167	0.407	0.034
-112.064	673.348	0.033	0.084
-111.049	475.967	-0.088	-0.199
-110.034	103.412	0.237	-0.278
-109.020	-200.000	-0.020	-0.105
-108.005	265.784	-0.146	0.255
-106.991	-64.685	0.126	0.051
-105.976	-110.162	-0.063	0.013
-104.962	-200.000	-0.023	0.123
-103.947	-22.894	-0.463	0.279
-102.932	-122.712	0.299	0.048
-101.918	-108.140	-0.098	-0.021
-100.903	-79.680	-0.212	-0.072
-99.889	212.409	0.141	-0.221
-98.874	-200.000	0.027	-0.118
-97.859	54.021	-0.306	0.294
-96.845	22.793	0.052	-0.043
-95.830	7.207	-0.286	0.213
-94.816	350.826	0.119	0.236
-93.801	800.000	-0.094	0.299
-92.786	-42.439	0.062	0.032
-91.772	112.076	0.149	-0.179
-90.757	-125.146	0.173	-0.026
-89.743	4.556	0.074	-0.054
-88.728	-150.495	-0.245	0.019
-87.713	-200.000	-0.032	0.258
-86.699	250.876	-0.109	0.185
-85.684	-143.390	0.251	-0.024
-84.670	-200.000	-0.104	0.503
-83.655	800.000	-0.154	0.475
-82.640	521.789	0.250	0.586
-81.626	800.000	-0.188	-0.527
-80.611	-145.470	0.060	-0.005
-79.597	-150.775	0.288	0.022
-78.582	-77.301	0.186	0.065
-77.567	-85.255	-0.144	0.045
-76.553	2.937	0.076	0.055
-75.538	288.929	-0.028	0.050
-74.524	79.886	0.168	0.180
-73.509	6.201	-0.120	0.089
-72.494	44.436	0.119	0.109
-71.480	800.000	0.035	-0.116
-70.465	2.825	0.294	-0.213
-69.451	-93.755	0.262	0.072
-68.436	-13.577	0.182	0.117
-67.422	196.166	0.142	0.216
-66.407	21.668	-0.042	-0.034
-65.392	800.000	-0.024	-0.088
-64.378	-155.004	-0.035	0.002
-63.363	-6.610	0.259	-0.176
-62.349	-178.520	-0.164	0.004
-61.334	160.731	-0.665	-0.926
-60.319	106.562	0.242	0.286
-59.305	800.000	-0.081	-0.323
-58.290	66.183	0.733	0.742
-57.276	-200.000	0.300	1.917
-56.261	-200.000	74.023	538.951
-55.246	590.105	1292.854	3181.067
-54.232	147.422	2512.982	3376.204
-53.217	122.490	2239.644	2793.253
-52.203	54.682	1759.214	1692.652
-51.188	46.772	1553.710	1439.958
-50.173	43.821	1522.605	1390.842
-49.159	59.755	1557.899	1533.745
-48.144	66.920	1577.856	1602.892
-47.130	47.093	1541.605	1430.729
-46.115	43.228	1527.428	1390.935
-45.100	43.123	1523.629	1386.701
-44.086	43.023	1521.767	1384.268
-43.071	42.966	1519.575	1381.822
-42.057	43.011	1518.264	1380.884
-41.042	42.882	1516.763	1378.582
-40.027	42.977	1515.140	1377.701
-39.013	42.989	1513.689	1376.410
-37.998	42.962	1512.686	1375.257
-36.984	42.984	1510.944	1373.769
-35.969	43.037	1509.290	1372.575
-34.954	43.113	1508.158	1372.007
-33.940	42.995	1507.135	1370.219
-32.925	43.069	1505.079	1368.798
-31.911	43.006	1503.820	1367.169
-30.896	43.122	1502.292	1366.517
-29.881	43.218	1500.620	1365.586
-28.867	43.042	1500.012	1363.789
-27.852	43.061	1498.361	1362.367
-26.838	43.100	1497.160	1361.483
-25.823	43.136	1495.393	1360.061
-24.809	43.108	1493.379	1357.989
-23.794	43.114	1492.059	1356.776
-22.779	43.041	1491.401	1355.629
-21.765	43.000	1490.377	1354.375
-20.750	43.105	1488.912	1353.692
-19.736	43.140	1487.633	1352.707
-18.721	43.125	1486.440	1351.469
-17.706	42.987	1485.335	1349.489
-16.692	42.968	1483.939	1348.039
-15.677	42.906	1483.108	1346.819
-14.663	42.968	1482.109	1346.271
-13.648	42.969	1481.130	1345.332
-12.633	42.916	1480.114	1344.004
-11.619	42.943	1479.619	1343.681
-10.604	42.851	1478.707	1342.185
-9.590	42.930	1477.531	1341.589
-8.575	42.988	1476.392	1340.887
-7.560	42.928	1476.055	1340.134
-6.546	43.005	1475.218	1339.830
-5.531	42.962	1474.044	1338.426
-4.517	42.920	1473.363	1337.477
-3.502	42.924	1472.168	1336.366
-2.487	43.047	1471.051	1336.111
-1.473	43.001	1469.799	1334.619
-0.458	42.912	1468.842	1333.107
0.556	42.297	1459.475	1324.523
1.571	39.910	1433.085	1284.952
2.586	36.533	1371.003	1208.117
3.600	34.543	1288.748	1123.828
4.615	32.628	1240.890	1071.122
5.629	27.166	1182.152	990.655
6.644	13.636	1087.697	843.071
7.659	2.914	1038.143	752.297
8.673	1.232	1031.816	739.455
9.688	1.026	1028.700	736.157
10.702	0.978	1027.167	734.758
11.717	0.894	1025.333	732.978
12.731	4.905	1031.058	756.508
13.746	16.474	1047.152	825.012
14.761	23.570	1055.447	866.252
15.775	23.603	1055.168	866.107
16.790	23.525	1054.267	864.907
17.804	23.478	1053.305	863.814
18.819	23.248	1052.171	861.691
19.834	23.349	1051.943	861.918
20.848	23.271	1051.356	860.980
21.863	23.244	1051.461	860.857
22.877	23.280	1050.885	860.485
23.892	23.351	1050.337	860.305
24.907	23.217	1049.478	858.879
25.921	23.336	1048.388	858.487
26.936	23.263	1048.046	857.778
27.950	23.196	1046.514	856.121
28.965	23.223	1045.514	855.357
29.980	23.165	1044.052	853.809
30.994	23.193	1042.574	852.658
32.009	23.191	1042.253	852.311
33.023	23.464	1041.357	852.814
34.038	23.156	1040.174	850.292
35.053	22.953	1040.081	849.166
36.067	23.333	1038.880	849.930
37.082	23.109	1038.547	848.510
38.096	23.364	1037.341	848.671
39.111	23.370	1037.063	848.399
40.126	23.543	1036.421	848.623
41.140	23.554	1034.651	847.153
42.155	23.289	1033.099	844.545
43.169	22.902	1032.189	841.883
44.184	22.955	1031.136	841.201
45.199	23.009	1030.049	840.496
46.213	22.874	1029.281	839.155
47.228	22.882	1028.252	838.276
48.242	22.950	1027.629	838.020
49.257	23.196	1026.941	838.551
50.271	23.130	1026.612	837.892
51.286	23.348	1025.504	837.945
52.301	23.409	1024.766	837.559
53.315	23.350	1024.085	836.648
54.330	23.307	1023.456	835.856
55.344	23.348	1022.252	834.994
56.359	23.274	1021.587	834.027
57.374	23.275	1020.428	833.012
58.388	23.073	1019.846	831.514
59.403	22.932	1019.293	830.326
60.417	23.063	1018.418	830.155
61.432	22.746	1018.292	828.490
62.447	22.929	1016.775	828.041
63.461	23.066	1016.497	828.384
64.476	23.036	1016.059	827.814
65.490	23.117	1014.802	827.095
66.505	22.998	1013.794	825.645
67.520	22.914	1013.095	824.609
68.534	23.009	1012.386	824.402
69.549	23.004	1011.441	823.537
70.563	22.570	1010.505	820.680
71.578	22.508	1009.871	819.807
72.593	22.776	1008.171	819.596
73.607	22.572	1007.195	817.785
74.622	22.597	1006.140	816.972
75.636	22.723	1006.173	817.509
76.651	22.886	1005.181	817.389
77.666	22.826	1004.174	816.217
78.680	22.809	1003.203	815.279
79.695	22.703	1003.257	814.762
80.709	22.693	1002.467	813.999
81.724	22.862	1001.895	814.245
82.739	22.932	1000.817	813.616
83.753	22.821	1000.245	812.567
84.768	23.179	999.221	813.312
85.782	23.544	998.812	814.582
86.797	23.634	998.574	814.731
87.812	23.485	997.830	813.368
88.826	23.373	996.709	811.868
89.841	23.385	995.903	811.193
90.855	23.529	995.037	811.079
91.870	23.555	994.298	810.521
92.884	23.564	993.399	809.758
93.899	23.482	992.266	808.391
94.914	23.358	991.330	806.992
95.928	23.482	990.650	806.931
96.943	23.451	990.116	806.281
97.957	23.342	988.659	804.529
98.972	22.977	987.530	801.883
99.987	22.881	986.415	800.471
101.001	22.838	986.146	799.988
102.016	23.302	985.283	801.320
103.030	23.326	984.535	800.748
104.045	23.176	983.488	799.148
105.060	23.043	982.235	797.458
106.074	22.872	981.119	795.712
107.089	22.836	980.663	795.108
108.103	23.139	980.694	796.429
109.118	23.366	979.188	796.153
110.133	23.152	977.757	793.960
111.147	23.111	976.762	792.900
112.162	22.916	975.837	791.206
113.176	22.628	974.890	789.077
114.191	22.772	974.221	789.112
115.206	22.980	972.880	788.883
116.220	22.662	971.690	786.431
117.235	22.449	970.936	784.800
118.249	22.693	970.582	785.532
119.264	22.784	969.503	784.996
120.279	22.496	968.802	783.079
121.293	22.631	967.883	782.864
122.308	22.760	966.999	782.651
123.322	22.657	966.461	781.690
124.337	22.771	965.145	781.061
125.352	22.618	963.914	779.321
126.366	22.319	962.065	776.440
127.381	21.917	960.929	773.682
128.395	22.430	960.441	775.477
129.410	23.093	960.277	778.194
130.424	23.186	960.240	778.506
131.439	23.185	958.997	777.426
132.454	23.203	957.822	776.483
133.468	23.222	957.392	776.148
134.483	23.156	956.013	774.673
135.497	23.146	955.554	774.191
136.512	23.445	954.796	774.815
137.527	23.520	954.078	774.492
138.541	23.519	953.369	773.841
139.556	23.512	952.783	773.267
140.570	23.498	951.874	772.398
141.585	23.525	951.190	771.896
142.600	23.606	950.748	771.820
143.614	23.515	949.250	770.141
144.629	23.565	949.010	770.096
145.643	23.753	948.657	770.555
146.658	23.682	947.201	768.997
147.673	23.549	945.990	767.370
148.687	23.386	945.411	766.128
149.702	23.487	944.097	765.433
150.716	23.286	942.821	763.462
151.731	23.084	942.189	762.015
152.746	23.219	941.220	761.741
153.760	23.483	940.682	762.374
154.775	23.608	939.774	762.109
155.789	23.572	939.128	761.362
156.804	23.642	937.961	760.650
157.819	23.655	936.872	759.755
158.833	23.532	936.308	758.703
159.848	23.534	935.649	758.114
160.862	23.576	935.241	757.895
161.877	23.591	934.020	756.902
162.892	23.424	932.891	755.209
163.906	23.498	932.613	755.229
164.921	23.621	931.123	754.482
165.935	23.463	929.961	752.801
166.950	23.608	929.333	752.842
167.964	23.627	928.387	752.088
168.979	23.452	927.355	750.444
169.994	23.616	926.239	750.167
171.008	23.447	925.270	748.606
172.023	23.589	924.642	748.630
173.037	23.607	924.068	748.173
174.052	23.478	923.192	746.857
175.067	23.233	922.141	744.909
176.081	23.325	921.339	744.584
177.096	23.374	920.833	744.311
178.110	23.382	919.799	743.444
179.125	23.204	918.616	741.676
180.140	22.923	917.464	739.503
181.154	23.015	916.589	739.120
182.169	23.042	916.557	739.143
183.183	23.393	915.942	740.043
184.198	23.720	915.020	740.601
185.213	23.453	915.037	739.435
186.227	23.434	914.391	738.765
187.242	23.400	914.244	738.442
188.256	23.452	913.551	738.032
189.271	23.530	912.337	737.311
190.286	23.651	911.699	737.231
191.300	23.475	910.984	735.857
192.315	22.969	909.624	732.597
193.329	22.273	907.912	728.274
194.344	21.924	906.803	725.875
195.359	22.442	907.271	728.329
196.373	23.131	907.633	731.406
197.388	23.477	907.259	732.470
198.402	23.452	906.184	731.434
199.417	23.350	906.093	730.873
200.432	23.353	905.560	730.391
201.446	23.255	904.794	729.305
202.461	22.950	904.007	727.351
203.475	23.060	903.459	727.297
204.490	22.646	901.936	724.307
205.504	21.592	899.849	718.247
206.519	21.875	899.985	719.453
207.534	22.798	900.239	723.377
208.548	23.016	899.797	723.850
209.563	23.320	899.831	725.057
210.577	23.471	898.945	724.896
211.592	23.052	898.215	722.534
212.607	23.476	897.835	723.894
213.621	23.596	897.708	724.216
214.636	23.583	896.493	723.120
215.650	23.531	896.166	722.579
216.665	23.567	895.565	722.178
217.680	23.655	894.975	721.997
218.694	23.649	894.638	721.635
219.709	23.479	893.613	720.056
220.723	23.009	892.499	717.187
221.738	23.142	892.188	717.414
222.753	23.362	891.809	717.937
223.767	23.427	890.685	717.231
224.782	23.390	890.102	716.549
225.796	23.629	889.650	717.088
226.811	23.642	889.398	716.872
227.826	23.447	888.299	715.137
228.840	22.595	886.690	710.347
229.855	22.543	885.743	709.316
230.869	22.720	885.336	709.639
231.884	22.424	884.943	708.071
232.899	22.365	884.512	707.428
233.913	23.076	884.254	710.015
234.928	23.360	884.012	710.896
235.942	23.226	883.540	709.917
236.957	23.207	882.659	709.071
237.972	23.147	881.929	708.181
238.986	22.963	881.219	706.813
240.001	23.146	880.496	706.902
241.015	23.104	880.207	706.438
242.030	23.100	879.543	705.828
243.045	23.396	878.779	706.333
244.059	23.479	878.591	706.447
245.074	23.442	878.301	706.006
246.088	23.620	877.273	705.825
247.103	23.095	876.171	702.790
248.117	23.159	875.797	702.682
249.132	23.683	875.965	704.836
250.147	24.052	875.661	705.992
251.161	24.163	874.820	705.692
252.176	24.281	874.582	705.905
253.190	24.280	873.961	705.335
254.205	24.346	873.382	705.068
255.220	24.391	873.199	705.036
256.234	24.523	872.285	704.756
257.249	24.300	871.817	703.436
258.263	24.099	871.210	702.091
259.278	24.243	870.394	701.941
260.293	24.222	870.191	701.632
261.307	24.381	869.682	701.785
262.322	24.222	868.814	700.396
263.336	24.238	868.155	699.865
264.351	23.805	866.935	697.124
265.366	22.735	864.867	691.209
266.380	22.189	863.968	688.291
267.395	22.996	864.040	691.447
268.409	23.873	864.180	694.927
269.424	23.879	863.676	694.481
270.439	23.885	863.488	694.293
271.453	24.099	862.595	694.349
272.468	24.108	862.032	693.871
273.482	24.350	861.339	694.191
274.497	24.356	861.019	693.897
275.512	24.094	860.138	692.107
276.526	23.711	858.618	689.334
277.541	23.670	858.479	689.004
278.555	24.141	858.072	690.444
279.570	24.051	857.494	689.569
280.585	23.868	856.505	688.005
281.599	24.031	856.115	688.259
282.614	23.972	856.051	687.920
283.628	23.646	854.564	685.405
284.643	23.184	854.106	683.194
285.657	23.543	853.820	684.289
286.672	23.584	853.211	683.902
287.687	23.027	852.228	680.905
288.701	23.160	852.596	681.654
289.716	23.776	851.822	683.344
290.730	23.461	851.102	681.495
291.745	23.462	849.887	680.464
292.760	23.206	849.197	678.871
293.774	23.079	848.506	677.770
294.789	23.911	849.349	681.576
295.803	24.615	849.520	684.350
296.818	24.749	848.764	684.193
297.833	24.717	848.273	683.615
298.847	24.436	847.287	681.685
299.862	24.149	846.109	679.583
300.876	24.165	846.083	679.562
301.891	24.509	845.517	680.361
302.906	24.629	844.803	680.180
303.920	24.369	843.715	678.257
304.935	24.111	843.314	676.894
305.949	24.485	842.621	677.698
306.964	24.683	842.153	678.011
307.979	24.403	841.646	676.484
308.993	24.330	841.262	675.838
310.008	24.629	841.156	676.825
311.022	24.806	840.588	676.977
312.037	24.710	839.938	676.031
313.052	24.434	839.314	674.428
314.066	24.219	838.579	672.967
315.081	23.728	836.880	669.691
316.095	22.992	835.737	665.947
317.110	23.308	836.032	667.314
318.125	24.228	836.262	670.903
319.139	23.862	835.348	668.734
320.154	22.748	833.795	663.246
321.168	22.305	832.575	660.552
322.183	22.928	832.684	662.921
323.197	23.769	833.054	666.310
324.212	24.031	832.820	667.046
325.227	24.329	832.466	667.821
326.241	24.353	832.565	667.930
327.256	24.336	831.640	667.065
328.270	24.294	830.711	666.104
329.285	24.167	830.149	665.121
330.300	23.969	829.381	663.710
331.314	23.762	828.672	662.313
332.329	23.935	828.016	662.374
333.343	24.225	827.791	663.212
334.358	24.510	827.412	663.913
335.373	24.395	826.736	662.883
336.387	24.547	826.365	663.091
337.402	24.813	825.867	663.617
338.416	24.878	825.936	663.859
339.431	24.921	825.271	663.422
340.446	24.816	824.719	662.533
341.460	25.089	824.010	662.913
342.475	25.197	823.313	662.692
343.489	24.964	822.803	661.364
344.504	24.919	821.839	660.363
345.519	24.983	821.970	660.646
346.533	25.350	821.564	661.613
347.548	25.181	821.215	660.654
348.562	25.348	820.467	660.608
349.577	25.419	820.017	660.448
350.592	25.294	819.583	659.581
351.606	25.339	818.636	658.926
352.621	25.228	818.637	658.458
353.635	25.220	818.071	657.919
354.650	25.075	817.239	656.658
355.665	24.717	816.392	654.608
356.679	23.691	815.037	649.713
357.694	23.576	814.164	648.538
358.708	24.388	814.197	651.473
359.723	24.283	813.995	650.874
360.738	24.528	813.132	651.018
361.752	24.854	813.468	652.418
362.767	24.867	813.342	652.305
363.781	25.144	813.304	653.228
364.796	25.674	812.781	654.678
365.810	25.586	812.322	653.930
366.825	25.905	811.764	654.582
367.840	25.595	811.874	653.486
368.854	25.636	811.120	652.970
369.869	24.987	810.281	649.884
370.883	24.951	809.538	649.099
371.898	24.936	809.236	648.746
372.913	24.706	808.670	647.402
373.927	24.906	807.903	647.455
374.942	25.099	807.318	647.625
375.956	25.136	806.759	647.253
376.971	25.443	806.090	647.767
377.986	25.366	805.859	647.246
379.000	25.604	805.326	647.618
380.015	25.789	804.803	647.804
381.029	25.507	804.229	646.272
382.044	25.469	803.443	645.448
383.059	25.467	803.309	645.277
384.073	25.575	802.614	645.049
385.088	25.695	802.010	644.936
386.102	25.729	801.446	644.547
387.117	25.386	801.115	642.997
388.132	25.289	800.392	642.012
389.146	25.373	799.508	641.547
390.161	24.727	798.688	638.523
391.175	24.604	798.620	637.975
392.190	25.220	798.856	640.306
393.205	25.248	798.168	639.799
394.219	24.547	795.947	635.468
395.234	22.757	793.954	627.460
396.248	21.939	792.848	623.627
397.263	22.956	793.835	627.964
398.278	24.681	795.095	635.038
399.292	25.259	795.245	637.155
400.307	24.942	794.553	635.421
401.321	24.945	793.989	634.922
402.336	24.959	793.725	634.704
403.350	25.231	793.580	635.495
404.365	25.720	793.669	637.244
405.380	25.960	793.283	637.726
406.394	26.155	792.905	638.055
407.409	26.329	792.770	638.505
408.423	26.313	792.381	638.080
409.438	26.182	791.655	636.974
410.453	26.237	791.375	636.889
411.467	26.422	790.421	636.716
412.482	26.303	790.411	636.229
413.496	26.328	789.720	635.707
414.511	26.416	789.345	635.658
415.526	26.341	788.876	634.960
416.540	26.312	788.746	634.699
417.555	26.302	788.216	634.181
418.569	25.922	787.588	632.285
419.584	25.943	786.736	631.621
420.599	25.902	786.420	631.167
421.613	87.583	1246.117	1328.091
422.628	74.400	1313.120	1328.237
