DTS Sentinel unit serial number:	SN413079Multiplexer serial number:	ORYXHardware model number:	OX4-SRSoftware version number:	ORYX F/W v4.00 Oryx Data Collector v3.7.2.0data status	okinstallation	princeton_trtdifferential loss correction	single-endedforward channel	channel 3reverse channel	N/Adate	2019/09/16time	00:20:35forward acquisition time	60.00reverse acquisition time	0.00gamma	496.2192k internal	0.2337k external	0.2337temperature offset calibration	0.9947default loss term (dB/km)	0.3790temperature slope calibration	1.0000multiplexer offset coefficient	1.0000multiplexer slope coefficient	1.0000fibre end	0.00T internal ref (°C)	27.69T ext. ref 1 (°C)	9.51T ext. ref 2 (°C)	21.57length (m)	temperature (°C)	Stokes	anti-Stokes-747.200	-100.172	-0.104	0.026
-746.185	-200.000	0.006	0.306
-745.171	-141.110	0.486	-0.050
-744.156	-200.000	0.000	-0.010
-743.142	11.724	0.183	0.141
-742.127	149.821	0.122	0.166
-741.112	-200.000	-0.012	0.406
-740.098	-200.000	-0.091	0.413
-739.083	-62.652	-0.124	-0.052
-738.069	-124.727	0.130	0.020
-737.054	-28.660	-0.136	0.078
-736.039	-18.495	-0.358	-0.224
-735.025	29.716	-0.374	0.320
-734.010	-62.678	-0.092	-0.038
-732.996	-143.528	-0.450	0.043
-731.981	800.000	0.129	0.473
-730.966	-108.866	0.096	-0.021
-729.952	-27.619	-0.168	-0.098
-728.937	-51.559	-0.318	-0.149
-727.923	-5.502	-0.219	0.151
-726.908	-167.734	-0.337	0.013
-725.894	-87.447	-0.368	-0.112
-724.879	-85.885	0.042	-0.013
-723.864	-200.000	0.023	-0.187
-722.850	18.396	-0.048	0.038
-721.835	185.678	-0.137	-0.205
-720.821	242.588	0.091	-0.153
-719.806	80.633	-0.208	-0.225
-718.791	-30.142	-0.253	0.144
-717.777	-198.005	0.226	-0.001
-716.762	-87.033	-0.470	-0.144
-715.748	800.000	-0.036	0.113
-714.733	-200.000	-0.022	0.261
-713.718	389.030	-0.097	0.202
-712.704	8.481	0.190	0.143
-711.689	-200.000	-0.043	0.210
-710.675	-200.000	-0.018	0.148
-709.660	-200.000	0.008	0.187
-708.645	-11.700	0.147	-0.097
-707.631	800.000	0.067	-0.237
-706.616	133.317	-0.059	0.077
-705.602	282.315	0.130	-0.233
-704.587	399.809	-0.044	-0.092
-703.572	-200.000	-0.010	-0.074
-702.558	-81.220	0.064	-0.021
-701.543	144.175	0.151	0.202
-700.529	-7.402	-0.062	0.042
-699.514	-180.365	0.185	-0.004
-698.499	-60.011	0.198	0.085
-697.485	240.903	-0.082	-0.137
-696.470	-119.550	-0.296	-0.051
-695.456	-38.090	0.166	0.088
-694.441	-33.528	-0.129	-0.071
-693.426	292.378	0.015	0.027
-692.412	-117.382	-0.482	-0.087
-691.397	-182.747	0.179	0.003
-690.383	95.100	0.086	0.098
-689.368	190.091	0.052	0.078
-688.354	97.986	-0.202	-0.233
-687.339	-44.784	-0.307	-0.153
-686.324	-48.248	-0.155	-0.075
-685.310	485.825	0.066	0.150
-684.295	28.167	-0.119	0.101
-683.281	-51.341	-0.107	-0.050
-682.266	-200.000	0.026	-0.417
-681.251	610.687	-0.053	-0.133
-680.237	-200.000	-0.019	0.193
-679.222	37.592	-0.150	0.133
-678.208	542.589	0.033	-0.078
-677.193	74.708	0.138	0.146
-676.178	-178.934	-0.189	-0.004
-675.164	-200.000	0.042	-0.265
-674.149	-12.472	0.264	0.173
-673.135	-200.000	0.024	-0.446
-672.120	138.312	0.145	-0.191
-671.105	-200.000	0.004	-0.190
-670.091	-47.311	-0.409	-0.199
-669.076	800.000	0.053	-0.155
-668.062	258.654	0.082	0.141
-667.047	-51.681	0.104	-0.049
-666.032	129.339	0.130	0.167
-665.018	114.207	-0.302	0.368
-664.003	152.460	0.111	-0.152
-662.989	387.817	0.059	0.122
-661.974	383.695	-0.052	0.107
-660.959	-50.163	0.380	0.180
-659.945	109.741	0.036	0.043
-658.930	-56.657	-0.109	-0.048
-657.916	215.089	-0.110	-0.175
-656.901	-85.935	0.130	-0.040
-655.886	-200.000	0.027	-0.245
-654.872	-200.000	-0.058	0.273
-653.857	111.708	0.171	0.207
-652.843	-200.000	-0.019	-0.121
-651.828	-200.000	-0.043	0.305
-650.814	-73.358	0.262	-0.096
-649.799	-54.047	0.198	-0.090
-648.784	-30.437	0.099	-0.056
-647.770	168.436	-0.207	0.295
-646.755	681.437	-0.062	-0.161
-645.741	-137.841	-0.239	0.027
-644.726	-200.000	0.040	-0.422
-643.711	-55.196	0.196	-0.088
-642.697	-155.574	-0.173	0.011
-641.682	-35.993	0.145	0.078
-640.668	-47.860	0.179	0.086
-639.653	-170.201	-0.121	-0.004
-638.638	168.855	0.165	-0.235
-637.624	-164.699	0.096	0.004
-636.609	-129.520	-0.072	-0.010
-635.595	250.640	-0.174	-0.296
-634.580	77.106	0.368	0.391
-633.565	-39.066	-0.294	0.155
-632.551	-200.000	-0.015	0.086
-631.536	-108.203	-0.246	-0.053
-630.522	245.326	0.056	-0.094
-629.507	-132.256	-0.126	0.016
-628.492	-118.428	0.050	0.009
-627.478	-136.404	-0.195	0.023
-626.463	-118.767	0.078	-0.014
-625.449	146.775	-0.161	-0.216
-624.434	-200.000	0.029	-0.164
-623.419	-110.412	-0.287	-0.060
-622.405	-200.000	0.058	-0.315
-621.390	-39.103	0.142	0.074
-620.376	-200.000	0.005	-0.378
-619.361	40.077	0.055	-0.049
-618.346	-97.124	-0.325	-0.085
-617.332	80.380	0.112	-0.121
-616.317	-169.499	-0.130	-0.005
-615.303	-123.954	0.356	0.056
-614.288	-172.062	-0.101	-0.003
-613.273	-168.667	0.101	-0.004
-612.259	-62.546	-0.167	-0.069
-611.244	-200.000	-0.045	0.335
-610.230	85.504	-0.164	-0.180
-609.215	-9.476	-0.073	-0.048
-608.201	-200.000	0.022	0.218
-607.186	-200.000	0.053	0.273
-606.171	-200.000	-0.017	-0.222
-605.157	800.000	0.111	-0.400
-604.142	159.471	-0.146	0.203
-603.128	-11.123	-0.068	-0.045
-602.113	-200.000	0.007	-0.226
-601.098	-135.604	-0.420	0.050
-600.084	-200.000	0.018	-0.154
-599.069	466.230	-0.030	0.067
-598.055	136.153	-0.119	0.155
-597.040	35.102	0.217	-0.190
-596.025	-73.060	-0.113	-0.042
-595.011	800.000	-0.030	-0.099
-593.996	-75.114	0.031	0.011
-592.982	-144.070	0.117	0.011
-591.967	-83.634	-0.360	-0.115
-590.952	703.003	-0.140	0.368
-589.938	42.662	0.131	-0.119
-588.923	77.629	-0.223	-0.237
-587.909	12.885	-0.297	0.229
-586.894	488.049	0.066	-0.150
-585.879	-200.000	0.015	0.168
-584.865	-200.000	0.007	0.175
-583.850	104.732	-0.068	-0.080
-582.836	-39.208	-0.393	0.206
-581.821	-200.000	0.017	-0.166
-580.806	111.506	0.045	-0.055
-579.792	82.891	0.216	0.234
-578.777	107.071	0.156	-0.184
-577.763	-109.374	-0.111	0.023
-576.748	220.170	-0.128	0.204
-575.733	28.526	-0.133	0.112
-574.719	-65.225	-0.106	0.043
-573.704	62.436	-0.284	0.283
-572.690	800.000	-0.058	-0.232
-571.675	-200.000	0.008	-0.142
-570.661	34.182	0.193	-0.167
-569.646	-22.009	0.043	-0.026
-568.631	-47.951	0.495	-0.239
-567.617	774.958	0.043	-0.116
-566.602	-108.388	0.300	0.064
-565.588	-200.000	0.024	0.289
-564.573	-81.110	-0.139	-0.046
-563.558	-117.623	0.173	0.031
-562.544	-5.392	0.213	0.146
-561.529	723.498	-0.065	0.172
-560.515	-5.351	-0.086	0.059
-559.500	231.556	-0.186	0.304
-558.485	-78.322	-0.276	0.094
-557.471	-17.862	0.212	0.133
-556.456	62.829	0.036	0.036
-555.442	99.139	-0.202	-0.233
-554.427	107.454	-0.172	-0.204
-553.412	55.434	-0.227	-0.219
-552.398	-8.580	0.095	0.064
-551.383	1.371	0.213	-0.153
-550.369	-200.000	-0.007	0.102
-549.354	-158.274	-0.434	-0.025
-548.339	-81.431	-0.143	-0.047
-547.325	6.214	-0.189	-0.140
-546.310	-200.000	-0.082	0.389
-545.296	28.925	0.211	0.178
-544.281	-46.043	-0.137	0.067
-543.266	283.044	-0.140	-0.251
-542.252	-112.424	-0.597	0.119
-541.237	476.330	0.209	0.471
-540.223	660.566	0.051	-0.132
-539.208	-200.000	-0.004	0.028
-538.193	-98.572	-0.400	0.102
-537.179	800.000	-0.046	-0.149
-536.164	-112.967	0.111	0.022
-535.150	16.741	0.376	-0.296
-534.135	-200.000	-0.034	-0.188
-533.121	300.287	0.087	0.160
-532.106	-106.720	-0.389	-0.086
-531.091	251.023	0.186	-0.314
-530.077	329.015	-0.060	0.115
-529.062	800.000	-0.040	0.130
-528.048	-66.030	-0.161	-0.064
-527.033	-114.916	0.106	-0.020
-526.018	-42.664	0.160	-0.081
-525.004	-68.543	-0.262	0.101
-523.989	-0.705	0.290	-0.205
-522.975	-38.287	-0.151	-0.080
-521.960	24.402	-0.086	0.071
-520.945	-200.000	-0.007	-0.066
-519.931	-200.000	-0.033	-0.145
-518.916	40.533	0.180	0.162
-517.902	135.389	-0.083	0.108
-516.887	445.131	-0.072	-0.157
-515.872	93.761	0.335	0.377
-514.858	248.332	-0.203	0.341
-513.843	308.762	-0.175	0.326
-512.829	299.562	0.079	-0.145
-511.814	330.743	0.042	0.080
-510.799	604.721	-0.105	0.261
-509.785	-200.000	-0.078	-0.415
-508.770	142.712	0.167	-0.221
-507.756	11.179	-0.311	0.236
-506.741	-200.000	0.011	-0.061
-505.726	-16.171	0.050	0.032
-504.712	-46.246	0.116	-0.057
-503.697	750.465	0.051	-0.136
-502.683	270.427	0.148	-0.258
-501.668	159.788	-0.106	-0.147
-500.653	145.446	-0.132	-0.175
-499.639	800.000	0.031	-0.090
-498.624	483.216	-0.114	0.258
-497.610	159.313	0.114	-0.158
-496.595	409.300	-0.144	0.303
-495.581	-200.000	-0.028	-0.123
-494.566	800.000	-0.108	-0.310
-493.551	11.954	0.153	-0.117
-492.537	-200.000	0.032	0.469
-491.522	250.631	0.098	-0.165
-490.508	-43.162	-0.216	0.109
-489.493	-200.000	-0.031	0.199
-488.478	665.064	-0.148	0.380
-487.464	800.000	0.058	-0.167
-486.449	62.081	-0.146	0.145
-485.435	12.660	0.305	0.234
-484.420	-200.000	-0.014	0.100
-483.405	411.132	-0.201	-0.424
-482.391	98.575	0.065	-0.075
-481.376	299.169	0.164	0.299
-480.362	46.739	-0.090	-0.083
-479.347	-146.849	0.142	-0.012
-478.332	-130.112	0.144	0.020
-477.318	169.028	0.064	-0.091
-476.303	-200.000	-0.038	-0.309
-475.289	800.000	-0.057	0.177
-474.274	61.221	0.158	0.156
-473.259	88.727	0.090	-0.099
-472.245	-49.688	0.203	-0.096
-471.230	8.535	0.143	-0.107
-470.216	-28.343	0.035	0.020
-469.201	-58.779	0.182	-0.078
-468.186	-200.000	-0.003	-0.184
-467.172	133.072	-0.115	0.147
-466.157	800.000	0.093	-0.404
-465.143	800.000	-0.064	-0.277
-464.128	63.553	-0.159	-0.158
-463.113	203.246	-0.071	-0.108
-462.099	-29.474	-0.145	-0.082
-461.084	-200.000	-0.028	0.127
-460.070	570.191	-0.135	-0.327
-459.055	-117.026	0.221	-0.040
-458.040	-3.939	-0.254	0.175
-457.026	-200.000	0.061	-0.375
-456.011	-22.302	0.118	-0.071
-454.997	-200.000	0.014	-0.301
-453.982	17.941	-0.029	-0.023
-452.968	131.931	0.173	-0.221
-451.953	-200.000	0.065	0.355
-450.938	-200.000	0.006	-0.414
-449.924	-200.000	-0.085	-0.470
-448.909	31.762	0.247	0.211
-447.895	-22.500	-0.059	-0.035
-446.880	249.259	0.100	0.169
-445.865	800.000	-0.086	0.245
-444.851	-200.000	0.024	0.310
-443.836	190.061	0.119	0.177
-442.822	800.000	-0.118	-0.348
-441.807	-151.358	0.155	-0.011
-440.792	-66.175	-0.105	0.042
-439.778	-141.785	0.347	0.035
-438.763	-40.839	-0.154	-0.079
-437.749	114.439	-0.098	-0.118
-436.734	-108.020	0.207	-0.045
-435.719	72.216	0.077	-0.079
-434.705	800.000	-0.075	-0.231
-433.690	-200.000	0.022	-0.349
-432.676	-89.730	-0.159	0.046
-431.661	-200.000	-0.011	-0.201
-430.646	-59.369	-0.161	-0.069
-429.632	176.176	-0.151	-0.217
-428.617	50.536	0.266	0.250
-427.603	172.996	-0.025	-0.036
-426.588	-71.188	-0.121	-0.045
-425.573	-200.000	0.043	-0.262
-424.559	501.507	-0.120	0.275
-423.544	-200.000	0.048	0.317
-422.530	-101.091	0.172	-0.042
-421.515	69.827	-0.155	0.159
-420.500	-179.690	0.172	-0.004
-419.486	-19.344	-0.311	0.191
-418.471	558.732	0.051	0.123
-417.457	-98.573	0.319	0.081
-416.442	48.454	0.152	0.141
-415.428	725.660	0.112	0.296
-414.413	-200.000	-0.006	-0.067
-413.398	800.000	0.050	0.139
-412.384	-200.000	0.004	0.159
-411.369	-44.126	-0.085	0.042
-410.355	298.838	-0.119	-0.218
-409.340	74.816	0.231	0.241
-408.325	238.533	0.164	0.269
-407.311	-57.586	-0.136	-0.059
-406.296	-89.870	-0.267	-0.077
-405.282	-101.191	0.280	0.068
-404.267	-200.000	0.001	-0.152
-403.252	-92.141	-0.217	0.061
-402.238	-178.766	0.216	-0.005
-401.223	210.488	0.079	-0.123
-400.209	800.000	0.077	0.241
-399.194	-29.305	-0.178	-0.101
-398.179	-200.000	-0.007	-0.137
-397.165	-112.646	-0.116	0.023
-396.150	-42.909	0.468	0.235
-395.136	-29.687	0.051	0.029
-394.121	-200.000	-0.002	0.200
-393.106	486.829	0.068	0.153
-392.092	-200.000	-0.002	-0.089
-391.077	781.775	-0.086	-0.232
-390.063	-97.878	0.214	-0.055
-389.048	-33.684	0.396	-0.216
-388.033	-10.237	-0.295	0.194
-387.019	-30.809	0.041	-0.023
-386.004	-200.000	0.004	0.280
-384.990	-9.674	-0.201	0.132
-383.975	21.348	-0.098	0.079
-382.960	-118.184	0.082	-0.015
-381.946	-127.431	0.341	-0.049
-380.931	800.000	-0.123	-0.416
-379.917	-29.587	-0.190	-0.108
-378.902	800.000	0.031	-0.129
-377.888	-93.919	-0.169	-0.046
-376.873	384.301	0.170	0.346
-375.858	75.224	-0.208	-0.217
-374.844	-177.272	-0.169	0.004
-373.829	366.206	0.137	-0.273
-372.815	-200.000	0.002	-0.028
-371.800	-100.873	-0.189	-0.046
-370.785	363.392	-0.129	-0.257
-369.771	272.114	0.157	-0.273
-368.756	-114.486	0.394	-0.075
-367.742	-139.288	-0.294	-0.031
-366.727	-200.000	0.016	-0.143
-365.712	-190.608	0.295	0.003
-364.698	-14.332	0.146	0.093
-363.683	-4.064	0.060	0.041
-362.669	248.584	0.187	0.312
-361.654	800.000	-0.028	0.102
-360.639	-110.342	0.413	-0.085
-359.625	53.950	0.164	-0.156
-358.610	57.710	0.108	0.105
-357.596	-46.551	-0.064	0.031
-356.581	-146.963	0.126	0.011
-355.566	-81.499	0.068	-0.022
-354.552	299.303	0.094	0.170
-353.537	236.923	0.188	-0.307
-352.523	-149.174	-0.214	-0.017
-351.508	-200.000	0.013	0.216
-350.493	-77.848	-0.120	-0.041
-349.479	-170.557	0.203	0.007
-348.464	291.584	0.177	0.318
-347.450	224.127	-0.122	0.195
-346.435	246.010	0.151	-0.251
-345.420	800.000	-0.059	-0.221
-344.406	-134.158	-0.129	0.016
-343.391	299.990	0.136	-0.248
-342.377	-120.474	0.196	0.033
-341.362	-20.448	0.070	-0.043
-340.348	237.703	-0.081	0.133
-339.333	-135.541	0.250	0.029
-338.318	-82.935	-0.136	0.043
-337.304	71.936	0.071	0.073
-336.289	51.170	0.275	0.257
-335.275	215.157	-0.077	-0.121
-334.260	-138.441	0.316	0.034
-333.245	-200.000	-0.026	-0.303
-332.231	-63.875	0.284	-0.115
-331.216	-115.649	-0.206	-0.038
-330.202	800.000	0.091	-0.249
-329.187	-198.235	0.286	0.002
-328.172	-94.134	-0.350	-0.095
-327.158	472.784	0.100	0.222
-326.143	-0.912	-0.169	0.118
-325.129	-15.405	0.098	0.062
-324.114	71.773	-0.174	0.179
-323.099	-156.626	0.087	-0.005
-322.085	64.374	-0.107	0.106
-321.070	-92.664	0.319	-0.088
-320.056	54.439	-0.045	0.043
-319.041	-200.000	0.021	0.157
-318.026	45.764	-0.148	0.135
-317.012	-200.000	-0.009	-0.044
-315.997	21.285	-0.165	-0.132
-314.983	-140.362	-0.053	-0.005
-313.968	103.131	-0.245	0.284
-312.953	-200.000	-0.031	-0.152
-311.939	-138.745	0.153	0.016
-310.924	-9.464	-0.251	0.165
-309.910	173.251	0.045	-0.064
-308.895	-3.402	-0.165	0.114
-307.880	83.073	-0.113	-0.121
-306.866	-42.139	0.209	-0.105
-305.851	-95.280	-0.211	0.056
-304.837	-129.750	0.107	-0.015
-303.822	280.781	0.193	0.341
-302.807	-200.000	-0.018	0.111
-301.793	-54.978	-0.072	0.032
-300.778	-159.038	0.335	0.019
-299.764	105.689	-0.063	-0.074
-298.749	58.320	0.103	0.100
-297.735	-200.000	0.041	-0.220
-296.720	507.373	0.074	-0.170
-295.705	107.167	0.174	-0.204
-294.691	-61.785	0.142	-0.059
-293.676	800.000	-0.126	0.371
-292.662	-200.000	0.015	-0.137
-291.647	98.298	-0.189	0.214
-290.632	24.707	-0.310	0.253
-289.618	-14.062	-0.170	0.108
-288.603	800.000	-0.054	0.203
-287.589	119.549	-0.198	0.242
-286.574	203.125	0.079	0.120
-285.559	99.429	-0.280	0.319
-284.545	91.468	0.135	-0.150
-283.530	348.086	-0.068	0.131
-282.516	32.532	0.158	-0.135
-281.501	211.758	-0.134	-0.208
-280.486	191.779	0.101	-0.149
-279.472	-111.546	-0.135	0.027
-278.457	219.030	0.083	-0.132
-277.443	800.000	-0.087	-0.298
-276.428	-95.216	-0.418	-0.111
-275.413	-200.000	0.030	0.522
-274.399	-200.000	0.008	0.249
-273.384	-10.109	0.041	-0.027
-272.370	-110.802	-0.201	-0.041
-271.355	152.702	0.340	-0.458
-270.340	-154.315	-0.436	0.029
-269.326	-71.146	0.292	-0.108
-268.311	-57.735	0.087	0.038
-267.297	-54.152	-0.091	0.041
-266.282	-93.377	-0.085	0.023
-265.267	607.888	-0.215	0.527
-264.253	-200.000	0.008	0.129
-263.238	-101.147	-0.325	0.078
-262.224	243.736	-0.214	0.354
-261.209	63.120	0.147	0.145
-260.195	49.922	-0.188	0.175
-259.180	-200.000	0.044	-0.538
-258.165	-200.000	0.017	0.161
-257.151	218.220	-0.034	0.054
-256.136	80.177	-0.185	0.196
-255.122	800.000	-0.086	-0.316
-254.107	5.810	0.139	-0.101
-253.092	-10.261	0.229	0.149
-252.078	-178.237	-0.211	-0.005
-251.063	-200.000	0.023	0.113
-250.049	-12.518	-0.068	0.044
-249.034	800.000	0.079	-0.257
-248.019	-77.023	0.168	-0.058
-247.005	371.656	-0.063	0.127
-245.990	-22.020	0.258	-0.154
-244.976	-63.127	0.176	0.071
-243.961	-122.906	-0.257	0.041
-242.946	176.921	0.033	0.048
-241.932	260.994	0.179	0.304
-240.917	16.039	-0.220	-0.171
-239.903	-160.181	-0.475	-0.025
-238.888	-200.000	-0.083	-0.386
-237.873	-200.000	-0.007	-0.234
-236.859	199.907	0.125	0.189
-235.844	-11.076	-0.238	-0.155
-234.830	-68.028	0.327	-0.125
-233.815	-200.000	0.014	-0.168
-232.800	-16.011	-0.135	-0.085
-231.786	-109.572	-0.226	-0.047
-230.771	-30.203	0.203	0.113
-229.757	-166.829	0.033	-0.001
-228.742	-198.804	0.139	-0.001
-227.727	-135.498	-0.152	-0.018
-226.713	95.120	0.237	0.265
-225.698	-200.000	0.017	0.118
-224.684	800.000	-0.066	0.223
-223.669	800.000	0.053	-0.147
-222.655	-200.000	-0.014	0.149
-221.640	-200.000	-0.023	-0.121
-220.625	229.099	0.094	-0.150
-219.611	447.484	-0.143	0.310
-218.596	-0.522	-0.178	0.124
-217.582	193.545	-0.062	0.093
-216.567	-49.048	0.366	-0.172
-215.552	84.876	0.037	0.040
-214.538	304.529	-0.064	0.117
-213.523	-48.471	-0.302	0.143
-212.509	-200.000	0.047	0.223
-211.494	-126.994	-0.175	-0.025
-210.479	-7.068	0.134	0.090
-209.465	162.923	0.106	0.147
-208.450	-111.113	0.294	0.059
-207.436	7.120	0.206	0.151
-206.421	-181.221	-0.259	-0.005
-205.406	-200.000	0.001	-0.025
-204.392	-87.104	-0.289	0.086
-203.377	-91.419	0.228	0.064
-202.363	-200.000	-0.011	-0.229
-201.348	-60.568	0.304	-0.127
-200.333	16.912	0.159	0.123
-199.319	-124.455	0.120	-0.018
-198.304	493.193	-0.167	0.375
-197.290	112.841	-0.026	-0.030
-196.275	55.244	0.296	-0.282
-195.260	-24.952	-0.239	0.139
-194.246	-7.418	0.031	-0.021
-193.231	800.000	-0.019	0.056
-192.217	366.805	0.051	-0.101
-191.202	43.990	0.257	0.231
-190.187	-57.958	-0.101	0.043
-189.173	-6.457	0.226	-0.151
-188.158	800.000	-0.090	-0.291
-187.144	-46.663	-0.206	-0.099
-186.129	-76.517	-0.286	-0.099
-185.114	-17.264	0.282	-0.175
-184.100	86.133	-0.179	-0.194
-183.085	17.985	-0.044	0.035
-182.071	183.174	0.087	0.126
-181.056	800.000	0.093	0.323
-180.042	-18.809	0.394	-0.241
-179.027	-200.000	-0.015	-0.078
-178.012	-44.213	0.217	0.107
-176.998	800.000	0.064	-0.242
-175.983	228.123	0.025	0.040
-174.969	98.462	-0.159	-0.180
-173.954	6.086	0.162	0.118
-172.939	466.120	-0.141	0.309
-171.925	74.215	0.081	0.084
-170.910	42.774	0.062	-0.055
-169.896	361.993	0.158	0.312
-168.881	68.083	0.035	-0.035
-167.866	-37.642	-0.105	-0.055
-166.852	64.106	0.289	0.285
-165.837	-74.839	-0.373	0.131
-164.823	41.045	-0.238	0.211
-163.808	79.382	0.165	-0.173
-162.793	-200.000	0.003	0.178
-161.779	-30.026	0.067	0.037
-160.764	791.296	-0.051	0.136
-159.750	39.409	-0.243	-0.214
-158.735	-104.924	0.264	0.059
-157.720	-123.764	0.068	0.011
-156.706	81.928	-0.165	-0.176
-155.691	121.601	0.180	-0.220
-154.677	-200.000	0.035	0.190
-153.662	-105.272	0.188	0.042
-152.647	-105.928	0.272	-0.060
-151.633	800.000	-0.026	-0.091
-150.618	177.361	-0.062	0.089
-149.604	800.000	-0.011	0.031
-148.589	31.298	0.038	0.032
-147.574	94.735	0.214	0.238
-146.560	49.626	0.308	-0.285
-145.545	-179.320	0.293	0.006
-144.531	-51.910	0.170	-0.078
-143.516	24.362	-0.031	-0.025
-142.502	-41.233	0.164	0.083
-141.487	-122.919	-0.089	0.014
-140.472	-200.000	-0.009	0.225
-139.458	166.115	0.260	-0.360
-138.443	210.730	-0.303	-0.466
-137.429	430.962	0.065	-0.138
-136.414	118.331	0.083	0.101
-135.399	-144.233	-0.027	0.003
-134.385	-200.000	-0.013	-0.060
-133.370	-93.338	0.291	0.079
-132.356	27.866	0.269	-0.222
-131.341	183.604	-0.055	0.079
-130.326	142.811	-0.182	-0.237
-129.312	14.980	-0.108	0.083
-128.297	-200.000	0.056	-0.283
-127.283	-142.051	0.231	-0.023
-126.268	-67.559	0.132	0.051
-125.253	-8.184	0.104	0.069
-124.239	286.618	0.071	0.126
-123.224	-114.000	0.069	0.013
-122.210	-147.677	0.377	-0.031
-121.195	75.053	0.156	-0.162
-120.180	588.834	-0.052	-0.126
-119.166	800.000	-0.033	-0.113
-118.151	-76.970	-0.156	-0.053
-117.137	-37.261	0.273	-0.143
-116.122	79.311	-0.208	0.218
-115.107	73.697	-0.007	-0.007
-114.093	204.629	-0.264	0.400
-113.078	13.180	0.023	0.018
-112.064	-66.314	0.174	0.068
-111.049	293.295	0.224	-0.400
-110.034	-200.000	0.010	0.106
-109.020	-200.000	-0.002	0.216
-108.005	-65.618	0.369	-0.145
-106.991	-86.545	0.226	-0.068
-105.976	89.789	-0.293	0.320
-104.962	-0.157	0.221	0.154
-103.947	61.392	-0.151	-0.147
-102.932	662.588	-0.096	-0.242
-101.918	-37.086	-0.141	0.074
-100.903	-90.432	-0.036	0.010
-99.889	-121.049	-0.271	-0.044
-98.874	64.497	0.111	0.109
-97.859	73.326	0.155	-0.159
-96.845	-200.000	0.004	-0.151
-95.830	-67.834	-0.262	-0.100
-94.816	-140.518	0.188	-0.019
-93.801	395.014	0.100	-0.205
-92.786	522.751	0.086	0.198
-91.772	151.309	0.189	-0.251
-90.757	-33.753	0.246	-0.133
-89.743	142.109	0.161	0.209
-88.728	616.483	0.131	-0.322
-87.713	623.659	-0.079	0.196
-86.699	-112.885	0.229	-0.044
-85.684	114.251	0.033	-0.040
-84.670	-200.000	-0.059	0.410
-83.655	-200.000	-0.008	0.333
-82.640	800.000	0.031	0.098
-81.626	800.000	-0.038	-0.110
-80.611	247.042	0.121	0.200
-79.597	-71.098	-0.113	-0.042
-78.582	-131.353	0.155	0.020
-77.567	269.383	0.141	0.242
-76.553	-81.821	-0.302	-0.097
-75.538	-70.405	0.220	0.082
-74.524	-74.291	0.271	0.096
-73.509	-200.000	-0.026	-0.282
-72.494	147.611	0.229	0.302
-71.480	83.494	0.150	0.160
-70.465	269.980	-0.074	-0.127
-69.451	-200.000	0.031	0.215
-68.436	161.250	0.199	0.272
-67.422	2.664	-0.155	-0.110
-66.407	26.138	-0.165	0.135
-65.392	-200.000	0.006	0.416
-64.378	-62.480	-0.180	0.073
-63.363	99.182	-0.139	-0.157
-62.349	800.000	0.099	-0.288
-61.334	-30.449	-1.523	-0.844
-60.319	29.948	0.479	0.399
-59.305	-200.000	0.101	-0.872
-58.290	179.434	0.703	1.005
-57.276	570.171	0.589	1.401
-56.261	-200.000	113.086	644.338
-55.246	484.360	1492.124	3317.899
-54.232	151.199	2652.133	3525.969
-53.217	103.483	2158.578	2474.541
-52.203	37.897	1693.081	1470.065
-51.188	30.794	1511.641	1264.448
-50.173	28.591	1487.222	1229.230
-49.159	52.368	1545.099	1440.008
-48.144	51.269	1560.554	1446.862
-47.130	30.950	1517.863	1270.509
-46.115	27.931	1502.695	1237.353
-45.100	27.776	1498.804	1233.055
-44.086	27.687	1497.666	1231.465
-43.071	27.694	1495.445	1229.642
-42.057	27.660	1493.821	1228.027
-41.042	27.661	1492.621	1226.997
-40.027	27.652	1490.942	1225.509
-39.013	27.654	1489.549	1224.331
-37.998	27.707	1487.795	1223.194
-36.984	27.661	1486.846	1222.053
-35.969	27.647	1485.589	1220.878
-34.954	27.649	1484.508	1219.956
-33.940	27.691	1482.986	1218.943
-32.925	27.646	1481.629	1217.472
-31.911	27.636	1480.449	1216.393
-30.896	27.736	1478.785	1215.642
-29.881	27.705	1477.866	1214.634
-28.867	27.634	1476.693	1213.145
-27.852	27.725	1475.124	1212.411
-26.838	27.745	1473.638	1211.276
-25.823	27.684	1472.086	1209.548
-24.809	27.776	1470.309	1208.650
-23.794	27.732	1469.273	1207.461
-22.779	27.686	1468.308	1206.312
-21.765	27.706	1467.069	1205.379
-20.750	27.697	1466.453	1204.766
-19.736	27.744	1464.861	1203.724
-18.721	27.758	1463.403	1202.568
-17.706	27.708	1462.400	1201.366
-16.692	27.750	1461.297	1200.689
-15.677	27.691	1460.649	1199.720
-14.663	27.719	1459.958	1199.293
-13.648	27.682	1458.712	1197.977
-12.633	27.665	1457.812	1197.076
-11.619	27.618	1457.293	1196.296
-10.604	27.739	1455.797	1195.816
-9.590	27.684	1455.150	1194.872
-8.575	27.722	1454.215	1194.309
-7.560	27.720	1453.308	1193.503
-6.546	27.664	1452.535	1192.455
-5.531	27.619	1451.723	1191.445
-4.517	27.634	1450.686	1190.643
-3.502	27.635	1450.052	1190.081
-2.487	27.663	1448.933	1189.302
-1.473	27.610	1447.777	1187.960
-0.458	27.667	1446.489	1187.227
0.556	25.848	1436.911	1175.517
1.571	22.836	1411.879	1135.593
2.586	19.308	1351.285	1065.000
3.600	17.770	1268.728	990.921
4.615	16.664	1224.249	949.894
5.629	15.796	1170.998	903.832
6.644	12.753	1095.292	830.015
7.659	9.855	1060.828	789.664
8.673	9.619	1055.876	784.763
9.688	9.534	1052.847	782.029
10.702	9.465	1051.239	780.429
11.717	9.411	1049.123	778.530
12.731	10.622	1049.111	784.307
13.746	13.921	1053.073	803.178
14.761	16.961	1056.582	820.510
15.775	17.703	1056.567	824.013
16.790	16.878	1054.905	818.664
17.804	15.891	1052.381	811.873
18.819	14.918	1050.967	806.024
19.834	14.409	1049.223	802.168
20.848	14.268	1047.955	800.448
21.863	13.986	1047.447	798.635
22.877	13.750	1046.438	796.660
23.892	13.498	1045.906	794.976
24.907	13.414	1045.184	793.955
25.921	13.442	1044.550	793.534
26.936	13.507	1043.593	793.049
27.950	13.527	1042.575	792.303
28.965	13.565	1041.502	791.598
29.980	13.530	1040.952	790.943
30.994	13.578	1039.135	789.721
32.009	13.753	1037.663	789.364
33.023	13.795	1037.335	789.243
34.038	13.816	1036.531	788.662
35.053	13.544	1035.844	786.778
36.067	13.638	1034.552	786.173
37.082	13.551	1034.181	785.412
38.096	13.613	1032.765	784.557
39.111	13.725	1032.000	784.436
40.126	13.683	1031.130	783.508
41.140	13.650	1030.162	782.548
42.155	13.492	1028.918	780.791
43.169	13.433	1028.722	780.294
44.184	13.359	1027.491	778.944
45.199	13.427	1026.013	778.073
46.213	13.435	1025.259	777.469
47.228	13.424	1024.305	776.627
48.242	13.575	1023.315	776.512
49.257	13.639	1022.129	775.845
50.271	13.688	1021.185	775.288
51.286	13.566	1020.706	774.285
52.301	13.745	1019.196	773.908
53.315	13.650	1018.953	773.209
54.330	13.607	1018.033	772.247
55.344	13.389	1017.700	770.908
56.359	13.468	1016.686	770.440
57.374	13.577	1015.255	769.793
58.388	13.477	1014.250	768.498
59.403	13.435	1013.594	767.740
60.417	13.556	1012.722	767.571
61.432	13.450	1012.468	766.822
62.447	13.475	1011.588	766.201
63.461	13.210	1011.148	764.572
64.476	13.311	1009.912	764.039
65.490	13.361	1008.547	763.169
66.505	13.417	1007.576	762.624
67.520	13.385	1007.523	762.372
68.534	13.440	1006.584	761.843
69.549	13.441	1005.766	761.164
70.563	13.307	1005.117	759.990
71.578	13.329	1004.652	759.669
72.593	13.332	1003.540	758.776
73.607	13.490	1001.842	758.149
74.622	13.212	1001.802	756.777
75.636	13.201	1000.622	755.770
76.651	13.186	999.661	754.911
77.666	13.246	999.188	754.761
78.680	13.208	998.246	753.810
79.695	13.322	997.510	753.705
80.709	13.329	997.166	753.410
81.724	13.382	996.376	752.990
82.739	13.446	995.523	752.568
83.753	13.467	994.361	751.717
84.768	13.501	994.460	751.878
85.782	13.692	993.583	752.015
86.797	13.843	992.679	751.951
87.812	13.756	991.705	750.751
88.826	13.695	990.755	749.691
89.841	13.548	990.456	748.733
90.855	13.537	989.554	747.938
91.870	13.698	988.433	747.747
92.884	13.791	987.686	747.536
93.899	13.632	987.064	746.283
94.914	13.673	986.420	745.916
95.928	13.696	985.914	745.570
96.943	13.717	985.328	745.155
97.957	13.629	984.363	743.967
98.972	13.582	983.546	743.070
99.987	13.681	982.774	742.864
101.001	13.788	981.866	742.590
102.016	13.602	981.200	741.191
103.030	13.700	979.932	740.604
104.045	13.700	979.288	740.052
105.060	13.646	978.013	738.785
106.074	13.604	977.437	738.096
107.089	13.602	976.383	737.226
108.103	13.437	975.725	735.929
109.118	13.453	974.760	735.206
110.133	13.429	973.529	734.110
111.147	13.388	973.012	733.472
112.162	13.368	972.441	732.889
113.176	13.387	971.392	732.116
114.191	13.656	970.388	732.483
115.206	13.575	969.657	731.508
116.220	13.551	968.709	730.625
117.235	13.473	968.177	729.814
118.249	13.492	967.421	729.262
119.264	13.501	966.320	728.407
120.279	13.313	966.094	727.347
121.293	13.387	965.223	726.954
122.308	13.510	964.400	726.806
123.322	13.433	963.185	725.490
124.337	13.393	962.451	724.699
125.352	13.353	960.800	723.216
126.366	13.417	959.878	722.737
127.381	13.397	958.776	721.759
128.395	13.498	957.802	721.402
129.410	13.396	957.168	720.414
130.424	13.388	956.279	719.647
131.439	13.416	955.703	719.270
132.454	13.442	954.595	718.488
133.468	13.612	953.855	718.601
134.483	13.659	953.176	718.232
135.497	13.537	952.322	716.996
136.512	13.446	952.002	716.300
137.527	13.542	950.909	715.826
138.541	13.611	949.897	715.301
139.556	13.599	949.461	714.858
140.570	13.615	948.868	714.418
141.585	13.732	947.823	714.070
142.600	13.740	947.164	713.547
143.614	13.630	946.464	712.482
144.629	13.759	945.934	712.574
145.643	13.812	945.193	712.180
146.658	13.838	944.093	711.397
147.673	13.711	943.485	710.336
148.687	13.743	942.249	709.476
149.702	13.727	940.957	708.376
150.716	13.523	940.844	707.356
151.731	13.486	939.833	706.375
152.746	13.700	938.698	706.370
153.760	13.572	938.503	705.617
154.775	13.668	937.400	705.133
155.789	13.663	937.064	704.795
156.804	13.667	936.390	704.244
157.819	13.661	935.778	703.695
158.833	13.770	935.110	703.593
159.848	13.727	934.407	702.820
160.862	13.766	933.846	702.502
161.877	13.727	932.718	701.426
162.892	13.779	931.874	700.951
163.906	13.707	931.202	700.077
164.921	13.706	930.280	699.317
165.935	13.692	929.258	698.429
166.950	13.744	928.252	697.829
167.964	13.765	927.002	696.916
168.979	13.812	926.324	696.543
169.994	13.860	925.349	695.949
171.008	13.818	924.588	695.139
172.023	13.742	923.997	694.317
173.037	13.841	923.426	694.239
174.052	13.867	922.645	693.699
175.067	13.910	921.878	693.241
176.081	13.809	920.829	691.970
177.096	13.748	920.240	691.209
178.110	13.686	919.399	690.261
179.125	13.680	918.745	689.681
180.140	13.823	917.863	689.555
181.154	13.956	916.935	689.349
182.169	13.907	916.694	688.901
183.183	13.948	916.146	688.598
184.198	14.015	915.385	688.244
185.213	14.053	914.764	687.874
186.227	14.049	913.824	687.089
187.242	14.088	913.660	687.065
188.256	14.138	912.708	686.497
189.271	13.992	912.363	685.575
190.286	14.062	911.453	685.117
191.300	13.862	910.848	683.778
192.315	13.877	909.639	682.874
193.329	13.879	909.006	682.345
194.344	13.837	908.529	681.752
195.359	13.894	907.688	681.297
196.373	14.007	907.311	681.417
197.388	14.011	907.429	681.461
198.402	13.996	906.659	680.763
199.417	14.230	906.062	681.211
200.432	14.371	905.146	681.040
201.446	14.266	905.006	680.444
202.461	14.374	904.726	680.614
203.475	14.249	904.604	679.950
204.490	14.226	903.671	679.094
205.504	14.349	902.215	678.444
206.519	14.279	902.132	678.036
207.534	14.274	900.995	677.100
208.548	14.181	900.577	676.347
209.563	14.276	899.666	675.990
210.577	14.288	899.097	675.551
211.592	14.300	898.469	675.067
212.607	14.442	897.950	675.194
213.621	14.498	897.101	674.722
214.636	14.527	896.408	674.258
215.650	14.454	896.066	673.647
216.665	14.450	894.991	672.763
217.680	14.514	894.749	672.781
218.694	14.420	894.628	672.249
219.709	14.556	893.791	672.108
220.723	14.564	892.962	671.457
221.738	14.450	892.662	670.714
222.753	14.487	891.870	670.210
223.767	14.584	890.824	669.752
224.782	14.704	890.389	669.849
225.796	14.561	889.512	668.558
226.811	14.731	888.677	668.551
227.826	14.624	888.323	667.797
228.840	14.615	887.459	667.052
229.855	14.640	886.863	666.646
230.869	14.641	886.075	665.996
231.884	14.564	885.996	665.573
232.899	14.437	885.088	664.326
233.913	14.673	884.021	664.407
234.928	14.567	883.620	663.624
235.942	14.456	883.012	662.667
236.957	14.509	882.282	662.270
237.972	14.595	881.640	662.070
238.986	14.581	880.740	661.281
240.001	14.664	879.967	660.971
241.015	14.658	879.762	660.737
242.030	14.602	879.055	659.924
243.045	14.660	878.298	659.525
244.059	14.627	877.778	658.947
245.074	14.670	876.796	658.321
246.088	14.687	876.346	657.993
247.103	14.842	876.124	658.379
248.117	14.740	875.528	657.469
249.132	14.882	874.618	657.289
250.147	14.881	874.050	656.797
251.161	15.135	873.069	657.001
252.176	15.018	873.060	656.475
253.190	15.076	872.191	655.991
254.205	15.205	871.713	656.078
255.220	15.272	870.966	655.721
256.234	15.201	870.309	654.890
257.249	15.236	870.116	654.826
258.263	15.251	869.099	654.060
259.278	15.212	868.780	653.608
260.293	15.223	868.328	653.255
261.307	15.326	867.240	652.780
262.322	15.317	866.883	652.416
263.336	15.335	866.720	652.307
264.351	15.375	865.690	651.628
265.366	15.343	865.110	651.010
266.380	15.261	864.643	650.285
267.395	15.472	863.633	650.284
268.409	15.450	862.927	649.611
269.424	15.291	862.195	648.385
270.439	15.427	861.879	648.616
271.453	15.230	860.998	647.135
272.468	15.360	860.057	646.873
273.482	15.224	859.874	646.153
274.497	15.281	859.014	645.670
275.512	15.492	858.124	645.755
276.526	15.293	857.684	644.604
277.541	15.402	856.766	644.273
278.555	15.463	856.238	644.053
279.570	15.505	855.918	643.919
280.585	15.659	855.252	643.949
281.599	15.593	854.767	643.273
282.614	15.573	854.337	642.818
283.628	15.529	853.633	642.064
284.643	15.462	853.284	641.487
285.657	15.555	852.735	641.371
286.672	15.556	852.094	640.836
287.687	15.566	851.681	640.511
288.701	15.683	850.893	640.305
289.716	15.516	850.459	639.286
290.730	15.540	850.105	639.055
291.745	15.634	849.603	638.979
292.760	15.534	848.835	637.964
293.774	15.754	847.858	638.009
294.789	15.741	847.406	637.561
295.803	15.744	847.233	637.387
296.818	15.742	846.422	636.713
297.833	15.680	845.555	635.771
298.847	15.569	845.141	634.984
299.862	15.706	844.001	634.589
300.876	15.785	843.495	634.450
301.891	15.834	842.880	634.114
302.906	15.798	842.517	633.651
303.920	15.888	841.919	633.481
304.935	15.934	841.187	633.050
305.949	15.885	840.984	632.654
306.964	16.013	839.706	632.121
307.979	15.964	839.143	631.455
308.993	15.964	838.912	631.226
310.008	15.992	838.029	630.610
311.022	16.081	837.562	630.537
312.037	16.090	837.491	630.458
313.052	16.160	836.683	630.057
314.066	16.061	835.930	629.066
315.081	15.844	835.692	628.021
316.095	15.854	835.161	627.605
317.110	15.899	834.689	627.359
318.125	16.018	833.909	627.164
319.139	15.847	833.623	626.256
320.154	15.984	833.075	626.296
321.168	15.956	832.645	625.816
322.183	16.001	831.888	625.358
323.197	16.062	831.296	625.084
324.212	16.044	831.097	624.811
325.227	15.999	830.503	624.142
326.241	16.120	829.944	624.117
327.256	16.128	829.152	623.493
328.270	16.106	828.742	623.049
329.285	16.023	828.341	622.386
330.300	16.083	827.443	621.879
331.314	16.141	826.693	621.474
332.329	16.139	825.934	620.838
333.343	16.229	825.645	620.899
334.358	16.164	825.237	620.298
335.373	16.261	824.956	620.388
336.387	16.333	824.251	620.068
337.402	16.162	824.257	619.389
338.416	16.340	823.556	619.461
339.431	16.275	822.742	618.555
340.446	16.342	822.022	618.206
341.460	16.494	821.591	618.381
342.475	16.497	820.832	617.768
343.489	16.542	820.724	617.795
344.504	16.442	820.153	616.946
345.519	16.540	819.533	616.784
346.533	16.586	818.907	616.425
347.548	16.551	818.560	615.981
348.562	16.554	817.983	615.503
349.577	16.586	817.380	615.112
350.592	16.381	816.949	613.989
351.606	16.293	816.248	613.087
352.621	16.490	816.001	613.562
353.635	16.572	815.212	613.214
354.650	16.408	815.292	612.623
355.665	16.672	814.492	612.923
356.679	16.620	814.034	612.337
357.694	16.531	813.907	611.867
358.708	16.523	813.062	611.146
359.723	16.662	812.371	611.077
360.738	16.729	811.796	610.832
361.752	16.520	811.564	609.848
362.767	16.605	811.299	609.900
363.781	16.734	810.937	610.041
364.796	16.700	810.397	609.459
365.810	16.784	809.977	609.390
366.825	16.967	809.709	609.792
367.840	16.892	809.128	609.032
368.854	16.996	808.645	608.989
369.869	16.811	808.259	607.980
370.883	16.890	807.649	607.750
371.898	16.961	806.993	607.458
372.913	16.926	806.603	606.985
373.927	16.996	805.786	606.565
374.942	16.945	805.168	605.863
375.956	16.898	804.761	605.338
376.971	17.095	804.077	605.473
377.986	16.936	804.016	604.806
379.000	17.041	803.381	604.650
380.015	17.245	802.527	604.677
381.029	17.212	802.309	604.341
382.044	17.244	801.449	603.756
383.059	17.145	800.989	603.005
384.073	17.143	800.498	602.574
385.088	17.219	799.856	602.307
386.102	17.160	799.231	601.574
387.117	17.073	798.842	600.919
388.132	17.040	798.594	600.563
389.146	17.131	798.162	600.508
390.161	17.044	797.869	599.926
391.175	17.142	797.414	599.877
392.190	17.182	797.375	599.935
393.205	17.142	796.603	599.160
394.219	17.383	795.616	599.215
395.234	17.139	795.491	598.209
396.248	17.159	794.990	597.849
397.263	17.229	794.420	597.612
398.278	17.069	793.891	596.600
399.292	17.040	793.699	596.299
400.307	17.256	792.781	596.317
401.321	17.167	792.905	596.043
402.336	17.149	792.591	595.692
403.350	17.117	792.082	595.146
404.365	17.325	791.649	595.494
405.380	17.281	791.197	594.948
406.394	17.272	790.749	594.527
407.409	17.396	790.502	594.724
408.423	17.441	789.994	594.446
409.438	17.327	789.661	593.745
410.453	17.706	788.717	594.304
411.467	17.520	788.504	593.440
412.482	17.416	788.171	592.778
413.496	17.547	787.694	592.823
414.511	17.612	787.076	592.530
415.526	17.695	786.911	592.643
416.540	17.645	786.591	592.177
417.555	17.635	785.804	591.494
418.569	17.732	785.590	591.618
419.584	17.589	785.557	591.046
420.599	17.596	784.866	590.497
421.613	112.210	1292.453	1478.368
422.628	96.286	1366.409	1478.446
