DTS Sentinel unit serial number:	SN413079Multiplexer serial number:	ORYXHardware model number:	OX4-SRSoftware version number:	ORYX F/W v4.00 Oryx Data Collector v3.7.2.0data status	okinstallation	princeton_trtdifferential loss correction	single-endedforward channel	channel 3reverse channel	N/Adate	2019/09/19time	15:36:35forward acquisition time	60.00reverse acquisition time	0.00gamma	496.2192k internal	0.2308k external	0.2308temperature offset calibration	1.0010default loss term (dB/km)	0.3790temperature slope calibration	1.0000multiplexer offset coefficient	1.0000multiplexer slope coefficient	1.0000fibre end	0.00T internal ref (°C)	34.33T ext. ref 1 (°C)	1.15T ext. ref 2 (°C)	31.96length (m)	temperature (°C)	Stokes	anti-Stokes-747.200	-85.737	0.374	0.118
-746.185	800.000	0.126	0.442
-745.171	87.479	-0.065	-0.074
-744.156	119.847	0.141	0.178
-743.142	131.980	0.252	0.330
-742.127	484.153	-0.161	0.373
-741.112	233.373	-0.048	0.081
-740.098	-70.728	0.359	0.138
-739.083	268.801	-0.046	0.082
-738.069	539.999	-0.116	0.281
-737.054	216.492	0.093	-0.150
-736.039	-81.387	-0.210	-0.070
-735.025	289.362	0.149	0.275
-734.010	-200.000	-0.176	-0.001
-732.996	800.000	-0.164	-0.576
-731.981	-139.961	0.179	-0.019
-730.966	800.000	0.084	-0.296
-729.952	-200.000	-0.004	0.212
-728.937	-200.000	0.027	-0.120
-727.923	-200.000	-0.015	-0.075
-726.908	-9.769	-0.194	-0.131
-725.894	-117.311	-0.468	-0.086
-724.879	-53.846	-0.208	0.096
-723.864	117.003	0.103	-0.128
-722.850	-28.510	-0.114	0.067
-721.835	-94.413	0.021	0.006
-720.821	367.961	0.273	-0.560
-719.806	181.924	0.024	0.036
-718.791	-88.052	0.171	-0.052
-717.777	81.594	0.128	-0.141
-716.762	800.000	-0.038	0.109
-715.748	-105.437	-0.341	0.079
-714.733	800.000	-0.080	-0.235
-713.718	800.000	0.077	-0.291
-712.704	49.583	0.348	-0.332
-711.689	-200.000	-0.013	-0.232
-710.675	409.057	0.065	-0.140
-709.660	84.020	0.179	0.199
-708.645	-175.346	0.310	0.009
-707.631	800.000	0.055	-0.156
-706.616	726.827	-0.125	0.339
-705.602	36.163	0.113	-0.101
-704.587	-18.974	-0.287	-0.181
-703.572	114.120	-0.232	0.287
-702.558	-39.877	0.498	-0.264
-701.543	-72.901	-0.232	-0.086
-700.529	90.973	-0.040	-0.045
-699.514	-200.000	0.009	-0.239
-698.499	-134.022	0.159	-0.020
-697.485	127.362	-0.130	-0.168
-696.470	-155.541	-0.324	-0.021
-695.456	-23.369	0.231	-0.141
-694.441	-200.000	-0.018	0.226
-693.426	48.657	-0.233	-0.221
-692.412	-43.809	0.496	-0.254
-691.397	-200.000	-0.012	0.066
-690.383	60.559	-0.081	0.081
-689.368	-42.276	-0.101	0.052
-688.354	275.356	0.040	-0.072
-687.339	33.381	0.268	-0.236
-686.324	-37.613	-0.064	-0.035
-685.310	-92.400	-0.023	-0.006
-684.295	733.571	-0.083	-0.226
-683.281	-200.000	-0.006	0.190
-682.266	-200.000	0.004	0.262
-681.251	-71.001	0.242	0.092
-680.237	8.605	-0.057	0.044
-679.222	145.933	0.168	-0.228
-678.208	-157.595	-0.248	0.015
-677.193	-154.612	-0.071	-0.005
-676.178	-53.469	0.067	-0.031
-675.164	-83.420	-0.111	0.036
-674.149	-16.540	-0.236	0.152
-673.135	-76.428	0.458	-0.163
-672.120	-131.777	0.230	0.031
-671.105	5.997	0.025	0.019
-670.091	-109.269	-0.133	-0.029
-669.076	-14.018	-0.282	0.184
-668.062	-163.258	0.173	-0.008
-667.047	376.183	0.139	-0.288
-666.032	4.978	-0.161	-0.120
-665.018	-200.000	-0.048	0.307
-664.003	-138.779	-0.282	0.031
-662.989	3.349	-0.291	-0.215
-661.974	196.815	-0.128	0.197
-660.959	-30.239	-0.317	-0.182
-659.945	-68.280	0.288	-0.113
-658.930	420.346	0.083	-0.181
-657.916	-108.927	-0.161	0.035
-656.901	-41.519	-0.143	-0.075
-655.886	152.175	0.111	0.154
-654.872	-130.102	0.344	-0.048
-653.857	9.985	-0.019	-0.015
-652.843	-48.497	0.056	-0.027
-651.828	137.051	-0.158	0.210
-650.814	293.191	-0.078	-0.145
-649.799	31.975	0.352	-0.307
-648.784	-55.275	-0.116	-0.053
-647.770	-200.000	0.015	0.196
-646.755	5.230	0.351	0.262
-645.741	-148.700	0.150	0.012
-644.726	-54.594	-0.176	-0.081
-643.711	26.891	-0.162	-0.137
-642.697	-70.236	0.024	0.009
-641.682	8.825	-0.187	-0.143
-640.668	-174.153	0.556	-0.016
-639.653	-200.000	-0.015	-0.178
-638.638	86.956	0.186	-0.208
-637.624	-200.000	-0.019	0.315
-636.609	800.000	0.036	-0.100
-635.595	90.266	-0.092	-0.104
-634.580	2.129	-0.254	0.186
-633.565	-62.401	-0.060	0.025
-632.551	-200.000	0.008	-0.084
-631.536	-200.000	0.031	-0.262
-630.522	-5.817	0.220	0.153
-629.507	-152.540	-0.245	-0.018
-628.492	-78.854	0.259	-0.089
-627.478	-188.027	-0.424	0.006
-626.463	800.000	-0.032	-0.109
-625.449	-145.873	-0.241	-0.022
-624.434	-126.999	0.183	0.027
-623.419	-159.352	-0.150	0.008
-622.405	512.704	-0.038	-0.089
-621.390	-200.000	-0.006	0.205
-620.376	154.755	0.043	-0.060
-619.361	-127.400	0.230	-0.034
-618.346	95.922	0.046	-0.053
-617.332	-98.152	-0.207	0.054
-616.317	-111.785	-0.403	-0.083
-615.303	-16.218	0.136	0.087
-614.288	0.610	-0.224	-0.162
-613.273	-200.000	0.028	-0.228
-612.259	-200.000	0.013	0.088
-611.244	-26.690	0.242	0.143
-610.230	22.070	0.131	0.108
-609.215	-83.369	0.119	-0.039
-608.201	-200.000	0.027	-0.339
-607.186	199.615	-0.185	-0.287
-606.171	-32.968	0.238	0.134
-605.157	41.239	-0.144	0.131
-604.142	-200.000	-0.017	-0.160
-603.128	643.706	-0.095	-0.246
-602.113	-57.910	-0.143	0.063
-601.098	800.000	0.025	0.081
-600.084	800.000	0.048	-0.163
-599.069	69.416	-0.126	-0.131
-598.055	-200.000	-0.005	-0.212
-597.040	800.000	0.077	0.245
-596.025	800.000	0.053	-0.222
-595.011	706.075	0.044	0.117
-593.996	-150.336	-0.070	0.005
-592.982	-9.927	-0.075	0.051
-591.967	800.000	-0.123	-0.377
-590.952	-200.000	-0.031	-0.416
-589.938	-124.610	0.191	-0.030
-588.923	-6.426	-0.224	-0.154
-587.909	260.465	-0.162	-0.284
-586.894	-0.013	0.263	-0.189
-585.879	-30.674	-0.088	0.051
-584.865	-145.223	0.304	0.028
-583.850	-134.850	-0.116	-0.014
-582.836	-116.295	-0.148	0.028
-581.821	-200.000	-0.011	0.130
-580.806	-112.012	-0.353	0.072
-579.792	-58.382	-0.201	0.088
-578.777	414.302	0.100	-0.216
-577.763	-79.368	-0.346	-0.118
-576.748	167.547	0.070	-0.100
-575.733	-113.386	-0.282	-0.056
-574.719	29.588	-0.170	0.146
-573.704	800.000	-0.084	-0.266
-572.690	121.390	-0.147	0.185
-571.675	-34.750	0.067	0.037
-570.661	-108.136	-0.238	0.052
-569.646	652.918	-0.050	-0.130
-568.631	-117.331	-0.108	-0.020
-567.617	87.342	-0.126	0.141
-566.602	7.313	-0.203	-0.153
-565.588	18.092	-0.251	-0.202
-564.573	30.835	-0.335	0.290
-563.558	-200.000	-0.051	-0.357
-562.544	-200.000	-0.009	-0.525
-561.529	-132.492	0.215	0.028
-560.515	30.852	0.201	0.174
-559.500	-2.164	0.206	0.146
-558.485	-36.141	-0.271	-0.148
-557.471	-50.896	0.162	0.077
-556.456	-143.573	-0.227	-0.022
-555.442	-72.936	-0.181	-0.067
-554.427	-83.873	0.086	-0.028
-553.412	230.007	0.083	0.136
-552.398	-174.224	-0.350	0.010
-551.383	-43.213	0.183	0.094
-550.369	-200.000	0.003	-0.241
-549.354	-91.439	-0.124	0.036
-548.339	-145.045	-0.323	0.030
-547.325	-200.000	0.020	0.166
-546.310	-68.803	0.125	0.049
-545.296	800.000	-0.009	-0.037
-544.281	-83.334	0.166	-0.054
-543.266	-200.000	-0.006	-0.275
-542.252	-32.778	0.225	-0.126
-541.237	-12.215	0.124	0.082
-540.223	25.204	-0.062	-0.052
-539.208	-22.010	0.128	0.079
-538.193	-200.000	0.014	-0.109
-537.179	268.861	0.036	-0.063
-536.164	-112.408	0.350	-0.071
-535.150	-200.000	-0.025	-0.209
-534.135	-91.845	-0.238	-0.068
-533.121	-200.000	0.020	0.096
-532.106	34.284	0.026	0.023
-531.091	-200.000	0.011	0.083
-530.077	267.770	-0.099	-0.175
-529.062	-200.000	-0.013	-0.224
-528.048	62.165	-0.140	-0.141
-527.033	-108.476	-0.312	-0.068
-526.018	-0.816	0.271	0.194
-525.004	-18.010	0.135	-0.085
-523.989	-7.045	-0.219	-0.150
-522.975	-11.445	0.098	-0.065
-521.960	335.453	0.208	0.407
-520.945	200.725	-0.076	-0.118
-519.931	-71.178	-0.159	0.060
-518.916	-178.661	0.221	-0.005
-517.902	-200.000	0.003	0.390
-516.887	-92.013	0.137	0.039
-515.872	800.000	0.037	-0.150
-514.858	-66.877	0.308	-0.123
-513.843	800.000	-0.015	0.055
-512.829	-163.360	0.230	0.011
-511.814	-78.346	-0.100	-0.035
-510.799	-200.000	-0.117	0.544
-509.785	-197.501	0.232	-0.001
-508.770	165.021	0.156	0.222
-507.756	-121.322	-0.358	-0.060
-506.741	11.535	-0.098	0.076
-505.726	262.618	-0.114	-0.199
-504.712	-92.419	-0.213	0.060
-503.697	71.377	-0.146	-0.152
-502.683	800.000	0.118	-0.421
-501.668	113.850	-0.234	0.287
-500.653	116.230	-0.159	-0.196
-499.639	-58.664	-0.119	-0.052
-498.624	-129.112	-0.147	-0.021
-497.610	-99.167	0.078	0.020
-496.595	58.194	-0.274	0.270
-495.581	532.346	0.100	0.238
-494.566	8.507	-0.028	-0.021
-493.551	-200.000	0.005	-0.076
-492.537	-200.000	0.038	0.239
-491.522	-54.912	-0.198	0.090
-490.508	407.366	-0.063	0.133
-489.493	800.000	0.053	-0.220
-488.478	145.606	-0.110	-0.148
-487.464	230.448	0.128	-0.211
-486.449	-200.000	-0.141	0.667
-485.435	596.444	-0.202	0.504
-484.420	800.000	0.098	0.397
-483.405	-98.465	0.200	-0.052
-482.391	800.000	0.090	-0.278
-481.376	3.819	-0.086	0.063
-480.362	51.845	-0.244	-0.233
-479.347	-118.668	-0.047	0.008
-478.332	800.000	-0.081	0.292
-477.318	-9.159	0.147	-0.099
-476.303	75.712	0.329	0.350
-475.289	-200.000	-0.067	-0.311
-474.274	115.358	-0.065	0.080
-473.259	488.455	0.097	-0.222
-472.245	-102.479	0.066	0.016
-471.230	485.088	-0.115	0.262
-470.216	169.315	-0.136	-0.195
-469.201	95.075	0.110	-0.126
-468.186	-140.801	-0.124	-0.013
-467.172	131.485	-0.131	0.169
-466.157	474.822	-0.065	0.148
-465.143	-26.847	-0.214	-0.125
-464.128	39.607	-0.191	-0.172
-463.113	-68.384	-0.180	-0.070
-462.099	-200.000	0.050	-0.388
-461.084	-200.000	-0.004	0.313
-460.070	-26.817	0.050	-0.029
-459.055	-200.000	-0.009	-0.104
-458.040	-127.744	-0.027	0.004
-457.026	800.000	-0.115	0.344
-456.011	197.571	-0.042	0.064
-454.997	-200.000	-0.079	0.350
-453.982	-169.244	0.214	0.008
-452.968	800.000	0.018	0.054
-451.953	-71.616	0.098	-0.037
-450.938	84.244	0.179	-0.197
-449.924	639.116	0.140	-0.358
-448.909	-200.000	0.036	-0.192
-447.895	-125.348	0.432	-0.066
-446.880	800.000	0.025	-0.089
-445.865	-86.476	-0.119	-0.037
-444.851	-200.000	0.024	0.177
-443.836	224.916	-0.094	-0.153
-442.822	84.196	-0.148	0.162
-441.807	64.462	0.086	0.087
-440.792	248.547	0.107	0.183
-439.778	125.810	0.144	0.183
-438.763	38.129	0.183	-0.164
-437.749	-94.024	-0.433	-0.119
-436.734	170.281	-0.063	-0.091
-435.719	-156.002	0.239	-0.015
-434.705	72.092	-0.169	0.177
-433.690	-200.000	-0.013	0.252
-432.676	50.239	0.109	0.104
-431.661	38.356	0.020	-0.018
-430.646	-151.151	-0.227	0.017
-429.632	-129.768	0.269	-0.037
-428.617	-140.019	-0.009	0.001
-427.603	800.000	0.174	0.484
-426.588	800.000	0.034	0.148
-425.573	-133.077	0.093	0.012
-424.559	800.000	-0.073	0.228
-423.544	-189.199	-0.155	0.002
-422.530	599.949	0.073	-0.181
-421.515	-200.000	0.060	0.266
-420.500	117.062	-0.208	-0.257
-419.486	201.814	-0.155	-0.239
-418.471	-81.885	0.137	0.045
-417.457	800.000	0.130	-0.418
-416.442	-157.216	0.252	0.015
-415.428	25.865	-0.136	0.114
-414.413	-24.232	0.048	-0.028
-413.398	-9.850	-0.171	-0.114
-412.384	41.288	0.117	-0.106
-411.369	-200.000	0.002	0.044
-410.355	-87.683	0.317	-0.096
-409.340	-200.000	-0.028	0.381
-408.325	117.876	-0.138	0.170
-407.311	-59.567	-0.376	0.162
-406.296	-112.775	-0.098	-0.020
-405.282	-41.042	-0.088	-0.046
-404.267	-200.000	-0.019	-0.094
-403.252	-98.498	0.135	0.035
-402.238	13.650	0.296	-0.231
-401.223	223.437	0.193	0.312
-400.209	60.544	-0.141	0.140
-399.194	-66.347	-0.233	0.093
-398.179	-98.780	-0.195	-0.050
-397.165	37.609	-0.327	0.291
-396.150	-138.597	0.452	0.050
-395.136	-200.000	-0.005	-0.232
-394.121	-84.648	0.308	-0.097
-393.106	-24.781	-0.311	0.185
-392.092	195.415	-0.186	0.283
-391.077	-200.000	0.076	-0.355
-390.063	-64.321	-0.202	0.082
-389.048	-200.000	-0.014	-0.260
-388.033	-200.000	0.035	-0.222
-387.019	800.000	0.059	-0.226
-386.004	800.000	0.025	-0.090
-384.990	702.328	-0.066	-0.175
-383.975	-129.105	-0.256	-0.036
-382.960	-27.881	-0.331	0.192
-381.946	-86.984	-0.082	0.025
-380.931	730.094	-0.081	0.218
-379.917	-200.000	-0.021	0.432
-378.902	162.322	0.107	-0.150
-377.888	-123.292	0.269	-0.043
-376.873	-200.000	-0.032	-0.197
-375.858	-200.000	0.026	-0.361
-374.844	-146.735	0.271	0.024
-373.829	-151.346	0.134	0.010
-372.815	354.861	-0.169	0.336
-371.800	26.750	0.131	0.110
-370.785	69.041	0.197	-0.203
-369.771	-95.882	-0.070	-0.019
-368.756	-75.467	0.328	0.117
-367.742	-135.057	-0.129	0.016
-366.727	292.869	-0.025	-0.046
-365.712	745.882	-0.127	0.341
-364.698	-82.804	-0.128	0.041
-363.683	42.861	0.151	0.138
-362.669	-200.000	-0.052	-0.254
-361.654	-170.604	0.328	-0.011
-360.639	-156.112	0.243	-0.015
-359.625	800.000	-0.022	0.066
-358.610	2.909	0.121	-0.088
-357.596	800.000	0.105	0.321
-356.581	-158.136	-0.148	-0.009
-355.566	-200.000	-0.100	-0.481
-354.552	-200.000	0.005	0.037
-353.537	-94.742	-0.130	0.035
-352.523	-200.000	-0.014	0.091
-351.508	-200.000	0.065	-0.297
-350.493	57.611	0.164	0.160
-349.479	-112.473	0.074	-0.015
-348.464	-137.307	-0.549	-0.062
-347.450	132.919	0.224	0.289
-346.435	-70.220	-0.193	-0.074
-345.420	-138.544	0.218	0.024
-344.406	-137.589	0.209	0.024
-343.391	31.392	0.300	-0.258
-342.377	311.058	0.168	-0.314
-341.362	-200.000	-0.015	-0.161
-340.348	29.801	-0.130	-0.111
-339.333	303.457	0.074	0.138
-338.318	57.752	0.172	-0.168
-337.304	101.676	-0.170	-0.199
-336.289	-50.471	0.163	-0.077
-335.275	-200.000	-0.000	-0.041
-334.260	-200.000	-0.018	0.096
-333.245	-108.035	-0.100	-0.022
-332.231	-163.591	0.256	0.012
-331.216	-112.616	-0.131	0.026
-330.202	271.055	0.033	0.058
-329.187	-117.716	0.433	-0.078
-328.172	-93.648	0.257	0.071
-327.158	-63.561	0.161	-0.066
-326.143	441.570	0.112	0.244
-325.129	-79.821	0.329	0.111
-324.114	-85.416	-0.407	-0.127
-323.099	24.170	-0.124	0.102
-322.085	-200.000	-0.064	0.349
-321.070	-133.122	-0.110	-0.014
-320.056	800.000	-0.122	-0.343
-319.041	-107.378	-0.536	-0.118
-318.026	111.202	0.203	0.244
-317.012	86.090	0.232	0.255
-315.997	-64.764	0.182	0.074
-314.983	-200.000	0.031	-0.194
-313.968	800.000	-0.012	-0.041
-312.953	-44.178	-0.045	-0.023
-311.939	17.193	-0.260	-0.206
-310.924	-200.000	0.043	0.221
-309.910	97.584	0.157	0.180
-308.895	388.874	-0.079	0.164
-307.880	148.579	-0.191	-0.258
-306.866	65.050	0.120	-0.121
-305.851	-145.711	-0.292	-0.026
-304.837	-108.468	0.230	0.049
-303.822	-200.000	-0.008	-0.066
-302.807	-200.000	-0.021	0.282
-301.793	-200.000	-0.034	0.228
-300.778	-52.743	0.075	0.035
-299.764	142.565	0.142	-0.189
-298.749	-102.650	-0.352	0.084
-297.735	-200.000	0.011	0.140
-296.720	69.004	0.232	0.238
-295.705	-103.422	0.258	-0.061
-294.691	800.000	0.059	0.170
-293.676	215.832	0.141	0.224
-292.662	496.045	-0.144	0.330
-291.647	135.835	-0.187	0.243
-290.632	800.000	0.126	0.464
-289.618	82.646	-0.139	-0.150
-288.603	-200.000	-0.026	0.217
-287.589	289.439	-0.083	0.150
-286.574	-200.000	-0.005	0.156
-285.559	32.413	-0.215	0.186
-284.545	800.000	-0.071	0.259
-283.530	-90.582	0.090	-0.026
-282.516	-17.503	0.159	0.100
-281.501	30.919	-0.106	0.090
-280.486	141.643	0.121	-0.161
-279.472	204.392	-0.102	0.157
-278.457	-200.000	-0.014	0.090
-277.443	335.065	0.041	-0.080
-276.428	81.925	-0.067	0.072
-275.413	58.399	0.154	-0.151
-274.399	-35.040	0.351	-0.191
-273.384	-94.076	-0.117	-0.032
-272.370	79.301	0.080	-0.086
-271.355	400.647	0.090	-0.188
-270.340	211.338	-0.154	-0.241
-269.326	-3.417	-0.255	-0.177
-268.311	800.000	-0.062	-0.248
-267.297	91.760	0.085	0.095
-266.282	-93.940	-0.141	0.039
-265.267	-198.485	-0.091	0.001
-264.253	-111.975	0.102	0.021
-263.238	-95.381	-0.102	0.027
-262.224	-131.409	-0.241	0.032
-261.209	309.813	0.101	0.188
-260.195	19.941	-0.040	0.032
-259.180	93.439	-0.098	0.111
-258.165	658.290	0.068	0.174
-257.151	-174.879	0.310	-0.009
-256.136	-157.176	-0.211	0.013
-255.122	-200.000	-0.031	0.422
-254.107	-129.561	0.178	0.025
-253.092	-200.000	-0.024	0.177
-252.078	-128.783	0.086	-0.012
-251.063	-95.259	0.536	0.144
-250.049	214.315	-0.094	0.148
-249.034	-18.423	-0.074	-0.046
-248.019	256.261	0.081	0.139
-247.005	-64.220	-0.117	-0.048
-245.990	-200.000	0.001	-0.082
-244.976	800.000	0.092	0.320
-243.961	-157.965	0.117	0.007
-242.946	-105.358	-0.278	-0.063
-241.932	-134.447	0.267	-0.033
-240.917	-148.793	0.275	-0.022
-239.903	72.258	0.045	-0.047
-238.888	-46.438	0.162	-0.079
-237.873	214.242	0.071	-0.112
-236.859	87.448	0.038	-0.041
-235.844	184.321	-0.015	0.021
-234.830	32.706	0.165	-0.143
-233.815	-200.000	0.058	-0.319
-232.800	-59.115	-0.136	0.058
-231.786	-200.000	-0.024	-0.218
-230.771	30.561	0.289	0.246
-229.757	421.541	-0.154	-0.328
-228.742	-6.711	-0.158	-0.107
-227.727	3.660	-0.129	-0.094
-226.713	106.167	0.171	-0.202
-225.698	-76.412	0.268	-0.094
-224.684	60.491	-0.182	0.179
-223.669	800.000	-0.089	-0.286
-222.655	-70.749	-0.173	0.065
-221.640	-21.825	0.072	-0.044
-220.625	402.888	0.047	-0.097
-219.611	714.963	0.084	-0.222
-218.596	-95.663	0.256	0.068
-217.582	-200.000	0.017	-0.216
-216.567	-200.000	-0.031	0.197
-215.552	-200.000	0.007	-0.184
-214.538	-138.877	-0.176	-0.019
-213.523	124.098	0.144	-0.179
-212.509	-135.025	-0.129	-0.016
-211.494	-120.668	0.173	0.029
-210.479	-71.933	-0.180	-0.067
-209.465	-200.000	-0.010	-0.065
-208.450	-89.937	0.252	0.073
-207.436	71.967	-0.059	-0.061
-206.421	-200.000	-0.044	0.221
-205.406	298.431	-0.068	0.125
-204.392	-110.287	0.328	-0.068
-203.377	123.630	-0.151	-0.188
-202.363	518.939	-0.110	-0.256
-201.348	-17.699	0.140	0.087
-200.333	-105.769	0.216	-0.049
-199.319	88.143	0.148	-0.163
-198.304	300.197	-0.091	0.167
-197.290	97.418	-0.167	-0.190
-196.275	124.004	-0.118	0.148
-195.260	290.166	0.055	0.100
-194.246	335.992	-0.149	0.288
-193.231	15.595	0.183	0.143
-192.217	-60.359	0.236	-0.100
-191.202	800.000	-0.017	0.065
-190.187	29.663	0.358	-0.303
-189.173	211.377	-0.076	-0.119
-188.158	-103.354	-0.247	-0.058
-187.144	-23.403	0.127	-0.076
-186.129	-19.240	-0.343	0.211
-185.114	-200.000	0.009	0.126
-184.100	425.598	0.140	0.299
-183.085	-178.347	0.110	0.003
-182.071	-136.606	0.197	0.023
-181.056	156.406	-0.085	-0.116
-180.042	-118.826	-0.347	-0.061
-179.027	-126.493	0.169	0.025
-178.012	800.000	-0.046	-0.188
-176.998	-200.000	-0.078	0.460
-175.983	-200.000	-0.004	-0.110
-174.969	118.042	0.214	0.262
-173.954	-139.875	-0.204	0.021
-172.939	182.493	0.190	0.279
-171.925	-179.045	-0.222	0.005
-170.910	199.113	0.088	-0.133
-169.896	271.979	0.160	-0.280
-168.881	650.386	-0.054	-0.136
-167.866	-117.291	0.181	-0.033
-166.852	-41.703	0.154	0.079
-165.837	-73.045	-0.123	0.045
-164.823	-142.080	-0.180	-0.018
-163.808	-76.153	0.083	0.029
-162.793	135.395	0.096	0.125
-161.779	78.059	-0.107	0.113
-160.764	290.616	0.167	0.301
-159.750	16.061	0.076	0.060
-158.735	-34.622	-0.185	0.101
-157.720	-103.397	0.099	0.023
-156.706	28.200	-0.272	-0.228
-155.691	-200.000	-0.008	0.173
-154.677	19.565	0.146	0.117
-153.662	800.000	-0.038	-0.139
-152.647	800.000	0.055	0.208
-151.633	319.649	0.130	-0.244
-150.618	-125.377	-0.150	0.023
-149.604	-200.000	-0.012	0.180
-148.589	800.000	0.049	0.201
-147.574	-200.000	0.027	-0.339
-146.560	-51.306	0.268	0.125
-145.545	-65.549	-0.308	0.123
-144.531	-36.382	0.253	-0.136
-143.516	623.148	-0.080	-0.201
-142.502	-200.000	-0.046	0.305
-141.487	320.587	-0.119	0.224
-140.472	-119.486	0.204	-0.035
-139.458	-14.944	0.156	-0.099
-138.443	-200.000	-0.001	-0.009
-137.429	-126.802	0.100	-0.015
-136.414	-200.000	0.004	0.303
-135.399	309.403	0.110	-0.204
-134.385	2.133	0.139	0.100
-133.370	10.586	0.112	0.085
-132.356	-200.000	0.040	-0.302
-131.341	29.584	-0.040	0.034
-130.326	-135.576	-0.104	-0.012
-129.312	220.179	0.253	-0.402
-128.297	-100.119	0.438	-0.108
-127.283	259.515	-0.086	0.148
-126.268	-200.000	-0.032	0.184
-125.253	175.156	-0.072	-0.104
-124.239	-60.978	0.200	-0.084
-123.224	-200.000	-0.008	-0.097
-122.210	82.589	0.188	0.203
-121.195	222.728	-0.031	-0.049
-120.180	84.387	0.106	-0.115
-119.166	-92.698	-0.029	0.008
-118.151	-38.395	0.269	0.141
-117.137	-66.665	0.293	0.115
-116.122	453.844	-0.090	-0.199
-115.107	282.517	-0.035	0.063
-114.093	157.348	0.033	0.045
-113.078	19.443	-0.197	-0.157
-112.064	-88.219	-0.210	0.062
-111.049	-19.794	0.025	0.016
-110.034	106.417	0.129	-0.152
-109.020	33.421	-0.094	0.081
-108.005	347.860	-0.076	-0.148
-106.991	-200.000	-0.047	0.294
-105.976	-127.335	0.260	-0.038
-104.962	10.406	-0.253	0.191
-103.947	11.996	0.269	0.205
-102.932	-115.432	0.216	-0.040
-101.918	-139.010	-0.205	-0.022
-100.903	-200.000	-0.002	0.166
-99.889	-117.667	0.249	-0.044
-98.874	-186.331	0.482	0.007
-97.859	-200.000	-0.024	0.188
-96.845	-147.119	-0.234	0.020
-95.830	-127.417	-0.221	0.032
-94.816	33.068	-0.097	0.083
-93.801	18.838	0.262	-0.208
-92.786	-112.112	0.309	-0.062
-91.772	-97.719	0.266	-0.068
-90.757	5.773	-0.349	-0.255
-89.743	-189.358	0.099	-0.001
-88.728	62.229	-0.180	-0.178
-87.713	-43.432	0.179	0.089
-86.699	-97.667	0.141	0.036
-85.684	-80.130	0.261	0.087
-84.670	35.602	-0.235	-0.204
-83.655	149.708	-0.138	0.185
-82.640	-72.759	-0.208	0.076
-81.626	-176.670	0.048	0.001
-80.611	-82.376	0.243	0.078
-79.597	40.483	0.331	-0.295
-78.582	151.678	-0.182	0.245
-77.567	-200.000	-0.008	-0.077
-76.553	-200.000	-0.047	-0.406
-75.538	164.544	-0.102	0.142
-74.524	-56.058	-0.455	-0.201
-73.509	-76.816	0.196	-0.068
-72.494	20.486	0.219	0.175
-71.480	188.825	-0.327	0.485
-70.465	0.722	-0.179	-0.127
-69.451	-6.621	0.136	0.092
-68.436	-200.000	-0.006	0.084
-67.422	54.205	0.172	0.164
-66.407	55.274	-0.291	-0.278
-65.392	90.841	0.273	0.302
-64.378	172.524	0.230	-0.328
-63.363	-200.000	0.011	0.064
-62.349	-102.117	0.261	-0.062
-61.334	-8.322	-0.929	-0.618
-60.319	-98.154	0.448	0.114
-59.305	367.500	-0.569	-1.137
-58.290	27.716	0.719	0.599
-57.276	129.188	0.979	1.237
-56.261	-200.000	95.547	554.365
-55.246	513.188	1411.767	3255.885
-54.232	143.045	2654.511	3492.497
-53.217	110.089	2253.359	2675.704
-52.203	44.705	1775.004	1614.793
-51.188	37.327	1582.443	1387.128
-50.173	34.966	1554.517	1346.011
-49.159	52.788	1604.135	1516.775
-48.144	55.915	1623.746	1557.625
-47.130	37.816	1578.588	1387.012
-46.115	34.535	1562.817	1349.932
-45.100	34.367	1559.783	1346.071
-44.086	34.422	1557.934	1344.809
-43.071	34.266	1555.803	1341.816
-42.057	34.213	1554.447	1340.224
-41.042	34.311	1552.780	1339.420
-40.027	34.320	1551.806	1338.589
-39.013	34.232	1550.405	1336.709
-37.998	34.327	1549.128	1336.221
-36.984	34.334	1547.669	1334.962
-35.969	34.362	1545.854	1333.536
-34.954	34.344	1544.757	1332.417
-33.940	34.274	1543.390	1330.694
-32.925	34.335	1541.793	1329.687
-31.911	34.442	1540.325	1329.118
-30.896	34.343	1538.957	1327.193
-29.881	34.423	1537.160	1326.145
-28.867	34.425	1535.715	1324.862
-27.852	34.369	1535.202	1323.976
-26.838	34.388	1533.544	1322.625
-25.823	34.375	1531.714	1320.908
-24.809	34.401	1529.967	1319.527
-23.794	34.438	1528.516	1318.482
-22.779	34.344	1527.703	1317.074
-21.765	34.407	1526.587	1316.497
-20.750	34.355	1525.449	1315.103
-19.736	34.396	1523.900	1313.997
-18.721	34.286	1523.487	1312.833
-17.706	34.346	1521.913	1311.835
-16.692	34.281	1521.319	1310.827
-15.677	34.318	1520.186	1310.049
-14.663	34.283	1519.013	1308.750
-13.648	34.226	1518.517	1307.874
-12.633	34.257	1516.831	1306.588
-11.619	34.306	1516.401	1306.499
-10.604	34.297	1515.247	1305.389
-9.590	34.293	1514.136	1304.356
-8.575	34.315	1513.257	1303.696
-7.560	34.249	1512.882	1302.873
-6.546	34.277	1511.596	1301.904
-5.531	34.345	1510.508	1301.382
-4.517	34.284	1509.552	1300.091
-3.502	34.331	1508.174	1299.170
-2.487	34.177	1507.841	1297.780
-1.473	34.253	1506.384	1296.992
-0.458	34.287	1505.549	1296.452
0.556	34.224	1496.606	1288.918
1.571	32.012	1470.384	1251.490
2.586	28.187	1405.200	1171.476
3.600	25.636	1316.259	1081.909
4.615	23.399	1267.670	1028.907
5.629	19.510	1208.519	959.243
6.644	9.981	1118.009	838.109
7.659	2.445	1074.076	767.426
8.673	1.272	1068.306	757.387
9.688	1.165	1065.091	754.506
10.702	1.100	1063.708	753.137
11.717	1.083	1062.044	751.809
12.731	3.292	1064.656	764.566
13.746	10.908	1074.566	809.659
14.761	16.539	1081.691	843.105
15.775	17.739	1081.701	849.014
16.790	17.243	1080.650	845.646
17.804	16.447	1077.949	839.505
18.819	15.424	1076.654	833.345
19.834	14.979	1075.239	829.969
20.848	14.779	1073.743	827.749
21.863	14.361	1073.372	825.321
22.877	14.189	1072.501	823.725
23.892	13.876	1071.453	821.302
24.907	13.769	1070.664	820.095
25.921	13.791	1070.307	819.856
26.936	13.777	1069.336	818.973
27.950	13.944	1068.401	819.006
28.965	13.911	1067.968	818.439
29.980	13.914	1067.171	817.772
30.994	14.019	1065.963	817.290
32.009	14.057	1065.079	816.728
33.023	14.052	1064.653	816.301
34.038	14.121	1063.527	815.707
35.053	14.056	1062.730	814.706
36.067	13.926	1061.960	813.406
37.082	13.976	1061.035	812.871
38.096	13.980	1060.041	812.053
39.111	14.000	1059.286	811.504
40.126	13.944	1058.142	810.282
41.140	13.988	1057.253	809.745
42.155	13.910	1056.563	808.763
43.169	13.731	1056.312	807.630
44.184	13.825	1054.243	806.431
45.199	13.874	1053.426	805.972
46.213	13.841	1052.295	804.874
47.228	13.924	1050.843	804.096
48.242	13.971	1050.232	803.784
49.257	13.849	1049.023	802.199
50.271	13.858	1048.131	801.487
51.286	13.912	1047.558	801.241
52.301	13.887	1046.566	800.291
53.315	13.973	1045.540	799.850
54.330	13.905	1044.899	798.961
55.344	13.880	1044.023	798.098
56.359	13.903	1043.305	797.590
57.374	13.817	1042.302	796.342
58.388	13.908	1041.460	796.066
59.403	13.903	1040.309	795.089
60.417	13.816	1040.169	794.495
61.432	13.776	1039.517	793.735
62.447	13.793	1038.239	792.773
63.461	13.814	1037.619	792.326
64.476	13.854	1036.453	791.561
65.490	13.804	1035.779	790.738
66.505	13.778	1034.905	789.873
67.520	13.664	1034.022	788.587
68.534	13.860	1033.056	788.711
69.549	13.835	1032.685	788.243
70.563	13.802	1031.802	787.343
71.578	13.880	1031.234	787.210
72.593	13.771	1030.385	785.974
73.607	13.743	1029.307	784.950
74.622	13.757	1028.225	784.122
75.636	13.887	1027.280	783.943
76.651	13.755	1026.570	782.713
77.666	13.742	1025.718	781.932
78.680	13.659	1025.279	781.137
79.695	13.728	1024.446	780.757
80.709	13.690	1024.381	780.462
81.724	13.785	1023.180	779.920
82.739	13.798	1022.331	779.268
83.753	13.790	1021.536	778.556
84.768	13.937	1020.500	778.386
85.782	13.927	1020.219	778.056
86.797	13.964	1019.044	777.262
87.812	13.911	1018.592	776.600
88.826	13.953	1017.379	775.806
89.841	13.929	1016.317	774.817
90.855	13.889	1015.761	774.136
91.870	14.041	1014.989	774.186
92.884	13.934	1014.292	773.088
93.899	14.034	1013.310	772.736
94.914	13.993	1012.742	772.043
95.928	14.131	1011.696	771.821
96.943	14.247	1011.103	771.835
97.957	14.105	1010.488	770.642
98.972	14.029	1009.429	769.415
99.987	14.058	1008.876	769.058
101.001	14.137	1007.838	768.565
102.016	14.009	1007.309	767.499
103.030	14.047	1006.299	766.836
104.045	13.912	1005.391	765.458
105.060	13.983	1004.362	764.932
106.074	13.981	1003.455	764.164
107.089	14.025	1002.267	763.395
108.103	13.920	1001.813	762.497
109.118	13.936	1000.691	761.653
110.133	13.886	999.949	760.792
111.147	13.874	999.094	760.018
112.162	13.935	998.415	759.712
113.176	13.934	997.617	759.031
114.191	13.825	996.688	757.762
115.206	13.976	995.507	757.488
116.220	13.800	994.976	756.213
117.235	13.845	994.204	755.763
118.249	13.993	993.089	755.522
119.264	13.800	992.480	754.115
120.279	13.852	991.474	753.517
121.293	14.021	990.234	753.277
122.308	13.900	989.894	752.406
123.322	13.843	988.956	751.367
124.337	13.917	988.184	751.046
125.352	13.947	987.129	750.314
126.366	13.989	985.889	749.495
127.381	13.890	984.710	748.087
128.395	13.814	983.806	746.992
129.410	13.803	983.100	746.339
130.424	13.930	981.891	745.924
131.439	13.873	980.882	744.837
132.454	13.885	980.297	744.384
133.468	13.969	979.542	744.120
134.483	14.014	978.839	743.720
135.497	13.947	978.358	742.991
136.512	13.949	977.849	742.546
137.527	13.894	976.768	741.416
138.541	13.946	975.772	740.826
139.556	14.058	974.773	740.498
140.570	13.887	974.456	739.433
141.585	14.025	973.270	739.081
142.600	14.084	972.230	738.487
143.614	14.067	971.865	738.068
144.629	14.080	971.011	737.412
145.643	14.159	969.811	736.788
146.658	14.085	969.522	736.173
147.673	14.244	968.345	735.917
148.687	14.098	967.900	734.870
149.702	14.008	966.888	733.637
150.716	14.078	965.834	733.081
151.731	14.018	965.240	732.305
152.746	14.138	964.172	731.957
153.760	14.000	963.484	730.764
154.775	13.973	963.130	730.309
155.789	14.030	962.501	730.021
156.804	14.042	961.435	729.200
157.819	14.220	960.562	729.250
158.833	14.231	960.040	728.841
159.848	14.102	959.453	727.765
160.862	14.202	958.354	727.302
161.877	14.185	957.744	726.704
162.892	14.273	956.704	726.233
163.906	14.092	956.272	725.053
164.921	14.129	955.358	724.455
165.935	14.119	954.223	723.488
166.950	14.158	953.296	722.890
167.964	14.295	952.562	722.862
168.979	14.212	951.399	721.556
169.994	14.290	950.275	720.978
171.008	14.211	949.656	720.106
172.023	14.188	949.034	719.469
173.037	14.133	948.437	718.714
174.052	14.318	947.491	718.734
175.067	14.287	946.697	717.932
176.081	14.342	946.190	717.723
177.096	14.335	945.182	716.866
178.110	14.263	944.315	715.832
179.125	14.290	943.858	715.539
180.140	14.360	942.853	715.014
181.154	14.262	942.228	714.058
182.169	14.317	941.534	713.702
183.183	14.393	940.515	713.195
184.198	14.395	940.031	712.773
185.213	14.353	939.422	712.068
186.227	14.415	938.638	711.676
187.242	14.365	938.345	711.179
188.256	14.486	937.178	710.746
189.271	14.500	936.353	710.117
190.286	14.517	935.611	709.562
191.300	14.430	934.934	708.619
192.315	14.399	934.327	707.964
193.329	14.349	933.940	707.394
194.344	14.387	933.532	707.184
195.359	14.413	932.463	706.420
196.373	14.470	932.088	706.317
197.388	14.593	931.464	706.302
198.402	14.683	930.263	705.709
199.417	14.545	930.592	705.313
200.432	14.611	929.963	705.052
201.446	14.583	929.780	704.735
202.461	14.818	928.663	704.816
203.475	14.721	928.467	704.197
204.490	14.839	927.571	703.953
205.504	14.656	927.305	702.918
206.519	14.595	926.035	701.636
207.534	14.763	925.031	701.516
208.548	14.721	924.253	700.691
209.563	14.676	923.745	700.053
210.577	14.724	922.895	699.550
211.592	14.798	922.011	699.125
212.607	14.703	922.189	698.803
213.621	14.882	921.267	698.788
214.636	14.720	920.724	697.640
215.650	14.723	920.398	697.344
216.665	14.867	919.559	697.245
217.680	14.920	918.993	696.975
218.694	14.967	918.593	696.807
219.709	15.002	917.364	695.959
220.723	14.870	917.380	695.359
221.738	14.825	916.802	694.674
222.753	14.857	916.164	694.259
223.767	14.888	915.309	693.680
224.782	15.004	914.222	693.275
225.796	15.033	913.204	692.562
226.811	15.061	912.825	692.331
227.826	14.945	912.433	691.493
228.840	14.970	911.626	690.922
229.855	14.998	911.159	690.624
230.869	15.103	910.003	690.120
231.884	15.107	909.491	689.687
232.899	15.052	908.656	688.767
233.913	15.103	907.872	688.319
234.928	15.018	907.517	687.640
235.942	15.057	906.804	687.201
236.957	14.950	906.111	686.175
237.972	15.020	905.248	685.745
238.986	15.047	904.549	685.266
240.001	15.006	904.033	684.647
241.015	15.191	903.238	684.741
242.030	15.104	902.584	683.831
243.045	15.034	902.037	683.068
244.059	15.101	901.375	682.782
245.074	15.231	900.610	682.669
246.088	15.129	900.163	681.856
247.103	15.189	899.535	681.562
248.117	15.241	899.136	681.413
249.132	15.339	898.121	680.980
250.147	15.305	897.812	680.548
251.161	15.359	896.754	679.907
252.176	15.380	896.446	679.696
253.190	15.411	895.570	679.097
254.205	15.469	895.056	678.884
255.220	15.514	894.247	678.389
256.234	15.536	893.675	677.987
257.249	15.476	893.203	677.326
258.263	15.569	892.616	677.195
259.278	15.472	892.467	676.632
260.293	15.541	891.642	676.223
261.307	15.508	890.920	675.485
262.322	15.635	890.141	675.342
263.336	15.541	889.802	674.651
264.351	15.537	889.261	674.163
265.366	15.763	888.349	674.317
266.380	15.725	887.827	673.711
267.395	15.829	886.978	673.421
268.409	15.843	886.289	672.895
269.424	15.712	885.699	671.866
270.439	15.778	884.645	671.269
271.453	15.612	884.410	670.368
272.468	15.666	883.512	669.843
273.482	15.707	882.990	669.554
274.497	15.775	882.628	669.489
275.512	15.845	881.440	668.809
276.526	15.824	880.838	668.208
277.541	15.788	880.559	667.793
278.555	15.885	879.796	667.541
279.570	15.885	879.095	666.950
280.585	15.870	878.555	666.423
281.599	15.862	878.013	665.921
282.614	15.925	877.328	665.593
283.628	15.783	876.944	664.679
284.643	16.018	876.449	665.172
285.657	16.098	875.689	664.852
286.672	16.062	875.006	664.135
287.687	15.953	874.712	663.423
288.701	16.002	874.634	663.499
289.716	16.044	873.929	663.070
290.730	16.112	873.147	662.686
291.745	16.177	871.974	661.990
292.760	16.092	871.718	661.403
293.774	16.082	871.061	660.809
294.789	16.097	870.512	660.391
295.803	16.160	869.791	660.033
296.818	16.321	868.991	659.996
297.833	16.091	868.199	658.441
298.847	16.256	867.382	658.404
299.862	16.082	867.128	657.475
300.876	16.051	866.437	656.773
301.891	16.224	865.562	656.725
302.906	16.281	865.162	656.584
303.920	16.272	864.316	655.851
304.935	16.213	863.975	655.305
305.949	16.306	863.277	655.079
306.964	16.384	862.535	654.760
307.979	16.340	861.945	654.084
308.993	16.435	861.334	653.928
310.008	16.538	860.863	653.910
311.022	16.339	860.117	652.518
312.037	16.395	859.635	652.310
313.052	16.318	859.411	651.785
314.066	16.430	858.505	651.474
315.081	16.361	858.174	650.899
316.095	16.421	857.299	650.407
317.110	16.420	856.418	649.677
318.125	16.469	856.426	649.815
319.139	16.395	855.896	649.070
320.154	16.519	855.253	649.003
321.168	16.457	854.750	648.326
322.183	16.544	854.096	648.107
323.197	16.596	853.268	647.617
324.212	16.421	853.123	646.780
325.227	16.510	852.479	646.576
326.241	16.464	852.119	646.069
327.256	16.532	851.533	645.830
328.270	16.582	850.679	645.313
329.285	16.580	850.192	644.880
330.300	16.527	849.346	643.981
331.314	16.651	848.845	644.014
332.329	16.659	848.041	643.379
333.343	16.785	847.226	643.181
334.358	16.619	847.257	642.518
335.373	16.828	846.293	642.523
336.387	16.733	845.894	641.802
337.402	16.614	845.759	641.193
338.416	16.620	845.279	640.795
339.431	16.696	844.483	640.422
340.446	16.836	844.055	640.571
341.460	16.821	843.367	639.935
342.475	16.819	842.871	639.493
343.489	16.845	842.152	638.989
344.504	16.956	841.456	638.821
345.519	17.045	841.000	638.758
346.533	17.134	840.349	638.538
347.548	16.979	840.172	637.765
348.562	16.977	839.317	637.052
349.577	16.954	838.986	636.659
350.592	16.778	838.923	635.896
351.606	16.871	838.039	635.516
352.621	16.935	837.501	635.293
353.635	16.914	837.005	634.780
354.650	16.949	836.548	634.508
355.665	17.053	836.144	634.535
356.679	17.202	835.532	634.570
357.694	17.017	835.340	633.678
358.708	17.070	834.893	633.483
359.723	17.019	834.233	632.735
360.738	16.945	833.565	631.896
361.752	17.051	833.083	631.870
362.767	17.034	832.729	631.480
363.781	17.076	832.511	631.418
364.796	17.065	831.882	630.842
365.810	17.242	830.977	630.758
366.825	17.292	830.580	630.584
367.840	17.292	830.733	630.645
368.854	17.163	830.230	629.731
369.869	17.200	829.816	629.496
370.883	17.366	828.844	629.319
371.898	17.291	828.411	628.659
372.913	17.325	827.541	628.067
373.927	17.262	827.384	627.659
374.942	17.423	826.619	627.618
375.956	17.337	825.822	626.640
376.971	17.487	825.270	626.717
377.986	17.384	824.867	625.976
379.000	17.621	824.256	626.331
380.015	17.459	823.817	625.346
381.029	17.391	823.327	624.668
382.044	17.433	822.800	624.368
383.059	17.535	822.296	624.302
384.073	17.539	821.539	623.687
385.088	17.551	821.151	623.382
386.102	17.491	820.812	622.851
387.117	17.658	820.051	622.828
388.132	17.596	819.646	622.237
389.146	17.481	819.435	621.604
390.161	17.420	819.250	621.187
391.175	17.625	818.258	621.127
392.190	17.693	818.060	621.170
393.205	17.735	817.475	620.822
394.219	17.701	817.237	620.461
395.234	17.519	816.813	619.423
396.248	17.533	815.911	618.736
397.263	17.623	815.436	618.650
398.278	17.668	815.012	618.433
399.292	17.617	814.806	618.037
400.307	17.712	814.325	617.965
401.321	17.626	813.924	617.294
402.336	17.685	813.480	617.115
403.350	17.686	813.276	616.911
404.365	17.659	812.660	616.290
405.380	17.749	811.965	616.033
406.394	17.733	811.909	615.880
407.409	17.892	811.041	615.741
408.423	17.899	810.784	615.516
409.438	17.806	810.568	614.960
410.453	17.820	810.162	614.649
411.467	17.811	809.803	614.290
412.482	17.984	808.758	614.065
413.496	17.906	808.439	613.487
414.511	18.144	807.743	613.759
415.526	17.992	807.613	613.063
416.540	17.939	807.453	612.697
417.555	18.054	807.039	612.738
418.569	18.041	806.417	612.168
419.584	18.085	806.115	612.040
420.599	18.208	805.295	611.803
421.613	105.456	1284.229	1444.481
422.628	90.809	1354.005	1444.592
