DTS Sentinel unit serial number:	SN413079Multiplexer serial number:	ORYXHardware model number:	OX4-SRSoftware version number:	ORYX F/W v4.00 Oryx Data Collector v3.7.2.0data status	okinstallation	princeton_trtdifferential loss correction	single-endedforward channel	channel 3reverse channel	N/Adate	2019/09/16time	16:44:35forward acquisition time	60.00reverse acquisition time	0.00gamma	496.2192k internal	0.2295k external	0.2295temperature offset calibration	0.9946default loss term (dB/km)	0.3790temperature slope calibration	1.0000multiplexer offset coefficient	1.0000multiplexer slope coefficient	1.0000fibre end	0.00T internal ref (°C)	39.75T ext. ref 1 (°C)	15.18T ext. ref 2 (°C)	33.87length (m)	temperature (°C)	Stokes	anti-Stokes-747.200	-5.250	0.099	-0.070
-746.185	617.499	0.090	0.231
-745.171	-188.152	0.245	-0.003
-744.156	9.969	-0.273	0.212
-743.142	-88.533	0.173	0.053
-742.127	118.062	-0.158	-0.199
-741.112	-200.000	-0.029	-0.135
-740.098	-131.925	0.219	0.029
-739.083	-48.529	0.247	0.121
-738.069	-200.000	-0.022	0.110
-737.054	-161.061	0.332	0.018
-736.039	40.105	-0.296	-0.272
-735.025	8.839	-0.091	0.070
-734.010	107.441	-0.029	0.035
-732.996	800.000	0.095	-0.373
-731.981	564.270	-0.079	0.195
-730.966	-34.987	-0.358	-0.199
-729.952	-98.621	-0.182	0.047
-728.937	-200.000	-0.075	-0.469
-727.923	-7.975	0.232	-0.160
-726.908	-200.000	-0.018	-0.182
-725.894	27.002	-0.174	0.149
-724.879	800.000	0.178	0.538
-723.864	-200.000	-0.023	-0.128
-722.850	-200.000	0.003	0.075
-721.835	-42.800	0.251	0.130
-720.821	30.982	0.279	0.244
-719.806	-147.415	0.304	-0.026
-718.791	59.770	-0.063	-0.063
-717.777	337.757	0.043	-0.086
-716.762	468.386	0.115	-0.263
-715.748	-119.726	-0.175	-0.031
-714.733	531.580	-0.058	0.141
-713.718	2.680	0.165	-0.122
-712.704	-107.542	-0.286	-0.064
-711.689	-21.568	0.342	-0.213
-710.675	-134.026	0.145	-0.018
-709.660	-200.000	-0.221	0.001
-708.645	-200.000	0.015	-0.317
-707.631	-92.094	-0.305	-0.088
-706.616	-80.508	-0.181	-0.062
-705.602	-113.729	-0.292	-0.058
-704.587	-123.499	0.426	-0.069
-703.572	-24.215	0.202	0.123
-702.558	-24.746	0.192	-0.116
-701.543	-200.000	-0.066	-0.295
-700.529	-45.228	0.133	-0.068
-699.514	800.000	0.102	0.324
-698.499	-152.484	0.222	0.016
-697.485	-120.418	0.150	0.026
-696.470	-167.726	0.120	-0.005
-695.456	63.057	0.079	0.081
-694.441	-7.092	-0.205	0.142
-693.426	354.461	0.133	0.269
-692.412	455.418	-0.053	0.119
-691.397	-129.139	0.090	-0.013
-690.383	-155.413	-0.082	-0.005
-689.368	-53.929	-0.375	0.174
-688.354	-200.000	0.001	0.193
-687.339	800.000	0.063	-0.273
-686.324	-59.725	-0.097	-0.042
-685.310	-112.885	0.183	0.037
-684.295	-18.404	0.217	0.138
-683.281	-200.000	-0.036	0.306
-682.266	-112.213	0.146	-0.030
-681.251	71.699	0.050	-0.053
-680.237	93.628	-0.223	-0.257
-679.222	155.989	-0.099	-0.139
-678.208	-200.000	-0.050	0.278
-677.193	-200.000	0.013	-0.091
-676.178	28.492	-0.213	-0.183
-675.164	310.674	0.124	-0.238
-674.149	-71.279	-0.228	-0.087
-673.135	-145.984	-0.158	-0.014
-672.120	-82.617	-0.335	0.111
-671.105	38.176	-0.213	0.193
-670.091	-60.972	0.364	0.157
-669.076	367.087	-0.138	0.284
-668.062	-200.000	-0.010	0.217
-667.047	-62.372	-0.365	0.155
-666.032	111.307	-0.294	-0.362
-665.018	32.803	-0.038	-0.034
-664.003	-200.000	-0.045	0.250
-662.989	-200.000	0.022	-0.134
-661.974	71.350	-0.055	-0.058
-660.959	-60.673	0.259	0.112
-659.945	-144.479	0.138	0.013
-658.930	96.051	-0.078	-0.091
-657.916	800.000	0.054	-0.151
-656.901	-197.804	-0.223	-0.001
-655.886	-131.246	-0.321	0.043
-654.872	34.909	0.216	-0.192
-653.857	800.000	-0.067	-0.252
-652.843	-46.408	0.123	0.061
-651.828	-200.000	-0.020	-0.265
-650.814	-200.000	-0.004	-0.209
-649.799	-173.735	0.194	-0.006
-648.784	-200.000	-0.014	0.219
-647.770	-200.000	0.026	-0.254
-646.755	79.057	-0.121	-0.131
-645.741	-200.000	0.054	-0.384
-644.726	-200.000	0.007	-0.169
-643.711	-13.130	-0.196	-0.129
-642.697	240.080	0.206	0.349
-641.682	-40.876	-0.105	0.055
-640.668	-6.441	-0.127	-0.088
-639.653	51.105	-0.098	-0.094
-638.638	-200.000	0.077	-0.412
-637.624	199.349	-0.074	-0.116
-636.609	22.762	-0.144	-0.120
-635.595	-178.408	-0.267	-0.006
-634.580	-56.090	-0.211	0.095
-633.565	53.251	-0.254	0.248
-632.551	-69.273	0.237	0.093
-631.536	425.503	-0.130	-0.285
-630.522	501.271	-0.125	-0.293
-629.507	103.343	-0.095	0.113
-628.492	-18.343	0.094	0.060
-627.478	594.482	-0.004	-0.011
-626.463	-82.852	-0.189	-0.062
-625.449	-62.445	0.116	-0.049
-624.434	-200.000	-0.015	-0.356
-623.419	-102.026	-0.120	-0.029
-622.405	-200.000	-0.001	-0.035
-621.390	242.059	0.123	-0.209
-620.376	-59.518	-0.057	0.025
-619.361	-93.233	0.314	-0.089
-618.346	-200.000	0.326	0.001
-617.332	29.529	0.150	-0.130
-616.317	-200.000	-0.004	-0.303
-615.303	46.545	-0.060	-0.057
-614.288	-122.572	0.294	0.049
-613.273	-109.933	0.387	0.082
-612.259	-51.871	-0.053	-0.025
-611.244	-154.975	-0.230	-0.015
-610.230	-200.000	-0.024	-0.128
-609.215	608.366	0.006	-0.016
-608.201	324.262	0.097	-0.187
-607.186	-177.552	0.194	0.005
-606.171	800.000	0.058	-0.173
-605.157	142.674	-0.235	-0.317
-604.142	-35.047	0.257	0.142
-603.128	-200.000	0.020	-0.355
-602.113	60.669	-0.163	0.164
-601.098	-200.000	0.042	-0.474
-600.084	-60.152	0.289	-0.125
-599.069	116.277	-0.066	0.082
-598.055	5.819	0.068	0.051
-597.040	172.843	-0.059	0.086
-596.025	-200.000	0.011	-0.106
-595.011	-200.000	0.035	-0.284
-593.996	417.624	-0.031	0.068
-592.982	72.846	-0.169	0.179
-591.967	-12.358	0.172	0.114
-590.952	341.565	-0.188	-0.374
-589.938	531.855	0.022	0.053
-588.923	55.038	-0.301	0.296
-587.909	-92.445	-0.258	0.074
-586.894	800.000	-0.030	-0.092
-585.879	-178.738	0.126	0.003
-584.865	282.520	-0.213	0.388
-583.850	-200.000	0.026	-0.201
-582.836	800.000	-0.030	0.112
-581.821	-200.000	0.023	0.178
-580.806	-150.517	-0.331	-0.026
-579.792	439.435	-0.186	0.412
-578.777	-76.930	-0.118	-0.042
-577.763	-145.021	-0.336	-0.031
-576.748	-168.824	-0.060	-0.002
-575.733	80.111	-0.122	-0.133
-574.719	-92.826	-0.241	-0.068
-573.704	11.915	0.319	0.249
-572.690	-200.000	0.052	-0.238
-571.675	-186.691	0.200	-0.003
-570.661	18.469	-0.035	0.029
-569.646	-118.050	-0.070	-0.013
-568.631	-193.700	-0.249	0.002
-567.617	-200.000	-0.035	-0.535
-566.602	41.994	0.160	-0.148
-565.588	-75.540	-0.201	0.073
-564.573	379.480	-0.047	-0.098
-563.558	-200.000	-0.003	0.079
-562.544	441.089	-0.051	0.112
-561.529	-67.015	0.236	-0.095
-560.515	-200.000	-0.043	-0.207
-559.500	800.000	-0.022	0.084
-558.485	238.155	0.085	-0.143
-557.471	28.052	0.241	0.206
-556.456	-17.486	0.087	-0.056
-555.442	93.767	-0.069	-0.079
-554.427	800.000	0.044	-0.130
-553.412	-41.540	-0.269	-0.140
-552.398	264.721	-0.129	-0.227
-551.383	-200.000	0.013	-0.295
-550.369	-108.504	-0.126	0.027
-549.354	-99.724	-0.257	-0.065
-548.339	181.489	0.087	-0.130
-547.325	-66.338	0.177	0.072
-546.310	558.571	0.059	-0.144
-545.296	7.583	-0.206	0.156
-544.281	-134.962	0.278	0.034
-543.266	372.431	0.142	0.292
-542.252	484.825	-0.075	-0.172
-541.237	25.426	0.173	0.146
-540.223	-200.000	-0.079	0.379
-539.208	-83.166	0.303	-0.099
-538.193	-42.105	0.236	-0.122
-537.179	179.651	-0.014	0.021
-536.164	800.000	0.035	-0.139
-535.150	-200.000	-0.009	-0.070
-534.135	-200.000	0.054	0.438
-533.121	13.601	-0.283	0.223
-532.106	409.301	0.066	0.141
-531.091	-69.888	-0.119	0.046
-530.077	-200.000	0.026	0.181
-529.062	-33.830	-0.050	0.028
-528.048	-200.000	0.073	-0.379
-527.033	800.000	-0.068	-0.226
-526.018	-200.000	-0.071	0.387
-525.004	67.491	-0.163	0.169
-523.989	-57.953	-0.093	0.041
-522.975	33.103	0.135	0.118
-521.960	-12.498	0.234	0.155
-520.945	-180.892	-0.422	-0.009
-519.931	14.932	-0.218	0.173
-518.916	161.926	-0.224	-0.319
-517.902	-200.000	-0.018	0.153
-516.887	-200.000	-0.029	-0.312
-515.872	104.037	-0.065	-0.077
-514.858	-200.000	0.023	0.145
-513.843	-22.489	-0.047	0.029
-512.829	57.270	-0.279	-0.276
-511.814	-16.176	0.169	-0.109
-510.799	326.296	0.163	0.317
-509.785	-25.046	-0.254	0.152
-508.770	25.654	-0.236	0.199
-507.756	-200.000	-0.052	0.309
-506.741	-134.980	0.206	0.025
-505.726	-200.000	-0.026	0.256
-504.712	-43.018	0.400	0.206
-503.697	-54.880	0.163	-0.074
-502.683	800.000	-0.076	0.328
-501.668	-114.078	-0.323	-0.063
-500.653	-75.675	0.105	-0.038
-499.639	44.222	-0.171	-0.158
-498.624	800.000	-0.051	0.217
-497.610	-200.000	-0.019	0.543
-496.595	-200.000	0.008	-0.109
-495.581	-38.938	0.234	0.125
-494.566	-143.732	0.074	0.007
-493.551	66.896	0.159	-0.163
-492.537	92.823	-0.172	-0.196
-491.522	-2.605	-0.092	-0.065
-490.508	-6.561	0.243	-0.167
-489.493	432.241	0.114	-0.250
-488.478	-39.019	0.087	0.047
-487.464	-163.409	0.196	0.009
-486.449	-89.744	-0.176	0.052
-485.435	-82.246	0.251	0.083
-484.420	-200.000	-0.003	0.027
-483.405	540.820	-0.223	-0.536
-482.391	-200.000	-0.069	-0.428
-481.376	-200.000	0.027	-0.378
-480.362	-96.914	-0.066	-0.017
-479.347	49.949	-0.148	0.142
-478.332	-5.134	-0.101	0.070
-477.318	-104.579	-0.070	-0.016
-476.303	-60.740	-0.086	0.037
-475.289	-67.209	0.271	0.108
-474.274	-40.046	-0.157	0.083
-473.259	339.327	-0.184	0.362
-472.245	-142.161	-0.140	0.014
-471.230	-144.873	-0.185	0.017
-470.216	-60.560	0.146	-0.063
-469.201	13.333	-0.168	0.132
-468.186	-139.479	0.210	-0.023
-467.172	-36.856	0.329	-0.178
-466.157	-200.000	-0.022	-0.290
-465.143	130.415	0.127	-0.165
-464.128	800.000	0.114	0.334
-463.113	120.627	-0.053	-0.067
-462.099	148.987	-0.271	-0.371
-461.084	-200.000	0.031	-0.224
-460.070	-200.000	-0.032	-0.154
-459.055	-98.603	0.303	-0.078
-458.040	367.666	0.055	0.112
-457.026	268.428	-0.127	0.224
-456.011	-32.288	-0.276	-0.156
-454.997	-200.000	-0.005	0.148
-453.982	-44.287	0.175	-0.089
-452.968	-97.943	0.225	0.059
-451.953	123.094	-0.307	0.388
-450.938	-200.000	0.043	0.206
-449.924	-200.000	-0.047	0.278
-448.909	-200.000	-0.017	0.113
-447.895	-200.000	0.010	-0.334
-446.880	-141.052	-0.052	-0.005
-445.865	800.000	0.131	0.430
-444.851	-106.836	0.122	-0.027
-443.836	-107.163	-0.151	0.034
-442.822	-200.000	0.043	-0.226
-441.807	65.657	0.126	0.129
-440.792	0.009	0.044	-0.032
-439.778	-200.000	-0.027	0.190
-438.763	-42.007	0.413	-0.214
-437.749	-200.000	0.018	-0.229
-436.734	-63.444	0.121	0.050
-435.719	-200.000	-0.005	-0.052
-434.705	368.352	-0.079	0.161
-433.690	182.279	-0.144	0.215
-432.676	765.113	-0.087	0.238
-431.661	400.759	-0.059	0.125
-430.646	-36.339	0.162	-0.088
-429.632	-45.863	-0.349	0.174
-428.617	177.794	0.072	-0.106
-427.603	-140.260	-0.194	-0.021
-426.588	280.967	-0.038	0.069
-425.573	640.705	0.091	-0.234
-424.559	800.000	0.034	0.127
-423.544	-149.455	0.148	0.012
-422.530	-21.047	0.279	-0.173
-421.515	-200.000	0.039	-0.297
-420.500	-87.667	0.112	-0.034
-419.486	-200.000	-0.020	-0.279
-418.471	87.813	-0.084	0.094
-417.457	193.985	0.146	0.223
-416.442	7.603	-0.143	-0.108
-415.428	-21.093	-0.169	-0.104
-414.413	-40.457	0.216	0.113
-413.398	374.153	-0.104	-0.213
-412.384	549.370	-0.203	0.492
-411.369	-88.713	0.293	-0.088
-410.355	-12.267	0.107	-0.071
-409.340	-34.950	-0.080	-0.044
-408.325	59.642	0.160	0.160
-407.311	502.833	0.055	-0.127
-406.296	-44.316	-0.147	0.074
-405.282	-92.195	-0.151	-0.043
-404.267	53.683	0.155	-0.151
-403.252	42.805	-0.083	-0.077
-402.238	-200.000	0.009	0.086
-401.223	-200.000	-0.058	0.281
-400.209	-61.787	0.182	0.077
-399.194	800.000	0.089	0.259
-398.179	331.629	0.203	-0.394
-397.165	-104.769	0.405	-0.094
-396.150	41.512	0.082	-0.075
-395.136	73.640	0.207	0.219
-394.121	-34.926	0.266	0.146
-393.106	480.497	-0.011	0.025
-392.092	-200.000	-0.021	0.107
-391.077	689.712	-0.095	-0.251
-390.063	-200.000	-0.015	0.233
-389.048	154.653	-0.104	-0.143
-388.033	-116.164	0.086	-0.016
-387.019	-200.000	0.028	0.444
-386.004	74.042	-0.178	0.189
-384.990	-104.812	-0.099	-0.023
-383.975	-63.115	-0.262	-0.109
-382.960	232.616	0.102	-0.169
-381.946	37.981	0.058	0.052
-380.931	-76.655	-0.130	0.046
-379.917	-200.000	-0.011	-0.199
-378.902	7.758	-0.180	0.136
-377.888	-84.661	0.448	0.142
-376.873	86.123	-0.287	0.318
-375.858	24.065	0.077	0.064
-374.844	-154.674	-0.089	-0.006
-373.829	-89.514	-0.249	0.074
-372.815	-94.329	-0.228	-0.063
-371.800	800.000	0.053	-0.221
-370.785	176.222	-0.090	-0.132
-369.771	-54.429	-0.393	0.180
-368.756	-200.000	0.031	0.184
-367.742	399.380	-0.081	0.171
-366.727	151.130	0.202	0.277
-365.712	58.401	-0.157	0.155
-364.698	-200.000	-0.015	0.122
-363.683	-175.621	0.286	0.008
-362.669	67.590	0.097	0.100
-361.654	-136.051	0.154	0.018
-360.639	428.227	0.085	0.186
-359.625	-200.000	0.012	-0.073
-358.610	-75.690	0.305	-0.109
-357.596	-111.992	-0.072	0.015
-356.581	-123.382	-0.083	-0.013
-355.566	-41.987	0.064	-0.033
-354.552	-200.000	-0.035	0.207
-353.537	-112.994	-0.259	-0.052
-352.523	275.251	0.053	0.095
-351.508	-98.062	0.077	0.020
-350.493	-200.000	0.009	0.155
-349.479	-78.945	0.214	-0.073
-348.464	-200.000	0.047	-0.343
-347.450	-200.000	0.009	-0.266
-346.435	-17.256	0.018	0.012
-345.420	-126.383	-0.352	0.053
-344.406	16.086	0.260	-0.206
-343.391	-119.874	0.092	0.016
-342.377	-200.000	0.026	-0.155
-341.362	647.560	-0.052	-0.133
-340.348	-86.221	-0.200	-0.062
-339.333	-134.882	-0.316	0.039
-338.318	-57.493	0.118	0.052
-337.304	103.031	0.095	-0.112
-336.289	-200.000	-0.029	0.151
-335.275	53.496	-0.260	0.251
-334.260	-149.711	0.424	0.034
-333.245	-150.544	0.041	0.003
-332.231	-48.775	-0.143	0.069
-331.216	-200.000	-0.038	-0.288
-330.202	-150.909	0.281	0.021
-329.187	-200.000	0.012	0.228
-328.172	-50.534	0.106	-0.050
-327.158	800.000	0.062	0.222
-326.143	312.796	0.082	-0.155
-325.129	-200.000	0.000	-0.063
-324.114	-200.000	-0.045	0.420
-323.099	800.000	-0.061	0.204
-322.085	-200.000	-0.011	0.134
-321.070	-200.000	-0.008	0.290
-320.056	41.643	-0.181	0.165
-319.041	365.478	-0.101	-0.204
-318.026	-200.000	0.003	0.082
-317.012	-119.447	0.250	0.044
-315.997	-67.402	-0.310	0.122
-314.983	-21.255	0.156	-0.096
-313.968	19.297	-0.205	-0.166
-312.953	-35.326	-0.260	-0.142
-311.939	124.238	-0.129	0.163
-310.924	348.273	0.113	0.223
-309.910	-200.000	-0.017	0.106
-308.895	-200.000	-0.023	0.164
-307.880	-81.065	0.412	0.137
-306.866	107.472	-0.161	0.193
-305.851	166.587	-0.258	0.367
-304.837	284.442	0.148	0.267
-303.822	313.220	0.060	-0.114
-302.807	-200.000	-0.000	-0.142
-301.793	175.310	-0.171	0.249
-300.778	445.375	0.029	-0.063
-299.764	-105.146	-0.235	0.054
-298.749	-52.174	-0.277	-0.129
-297.735	5.033	-0.301	0.223
-296.720	-78.713	-0.296	0.101
-295.705	23.624	-0.211	0.174
-294.691	107.528	0.156	-0.186
-293.676	89.405	0.248	-0.278
-292.662	66.848	-0.068	0.069
-291.647	500.367	-0.180	-0.416
-290.632	-183.138	0.372	0.007
-289.618	88.520	0.219	0.244
-288.603	-200.000	-0.027	0.422
-287.589	-200.000	-0.011	0.164
-286.574	-20.284	0.175	-0.108
-285.559	-41.558	0.199	-0.102
-284.545	-109.050	0.229	0.049
-283.530	204.649	0.172	-0.268
-282.516	-109.955	-0.369	-0.078
-281.501	-44.129	0.220	0.111
-280.486	-19.723	-0.357	0.221
-279.472	106.303	0.147	-0.175
-278.457	9.910	0.212	-0.162
-277.443	95.194	0.280	-0.320
-276.428	63.392	0.038	0.039
-275.413	-28.582	-0.049	-0.028
-274.399	-200.000	-0.018	-0.115
-273.384	73.740	0.152	-0.160
-272.370	51.327	0.117	0.112
-271.355	135.587	0.171	0.224
-270.340	800.000	0.095	0.349
-269.326	-9.388	0.264	-0.177
-268.311	-93.750	-0.437	-0.121
-267.297	800.000	-0.089	-0.249
-266.282	-68.273	0.191	-0.074
-265.267	-200.000	-0.010	-0.113
-264.253	295.199	0.080	-0.148
-263.238	-82.592	-0.374	-0.122
-262.224	-105.679	0.296	0.067
-261.209	46.030	0.061	0.057
-260.195	-200.000	0.026	-0.191
-259.180	-200.000	0.011	-0.222
-258.165	-53.142	0.107	0.049
-257.151	573.895	-0.094	0.230
-256.136	800.000	0.081	-0.267
-255.122	-200.000	-0.022	0.098
-254.107	-30.783	-0.173	0.098
-253.092	-13.623	-0.100	0.065
-252.078	129.806	0.026	-0.033
-251.063	-200.000	-0.012	-0.350
-250.049	-123.122	-0.285	0.046
-249.034	-15.986	-0.536	0.342
-248.019	-70.847	-0.211	-0.080
-247.005	99.661	-0.356	-0.413
-245.990	200.598	0.190	0.293
-244.976	-49.681	0.242	-0.115
-243.961	-179.807	-0.230	0.005
-242.946	800.000	0.097	0.299
-241.932	46.863	-0.097	0.090
-240.917	222.382	0.246	0.397
-239.903	-200.000	-0.011	-0.353
-238.888	9.532	-0.040	-0.030
-237.873	-200.000	0.010	0.097
-236.859	-200.000	-0.054	0.242
-235.844	-200.000	-0.016	-0.096
-234.830	-113.965	0.299	0.058
-233.815	-200.000	-0.019	0.132
-232.800	59.117	0.226	0.223
-231.786	4.984	0.100	0.074
-230.771	-16.476	-0.266	-0.169
-229.757	447.979	0.199	-0.438
-228.742	-42.331	0.257	0.132
-227.727	800.000	-0.024	0.078
-226.713	534.117	-0.162	-0.384
-225.698	-43.815	0.163	-0.082
-224.684	-200.000	-0.008	-0.085
-223.669	-113.616	-0.333	0.065
-222.655	-200.000	-0.015	0.375
-221.640	144.338	-0.082	-0.110
-220.625	800.000	0.041	-0.165
-219.611	177.736	-0.106	0.155
-218.596	-102.961	0.127	-0.030
-217.582	118.027	0.249	0.307
-216.567	231.921	-0.076	-0.125
-215.552	231.007	0.045	0.073
-214.538	-200.000	0.022	0.194
-213.523	-200.000	0.010	0.136
-212.509	-159.257	0.149	-0.008
-211.494	-153.429	-0.285	-0.020
-210.479	-106.265	0.169	-0.038
-209.465	-8.759	0.286	-0.192
-208.450	-91.645	0.265	0.075
-207.436	-200.000	-0.004	0.139
-206.421	106.693	0.184	0.219
-205.406	72.169	-0.273	-0.284
-204.392	-157.862	-0.250	0.015
-203.377	56.392	0.029	0.028
-202.363	800.000	0.140	-0.435
-201.348	-2.643	0.340	0.238
-200.333	105.916	-0.055	-0.065
-199.319	397.191	0.212	-0.443
-198.304	800.000	0.036	-0.109
-197.290	165.679	0.180	0.255
-196.275	302.961	-0.090	-0.167
-195.260	800.000	-0.030	-0.099
-194.246	-66.988	0.320	-0.127
-193.231	800.000	0.095	-0.302
-192.217	-1.662	-0.179	-0.126
-191.202	-200.000	0.004	0.028
-190.187	-200.000	0.032	-0.229
-189.173	-106.179	-0.041	-0.009
-188.158	286.393	0.062	0.112
-187.144	63.415	-0.109	-0.110
-186.129	-95.841	-0.146	-0.039
-185.114	-200.000	-0.015	0.163
-184.100	-173.896	-0.147	-0.004
-183.085	-139.540	0.187	0.020
-182.071	50.328	-0.330	-0.312
-181.056	-104.789	-0.220	-0.051
-180.042	-5.028	-0.169	-0.117
-179.027	-139.424	-0.271	0.029
-178.012	-200.000	-0.019	-0.205
-176.998	-83.743	-0.181	-0.058
-175.983	11.002	0.110	-0.084
-174.969	-200.000	-0.026	-0.313
-173.954	-169.765	-0.275	0.010
-172.939	-200.000	0.075	0.369
-171.925	65.105	0.075	-0.076
-170.910	-168.344	0.129	0.005
-169.896	-198.525	-0.020	0.000
-168.881	108.028	-0.188	-0.224
-167.866	-200.000	0.013	0.202
-166.852	28.003	0.287	0.242
-165.837	606.592	0.036	0.090
-164.823	86.240	-0.090	-0.100
-163.808	130.467	0.120	-0.153
-162.793	-200.000	-0.024	0.169
-161.779	40.988	0.404	0.364
-160.764	37.257	0.230	0.204
-159.750	-74.417	0.357	-0.129
-158.735	122.358	0.064	0.080
-157.720	155.371	-0.101	0.139
-156.706	-87.324	0.185	0.056
-155.691	-100.893	0.200	-0.049
-154.677	-176.988	-0.162	0.004
-153.662	-23.452	-0.294	0.176
-152.647	-200.000	-0.010	0.227
-151.633	220.621	0.058	-0.093
-150.618	-3.265	0.109	-0.076
-149.604	-200.000	0.042	0.269
-148.589	800.000	0.072	0.219
-147.574	-142.569	0.152	-0.015
-146.560	49.946	0.062	-0.058
-145.545	-76.936	-0.258	-0.090
-144.531	0.580	0.214	0.152
-143.516	800.000	-0.018	-0.078
-142.502	58.656	0.192	-0.188
-141.487	-200.000	0.048	-0.336
-140.472	249.925	-0.045	-0.076
-139.458	8.473	-0.138	0.103
-138.443	-200.000	-0.010	0.304
-137.429	741.157	0.090	0.241
-136.414	62.344	0.052	-0.052
-135.399	154.657	0.154	0.212
-134.385	191.888	0.129	0.194
-133.370	-76.308	-0.195	0.068
-132.356	800.000	0.011	0.037
-131.341	-176.085	0.185	0.005
-130.326	25.046	0.279	-0.231
-129.312	-200.000	-0.005	0.059
-128.297	-52.812	0.246	0.113
-127.283	-200.000	0.015	-0.067
-126.268	18.868	0.174	0.139
-125.253	-55.179	-0.148	-0.066
-124.239	133.408	-0.043	0.055
-123.224	613.322	-0.097	0.242
-122.210	-106.255	-0.201	0.045
-121.195	-33.731	0.138	-0.076
-120.180	47.037	-0.063	0.059
-119.166	106.151	0.122	-0.144
-118.151	-198.547	-0.067	-0.000
-117.137	-200.000	0.030	-0.157
-116.122	-42.415	0.233	-0.118
-115.107	360.285	-0.074	0.147
-114.093	713.176	0.028	0.073
-113.078	-200.000	0.002	0.379
-112.064	-200.000	-0.010	-0.060
-111.049	800.000	-0.083	0.249
-110.034	-200.000	0.013	-0.080
-109.020	75.401	0.408	-0.429
-108.005	35.819	0.274	0.240
-106.991	-54.616	-0.191	-0.086
-105.976	114.197	-0.156	-0.190
-104.962	-83.763	0.124	-0.039
-103.947	29.903	0.196	-0.166
-102.932	3.945	0.327	0.239
-101.918	-4.756	0.214	-0.147
-100.903	-200.000	-0.009	0.188
-99.889	-200.000	0.071	0.331
-98.874	139.004	-0.204	0.267
-97.859	116.183	-0.164	-0.200
-96.845	800.000	-0.051	-0.154
-95.830	65.892	0.081	0.082
-94.816	-67.491	0.224	0.088
-93.801	-200.000	-0.018	-0.156
-92.786	-62.717	-0.094	0.039
-91.772	-12.777	0.289	0.188
-90.757	74.041	0.134	-0.140
-89.743	-123.775	-0.030	-0.005
-88.728	-191.933	0.096	-0.001
-87.713	220.224	0.102	0.163
-86.699	32.799	-0.367	0.317
-85.684	-200.000	0.042	0.225
-84.670	-7.883	-0.295	-0.198
-83.655	-46.521	-0.132	-0.064
-82.640	764.356	0.065	0.177
-81.626	-53.792	0.185	-0.084
-80.611	-81.498	0.187	-0.061
-79.597	-200.000	0.029	0.239
-78.582	277.652	0.099	-0.175
-77.567	152.421	-0.048	-0.066
-76.553	-90.040	0.101	0.029
-75.538	-191.616	-0.337	-0.003
-74.524	-200.000	0.011	0.143
-73.509	194.942	0.163	-0.246
-72.494	-113.950	-0.188	0.036
-71.480	126.457	0.214	-0.270
-70.465	342.811	0.034	0.066
-69.451	44.650	-0.177	0.162
-68.436	800.000	-0.073	0.251
-67.422	-117.266	0.110	0.020
-66.407	800.000	-0.076	-0.284
-65.392	800.000	-0.139	0.453
-64.378	456.679	0.046	0.101
-63.363	-89.698	0.316	-0.092
-62.349	800.000	-0.050	-0.149
-61.334	-15.156	-0.995	-0.634
-60.319	-79.670	0.531	0.178
-59.305	200.316	-0.453	-0.693
-58.290	-200.000	0.079	0.629
-57.276	256.494	0.877	1.499
-56.261	-200.000	80.167	508.730
-55.246	520.199	1322.592	3084.688
-54.232	151.497	2539.737	3441.151
-53.217	113.355	2235.909	2699.422
-52.203	49.656	1770.321	1658.920
-51.188	42.953	1574.000	1427.595
-50.173	40.366	1545.579	1383.724
-49.159	56.086	1586.806	1532.089
-48.144	60.959	1606.090	1585.115
-47.130	43.535	1567.351	1425.443
-46.115	40.017	1552.781	1387.495
-45.100	39.933	1549.274	1383.719
-44.086	39.758	1547.487	1380.843
-43.071	39.759	1545.200	1378.756
-42.057	39.679	1543.466	1376.598
-41.042	39.593	1542.303	1374.908
-40.027	39.786	1540.355	1374.461
-39.013	39.744	1538.976	1372.880
-37.998	39.688	1537.601	1371.212
-36.984	39.675	1536.268	1369.878
-35.969	39.802	1535.034	1369.604
-34.954	39.879	1533.585	1368.791
-33.940	39.792	1532.294	1366.981
-32.925	39.776	1530.886	1365.560
-31.911	39.788	1529.581	1364.425
-30.896	39.903	1527.890	1363.659
-29.881	39.876	1526.733	1362.386
-28.867	39.855	1524.708	1360.375
-27.852	39.879	1523.609	1359.508
-26.838	39.773	1522.725	1357.934
-25.823	39.870	1520.591	1356.647
-24.809	39.742	1519.466	1354.708
-23.794	39.793	1516.861	1352.681
-22.779	39.689	1516.851	1351.908
-21.765	39.778	1515.575	1351.329
-20.750	39.883	1514.234	1350.792
-19.736	39.692	1513.092	1348.415
-18.721	39.863	1511.808	1348.389
-17.706	39.816	1510.560	1346.898
-16.692	39.782	1509.724	1345.872
-15.677	39.655	1509.136	1344.424
-14.663	39.769	1507.419	1343.617
-13.648	39.640	1506.732	1342.078
-12.633	39.654	1505.850	1341.333
-11.619	39.769	1504.925	1341.236
-10.604	39.694	1504.195	1340.021
-9.590	39.673	1503.082	1338.837
-8.575	39.623	1502.619	1338.032
-7.560	39.728	1501.404	1337.609
-6.546	39.622	1500.729	1336.234
-5.531	39.587	1500.093	1335.381
-4.517	39.647	1498.425	1334.248
-3.502	39.652	1497.584	1333.478
-2.487	39.778	1496.277	1333.113
-1.473	39.657	1495.330	1331.400
-0.458	39.758	1493.740	1330.615
0.556	37.870	1484.220	1318.526
1.571	34.406	1456.885	1271.085
2.586	29.983	1392.356	1186.414
3.600	27.721	1306.647	1099.665
4.615	25.994	1258.619	1049.117
5.629	24.338	1205.641	995.632
6.644	20.110	1125.868	907.584
7.659	16.057	1085.240	854.253
8.673	15.318	1080.068	846.381
9.688	15.170	1077.274	843.372
10.702	15.152	1075.347	841.694
11.717	15.090	1073.910	840.185
12.731	16.851	1075.026	849.825
13.746	20.727	1079.143	872.469
14.761	21.030	1078.635	873.498
15.775	18.447	1074.547	857.207
16.790	17.046	1071.463	847.677
17.804	15.862	1068.842	839.629
18.819	15.038	1067.030	834.025
19.834	14.459	1065.500	829.874
20.848	14.120	1064.431	827.285
21.863	13.711	1063.832	824.713
22.877	13.509	1063.017	823.002
23.892	13.370	1062.015	821.465
24.907	13.213	1061.326	820.078
25.921	13.217	1060.297	819.232
26.936	13.273	1059.629	818.922
27.950	13.420	1058.405	818.630
28.965	13.423	1057.412	817.804
29.980	13.391	1055.930	816.428
30.994	13.441	1055.386	816.182
32.009	13.534	1054.040	815.525
33.023	13.455	1053.481	814.633
34.038	13.528	1052.652	814.277
35.053	13.533	1051.473	813.319
36.067	13.437	1050.544	812.056
37.082	13.389	1049.832	811.199
38.096	13.402	1049.126	810.646
39.111	13.452	1048.521	810.349
40.126	13.529	1047.301	809.711
41.140	13.339	1046.416	808.030
42.155	13.357	1045.123	807.049
43.169	13.237	1044.362	805.803
44.184	13.198	1043.230	804.668
45.199	13.247	1042.057	803.931
46.213	13.258	1040.928	803.041
47.228	13.179	1040.022	801.890
48.242	13.272	1039.213	801.645
49.257	13.309	1038.539	801.234
50.271	13.380	1036.903	800.243
51.286	13.285	1036.426	799.345
52.301	13.509	1035.362	799.537
53.315	13.413	1034.745	798.524
54.330	13.382	1033.884	797.640
55.344	13.455	1032.211	796.632
56.359	13.377	1031.728	795.812
57.374	13.289	1031.212	794.920
58.388	13.405	1030.046	794.509
59.403	13.191	1029.322	792.852
60.417	13.223	1028.841	792.566
61.432	13.193	1028.380	791.997
62.447	13.153	1027.299	790.902
63.461	13.181	1026.167	790.093
64.476	13.120	1025.478	789.205
65.490	13.107	1024.724	788.494
66.505	13.180	1023.910	788.144
67.520	13.184	1023.165	787.522
68.534	13.121	1022.480	786.620
69.549	13.183	1021.246	785.901
70.563	13.330	1020.888	786.254
71.578	13.163	1020.069	784.759
72.593	13.042	1019.473	783.655
73.607	13.136	1018.172	783.031
74.622	13.012	1017.152	781.593
75.636	12.988	1016.660	781.032
76.651	13.022	1015.513	780.242
77.666	12.949	1015.133	779.534
78.680	13.092	1014.024	779.291
79.695	13.145	1013.269	778.890
80.709	13.118	1013.185	778.629
81.724	13.159	1012.040	777.876
82.739	13.320	1011.135	777.865
83.753	13.170	1010.844	776.869
84.768	13.260	1010.117	776.662
85.782	13.317	1008.986	775.996
86.797	13.438	1007.920	775.674
87.812	13.305	1007.601	774.733
88.826	13.355	1006.455	774.018
89.841	13.316	1005.429	772.979
90.855	13.367	1004.932	772.768
91.870	13.355	1004.316	772.170
92.884	13.328	1003.348	771.229
93.899	13.408	1002.772	771.092
94.914	13.352	1002.290	770.391
95.928	13.451	1001.214	769.958
96.943	13.631	1000.351	770.062
97.957	13.422	999.899	768.677
98.972	13.447	999.256	768.230
99.987	13.347	998.470	767.093
101.001	13.476	997.486	766.868
102.016	13.454	996.365	765.835
103.030	13.451	995.326	764.957
104.045	13.427	994.782	764.358
105.060	13.486	993.709	763.737
106.074	13.369	992.906	762.515
107.089	13.367	991.906	761.669
108.103	13.254	990.911	760.320
109.118	13.165	990.521	759.545
110.133	13.248	989.509	759.079
111.147	13.139	988.697	757.892
112.162	13.295	987.577	757.682
113.176	13.322	986.489	756.902
114.191	13.210	985.836	755.821
115.206	13.291	985.333	755.740
116.220	13.243	984.388	754.731
117.235	13.231	983.452	753.888
118.249	13.194	982.832	753.179
119.264	13.272	981.491	752.439
120.279	13.356	980.630	752.097
121.293	13.297	979.854	751.167
122.308	13.200	979.215	750.169
123.322	13.184	978.520	749.500
124.337	13.185	977.415	748.589
125.352	13.068	976.339	747.169
126.366	13.233	975.047	746.859
127.381	13.228	973.998	745.970
128.395	13.225	973.107	745.206
129.410	13.252	972.387	744.710
130.424	13.325	971.139	744.019
131.439	13.357	970.439	743.560
132.454	13.197	969.759	742.254
133.468	13.285	968.897	741.922
134.483	13.423	968.378	742.080
135.497	13.467	967.303	741.385
136.512	13.373	966.961	740.637
137.527	13.371	966.180	739.965
138.541	13.405	965.134	739.253
139.556	13.391	964.689	738.781
140.570	13.465	963.309	737.989
141.585	13.418	962.852	737.367
142.600	13.546	962.055	737.258
143.614	13.510	961.434	736.560
144.629	13.520	960.957	736.173
145.643	13.613	959.695	735.555
146.658	13.594	958.910	734.802
147.673	13.498	958.197	733.767
148.687	13.431	957.161	732.611
149.702	13.486	955.984	731.887
150.716	13.378	955.425	730.917
151.731	13.316	954.846	730.139
152.746	13.294	953.752	729.140
153.760	13.319	953.279	728.823
154.775	13.384	952.584	728.514
155.789	13.473	951.439	727.964
156.804	13.445	951.052	727.481
157.819	13.460	950.368	726.958
158.833	13.565	949.137	726.414
159.848	13.470	948.640	725.552
160.862	13.397	948.436	725.013
161.877	13.482	947.589	724.672
162.892	13.496	946.738	724.020
163.906	13.582	945.247	723.190
164.921	13.521	944.634	722.392
165.935	13.327	944.032	721.020
166.950	13.520	942.450	720.590
167.964	13.515	941.989	720.150
168.979	13.590	940.966	719.632
169.994	13.509	940.078	718.539
171.008	13.384	939.707	717.648
172.023	13.460	938.972	717.350
173.037	13.612	937.630	716.920
174.052	13.626	937.035	716.462
175.067	13.696	936.334	716.168
176.081	13.600	935.344	714.933
177.096	13.522	934.610	713.972
178.110	13.581	933.800	713.543
179.125	13.570	933.148	712.934
180.140	13.664	932.199	712.552
181.154	13.549	931.633	711.561
182.169	13.613	930.947	711.248
183.183	13.667	930.546	711.111
184.198	13.828	929.517	710.952
185.213	13.657	929.082	709.822
186.227	13.794	928.096	709.594
187.242	13.697	928.019	709.057
188.256	13.872	926.660	708.702
189.271	13.821	926.418	708.236
190.286	13.821	925.846	707.737
191.300	13.726	925.103	706.701
192.315	13.584	924.395	705.495
193.329	13.533	923.922	704.856
194.344	13.545	922.685	703.898
195.359	13.609	922.466	703.943
196.373	13.603	921.352	703.005
197.388	13.785	921.308	703.678
198.402	13.892	920.263	703.274
199.417	13.888	920.321	703.236
200.432	14.034	919.802	703.398
201.446	13.964	919.606	702.889
202.461	14.108	918.862	702.865
203.475	14.091	918.199	702.224
204.490	14.100	917.370	701.565
205.504	14.134	916.829	701.233
206.519	14.060	915.800	700.073
207.534	13.940	915.428	699.225
208.548	14.136	914.524	699.296
209.563	13.970	913.940	698.088
210.577	14.019	912.820	697.378
211.592	14.045	912.468	697.157
212.607	14.052	912.061	696.813
213.621	14.234	911.163	696.827
214.636	14.200	910.624	696.211
215.650	14.224	909.928	695.715
216.665	14.194	909.714	695.367
217.680	14.282	909.244	695.313
218.694	14.371	907.982	694.658
219.709	14.297	907.972	694.278
220.723	14.210	907.331	693.365
221.738	14.184	906.555	692.603
222.753	14.205	906.028	692.227
223.767	14.306	905.060	691.844
224.782	14.310	904.222	691.162
225.796	14.233	903.930	690.555
226.811	14.410	902.476	690.119
227.826	14.383	901.700	689.352
228.840	14.385	901.358	689.037
229.855	14.263	901.118	688.287
230.869	14.394	900.166	688.042
231.884	14.277	899.963	687.343
232.899	14.353	899.005	686.863
233.913	14.281	898.261	685.937
234.928	14.219	897.352	684.928
235.942	14.216	896.852	684.473
236.957	14.471	895.661	684.551
237.972	14.241	895.702	683.578
238.986	14.323	894.682	683.073
240.001	14.255	893.990	682.206
241.015	14.310	893.734	682.174
242.030	14.431	892.723	681.842
243.045	14.483	892.372	681.724
244.059	14.568	891.289	681.184
245.074	14.349	891.212	680.169
246.088	14.461	890.529	680.046
247.103	14.448	889.674	679.278
248.117	14.468	888.982	678.772
249.132	14.683	887.833	678.708
250.147	14.588	887.630	678.109
251.161	14.695	887.425	678.327
252.176	14.682	886.647	677.620
253.190	14.771	885.834	677.297
254.205	14.781	885.486	677.011
255.220	14.826	884.795	676.607
256.234	14.932	884.010	676.373
257.249	15.057	882.934	675.998
258.263	14.855	882.837	675.048
259.278	14.972	881.813	674.674
260.293	14.937	881.818	674.479
261.307	15.108	881.131	674.584
262.322	15.057	880.800	674.065
263.336	15.012	879.673	672.962
264.351	15.075	879.337	672.898
265.366	15.053	878.503	672.113
266.380	15.089	877.981	671.799
267.395	15.087	877.518	671.377
268.409	15.066	876.567	670.506
269.424	14.973	875.893	669.558
270.439	15.041	875.126	669.185
271.453	15.072	874.371	668.671
272.468	14.950	873.717	667.625
273.482	15.008	873.072	667.305
274.497	15.215	872.143	667.360
275.512	15.058	871.919	666.503
276.526	15.139	870.754	665.875
277.541	15.201	869.947	665.447
278.555	15.140	869.774	665.015
279.570	15.163	869.153	664.573
280.585	15.255	868.805	664.612
281.599	15.246	868.090	663.968
282.614	15.314	867.310	663.585
283.628	15.121	866.808	662.377
284.643	15.231	866.524	662.537
285.657	15.152	866.405	662.073
286.672	15.221	865.348	661.479
287.687	15.247	864.827	661.127
288.701	15.313	864.363	660.972
289.716	15.159	863.745	659.835
290.730	15.307	862.890	659.708
291.745	15.375	862.447	659.577
292.760	15.430	861.509	659.018
293.774	15.305	861.270	658.287
294.789	15.582	860.589	658.792
295.803	15.434	859.895	657.624
296.818	15.497	859.397	657.433
297.833	15.431	859.016	656.822
298.847	15.440	857.736	655.823
299.862	15.322	857.701	655.277
300.876	15.357	856.938	654.771
301.891	15.439	856.110	654.400
302.906	15.515	855.445	654.131
303.920	15.668	854.376	653.850
304.935	15.646	854.333	653.674
305.949	15.698	853.575	653.238
306.964	15.708	852.919	652.716
307.979	15.720	852.153	652.119
308.993	15.720	851.423	651.502
310.008	15.804	851.174	651.581
311.022	15.736	851.003	651.130
312.037	15.698	850.279	650.371
313.052	15.749	849.432	649.863
314.066	15.619	849.310	649.211
315.081	15.571	848.517	648.358
316.095	15.575	847.902	647.847
317.110	15.659	847.271	647.634
318.125	15.762	846.705	647.537
319.139	15.662	846.120	646.651
320.154	15.772	845.824	646.788
321.168	15.703	845.398	646.140
322.183	15.827	844.453	645.837
323.197	15.715	844.397	645.310
324.212	15.855	843.298	644.945
325.227	15.787	842.765	644.222
326.241	15.643	842.477	643.393
327.256	15.643	842.427	643.300
328.270	15.789	841.256	642.904
329.285	15.752	840.805	642.362
330.300	15.835	840.141	642.116
331.314	15.676	839.797	641.189
332.329	15.788	839.118	641.040
333.343	15.709	838.799	640.439
334.358	15.926	837.882	640.507
335.373	15.975	837.151	640.078
336.387	16.012	836.946	640.007
337.402	16.010	836.348	639.485
338.416	16.024	835.724	639.003
339.431	16.051	835.448	638.840
340.446	16.140	834.259	638.209
341.460	16.171	833.792	637.913
342.475	16.141	833.549	637.556
343.489	16.245	833.172	637.607
344.504	16.075	832.783	636.610
345.519	16.259	831.911	636.580
346.533	16.345	831.403	636.460
347.548	16.369	830.765	636.004
348.562	16.254	830.120	635.023
349.577	16.153	829.861	634.389
350.592	16.247	829.160	634.151
351.606	16.182	828.738	633.528
352.621	16.108	828.356	632.902
353.635	16.121	827.996	632.619
354.650	16.100	827.647	632.216
355.665	16.246	827.153	632.329
356.679	16.244	826.759	631.966
357.694	16.239	826.074	631.370
358.708	16.255	825.610	631.016
359.723	16.279	825.248	630.773
360.738	16.277	824.547	630.177
361.752	16.248	823.973	629.573
362.767	16.341	823.592	629.571
363.781	16.399	823.116	629.370
364.796	16.463	822.374	628.986
365.810	16.649	821.941	629.290
366.825	16.638	821.625	628.951
367.840	16.659	821.544	628.911
368.854	16.552	820.914	627.975
369.869	16.430	820.490	627.141
370.883	16.575	819.967	627.225
371.898	16.557	819.510	626.752
372.913	16.544	818.781	626.092
373.927	16.652	818.155	625.957
374.942	16.799	817.367	625.843
375.956	16.595	816.677	624.508
376.971	16.749	816.119	624.594
377.986	16.783	815.648	624.301
379.000	16.683	815.480	623.748
380.015	16.848	814.887	623.848
381.029	16.856	814.243	623.328
382.044	16.684	813.596	622.146
383.059	16.654	813.196	621.676
384.073	16.764	813.365	622.154
385.088	16.903	812.268	621.769
386.102	16.750	811.590	620.635
387.117	16.821	810.914	620.321
388.132	16.822	810.518	619.969
389.146	16.835	810.012	619.573
390.161	16.883	809.848	619.568
391.175	16.722	809.651	618.776
392.190	16.929	809.226	619.151
393.205	16.926	808.324	618.396
394.219	16.861	808.097	617.931
395.234	16.914	807.603	617.691
396.248	16.751	807.460	616.933
397.263	16.966	806.660	617.049
398.278	16.828	806.531	616.396
399.292	16.821	805.940	615.864
400.307	16.821	805.262	615.292
401.321	16.941	804.954	615.437
402.336	16.895	804.743	615.052
403.350	17.025	803.846	614.785
404.365	16.936	803.620	614.236
405.380	16.946	803.335	614.000
406.394	17.010	802.879	613.829
407.409	17.176	802.251	613.892
408.423	17.301	801.791	613.938
409.438	16.957	801.961	612.773
410.453	17.222	801.118	613.031
411.467	17.121	800.784	612.356
412.482	17.097	800.122	611.707
413.496	17.303	799.801	612.149
414.511	17.308	799.122	611.593
415.526	17.233	798.804	611.029
416.540	17.286	798.636	611.037
417.555	17.438	798.016	611.055
418.569	17.298	797.834	610.355
419.584	17.293	797.308	609.884
420.599	17.311	796.626	609.371
421.613	94.874	1270.645	1393.100
422.628	81.007	1339.773	1393.227
