DTS Sentinel unit serial number:	SN413079Multiplexer serial number:	ORYXHardware model number:	OX4-SRSoftware version number:	ORYX F/W v4.00 Oryx Data Collector v3.7.2.0data status	okinstallation	princeton_trtdifferential loss correction	single-endedforward channel	channel 3reverse channel	N/Adate	2019/09/11time	18:46:11forward acquisition time	60.00reverse acquisition time	0.00gamma	496.2192k internal	0.2289k external	0.2289temperature offset calibration	0.9999default loss term (dB/km)	0.3790temperature slope calibration	1.0000multiplexer offset coefficient	1.0000multiplexer slope coefficient	1.0000fibre end	0.00T internal ref (°C)	43.16T ext. ref 1 (°C)	1.22T ext. ref 2 (°C)	35.34length (m)	temperature (°C)	Stokes	anti-Stokes-747.200	-143.815	-0.064	-0.006
-746.185	-93.854	0.133	-0.038
-745.171	188.211	-0.125	-0.191
-744.156	371.519	-0.075	0.156
-743.142	-200.000	0.008	0.303
-742.127	126.231	0.117	0.152
-741.112	-200.000	-0.033	-0.302
-740.098	26.282	0.241	0.207
-739.083	250.570	-0.053	0.091
-738.069	-200.000	-0.026	0.159
-737.054	726.400	-0.035	-0.096
-736.039	12.984	-0.291	-0.231
-735.025	-26.648	0.207	-0.124
-734.010	-200.000	-0.013	-0.171
-732.996	-8.079	0.273	-0.188
-731.981	516.492	0.091	-0.217
-730.966	-200.000	0.002	-0.274
-729.952	-141.786	-0.157	-0.016
-728.937	-110.833	-0.417	-0.088
-727.923	-200.000	0.014	0.166
-726.908	122.951	-0.281	-0.360
-725.894	356.055	0.117	-0.238
-724.879	-176.757	-0.525	0.014
-723.864	-173.142	0.130	-0.004
-722.850	-149.102	0.239	0.020
-721.835	-37.241	-0.192	0.105
-720.821	-83.795	0.233	-0.076
-719.806	-93.321	0.455	-0.129
-718.791	800.000	0.051	-0.223
-717.777	331.859	0.115	-0.227
-716.762	-115.376	0.122	-0.024
-715.748	-200.000	-0.010	-0.441
-714.733	-64.311	-0.203	-0.085
-713.718	-200.000	0.028	-0.282
-712.704	-200.000	-0.387	0.002
-711.689	8.489	-0.131	0.101
-710.675	-125.386	0.389	-0.061
-709.660	-29.035	0.269	-0.158
-708.645	152.266	0.206	-0.288
-707.631	-17.066	-0.123	0.079
-706.616	-200.000	-0.009	0.700
-705.602	228.697	-0.040	0.068
-704.587	-46.212	0.293	0.147
-703.572	-95.783	0.356	0.097
-702.558	-200.000	-0.002	0.286
-701.543	-200.000	0.069	0.396
-700.529	106.343	0.192	0.232
-699.514	-200.000	-0.006	-0.190
-698.499	-64.854	0.391	-0.162
-697.485	-113.975	-0.231	-0.046
-696.470	800.000	-0.016	0.054
-695.456	-107.711	-0.176	0.039
-694.441	337.733	-0.059	-0.117
-693.426	-89.048	0.248	0.075
-692.412	-200.000	0.108	0.552
-691.397	-130.595	-0.355	0.049
-690.383	158.401	0.128	0.182
-689.368	63.720	-0.041	-0.042
-688.354	128.172	-0.048	-0.062
-687.339	33.457	-0.119	0.105
-686.324	13.676	-0.257	-0.204
-685.310	148.832	-0.093	0.129
-684.295	-79.789	-0.196	0.067
-683.281	371.085	0.072	-0.149
-682.266	33.825	0.124	0.111
-681.251	-55.282	0.229	-0.105
-680.237	377.543	-0.079	-0.165
-679.222	-200.000	-0.004	0.208
-678.208	-200.000	-0.000	0.035
-677.193	80.085	-0.128	0.141
-676.178	189.410	0.223	0.342
-675.164	-200.000	-0.008	-0.148
-674.149	354.211	-0.079	0.160
-673.135	285.615	0.136	-0.250
-672.120	186.486	-0.096	-0.146
-671.105	-200.000	0.034	0.221
-670.091	-200.000	-0.002	0.010
-669.076	295.159	-0.148	0.276
-668.062	18.686	-0.431	0.353
-667.047	-45.473	-0.413	-0.209
-666.032	112.832	0.217	0.269
-665.018	161.239	0.113	0.162
-664.003	333.537	-0.226	-0.446
-662.989	233.197	-0.223	-0.375
-661.974	350.469	0.120	-0.242
-660.959	-200.000	-0.030	-0.247
-659.945	-16.110	0.387	-0.251
-658.930	150.219	0.182	-0.252
-657.916	155.189	0.059	0.082
-656.901	-149.698	-0.086	-0.007
-655.886	-200.000	-0.039	0.270
-654.872	153.976	-0.030	-0.042
-653.857	-105.658	-0.085	-0.020
-652.843	86.759	-0.118	-0.134
-651.828	800.000	0.033	-0.118
-650.814	-60.608	0.239	0.103
-649.799	32.254	-0.244	-0.215
-648.784	-200.000	-0.042	-0.211
-647.770	-66.489	0.183	-0.074
-646.755	-113.218	-0.315	0.063
-645.741	-23.006	-0.308	-0.190
-644.726	-44.984	0.083	-0.042
-643.711	-77.585	0.182	0.064
-642.697	0.982	-0.312	0.228
-641.682	439.533	-0.058	0.129
-640.668	-200.000	0.015	-0.394
-639.653	-26.313	0.173	-0.104
-638.638	265.044	-0.044	-0.078
-637.624	-8.696	0.115	0.078
-636.609	36.438	0.214	-0.193
-635.595	-200.000	-0.039	-0.457
-634.580	-121.253	-0.138	-0.024
-633.565	145.475	-0.210	0.287
-632.551	-55.680	0.209	-0.095
-631.536	-27.317	0.128	0.076
-630.522	65.058	-0.108	0.112
-629.507	8.740	-0.328	0.252
-628.492	-45.316	0.024	0.012
-627.478	-105.957	-0.033	0.008
-626.463	-200.000	-0.005	-0.133
-625.449	-200.000	-0.043	0.468
-624.434	-72.702	-0.143	-0.054
-623.419	-200.000	-0.011	-0.111
-622.405	371.304	-0.035	0.072
-621.390	-200.000	0.007	-0.217
-620.376	293.927	0.149	0.278
-619.361	-31.168	0.121	-0.070
-618.346	-65.118	0.426	0.175
-617.332	-200.000	0.033	0.268
-616.317	-49.496	0.251	-0.122
-615.303	-200.000	0.003	-0.280
-614.288	-200.000	-0.026	-0.120
-613.273	675.953	-0.084	-0.223
-612.259	800.000	0.085	-0.347
-611.244	132.316	-0.138	-0.182
-610.230	800.000	0.036	-0.109
-609.215	-200.000	-0.013	-0.087
-608.201	-14.580	-0.397	0.260
-607.186	800.000	-0.038	0.157
-606.171	-120.236	-0.277	-0.048
-605.157	39.188	-0.040	0.037
-604.142	-38.606	0.116	0.063
-603.128	-64.954	0.220	-0.091
-602.113	44.827	0.199	0.186
-601.098	-200.000	0.032	-0.394
-600.084	800.000	-0.038	-0.135
-599.069	0.964	-0.160	-0.117
-598.055	-200.000	0.007	0.133
-597.040	-200.000	-0.015	-0.402
-596.025	-200.000	0.003	0.063
-595.011	138.923	-0.143	-0.191
-593.996	43.162	-0.100	-0.093
-592.982	374.726	-0.128	-0.265
-591.967	-104.573	0.316	-0.074
-590.952	-200.000	-0.039	-0.258
-589.938	-171.340	0.333	-0.011
-588.923	178.977	-0.087	0.130
-587.909	-9.600	0.171	-0.116
-586.894	115.545	0.281	-0.350
-585.879	-5.572	0.442	-0.309
-584.865	-88.853	-0.162	0.049
-583.850	-200.000	-0.018	0.352
-582.836	-200.000	-0.001	0.080
-581.821	-73.656	-0.236	0.088
-580.806	-200.000	-0.001	-0.299
-579.792	800.000	0.055	0.209
-578.777	380.027	0.034	-0.071
-577.763	-13.419	0.140	-0.092
-576.748	61.129	-0.159	-0.160
-575.733	-200.000	0.004	-0.054
-574.719	142.947	0.138	0.186
-573.704	-200.000	0.011	0.238
-572.690	55.464	0.117	0.115
-571.675	-6.584	0.162	-0.112
-570.661	48.742	-0.107	0.102
-569.646	142.224	-0.180	0.243
-568.631	157.969	-0.146	0.205
-567.617	243.688	0.010	-0.017
-566.602	-46.062	0.234	0.117
-565.588	260.464	-0.141	-0.249
-564.573	-105.403	-0.248	0.057
-563.558	-4.459	-0.172	-0.121
-562.544	17.599	0.167	0.135
-561.529	-154.769	0.230	-0.016
-560.515	-21.630	0.274	-0.170
-559.500	356.381	-0.113	-0.230
-558.485	18.200	-0.036	-0.030
-557.471	-200.000	0.012	-0.193
-556.456	-66.903	0.273	-0.110
-555.442	123.251	-0.064	0.081
-554.427	-104.849	-0.068	0.016
-553.412	615.935	-0.111	0.283
-552.398	339.365	-0.057	0.114
-551.383	37.094	0.176	0.158
-550.369	-200.000	0.272	0.000
-549.354	-200.000	-0.006	-0.305
-548.339	352.198	0.122	0.245
-547.325	-111.050	0.215	-0.045
-546.310	-200.000	0.036	-0.189
-545.296	-101.545	-0.131	-0.032
-544.281	130.811	0.148	0.193
-543.266	-200.000	0.052	0.231
-542.252	-59.697	-0.106	0.046
-541.237	95.097	0.112	0.129
-540.223	-22.555	-0.114	-0.070
-539.208	7.443	0.234	0.178
-538.193	-122.514	0.059	0.010
-537.179	-3.882	-0.064	0.045
-536.164	486.539	0.150	0.347
-535.150	-186.793	0.255	0.004
-534.135	-200.000	-0.016	-0.145
-533.121	-90.822	-0.150	-0.044
-532.106	800.000	-0.075	0.215
-531.091	-200.000	0.021	0.123
-530.077	-200.000	-0.011	-0.174
-529.062	800.000	-0.072	0.261
-528.048	193.028	-0.229	-0.352
-527.033	-130.862	0.109	0.015
-526.018	-164.352	0.378	-0.018
-525.004	-200.000	-0.019	-0.295
-523.989	-200.000	-0.056	0.373
-522.975	800.000	0.108	0.315
-521.960	-200.000	-0.012	-0.129
-520.945	26.673	0.052	0.044
-519.931	-6.914	0.174	0.120
-518.916	-103.976	-0.303	0.072
-517.902	-200.000	0.038	0.171
-516.887	7.610	-0.288	0.219
-515.872	65.432	0.144	-0.148
-514.858	-200.000	-0.004	-0.119
-513.843	800.000	-0.057	-0.201
-512.829	173.875	-0.157	0.230
-511.814	-11.844	0.248	-0.165
-510.799	-145.787	-0.055	0.005
-509.785	52.982	-0.442	0.430
-508.770	302.639	-0.065	0.122
-507.756	-82.946	0.040	-0.013
-506.741	-34.963	-0.202	0.112
-505.726	-77.754	-0.347	0.122
-504.712	800.000	-0.063	0.270
-503.697	195.977	0.118	-0.182
-502.683	-76.662	-0.154	-0.055
-501.668	-200.000	0.028	0.277
-500.653	156.108	-0.034	0.048
-499.639	-135.745	0.160	-0.019
-498.624	48.107	-0.292	-0.277
-497.610	70.119	0.142	-0.149
-496.595	-5.728	-0.089	-0.062
-495.581	-104.035	0.314	-0.074
-494.566	800.000	0.085	-0.279
-493.551	48.257	0.121	-0.115
-492.537	-146.103	0.178	-0.016
-491.522	-83.752	0.108	0.035
-490.508	-99.970	-0.249	0.063
-489.493	447.983	0.075	-0.167
-488.478	-131.797	0.316	0.042
-487.464	-200.000	-0.069	-0.479
-486.449	-17.440	-0.355	0.226
-485.435	-200.000	0.047	0.502
-484.420	81.290	0.066	-0.072
-483.405	-11.204	-0.379	-0.254
-482.391	-80.347	-0.254	-0.086
-481.376	-200.000	0.014	0.085
-480.362	-68.663	-0.208	-0.082
-479.347	-200.000	-0.055	-0.296
-478.332	800.000	-0.064	-0.218
-477.318	-200.000	0.008	0.120
-476.303	-146.783	-0.326	0.029
-475.289	-3.084	0.406	0.287
-474.274	80.333	0.236	0.258
-473.259	-89.118	0.099	-0.030
-472.245	800.000	0.011	-0.044
-471.230	-200.000	-0.021	0.147
-470.216	-200.000	0.004	-0.138
-469.201	-17.424	0.059	0.038
-468.186	21.469	-0.356	-0.293
-467.172	-199.842	-0.124	0.001
-466.157	-200.000	0.028	0.160
-465.143	133.819	-0.105	-0.138
-464.128	800.000	0.039	-0.114
-463.113	-200.000	-0.039	0.292
-462.099	-200.000	0.030	0.165
-461.084	145.920	-0.086	0.117
-460.070	-200.000	0.045	-0.214
-459.055	260.570	-0.183	0.320
-458.040	-162.904	-0.360	-0.018
-457.026	-41.213	0.084	0.044
-456.011	107.956	0.238	0.287
-454.997	-114.873	0.277	0.054
-453.982	45.194	0.133	-0.125
-452.968	-101.494	0.169	0.042
-451.953	128.621	0.100	-0.129
-450.938	-200.000	-0.020	0.337
-449.924	-200.000	-0.004	0.312
-448.909	-21.551	-0.203	0.125
-447.895	12.744	0.110	0.086
-446.880	20.006	-0.154	0.126
-445.865	355.368	-0.072	0.145
-444.851	-131.140	0.137	0.018
-443.836	-133.918	0.330	-0.041
-442.822	50.918	-0.202	0.193
-441.807	-61.286	0.108	0.046
-440.792	-200.000	0.002	0.413
-439.778	224.561	-0.046	-0.076
-438.763	-200.000	-0.022	0.283
-437.749	-43.477	-0.196	-0.100
-436.734	800.000	0.060	-0.171
-435.719	-65.257	0.057	-0.023
-434.705	-200.000	-0.023	-0.145
-433.690	800.000	0.045	-0.189
-432.676	-117.654	-0.155	0.028
-431.661	272.403	0.119	-0.212
-430.646	-43.660	-0.348	0.177
-429.632	93.834	-0.179	-0.205
-428.617	46.462	0.148	-0.139
-427.603	157.494	-0.065	-0.090
-426.588	-99.986	-0.160	0.040
-425.573	-61.346	-0.169	0.072
-424.559	-200.000	0.013	-0.072
-423.544	800.000	0.049	-0.186
-422.530	-72.543	-0.285	0.107
-421.515	-134.386	-0.299	-0.037
-420.500	108.463	0.116	0.140
-419.486	-120.514	0.180	0.031
-418.471	286.117	0.021	0.038
-417.457	67.022	-0.170	0.176
-416.442	-83.907	0.272	0.088
-415.428	463.996	0.109	0.247
-414.413	-22.765	0.358	-0.218
-413.398	232.132	0.039	0.065
-412.384	46.204	-0.257	0.240
-411.369	40.757	0.419	0.383
-410.355	-200.000	0.037	-0.231
-409.340	86.657	-0.231	0.258
-408.325	-200.000	0.022	-0.211
-407.311	-200.000	-0.011	0.050
-406.296	-200.000	-0.010	0.128
-405.282	-121.551	0.277	-0.046
-404.267	-39.035	0.041	-0.022
-403.252	-22.886	-0.173	-0.106
-402.238	37.949	0.064	0.058
-401.223	-200.000	-0.038	0.450
-400.209	635.622	0.043	0.109
-399.194	154.428	-0.130	-0.180
-398.179	800.000	-0.065	0.247
-397.165	148.211	0.158	0.215
-396.150	111.488	-0.178	0.217
-395.136	-100.156	-0.361	0.091
-394.121	93.573	-0.324	0.371
-393.106	800.000	0.111	0.376
-392.092	-200.000	0.058	0.282
-391.077	13.999	0.089	0.070
-390.063	-200.000	-0.000	-0.003
-389.048	116.222	0.098	-0.121
-388.033	628.257	-0.075	-0.192
-387.019	-200.000	-0.017	-0.124
-386.004	-45.679	-0.179	-0.089
-384.990	-82.925	-0.240	-0.078
-383.975	-15.586	0.132	-0.085
-382.960	291.157	-0.129	-0.237
-381.946	-195.251	-0.259	0.002
-380.931	-57.779	-0.409	0.181
-379.917	-120.767	-0.150	0.026
-378.902	404.740	0.057	-0.122
-377.888	170.844	-0.183	-0.266
-376.873	-125.430	0.114	0.018
-375.858	-48.178	-0.242	0.118
-374.844	-92.282	-0.205	-0.058
-373.829	18.882	0.250	0.202
-372.815	800.000	0.070	-0.225
-371.800	-200.000	-0.018	-0.334
-370.785	-196.809	0.057	-0.000
-369.771	800.000	0.078	-0.269
-368.756	800.000	0.110	-0.387
-367.742	94.491	0.122	0.140
-366.727	317.321	0.059	-0.113
-365.712	-125.400	0.396	-0.061
-364.698	361.230	-0.104	-0.210
-363.683	81.727	-0.107	-0.117
-362.669	-137.545	0.165	-0.019
-361.654	-66.215	-0.158	0.064
-360.639	-122.219	0.289	-0.048
-359.625	19.624	0.099	0.081
-358.610	136.327	-0.201	-0.264
-357.596	800.000	0.009	-0.039
-356.581	-143.180	-0.217	0.021
-355.566	800.000	0.044	0.179
-354.552	-200.000	0.018	0.281
-353.537	111.773	-0.000	-0.001
-352.523	137.883	-0.079	0.105
-351.508	75.593	-0.190	0.203
-350.493	33.460	-0.191	0.168
-349.479	800.000	0.032	0.136
-348.464	-200.000	0.011	-0.202
-347.450	800.000	-0.081	-0.346
-346.435	-200.000	-0.037	-0.226
-345.420	-97.050	0.230	-0.061
-344.406	-200.000	-0.037	0.213
-343.391	-147.844	0.136	0.011
-342.377	123.418	0.054	0.068
-341.362	-48.510	0.103	-0.050
-340.348	422.261	0.068	0.147
-339.333	81.587	-0.323	0.352
-338.318	-133.043	-0.422	-0.054
-337.304	-200.000	0.026	0.147
-336.289	420.453	0.162	-0.350
-335.275	62.392	0.123	-0.124
-334.260	197.172	0.072	-0.111
-333.245	-200.000	0.015	-0.243
-332.231	624.007	0.040	-0.103
-331.216	141.551	-0.116	0.155
-330.202	-73.396	-0.219	0.081
-329.187	150.235	0.067	-0.092
-328.172	-102.986	0.137	0.033
-327.158	20.339	0.251	0.205
-326.143	-151.881	0.325	-0.024
-325.129	577.651	0.098	-0.241
-324.114	403.685	0.112	-0.237
-323.099	-200.000	0.012	-0.056
-322.085	-186.961	0.069	0.001
-321.070	-2.968	-0.158	0.111
-320.056	188.336	0.067	0.101
-319.041	800.000	-0.084	0.301
-318.026	537.943	0.087	0.209
-317.012	110.149	-0.019	-0.023
-315.997	141.238	0.169	0.225
-314.983	-200.000	-0.025	-0.343
-313.968	287.114	-0.162	-0.295
-312.953	-50.717	-0.166	0.079
-311.939	-140.368	-0.159	-0.017
-310.924	-86.571	-0.270	0.083
-309.910	121.901	-0.062	-0.078
-308.895	-200.000	0.061	-0.382
-307.880	-200.000	0.022	0.168
-306.866	-107.575	-0.306	-0.067
-305.851	-27.161	-0.308	0.181
-304.837	-120.974	0.137	-0.023
-303.822	-200.000	-0.001	0.069
-302.807	-157.606	0.382	0.023
-301.793	438.048	0.061	-0.134
-300.778	28.649	-0.014	-0.012
-299.764	-15.241	-0.295	-0.190
-298.749	-1.260	-0.143	-0.102
-297.735	-159.674	0.028	0.002
-296.720	519.374	0.189	-0.445
-295.705	1.604	0.131	0.095
-294.691	-20.970	0.208	0.128
-293.676	800.000	0.083	-0.281
-292.662	800.000	0.037	-0.116
-291.647	-200.000	-0.004	-0.143
-290.632	158.027	-0.087	0.121
-289.618	800.000	0.034	-0.102
-288.603	-158.115	0.276	-0.016
-287.589	122.311	0.149	-0.188
-286.574	12.348	0.106	0.082
-285.559	140.646	-0.271	-0.360
-284.545	254.076	-0.025	-0.042
-283.530	789.174	-0.048	-0.133
-282.516	184.982	-0.151	-0.226
-281.501	-96.430	0.088	0.023
-280.486	-150.845	-0.268	-0.020
-279.472	158.575	0.069	0.096
-278.457	726.626	0.062	-0.168
-277.443	745.136	0.072	-0.194
-276.428	-123.986	-0.126	-0.020
-275.413	-61.579	-0.396	0.167
-274.399	-184.663	-0.204	0.003
-273.384	-200.000	-0.019	-0.266
-272.370	-200.000	-0.018	0.097
-271.355	800.000	0.122	-0.361
-270.340	-200.000	0.021	0.176
-269.326	-79.837	-0.298	0.101
-268.311	-4.315	-0.176	-0.123
-267.297	800.000	0.001	-0.005
-266.282	-200.000	0.063	-0.283
-265.267	-200.000	0.039	0.241
-264.253	114.728	0.129	-0.158
-263.238	-157.743	-0.108	-0.006
-262.224	-43.598	-0.137	-0.069
-261.209	-51.265	0.243	0.115
-260.195	-160.559	-0.211	0.011
-259.180	-50.409	0.570	0.271
-258.165	11.679	-0.194	0.150
-257.151	800.000	0.062	-0.227
-256.136	-200.000	0.004	0.195
-255.122	-200.000	0.045	0.319
-254.107	65.364	-0.076	-0.077
-253.092	162.831	-0.081	0.115
-252.078	-8.401	0.241	0.163
-251.063	141.872	0.062	0.083
-250.049	800.000	-0.115	-0.459
-249.034	-39.512	0.238	-0.125
-248.019	52.882	0.184	-0.177
-247.005	-29.299	-0.203	0.117
-245.990	-2.945	0.207	0.145
-244.976	-61.785	0.152	-0.064
-243.961	-34.871	-0.228	0.125
-242.946	800.000	-0.080	0.298
-241.932	28.201	-0.254	-0.215
-240.917	-89.414	0.239	0.071
-239.903	156.654	0.178	0.247
-238.888	-200.000	-0.038	0.234
-237.873	-200.000	-0.009	-0.101
-236.859	88.992	0.092	0.103
-235.844	229.090	-0.189	0.309
-234.830	11.765	0.352	0.272
-233.815	-110.838	-0.112	0.023
-232.800	625.678	-0.074	-0.187
-231.786	-111.508	-0.341	-0.070
-230.771	55.252	-0.168	0.163
-229.757	759.448	0.031	-0.086
-228.742	-75.530	0.170	0.061
-227.727	-15.156	-0.174	0.112
-226.713	-31.418	-0.192	-0.108
-225.698	70.159	0.025	0.026
-224.684	-156.253	0.156	-0.010
-223.669	412.258	-0.151	-0.323
-222.655	114.740	0.079	-0.097
-221.640	-145.598	-0.314	0.028
-220.625	26.172	0.329	0.275
-219.611	11.539	0.183	0.141
-218.596	-84.540	-0.214	0.068
-217.582	-156.439	0.208	-0.013
-216.567	293.115	0.167	0.306
-215.552	800.000	0.062	0.265
-214.538	-200.000	-0.023	-0.398
-213.523	800.000	0.089	-0.282
-212.509	-76.346	0.253	0.089
-211.494	-108.690	0.291	-0.063
-210.479	-165.983	0.199	-0.009
-209.465	14.740	0.214	-0.168
-208.450	-23.600	0.196	-0.118
-207.436	-200.000	0.047	0.210
-206.421	693.339	-0.107	-0.281
-205.406	527.627	0.069	0.163
-204.392	32.973	0.045	-0.039
-203.377	12.860	-0.155	-0.121
-202.363	52.107	0.086	0.082
-201.348	414.231	-0.030	0.063
-200.333	-72.461	-0.140	0.052
-199.319	18.596	0.258	0.207
-198.304	-134.967	0.323	-0.039
-197.290	800.000	0.047	0.185
-196.275	330.530	0.042	0.081
-195.260	-200.000	0.006	-0.064
-194.246	124.573	-0.125	0.158
-193.231	109.884	-0.113	-0.136
-192.217	267.785	0.105	0.185
-191.202	157.693	0.108	-0.150
-190.187	800.000	0.060	-0.206
-189.173	192.821	0.125	0.189
-188.158	28.266	0.142	-0.120
-187.144	-95.226	0.181	0.049
-186.129	62.193	-0.213	0.213
-185.114	19.015	-0.142	0.114
-184.100	339.393	0.123	-0.241
-183.085	-70.150	-0.207	-0.079
-182.071	149.644	0.273	0.371
-181.056	288.824	-0.024	-0.043
-180.042	-103.104	-0.397	-0.094
-179.027	4.459	0.144	0.106
-178.012	-140.341	-0.206	-0.022
-176.998	-200.000	0.015	0.274
-175.983	-200.000	-0.039	0.403
-174.969	-3.212	0.355	-0.248
-173.954	-95.953	0.180	-0.048
-172.939	-200.000	-0.010	0.114
-171.925	-96.370	-0.162	-0.043
-170.910	83.073	0.121	-0.132
-169.896	490.773	0.022	0.051
-168.881	247.146	-0.109	-0.185
-167.866	199.193	-0.056	-0.087
-166.852	164.246	0.049	-0.069
-165.837	-200.000	-0.055	-0.317
-164.823	-52.012	-0.038	0.018
-163.808	44.791	-0.230	-0.212
-162.793	270.282	-0.135	0.237
-161.779	53.188	0.165	-0.159
-160.764	28.098	-0.119	-0.101
-159.750	-106.417	-0.139	0.031
-158.735	9.419	0.221	0.167
-157.720	316.435	0.140	-0.264
-156.706	34.636	0.319	-0.279
-155.691	624.510	-0.162	0.410
-154.677	-95.284	-0.137	0.037
-153.662	373.993	-0.080	-0.162
-152.647	-49.159	0.099	-0.047
-151.633	93.346	-0.064	0.073
-150.618	173.185	0.153	0.221
-149.604	507.426	0.114	-0.265
-148.589	-102.491	0.159	-0.038
-147.574	-200.000	0.017	0.126
-146.560	79.256	0.163	0.175
-145.545	-49.378	0.086	0.041
-144.531	800.000	-0.072	0.245
-143.516	800.000	0.072	-0.299
-142.502	-7.203	0.135	0.092
-141.487	-74.269	0.255	0.092
-140.472	418.942	-0.053	-0.114
-139.458	800.000	-0.038	0.135
-138.443	333.655	0.164	-0.317
-137.429	-11.067	0.192	-0.127
-136.414	40.259	-0.120	0.108
-135.399	-153.564	0.160	-0.011
-134.385	-34.183	-0.416	0.229
-133.370	-162.176	-0.075	0.004
-132.356	485.604	0.176	-0.402
-131.341	22.793	-0.086	0.071
-130.326	333.119	0.053	0.102
-129.312	-200.000	-0.024	0.423
-128.297	-200.000	0.007	0.254
-127.283	-83.927	-0.229	0.073
-126.268	99.065	0.179	0.206
-125.253	-43.913	-0.169	-0.085
-124.239	-200.000	0.013	-0.239
-123.224	233.278	-0.172	-0.283
-122.210	-33.100	0.021	0.012
-121.195	-77.283	-0.244	-0.085
-120.180	-125.067	0.108	0.017
-119.166	-27.127	0.436	-0.254
-118.151	-159.771	-0.145	-0.008
-117.137	-127.073	0.336	0.049
-116.122	9.548	-0.167	0.127
-115.107	-21.332	0.206	0.126
-114.093	4.166	0.275	0.201
-113.078	111.624	0.232	0.280
-112.064	800.000	-0.042	0.150
-111.049	258.547	-0.064	-0.110
-110.034	370.966	-0.031	-0.062
-109.020	-200.000	0.005	-0.087
-108.005	235.060	0.104	0.171
-106.991	800.000	0.063	-0.191
-105.976	526.082	-0.027	0.064
-104.962	-200.000	0.038	-0.237
-103.947	-33.962	-0.184	0.101
-102.932	-2.389	0.147	0.103
-101.918	-118.912	0.154	0.027
-100.903	-3.989	-0.452	-0.313
-99.889	-56.570	-0.275	-0.122
-98.874	41.556	0.223	0.202
-97.859	179.017	0.084	-0.123
-96.845	-151.111	0.256	0.019
-95.830	-200.000	0.028	0.205
-94.816	101.127	0.176	-0.204
-93.801	-159.597	0.305	-0.017
-92.786	282.172	-0.031	0.056
-91.772	-129.979	0.278	0.038
-90.757	800.000	0.059	-0.166
-89.743	-200.000	0.004	-0.072
-88.728	-117.580	0.109	0.020
-87.713	-92.179	-0.154	-0.043
-86.699	324.937	0.085	0.162
-85.684	-200.000	0.035	0.180
-84.670	-36.398	0.131	-0.071
-83.655	776.333	-0.075	-0.205
-82.640	-50.402	0.151	0.071
-81.626	-200.000	-0.010	-0.110
-80.611	299.827	0.138	-0.255
-79.597	-200.000	-0.002	-0.220
-78.582	102.975	-0.038	0.044
-77.567	-200.000	-0.001	-0.048
-76.553	-200.000	-0.048	0.306
-75.538	-41.105	0.133	0.068
-74.524	83.068	-0.166	-0.180
-73.509	-25.090	-0.215	-0.127
-72.494	-88.901	-0.327	-0.097
-71.480	289.651	0.068	0.123
-70.465	-93.456	-0.365	0.101
-69.451	412.288	0.010	0.022
-68.436	-200.000	-0.010	-0.052
-67.422	-68.937	0.145	0.056
-66.407	60.197	0.240	-0.237
-65.392	136.742	0.057	0.074
-64.378	102.616	0.150	-0.176
-63.363	79.682	0.124	0.132
-62.349	-133.387	-0.164	0.021
-61.334	-64.328	-0.883	-0.359
-60.319	-200.000	0.005	0.193
-59.305	-200.000	-0.096	-0.954
-58.290	522.666	0.299	0.700
-57.276	472.538	0.746	1.676
-56.261	-200.000	75.442	550.173
-55.246	575.021	1303.326	3173.242
-54.232	145.730	2530.916	3383.086
-53.217	122.344	2235.447	2785.872
-52.203	54.999	1751.848	1687.517
-51.188	46.731	1546.095	1432.174
-50.173	43.852	1515.449	1384.089
-49.159	60.574	1551.384	1532.462
-48.144	67.239	1571.585	1598.211
-47.130	47.162	1534.757	1424.412
-46.115	43.332	1520.225	1384.667
-45.100	43.189	1516.695	1380.420
-44.086	43.244	1514.632	1378.859
-43.071	43.118	1512.527	1376.033
-42.057	43.109	1510.861	1374.397
-41.042	43.002	1509.400	1372.286
-40.027	43.012	1508.507	1371.487
-39.013	43.135	1506.537	1370.479
-37.998	43.036	1505.522	1368.825
-36.984	43.161	1504.011	1368.245
-35.969	43.160	1502.748	1367.041
-34.954	43.225	1501.277	1366.084
-33.940	43.105	1500.014	1364.068
-32.925	43.063	1498.438	1362.301
-31.911	43.150	1496.965	1361.494
-30.896	43.283	1495.188	1360.721
-29.881	43.241	1494.165	1359.453
-28.867	43.292	1493.274	1358.931
-27.852	43.218	1492.000	1357.216
-26.838	43.187	1490.210	1355.331
-25.823	43.158	1488.727	1353.733
-24.809	43.236	1486.394	1352.080
-23.794	43.014	1485.784	1349.985
-22.779	43.114	1484.186	1349.146
-21.765	43.183	1483.278	1348.730
-20.750	43.183	1482.105	1347.610
-19.736	43.211	1481.012	1346.750
-18.721	43.133	1479.821	1345.096
-17.706	43.178	1478.248	1343.911
-16.692	43.154	1477.388	1342.917
-15.677	43.118	1476.686	1341.983
-14.663	43.194	1475.356	1341.226
-13.648	43.120	1474.281	1339.701
-12.633	43.153	1473.505	1339.168
-11.619	43.251	1472.962	1339.271
-10.604	43.075	1472.359	1337.500
-9.590	43.119	1471.223	1336.710
-8.575	43.148	1470.491	1336.182
-7.560	43.159	1469.434	1335.242
-6.546	43.248	1468.435	1334.870
-5.531	43.162	1467.453	1333.351
-4.517	43.084	1466.740	1332.138
-3.502	43.103	1465.856	1331.410
-2.487	43.204	1464.833	1331.092
-1.473	43.098	1463.938	1329.526
-0.458	43.110	1462.193	1327.966
0.556	42.134	1452.997	1315.299
1.571	38.453	1424.170	1265.344
2.586	33.773	1361.458	1180.506
3.600	31.387	1278.915	1094.876
4.615	29.364	1231.032	1042.373
5.629	24.565	1173.312	967.486
6.644	12.521	1082.140	831.686
7.659	2.898	1034.602	748.364
8.673	1.448	1028.586	736.914
9.688	1.203	1025.782	733.660
10.702	1.064	1024.410	731.939
11.717	1.156	1022.461	730.926
12.731	4.793	1027.749	752.238
13.746	15.517	1042.272	815.110
14.761	22.833	1051.850	858.231
15.775	23.813	1051.494	862.623
16.790	24.023	1050.811	863.002
17.804	23.733	1050.424	861.202
18.819	23.467	1049.800	859.328
19.834	23.634	1049.104	859.492
20.848	23.675	1048.605	859.203
21.863	23.822	1048.207	859.511
22.877	23.794	1047.575	858.782
23.892	23.682	1047.198	857.859
24.907	23.637	1046.235	856.774
25.921	23.558	1045.938	856.075
26.936	23.646	1044.967	855.627
27.950	23.698	1043.498	854.598
28.965	23.570	1042.510	853.102
29.980	23.471	1041.420	851.656
30.994	23.463	1040.136	850.493
32.009	23.733	1038.679	850.520
33.023	23.768	1038.709	850.634
34.038	23.614	1037.214	848.598
35.053	23.549	1036.783	847.863
36.067	23.743	1035.975	848.052
37.082	23.552	1035.437	846.624
38.096	23.638	1034.861	846.491
39.111	23.903	1033.940	846.925
40.126	23.968	1032.990	846.382
41.140	23.703	1032.201	844.400
42.155	23.579	1030.448	842.300
43.169	23.365	1028.921	839.967
44.184	23.219	1028.279	838.675
45.199	23.320	1027.601	838.524
46.213	23.297	1026.342	837.316
47.228	23.182	1025.557	836.058
48.242	23.437	1024.486	836.313
49.257	23.574	1023.940	836.441
50.271	23.541	1023.245	835.644
51.286	23.731	1022.829	836.122
52.301	23.777	1021.510	835.188
53.315	23.737	1021.433	834.861
54.330	23.614	1020.720	833.631
55.344	23.591	1019.559	832.498
56.359	23.700	1018.567	832.125
57.374	23.612	1017.858	831.059
58.388	23.468	1016.996	829.612
59.403	23.455	1015.943	828.618
60.417	23.450	1015.473	828.137
61.432	23.319	1014.661	826.791
62.447	23.229	1014.147	825.877
63.461	23.340	1013.574	825.857
64.476	23.427	1012.817	825.570
65.490	23.467	1012.030	825.045
66.505	23.410	1010.872	823.762
67.520	23.372	1010.151	822.922
68.534	23.439	1009.261	822.436
69.549	23.270	1008.462	820.932
70.563	23.206	1006.927	819.313
71.578	22.945	1006.476	817.663
72.593	22.948	1005.881	817.124
73.607	22.863	1004.547	815.574
74.622	22.866	1003.702	814.830
75.636	23.087	1003.213	815.380
76.651	23.313	1002.342	815.641
77.666	23.135	1001.676	814.206
78.680	23.008	1000.956	812.968
79.695	23.121	1000.013	812.646
80.709	23.141	999.606	812.337
81.724	23.092	999.340	811.823
82.739	23.260	997.930	811.375
83.753	23.213	997.245	810.534
84.768	23.528	996.230	811.075
85.782	23.840	996.142	812.358
86.797	23.911	995.410	812.015
87.812	23.974	994.443	811.442
88.826	23.842	993.379	809.902
89.841	23.735	992.688	808.776
90.855	23.847	992.133	808.765
91.870	23.957	991.186	808.418
92.884	23.902	990.474	807.515
93.899	23.803	989.765	806.418
94.914	23.784	988.128	804.928
95.928	23.803	988.164	804.971
96.943	23.789	987.064	803.941
97.957	23.537	985.836	801.734
98.972	23.244	984.993	799.653
99.987	23.145	983.822	798.181
101.001	23.329	983.446	798.635
102.016	23.490	982.843	798.802
103.030	23.715	982.092	799.132
104.045	23.533	980.625	797.051
105.060	23.411	979.744	795.718
106.074	23.306	978.282	793.987
107.089	23.390	977.427	793.599
108.103	23.451	978.064	794.323
109.118	23.672	977.039	794.407
110.133	23.411	975.304	791.762
111.147	23.272	974.769	790.634
112.162	23.362	973.263	789.747
113.176	23.094	972.009	787.466
114.191	23.232	971.444	787.551
115.206	23.281	970.727	787.120
116.220	23.078	969.520	785.169
117.235	22.838	968.456	783.174
118.249	23.032	967.948	783.553
119.264	23.105	966.910	782.965
120.279	22.982	966.392	781.935
121.293	23.013	965.629	781.386
122.308	23.112	965.113	781.335
123.322	23.146	964.085	780.586
124.337	23.116	963.145	779.623
125.352	23.000	961.842	777.986
126.366	22.475	960.474	774.504
127.381	22.315	958.892	772.459
128.395	22.678	959.114	774.159
129.410	23.285	958.592	776.332
130.424	23.720	957.544	777.319
131.439	23.604	956.841	776.176
132.454	23.555	955.895	775.123
133.468	23.567	955.021	774.400
134.483	23.486	954.446	773.511
135.497	23.611	953.329	773.081
136.512	23.720	953.236	773.410
137.527	23.745	952.557	772.901
138.541	23.870	951.671	772.658
139.556	23.915	950.665	771.967
140.570	23.772	950.119	770.835
141.585	23.897	949.468	770.783
142.600	23.912	948.829	770.260
143.614	23.851	947.494	768.845
144.629	23.898	946.573	768.231
145.643	24.046	946.516	768.758
146.658	23.996	945.328	767.509
147.673	23.763	944.184	765.509
148.687	23.691	943.166	764.303
149.702	23.729	941.824	763.314
150.716	23.621	940.959	762.081
151.731	23.524	940.237	761.011
152.746	23.581	939.537	760.621
153.760	23.720	938.842	760.588
154.775	23.985	938.270	761.193
155.789	23.836	937.865	760.157
156.804	23.879	936.695	759.326
157.819	23.836	935.397	758.023
158.833	23.872	934.669	757.520
159.848	23.984	934.083	757.454
160.862	24.172	933.233	757.496
161.877	23.823	932.134	755.058
162.892	23.748	931.425	754.098
163.906	23.901	930.993	754.331
164.921	23.833	929.893	753.083
165.935	23.848	928.697	752.112
166.950	23.874	927.831	751.454
167.964	24.077	926.386	751.073
168.979	23.841	925.866	749.592
169.994	23.857	924.441	748.439
171.008	23.479	923.718	746.195
172.023	23.871	922.648	746.914
173.037	24.091	921.860	747.131
174.052	23.785	921.336	745.360
175.067	23.563	920.329	743.547
176.081	23.677	919.170	743.023
177.096	23.698	918.552	742.544
178.110	23.664	918.199	742.050
179.125	23.420	917.071	740.053
180.140	23.302	915.882	738.539
181.154	23.352	914.994	737.965
182.169	23.435	914.756	738.052
183.183	23.668	914.544	738.789
184.198	23.948	913.682	739.187
185.213	23.776	913.359	738.146
186.227	23.628	912.810	737.025
187.242	23.858	912.309	737.508
188.256	23.927	911.356	736.960
189.271	23.870	911.008	736.375
190.286	24.090	909.924	736.345
191.300	23.885	908.876	734.586
192.315	23.298	907.748	731.184
193.329	22.645	906.211	727.192
194.344	22.193	905.473	724.670
195.359	22.681	905.426	726.579
196.373	23.546	905.840	730.414
197.388	23.751	905.818	731.174
198.402	23.776	905.031	730.576
199.417	23.585	904.561	729.347
200.432	23.757	903.992	729.530
201.446	23.716	903.310	728.748
202.461	23.375	902.402	726.551
203.475	23.357	902.008	726.096
204.490	23.043	900.752	723.735
205.504	21.931	898.679	717.463
206.519	22.139	898.532	718.133
207.534	23.222	898.738	722.659
208.548	23.440	898.144	723.004
209.563	23.580	898.371	723.693
210.577	23.701	897.411	723.349
211.592	23.443	896.889	721.813
212.607	23.915	896.456	723.323
213.621	24.083	896.215	723.747
214.636	23.912	895.317	722.263
215.650	24.058	894.676	722.275
216.665	24.022	893.724	721.297
217.680	23.855	893.880	720.684
218.694	24.028	893.096	720.687
219.709	23.681	892.449	718.698
220.723	23.316	891.275	716.211
221.738	23.435	891.447	716.767
222.753	23.743	890.285	717.013
223.767	23.897	889.366	716.831
224.782	23.768	888.935	715.900
225.796	23.997	888.168	716.142
226.811	24.133	887.879	716.393
227.826	23.675	887.015	713.792
228.840	22.780	885.604	708.997
229.855	22.734	884.596	707.946
230.869	23.146	884.212	709.228
231.884	22.878	883.340	707.392
232.899	22.820	882.745	706.619
233.913	23.486	883.602	709.909
234.928	23.660	882.932	710.005
235.942	23.715	881.919	709.346
236.957	23.828	881.175	709.136
237.972	23.462	880.298	706.910
238.986	23.339	879.418	705.651
240.001	23.309	879.613	705.626
241.015	23.388	878.459	704.949
242.030	23.484	877.845	704.779
243.045	23.653	877.508	705.114
244.059	23.749	877.235	705.216
245.074	23.934	876.471	705.273
246.088	23.814	875.873	704.253
247.103	23.570	874.834	702.389
248.117	23.575	874.259	701.884
249.132	24.021	874.315	703.634
250.147	24.335	874.214	704.729
251.161	24.435	873.633	704.593
252.176	24.677	872.797	704.810
253.190	24.611	872.318	704.100
254.205	24.810	871.828	704.429
255.220	24.859	871.551	704.333
256.234	24.914	870.704	703.804
257.249	24.696	870.359	702.607
258.263	24.672	869.747	701.958
259.278	24.577	869.036	700.947
260.293	24.518	869.019	700.638
261.307	24.602	868.307	700.334
262.322	24.659	867.565	699.894
263.336	24.475	867.005	698.662
264.351	24.146	865.501	696.102
265.366	23.114	863.896	690.722
266.380	22.422	862.769	687.059
267.395	23.247	863.113	690.494
268.409	24.285	862.942	694.339
269.424	24.105	862.511	693.231
270.439	24.268	862.239	693.588
271.453	24.426	861.611	693.632
272.468	24.566	860.853	693.505
273.482	24.563	860.750	693.347
274.497	24.875	859.843	693.768
275.512	24.511	858.942	691.568
276.526	24.053	857.728	688.759
277.541	24.209	857.316	688.970
278.555	24.538	857.082	689.992
279.570	24.305	856.488	688.553
280.585	24.227	855.786	687.628
281.599	24.220	855.372	687.208
282.614	24.306	854.844	687.053
283.628	24.031	853.554	684.899
284.643	23.574	852.911	682.563
285.657	24.037	852.972	684.333
286.672	23.931	851.863	682.977
287.687	23.430	851.150	680.421
288.701	23.645	851.391	681.377
289.716	24.019	851.105	682.524
290.730	23.856	849.781	680.777
291.745	23.700	849.216	679.668
292.760	23.569	848.187	678.281
293.774	23.373	847.771	677.140
294.789	24.202	848.297	680.670
295.803	24.992	848.211	683.555
296.818	25.097	847.581	683.389
297.833	25.060	847.332	682.987
298.847	24.865	846.174	681.252
299.862	24.390	845.408	678.768
300.876	24.565	844.964	679.016
301.891	24.761	844.801	679.570
302.906	24.897	844.133	679.488
303.920	24.673	842.936	677.616
304.935	24.530	842.472	676.642
305.949	24.745	842.215	677.189
306.964	24.945	841.538	677.341
307.979	24.758	840.667	675.873
308.993	24.705	840.588	675.550
310.008	25.028	840.127	676.339
311.022	25.213	839.509	676.480
312.037	24.965	839.208	675.241
313.052	24.831	838.323	673.966
314.066	24.726	837.779	673.072
315.081	24.071	836.401	669.445
316.095	23.368	835.117	665.717
317.110	23.792	835.412	667.488
318.125	24.668	835.480	670.770
319.139	24.226	834.641	668.381
320.154	23.158	832.867	662.902
321.168	22.624	831.931	660.099
322.183	23.195	832.096	662.312
323.197	24.052	832.424	665.718
324.212	24.645	831.811	667.386
325.227	24.602	832.131	667.423
326.241	24.755	831.465	667.398
327.256	24.729	830.822	666.726
328.270	24.625	829.949	665.579
329.285	24.531	829.441	664.764
330.300	24.366	828.511	663.345
331.314	24.044	828.021	661.697
332.329	24.198	827.286	661.623
333.343	24.576	826.867	662.634
334.358	24.814	826.875	663.463
335.373	24.956	825.847	663.107
336.387	24.960	825.325	662.645
337.402	25.141	825.330	663.259
338.416	25.343	824.889	663.591
339.431	25.252	824.115	662.576
340.446	25.245	823.595	662.073
341.460	25.464	823.224	662.522
342.475	25.386	822.862	661.884
343.489	25.132	822.076	660.260
344.504	25.264	821.252	660.024
345.519	25.406	821.256	660.492
346.533	25.628	820.685	660.789
347.548	25.761	820.441	661.021
348.562	25.729	819.945	660.448
349.577	25.667	819.451	659.764
350.592	25.589	818.816	658.908
351.606	25.516	818.431	658.274
352.621	25.660	817.484	657.980
353.635	25.595	817.464	657.667
354.650	25.448	817.046	656.737
355.665	25.099	816.003	654.564
356.679	24.236	814.150	649.874
357.694	23.889	813.748	648.232
358.708	24.677	813.825	651.107
359.723	24.620	813.151	650.303
360.738	24.782	813.090	650.786
361.752	25.214	812.937	652.178
362.767	25.314	812.352	652.013
363.781	25.675	812.137	653.094
364.796	25.842	812.197	653.692
365.810	26.036	811.679	653.918
366.825	26.055	811.380	653.688
367.840	26.081	811.252	653.621
368.854	25.778	810.687	652.012
369.869	25.578	809.570	650.334
370.883	25.255	809.257	648.856
371.898	25.380	808.433	648.589
372.913	25.451	807.360	647.926
373.927	25.247	806.855	646.728
374.942	25.463	806.286	646.995
375.956	25.575	805.939	647.061
376.971	25.777	805.461	647.347
377.986	25.889	804.897	647.238
379.000	26.065	804.572	647.550
380.015	25.856	804.477	646.666
381.029	25.690	803.848	645.511
382.044	25.717	803.165	645.002
383.059	25.935	802.216	644.960
384.073	25.871	802.072	644.560
385.088	25.976	801.723	644.597
386.102	25.840	801.131	643.578
387.117	25.893	800.346	643.082
388.132	25.720	799.568	641.782
389.146	25.541	799.187	640.780
390.161	25.021	798.176	638.063
391.175	25.125	797.423	637.774
392.190	25.511	797.907	639.478
393.205	25.613	797.582	639.524
394.219	24.815	795.358	634.855
395.234	23.050	793.638	627.170
396.248	22.282	792.120	623.194
397.263	23.290	793.432	627.746
398.278	25.259	794.148	635.235
399.292	25.508	794.427	636.285
400.307	25.172	793.864	634.588
401.321	25.091	793.423	633.894
402.336	25.232	792.962	633.968
403.350	25.565	792.787	634.948
404.365	26.112	792.486	636.579
405.380	26.219	792.831	637.178
406.394	26.502	792.494	637.851
407.409	26.628	792.164	637.970
408.423	26.633	791.480	637.380
409.438	26.786	790.809	637.322
410.453	26.620	790.688	636.584
411.467	26.705	789.932	636.219
412.482	26.746	789.523	635.977
413.496	26.592	789.277	635.182
414.511	26.854	788.539	635.449
415.526	26.690	788.290	634.619
416.540	26.581	787.911	633.876
417.555	26.577	787.368	633.370
418.569	26.311	786.545	631.722
419.584	26.209	786.112	630.960
420.599	26.320	785.443	630.754
421.613	89.026	1247.879	1334.974
422.628	75.675	1315.313	1335.110
