DTS Sentinel unit serial number:	SN413079Multiplexer serial number:	ORYXHardware model number:	OX4-SRSoftware version number:	ORYX F/W v4.00 Oryx Data Collector v3.7.2.0data status	okinstallation	princeton_trtdifferential loss correction	single-endedforward channel	channel 3reverse channel	N/Adate	2019/09/12time	19:37:04forward acquisition time	15.00reverse acquisition time	0.00gamma	496.2192k internal	0.2322k external	0.2322temperature offset calibration	1.0101default loss term (dB/km)	0.3790temperature slope calibration	1.0000multiplexer offset coefficient	1.0000multiplexer slope coefficient	1.0000fibre end	0.00T internal ref (°C)	32.19T ext. ref 1 (°C)	3.25T ext. ref 2 (°C)	26.71length (m)	temperature (°C)	Stokes	anti-Stokes-747.200	630.269	-0.196	0.500
-746.185	17.292	-0.732	0.587
-745.171	-67.844	0.718	-0.283
-744.156	-96.031	0.575	0.154
-743.142	-40.725	-0.615	-0.322
-742.127	-200.000	-0.019	0.292
-741.112	-39.394	0.055	0.029
-740.098	269.104	-0.293	0.519
-739.083	3.002	0.479	0.352
-738.069	-75.047	0.868	0.314
-737.054	444.658	-0.243	-0.539
-736.039	-200.000	0.021	0.201
-735.025	-200.000	-0.049	0.400
-734.010	-182.541	0.993	-0.018
-732.996	-106.903	-1.191	0.266
-731.981	-101.072	-0.831	0.206
-730.966	255.592	0.298	-0.516
-729.952	228.030	-0.533	0.876
-728.937	14.326	-0.118	-0.093
-727.923	-2.947	-0.600	0.423
-726.908	-200.000	-0.043	0.621
-725.894	47.562	-0.623	-0.586
-724.879	74.000	-0.552	-0.584
-723.864	-200.000	-0.032	0.285
-722.850	-200.000	0.051	0.638
-721.835	-200.000	0.021	0.801
-720.821	-126.423	0.640	0.096
-719.806	800.000	0.248	-0.760
-718.791	511.222	0.272	0.638
-717.777	-178.641	-0.756	0.018
-716.762	197.821	0.211	0.326
-715.748	800.000	0.150	-0.447
-714.733	477.032	0.122	0.279
-713.718	382.460	-0.182	-0.377
-712.704	608.444	0.150	-0.378
-711.689	-129.965	0.292	-0.040
-710.675	758.997	0.244	-0.666
-709.660	-135.836	-0.468	-0.056
-708.645	-35.281	-0.293	-0.161
-707.631	78.742	-0.297	0.320
-706.616	-35.987	-0.129	-0.070
-705.602	800.000	0.118	-0.373
-704.587	-200.000	-0.021	0.620
-703.572	-46.886	0.617	0.304
-702.558	308.780	-0.089	-0.167
-701.543	-93.167	-1.158	0.325
-700.529	800.000	0.150	0.551
-699.514	-166.317	-0.188	-0.008
-698.499	-99.795	-0.493	0.124
-697.485	596.111	-0.236	0.589
-696.470	76.417	0.709	-0.757
-695.456	68.173	0.109	0.112
-694.441	-122.782	0.765	0.125
-693.426	128.125	0.355	0.455
-692.412	-200.000	-0.032	0.362
-691.397	-22.023	-0.457	-0.280
-690.383	-34.731	0.416	0.229
-689.368	-129.412	0.613	-0.086
-688.354	732.759	-0.246	-0.663
-687.339	505.290	0.162	0.377
-686.324	36.445	0.203	-0.180
-685.310	-200.000	0.019	0.339
-684.295	-132.658	-0.275	-0.035
-683.281	86.552	-0.379	0.421
-682.266	-200.000	-0.121	0.924
-681.251	-200.000	-0.047	0.539
-680.237	120.249	-0.252	-0.315
-679.222	-200.000	0.068	-0.327
-678.208	-24.847	0.939	0.562
-677.193	800.000	-0.196	0.693
-676.178	11.355	0.201	0.155
-675.164	6.538	0.224	0.168
-674.149	289.404	-0.344	-0.629
-673.135	53.447	0.099	-0.096
-672.120	181.261	-0.349	0.517
-671.105	83.613	0.341	-0.375
-670.091	755.055	-0.132	-0.361
-669.076	-17.425	0.286	0.181
-668.062	612.004	0.237	0.597
-667.047	-33.812	0.419	0.233
-666.032	800.000	-0.104	0.402
-665.018	139.465	0.509	-0.675
-664.003	800.000	0.082	0.347
-662.989	-130.639	0.552	-0.075
-661.974	-52.301	0.493	0.230
-660.959	170.610	0.334	0.482
-659.945	-123.036	0.726	-0.117
-658.930	-31.165	0.166	0.094
-657.916	-200.000	0.037	0.232
-656.901	106.541	0.261	0.312
-655.886	-37.766	-0.236	-0.126
-654.872	-138.491	-1.146	-0.127
-653.857	-200.000	0.075	0.659
-652.843	-3.518	-0.339	-0.237
-651.828	-200.000	0.056	0.743
-650.814	30.283	0.273	0.234
-649.799	-7.985	0.265	-0.180
-648.784	71.554	-0.259	-0.271
-647.770	531.750	-0.175	0.416
-646.755	281.502	0.435	0.784
-645.741	161.143	0.418	0.589
-644.726	800.000	-0.035	-0.127
-643.711	-200.000	-0.089	-0.565
-642.697	-52.218	0.524	0.245
-641.682	-99.271	1.003	0.255
-640.668	115.601	0.217	-0.267
-639.653	-31.133	-0.674	-0.382
-638.638	144.867	-0.110	0.148
-637.624	-178.093	-0.197	-0.005
-636.609	-200.000	0.042	0.403
-635.595	191.038	-0.029	-0.044
-634.580	-200.000	0.087	0.739
-633.565	630.766	0.240	0.612
-632.551	95.829	0.390	0.447
-631.536	-132.385	0.101	-0.013
-630.522	-21.723	-0.492	0.301
-629.507	91.656	-0.269	0.304
-628.492	-200.000	0.008	0.126
-627.478	251.388	-0.576	0.985
-626.463	46.993	-0.216	-0.202
-625.449	50.411	0.369	-0.350
-624.434	111.736	-0.301	0.365
-623.419	28.359	-0.346	0.294
-622.405	-73.271	0.426	0.157
-621.390	22.787	-0.332	-0.274
-620.376	800.000	-0.237	-0.751
-619.361	74.346	0.431	0.455
-618.346	25.501	-0.197	0.164
-617.332	-69.773	0.293	-0.112
-616.317	-127.901	0.561	0.081
-615.303	548.038	0.303	-0.729
-614.288	-2.245	0.208	-0.147
-613.273	26.611	0.470	0.395
-612.259	-12.679	-0.202	0.132
-611.244	372.538	0.212	0.433
-610.230	169.848	0.335	-0.481
-609.215	-116.296	0.598	0.111
-608.201	-81.072	0.730	0.243
-607.186	-35.373	-0.434	-0.237
-606.171	-46.627	-0.243	0.120
-605.157	-12.047	-0.171	-0.112
-604.142	142.112	-0.350	-0.467
-603.128	335.461	0.199	-0.388
-602.113	800.000	-0.163	-0.511
-601.098	-200.000	0.110	0.940
-600.084	163.949	0.106	-0.149
-599.069	-102.106	0.309	0.075
-598.055	-102.072	-0.769	-0.186
-597.040	-90.631	-0.902	0.262
-596.025	-4.600	-0.490	0.340
-595.011	6.011	-0.665	-0.495
-593.996	-109.515	-0.596	-0.126
-592.982	-137.964	-0.474	0.053
-591.967	-200.000	0.166	-0.874
-590.952	800.000	0.239	-0.913
-589.938	-200.000	-0.070	0.789
-588.923	139.667	-0.147	-0.194
-587.909	617.377	0.185	0.466
-586.894	543.418	-0.215	-0.514
-585.879	-17.083	0.160	0.101
-584.865	279.798	-0.208	-0.373
-583.850	-154.892	-0.413	-0.027
-582.836	-200.000	0.157	-0.991
-581.821	-41.906	-0.869	-0.447
-580.806	800.000	-0.309	0.953
-579.792	97.431	-0.512	-0.590
-578.777	416.416	-0.465	-0.997
-577.763	-5.195	-0.446	-0.308
-576.748	800.000	-0.230	0.688
-575.733	800.000	-0.373	1.213
-574.719	-68.041	-0.599	-0.235
-573.704	-37.299	-0.510	-0.274
-572.690	216.136	-0.131	-0.208
-571.675	-200.000	0.012	0.458
-570.661	-18.194	-0.841	0.528
-569.646	114.698	-0.757	-0.925
-568.631	-17.608	-0.217	0.137
-567.617	-57.707	-0.325	0.143
-566.602	172.880	0.318	-0.459
-565.588	171.374	0.171	-0.246
-564.573	-169.339	-0.325	0.012
-563.558	117.205	0.177	-0.218
-562.544	-181.072	-0.468	-0.009
-561.529	-14.899	-0.279	0.180
-560.515	-119.971	-0.113	-0.019
-559.500	0.412	0.412	0.295
-558.485	-200.000	-0.044	-0.503
-557.471	636.006	0.260	0.662
-556.456	-170.720	0.130	0.004
-555.442	-200.000	0.204	0.996
-554.427	800.000	0.038	-0.118
-553.412	-15.213	0.383	-0.246
-552.398	327.051	-0.126	0.242
-551.383	413.813	-0.358	0.764
-550.369	665.750	-0.340	0.880
-549.354	34.172	-0.334	0.292
-548.339	800.000	-0.366	1.143
-547.325	300.407	-0.309	0.570
-546.310	110.283	0.456	-0.549
-545.296	-200.000	-0.048	-0.737
-544.281	-30.797	-0.429	0.243
-543.266	108.015	-0.150	-0.179
-542.252	54.811	-0.269	-0.260
-541.237	-87.430	-0.180	-0.055
-540.223	-81.144	0.175	0.058
-539.208	-19.771	-0.269	0.167
-538.193	107.029	-0.334	-0.397
-537.179	-185.467	-0.557	-0.009
-536.164	275.238	0.364	0.647
-535.150	-32.637	-0.438	-0.244
-534.135	48.243	-0.359	0.336
-533.121	-200.000	-0.064	-0.513
-532.106	486.037	0.067	-0.153
-531.091	800.000	0.311	1.162
-530.077	-98.403	0.753	-0.193
-529.062	-200.000	-0.011	0.078
-528.048	-132.944	-0.559	-0.071
-527.033	800.000	-0.100	-0.311
-526.018	13.186	0.364	-0.282
-525.004	19.450	0.398	0.320
-523.989	-200.000	0.098	-0.439
-522.975	113.210	0.331	0.402
-521.960	-132.728	0.277	-0.035
-520.945	537.591	0.028	-0.066
-519.931	668.587	-0.165	0.427
-518.916	429.148	0.291	-0.630
-517.902	-83.533	-0.385	0.123
-516.887	27.362	0.900	0.757
-515.872	-2.605	-0.273	0.191
-514.858	-200.000	-0.117	0.729
-513.843	27.943	0.329	-0.277
-512.829	-15.830	0.715	-0.456
-511.814	-200.000	0.049	-0.290
-510.799	120.665	-0.457	0.569
-509.785	-200.000	-0.007	-0.194
-508.770	14.444	0.171	0.134
-507.756	-35.205	-0.764	-0.416
-506.741	-100.350	1.313	0.326
-505.726	36.274	0.498	0.439
-504.712	-24.625	-0.708	-0.422
-503.697	403.799	-0.239	-0.504
-502.683	39.606	0.494	-0.443
-501.668	277.468	0.159	0.283
-500.653	-124.275	-1.071	0.168
-499.639	-200.000	0.138	-0.715
-498.624	154.358	-0.479	0.658
-497.610	55.696	0.171	0.166
-496.595	-147.070	0.153	-0.013
-495.581	-152.836	-0.429	0.030
-494.566	-200.000	-0.104	-0.744
-493.551	125.354	0.280	-0.354
-492.537	170.680	-0.530	-0.760
-491.522	800.000	0.046	-0.141
-490.508	-64.545	-0.252	0.102
-489.493	-200.000	-0.037	0.207
-488.478	84.638	0.071	0.078
-487.464	107.642	-0.365	0.434
-486.449	-164.841	0.863	-0.039
-485.435	378.701	-0.139	-0.285
-484.420	269.760	0.189	-0.331
-483.405	210.431	0.280	-0.439
-482.391	592.572	0.233	-0.576
-481.376	24.594	-0.339	-0.281
-480.362	-4.288	0.391	-0.271
-479.347	148.842	-0.426	-0.575
-478.332	-200.000	0.062	0.448
-477.318	34.650	0.445	0.389
-476.303	47.899	0.502	-0.468
-475.289	-2.166	-0.335	-0.235
-474.274	-121.022	0.440	-0.074
-473.259	100.283	-0.343	-0.398
-472.245	-33.736	0.220	0.121
-471.230	250.272	0.380	-0.645
-470.216	378.144	0.215	-0.439
-469.201	-13.258	0.463	-0.300
-468.186	75.138	0.843	-0.888
-467.172	-66.233	-0.728	-0.290
-466.157	170.233	0.245	0.350
-465.143	234.475	-0.398	-0.656
-464.128	330.912	0.182	-0.351
-463.113	178.994	-0.178	0.261
-462.099	491.152	-0.506	-1.158
-461.084	-200.000	0.081	0.528
-460.070	800.000	0.081	-0.249
-459.055	-200.000	0.212	-1.140
-458.040	-103.931	0.192	-0.045
-457.026	-200.000	-0.038	-0.324
-456.011	-40.175	0.320	-0.166
-454.997	319.631	-0.197	0.372
-453.982	800.000	-0.202	-0.763
-452.968	-3.379	0.494	0.344
-451.953	-200.000	-0.024	-0.358
-450.938	-116.470	1.274	-0.235
-449.924	-75.917	0.200	-0.071
-448.909	59.428	-0.323	-0.318
-447.895	-161.943	-0.832	-0.042
-446.880	-54.630	-0.377	-0.170
-445.865	91.416	-0.544	-0.610
-444.851	217.742	0.596	-0.949
-443.836	-118.937	0.224	-0.039
-442.822	181.395	-0.153	0.224
-441.807	29.652	0.501	-0.425
-440.792	13.039	0.525	0.405
-439.778	176.062	-0.247	-0.357
-438.763	265.103	0.165	-0.286
-437.749	-200.000	-0.002	0.498
-436.734	276.235	-0.131	0.232
-435.719	-91.698	0.320	-0.091
-434.705	-61.507	0.538	-0.226
-433.690	724.202	0.121	0.322
-432.676	745.673	-0.486	1.305
-431.661	800.000	-0.148	-0.598
-430.646	-11.200	-0.600	-0.395
-429.632	-57.950	-0.500	-0.218
-428.617	-141.991	0.803	0.080
-427.603	-117.060	0.407	-0.074
-426.588	115.647	-0.317	-0.387
-425.573	50.567	0.638	0.602
-424.559	800.000	-0.113	-0.454
-423.544	800.000	-0.098	0.332
-422.530	30.296	-0.212	0.181
-421.515	-122.310	-0.505	0.082
-420.500	-32.752	-0.150	0.083
-419.486	-38.688	-0.366	-0.193
-418.471	-73.834	0.776	-0.281
-417.457	-164.088	-0.651	0.030
-416.442	181.963	0.389	0.571
-415.428	-200.000	-0.023	0.216
-414.413	330.688	0.211	-0.405
-413.398	-200.000	-0.014	-1.082
-412.384	-9.009	0.663	0.442
-411.369	-200.000	0.035	0.355
-410.355	305.728	-0.080	-0.148
-409.340	-200.000	0.121	-0.667
-408.325	108.866	0.361	-0.430
-407.311	-137.206	-0.210	-0.024
-406.296	-200.000	-0.116	1.095
-405.282	-70.804	-0.317	0.119
-404.267	800.000	-0.105	-0.380
-403.252	-200.000	-0.020	0.280
-402.238	11.382	0.826	0.631
-401.223	349.962	-0.181	0.356
-400.209	70.697	-0.193	0.199
-399.194	242.698	0.139	-0.232
-398.179	800.000	-0.060	-0.255
-397.165	-132.140	-0.447	0.058
-396.150	-200.000	-0.004	-0.247
-395.136	-108.233	0.611	0.132
-394.121	-86.931	-0.561	-0.171
-393.106	1.166	-0.321	-0.229
-392.092	-51.108	0.580	-0.271
-391.077	-200.000	0.039	0.424
-390.063	-96.427	-0.544	-0.143
-389.048	-200.000	0.025	0.232
-388.033	4.676	0.364	-0.266
-387.019	-33.383	-0.589	0.325
-386.004	-37.850	-0.741	-0.393
-384.990	-200.000	-0.067	-0.460
-383.975	-75.753	0.648	0.229
-382.960	-92.070	-0.458	-0.129
-381.946	101.273	-0.135	-0.157
-380.931	-132.196	0.441	-0.057
-379.917	-21.774	0.135	-0.082
-378.902	-74.601	0.436	-0.156
-377.888	41.701	-0.395	-0.356
-376.873	755.293	-0.276	0.744
-375.858	191.018	0.100	0.149
-374.844	339.429	0.355	-0.689
-373.829	677.466	0.258	0.668
-372.815	-139.064	1.136	0.122
-371.800	-22.894	-0.958	0.575
-370.785	-121.170	-0.583	0.097
-369.771	-200.000	-0.167	-0.868
-368.756	-86.035	0.733	-0.225
-367.742	-200.000	0.008	0.340
-366.727	-63.960	-0.400	-0.163
-365.712	-33.438	-0.352	-0.193
-364.698	94.204	-0.526	0.594
-363.683	-200.000	0.123	0.638
-362.669	-200.000	-0.090	0.774
-361.654	-103.970	1.092	0.254
-360.639	560.919	0.117	-0.281
-359.625	87.639	0.539	0.594
-358.610	64.582	0.154	0.155
-357.596	-95.129	-1.140	0.306
-356.581	248.097	-0.667	1.123
-355.566	-45.354	0.548	0.271
-354.552	800.000	-0.158	0.502
-353.537	-58.916	0.189	0.081
-352.523	800.000	0.338	-0.951
-351.508	-81.761	-0.802	0.261
-350.493	-116.841	0.894	-0.163
-349.479	-62.317	-1.060	-0.439
-348.464	-75.848	1.051	-0.370
-347.450	105.920	0.251	-0.295
-346.435	-98.242	-0.733	-0.187
-345.420	800.000	0.331	1.055
-344.406	-164.351	0.346	0.016
-343.391	-128.261	-0.165	0.023
-342.377	-175.376	-0.449	-0.012
-341.362	-200.000	0.058	-0.914
-340.348	-57.469	-0.503	-0.220
-339.333	-12.147	-0.389	-0.253
-338.318	-45.419	0.475	0.234
-337.304	434.877	0.310	0.670
-336.289	-192.109	-0.718	-0.007
-335.275	243.966	-0.313	0.523
-334.260	468.885	0.048	0.108
-333.245	-200.000	-0.037	0.398
-332.231	-17.291	0.331	0.207
-331.216	-200.000	0.036	0.657
-330.202	-103.227	-0.019	0.005
-329.187	44.037	-0.308	0.281
-328.172	-200.000	-0.045	-0.199
-327.158	-200.000	0.013	-0.635
-326.143	138.973	0.393	0.513
-325.129	-200.000	0.002	-0.387
-324.114	-53.810	1.020	0.462
-323.099	557.211	-0.351	-0.840
-322.085	-153.499	-0.513	-0.035
-321.070	800.000	-0.198	-0.666
-320.056	96.936	-0.585	-0.667
-319.041	322.050	0.195	0.369
-318.026	-173.381	-0.928	0.028
-317.012	-200.000	-0.080	-0.420
-315.997	-70.738	0.594	-0.223
-314.983	80.794	-0.027	0.029
-313.968	-200.000	-0.038	-0.767
-312.953	800.000	0.127	0.453
-311.939	79.774	0.190	0.203
-310.924	150.934	-0.452	-0.610
-309.910	209.552	-0.363	0.566
-308.895	800.000	-0.120	0.421
-307.880	421.432	0.234	0.499
-306.866	419.358	0.249	-0.528
-305.851	-200.000	-0.104	0.570
-304.837	-52.642	-1.196	0.548
-303.822	-37.785	0.267	-0.141
-302.807	-61.012	0.374	0.157
-301.793	-69.713	-0.627	-0.238
-300.778	216.825	-0.253	-0.400
-299.764	800.000	0.069	0.210
-298.749	360.932	0.188	0.373
-297.735	-75.009	0.584	-0.207
-296.720	361.974	-0.075	0.149
-295.705	800.000	0.197	0.808
-294.691	796.144	0.370	1.012
-293.676	188.853	-0.125	0.186
-292.662	-21.225	0.412	-0.250
-291.647	-40.515	1.088	-0.560
-290.632	-200.000	0.045	-0.430
-289.618	129.904	0.315	-0.400
-288.603	-72.968	-0.572	-0.209
-287.589	718.574	-0.134	-0.353
-286.574	-80.566	0.177	-0.058
-285.559	-71.012	0.529	0.197
-284.545	-200.000	-0.076	-0.485
-283.530	-129.047	-0.199	0.028
-282.516	800.000	0.093	0.336
-281.501	-15.935	0.395	0.249
-280.486	800.000	0.066	-0.261
-279.472	60.729	0.095	-0.093
-278.457	-200.000	0.038	-0.386
-277.443	303.729	0.469	0.862
-276.428	-200.000	0.081	0.718
-275.413	188.242	-0.243	-0.360
-274.399	-167.021	0.199	0.008
-273.384	-200.000	0.155	0.779
-272.370	-163.162	0.157	0.008
-271.355	-1.672	0.549	0.384
-270.340	-200.000	-0.151	-0.965
-269.326	33.396	-0.168	-0.145
-268.311	-200.000	-0.014	0.691
-267.297	800.000	-0.162	0.631
-266.282	-160.749	0.658	-0.035
-265.267	-77.164	0.308	-0.106
-264.253	-142.589	0.405	-0.039
-263.238	-101.286	-0.199	-0.048
-262.224	-173.561	1.143	0.034
-261.209	-200.000	-0.007	0.329
-260.195	-200.000	0.130	-0.688
-259.180	50.527	0.064	0.060
-258.165	-200.000	0.047	-0.511
-257.151	-99.641	0.596	-0.148
-256.136	283.237	-0.318	0.565
-255.122	-200.000	0.018	0.732
-254.107	124.785	0.190	-0.237
-253.092	800.000	0.076	0.273
-252.078	192.490	-0.106	-0.158
-251.063	127.246	0.260	0.327
-250.049	-131.863	-0.317	-0.041
-249.034	-24.539	-0.662	-0.391
-248.019	763.813	0.021	0.057
-247.005	-67.979	-0.483	0.187
-245.990	800.000	0.052	0.177
-244.976	-103.446	0.451	-0.105
-243.961	-200.000	0.094	0.684
-242.946	-63.653	-0.610	-0.248
-241.932	-73.555	-0.332	0.120
-240.917	271.818	0.509	-0.889
-239.903	-117.583	0.662	-0.118
-238.888	88.696	-0.374	0.412
-237.873	-9.494	-0.115	-0.076
-236.859	484.575	0.461	-1.038
-235.844	-146.941	-0.452	-0.038
-234.830	-103.242	0.077	-0.018
-233.815	-80.132	-0.495	0.164
-232.800	154.622	0.091	-0.124
-231.786	323.524	0.647	-1.221
-230.771	-154.112	-0.795	-0.053
-229.757	1.455	-0.187	-0.133
-228.742	-200.000	0.036	-0.714
-227.727	-200.000	-0.073	0.627
-226.713	240.854	0.237	0.392
-225.698	18.028	1.103	-0.870
-224.684	-125.461	-0.822	-0.124
-223.669	-157.628	0.651	-0.038
-222.655	94.620	-0.440	-0.495
-221.640	-193.111	-0.243	0.002
-220.625	170.280	0.328	0.464
-219.611	-68.950	0.737	0.281
-218.596	-49.222	0.152	0.072
-217.582	800.000	0.272	0.946
-216.567	69.957	-0.412	-0.421
-215.552	-108.677	-0.419	-0.089
-214.538	28.532	-0.974	0.815
-213.523	-116.467	0.765	0.140
-212.509	34.361	-0.515	-0.445
-211.494	-42.951	0.395	-0.198
-210.479	800.000	0.118	0.347
-209.465	129.796	0.204	0.257
-208.450	-134.163	0.221	0.027
-207.436	-169.970	0.196	-0.007
-206.421	163.535	0.174	-0.241
-205.406	-200.000	-0.001	0.770
-204.392	167.232	0.415	0.582
-203.377	-50.209	-0.268	0.126
-202.363	-132.651	0.772	-0.098
-201.348	-200.000	0.049	0.485
-200.333	-3.571	0.547	0.376
-199.319	-133.426	0.148	-0.018
-198.304	-159.600	-0.343	-0.019
-197.290	65.041	-0.469	0.468
-196.275	-57.834	-0.394	-0.171
-195.260	-200.000	-0.082	0.448
-194.246	-200.000	-0.044	-0.859
-193.231	5.765	0.280	0.204
-192.217	800.000	0.178	0.637
-191.202	-200.000	-0.022	-0.132
-190.187	-67.183	-0.143	0.056
-189.173	800.000	-0.098	-0.387
-188.158	800.000	0.196	-0.586
-187.144	-18.329	-0.542	-0.335
-186.129	-62.484	-0.217	-0.089
-185.114	-200.000	-0.027	0.160
-184.100	-100.718	0.422	-0.103
-183.085	-75.518	-0.334	-0.118
-182.071	468.737	-0.362	-0.804
-181.056	32.930	0.217	-0.186
-180.042	-1.180	-0.116	-0.081
-179.027	-74.134	0.629	0.225
-178.012	-200.000	0.246	1.200
-176.998	217.568	-0.233	-0.366
-175.983	228.419	0.494	-0.794
-174.969	-200.000	-0.188	0.983
-173.954	-200.000	-0.035	-0.302
-172.939	-200.000	-0.009	0.135
-171.925	-200.000	-0.001	-0.075
-170.910	282.812	0.474	0.840
-169.896	76.905	-0.392	0.411
-168.881	-102.167	-0.387	-0.092
-167.866	800.000	0.203	0.677
-166.852	-87.775	0.649	-0.193
-165.837	800.000	-0.142	-0.402
-164.823	-76.310	0.565	0.196
-163.808	183.665	-0.246	-0.359
-162.793	78.253	-0.172	0.181
-161.779	100.587	-0.241	0.276
-160.764	-99.394	0.475	0.118
-159.750	-51.020	-0.707	0.327
-158.735	137.236	-0.425	-0.549
-157.720	-53.568	-0.291	-0.131
-156.706	-55.868	-0.082	0.036
-155.691	-146.890	0.285	-0.024
-154.677	244.568	-0.414	0.686
-153.662	-200.000	-0.051	-0.235
-152.647	-64.448	-0.048	-0.019
-151.633	-77.203	0.736	0.253
-150.618	38.275	-0.280	0.246
-149.604	-163.136	0.471	-0.022
-148.589	-37.023	-0.891	0.471
-147.574	52.501	0.149	-0.141
-146.560	-200.000	0.099	-0.541
-145.545	73.464	-0.423	-0.437
-144.531	153.120	-0.114	0.154
-143.516	254.793	0.424	-0.715
-142.502	-20.505	-0.859	-0.521
-141.487	-195.946	0.532	-0.004
-140.472	158.178	-0.416	-0.569
-139.458	-85.218	0.438	-0.135
-138.443	-46.771	0.090	0.044
-137.429	-82.866	-0.777	0.247
-136.414	58.734	0.604	-0.585
-135.399	-84.281	-0.312	0.097
-134.385	460.348	-0.272	-0.597
-133.370	-41.993	-0.220	-0.111
-132.356	-200.000	-0.132	0.799
-131.341	682.807	-0.057	0.146
-130.326	-111.016	-0.373	-0.076
-129.312	97.297	0.334	0.378
-128.297	140.157	0.620	0.806
-127.283	-200.000	0.059	0.557
-126.268	-200.000	-0.037	-0.335
-125.253	-186.573	0.509	0.007
-124.239	-49.394	0.410	0.193
-123.224	800.000	-0.148	0.589
-122.210	-97.796	0.348	-0.089
-121.195	-200.000	0.001	-0.355
-120.180	-200.000	-0.063	0.360
-119.166	-92.448	-0.356	0.099
-118.151	-154.991	-0.900	-0.058
-117.137	15.551	-0.450	-0.348
-116.122	-200.000	0.153	0.785
-115.107	197.335	0.373	-0.561
-114.093	800.000	-0.158	0.448
-113.078	800.000	-0.219	0.846
-112.064	-145.982	0.604	0.053
-111.049	800.000	0.227	0.694
-110.034	98.185	0.328	0.372
-109.020	-200.000	-0.044	-0.598
-108.005	-53.957	-0.448	0.201
-106.991	-20.238	0.908	0.551
-105.976	-67.207	-0.386	-0.150
-104.962	-126.365	-0.092	-0.013
-103.947	267.797	-0.305	-0.526
-102.932	-188.518	-0.613	-0.008
-101.918	-200.000	0.003	0.562
-100.903	84.294	0.334	0.359
-99.889	-49.262	-0.290	-0.136
-98.874	-200.000	-0.139	0.623
-97.859	-70.887	-0.307	0.114
-96.845	800.000	-0.250	0.697
-95.830	268.365	0.360	0.621
-94.816	-50.436	-0.932	0.433
-93.801	-68.549	-0.342	0.131
-92.786	-112.087	0.269	0.053
-91.772	800.000	-0.187	0.578
-90.757	218.770	0.144	-0.227
-89.743	8.204	0.524	0.387
-88.728	43.932	0.555	0.500
-87.713	-200.000	0.089	-0.600
-86.699	208.687	-0.350	-0.539
-85.684	-90.278	0.461	-0.132
-84.670	-139.622	-0.341	0.036
-83.655	471.486	-0.191	-0.424
-82.640	207.001	0.192	0.295
-81.626	730.214	-0.316	-0.832
-80.611	-200.000	0.105	0.642
-79.597	744.388	0.360	0.954
-78.582	-70.859	-0.331	0.123
-77.567	-200.000	0.041	-0.727
-76.553	690.270	0.383	-0.986
-75.538	-200.000	-0.199	-1.052
-74.524	-123.128	-1.078	0.170
-73.509	-133.849	-0.291	0.036
-72.494	-200.000	0.124	0.626
-71.480	-33.395	0.886	0.482
-70.465	-95.689	0.416	-0.110
-69.451	365.576	-0.270	0.535
-68.436	180.234	-0.186	0.268
-67.422	-200.000	-0.052	-0.378
-66.407	-56.539	-0.181	0.079
-65.392	800.000	0.362	0.987
-64.378	-80.489	-0.574	-0.188
-63.363	-63.111	0.491	0.199
-62.349	576.592	0.275	0.660
-61.334	-46.986	-0.492	0.236
-60.319	-49.364	0.904	0.424
-59.305	-200.000	-0.184	-0.894
-58.290	260.592	0.485	0.825
-57.276	800.000	0.497	1.662
-56.261	-200.000	96.495	602.270
-55.246	674.975	1353.942	3456.278
-54.232	204.433	2518.735	3839.091
-53.217	119.867	2140.003	2608.246
-52.203	43.195	1690.293	1516.980
-51.188	35.230	1505.614	1297.533
-50.173	33.238	1478.065	1260.487
-49.159	54.056	1530.392	1446.708
-48.144	54.499	1549.171	1467.407
-47.130	35.535	1506.563	1300.215
-46.115	32.404	1492.526	1267.003
-45.100	32.267	1488.277	1262.424
-44.086	32.216	1487.536	1261.407
-43.071	32.269	1485.168	1259.699
-42.057	32.045	1483.001	1256.318
-41.042	32.478	1480.803	1257.295
-40.027	32.114	1480.731	1254.752
-39.013	32.047	1478.233	1252.139
-37.998	32.142	1478.488	1252.944
-36.984	32.125	1476.861	1251.402
-35.969	32.152	1475.209	1250.129
-34.954	32.548	1473.742	1251.467
-33.940	32.110	1473.769	1248.532
-32.925	32.141	1471.216	1246.524
-31.911	32.120	1471.466	1246.544
-30.896	32.033	1469.008	1243.838
-29.881	32.051	1467.875	1242.952
-28.867	32.366	1465.929	1243.334
-27.852	32.506	1463.601	1242.234
-26.838	32.246	1463.050	1240.006
-25.823	32.304	1461.430	1238.964
-24.809	32.130	1460.494	1236.976
-23.794	32.259	1457.619	1235.337
-22.779	32.312	1457.104	1235.203
-21.765	32.332	1456.566	1234.829
-20.750	32.332	1454.930	1233.387
-19.736	32.168	1454.153	1231.608
-18.721	32.199	1452.368	1230.247
-17.706	32.196	1451.063	1229.074
-16.692	32.440	1449.927	1229.658
-15.677	31.925	1450.283	1226.549
-14.663	32.121	1448.890	1226.598
-13.648	32.297	1447.815	1226.793
-12.633	32.121	1447.206	1225.079
-11.619	32.206	1446.438	1224.935
-10.604	32.033	1445.981	1223.371
-9.590	32.188	1444.552	1223.121
-8.575	32.270	1442.668	1222.010
-7.560	32.134	1442.997	1221.356
-6.546	32.035	1441.671	1219.540
-5.531	32.013	1440.869	1218.669
-4.517	32.026	1439.722	1217.736
-3.502	31.993	1438.928	1216.806
-2.487	32.101	1437.614	1216.345
-1.473	32.244	1436.404	1216.199
-0.458	31.975	1436.120	1214.166
0.556	33.314	1426.316	1204.110
1.571	30.185	1401.226	1163.235
2.586	26.205	1343.666	1091.358
3.600	24.680	1261.910	1016.197
4.615	23.473	1216.029	972.549
5.629	20.231	1159.415	910.205
6.644	11.497	1076.071	801.983
7.659	4.540	1034.946	738.301
8.673	3.494	1029.370	729.317
9.688	3.305	1025.761	725.802
10.702	3.084	1024.560	723.850
11.717	3.118	1021.989	722.129
12.731	5.962	1026.765	738.841
13.746	14.866	1038.029	789.075
14.761	22.140	1048.885	831.825
15.775	24.203	1049.217	841.768
16.790	24.256	1047.606	840.652
17.804	23.428	1047.543	836.623
18.819	23.421	1045.627	834.985
19.834	23.266	1044.080	832.948
20.848	23.305	1044.257	833.197
21.863	23.427	1044.352	833.775
22.877	23.392	1043.187	832.604
23.892	23.267	1042.800	831.634
24.907	23.412	1041.119	830.901
25.921	23.244	1041.209	830.110
26.936	23.255	1040.294	829.363
27.950	23.029	1039.637	827.704
28.965	22.900	1037.887	825.636
29.980	22.586	1037.495	823.784
30.994	22.978	1036.471	824.726
32.009	23.270	1035.092	824.920
33.023	23.165	1034.859	824.169
34.038	23.264	1034.809	824.517
35.053	23.128	1033.623	822.866
36.067	23.089	1031.430	820.868
37.082	22.918	1031.095	819.734
38.096	23.129	1030.054	819.815
39.111	23.036	1030.082	819.331
40.126	23.257	1028.396	818.940
41.140	22.868	1027.203	816.119
42.155	22.922	1025.189	814.699
43.169	22.462	1025.033	812.382
44.184	22.445	1024.360	811.699
45.199	22.571	1021.567	809.990
46.213	22.304	1022.583	809.498
47.228	22.319	1021.838	808.902
48.242	23.022	1021.121	811.495
49.257	23.193	1021.532	812.535
50.271	23.278	1019.560	811.280
51.286	23.371	1018.416	810.724
52.301	23.247	1019.164	810.681
53.315	23.398	1018.162	810.501
54.330	23.244	1017.684	809.347
55.344	23.100	1016.853	807.957
56.359	23.090	1014.327	805.832
57.374	22.998	1014.085	805.149
58.388	22.850	1013.259	803.750
59.403	22.857	1013.045	803.540
60.417	22.596	1012.241	801.644
61.432	22.554	1010.947	800.358
62.447	22.671	1010.442	800.420
63.461	22.565	1010.137	799.624
64.476	22.658	1008.513	798.690
65.490	22.544	1008.642	798.203
66.505	22.439	1008.006	797.155
67.520	22.588	1006.066	796.226
68.534	22.509	1006.058	795.789
69.549	22.105	1005.734	793.638
70.563	22.302	1003.607	792.778
71.578	21.971	1004.006	791.529
72.593	22.093	1001.554	790.076
73.607	21.759	1000.278	787.501
74.622	21.905	999.579	787.534
75.636	21.993	999.269	787.616
76.651	22.003	997.748	786.391
77.666	22.090	997.933	786.857
78.680	21.940	998.379	786.469
79.695	22.352	996.044	786.400
80.709	22.171	995.615	785.185
81.724	22.024	995.793	784.600
82.739	22.370	993.737	784.453
83.753	22.703	993.190	785.432
84.768	22.935	993.017	786.262
85.782	23.422	994.012	789.149
86.797	23.305	993.896	788.463
87.812	23.725	991.732	788.541
88.826	23.476	990.853	786.670
89.841	23.429	990.784	786.337
90.855	23.531	989.054	785.344
91.870	23.365	989.613	784.983
92.884	23.451	988.407	784.340
93.899	23.214	987.943	782.853
94.914	23.384	987.070	782.843
95.928	23.332	985.780	781.523
96.943	23.560	984.093	781.120
97.957	23.206	983.639	779.133
98.972	23.389	982.939	779.311
99.987	22.993	982.725	777.334
101.001	23.376	982.117	778.465
102.016	23.129	981.102	776.508
103.030	23.169	980.178	775.884
104.045	23.182	979.238	775.130
105.060	23.369	978.392	775.208
106.074	23.132	977.566	773.450
107.089	23.248	975.802	772.493
108.103	22.890	975.996	771.013
109.118	22.706	974.212	768.736
110.133	22.551	972.055	766.290
111.147	22.280	971.877	764.905
112.162	22.226	971.755	764.507
113.176	22.374	970.521	764.112
114.191	22.490	969.538	763.773
115.206	22.519	968.817	763.262
116.220	22.595	967.649	762.603
117.235	22.615	966.301	761.559
118.249	22.256	967.263	760.697
119.264	22.325	965.530	759.566
120.279	22.181	964.803	758.304
121.293	22.081	963.083	756.454
122.308	21.945	962.263	755.160
123.322	21.818	962.003	754.341
124.337	21.700	961.131	753.086
125.352	21.848	959.687	752.523
126.366	21.934	958.620	751.986
127.381	21.860	958.067	751.170
128.395	22.328	956.773	752.090
129.410	22.375	956.619	752.103
130.424	22.284	955.285	750.599
131.439	21.993	955.706	749.621
132.454	22.761	953.503	751.096
133.468	22.775	952.690	750.449
134.483	22.539	953.053	749.666
135.497	22.733	951.064	748.859
136.512	22.708	951.343	748.905
137.527	22.786	951.286	749.125
138.541	22.861	950.431	748.705
139.556	22.736	948.755	746.787
140.570	22.801	948.024	746.420
141.585	23.050	947.956	747.355
142.600	23.350	947.191	747.954
143.614	23.428	946.374	747.571
144.629	23.475	946.748	747.997
145.643	23.136	945.995	745.906
146.658	23.644	944.795	747.035
147.673	23.511	943.010	744.997
148.687	23.320	942.638	743.838
149.702	22.812	941.764	740.950
150.716	22.656	940.773	739.449
151.731	22.780	939.597	738.980
152.746	22.453	940.133	737.965
153.760	22.894	939.393	739.164
154.775	23.121	937.021	738.180
155.789	22.964	937.132	737.547
156.804	23.111	936.531	737.622
157.819	23.045	935.298	736.312
158.833	23.103	934.296	735.697
159.848	23.268	933.596	735.768
160.862	23.321	933.282	735.674
161.877	23.621	932.017	735.858
162.892	23.380	930.564	733.645
163.906	22.906	929.856	731.062
164.921	22.838	928.752	729.850
165.935	22.520	927.445	727.443
166.950	23.060	926.919	729.194
167.964	22.991	925.799	727.966
168.979	23.127	925.084	727.896
169.994	22.901	923.787	725.883
171.008	22.436	924.646	724.582
172.023	23.038	922.014	724.923
173.037	22.943	922.410	724.782
174.052	23.322	922.373	726.243
175.067	23.620	920.669	726.059
176.081	23.069	919.192	722.576
177.096	22.442	919.119	719.891
178.110	22.407	917.582	718.483
179.125	22.285	916.467	717.047
180.140	22.276	915.940	716.537
181.154	22.546	915.945	717.576
182.169	22.692	914.463	716.944
183.183	22.893	915.589	718.584
184.198	23.235	915.061	719.495
185.213	22.996	913.657	717.357
186.227	23.107	913.246	717.421
187.242	22.880	912.979	716.227
188.256	23.189	912.330	716.906
189.271	23.165	911.929	716.433
190.286	23.431	910.371	716.221
191.300	23.391	908.574	714.579
192.315	22.916	907.320	711.620
193.329	22.298	906.656	708.544
194.344	22.327	906.880	708.774
195.359	22.588	905.520	708.700
196.373	23.069	905.825	710.810
197.388	23.213	906.056	711.505
198.402	23.325	905.809	711.698
199.417	23.176	906.643	711.694
200.432	23.551	905.309	712.087
201.446	23.746	904.589	712.240
202.461	23.699	904.540	711.949
203.475	23.971	903.052	711.805
204.490	23.853	902.207	710.605
205.504	23.063	901.856	707.106
206.519	22.755	901.663	705.662
207.534	22.910	901.759	706.296
208.548	23.318	899.229	705.878
209.563	23.317	898.458	705.205
210.577	22.840	899.163	703.795
211.592	22.702	899.197	703.209
212.607	23.290	897.980	704.536
213.621	23.571	896.878	704.725
214.636	23.633	895.894	704.136
215.650	23.869	895.320	704.558
216.665	23.588	894.424	702.677
217.680	23.230	894.007	700.868
218.694	23.603	894.641	702.781
219.709	23.457	893.921	701.578
220.723	23.352	892.530	700.007
221.738	23.389	892.533	700.094
222.753	22.951	892.141	697.996
223.767	23.120	890.187	697.073
224.782	22.978	891.238	697.272
225.796	23.685	889.689	698.784
226.811	23.446	889.556	697.674
227.826	23.200	888.230	695.609
228.840	22.991	887.629	694.252
229.855	23.268	885.522	693.629
230.869	23.305	885.797	693.927
231.884	22.947	884.938	691.795
232.899	23.099	883.989	691.584
233.913	22.759	884.485	690.578
234.928	22.926	883.656	690.523
235.942	22.773	882.727	689.141
236.957	22.337	881.633	686.526
237.972	22.469	881.749	687.070
238.986	22.798	880.497	687.313
240.001	22.811	879.144	686.249
241.015	22.594	878.738	685.026
242.030	22.755	878.772	685.618
243.045	22.864	877.846	685.260
244.059	22.854	877.619	684.980
245.074	23.081	876.879	685.224
246.088	23.326	876.991	686.198
247.103	23.132	876.618	685.097
248.117	23.454	876.579	686.252
249.132	23.804	876.222	687.263
250.147	23.975	875.886	687.601
251.161	24.576	874.787	688.998
252.176	24.483	875.543	689.171
253.190	24.376	874.089	687.554
254.205	24.581	873.659	687.945
255.220	24.599	872.811	687.284
256.234	24.470	872.232	686.273
257.249	24.254	870.998	684.411
258.263	24.279	870.593	684.130
259.278	24.070	871.037	683.614
260.293	23.996	870.095	682.533
261.307	24.245	870.140	683.459
262.322	24.241	868.822	682.351
263.336	24.187	868.797	682.063
264.351	23.797	868.489	680.267
265.366	24.051	866.628	679.720
266.380	24.163	865.790	679.431
267.395	24.392	865.080	679.686
268.409	24.469	865.460	680.219
269.424	24.557	864.066	679.398
270.439	24.317	863.848	678.251
271.453	24.133	862.819	676.686
272.468	24.098	862.645	676.358
273.482	24.174	862.262	676.283
274.497	23.902	861.894	674.904
275.512	24.025	860.517	674.231
276.526	23.596	859.765	671.958
277.541	24.136	859.779	673.953
278.555	24.293	857.566	672.754
279.570	24.263	857.972	672.899
280.585	24.506	857.945	673.735
281.599	24.384	857.814	673.113
282.614	24.356	856.473	671.895
283.628	24.138	855.514	670.262
284.643	23.585	854.589	667.399
285.657	24.171	854.312	669.326
286.672	23.898	854.754	668.587
287.687	23.859	853.808	667.642
288.701	23.839	853.437	667.217
289.716	23.754	853.499	666.887
290.730	23.971	852.445	666.817
291.745	24.285	851.693	667.346
292.760	23.838	851.419	665.399
293.774	23.995	850.683	665.354
294.789	24.539	850.265	667.001
295.803	24.796	849.683	667.443
296.818	24.364	848.738	665.032
297.833	24.202	849.311	664.816
298.847	24.030	847.623	662.796
299.862	24.173	846.739	662.577
300.876	24.325	846.126	662.604
301.891	24.551	846.055	663.332
302.906	24.880	845.548	664.096
303.920	24.733	845.679	663.593
304.935	24.871	844.599	663.198
305.949	25.185	843.824	663.693
306.964	24.845	843.465	662.096
307.979	24.135	843.005	659.050
308.993	24.640	841.184	659.433
310.008	24.620	840.982	659.141
311.022	24.650	841.443	659.553
312.037	24.797	839.851	658.790
313.052	24.340	841.138	658.055
314.066	24.029	839.321	655.430
315.081	23.423	838.840	652.767
316.095	23.834	837.197	652.938
317.110	24.100	836.292	653.151
318.125	24.053	836.966	653.448
319.139	23.804	836.489	652.104
320.154	23.922	835.006	651.321
321.168	23.604	834.907	650.024
322.183	23.466	835.182	649.673
323.197	24.144	833.932	651.122
324.212	23.765	834.071	649.789
325.227	23.969	833.260	649.843
326.241	23.713	833.394	648.957
327.256	24.007	831.835	648.755
328.270	24.112	830.232	647.832
329.285	23.606	830.821	646.392
330.300	23.814	830.009	646.458
331.314	23.708	829.430	645.566
332.329	23.929	828.146	645.311
333.343	23.821	828.871	645.428
334.358	24.368	828.578	647.125
335.373	24.337	828.430	646.840
336.387	24.439	827.340	646.302
337.402	24.762	826.236	646.551
338.416	24.373	827.134	645.788
339.431	24.886	826.417	647.027
340.446	24.982	826.616	647.471
341.460	25.356	825.932	648.228
342.475	24.986	824.563	645.764
343.489	25.240	823.587	645.855
344.504	25.166	823.823	645.717
345.519	25.231	823.621	645.737
346.533	25.664	822.970	646.725
347.548	25.315	822.290	644.879
348.562	25.059	822.242	643.866
349.577	25.267	820.628	643.293
350.592	25.202	819.515	642.129
351.606	24.526	820.018	640.046
352.621	24.556	819.319	639.550
353.635	24.341	818.824	638.338
354.650	24.746	818.458	639.445
355.665	24.559	817.780	638.188
356.679	24.418	817.094	637.093
357.694	24.586	816.894	637.481
358.708	24.633	816.201	637.051
359.723	24.417	815.463	635.650
360.738	24.300	815.083	634.880
361.752	24.525	814.971	635.539
362.767	24.484	814.176	634.716
363.781	24.953	814.376	636.482
364.796	25.309	814.213	637.565
365.810	25.281	813.170	636.590
366.825	25.314	813.280	636.740
367.840	25.369	814.401	637.755
368.854	25.594	813.293	637.629
369.869	25.028	811.960	634.523
370.883	24.728	811.787	633.271
371.898	25.031	809.818	632.749
372.913	25.049	809.726	632.685
373.927	25.403	809.240	633.498
374.942	25.123	807.995	631.479
375.956	24.706	807.771	629.781
376.971	25.174	807.723	631.335
377.986	25.212	807.065	630.900
379.000	25.314	807.220	631.322
380.015	25.746	806.731	632.404
381.029	25.186	806.490	630.189
382.044	25.125	804.980	628.742
383.059	25.382	805.025	629.623
384.073	25.601	804.249	629.727
385.088	25.272	803.941	628.278
386.102	25.306	802.319	627.072
387.117	24.750	801.293	624.276
388.132	24.802	801.372	624.463
389.146	24.928	801.016	624.571
390.161	24.828	799.802	623.220
391.175	25.066	799.573	623.817
392.190	25.573	799.045	625.112
393.205	25.277	799.902	624.695
394.219	24.919	799.411	623.011
395.234	24.531	797.831	620.377
396.248	24.012	797.380	618.169
397.263	24.250	797.149	618.760
398.278	24.585	796.627	619.464
399.292	24.643	795.234	618.526
400.307	24.535	794.677	617.665
401.321	24.330	795.488	617.532
402.336	24.064	795.183	616.320
403.350	24.020	795.269	616.177
404.365	24.538	795.139	617.818
405.380	25.039	794.388	618.909
406.394	25.341	794.487	619.974
407.409	25.674	793.970	620.664
408.423	26.069	793.163	621.340
409.438	25.633	793.408	619.973
410.453	25.940	792.552	620.306
411.467	26.039	792.018	620.176
412.482	25.919	790.873	618.812
413.496	25.941	791.220	619.102
414.511	26.110	790.410	618.994
415.526	25.922	789.761	617.787
416.540	25.773	789.234	616.811
417.555	25.569	788.993	615.867
418.569	25.410	789.249	615.470
419.584	25.449	788.023	614.592
420.599	25.866	787.491	615.547
421.613	160.705	1369.224	1792.443
422.628	139.110	1453.977	1792.544
