DTS Sentinel unit serial number:	SN413079Multiplexer serial number:	ORYXHardware model number:	OX4-SRSoftware version number:	ORYX F/W v4.00 Oryx Data Collector v3.7.2.0data status	okinstallation	princeton_trtdifferential loss correction	single-endedforward channel	channel 3reverse channel	N/Adate	2019/09/14time	05:24:35forward acquisition time	60.00reverse acquisition time	0.00gamma	496.2192k internal	0.2337k external	0.2337temperature offset calibration	1.0055default loss term (dB/km)	0.3790temperature slope calibration	1.0000multiplexer offset coefficient	1.0000multiplexer slope coefficient	1.0000fibre end	0.00T internal ref (°C)	26.94T ext. ref 1 (°C)	3.38T ext. ref 2 (°C)	21.92length (m)	temperature (°C)	Stokes	anti-Stokes-747.200	-33.591	-0.144	-0.080
-746.185	-49.104	-0.203	-0.098
-745.171	-200.000	0.028	0.208
-744.156	-105.747	-0.362	0.082
-743.142	41.212	-0.262	0.238
-742.127	-30.805	-0.270	-0.153
-741.112	327.840	-0.088	0.170
-740.098	-141.283	0.117	0.012
-739.083	-90.920	0.634	-0.183
-738.069	800.000	-0.064	0.270
-737.054	-200.000	0.050	0.284
-736.039	-109.173	0.238	-0.051
-735.025	-126.594	0.308	0.046
-734.010	283.834	0.031	-0.056
-732.996	78.853	-0.015	-0.016
-731.981	-200.000	0.047	0.497
-730.966	300.561	0.080	-0.149
-729.952	-16.073	0.230	-0.147
-728.937	-54.677	-0.267	-0.121
-727.923	-113.222	-0.116	0.023
-726.908	-200.000	0.003	0.364
-725.894	-162.800	-0.092	-0.005
-724.879	477.821	0.044	-0.101
-723.864	404.255	0.042	0.089
-722.850	-39.288	-0.324	-0.171
-721.835	120.344	-0.129	-0.161
-720.821	55.785	0.342	-0.332
-719.806	633.845	-0.119	-0.304
-718.791	-4.702	0.051	0.035
-717.777	800.000	-0.157	-0.485
-716.762	208.493	0.066	-0.104
-715.748	70.746	0.099	0.102
-714.733	800.000	-0.006	0.024
-713.718	-167.442	-0.154	0.006
-712.704	800.000	0.039	-0.114
-711.689	-111.418	0.087	-0.018
-710.675	-153.016	-0.195	-0.014
-709.660	20.240	-0.249	0.201
-708.645	-35.610	0.068	-0.037
-707.631	39.738	0.106	0.095
-706.616	-40.862	-0.116	-0.060
-705.602	1.102	-0.267	-0.192
-704.587	-81.079	-0.239	0.079
-703.572	-134.665	-0.063	0.008
-702.558	65.925	0.219	-0.223
-701.543	800.000	-0.123	-0.484
-700.529	50.054	-0.136	-0.129
-699.514	-60.289	0.326	0.139
-698.499	-39.055	-0.228	0.120
-697.485	-25.807	-0.313	-0.185
-696.470	30.391	-0.306	-0.262
-695.456	462.473	-0.028	0.062
-694.441	-200.000	0.053	0.291
-693.426	284.912	0.123	-0.222
-692.412	-44.620	-0.173	-0.087
-691.397	-45.665	0.160	-0.079
-690.383	442.616	0.146	-0.321
-689.368	-174.261	0.671	-0.020
-688.354	50.998	0.155	0.147
-687.339	-200.000	0.030	-0.369
-686.324	-94.849	0.319	0.087
-685.310	-10.725	0.252	-0.167
-684.295	-49.022	-0.213	-0.102
-683.281	-149.951	-0.218	0.017
-682.266	-69.637	-0.241	-0.092
-681.251	-6.722	-0.267	-0.182
-680.237	146.400	0.095	0.128
-679.222	-170.744	-0.101	0.004
-678.208	800.000	-0.019	0.067
-677.193	800.000	-0.100	0.304
-676.178	274.279	0.142	0.251
-675.164	-70.035	-0.216	0.082
-674.149	57.849	0.033	0.032
-673.135	-35.917	0.238	-0.129
-672.120	-200.000	-0.059	-0.318
-671.105	800.000	0.105	-0.335
-670.091	-200.000	-0.028	0.216
-669.076	210.652	0.064	0.100
-668.062	150.186	-0.243	-0.331
-667.047	-200.000	-0.010	0.061
-666.032	800.000	-0.110	-0.349
-665.018	-45.804	0.082	0.040
-664.003	-181.086	-0.342	0.007
-662.989	-109.041	0.031	-0.007
-661.974	86.245	0.256	0.282
-660.959	-35.193	-0.138	0.075
-659.945	-87.570	0.223	-0.067
-658.930	20.904	-0.100	-0.081
-657.916	-47.000	0.273	-0.133
-656.901	800.000	0.069	0.198
-655.886	800.000	-0.058	0.175
-654.872	56.016	0.105	0.102
-653.857	473.475	0.199	-0.448
-652.843	-17.212	-0.527	-0.332
-651.828	-56.080	-0.208	-0.093
-650.814	361.804	0.091	-0.183
-649.799	-200.000	0.019	0.245
-648.784	-167.289	0.186	0.008
-647.770	-155.122	0.034	-0.002
-646.755	121.831	-0.047	-0.058
-645.741	91.370	0.246	0.277
-644.726	-163.523	-0.274	-0.013
-643.711	-110.357	-0.383	-0.080
-642.697	-18.768	0.062	0.039
-641.682	-125.049	-0.177	-0.027
-640.668	177.859	0.053	0.077
-639.653	63.357	-0.246	-0.246
-638.638	-200.000	-0.014	-0.094
-637.624	2.449	0.181	-0.131
-636.609	78.986	-0.217	-0.232
-635.595	601.401	-0.092	-0.229
-634.580	13.329	0.071	-0.055
-633.565	-89.255	-0.081	0.024
-632.551	-49.439	0.146	0.070
-631.536	758.483	-0.054	-0.146
-630.522	25.945	0.263	-0.219
-629.507	67.262	-0.143	0.146
-628.492	-200.000	0.021	0.135
-627.478	60.914	0.256	-0.254
-626.463	-101.125	-0.266	-0.065
-625.449	199.918	-0.171	0.262
-624.434	-149.169	-0.248	0.020
-623.419	64.508	0.152	-0.153
-622.405	740.237	-0.072	0.194
-621.390	-119.345	-0.162	-0.028
-620.376	-200.000	-0.071	-0.317
-619.361	-91.478	-0.284	0.081
-618.346	-37.816	0.199	-0.106
-617.332	112.551	-0.166	0.201
-616.317	-200.000	0.026	0.291
-615.303	-120.924	0.278	-0.047
-614.288	-200.000	0.059	-0.551
-613.273	-58.311	-0.156	-0.068
-612.259	-0.988	0.287	0.203
-611.244	299.272	-0.060	0.110
-610.230	187.018	0.137	-0.204
-609.215	-42.310	0.143	-0.073
-608.201	-7.727	-0.146	-0.099
-607.186	-132.070	0.208	-0.027
-606.171	-200.000	0.004	-0.140
-605.157	384.081	0.173	-0.356
-604.142	134.541	-0.122	-0.158
-603.128	140.672	-0.131	0.173
-602.113	-90.380	-0.063	0.018
-601.098	-115.319	0.081	-0.015
-600.084	73.783	-0.175	-0.183
-599.069	13.483	-0.132	-0.102
-598.055	-80.125	0.270	0.090
-597.040	507.544	0.088	0.203
-596.025	-44.684	0.331	0.165
-595.011	-121.563	-0.146	-0.024
-593.996	-200.000	-0.012	-0.145
-592.982	-185.907	-0.302	0.004
-591.967	-200.000	-0.029	-0.135
-590.952	-41.296	0.311	-0.160
-589.938	308.121	-0.131	-0.245
-588.923	606.317	0.085	0.211
-587.909	-200.000	-0.015	0.269
-586.894	-200.000	0.031	-0.174
-585.879	800.000	-0.092	0.331
-584.865	-39.512	0.146	0.076
-583.850	38.017	-0.062	-0.055
-582.836	-161.991	-0.298	0.015
-581.821	-200.000	0.006	-0.070
-580.806	420.000	-0.078	-0.168
-579.792	-200.000	-0.021	-0.256
-578.777	-200.000	0.010	0.056
-577.763	-161.371	0.214	-0.011
-576.748	800.000	0.040	-0.144
-575.733	800.000	0.060	0.226
-574.719	-45.897	0.161	-0.079
-573.704	-91.848	-0.122	-0.035
-572.690	-46.917	0.246	-0.120
-571.675	-200.000	-0.016	0.311
-570.661	-108.444	-0.113	0.024
-569.646	112.458	-0.172	0.207
-568.631	-109.277	-0.372	0.079
-567.617	726.105	-0.114	0.304
-566.602	-200.000	-0.014	0.152
-565.588	-200.000	-0.503	0.001
-564.573	270.046	0.125	-0.219
-563.558	121.621	0.185	-0.230
-562.544	-200.000	0.071	-0.316
-561.529	-200.000	0.019	0.135
-560.515	-200.000	-0.005	-0.064
-559.500	250.229	-0.179	-0.303
-558.485	-92.673	-0.265	-0.074
-557.471	800.000	-0.042	0.181
-556.456	-23.516	0.142	0.085
-555.442	800.000	-0.056	-0.208
-554.427	-200.000	-0.031	0.173
-553.412	33.268	-0.217	-0.188
-552.398	-200.000	-0.033	0.182
-551.383	800.000	-0.014	-0.052
-550.369	-120.217	-0.147	-0.025
-549.354	800.000	0.131	0.423
-548.339	591.228	0.120	0.296
-547.325	-34.696	0.137	-0.074
-546.310	38.778	0.323	-0.288
-545.296	-49.032	-0.275	0.131
-544.281	-200.000	0.011	-0.062
-543.266	-69.678	0.150	0.057
-542.252	-52.200	-0.179	-0.083
-541.237	149.060	0.120	-0.161
-540.223	83.818	0.055	-0.060
-539.208	-26.921	0.259	-0.150
-538.193	-50.928	-0.140	-0.065
-537.179	-107.774	-0.075	0.016
-536.164	-51.061	-0.208	0.097
-535.150	-10.097	0.241	0.159
-534.135	81.223	-0.054	-0.058
-533.121	800.000	0.025	-0.087
-532.106	132.816	-0.157	0.202
-531.091	-51.381	0.367	0.171
-530.077	-200.000	0.002	-0.050
-529.062	244.353	-0.092	0.154
-528.048	48.473	-0.155	-0.145
-527.033	11.463	0.113	0.086
-526.018	127.488	0.113	-0.142
-525.004	-101.459	-0.346	0.084
-523.989	82.152	-0.187	0.202
-522.975	-66.996	-0.231	0.091
-521.960	800.000	0.045	-0.143
-520.945	-3.244	-0.249	-0.173
-519.931	-68.529	0.100	0.038
-518.916	800.000	0.033	0.145
-517.902	-48.575	0.257	0.123
-516.887	177.807	0.136	-0.197
-515.872	-69.065	-0.219	-0.084
-514.858	-46.940	0.287	-0.140
-513.843	80.700	-0.218	-0.234
-512.829	125.736	0.183	-0.230
-511.814	-200.000	0.002	0.135
-510.799	14.480	-0.154	0.120
-509.785	105.334	-0.090	0.105
-508.770	-26.209	-0.122	-0.071
-507.756	-32.625	0.220	0.122
-506.741	241.593	-0.063	0.105
-505.726	-200.000	0.018	-0.261
-504.712	800.000	0.006	-0.020
-503.697	-90.691	-0.351	-0.101
-502.683	84.418	0.124	-0.134
-501.668	-200.000	-0.003	-0.046
-500.653	-114.689	-0.381	-0.073
-499.639	178.571	0.071	0.104
-498.624	-200.000	0.032	-0.414
-497.610	758.447	0.042	0.113
-496.595	-200.000	-0.069	0.331
-495.581	-68.322	0.204	-0.079
-494.566	800.000	-0.079	-0.259
-493.551	-200.000	0.062	0.000
-492.537	-110.426	0.123	0.025
-491.522	91.509	0.102	-0.114
-490.508	-58.627	0.185	0.080
-489.493	-200.000	-0.059	0.462
-488.478	439.117	0.212	0.460
-487.464	679.604	0.040	-0.103
-486.449	205.209	-0.017	-0.026
-485.435	185.244	-0.151	-0.222
-484.420	-95.958	-0.285	0.075
-483.405	360.031	-0.022	0.045
-482.391	116.046	-0.196	-0.239
-481.376	-200.000	-0.013	-0.082
-480.362	621.890	-0.124	0.311
-479.347	-16.146	-0.052	-0.033
-478.332	561.871	0.072	-0.174
-477.318	42.614	-0.252	-0.228
-476.303	177.667	0.173	-0.250
-475.289	-200.000	-0.013	-0.061
-474.274	494.121	0.119	-0.272
-473.259	-159.584	0.049	0.003
-472.245	-200.000	0.010	-0.215
-471.230	99.392	-0.124	-0.143
-470.216	122.565	0.172	0.214
-469.201	36.947	-0.138	0.122
-468.186	-200.000	-0.025	0.163
-467.172	-48.982	0.010	0.005
-466.157	54.145	0.060	-0.057
-465.143	-168.688	0.280	-0.011
-464.128	370.642	-0.104	0.209
-463.113	50.072	-0.086	0.080
-462.099	-95.998	-0.129	0.034
-461.084	190.922	0.119	0.178
-460.070	-200.000	-0.013	-0.069
-459.055	-161.291	0.369	-0.019
-458.040	-25.084	-0.057	-0.034
-457.026	15.980	0.133	-0.104
-456.011	-144.742	-0.115	-0.010
-454.997	23.008	0.036	0.029
-453.982	-110.298	0.048	-0.010
-452.968	485.466	-0.082	-0.186
-451.953	303.362	-0.081	0.149
-450.938	-45.293	0.218	0.107
-449.924	180.635	0.288	-0.420
-448.909	228.827	-0.229	0.370
-447.895	0.608	-0.234	-0.166
-446.880	-200.000	-0.048	0.258
-445.865	-83.463	-0.247	-0.079
-444.851	-11.624	0.216	0.141
-443.836	154.288	-0.233	0.318
-442.822	297.135	-0.085	0.155
-441.807	434.572	0.056	0.121
-440.792	82.246	-0.161	0.174
-439.778	165.141	0.145	0.203
-438.763	-200.000	-0.002	-0.247
-437.749	1.723	0.209	-0.149
-436.734	88.679	-0.226	-0.249
-435.719	30.040	-0.161	0.136
-434.705	-103.934	0.257	0.060
-433.690	38.038	-0.213	0.188
-432.676	-85.915	-0.192	0.059
-431.661	146.275	-0.095	0.126
-430.646	-200.000	-0.026	0.206
-429.632	28.851	-0.128	-0.107
-428.617	264.083	-0.047	-0.081
-427.603	-43.381	0.286	0.143
-426.588	252.154	0.060	-0.102
-425.573	4.498	0.018	-0.013
-424.559	-139.009	0.335	-0.036
-423.544	-200.000	0.009	-0.048
-422.530	-132.701	-0.082	0.010
-421.515	-57.556	-0.084	-0.037
-420.500	-200.000	-0.027	-0.139
-419.486	357.707	0.047	0.094
-418.471	-200.000	0.013	0.110
-417.457	339.923	0.156	-0.302
-416.442	-200.000	0.026	0.505
-415.428	-200.000	-0.002	-0.195
-414.413	-77.509	0.099	0.034
-413.398	-59.279	-0.205	-0.088
-412.384	-200.000	-0.075	-0.415
-411.369	-126.814	0.387	-0.057
-410.355	256.532	-0.176	-0.299
-409.340	162.459	0.178	-0.247
-408.325	-36.331	0.166	-0.088
-407.311	80.545	-0.061	-0.065
-406.296	-45.535	-0.185	0.091
-405.282	34.525	0.221	0.191
-404.267	202.966	0.151	-0.231
-403.252	50.510	0.238	-0.223
-402.238	-189.012	-0.223	-0.003
-401.223	435.503	-0.071	0.153
-400.209	-92.101	0.216	-0.061
-399.194	-200.000	0.003	-0.075
-398.179	22.671	-0.089	-0.072
-397.165	-17.545	0.018	-0.011
-396.150	-20.658	0.191	0.116
-395.136	-58.217	0.257	-0.111
-394.121	-117.447	0.337	-0.060
-393.106	94.915	-0.167	0.188
-392.092	800.000	-0.037	-0.107
-391.077	-200.000	0.020	0.125
-390.063	-50.034	0.203	-0.095
-389.048	338.559	-0.188	0.363
-388.033	800.000	0.021	-0.066
-387.019	154.565	-0.141	-0.192
-386.004	-200.000	0.006	-0.307
-384.990	218.657	-0.167	0.264
-383.975	389.520	-0.182	-0.374
-382.960	-200.000	-0.013	-0.080
-381.946	216.738	-0.071	0.112
-380.931	-105.803	-0.466	-0.104
-379.917	8.437	0.257	-0.191
-378.902	-200.000	-0.001	-0.296
-377.888	-29.578	0.144	0.081
-376.873	-21.413	0.244	0.147
-375.858	-54.981	0.413	-0.184
-374.844	-154.739	-0.177	-0.012
-373.829	442.796	0.118	-0.256
-372.815	-200.000	-0.008	0.243
-371.800	-118.465	-0.118	0.021
-370.785	-192.866	-0.043	0.000
-369.771	-100.517	0.105	-0.026
-368.756	-200.000	-0.064	-0.364
-367.742	-200.000	0.021	-0.208
-366.727	67.370	-0.077	0.077
-365.712	800.000	0.084	0.335
-364.698	225.535	0.070	-0.113
-363.683	68.505	0.151	0.154
-362.669	-150.521	0.377	-0.029
-361.654	-130.879	0.342	-0.045
-360.639	297.022	-0.054	0.099
-359.625	214.440	0.071	-0.111
-358.610	-72.796	-0.081	0.029
-357.596	502.985	-0.116	0.266
-356.581	101.803	0.210	0.242
-355.566	800.000	0.092	-0.281
-354.552	72.263	0.100	-0.102
-353.537	-101.177	-0.187	-0.045
-352.523	34.539	0.112	-0.097
-351.508	800.000	0.073	0.231
-350.493	-148.242	-0.163	0.013
-349.479	-8.197	-0.215	-0.143
-348.464	-125.200	0.216	0.033
-347.450	-200.000	0.043	0.193
-346.435	-15.414	-0.255	0.161
-345.420	-200.000	-0.019	0.244
-344.406	201.851	-0.084	-0.128
-343.391	-200.000	-0.027	-0.208
-342.377	-200.000	-0.010	-0.239
-341.362	81.848	0.409	0.438
-340.348	800.000	0.124	0.364
-339.333	-5.410	0.125	0.085
-338.318	575.451	0.094	0.226
-337.304	-77.597	0.210	-0.072
-336.289	10.720	-0.342	0.258
-335.275	-200.000	-0.041	0.249
-334.260	14.864	-0.084	0.065
-333.245	57.537	0.169	0.163
-332.231	-179.071	-0.251	-0.006
-331.216	296.543	-0.089	-0.161
-330.202	800.000	-0.054	0.207
-329.187	-135.795	-0.080	0.009
-328.172	-200.000	0.074	-0.399
-327.158	126.665	0.236	-0.295
-326.143	25.690	-0.207	0.171
-325.129	276.930	0.085	0.148
-324.114	-143.941	-0.162	0.015
-323.099	82.719	-0.054	-0.058
-322.085	605.677	-0.117	-0.288
-321.070	800.000	-0.045	-0.176
-320.056	56.803	0.138	0.133
-319.041	263.007	0.095	-0.164
-318.026	-23.918	0.271	-0.160
-317.012	-4.750	-0.184	0.125
-315.997	58.391	-0.223	-0.216
-314.983	191.049	0.243	-0.361
-313.968	122.293	-0.270	-0.332
-312.953	669.189	-0.048	0.122
-311.939	-200.000	-0.008	0.250
-310.924	-200.000	0.010	-0.410
-309.910	-67.943	-0.312	-0.120
-308.895	-15.419	-0.112	-0.070
-307.880	-200.000	0.069	0.321
-306.866	467.408	0.063	-0.138
-305.851	44.669	0.105	0.096
-304.837	-200.000	-0.015	0.137
-303.822	800.000	-0.063	0.248
-302.807	309.797	0.066	0.121
-301.793	-65.006	0.380	-0.151
-300.778	-64.632	-0.204	-0.081
-299.764	332.160	0.112	0.213
-298.749	800.000	-0.048	0.166
-297.735	-200.000	0.001	0.073
-296.720	-145.906	0.173	0.015
-295.705	-200.000	-0.023	0.224
-294.691	604.281	0.016	0.040
-293.676	487.039	0.122	0.275
-292.662	-95.411	0.099	0.026
-291.647	-200.000	0.019	0.127
-290.632	225.897	-0.158	0.252
-289.618	-182.606	0.341	-0.006
-288.603	800.000	0.059	0.179
-287.589	-102.563	-0.122	-0.029
-286.574	-18.767	-0.118	-0.073
-285.559	-47.223	0.141	0.068
-284.545	800.000	-0.013	-0.037
-283.530	-141.144	-0.073	-0.007
-282.516	193.895	-0.043	0.065
-281.501	-200.000	0.014	0.289
-280.486	159.445	0.154	0.211
-279.472	-180.204	0.205	0.004
-278.457	-75.188	0.109	0.038
-277.443	108.611	0.284	-0.334
-276.428	328.609	0.166	0.315
-275.413	235.517	0.033	0.054
-274.399	-200.000	0.045	0.257
-273.384	172.076	0.055	-0.077
-272.370	-60.708	0.206	0.086
-271.355	-153.890	-0.065	-0.004
-270.340	217.228	0.136	-0.214
-269.326	-167.345	-0.207	-0.008
-268.311	800.000	0.024	0.067
-267.297	-200.000	0.021	0.182
-266.282	-82.282	-0.122	0.039
-265.267	-80.182	-0.087	0.029
-264.253	-185.564	-0.219	0.003
-263.238	76.205	-0.009	-0.010
-262.224	-200.000	0.024	0.128
-261.209	249.532	-0.086	-0.143
-260.195	-200.000	-0.054	-0.271
-259.180	-41.528	0.133	0.067
-258.165	-58.555	0.382	-0.163
-257.151	-200.000	-0.002	-0.143
-256.136	119.097	0.224	0.272
-255.122	-182.310	0.174	-0.003
-254.107	-200.000	0.012	0.272
-253.092	-118.612	0.214	0.037
-252.078	31.254	0.293	-0.247
-251.063	195.746	-0.182	0.272
-250.049	-16.074	-0.368	0.231
-249.034	485.919	-0.156	-0.351
-248.019	800.000	-0.016	0.050
-247.005	152.566	0.310	0.416
-245.990	23.295	-0.112	0.091
-244.976	-80.714	0.079	0.026
-243.961	-99.637	0.408	-0.101
-242.946	127.374	0.091	-0.114
-241.932	800.000	-0.030	0.117
-240.917	232.141	0.083	-0.135
-239.903	325.572	-0.050	0.095
-238.888	-156.103	-0.178	0.011
-237.873	-73.249	-0.228	-0.082
-236.859	-200.000	0.062	0.335
-235.844	-200.000	-0.002	0.410
-234.830	-200.000	-0.018	-0.119
-233.815	-0.911	-0.041	-0.028
-232.800	252.292	0.090	-0.150
-231.786	-133.092	-0.385	0.048
-230.771	-200.000	0.038	-0.190
-229.757	7.253	-0.176	0.129
-228.742	-14.613	-0.298	0.188
-227.727	-30.038	-0.154	-0.086
-226.713	-200.000	-0.022	-0.265
-225.698	-101.729	0.309	0.074
-224.684	800.000	-0.040	0.122
-223.669	-58.107	0.211	-0.090
-222.655	163.230	-0.129	0.178
-221.640	119.576	-0.023	0.028
-220.625	-60.673	0.314	-0.131
-219.611	-28.477	-0.363	0.206
-218.596	-70.726	0.098	0.036
-217.582	-200.000	0.006	-0.296
-216.567	-76.723	-0.379	0.131
-215.552	192.519	0.139	-0.207
-214.538	800.000	-0.063	-0.268
-213.523	800.000	-0.021	0.081
-212.509	-109.500	0.083	0.017
-211.494	186.722	-0.098	0.144
-210.479	384.569	-0.091	-0.185
-209.465	83.004	-0.305	0.326
-208.450	-63.053	0.012	-0.005
-207.436	106.311	0.175	-0.204
-206.421	301.632	0.212	-0.384
-205.406	71.040	-0.059	-0.060
-204.392	800.000	-0.074	-0.276
-203.377	-35.588	-0.059	-0.031
-202.363	-200.000	-0.052	0.378
-201.348	162.932	-0.076	0.104
-200.333	-137.607	0.410	0.045
-199.319	-80.149	-0.311	-0.102
-198.304	66.575	0.219	-0.219
-197.290	-165.785	-0.246	0.010
-196.275	800.000	0.006	0.021
-195.260	292.283	-0.055	-0.099
-194.246	705.414	-0.035	0.090
-193.231	429.215	-0.120	-0.254
-192.217	210.214	0.094	0.145
-191.202	-82.327	-0.136	-0.043
-190.187	274.657	-0.073	0.127
-189.173	-162.103	0.563	0.028
-188.158	380.501	-0.100	-0.202
-187.144	142.967	-0.232	0.303
-186.129	18.264	0.210	0.164
-185.114	-50.720	0.119	0.055
-184.100	536.657	-0.102	-0.239
-183.085	-42.204	0.172	0.087
-182.071	-200.000	-0.001	0.096
-181.056	800.000	0.084	-0.311
-180.042	208.126	-0.137	-0.210
-179.027	-156.751	-0.221	0.013
-178.012	800.000	-0.033	-0.139
-176.998	-200.000	0.006	-0.080
-175.983	-40.351	0.148	0.075
-174.969	49.586	-0.029	-0.026
-173.954	-116.114	-0.265	-0.048
-172.939	-61.163	-0.232	0.096
-171.925	-200.000	-0.009	-0.186
-170.910	309.504	-0.172	0.316
-169.896	-200.000	-0.007	-0.116
-168.881	57.935	-0.187	0.180
-167.866	-192.005	-0.288	-0.003
-166.852	14.259	-0.155	0.119
-165.837	-85.869	0.251	-0.076
-164.823	-79.867	0.089	-0.029
-163.808	-166.610	0.231	0.009
-162.793	58.515	-0.127	-0.122
-161.779	800.000	-0.046	0.194
-160.764	162.032	0.182	0.251
-159.750	800.000	-0.054	0.173
-158.735	37.614	-0.286	-0.249
-157.720	-200.000	0.008	0.072
-156.706	103.616	0.181	0.209
-155.691	244.399	0.129	0.213
-154.677	-200.000	-0.052	-0.295
-153.662	-109.544	-0.287	-0.059
-152.647	282.597	-0.101	0.178
-151.633	131.770	0.286	0.361
-150.618	-200.000	0.103	-0.456
-149.604	-200.000	0.014	-0.290
-148.589	34.805	-0.238	-0.204
-147.574	-12.214	0.110	-0.070
-146.560	79.948	0.191	0.201
-145.545	-1.365	0.234	0.162
-144.531	-200.000	0.002	-0.062
-143.516	71.876	-0.102	-0.104
-142.502	800.000	-0.051	-0.177
-141.487	50.330	-0.268	-0.248
-140.472	67.740	0.244	0.245
-139.458	60.561	0.024	0.024
-138.443	-100.385	0.208	-0.051
-137.429	56.087	-0.274	-0.261
-136.414	800.000	-0.102	-0.292
-135.399	306.543	0.064	0.118
-134.385	-102.780	0.177	0.041
-133.370	766.617	-0.081	-0.215
-132.356	-150.977	-0.034	-0.003
-131.341	577.214	-0.066	-0.159
-130.326	250.631	-0.085	-0.142
-129.312	-200.000	-0.014	0.104
-128.297	79.664	0.167	0.175
-127.283	-200.000	0.060	0.309
-126.268	-200.000	0.009	0.110
-125.253	-200.000	0.030	0.246
-124.239	188.226	-0.061	0.089
-123.224	-145.757	-0.106	0.009
-122.210	22.694	0.129	0.103
-121.195	152.621	0.134	-0.179
-120.180	110.830	-0.171	-0.202
-119.166	-54.150	-0.251	-0.112
-118.151	-170.393	-0.195	0.007
-117.137	800.000	-0.092	-0.341
-116.122	-106.648	0.221	-0.048
-115.107	-200.000	-0.020	-0.114
-114.093	776.347	0.104	0.279
-113.078	391.107	0.106	-0.216
-112.064	140.765	0.083	-0.107
-111.049	-109.210	0.274	-0.057
-110.034	365.628	-0.094	-0.186
-109.020	-200.000	0.023	-0.261
-108.005	-163.435	0.344	-0.016
-106.991	313.888	-0.130	0.240
-105.976	-4.178	-0.345	-0.234
-104.962	-188.539	-0.383	-0.005
-103.947	-23.831	-0.136	0.080
-102.932	-31.391	0.208	-0.115
-101.918	-200.000	-0.023	0.223
-100.903	-200.000	-0.022	-0.283
-99.889	570.973	-0.049	0.118
-98.874	500.628	0.099	0.224
-97.859	800.000	-0.081	-0.321
-96.845	363.691	-0.050	0.098
-95.830	17.922	0.148	-0.115
-94.816	-49.516	-0.249	-0.116
-93.801	-200.000	-0.000	0.019
-92.786	-28.889	-0.367	0.206
-91.772	174.452	-0.119	-0.168
-90.757	-99.338	0.160	-0.039
-89.743	-74.032	0.092	0.033
-88.728	11.420	0.247	0.185
-87.713	5.222	-0.187	0.135
-86.699	-200.000	0.011	-0.058
-85.684	-200.000	-0.004	-0.090
-84.670	56.971	-0.138	0.131
-83.655	-119.972	0.147	-0.025
-82.640	-200.000	-0.065	-0.434
-81.626	7.269	-0.155	-0.113
-80.611	1.704	0.352	-0.248
-79.597	-45.867	0.186	-0.090
-78.582	136.283	-0.041	-0.052
-77.567	-143.391	0.099	0.009
-76.553	771.917	0.081	0.215
-75.538	45.439	0.132	-0.119
-74.524	221.780	-0.051	0.081
-73.509	-24.181	0.249	-0.145
-72.494	-85.626	-0.095	-0.029
-71.480	800.000	0.046	-0.124
-70.465	10.318	0.224	-0.167
-69.451	110.088	-0.166	-0.195
-68.436	202.901	-0.014	0.021
-67.422	11.322	0.149	-0.111
-66.407	45.303	-0.103	-0.093
-65.392	-38.780	-0.132	0.068
-64.378	-123.115	0.266	-0.042
-63.363	-113.531	-0.269	0.051
-62.349	-200.000	0.350	-0.002
-61.334	108.486	-0.894	-1.043
-60.319	-36.872	0.766	0.402
-59.305	324.501	-0.670	-1.250
-58.290	800.000	0.378	1.254
-57.276	800.000	0.432	1.538
-56.261	-200.000	115.655	660.875
-55.246	533.456	1531.621	3545.168
-54.232	176.547	2705.984	3843.664
-53.217	108.454	2183.601	2547.211
-52.203	37.877	1702.681	1478.631
-51.188	29.895	1518.642	1264.487
-50.173	27.801	1492.804	1228.846
-49.159	52.478	1552.570	1448.087
-48.144	50.380	1567.759	1447.815
-47.130	30.300	1522.830	1270.546
-46.115	27.154	1508.072	1236.811
-45.100	27.069	1504.012	1232.858
-44.086	26.970	1502.437	1230.845
-43.071	26.923	1500.726	1229.076
-42.057	26.943	1498.499	1227.342
-41.042	26.890	1497.808	1226.368
-40.027	26.935	1496.217	1225.319
-39.013	26.926	1494.528	1223.826
-37.998	26.905	1493.251	1222.590
-36.984	26.933	1492.506	1222.120
-35.969	26.902	1491.010	1220.642
-34.954	26.905	1489.759	1219.589
-33.940	26.925	1488.197	1218.392
-32.925	26.968	1486.235	1217.031
-31.911	26.983	1485.183	1216.221
-30.896	27.015	1484.159	1215.548
-29.881	27.007	1482.927	1214.436
-28.867	26.999	1482.066	1213.626
-27.852	26.942	1480.527	1211.937
-26.838	27.008	1479.237	1211.276
-25.823	27.087	1477.257	1210.133
-24.809	26.993	1475.895	1208.344
-23.794	26.978	1474.476	1207.036
-22.779	27.044	1473.002	1206.220
-21.765	26.788	1472.834	1204.330
-20.750	27.008	1471.214	1204.417
-19.736	27.072	1469.368	1203.283
-18.721	26.963	1469.014	1202.225
-17.706	26.916	1468.147	1201.157
-16.692	26.882	1466.774	1199.759
-15.677	26.943	1465.893	1199.393
-14.663	26.938	1464.738	1198.368
-13.648	26.892	1464.469	1197.801
-12.633	26.862	1463.201	1196.518
-11.619	26.868	1462.666	1196.073
-10.604	26.909	1461.669	1195.478
-9.590	26.885	1460.509	1194.321
-8.575	26.893	1460.018	1193.928
-7.560	26.951	1458.520	1193.039
-6.546	26.874	1457.682	1191.794
-5.531	26.928	1456.993	1191.542
-4.517	26.860	1456.102	1190.320
-3.502	26.947	1454.932	1189.884
-2.487	26.957	1454.140	1189.254
-1.473	26.904	1452.757	1187.730
-0.458	26.987	1451.301	1187.037
0.556	27.098	1442.012	1175.462
1.571	24.056	1417.336	1135.864
2.586	20.727	1356.237	1066.442
3.600	19.190	1273.231	992.234
4.615	17.979	1227.946	950.127
5.629	15.488	1171.239	892.937
6.644	8.908	1089.806	798.122
7.659	4.085	1053.231	748.021
8.673	3.500	1047.772	741.264
9.688	3.254	1045.268	738.249
10.702	3.376	1043.459	737.490
11.717	3.410	1041.567	736.252
12.731	5.149	1042.386	745.070
13.746	11.642	1051.390	782.618
14.761	17.813	1059.360	818.162
15.775	19.473	1060.642	827.042
16.790	19.211	1059.059	824.480
17.804	18.110	1057.319	817.789
18.819	17.248	1055.593	812.266
19.834	16.761	1053.862	808.536
20.848	16.645	1053.136	807.355
21.863	16.499	1052.519	806.116
22.877	16.310	1051.897	804.664
23.892	16.150	1050.748	802.953
24.907	16.000	1050.401	801.905
25.921	15.944	1049.630	800.980
26.936	16.069	1048.893	800.937
27.950	16.119	1047.913	800.356
28.965	16.082	1046.634	799.133
29.980	16.158	1045.509	798.562
30.994	16.303	1044.721	798.578
32.009	16.405	1043.255	797.867
33.023	16.395	1042.845	797.436
34.038	16.336	1041.961	796.410
35.053	16.187	1041.327	795.153
36.067	16.115	1040.288	793.953
37.082	16.042	1039.544	792.968
38.096	16.173	1038.230	792.513
39.111	16.180	1038.341	792.561
40.126	16.377	1037.105	792.472
41.140	16.223	1035.993	790.831
42.155	16.030	1034.645	788.825
43.169	15.880	1034.007	787.568
44.184	15.938	1032.299	786.472
45.199	15.873	1031.531	785.510
46.213	15.899	1030.096	784.473
47.228	15.972	1029.452	784.249
48.242	16.040	1028.835	784.029
49.257	16.124	1028.122	783.808
50.271	16.202	1026.578	782.919
51.286	16.141	1025.629	781.846
52.301	16.290	1024.785	781.823
53.315	16.215	1024.179	780.947
54.330	16.099	1023.526	779.840
55.344	16.006	1022.761	778.758
56.359	16.005	1021.758	777.923
57.374	16.116	1020.914	777.721
58.388	15.933	1020.455	776.458
59.403	15.960	1019.380	775.696
60.417	15.895	1018.347	774.545
61.432	15.912	1017.728	774.086
62.447	15.819	1017.474	773.393
63.461	15.764	1016.116	772.041
64.476	15.633	1015.274	770.732
65.490	15.710	1014.443	770.387
66.505	15.721	1013.719	769.819
67.520	15.775	1012.960	769.422
68.534	15.795	1011.843	768.595
69.549	15.776	1010.959	767.769
70.563	15.705	1010.810	767.266
71.578	15.657	1009.954	766.327
72.593	15.723	1008.803	765.686
73.607	15.729	1007.412	764.589
74.622	15.630	1007.146	763.871
75.636	15.606	1005.752	762.637
76.651	15.727	1005.026	762.567
77.666	15.683	1004.434	761.851
78.680	15.629	1003.855	761.100
79.695	15.690	1003.368	760.941
80.709	15.841	1002.464	760.871
81.724	15.799	1001.940	760.216
82.739	15.958	1001.292	760.375
83.753	15.827	1000.704	759.271
84.768	16.000	1000.116	759.537
85.782	16.250	999.045	759.784
86.797	16.432	998.419	760.058
87.812	16.412	997.490	759.192
88.826	16.299	996.637	757.969
89.841	16.088	996.142	756.580
90.855	16.351	995.058	756.867
91.870	16.429	994.144	756.456
92.884	16.377	993.816	755.905
93.899	16.358	993.251	755.323
94.914	16.412	992.390	754.844
95.928	16.415	991.587	754.179
96.943	16.509	990.582	753.765
97.957	16.462	989.588	752.734
98.972	16.327	988.998	751.620
99.987	16.256	988.792	751.081
101.001	16.410	987.859	750.990
102.016	16.283	986.954	749.672
103.030	16.329	986.160	749.203
104.045	16.296	985.166	748.237
105.060	16.476	983.746	747.890
106.074	16.224	983.330	746.391
107.089	16.006	982.368	744.633
108.103	15.964	981.335	743.599
109.118	15.791	980.155	741.876
110.133	15.812	979.157	741.147
111.147	15.845	978.862	741.002
112.162	15.736	977.548	739.463
113.176	15.916	976.801	739.625
114.191	15.953	976.358	739.388
115.206	15.978	975.774	738.987
116.220	15.998	974.482	738.033
117.235	15.982	973.527	737.172
118.249	16.013	972.975	736.827
119.264	16.067	971.893	736.177
120.279	15.876	971.302	734.833
121.293	15.965	970.128	734.263
122.308	15.942	969.861	733.899
123.322	15.831	968.841	732.577
124.337	15.717	967.621	731.094
125.352	15.796	966.691	730.671
126.366	15.658	965.375	729.015
127.381	15.743	964.910	728.968
128.395	15.805	963.065	727.775
129.410	15.619	962.638	726.582
130.424	15.755	961.457	726.218
131.439	15.782	960.652	725.661
132.454	15.949	959.901	725.747
133.468	16.037	959.455	725.726
134.483	15.970	958.699	724.801
135.497	15.986	957.766	724.103
136.512	16.046	957.166	723.842
137.527	16.049	956.512	723.293
138.541	15.875	955.776	721.928
139.556	15.965	955.343	721.922
140.570	16.035	954.122	721.236
141.585	16.121	953.342	720.950
142.600	16.323	952.722	721.281
143.614	16.274	952.156	720.578
144.629	16.470	951.295	720.701
145.643	16.413	950.677	719.927
146.658	16.388	949.805	719.093
147.673	16.281	948.875	717.871
148.687	16.151	947.975	716.573
149.702	16.215	946.946	716.006
150.716	16.180	945.830	714.950
151.731	15.962	945.325	713.583
152.746	16.021	944.606	713.225
153.760	16.157	943.851	713.168
154.775	16.218	942.891	712.639
155.789	16.155	942.585	712.076
156.804	16.341	941.461	711.946
157.819	16.462	940.318	711.532
158.833	16.449	939.935	711.121
159.848	16.361	939.689	710.504
160.862	16.417	939.242	710.336
161.877	16.400	938.275	709.474
162.892	16.232	936.980	707.728
163.906	16.171	936.365	706.943
164.921	16.011	935.561	705.605
165.935	16.148	934.358	705.206
166.950	16.233	933.565	704.900
167.964	16.148	932.654	703.795
168.979	16.311	931.773	703.747
169.994	16.210	930.830	702.553
171.008	16.225	929.775	701.757
172.023	16.198	929.251	701.188
173.037	16.485	928.375	701.655
174.052	16.539	927.811	701.392
175.067	16.464	927.168	700.532
176.081	16.333	926.412	699.355
177.096	16.058	925.331	697.342
178.110	16.254	924.394	697.385
179.125	16.210	923.774	696.674
180.140	16.271	922.821	696.145
181.154	16.382	922.143	696.028
182.169	16.316	921.795	695.432
183.183	16.512	921.038	695.607
184.198	16.576	920.601	695.477
185.213	16.419	919.985	694.307
186.227	16.393	919.534	693.795
187.242	16.580	918.977	694.082
188.256	16.559	918.282	693.411
189.271	16.663	917.740	693.364
190.286	16.680	917.307	693.047
191.300	16.492	915.993	691.225
192.315	16.302	914.985	689.626
193.329	16.227	913.780	688.350
194.344	16.082	913.588	687.553
195.359	16.171	913.173	687.544
196.373	16.487	912.275	688.092
197.388	16.417	912.162	687.663
198.402	16.532	911.724	687.737
199.417	16.762	911.577	688.501
200.432	16.857	910.896	688.311
201.446	16.841	910.365	687.784
202.461	16.942	910.208	688.016
203.475	16.810	909.971	687.239
204.490	17.029	908.830	687.204
205.504	16.801	908.015	685.604
206.519	16.691	907.024	684.354
207.534	16.593	906.518	683.512
208.548	16.615	905.453	682.741
209.563	16.619	905.076	682.409
210.577	16.720	904.250	682.136
211.592	16.670	904.139	681.789
212.607	16.852	903.415	681.915
213.621	17.114	902.516	682.229
214.636	16.990	901.842	681.160
215.650	16.975	901.164	680.531
216.665	16.869	900.903	679.846
217.680	17.103	900.155	680.158
218.694	17.133	899.601	679.801
219.709	17.126	899.908	679.944
220.723	17.253	898.688	679.471
221.738	16.978	898.365	678.067
222.753	17.043	897.146	677.345
223.767	17.114	896.379	676.990
224.782	17.140	895.638	676.474
225.796	17.095	895.415	676.066
226.811	17.356	894.343	676.234
227.826	17.178	893.903	675.134
228.840	17.004	893.124	673.795
229.855	17.053	892.315	673.321
230.869	17.184	891.585	673.229
231.884	16.955	891.418	672.137
232.899	16.981	890.623	671.579
233.913	17.004	890.008	671.149
234.928	17.023	888.999	670.404
235.942	16.952	888.361	669.584
236.957	16.949	887.539	668.890
237.972	16.860	887.140	668.181
238.986	16.996	886.553	668.216
240.001	16.860	886.132	667.305
241.015	17.065	884.844	667.079
242.030	17.069	884.006	666.405
243.045	17.146	884.030	666.668
244.059	17.106	883.413	665.985
245.074	17.164	882.941	665.799
246.088	17.251	881.991	665.365
247.103	17.213	881.537	664.812
248.117	17.240	881.158	664.576
249.132	17.459	880.385	664.790
250.147	17.532	880.345	664.985
251.161	17.699	879.762	665.135
252.176	17.868	878.672	664.911
253.190	17.650	878.634	663.975
254.205	17.724	877.768	663.549
255.220	17.887	877.580	663.983
256.234	17.896	876.402	663.070
257.249	17.801	875.929	662.282
258.263	17.733	875.802	661.863
259.278	17.888	874.726	661.596
260.293	17.718	874.347	660.588
261.307	17.798	874.006	660.585
262.322	17.974	873.138	660.550
263.336	18.043	872.451	660.237
264.351	17.913	872.036	659.363
265.366	17.962	871.799	659.314
266.380	18.017	871.011	658.872
267.395	18.005	870.278	658.215
268.409	17.942	869.414	657.261
269.424	17.991	868.429	656.645
270.439	17.899	867.813	655.768
271.453	17.832	866.869	654.738
272.468	17.836	866.255	654.235
273.482	17.729	866.036	653.602
274.497	17.701	865.757	653.226
275.512	17.774	864.725	652.667
276.526	17.898	863.760	652.354
277.541	17.796	863.348	651.595
278.555	17.980	862.662	651.724
279.570	18.120	861.861	651.594
280.585	18.001	861.812	651.048
281.599	18.193	860.867	651.003
282.614	17.982	860.430	649.814
283.628	18.020	859.783	649.412
284.643	17.945	859.262	648.679
285.657	17.897	858.554	647.902
286.672	17.933	858.331	647.814
287.687	18.028	857.642	647.596
288.701	18.004	857.258	647.157
289.716	18.034	856.443	646.599
290.730	18.112	855.803	646.352
291.745	18.003	855.377	645.562
292.760	18.051	854.522	645.043
293.774	18.235	854.011	645.294
294.789	18.280	853.518	645.034
295.803	18.259	853.135	644.607
296.818	18.125	852.309	643.421
297.833	18.020	851.436	642.312
298.847	18.116	851.051	642.327
299.862	18.127	850.134	641.617
300.876	18.065	849.725	641.021
301.891	18.248	849.109	641.185
302.906	18.441	848.522	641.406
303.920	18.527	847.653	641.015
304.935	18.529	847.403	640.774
305.949	18.717	846.678	640.872
306.964	18.357	846.314	639.199
307.979	18.418	845.427	638.699
308.993	18.518	844.836	638.568
310.008	18.418	844.472	637.865
311.022	18.531	844.250	638.061
312.037	18.533	843.582	637.507
313.052	18.417	843.086	636.643
314.066	18.341	842.228	635.656
315.081	18.260	841.338	634.628
316.095	18.283	841.318	634.642
317.110	18.372	840.537	634.326
318.125	18.431	839.756	633.899
319.139	18.223	839.396	632.805
320.154	18.266	838.670	632.360
321.168	18.398	838.372	632.565
322.183	18.314	838.062	631.966
323.197	18.323	837.547	631.553
324.212	18.371	837.107	631.346
325.227	18.512	836.311	631.207
326.241	18.413	835.933	630.503
327.256	18.335	835.599	629.908
328.270	18.300	834.842	629.152
329.285	18.340	834.142	628.715
330.300	18.401	833.770	628.602
331.314	18.427	832.873	627.969
332.329	18.394	832.716	627.672
333.343	18.590	831.682	627.554
334.358	18.600	831.576	627.455
335.373	18.647	830.864	627.035
336.387	18.635	830.431	626.608
337.402	18.738	829.756	626.420
338.416	18.785	829.017	625.979
339.431	18.808	828.942	625.949
340.446	18.963	828.361	626.020
341.460	19.020	827.791	625.741
342.475	19.002	827.162	625.144
343.489	19.085	826.444	624.846
344.504	18.994	826.183	624.266
345.519	18.990	825.865	623.954
346.533	19.217	825.307	624.299
347.548	19.154	824.801	623.633
348.562	19.138	823.976	622.899
349.577	18.872	823.294	621.365
350.592	18.791	822.556	620.461
351.606	18.686	822.184	619.748
352.621	18.789	821.863	619.822
353.635	18.851	821.510	619.722
354.650	18.771	821.175	619.128
355.665	18.911	820.598	619.144
356.679	18.927	820.204	618.849
357.694	18.907	819.788	618.408
358.708	18.992	819.313	618.301
359.723	18.982	818.505	617.598
360.738	18.964	817.831	616.973
361.752	19.135	817.558	617.324
362.767	19.072	817.207	616.780
363.781	19.146	816.927	616.777
364.796	19.181	816.405	616.454
365.810	19.218	816.129	616.323
366.825	19.405	815.952	616.805
367.840	19.552	815.247	616.741
368.854	19.494	815.029	616.317
369.869	19.406	814.317	615.409
370.883	19.373	813.872	614.900
371.898	19.215	813.565	614.051
372.913	19.505	812.625	614.319
373.927	19.429	811.963	613.494
374.942	19.433	811.287	612.944
375.956	19.520	810.612	612.690
376.971	19.447	810.307	612.145
377.986	19.615	809.717	612.239
379.000	19.694	809.514	612.312
380.015	19.742	808.880	611.947
381.029	19.537	808.206	610.660
382.044	19.493	808.013	610.302
383.059	19.837	806.928	610.645
384.073	19.700	806.759	609.978
385.088	19.564	805.926	608.818
386.102	19.623	805.566	608.697
387.117	19.409	804.954	607.428
388.132	19.389	804.421	606.900
389.146	19.446	804.011	606.741
390.161	19.617	803.389	606.816
391.175	19.525	803.612	606.607
392.190	19.780	802.996	606.987
393.205	19.683	802.636	606.320
394.219	19.603	802.058	605.548
395.234	19.646	801.493	605.217
396.248	19.527	800.938	604.330
397.263	19.283	800.741	603.273
398.278	19.325	799.909	602.739
399.292	19.331	799.352	602.289
400.307	19.325	799.066	601.999
401.321	19.349	798.817	601.842
402.336	19.334	798.421	601.438
403.350	19.605	798.030	602.033
404.365	19.635	797.639	601.789
405.380	19.689	797.126	601.538
406.394	19.893	796.441	601.676
407.409	19.912	796.082	601.420
408.423	19.843	796.259	601.258
409.438	19.967	795.338	600.939
410.453	19.949	795.029	600.592
411.467	20.030	794.866	600.697
412.482	20.077	794.029	600.173
413.496	20.210	793.493	600.175
414.511	20.110	793.270	599.609
415.526	20.099	793.427	599.636
416.540	20.095	792.683	599.006
417.555	20.154	791.937	598.592
418.569	20.111	791.267	597.886
419.584	20.236	791.099	598.136
420.599	20.098	790.809	597.391
421.613	161.666	1371.691	1797.506
422.628	140.047	1456.292	1797.598
