DTS Sentinel unit serial number:	SN413079Multiplexer serial number:	ORYXHardware model number:	OX4-SRSoftware version number:	ORYX F/W v4.00 Oryx Data Collector v3.7.2.0data status	okinstallation	princeton_trtdifferential loss correction	single-endedforward channel	channel 3reverse channel	N/Adate	2019/09/17time	10:20:34forward acquisition time	60.00reverse acquisition time	0.00gamma	496.2192k internal	0.2323k external	0.2323temperature offset calibration	0.9945default loss term (dB/km)	0.3790temperature slope calibration	1.0000multiplexer offset coefficient	1.0000multiplexer slope coefficient	1.0000fibre end	0.00T internal ref (°C)	29.87T ext. ref 1 (°C)	0.17T ext. ref 2 (°C)	25.45length (m)	temperature (°C)	Stokes	anti-Stokes-747.200	-105.049	0.325	0.075
-746.185	800.000	0.038	0.150
-745.171	233.364	-0.088	0.146
-744.156	-77.277	0.040	-0.014
-743.142	36.746	-0.151	0.135
-742.127	15.261	-0.096	0.076
-741.112	282.428	-0.175	-0.316
-740.098	96.596	-0.030	0.035
-739.083	38.448	-0.190	-0.171
-738.069	52.491	-0.178	0.171
-737.054	51.536	0.107	0.102
-736.039	96.794	-0.167	-0.193
-735.025	-200.000	0.020	-0.161
-734.010	410.447	-0.147	-0.316
-732.996	435.166	-0.140	-0.308
-731.981	734.354	-0.107	0.289
-730.966	329.435	-0.055	-0.107
-729.952	10.798	0.289	-0.223
-728.937	158.387	0.019	-0.027
-727.923	-17.408	-0.169	0.107
-726.908	-161.251	0.088	0.005
-725.894	518.786	0.063	-0.150
-724.879	-14.354	0.101	0.066
-723.864	71.250	0.078	0.082
-722.850	-113.653	0.194	0.038
-721.835	-39.252	-0.210	-0.111
-720.821	-30.755	-0.244	0.139
-719.806	-88.828	-0.215	-0.064
-718.791	117.501	0.112	-0.139
-717.777	526.364	0.110	0.261
-716.762	60.310	-0.321	0.321
-715.748	-160.358	-0.301	0.016
-714.733	-71.328	0.080	-0.030
-713.718	-76.972	-0.155	0.055
-712.704	70.623	0.125	-0.130
-711.689	424.001	0.095	-0.206
-710.675	38.290	-0.186	0.167
-709.660	153.671	-0.062	0.086
-708.645	31.698	-0.182	-0.158
-707.631	-78.330	-0.317	-0.110
-706.616	-68.543	0.097	-0.038
-705.602	283.926	0.131	0.238
-704.587	-134.279	0.264	-0.033
-703.572	800.000	-0.072	0.267
-702.558	5.819	-0.226	-0.169
-701.543	-34.780	0.241	-0.133
-700.529	-72.139	0.374	0.140
-699.514	-14.759	0.104	0.067
-698.499	-52.646	0.104	-0.048
-697.485	-200.000	-0.024	0.206
-696.470	-157.717	-0.257	0.015
-695.456	-200.000	-0.008	-0.156
-694.441	-120.765	-0.137	-0.023
-693.426	-94.607	-0.085	-0.023
-692.412	-33.909	0.245	-0.136
-691.397	302.188	-0.097	-0.181
-690.383	252.796	-0.108	-0.185
-689.368	56.214	-0.223	-0.218
-688.354	2.283	0.185	0.135
-687.339	-103.038	0.173	-0.041
-686.324	800.000	0.080	0.264
-685.310	95.256	-0.185	-0.213
-684.295	-113.729	0.187	0.037
-683.281	11.114	-0.202	0.155
-682.266	-76.722	-0.288	-0.102
-681.251	-200.000	0.015	0.076
-680.237	232.336	-0.149	0.247
-679.222	-130.859	-0.219	0.030
-678.208	76.184	-0.244	0.260
-677.193	-164.903	0.156	0.007
-676.178	-159.824	-0.244	0.014
-675.164	-144.306	0.204	0.019
-674.149	248.264	0.096	-0.164
-673.135	49.155	-0.139	0.131
-672.120	-200.000	-0.030	0.142
-671.105	391.569	-0.122	0.255
-670.091	-200.000	0.002	0.097
-669.076	101.216	-0.258	0.303
-668.062	-73.222	-0.130	0.048
-667.047	367.317	-0.093	-0.190
-666.032	800.000	-0.123	-0.413
-665.018	76.830	0.312	0.334
-664.003	-37.899	-0.339	0.182
-662.989	278.442	-0.152	-0.273
-661.974	383.319	0.082	0.171
-660.959	-86.344	0.225	0.070
-659.945	70.245	-0.116	0.121
-658.930	-165.591	-0.167	0.007
-657.916	-140.968	-0.010	0.001
-656.901	-43.014	0.208	-0.106
-655.886	117.866	0.200	0.248
-654.872	65.206	-0.239	-0.244
-653.857	800.000	-0.082	-0.307
-652.843	800.000	0.062	-0.191
-651.828	-200.000	-0.001	-0.015
-650.814	800.000	-0.035	-0.137
-649.799	-54.559	0.203	0.093
-648.784	-21.601	-0.394	-0.242
-647.770	192.681	-0.186	-0.283
-646.755	71.030	0.061	0.064
-645.741	-121.685	0.155	-0.026
-644.726	-200.000	-0.014	-0.357
-643.711	-111.420	0.346	0.071
-642.697	-3.565	-0.188	-0.131
-641.682	-200.000	-0.023	-0.407
-640.668	-200.000	-0.040	0.286
-639.653	-102.625	-0.223	0.054
-638.638	-29.813	0.147	0.084
-637.624	-159.154	0.340	0.019
-636.609	-109.655	0.202	-0.043
-635.595	271.860	-0.160	-0.284
-634.580	44.545	-0.279	-0.258
-633.565	-1.170	0.283	-0.201
-632.551	-200.000	-0.012	0.166
-631.536	45.017	0.246	-0.228
-630.522	-114.780	0.223	-0.043
-629.507	374.410	-0.050	-0.103
-628.492	-76.730	-0.122	-0.043
-627.478	156.168	-0.128	-0.177
-626.463	-200.000	0.006	-0.367
-625.449	105.043	-0.145	-0.172
-624.434	59.130	0.103	0.101
-623.419	-200.000	0.028	-0.316
-622.405	-200.000	0.101	-0.664
-621.390	37.841	-0.147	0.131
-620.376	255.324	0.143	0.246
-619.361	75.667	0.249	0.265
-618.346	71.209	-0.206	0.215
-617.332	-121.474	-0.137	-0.023
-616.317	283.538	-0.087	0.157
-615.303	-101.711	0.336	-0.082
-614.288	-45.241	0.336	0.168
-613.273	-200.000	-0.053	0.315
-612.259	-200.000	0.043	0.323
-611.244	-99.542	0.134	0.034
-610.230	0.934	-0.151	-0.109
-609.215	699.984	0.110	0.291
-608.201	-200.000	0.037	0.221
-607.186	-200.000	-0.043	-0.204
-606.171	72.773	0.142	0.149
-605.157	-138.896	-0.061	-0.007
-604.142	663.480	0.138	0.359
-603.128	461.109	-0.066	0.148
-602.113	-200.000	0.342	-0.000
-601.098	101.003	0.128	0.149
-600.084	-149.410	-0.162	0.013
-599.069	316.128	-0.119	0.226
-598.055	-80.044	-0.174	0.059
-597.040	-200.000	0.050	0.259
-596.025	-200.000	0.005	-0.050
-595.011	527.108	0.015	0.036
-593.996	-200.000	0.021	0.340
-592.982	-200.000	0.008	-0.051
-591.967	-200.000	0.031	-0.203
-590.952	-148.612	-0.282	-0.023
-589.938	800.000	-0.102	-0.299
-588.923	-84.717	0.128	0.040
-587.909	-78.641	-0.150	0.052
-586.894	-200.000	0.037	0.214
-585.879	-15.721	-0.146	0.093
-584.865	-76.933	0.256	0.090
-583.850	-200.000	0.034	-0.214
-582.836	291.661	-0.105	0.192
-581.821	590.222	-0.097	-0.241
-580.806	-149.653	-0.296	0.023
-579.792	-200.000	-0.007	0.156
-578.777	3.288	0.419	0.306
-577.763	800.000	-0.041	0.131
-576.748	-132.385	-0.390	-0.051
-575.733	67.080	0.276	-0.282
-574.719	-47.252	-0.060	-0.029
-573.704	319.558	0.078	-0.148
-572.690	-71.748	-0.277	0.104
-571.675	582.416	0.047	0.116
-570.661	-200.000	0.024	0.314
-569.646	-200.000	0.007	-0.214
-568.631	91.731	-0.106	0.119
-567.617	-63.079	0.108	0.045
-566.602	800.000	0.048	0.193
-565.588	-200.000	0.022	0.119
-564.573	370.624	0.084	0.171
-563.558	-84.882	0.370	0.117
-562.544	-200.000	0.009	-0.097
-561.529	135.224	0.161	-0.209
-560.515	125.461	-0.278	-0.351
-559.500	-64.011	0.321	0.131
-558.485	-180.744	-0.115	-0.002
-557.471	-200.000	0.038	-0.281
-556.456	-16.028	0.275	0.175
-555.442	104.404	0.172	-0.203
-554.427	123.069	-0.127	0.159
-553.412	-91.925	0.262	0.074
-552.398	-176.454	-0.159	-0.004
-551.383	-51.580	-0.383	-0.179
-550.369	2.900	0.154	0.112
-549.354	-89.999	-0.162	0.048
-548.339	192.367	-0.116	0.175
-547.325	48.236	0.238	-0.223
-546.310	-151.472	-0.213	-0.016
-545.296	454.137	-0.126	-0.279
-544.281	45.844	-0.134	-0.124
-543.266	-103.845	0.665	0.156
-542.252	99.148	-0.027	0.031
-541.237	-157.801	-0.072	-0.004
-540.223	-87.708	0.400	-0.121
-539.208	-163.927	0.329	-0.015
-538.193	800.000	-0.023	0.077
-537.179	-86.127	0.286	0.088
-536.164	800.000	0.043	0.167
-535.150	-200.000	0.039	0.237
-534.135	-200.000	0.065	0.411
-533.121	800.000	-0.063	-0.247
-532.106	725.023	-0.102	0.272
-531.091	145.090	-0.152	0.204
-530.077	51.193	-0.152	-0.145
-529.062	-91.945	0.134	0.038
-528.048	-44.739	0.153	-0.076
-527.033	219.275	-0.310	0.497
-526.018	45.948	0.108	-0.100
-525.004	-200.000	-0.003	-0.053
-523.989	62.830	-0.098	0.099
-522.975	-94.657	0.134	-0.036
-521.960	569.346	-0.016	-0.040
-520.945	6.256	-0.139	0.103
-519.931	-129.441	-0.027	0.004
-518.916	-99.078	0.224	0.057
-517.902	5.590	-0.082	0.061
-516.887	-51.036	0.099	-0.046
-515.872	-200.000	-0.011	-0.113
-514.858	-142.188	-0.153	0.015
-513.843	143.381	0.059	-0.078
-512.829	-47.965	-0.459	0.222
-511.814	-119.104	0.182	0.032
-510.799	238.062	-0.046	0.076
-509.785	272.963	-0.184	0.326
-508.770	22.479	0.350	-0.286
-507.756	304.431	-0.053	-0.098
-506.741	126.825	0.085	-0.108
-505.726	-200.000	-0.038	0.228
-504.712	199.982	-0.165	-0.253
-503.697	-87.250	-0.515	-0.156
-502.683	-6.727	-0.106	-0.072
-501.668	482.274	0.178	0.405
-500.653	-14.212	-0.205	0.132
-499.639	103.904	-0.257	-0.302
-498.624	-2.697	-0.062	-0.043
-497.610	-67.017	0.112	-0.044
-496.595	3.716	-0.130	-0.095
-495.581	-200.000	-0.024	-0.127
-494.566	30.800	-0.114	-0.098
-493.551	800.000	-0.064	-0.273
-492.537	-104.807	-0.215	-0.049
-491.522	-171.409	0.244	-0.008
-490.508	-118.882	0.160	0.028
-489.493	-170.820	0.315	-0.011
-488.478	800.000	0.032	0.101
-487.464	-100.790	-0.160	-0.039
-486.449	800.000	-0.065	0.278
-485.435	-200.000	0.012	-0.182
-484.420	-200.000	0.040	0.474
-483.405	212.464	0.167	0.263
-482.391	-74.795	-0.154	-0.055
-481.376	-17.490	0.063	0.039
-480.362	-187.822	-0.163	0.002
-479.347	-200.000	-0.038	-0.297
-478.332	-74.207	-0.211	0.076
-477.318	-23.615	0.317	0.190
-476.303	23.860	-0.031	0.026
-475.289	-19.351	-0.279	0.173
-474.274	-88.574	0.242	-0.072
-473.259	68.052	0.150	0.153
-472.245	800.000	-0.143	-0.438
-471.230	800.000	-0.062	-0.175
-470.216	800.000	0.088	-0.257
-469.201	-200.000	0.024	0.330
-468.186	37.976	-0.154	0.137
-467.172	137.606	-0.129	-0.168
-466.157	2.073	-0.053	-0.038
-465.143	127.988	0.172	-0.219
-464.128	-8.258	-0.096	0.064
-463.113	34.546	0.063	0.055
-462.099	694.065	-0.112	-0.294
-461.084	800.000	0.093	0.270
-460.070	186.913	-0.075	-0.112
-459.055	-200.000	0.028	-0.232
-458.040	-41.416	0.228	-0.117
-457.026	-34.099	0.287	0.158
-456.011	-11.194	0.096	0.063
-454.997	36.065	0.395	-0.347
-453.982	196.583	-0.074	0.113
-452.968	244.023	0.134	-0.225
-451.953	800.000	-0.177	0.555
-450.938	-132.180	0.173	-0.022
-449.924	-26.662	0.258	0.151
-448.909	-200.000	0.048	0.390
-447.895	-72.510	-0.524	-0.193
-446.880	-37.483	0.132	0.070
-445.865	-64.377	-0.197	-0.080
-444.851	84.596	0.072	0.079
-443.836	-100.983	-0.127	0.031
-442.822	-193.677	-0.334	0.003
-441.807	272.906	0.148	0.261
-440.792	28.993	-0.195	-0.165
-439.778	360.336	0.124	-0.248
-438.763	5.027	0.183	-0.135
-437.749	592.666	-0.103	0.254
-436.734	28.688	-0.114	-0.096
-435.719	-110.663	0.170	0.035
-434.705	12.806	-0.229	0.176
-433.690	800.000	-0.047	0.158
-432.676	-200.000	0.086	-0.413
-431.661	31.512	-0.186	-0.160
-430.646	28.508	0.344	0.290
-429.632	33.160	0.184	0.159
-428.617	-200.000	-0.033	-0.222
-427.603	800.000	0.094	-0.296
-426.588	-108.825	-0.279	-0.059
-425.573	-87.022	0.243	-0.074
-424.559	-46.416	-0.037	-0.018
-423.544	560.441	0.107	0.259
-422.530	-127.232	-0.021	0.003
-421.515	800.000	0.069	0.235
-420.500	494.692	0.113	0.260
-419.486	-137.675	0.121	-0.014
-418.471	-158.686	0.459	0.026
-417.457	-81.210	-0.215	-0.071
-416.442	-200.000	0.010	-0.146
-415.428	-200.000	-0.031	0.368
-414.413	-97.317	-0.423	-0.110
-413.398	-12.131	-0.059	-0.039
-412.384	-64.184	0.124	-0.050
-411.369	114.064	-0.187	0.226
-410.355	-146.008	0.167	0.015
-409.340	-200.000	0.000	0.188
-408.325	624.061	-0.153	-0.384
-407.311	126.013	0.145	0.183
-406.296	182.868	-0.131	-0.192
-405.282	95.728	-0.056	0.064
-404.267	-83.579	-0.386	-0.123
-403.252	-43.732	0.138	0.069
-402.238	-200.000	-0.040	-0.177
-401.223	-141.955	-0.109	0.011
-400.209	63.125	-0.176	-0.176
-399.194	-6.375	-0.305	0.207
-398.179	-200.000	0.009	0.145
-397.165	-158.609	-0.022	-0.001
-396.150	-200.000	-0.017	0.093
-395.136	-119.193	0.353	0.061
-394.121	1.265	-0.377	0.270
-393.106	-200.000	0.032	0.186
-392.092	-0.762	0.181	-0.128
-391.077	-141.838	0.350	0.035
-390.063	-200.000	0.040	0.241
-389.048	800.000	-0.104	0.328
-388.033	-53.573	0.172	-0.078
-387.019	800.000	0.087	-0.315
-386.004	-68.112	-0.236	-0.091
-384.990	-200.000	0.039	-0.269
-383.975	800.000	-0.056	-0.237
-382.960	600.529	-0.064	-0.158
-381.946	-86.559	0.299	0.091
-380.931	-200.000	0.009	-0.373
-379.917	-70.789	-0.194	0.073
-378.902	800.000	-0.046	0.152
-377.888	-200.000	-0.066	-0.359
-376.873	-200.000	0.008	0.045
-375.858	87.405	0.143	-0.157
-374.844	80.650	-0.102	-0.110
-373.829	-200.000	0.009	-0.198
-372.815	-200.000	-0.006	0.309
-371.800	-85.713	0.295	-0.091
-370.785	26.946	0.235	0.196
-369.771	-83.243	0.156	0.050
-368.756	95.514	0.108	-0.122
-367.742	32.259	-0.292	0.251
-366.727	-200.000	-0.008	-0.248
-365.712	-67.948	0.305	-0.119
-364.698	-200.000	0.021	0.134
-363.683	-46.331	-0.252	-0.123
-362.669	-40.686	0.168	-0.087
-361.654	800.000	0.065	-0.279
-360.639	-95.641	0.037	-0.010
-359.625	-200.000	0.032	0.299
-358.610	86.632	-0.302	0.332
-357.596	-200.000	0.028	-0.173
-356.581	-76.216	-0.293	0.103
-355.566	-23.494	-0.239	0.143
-354.552	-200.000	-0.003	-0.067
-353.537	9.440	-0.190	0.143
-352.523	-200.000	-0.035	0.187
-351.508	-139.262	0.283	0.030
-350.493	-3.785	0.309	0.213
-349.479	-112.023	-0.218	-0.044
-348.464	-200.000	-0.002	-0.298
-347.450	167.507	0.206	-0.292
-346.435	445.727	-0.062	0.136
-345.420	43.283	-0.171	-0.155
-344.406	-5.247	-0.153	0.104
-343.391	-52.478	-0.170	-0.078
-342.377	-200.000	0.026	0.192
-341.362	-91.458	0.213	-0.060
-340.348	-200.000	-0.033	-0.149
-339.333	669.777	0.034	-0.088
-338.318	58.726	-0.106	-0.103
-337.304	-3.690	-0.188	0.130
-336.289	800.000	0.062	0.202
-335.275	95.646	0.056	-0.064
-334.260	50.026	-0.294	0.276
-333.245	-135.261	0.149	-0.018
-332.231	-122.575	0.332	-0.054
-331.216	800.000	0.056	-0.235
-330.202	800.000	0.092	-0.316
-329.187	3.593	0.273	-0.198
-328.172	203.075	0.098	0.151
-327.158	-97.985	-0.058	-0.015
-326.143	-200.000	-0.037	-0.542
-325.129	613.360	0.095	-0.236
-324.114	110.166	-0.206	-0.246
-323.099	748.096	-0.090	0.240
-322.085	-200.000	-0.037	0.228
-321.070	256.474	-0.151	0.257
-320.056	-91.934	-0.257	0.072
-319.041	25.389	0.310	0.256
-318.026	11.359	-0.256	-0.195
-317.012	800.000	-0.099	0.315
-315.997	-200.000	-0.075	-0.381
-314.983	-24.548	0.441	-0.261
-313.968	-200.000	-0.013	0.303
-312.953	-142.213	0.218	-0.021
-311.939	97.372	-0.048	0.054
-310.924	78.154	0.226	0.240
-309.910	-111.036	0.316	-0.064
-308.895	-142.017	0.165	-0.016
-307.880	-200.000	0.034	0.167
-306.866	-42.334	-0.382	0.194
-305.851	-47.755	-0.460	-0.221
-304.837	119.513	-0.282	-0.347
-303.822	800.000	0.054	-0.188
-302.807	30.167	0.087	-0.073
-301.793	-44.862	0.104	-0.052
-300.778	-98.669	0.158	0.040
-299.764	-56.992	0.053	0.023
-298.749	-163.837	-0.194	-0.009
-297.735	82.333	0.142	0.153
-296.720	57.660	0.161	-0.157
-295.705	-200.000	0.024	-0.234
-294.691	-153.188	0.249	-0.017
-293.676	161.259	-0.103	-0.142
-292.662	-183.008	-0.160	0.003
-291.647	66.325	-0.128	0.129
-290.632	-38.254	-0.159	0.084
-289.618	-121.385	0.121	0.020
-288.603	299.529	-0.088	0.162
-287.589	-200.000	0.002	0.307
-286.574	-34.312	0.271	0.147
-285.559	279.144	-0.103	0.182
-284.545	-88.396	-0.255	-0.076
-283.530	-65.531	0.267	0.107
-282.516	800.000	-0.023	-0.088
-281.501	-200.000	0.015	-0.132
-280.486	203.007	-0.032	-0.049
-279.472	-200.000	-0.015	-0.182
-278.457	-69.327	-0.033	0.012
-277.443	-153.120	0.157	-0.011
-276.428	215.982	-0.144	0.227
-275.413	171.292	-0.096	0.137
-274.399	445.214	-0.077	0.168
-273.384	-73.897	0.270	0.097
-272.370	105.096	-0.234	-0.273
-271.355	-133.254	-0.243	0.030
-270.340	-121.154	-0.240	-0.040
-269.326	-34.396	0.243	0.132
-268.311	23.308	0.249	-0.203
-267.297	800.000	-0.045	-0.147
-266.282	6.934	-0.147	-0.109
-265.267	-200.000	0.008	-0.048
-264.253	-200.000	-0.045	-0.271
-263.238	-10.170	0.048	0.032
-262.224	50.652	-0.124	0.116
-261.209	606.658	-0.047	-0.116
-260.195	-200.000	0.093	-0.419
-259.180	-112.839	0.105	-0.021
-258.165	-136.817	-0.153	-0.017
-257.151	-99.951	0.286	-0.071
-256.136	178.238	-0.114	0.164
-255.122	-67.079	-0.196	0.077
-254.107	50.654	0.153	-0.144
-253.092	-1.924	0.263	-0.183
-252.078	131.485	-0.090	-0.115
-251.063	-101.316	0.054	-0.013
-250.049	-67.091	0.182	0.071
-249.034	417.387	0.108	0.228
-248.019	800.000	-0.026	-0.073
-247.005	86.489	-0.197	-0.215
-245.990	-64.817	0.160	-0.064
-244.976	45.284	-0.162	-0.148
-243.961	409.261	-0.142	0.298
-242.946	340.601	-0.029	-0.056
-241.932	800.000	-0.042	0.123
-240.917	800.000	0.136	-0.463
-239.903	-200.000	-0.022	-0.333
-238.888	-127.534	0.156	-0.022
-237.873	800.000	0.108	0.314
-236.859	36.841	0.068	0.060
-235.844	-30.487	-0.245	-0.138
-234.830	207.350	0.100	-0.155
-233.815	25.129	-0.127	-0.105
-232.800	-174.116	-0.224	-0.006
-231.786	800.000	-0.094	-0.309
-230.771	-72.694	-0.424	-0.155
-229.757	-71.384	0.285	0.106
-228.742	-40.443	-0.095	0.049
-227.727	-60.299	-0.262	-0.111
-226.713	-150.415	0.229	-0.017
-225.698	800.000	0.078	-0.218
-224.684	85.311	-0.200	-0.217
-223.669	-200.000	0.030	-0.205
-222.655	-139.614	-0.104	0.011
-221.640	-200.000	0.051	-0.234
-220.625	-200.000	-0.007	0.119
-219.611	428.424	-0.082	0.176
-218.596	-148.233	0.115	0.009
-217.582	-131.164	0.222	-0.029
-216.567	-93.447	0.131	-0.036
-215.552	-200.000	-0.000	0.024
-214.538	-200.000	-0.079	0.365
-213.523	-200.000	-0.019	0.190
-212.509	-83.154	-0.269	0.086
-211.494	-105.354	-0.232	-0.052
-210.479	-200.000	0.057	-0.253
-209.465	-161.839	-0.222	0.011
-208.450	-200.000	0.023	0.318
-207.436	125.792	0.228	0.285
-206.421	757.776	0.070	0.187
-205.406	-200.000	-0.025	0.285
-204.392	-40.571	0.187	0.096
-203.377	-200.000	0.007	0.101
-202.363	519.807	0.017	0.039
-201.348	69.680	0.117	0.119
-200.333	800.000	-0.082	-0.319
-199.319	-200.000	0.004	-0.157
-198.304	800.000	-0.080	0.255
-197.290	67.797	-0.059	0.060
-196.275	800.000	-0.070	-0.271
-195.260	86.990	-0.232	-0.253
-194.246	-200.000	0.021	-0.130
-193.231	119.965	-0.141	0.172
-192.217	800.000	0.021	-0.064
-191.202	10.452	0.211	-0.159
-190.187	200.754	-0.012	-0.018
-189.173	29.157	-0.253	0.212
-188.158	599.904	0.047	0.114
-187.144	-108.897	-0.060	-0.013
-186.129	-44.183	-0.141	-0.070
-185.114	-63.936	0.157	0.063
-184.100	89.784	-0.194	-0.214
-183.085	-25.316	-0.060	0.035
-182.071	118.006	-0.092	-0.111
-181.056	-200.000	0.025	0.282
-180.042	-200.000	0.006	0.087
-179.027	69.052	0.154	0.157
-178.012	23.010	0.411	-0.333
-176.998	-200.000	0.017	-0.132
-175.983	-200.000	0.008	-0.148
-174.969	-200.000	0.016	0.330
-173.954	115.199	-0.153	-0.184
-172.939	68.301	-0.190	0.193
-171.925	-200.000	-0.030	0.176
-170.910	46.196	0.299	-0.273
-169.896	439.543	0.130	0.281
-168.881	423.997	-0.061	-0.130
-167.866	800.000	0.119	-0.385
-166.852	77.192	-0.141	0.148
-165.837	-159.368	-0.077	-0.004
-164.823	437.738	0.045	-0.097
-163.808	-128.821	-0.375	-0.052
-162.793	442.949	-0.082	0.177
-161.779	130.095	-0.094	-0.119
-160.764	-107.244	0.105	0.023
-159.750	328.543	0.018	0.035
-158.735	-200.000	-0.014	-0.204
-157.720	45.945	-0.295	0.269
-156.706	-200.000	0.045	0.380
-155.691	-88.167	-0.285	0.084
-154.677	800.000	-0.085	0.279
-153.662	81.681	-0.019	0.021
-152.647	47.683	-0.116	0.107
-151.633	-82.572	0.517	0.165
-150.618	58.101	-0.152	-0.147
-149.604	568.641	0.017	-0.041
-148.589	-42.681	-0.068	-0.034
-147.574	114.699	0.165	-0.198
-146.560	-29.505	-0.110	-0.062
-145.545	-200.000	-0.009	0.067
-144.531	-84.990	0.164	-0.051
-143.516	6.592	0.079	-0.058
-142.502	-156.517	-0.232	0.014
-141.487	-200.000	-0.014	0.192
-140.472	-200.000	-0.032	-0.180
-139.458	-200.000	0.020	-0.257
-138.443	-182.110	0.137	0.003
-137.429	-200.000	0.002	-0.152
-136.414	-19.542	-0.115	0.070
-135.399	-99.931	0.070	-0.017
-134.385	339.012	0.136	-0.262
-133.370	-114.995	-0.054	0.010
-132.356	93.036	0.076	-0.085
-131.341	200.343	-0.055	-0.084
-130.326	-56.387	-0.094	0.041
-129.312	328.754	-0.242	0.459
-128.297	183.860	-0.083	0.121
-127.283	800.000	0.020	0.080
-126.268	-58.139	0.136	0.058
-125.253	800.000	0.080	0.325
-124.239	-83.861	-0.163	0.051
-123.224	362.504	0.039	-0.077
-122.210	-107.560	0.223	-0.048
-121.195	-56.163	0.138	0.061
-120.180	-41.964	0.107	0.054
-119.166	350.043	0.264	0.515
-118.151	-174.794	0.426	-0.012
-117.137	526.174	-0.108	-0.252
-116.122	-200.000	0.003	0.302
-115.107	324.593	0.088	-0.165
-114.093	-18.115	-0.241	-0.149
-113.078	121.733	0.109	0.134
-112.064	-118.760	0.290	0.050
-111.049	-200.000	-0.034	-0.177
-110.034	82.693	0.200	0.214
-109.020	244.059	0.148	0.245
-108.005	177.260	0.081	-0.116
-106.991	642.969	-0.089	0.225
-105.976	-85.980	0.160	0.049
-104.962	153.825	0.269	-0.363
-103.947	55.316	-0.185	0.176
-102.932	15.666	0.235	0.182
-101.918	565.482	0.031	0.074
-100.903	-200.000	-0.040	-0.235
-99.889	360.392	-0.089	-0.175
-98.874	265.325	0.095	0.163
-97.859	242.648	0.106	-0.174
-96.845	-200.000	0.015	-0.095
-95.830	262.070	-0.110	-0.188
-94.816	66.897	-0.104	0.105
-93.801	-142.899	0.374	-0.036
-92.786	-18.298	0.250	-0.154
-91.772	25.246	-0.257	-0.210
-90.757	-154.392	-0.064	0.004
-89.743	-102.119	-0.058	-0.014
-88.728	73.700	-0.084	0.087
-87.713	800.000	-0.062	-0.175
-86.699	139.669	0.116	-0.150
-85.684	-38.027	-0.099	0.052
-84.670	-200.000	-0.041	0.322
-83.655	179.173	-0.105	-0.151
-82.640	139.187	0.044	-0.057
-81.626	-100.220	-0.252	0.062
-80.611	10.447	-0.239	0.179
-79.597	-12.249	0.155	0.100
-78.582	104.182	0.041	-0.048
-77.567	-69.685	-0.420	0.158
-76.553	-53.335	0.123	0.055
-75.538	-200.000	-0.032	0.323
-74.524	-200.000	0.017	-0.223
-73.509	-173.017	-0.206	0.006
-72.494	23.993	-0.085	0.069
-71.480	-50.871	0.285	-0.132
-70.465	238.969	0.131	0.215
-69.451	97.488	-0.199	-0.224
-68.436	64.399	0.399	0.395
-67.422	-44.507	0.622	-0.306
-66.407	107.957	0.088	0.103
-65.392	-152.806	0.215	0.015
-64.378	-7.614	0.218	-0.145
-63.363	-10.880	0.297	0.193
-62.349	-133.109	0.329	0.041
-61.334	10.675	-0.772	-0.579
-60.319	92.793	0.416	0.462
-59.305	201.376	-0.511	-0.774
-58.290	393.894	0.579	1.186
-57.276	800.000	0.643	1.764
-56.261	-200.000	104.781	568.992
-55.246	450.893	1461.877	3173.539
-54.232	148.059	2649.718	3514.159
-53.217	105.838	2189.074	2546.051
-52.203	40.348	1713.576	1516.016
-51.188	32.978	1522.896	1296.891
-50.173	30.600	1495.856	1257.751
-49.159	50.865	1549.605	1443.056
-48.144	51.340	1567.084	1462.548
-47.130	33.301	1523.627	1299.528
-46.115	30.190	1508.755	1265.597
-45.100	29.979	1505.930	1261.743
-44.086	29.882	1503.735	1259.194
-43.071	29.876	1501.585	1257.304
-42.057	29.828	1499.993	1255.597
-41.042	29.904	1498.422	1254.746
-40.027	29.842	1496.879	1252.982
-39.013	29.807	1495.337	1251.407
-37.998	29.859	1493.834	1250.446
-36.984	29.883	1492.808	1249.704
-35.969	29.861	1491.308	1248.247
-34.954	29.800	1490.282	1246.927
-33.940	29.758	1489.215	1245.704
-32.925	29.839	1487.362	1244.649
-31.911	29.832	1486.278	1243.646
-30.896	29.924	1484.694	1242.889
-29.881	29.960	1483.073	1241.725
-28.867	29.899	1482.246	1240.574
-27.852	29.872	1480.522	1238.905
-26.838	29.944	1479.646	1238.599
-25.823	29.900	1477.933	1236.826
-24.809	29.910	1476.004	1235.229
-23.794	29.954	1474.581	1234.280
-22.779	29.991	1473.529	1233.595
-21.765	29.898	1472.892	1232.396
-20.750	30.045	1471.031	1231.764
-19.736	29.958	1470.439	1230.642
-18.721	29.885	1469.174	1229.050
-17.706	29.874	1468.217	1228.132
-16.692	29.820	1467.204	1226.878
-15.677	29.861	1465.891	1226.002
-14.663	29.924	1464.692	1225.369
-13.648	29.875	1464.101	1224.499
-12.633	29.821	1463.345	1223.459
-11.619	29.886	1462.117	1222.812
-10.604	29.844	1461.359	1221.855
-9.590	29.892	1460.055	1221.032
-8.575	29.892	1459.316	1220.365
-7.560	29.908	1458.510	1219.747
-6.546	29.815	1457.901	1218.579
-5.531	29.806	1457.083	1217.789
-4.517	29.801	1456.138	1216.916
-3.502	29.884	1454.482	1216.027
-2.487	29.897	1454.118	1215.760
-1.473	29.843	1452.629	1214.118
-0.458	29.839	1451.216	1212.862
0.556	28.098	1441.820	1202.013
1.571	25.335	1416.416	1162.868
2.586	21.964	1354.123	1090.718
3.600	20.214	1271.593	1013.928
4.615	19.105	1227.307	972.268
5.629	16.605	1171.955	914.837
6.644	8.408	1086.257	806.626
7.659	1.408	1045.086	741.892
8.673	0.332	1039.787	732.835
9.688	0.146	1036.950	729.869
10.702	0.111	1035.106	728.335
11.717	0.081	1033.508	727.003
12.731	2.693	1035.997	741.327
13.746	10.929	1047.222	789.412
14.761	16.936	1054.281	823.929
15.775	17.410	1053.831	825.806
16.790	16.405	1051.754	819.237
17.804	15.442	1049.713	812.915
18.819	14.683	1047.672	807.592
19.834	14.260	1046.278	804.402
20.848	13.870	1045.185	801.608
21.863	13.609	1044.660	799.876
22.877	13.476	1043.768	798.476
23.892	13.181	1043.152	796.516
24.907	13.061	1042.060	795.034
25.921	13.197	1041.086	794.871
26.936	13.258	1040.823	794.897
27.950	13.246	1039.828	794.007
28.965	13.217	1039.605	793.629
29.980	13.271	1038.497	792.973
30.994	13.343	1037.170	792.232
32.009	13.305	1037.073	791.907
33.023	13.372	1035.967	791.309
34.038	13.341	1035.465	790.709
35.053	13.277	1034.520	789.614
36.067	13.434	1033.038	789.161
37.082	13.264	1033.324	788.499
38.096	13.233	1031.969	787.249
39.111	13.435	1031.253	787.591
40.126	13.363	1030.296	786.450
41.140	13.258	1029.354	785.160
42.155	13.204	1028.310	784.040
43.169	13.102	1027.915	783.187
44.184	13.185	1026.571	782.487
45.199	13.113	1025.307	781.112
46.213	13.212	1024.536	780.926
47.228	13.153	1023.625	779.881
48.242	13.305	1022.563	779.720
49.257	13.258	1022.132	779.100
50.271	13.370	1020.799	778.543
51.286	13.251	1019.831	777.179
52.301	13.357	1019.097	777.049
53.315	13.328	1018.605	776.465
54.330	13.165	1018.146	775.284
55.344	13.293	1017.027	774.962
56.359	13.217	1015.825	773.620
57.374	13.260	1014.743	772.933
58.388	13.191	1014.353	772.245
59.403	13.111	1013.898	771.455
60.417	13.012	1013.088	770.307
61.432	13.061	1012.058	769.684
62.447	13.239	1010.801	769.492
63.461	13.050	1010.406	768.240
64.476	13.145	1008.672	767.298
65.490	13.039	1008.121	766.318
66.505	13.049	1007.765	766.026
67.520	13.093	1006.973	765.559
68.534	13.137	1006.391	765.254
69.549	13.093	1005.391	764.222
70.563	13.209	1004.630	764.113
71.578	12.967	1004.201	762.597
72.593	13.087	1003.033	762.200
73.607	13.103	1002.042	761.454
74.622	13.061	1001.002	760.399
75.636	12.921	1000.455	759.275
76.651	12.975	999.779	758.943
77.666	13.047	998.769	758.441
78.680	13.044	998.016	757.787
79.695	13.088	997.683	757.667
80.709	12.994	996.973	756.631
81.724	13.107	996.099	756.420
82.739	13.142	995.383	755.970
83.753	13.167	994.546	755.380
84.768	13.079	994.425	754.820
85.782	13.219	993.352	754.575
86.797	13.389	992.283	754.473
87.812	13.437	990.912	753.584
88.826	13.214	990.953	752.534
89.841	13.100	990.306	751.456
90.855	13.229	989.078	751.044
91.870	13.286	988.871	751.080
92.884	13.253	988.058	750.245
93.899	13.360	986.940	749.813
94.914	13.354	986.247	749.194
95.928	13.363	985.740	748.783
96.943	13.345	985.273	748.281
97.957	13.327	984.429	747.492
98.972	13.237	983.404	746.242
99.987	13.454	982.452	746.430
101.001	13.263	982.313	745.400
102.016	13.263	981.533	744.740
103.030	13.397	980.157	744.237
104.045	13.258	979.654	743.161
105.060	13.395	978.422	742.777
106.074	13.294	977.271	741.383
107.089	13.184	976.537	740.270
108.103	13.180	975.767	739.601
109.118	13.124	974.892	738.624
110.133	13.094	974.050	737.786
111.147	13.214	973.065	737.510
112.162	13.040	972.412	736.173
113.176	13.089	971.305	735.490
114.191	13.195	970.327	735.154
115.206	13.361	969.578	735.260
116.220	13.197	969.027	734.050
117.235	13.109	967.973	732.793
118.249	13.275	967.202	732.883
119.264	13.143	966.583	731.766
120.279	13.151	965.951	731.256
121.293	13.184	964.712	730.400
122.308	13.170	964.305	729.966
123.322	13.243	962.956	729.202
124.337	13.163	962.486	728.429
125.352	13.092	961.141	727.033
126.366	13.066	959.691	725.759
127.381	13.203	958.620	725.483
128.395	13.205	957.998	724.958
129.410	13.062	957.313	723.748
130.424	13.165	956.530	723.543
131.439	13.224	955.218	722.746
132.454	13.243	954.234	722.022
133.468	13.369	953.981	722.314
134.483	13.325	952.931	721.266
135.497	13.307	952.241	720.602
136.512	13.213	951.627	719.663
137.527	13.232	950.688	718.973
138.541	13.278	949.990	718.581
139.556	13.282	949.309	718.017
140.570	13.294	948.571	717.450
141.585	13.209	948.015	716.595
142.600	13.339	947.767	716.908
143.614	13.301	946.558	715.764
144.629	13.331	946.160	715.534
145.643	13.317	944.930	714.479
146.658	13.404	944.235	714.264
147.673	13.310	943.434	713.192
148.687	13.388	942.246	712.565
149.702	13.226	941.508	711.248
150.716	13.283	940.715	710.828
151.731	13.344	940.110	710.571
152.746	13.242	939.217	709.396
153.760	13.206	938.548	708.673
154.775	13.351	937.247	708.251
155.789	13.342	936.748	707.770
156.804	13.414	936.219	707.616
157.819	13.448	935.261	706.975
158.833	13.417	934.665	706.329
159.848	13.467	934.121	706.069
160.862	13.565	933.298	705.802
161.877	13.475	932.561	704.798
162.892	13.431	931.868	704.027
163.906	13.359	931.161	703.125
164.921	13.432	930.188	702.637
165.935	13.250	929.537	701.313
166.950	13.558	927.831	701.266
167.964	13.500	927.220	700.494
168.979	13.528	926.606	700.090
169.994	13.464	925.677	699.053
171.008	13.476	924.680	698.292
172.023	13.537	923.892	697.891
173.037	13.701	922.783	697.681
174.052	13.687	922.712	697.507
175.067	13.558	922.101	696.443
176.081	13.620	921.202	695.959
177.096	13.494	920.593	694.911
178.110	13.596	919.396	694.373
179.125	13.478	919.182	693.655
180.140	13.627	917.866	693.223
181.154	13.703	917.022	692.843
182.169	13.610	916.535	692.027
183.183	13.624	916.344	691.881
184.198	13.733	915.474	691.614
185.213	13.749	914.429	690.830
186.227	13.763	914.125	690.601
187.242	13.877	913.591	690.610
188.256	13.668	913.005	689.236
189.271	13.868	912.290	689.465
190.286	13.899	911.075	688.613
191.300	13.692	911.091	687.710
192.315	13.677	909.944	686.720
193.329	13.640	909.130	685.890
194.344	13.639	908.649	685.463
195.359	13.667	908.219	685.194
196.373	13.759	907.753	685.161
197.388	13.766	907.257	684.755
198.402	13.752	906.780	684.276
199.417	13.863	906.142	684.192
200.432	13.922	905.398	683.813
201.446	14.089	905.596	684.590
202.461	14.028	905.133	683.930
203.475	14.024	904.443	683.328
204.490	14.120	903.775	683.159
205.504	13.911	903.037	681.682
206.519	13.959	901.575	680.716
207.534	13.914	901.327	680.285
208.548	14.041	900.228	679.912
209.563	13.896	900.404	679.394
210.577	14.023	899.120	678.883
211.592	14.040	898.650	678.537
212.607	14.130	898.359	678.627
213.621	14.163	897.576	678.109
214.636	14.117	897.185	677.567
215.650	14.057	896.654	676.858
216.665	14.199	895.806	676.739
217.680	14.252	895.246	676.471
218.694	14.210	894.879	675.962
219.709	14.088	894.353	675.010
220.723	14.151	893.781	674.775
221.738	14.321	893.034	674.837
222.753	14.098	892.182	673.233
223.767	14.203	891.639	673.189
224.782	14.183	890.722	672.355
225.796	14.321	889.852	672.195
226.811	14.255	889.386	671.517
227.826	14.415	888.342	671.317
228.840	14.249	887.867	670.227
229.855	14.325	887.386	670.110
230.869	14.258	887.089	669.558
231.884	14.315	885.866	668.806
232.899	14.316	885.291	668.315
233.913	14.136	885.013	667.326
234.928	14.326	884.043	667.297
235.942	14.227	883.170	666.183
236.957	14.272	882.530	665.818
237.972	14.415	881.868	665.834
238.986	14.304	881.268	664.878
240.001	14.295	880.680	664.338
241.015	14.328	880.001	663.900
242.030	14.369	879.112	663.334
243.045	14.522	878.813	663.658
244.059	14.362	878.694	662.874
245.074	14.433	877.700	662.347
246.088	14.523	876.905	662.046
247.103	14.414	876.777	661.458
248.117	14.467	876.127	661.120
249.132	14.570	875.351	660.883
250.147	14.616	874.819	660.606
251.161	14.612	874.295	660.138
252.176	14.737	873.758	660.165
253.190	14.790	872.729	659.539
254.205	14.776	872.377	659.162
255.220	14.733	871.806	658.501
256.234	14.808	871.131	658.227
257.249	14.824	870.523	657.774
258.263	14.792	869.903	657.120
259.278	14.822	869.343	656.758
260.293	14.836	869.044	656.527
261.307	14.956	868.089	656.219
262.322	14.908	867.713	655.689
263.336	15.021	866.645	655.266
264.351	14.999	865.927	654.581
265.366	15.025	865.503	654.304
266.380	15.113	864.760	654.027
267.395	14.992	864.455	653.267
268.409	14.973	863.490	652.403
269.424	14.993	862.693	651.823
270.439	15.086	861.825	651.472
271.453	15.096	861.576	651.263
272.468	14.908	860.856	649.931
273.482	15.103	860.047	650.020
274.497	14.951	859.929	649.285
275.512	15.022	859.026	648.818
276.526	14.994	858.210	648.036
277.541	15.059	857.462	647.668
278.555	15.078	856.837	647.213
279.570	15.281	856.206	647.460
280.585	15.202	856.049	646.981
281.599	15.213	855.200	646.325
282.614	15.193	854.725	645.829
283.628	15.235	854.172	645.517
284.643	15.169	853.612	644.783
285.657	15.297	853.051	644.794
286.672	15.191	852.705	644.069
287.687	15.246	851.913	643.625
288.701	15.217	851.515	643.155
289.716	15.289	851.238	643.167
290.730	15.250	850.397	642.324
291.745	15.293	849.844	642.015
292.760	15.301	848.923	641.291
293.774	15.452	848.110	641.198
294.789	15.501	847.723	641.035
295.803	15.356	847.565	640.306
296.818	15.477	846.831	640.157
297.833	15.434	846.211	639.468
298.847	15.441	845.390	638.818
299.862	15.515	844.672	638.499
300.876	15.575	843.724	637.954
301.891	15.560	843.397	637.595
302.906	15.558	842.920	637.167
303.920	15.487	842.162	636.272
304.935	15.530	841.747	636.065
305.949	15.647	841.343	636.143
306.964	15.627	840.502	635.378
307.979	15.629	839.737	634.751
308.993	15.644	839.318	634.436
310.008	15.763	838.707	634.366
311.022	15.719	838.294	633.829
312.037	15.634	838.083	633.294
313.052	15.649	837.462	632.827
314.066	15.637	836.990	632.369
315.081	15.713	835.802	631.699
316.095	15.648	835.667	631.296
317.110	15.757	835.001	631.148
318.125	15.728	833.987	630.216
319.139	15.731	833.694	629.952
320.154	15.704	833.300	629.495
321.168	15.754	832.773	629.229
322.183	15.688	832.312	628.579
323.197	15.710	831.773	628.197
324.212	15.616	831.339	627.464
325.227	15.702	830.974	627.455
326.241	15.817	829.800	626.941
327.256	15.891	829.331	626.805
328.270	15.756	828.908	625.927
329.285	15.760	828.377	625.486
330.300	15.824	827.931	625.333
331.314	15.805	827.508	624.886
332.329	15.776	826.582	624.025
333.343	15.897	825.951	623.942
334.358	15.966	825.124	623.519
335.373	15.915	825.067	623.232
336.387	15.922	824.301	622.623
337.402	15.990	823.934	622.542
338.416	15.876	823.561	621.784
339.431	16.046	822.772	621.759
340.446	16.161	822.099	621.619
341.460	16.062	821.679	620.883
342.475	16.161	821.058	620.722
343.489	16.114	820.929	620.397
344.504	16.340	819.858	620.364
345.519	16.275	819.457	619.767
346.533	16.163	819.328	619.205
347.548	16.325	818.678	619.251
348.562	16.263	818.342	618.715
349.577	16.106	817.592	617.518
350.592	16.127	816.902	617.018
351.606	16.070	816.527	616.474
352.621	16.020	816.315	616.076
353.635	16.215	815.856	616.386
354.650	16.228	815.553	616.151
355.665	16.181	815.129	615.603
356.679	16.297	814.480	615.482
357.694	16.227	814.035	614.839
358.708	16.353	813.181	614.597
359.723	16.360	812.510	614.063
360.738	16.302	812.228	613.582
361.752	16.353	811.382	613.075
362.767	16.354	811.371	613.014
363.781	16.434	811.251	613.162
364.796	16.527	810.160	612.619
365.810	16.488	810.087	612.368
366.825	16.590	809.586	612.305
367.840	16.559	809.201	611.845
368.854	16.547	809.070	611.651
369.869	16.522	808.125	610.791
370.883	16.515	808.123	610.710
371.898	16.693	807.073	610.505
372.913	16.590	806.779	609.859
373.927	16.792	805.801	609.791
374.942	16.695	805.373	609.064
375.956	16.739	804.734	608.686
376.971	16.673	803.986	607.830
377.986	16.748	803.821	607.920
379.000	16.781	803.076	607.421
380.015	16.708	803.131	607.146
381.029	16.872	802.245	607.011
382.044	16.702	801.957	606.130
383.059	16.745	801.642	605.993
384.073	16.843	800.795	605.650
385.088	16.764	800.275	604.919
386.102	16.841	799.792	604.776
387.117	16.797	798.967	603.941
388.132	16.854	798.749	603.926
389.146	16.809	798.374	603.430
390.161	16.793	798.230	603.210
391.175	16.782	797.790	602.786
392.190	16.919	797.188	602.765
393.205	16.970	796.765	602.572
394.219	16.900	796.604	602.148
395.234	16.879	795.803	601.415
396.248	16.921	795.013	600.914
397.263	16.826	794.620	600.227
398.278	16.866	794.434	600.175
399.292	16.956	793.637	599.838
400.307	16.878	793.463	599.378
401.321	16.949	792.877	599.133
402.336	17.094	792.174	599.059
403.350	16.984	792.121	598.581
404.365	17.037	791.722	598.412
405.380	17.116	791.357	598.360
406.394	17.120	790.782	597.887
407.409	17.119	790.796	597.840
408.423	17.029	790.216	597.033
409.438	17.189	789.403	596.930
410.453	17.142	789.430	596.731
411.467	17.121	788.873	596.183
412.482	17.277	788.055	596.060
413.496	17.331	787.591	595.846
414.511	17.379	787.064	595.562
415.526	17.279	787.050	595.149
416.540	17.310	786.705	594.944
417.555	17.381	786.300	594.834
418.569	17.313	785.779	594.148
419.584	17.337	785.270	593.796
420.599	17.244	784.888	593.127
421.613	108.604	1289.158	1466.252
422.628	93.031	1362.637	1466.348
